Data from calibration3_FLMT105791__9__17-25-37-069.txt Node

Date: Mon Mar 20 17:25:37 GMT 2023
User: antho
Spectrometer: FLMT10579
Trigger mode: 0
Integration Time (sec): 1.000000E-1
Scans to average: 10
Electric dark correction enabled: true
Nonlinearity correction enabled: false
Boxcar width: 0
XAxis mode: Wavelengths
Number of Pixels in Spectrum: 3648
>>>>>Begin Spectral Data<<<<<
345.248	-143.39
345.464	-143.39
345.681	-143.39
345.898	-155.21
346.114	-140.48
346.331	-58.14
346.548	18.58
346.764	1.73
346.981	1.73
347.197	-7.38
347.414	-4.86
347.631	-16.29
347.847	73.41
348.064	9.86
348.28	29.24
348.497	-47.29
348.713	-0.6
348.93	45.9
349.146	99.96
349.363	100.93
349.579	116.04
349.796	105.19
350.012	116.62
350.229	142
350.445	145.1
350.661	131.15
350.878	157.89
351.094	152.66
351.311	126.11
351.527	158.86
351.743	119.14
351.96	197.61
352.176	179.01
352.392	181.14
352.609	191.99
352.825	143.74
353.041	166.41
353.257	161.76
353.474	180.56
353.69	179.39
353.906	166.99
354.122	165.06
354.339	223.96
354.555	171.06
354.771	203.22
354.987	259.22
355.203	255.73
355.42	196.25
355.636	164.28
355.852	178.81
356.068	219.69
356.284	185.4
356.5	248.56
356.716	180.75
356.932	185.21
357.148	211.56
357.364	185.4
357.58	212.72
357.796	228.99
358.012	228.61
358.228	193.73
358.444	125.73
358.66	236.16
358.876	183.27
359.092	156.92
359.308	207.87
359.524	205.55
359.74	219.69
359.956	246.62
360.172	259.99
360.388	295.25
360.604	264.06
360.819	345.82
361.035	244.69
361.251	275.49
361.467	221.82
361.683	266.77
361.898	260.19
362.114	332.07
362.33	239.46
362.546	312.69
362.762	281.5
362.977	313.08
363.193	294.29
363.409	348.54
363.624	261.54
363.84	272.2
364.056	275.49
364.271	342.72
364.487	316.57
364.703	343.69
364.918	312.5
365.134	293.7
365.35	329.74
365.565	445.41
365.781	357.83
365.996	398.91
366.212	471.56
366.427	444.83
366.643	418.67
366.858	420.61
367.074	399.68
367.289	486.48
367.505	508.57
367.72	378.95
367.936	442.31
368.151	449.09
368.367	433.98
368.582	408.4
368.798	406.66
369.013	475.25
369.228	453.93
369.444	428.17
369.659	481.64
369.874	478.15
370.09	513.8
370.305	436.69
370.52	461.68
370.736	517.87
370.951	476.02
371.166	524.46
371.381	501.79
371.597	477.96
371.812	443.47
372.027	487.84
372.242	464.2
372.458	538.02
372.673	434.75
372.888	439.98
373.103	479.7
373.318	535.31
373.533	454.32
373.749	441.92
373.964	362.87
374.179	436.5
374.394	370.23
374.609	466.72
374.824	379.34
375.039	480.86
375.254	391.93
375.469	516.71
375.684	470.21
375.899	553.71
376.114	526.01
376.329	523.49
376.544	535.11
376.759	510.7
376.974	473.7
377.189	521.16
377.404	544.8
377.619	620.56
377.834	556.62
378.049	601.18
378.264	647.1
378.478	684.11
378.693	663.37
378.908	687.79
379.123	652.14
379.338	665.7
379.553	609.32
379.767	602.34
379.982	586.65
380.197	602.73
380.412	584.52
380.626	650.39
380.841	710.65
381.056	738.35
381.271	769.55
381.485	658.53
381.7	644.97
381.915	643.22
382.129	568.05
382.344	578.51
382.559	544.61
382.773	592.27
382.988	462.46
383.202	510.7
383.417	453.93
383.632	559.91
383.846	467.11
384.061	525.81
384.275	517.48
384.49	570.57
384.704	660.66
384.919	700.96
385.133	705.22
385.348	758.12
385.562	687.98
385.777	726.15
385.991	689.92
386.206	668.99
386.42	688.17
386.634	757.54
386.849	774.78
387.063	747.65
387.277	742.62
387.492	735.64
387.706	721.3
387.92	719.37
388.135	781.17
388.349	788.73
388.563	787.57
388.778	789.5
388.992	790.28
389.206	840.07
389.42	923.38
389.635	883.28
389.849	963.1
390.063	1046.8
390.277	1015.03
390.491	1074.12
390.706	1033.04
390.92	1074.89
391.134	1065.59
391.348	1095.24
391.562	1097.37
391.776	1175.06
391.99	1143.67
392.205	1128.37
392.419	1087.68
392.633	1035.76
392.847	998.36
393.061	862.16
393.275	833.48
393.489	667.44
393.703	598.28
393.917	641.09
394.131	618.23
394.345	747.07
394.559	898.78
394.773	967.36
394.986	1099.69
395.2	1151.42
395.414	1269.61
395.628	1265.35
395.842	1323.28
396.056	1322.31
396.27	1200.83
396.484	1151.81
396.697	1062.11
396.911	942.37
397.125	787.18
397.339	790.28
397.553	850.73
397.766	1012.51
397.98	1124.88
398.194	1345.36
398.408	1410.46
398.621	1562.17
398.835	1641.8
399.049	1662.34
399.262	1749.13
399.476	1835.16
399.69	1832.83
399.903	1905.29
400.117	1812.68
400.331	1858.6
400.544	1867.9
400.758	1991.71
400.971	1958.57
401.185	1977.95
401.398	1974.85
401.612	2052.54
401.826	2093.23
402.039	2096.52
402.253	2118.61
402.466	2170.15
402.68	2152.71
402.893	2204.25
403.106	2163.75
403.32	2064.75
403.533	2125.78
403.747	2072.3
403.96	2182.93
404.174	2249.39
404.387	2173.44
404.6	2202.5
404.814	2254.81
405.027	2155.42
405.24	2140.7
405.454	2153.68
405.667	2253.26
405.88	2242.03
406.094	2249.58
406.307	2292.21
406.52	2181
406.733	2131.2
406.947	2132.95
407.16	2236.02
407.373	2261.01
407.586	2267.6
407.799	2306.93
408.012	2296.28
408.226	2310.03
408.439	2459.02
408.652	2427.64
408.865	2538.85
409.078	2637.66
409.291	2606.08
409.504	2610.53
409.717	2615.77
409.93	2582.83
410.143	2395.09
410.357	2308.87
410.57	2214.32
410.783	2308.87
410.996	2352.27
411.209	2494.87
411.421	2725.43
411.634	2731.04
411.847	2739.96
412.06	2791.49
412.273	2813.77
412.486	2822.11
412.699	2887.21
412.912	2873.06
413.125	2797.5
413.338	2816.68
413.55	2773.86
413.763	2732.59
413.976	2825.79
414.189	2804.28
414.402	2864.54
414.615	2990.67
414.827	2836.83
415.04	2907.35
415.253	2913.17
415.466	2991.63
415.678	2984.08
415.891	2936.42
416.104	2933.32
416.316	2906.77
416.529	3042.4
416.742	3161.74
416.954	3117.96
417.167	3088.31
417.38	3009.65
417.592	2968.19
417.805	2897.47
418.017	2916.27
418.23	2992.99
418.442	2972.65
418.655	3023.41
418.868	2992.41
419.08	3026.9
419.293	3072.23
419.505	3127.06
419.718	3062.55
419.93	3133.26
420.142	3049.76
420.355	3048.79
420.567	3016.24
420.78	3143.53
420.992	3129.58
421.205	3277.99
421.417	3316.36
421.629	3369.25
421.842	3361.69
422.054	3347.74
422.266	3426.02
422.479	3340.77
422.691	3170.46
422.903	3200.3
423.115	3137.53
423.328	3074.17
423.54	3164.07
423.752	3214.64
423.964	3313.06
424.177	3350.07
424.389	3332.44
424.601	3466.32
424.813	3471.35
425.025	3453.14
425.238	3468.83
425.45	3413.42
425.662	3350.84
425.874	3720.12
426.086	3394.44
426.298	3479.1
426.51	3465.73
426.722	3500.61
426.934	3508.16
427.146	3466.12
427.358	3439.58
427.57	3401.99
427.782	3320.23
427.994	3281.09
428.206	3378.35
428.418	3578.88
428.63	3640.3
428.842	3643.59
429.054	3541.3
429.266	3460.5
429.478	3386.3
429.69	3363.24
429.902	3286.52
430.114	3240.02
430.325	3104.59
430.537	2884.3
430.749	2791.11
430.961	2651.61
431.173	2764.18
431.384	2824.82
431.596	2928.67
431.808	3356.85
432.02	3769.34
432.231	3999.31
432.443	4200.62
432.655	4045.43
432.867	3979.16
433.078	3975.1
433.29	4063.64
433.502	4230.45
433.713	4262.04
433.925	4334.5
434.136	4120.21
434.348	3907.67
434.56	3860.2
434.771	3983.62
434.983	3931.31
435.194	4161.29
435.406	4352.52
435.617	4443.77
435.829	4549.94
436.04	4553.82
436.252	4477.87
436.463	4762.48
436.675	4834.95
436.886	4925.43
437.098	4944.99
437.309	4989.17
437.521	4821.96
437.732	4677.82
437.943	4651.85
438.155	4677.62
438.366	4567.19
438.578	4661.93
438.789	4444.74
439	4351.74
439.211	4402.31
439.423	4468.38
439.634	4704.55
439.845	4847.15
440.057	4871.95
440.268	5059.69
440.479	4961.08
440.69	4986.07
440.902	4853.74
441.113	4895.78
441.324	5006.22
441.535	5208.68
441.746	5321.83
441.957	5252.47
442.168	5353.99
442.38	5430.14
442.591	5467.72
442.802	5424.71
443.013	5547.55
443.224	5645
443.435	5481.48
443.646	5472.96
443.857	5437.69
444.068	5508.99
444.279	5443.7
444.49	5776.75
444.701	5621.95
444.912	5840.11
445.123	5850.76
445.334	5579.32
445.545	5748.66
445.756	5616.52
445.967	5523.72
446.178	5412.89
446.388	5410.76
446.599	5487.87
446.81	5524.88
447.021	5517.32
447.232	5701
447.443	5811.43
447.653	5941.44
447.864	6070.28
448.075	6090.82
448.286	6014.87
448.496	5950.74
448.707	6098.37
448.918	5895.52
449.129	5953.45
449.339	5995.88
449.55	6082.48
449.761	6070.47
449.971	6040.25
450.182	6189.82
450.393	6293.09
450.603	6171.41
450.814	6512.8
451.024	6477.73
451.235	6675.16
451.446	6647.45
451.656	6633.11
451.867	6573.44
452.077	6397.71
452.288	6517.83
452.498	6371.94
452.709	6384.73
452.919	6197.76
453.13	6102.05
453.34	6115.23
453.55	5852.31
453.761	6166.57
453.971	6045.48
454.182	6232.64
454.392	6315.37
454.602	6490.71
454.813	6524.62
455.023	6421.35
455.233	6315.95
455.444	6398.49
455.654	6205.51
455.864	6393.25
456.075	6537.6
456.285	6474.63
456.495	6591.85
456.705	6593.78
456.916	6781.72
457.126	6860.57
457.336	6748.78
457.546	6681.16
457.756	6799.16
457.967	6872.39
458.177	6732.12
458.387	6803.42
458.597	6591.26
458.807	6742.97
459.017	6613.35
459.227	6633.5
459.437	6648.03
459.647	6789.47
459.857	6773
460.068	6906.49
460.278	6918.7
460.488	6837.9
460.698	6855.54
460.908	7020.03
461.117	7103.34
461.327	7193.82
461.537	7271.12
461.747	7269.19
461.957	7232.57
462.167	7372.26
462.377	7333.9
462.587	7260.85
462.797	7448.98
463.007	7401.52
463.216	7575.31
463.426	7693.69
463.636	7542.37
463.846	7293.79
464.056	7369.74
464.265	7285.46
464.475	7348.04
464.685	7541.4
464.895	7476.5
465.104	7292.82
465.314	7562.52
465.524	7399.77
465.733	7417.4
465.943	7684.77
466.153	7816.52
466.362	7851.01
466.572	7800.25
466.782	7623.16
466.991	7857.6
467.201	7667.34
467.41	7487.54
467.62	7837.25
467.829	7834.54
468.039	7969.78
468.249	7876.78
468.458	8096.49
468.668	8009.49
468.877	8150.54
469.086	8300.12
469.296	8510.91
469.505	8524.47
469.715	8437.09
469.924	8341.77
470.134	8435.74
470.343	8225.52
470.552	8270.47
470.762	8217.77
470.971	8356.69
471.18	8445.04
471.39	8507.81
471.599	8441.16
471.808	8579.5
472.018	8893.76
472.227	8999.74
472.436	9259.75
472.645	9320.97
472.855	9158.42
473.064	9590.08
473.273	9569.74
473.482	9252.38
473.691	9455.04
473.901	9383.55
474.11	9215.38
474.319	9514.33
474.528	9502.7
474.737	10062.05
474.946	9854.36
475.155	9949.29
475.364	10111.46
475.573	9936.7
475.783	10204.46
475.992	10031.25
476.201	10009.74
476.41	10220.15
476.619	10039.58
476.828	10078.13
477.037	10034.35
477.245	10062.63
477.454	10268.39
477.663	10499.73
477.872	10809.53
478.081	11008.12
478.29	10886.06
478.499	11092.98
478.708	11321.22
478.917	11309.4
479.125	10949.61
479.334	11079.23
479.543	11395.23
479.752	11553.71
479.961	11449.86
480.169	11812.56
480.378	11825.73
480.587	12196.37
480.796	11976.08
481.004	11979.18
481.213	12126.82
481.422	12213.23
481.63	12434.1
481.839	12524.39
482.048	12711.35
482.256	12647.8
482.465	12979.3
482.674	12845.43
482.882	12915.56
483.091	13035.1
483.299	12769.09
483.508	13178.86
483.716	13252.68
483.925	13395.47
484.134	12925.06
484.342	13225.56
484.551	13171.89
484.759	13068.62
484.967	13581.66
485.176	13440.04
485.384	13532.45
485.593	13364.28
485.801	13193.59
486.01	12675.7
486.218	12046.8
486.426	11581.42
486.635	11387.86
486.843	11521.94
487.051	11806.16
487.26	12114.61
487.468	12362.22
487.676	12733.05
487.885	13230.21
488.093	13510.95
488.301	13941.84
488.509	13949.59
488.717	14174.92
488.926	14215.61
489.134	14030.77
489.342	14077.08
489.55	13976.13
489.758	14308.6
489.967	14773.6
490.175	14711.21
490.383	15210.3
490.591	15429.24
490.799	15324.61
491.007	15237.23
491.215	15340.7
491.423	15180.27
491.631	15151.4
491.839	15043.87
492.047	14957.85
492.255	14689.51
492.463	14729.42
492.671	14395.21
492.879	14913.68
493.087	15111.69
493.295	15336.05
493.503	15430.59
493.711	15870.4
493.919	15725.09
494.127	15645.07
494.334	15657.08
494.542	15727.8
494.75	16174
494.958	15960.88
495.166	16438.27
495.374	16461.14
495.581	16622.14
495.789	16485.35
495.997	16606.64
496.205	15983.94
496.412	16249.95
496.62	16578.93
496.828	16465.79
497.035	16641.51
497.243	16657.98
497.451	16757.76
497.658	16781.01
497.866	16662.25
498.074	16862.97
498.281	16530.11
498.489	16528.95
498.696	16257.51
498.904	16079.65
499.112	16146.1
499.319	16556.85
499.527	16659.15
499.734	16841.46
499.942	16726.96
500.149	16691.89
500.357	16747.69
500.564	16403.59
500.771	16342.56
500.979	16138.93
501.186	15983.55
501.394	16380.73
501.601	15878.93
501.808	15940.34
502.016	15987.42
502.223	15929.11
502.43	16116.27
502.638	16095.53
502.845	16429.56
503.052	16589.4
503.26	16667.86
503.467	16708.55
503.674	16828.87
503.881	16808.14
504.089	16525.27
504.296	16470.24
504.503	16285.6
504.71	16163.73
504.917	16471.6
505.125	16581.07
505.332	16785.27
505.539	16857.16
505.746	17230.31
505.953	17375.04
506.16	17527.13
506.367	17531.98
506.574	17807.29
506.781	17773
506.988	17511.25
507.195	17546.9
507.402	17471.14
507.609	17486.83
507.816	17275.26
508.023	17165.6
508.23	17038.5
508.437	16792.44
508.644	17013.32
508.851	17105.35
509.058	17505.63
509.265	17562.4
509.472	17766.8
509.679	17821.05
509.885	17846.04
510.092	17693.76
510.299	17800.12
510.506	17427.16
510.713	17580.61
510.92	17538.95
511.126	17658.69
511.333	17948.15
511.54	17950.47
511.746	17986.31
511.953	18125.42
512.16	18308.71
512.367	18121.55
512.573	18030.68
512.78	17989.03
512.987	17930.13
513.193	17653.07
513.4	17418.44
513.606	17650.94
513.813	17655.78
514.02	17443.82
514.226	17423.67
514.433	17585.64
514.639	17355.28
514.846	17416.31
515.052	17283.79
515.259	17484.9
515.465	17568.98
515.672	17697.82
515.878	17667.6
516.085	18001.43
516.291	17875.68
516.497	17790.05
516.704	17154.56
516.91	16721.92
517.117	16138.93
517.323	15588.89
517.529	15550.52
517.736	15522.82
517.942	15632.09
518.148	16102.12
518.354	16221.28
518.561	16264.09
518.767	16066.47
518.973	16207.71
519.179	16526.43
519.386	16803.29
519.592	16783.53
519.798	16854.25
520.004	17549.61
520.21	17567.24
520.417	17623.43
520.623	17711.58
520.829	17757.3
521.035	17807.29
521.241	17692.01
521.447	17899.71
521.653	18187.81
521.859	17941.17
522.065	18139.37
522.271	18343.2
522.477	18130.66
522.683	18363.93
522.889	17931.48
523.095	17776.68
523.301	17817.75
523.507	17725.92
523.713	17801.87
523.919	17826.09
524.125	18237.02
524.331	18458.67
524.537	18749.68
524.742	18761.88
524.948	18730.69
525.154	18805.86
525.36	18759.95
525.566	18401.13
525.772	18721.2
525.977	18576.27
526.183	18442.78
526.389	18550.12
526.595	17927.22
526.8	17673.99
527.006	17132.28
527.212	16733.35
527.417	16621.36
527.623	16780.24
527.829	16958.49
528.034	17364.58
528.24	17529.46
528.446	17948.92
528.651	18291.27
528.857	18324.21
529.062	18554.19
529.268	18762.27
529.473	18925.21
529.679	19063.55
529.884	19069.75
530.09	18918.43
530.295	18442.98
530.501	18788.82
530.706	18848.3
530.912	18950.59
531.117	19012.4
531.323	19094.16
531.528	19309.22
531.733	19340.22
531.939	19191.62
532.144	19069.55
532.35	18942.26
532.555	18955.05
532.76	18505.36
532.966	18376.91
533.171	18145.38
533.376	18013.05
533.581	18099.85
533.787	18377.49
533.992	18636.53
534.197	18315.1
534.402	18748.32
534.607	18814.2
534.813	18728.95
535.018	18718.29
535.223	19039.91
535.428	18979.46
535.633	19127.49
535.838	19421.79
536.043	19603.13
536.249	19665.33
536.454	19440.39
536.659	19568.65
536.864	19401.44
537.069	19096.29
537.274	19055.41
537.479	19014.72
537.684	18991.28
537.889	18868.83
538.094	19311.93
538.299	19074.4
538.504	19411.13
538.708	19240.83
538.913	19511.1
539.118	19431.47
539.323	19329.37
539.528	19167.2
539.733	18947.49
539.938	19057.15
540.142	18877.16
540.347	18835.9
540.552	18706.47
540.757	18350.95
540.962	18630.33
541.166	18407.91
541.371	18449.37
541.576	18491.99
541.781	18568.14
541.985	18984.89
542.19	18756.65
542.395	19336.54
542.599	19313.48
542.804	18944.01
543.008	19235.4
543.213	19157.9
543.418	18961.64
543.622	19144.34
543.827	18802.96
544.031	19126.13
544.236	19282.48
544.44	19510.91
544.645	19502
544.849	19391.76
545.054	19560.7
545.258	19622.32
545.463	19644.98
545.667	19293.14
545.872	19613.4
546.076	19432.83
546.281	19450.46
546.485	19342.16
546.689	19482.82
546.894	19366.96
547.098	19579.69
547.302	19489.6
547.507	19404.54
547.711	19584.92
547.915	19298.56
548.119	19090.29
548.324	19063.55
548.528	19229.98
548.732	19196.27
548.936	19386.72
549.141	19374.71
549.345	19473.52
549.549	19560.12
549.753	19741.08
549.957	19625.22
550.161	19699.23
550.366	19750.58
550.57	19624.83
550.774	19580.47
550.978	19681.99
551.182	19597.52
551.386	19373.74
551.59	19484.76
551.794	19420.62
551.998	19612.24
552.202	19598.48
552.406	19571.94
552.61	19870.7
552.814	19679.08
553.018	19573.1
553.222	19320.65
553.426	19446.78
553.63	19638.78
553.833	19584.53
554.037	19321.04
554.241	19366.76
554.445	19629.1
554.649	19663.39
554.853	19412.87
555.056	19688.58
555.26	19826.72
555.464	19675.01
555.668	19700.01
555.871	19657
556.075	19749.8
556.279	19604.3
556.483	19413.65
556.686	19317.16
556.89	19283.84
557.094	19279.77
557.297	18952.34
557.501	19084.09
557.704	18817.68
557.908	19049.79
558.112	19061.8
558.315	19189.87
558.519	19000.97
558.722	18674.5
558.926	18774.09
559.129	18343
559.333	18594.29
559.536	18452.28
559.74	18385.63
559.943	18261.63
560.147	18444.91
560.35	18438.13
560.553	18740.77
560.757	18592.74
560.96	18758.98
561.164	18853.72
561.367	19103.07
561.57	18915.33
561.774	18700.27
561.977	18700.66
562.18	18561.94
562.384	18765.76
562.587	18642.15
562.79	18697.17
562.993	18621.03
563.197	18594.87
563.4	18855.46
563.603	18784.17
563.806	18879.88
564.009	18668.5
564.212	18894.99
564.416	18472.04
564.619	18498.97
564.822	18355.4
565.025	18670.44
565.228	18529.39
565.431	18623.35
565.634	18438.71
565.837	18206.02
566.04	18116.71
566.243	17961.9
566.446	17810.59
566.649	18169.6
566.852	17899.9
567.055	18207.19
567.258	18125.42
567.461	18306.97
567.664	18336.22
567.867	18321.3
568.07	18160.69
568.273	18286.04
568.475	18446.08
568.678	17962.29
568.881	18027.19
569.084	17676.51
569.287	17492.84
569.489	17769.7
569.692	17800.9
569.895	17768.35
570.098	17664.31
570.3	17747.04
570.503	17624.2
570.706	17535.85
570.909	17411.85
571.111	17190.59
571.314	17125.69
571.516	17269.64
571.719	17264.41
571.922	17187.88
572.124	17477.53
572.327	17556.78
572.529	17480.05
572.732	17605.21
572.935	17657.33
573.137	17974.3
573.34	17673.22
573.542	17980.5
573.745	17811.75
573.947	17917.92
574.15	17701.89
574.352	17714.68
574.554	17954.93
574.757	17674.38
574.959	17363.61
575.162	17638.93
575.364	17332.22
575.566	17450.8
575.769	17215.01
575.971	17287.27
576.173	16876.34
576.376	17180.52
576.578	17339.39
576.78	17309.94
576.982	17190.79
577.185	17367.29
577.387	17265.77
577.589	17473.47
577.791	17344.82
577.993	17288.05
578.196	17422.32
578.398	17068.15
578.6	17056.33
578.802	17026.3
579.004	16858.51
579.206	17150.1
579.408	17169.86
579.61	17110.38
579.812	17366.71
580.014	17177.61
580.216	17340.75
580.418	17526.36
580.62	17476.57
580.822	17451.18
581.024	17579.25
581.226	17574.79
581.428	17622.26
581.63	17833.64
581.832	17653.46
582.034	17809.81
582.236	17849.53
582.438	18017.12
582.64	17993.68
582.841	18035.14
583.043	18366.83
583.245	17981.28
583.447	18131.62
583.649	18230.44
583.85	18197.3
584.052	18187.04
584.254	18051.8
584.456	18161.07
584.657	18165.14
584.859	18277.32
585.061	18048.89
585.262	18019.25
585.464	17865.22
585.666	17989.61
585.867	17685.42
586.069	17683.87
586.27	17628.66
586.472	17634.86
586.674	17648.42
586.875	17724.17
587.077	17807.87
587.278	17787.14
587.48	17686.59
587.681	17860.77
587.883	17737.16
588.084	17526.75
588.285	17503.69
588.487	17195.44
588.688	17177.23
588.89	16617.49
589.091	16245.11
589.292	15825.64
589.494	15560.41
589.695	15315.51
589.896	15096.57
590.098	15285.09
590.299	15322.48
590.5	15531.54
590.702	15796
590.903	16091.27
591.104	16314.86
591.305	16513.64
591.507	16471.79
591.708	16500.66
591.909	16569.63
592.11	16354.77
592.311	16592.5
592.512	16316.79
592.714	16333.84
592.915	16690.92
593.116	16542.51
593.317	16843.98
593.518	16748.85
593.719	16788.18
593.92	16854.83
594.121	16704.09
594.322	16702.74
594.523	16602.38
594.724	16425.49
594.925	16526.04
595.126	16288.12
595.327	16314.66
595.528	16508.6
595.729	16478.96
595.929	16494.85
596.13	16627.56
596.331	16821.7
596.532	16748.66
596.733	16911.4
596.934	16917.41
597.135	16967.98
597.335	16842.82
597.536	16808.14
597.737	16774.81
597.938	16727.15
598.138	16780.82
598.339	16827.32
598.54	16804.26
598.74	16637.64
598.941	16653.14
599.142	16838.17
599.342	16878.08
599.543	16718.04
599.744	16899.39
599.944	16867.62
600.145	17027.07
600.345	16814.92
600.546	16861.42
600.746	16926.71
600.947	17149.71
601.147	16641.51
601.348	17021.84
601.548	16803.29
601.749	16727.73
601.949	16608
602.15	16657.4
602.35	16533.02
602.551	16597.73
602.751	16625.24
602.951	16836.23
603.152	16639.58
603.352	16843.01
603.552	16860.84
603.753	17054.58
603.953	17115.03
604.153	17096.24
604.354	17076.86
604.554	16944.92
604.754	17071.83
604.954	17040.05
605.155	17191.95
605.355	17088.49
605.555	17091.01
605.755	17075.12
605.955	16966.04
606.155	16959.65
606.356	17021.84
606.556	16975.53
606.756	17008.08
606.956	16883.7
607.156	17043.93
607.356	16873.24
607.556	17037.34
607.756	16940.08
607.956	17034.05
608.156	16933.1
608.356	16731.99
608.556	16886.8
608.756	16756.21
608.956	16810.27
609.156	16709.52
609.356	16701.38
609.556	16612.84
609.755	16718.43
609.955	16615.16
610.155	16618.65
610.355	16700.22
610.555	16496.79
610.755	16316.79
610.954	16383.83
611.154	16509.96
611.354	16438.08
611.554	16438.85
611.753	16650.62
611.953	16427.62
612.153	16494.46
612.352	16518.87
612.552	16309.24
612.752	16316.99
612.951	16505.31
613.151	16293.54
613.351	16421.22
613.55	16380.73
613.75	16336.56
613.949	16084.69
614.149	16072.87
614.348	16106.38
614.548	16189.89
614.747	16070.93
614.947	16162.18
615.146	16022.88
615.346	16331.91
615.545	16211.59
615.745	16187.95
615.944	15991.11
616.144	16122.47
616.343	15870.59
616.542	15921.55
616.742	15677.23
616.941	15731.29
617.14	15605.16
617.34	15839.98
617.539	15737.49
617.738	15790.77
617.938	15947.51
618.137	15820.22
618.336	15926.59
618.535	16109.1
618.734	16007.38
618.934	15959.91
619.133	16053.88
619.332	16239.49
619.531	15901.98
619.73	16182.33
619.929	15999.82
620.128	16189.11
620.328	16178.85
620.527	16127.89
620.726	16222.05
620.925	16181.95
621.124	16269.33
621.323	16070.35
621.522	15866.14
621.721	16220.5
621.92	15905.47
622.119	15977.54
622.318	15832.43
622.517	15781.28
622.715	15808.79
622.914	15714.43
623.113	15848.12
623.312	15468.38
623.511	15713.47
623.71	15589.66
623.909	15423.23
624.107	15727.42
624.306	15538.71
624.505	15417.23
624.704	15339.73
624.902	15176.4
625.101	15302.91
625.3	15175.43
625.499	15110.33
625.697	15228.71
625.896	15061.12
626.095	14964.24
626.293	14910.96
626.492	15088.05
626.69	15068.67
626.889	15294.2
627.088	15177.17
627.286	15188.41
627.485	14969.48
627.683	14832.3
627.882	14570.36
628.08	14408.19
628.279	14223.94
628.477	14257.84
628.676	14145.66
628.874	14277.41
629.073	14149.15
629.271	14269.85
629.469	14299.69
629.668	14282.64
629.866	14168.14
630.065	14271.21
630.263	14335.34
630.461	14192.74
630.66	14339.6
630.858	14329.72
631.056	14444.03
631.254	14554.28
631.453	14400.05
631.651	14478.71
631.849	14348.13
632.047	14251.64
632.245	14292.72
632.444	14408
632.642	14626.35
632.84	14747.44
633.038	14464.96
633.236	14484.91
633.434	14660.26
633.632	14732.33
633.83	14505.65
634.028	14714.12
634.227	14622.67
634.425	14928.4
634.623	14716.25
634.821	14761.78
635.019	14807.12
635.216	14916.39
635.414	14788.13
635.612	14784.83
635.81	14811.38
636.008	14907.09
636.206	14791.81
636.404	14750.35
636.602	14858.46
636.8	14683.89
636.997	14825.52
637.195	14907.86
637.393	14885.58
637.591	14983.23
637.789	14969.67
637.986	14993.69
638.184	14977.61
638.382	15131.25
638.58	15038.26
638.777	15124.67
638.975	14985.36
639.173	15081.66
639.37	15029.73
639.568	15080.69
639.765	14970.44
639.963	14853.62
640.161	14697.26
640.358	15052.98
640.556	14696.49
640.753	14765.65
640.951	14620.73
641.148	14694.74
641.346	14677.11
641.543	14607.94
641.741	14690.09
641.938	14506.61
642.136	14748.6
642.333	14565.9
642.531	14784.25
642.728	14656.19
642.925	14840.25
643.123	14815.64
643.32	14742.02
643.517	14622.09
643.715	14582.18
643.912	14749.57
644.109	14674.79
644.306	14721.87
644.504	14633.91
644.701	14671.3
644.898	14698.62
645.095	14580.43
645.293	14571.52
645.49	14509.13
645.687	14561.83
645.884	14512.43
646.081	14264.43
646.278	14262.49
646.475	14174.92
646.672	14103.43
646.87	14075.91
647.067	13984.85
647.264	13989.7
647.461	13787.81
647.658	13670.98
647.855	13791.69
648.052	13632.23
648.249	13471.03
648.446	13645.6
648.642	13773.67
648.839	13465.61
649.036	13534.78
649.233	13603.75
649.43	13515.79
649.627	13201.34
649.824	13444.49
650.021	13277.87
650.217	13593.48
650.414	13643.08
650.611	13685.32
650.808	13936.22
651.004	13814.74
651.201	13842.25
651.398	14012.36
651.595	13764.37
651.791	13562.1
651.988	13709.93
652.185	13341.42
652.381	13757.78
652.578	13478.59
652.775	13739.76
652.971	13897.86
653.168	13644.44
653.364	13885.46
653.561	13694.23
653.757	13823.65
653.954	14031.35
654.15	13586.31
654.347	13857.95
654.543	13886.24
654.74	13595.03
654.936	13521.41
655.133	13460.57
655.329	13507.65
655.525	13250.74
655.722	13216.45
655.918	12858.6
656.115	12484.67
656.311	12226.4
656.507	11747.07
656.704	11556.23
656.9	11751.14
657.096	11968.53
657.292	11951.67
657.489	12209.55
657.685	12414.92
657.881	12531.75
658.077	12646.45
658.273	12927.77
658.47	13098.65
658.666	13138.56
658.862	13311.77
659.058	13328.82
659.254	13430.35
659.45	13524.51
659.646	13311.77
659.842	13480.33
660.038	13625.06
660.234	13459.22
660.43	13511.92
660.626	13683.96
660.822	13618.28
661.018	13673.11
661.214	13666.72
661.41	13556.28
661.606	13729.11
661.802	13818.42
661.998	13718.45
662.194	13704.11
662.39	13756.23
662.586	13825.2
662.781	13729.3
662.977	13871.51
663.173	13628.94
663.369	13711.48
663.564	13670.79
663.76	13696.75
663.956	13647.15
664.152	13438.68
664.347	13523.35
664.543	13579.15
664.739	13506.68
664.934	13399.93
665.13	13608.21
665.326	13546.02
665.521	13630.68
665.717	13459.22
665.912	13573.33
666.108	13303.25
666.304	13616.35
666.499	13438.1
666.695	13219.94
666.89	13532.65
667.086	13438.68
667.281	13467.16
667.477	13541.56
667.672	13434.8
667.867	13416.2
668.063	13388.3
668.258	13305.38
668.454	13400.7
668.649	13409.42
668.844	13439.65
669.04	13481.11
669.235	13368.74
669.43	13495.64
669.626	13218.39
669.821	13346.26
670.016	13337.35
670.211	13344.32
670.407	13151.93
670.602	13397.8
670.797	13162.01
670.992	13385.98
671.187	13193.4
671.382	13347.42
671.578	13050.02
671.773	13141.86
671.968	12910.91
672.163	13189.71
672.358	13065.33
672.553	12941.91
672.748	13040.33
672.943	13144.76
673.138	13113.77
673.333	13124.23
673.528	12912.46
673.723	13074.24
673.918	12929.51
674.113	13013.6
674.308	13078.89
674.503	12895.02
674.698	13038.59
674.892	12838.06
675.087	12955.67
675.282	12937.65
675.477	12972.33
675.672	12981.63
675.867	12754.36
676.061	12827.6
676.256	12737.9
676.451	12898.32
676.646	12888.24
676.84	12804.35
677.035	12714.26
677.23	12862.09
677.424	12810.74
677.619	12804.54
677.814	12863.44
678.008	12721.04
678.203	12752.62
678.397	12727.63
678.592	12664.08
678.787	12783.04
678.981	12709.22
679.176	12656.91
679.37	12646.06
679.565	12641.8
679.759	12677.83
679.954	12643.54
680.148	12612.15
680.342	12670.08
680.537	12600.14
680.731	12546.86
680.926	12642.96
681.12	12562.75
681.314	12489.32
681.509	12602.27
681.703	12543.37
681.897	12410.27
682.092	12372.1
682.286	12534.07
682.48	12434.68
682.674	12441.46
682.869	12340.52
683.063	12527.87
683.257	12360.48
683.451	12201.99
683.645	12369.39
683.839	12213.81
684.034	12204.51
684.228	12080.32
684.422	11950.89
684.616	12086.32
684.81	12141.35
685.004	11974.92
685.198	12017.35
685.392	12008.24
685.586	12041.18
685.78	11898
685.974	11949.93
686.168	11896.45
686.362	11825.15
686.556	11106.35
686.75	10722.73
686.944	10007.42
687.138	9352.74
687.331	8816.45
687.525	8447.75
687.719	8268.92
687.913	8306.32
688.107	8533.19
688.301	8483.21
688.494	8731.78
688.688	8607.2
688.882	8469.45
689.076	8549.47
689.269	8552.37
689.463	8759.3
689.657	8728.1
689.85	8765.88
690.044	8949.17
690.238	8981.52
690.431	9045.07
690.625	9119.28
690.818	9306.05
691.012	9322.71
691.205	9589.7
691.399	9653.44
691.593	9641.81
691.786	9758.64
691.98	9951.23
692.173	9996.76
692.366	10052.17
692.56	10115.14
692.753	10038.42
692.947	10034.15
693.14	9965.76
693.333	10042.1
693.527	10004.12
693.72	9974.87
693.914	9906.67
694.107	9775.31
694.3	9789.64
694.493	9630.38
694.687	9959.95
694.88	9770.27
695.073	9928.95
695.266	9868.5
695.46	9975.25
695.653	9860.36
695.846	9868.11
696.039	9966.73
696.232	9942.12
696.425	10201.55
696.618	10261.81
696.812	10459.23
697.005	10493.91
697.198	10666.35
697.391	10572.58
697.584	10700.06
697.777	10703.55
697.97	10558.63
698.163	10629.15
698.356	10486.17
698.549	10575.48
698.742	10539.83
698.935	10305.98
699.127	10344.92
699.32	10242.82
699.513	10151.95
699.706	10100.8
699.899	10210.85
700.092	10161.25
700.285	9970.6
700.477	9853.97
700.67	9968.86
700.863	9890.97
701.056	10009.16
701.248	9934.76
701.441	9906.67
701.634	9812.7
701.826	9913.64
702.019	9731.13
702.212	9846.99
702.404	9799.33
702.597	9752.06
702.79	9754.19
702.982	9736.75
703.175	9869.86
703.367	9942.7
703.56	9961.89
703.752	9985.91
703.945	10022.53
704.137	9920.04
704.33	10047.33
704.522	10001.99
704.715	10092.66
704.907	10088.98
705.1	10156.79
705.292	10069.61
705.484	10076.78
705.677	10053.33
705.869	10115.53
706.061	10107.58
706.254	10149.63
706.446	10076.58
706.638	10007.03
706.831	10074.06
707.023	10048.3
707.215	10265.29
707.407	10181.01
707.599	10121.92
707.792	10204.65
707.984	10142.85
708.176	10144.98
708.368	10079.49
708.56	10090.53
708.752	10088.79
708.944	9970.8
709.136	10090.53
709.329	10018.46
709.521	10153.69
709.713	10066.9
709.905	10057.4
710.097	10157.18
710.289	9989.01
710.481	10076.97
710.672	9987.07
710.864	10132.38
711.056	10053.92
711.248	9933.4
711.44	10008.77
711.632	10046.17
711.824	10049.65
712.016	10021.17
712.207	10000.63
712.399	9881.67
712.591	9963.63
712.783	10019.82
712.975	9924.49
713.166	9879.74
713.358	9864.82
713.55	9834.79
713.741	9869.47
713.933	9852.03
714.125	9814.25
714.316	9623.02
714.508	9752.83
714.7	9682.5
714.891	9654.8
715.083	9595.12
715.274	9457.75
715.466	9604.23
715.657	9439.74
715.849	9314.58
716.04	9204.91
716.232	9135.94
716.423	8963.31
716.615	8731.2
716.806	8461.89
716.998	8179.41
717.189	7947.3
717.381	7722.94
717.572	7539.85
717.763	7349.01
717.955	7154.49
718.146	7118.64
718.337	6907.46
718.528	6742.77
718.72	6501.75
718.911	6459.52
719.102	6340.94
719.293	6381.63
719.485	6276.62
719.676	6164.05
719.867	6138.28
720.058	6153.59
720.249	6045.87
720.44	6130.15
720.632	6259.38
720.823	6388.8
721.014	6647.26
721.205	6863.67
721.396	6991.55
721.587	7237.22
721.778	7402.1
721.969	7516.21
722.16	7597.98
722.351	7764.6
722.542	7846.17
722.733	7848.1
722.924	7724.3
723.115	7711.51
723.305	7529.78
723.496	7519.31
723.687	7187.23
723.878	7210.29
724.069	7102.76
724.26	7068.85
724.45	6883.82
724.641	6807.1
724.832	6891.19
725.023	6681.55
725.213	6732.51
725.404	6644.16
725.595	6581.77
725.785	6588.36
725.976	6638.73
726.167	6624.2
726.357	6677.68
726.548	6729.02
726.739	6643.77
726.929	6763.89
727.12	6781.14
727.31	6722.04
727.501	6540.31
727.691	6534.3
727.882	6583.13
728.072	6671.28
728.263	6650.94
728.453	6764.28
728.644	6776.68
728.834	6706.74
729.024	6614.32
729.215	6547.09
729.405	6605.41
729.596	6671.28
729.786	6717.01
729.976	6733.86
730.167	6674.58
730.357	6650.74
730.547	6625.95
730.737	6707.13
730.928	6748.01
731.118	6798.77
731.308	6723.98
731.498	6686.98
731.688	6857.86
731.879	6871.04
732.069	6919.28
732.259	7060.52
732.449	7139.96
732.639	7254.46
732.829	7250.39
733.019	7287.98
733.209	7476.69
733.399	7485.8
733.589	7609.02
733.779	7689.81
733.969	7703.57
734.159	7790.75
734.349	7808.97
734.539	7856.05
734.729	7814.78
734.919	7919.6
735.109	7979.66
735.299	7763.44
735.488	7884.91
735.678	7812.07
735.868	7798.5
736.058	7732.63
736.248	7783.39
736.437	7674.7
736.627	7641.37
736.817	7804.12
737.007	7680.51
737.196	7820.4
737.386	7764.02
737.576	7707.83
737.765	7857.02
737.955	7709.96
738.144	7932
738.334	7820.78
738.524	7708.22
738.713	7752.78
738.903	7759.95
739.092	7743.09
739.282	7760.34
739.471	7773.32
739.661	7789.2
739.85	7856.63
740.04	7823.3
740.229	7796.76
740.419	7860.31
740.608	7832.22
740.797	7818.27
740.987	7856.24
741.176	7822.72
741.365	7822.33
741.555	7695.04
741.744	7890.73
741.933	7708.22
742.123	7819.82
742.312	7851.98
742.501	7889.95
742.69	7889.95
742.88	7736.12
743.069	7891.31
743.258	7801.41
743.447	7937.61
743.636	7896.15
743.825	7792.11
744.014	7834.54
744.204	7899.83
744.393	7751.62
744.582	7947.69
744.771	7883.95
744.96	7843.07
745.149	7837.64
745.338	7762.08
745.527	7883.36
745.716	7806.83
745.905	7778.35
746.094	7916.3
746.283	7845.2
746.471	7794.43
746.66	7851.01
746.849	7868.83
747.038	7865.35
747.227	7808.58
747.416	7862.44
747.604	7749.1
747.793	7699.3
747.982	7687.1
748.171	7845.2
748.359	7694.27
748.548	7739.6
748.737	7725.46
748.926	7759.95
749.114	7579.38
749.303	7653
749.491	7640.02
749.68	7559.61
749.869	7611.34
750.057	7542.95
750.246	7517.38
750.434	7503.43
750.623	7560.58
750.811	7461.38
751	7523.58
751.188	7450.34
751.377	7472.23
751.565	7426.9
751.754	7413.14
751.942	7385.63
752.131	7483.08
752.319	7407.72
752.507	7328.67
752.696	7413.33
752.884	7406.17
753.072	7312.2
753.261	7348.23
753.449	7346.49
753.637	7303.29
753.825	7368.97
754.014	7310.26
754.202	7370.71
754.39	7345.33
754.578	7319.56
754.766	7278.87
754.955	7163.01
755.143	7300.77
755.331	7187.81
755.519	7232.57
755.707	7205.25
755.895	7141.89
756.083	7218.81
756.271	7106.63
756.459	7130.27
756.647	7158.17
756.835	7093.84
757.023	7088.42
757.211	7035.14
757.399	7031.46
757.587	7035.33
757.775	6956.67
757.963	6939.82
758.151	6939.82
758.339	6959
758.526	6862.9
758.714	6859.8
758.902	6681.94
759.09	6429.49
759.278	6028.04
759.465	5583.78
759.653	4846.96
759.841	4372.67
760.028	3815.45
760.216	3334.18
760.404	3030.38
760.591	2545.43
760.779	2124.42
760.967	1830.51
761.154	1590.26
761.342	1590.07
761.529	1581.35
761.717	1668.53
761.905	1710.58
762.092	1784.2
762.28	1755.91
762.467	1696.05
762.655	1600.14
762.842	1652.84
763.029	1644.51
763.217	1675.7
763.404	1647.42
763.592	1722.01
763.779	1659.62
763.966	1747.58
764.154	1819.46
764.341	1884.37
764.528	1948.31
764.716	2109.31
764.903	2205.6
765.09	2333.28
765.277	2416.01
765.465	2691.13
765.652	2812.81
765.839	2985.24
766.026	3196.04
766.213	3326.04
766.4	3499.64
766.588	3851.87
766.775	3938.87
766.962	4165.94
767.149	4297.68
767.336	4594.12
767.523	4605.36
767.71	4759.19
767.897	5009.71
768.084	5157.34
768.271	5232.13
768.458	5311.76
768.645	5495.04
768.832	5519.45
769.019	5568.67
769.206	5607.22
769.392	5734.71
769.579	5796.13
769.766	5868.01
769.953	5876.34
770.14	5910.44
770.327	5963.33
770.513	5977.28
770.7	6047.03
770.887	6003.24
771.073	5992.78
771.26	6026.88
771.447	6003.82
771.634	5974.76
771.82	6115.03
772.007	5950.93
772.193	6101.28
772.38	6064.47
772.567	6004.4
772.753	5993.94
772.94	6095.47
773.126	6089.46
773.313	6139.25
773.499	6012.54
773.686	6093.33
773.872	6027.46
774.059	6079.19
774.245	5986.39
774.432	5987.55
774.618	5880.02
774.804	6011.38
774.991	5946.47
775.177	5948.8
775.363	5915.47
775.55	5929.62
775.736	5862.58
775.922	5971.85
776.109	5926.52
776.295	5877.69
776.481	5967.59
776.667	5910.82
776.853	5853.09
777.04	5837.59
777.226	5862.58
777.412	5958.1
777.598	5780.24
777.784	5784.5
777.97	5830.81
778.156	5797.68
778.342	5836.04
778.528	5721.73
778.715	5673.29
778.901	5697.9
779.087	5715.53
779.272	5697.9
779.458	5672.71
779.644	5649.46
779.83	5706.03
780.016	5705.65
780.202	5645
780.388	5681.04
780.574	5531.85
780.76	5626.21
780.946	5619.23
781.131	5631.63
781.317	5529.34
781.503	5583
781.689	5591.53
781.874	5670
782.06	5470.82
782.246	5553.17
782.432	5547.35
782.617	5519.26
782.803	5559.37
782.989	5436.72
783.174	5414.83
783.36	5373.18
783.545	5460.56
783.731	5420.84
783.916	5259.83
784.102	5446.99
784.288	5335.98
784.473	5359.23
784.659	5293.35
784.844	5363.88
785.029	5268.55
785.215	5261.96
785.4	5227.67
785.586	5294.9
785.771	5197.64
785.956	5257.9
786.142	5214.3
786.327	5194.35
786.512	5200.35
786.698	5167.22
786.883	5102.12
787.068	5144.55
787.254	5215.47
787.439	5065.89
787.624	5081.39
787.809	5045.74
787.994	5054.27
788.18	5089.72
788.365	4973.09
788.55	4995.37
788.735	4990.72
788.92	4954.49
789.105	4954.49
789.29	4951
789.475	4864.4
789.66	4840.56
789.845	4830.88
790.03	4829.33
790.215	4859.94
790.4	4881.06
790.585	4889.58
790.77	4843.47
790.955	4763.84
791.14	4840.18
791.325	4864.4
791.51	4703.97
791.695	4792.9
791.879	4833.59
792.064	4706.49
792.249	4847.73
792.434	4754.73
792.618	4751.44
792.803	4821.77
792.988	4772.37
793.173	4771.4
793.357	4808.6
793.542	4747.37
793.727	4797.17
793.911	4822.74
794.096	4777.98
794.281	4880.09
794.465	4904.69
794.65	4803.95
794.834	4881.45
795.019	4942.28
795.203	4929.88
795.388	4880.86
795.572	4924.84
795.757	4889.78
795.941	4898.11
796.126	4816.73
796.31	4766.36
796.494	4818.67
796.679	4797.17
796.863	4765
797.048	4914.77
797.232	4820.22
797.416	4871.95
797.601	4857.81
797.785	4912.83
797.969	4938.79
798.153	4801.04
798.338	4916.13
798.522	4989.94
798.706	4981.61
798.89	4957.78
799.074	5056.01
799.258	4992.07
799.443	4996.53
799.627	4910.31
799.811	4977.16
799.995	4852.38
800.179	4898.69
800.363	4815.96
800.547	4915.74
800.731	4934.14
800.915	4786.9
801.099	4817.31
801.283	4849.67
801.467	4847.54
801.651	4845.21
801.835	4871.18
802.019	4864.4
802.202	4876.41
802.386	4807.43
802.57	4768.88
802.754	4868.46
802.938	4790
803.121	4759.77
803.305	4845.21
803.489	4793.68
803.673	4838.63
803.856	4836.11
804.04	4784.38
804.224	4834.75
804.407	4834.36
804.591	4793.48
804.775	4830.68
804.958	4836.69
805.142	4955.26
805.326	4833.59
805.509	4852.77
805.693	4902.56
805.876	4894.23
806.06	4903.92
806.243	4919.03
806.427	4928.33
806.61	4975.22
806.794	4867.11
806.977	4923.88
807.16	4895.4
807.344	4907.99
807.527	4853.93
807.71	4869.43
807.894	4850.83
808.077	4874.66
808.26	4820.8
808.444	4799.3
808.627	4862.46
808.81	4727.61
808.993	4677.43
809.177	4662.12
809.36	4683.44
809.543	4709.79
809.726	4579.78
809.909	4566.02
810.092	4570.48
810.276	4577.65
810.459	4540.26
810.642	4544.91
810.825	4478.64
811.008	4491.24
811.191	4331.01
811.374	4376.93
811.557	4354.84
811.74	4373.25
811.923	4265.72
812.106	4245.95
812.289	4184.73
812.472	4213.6
812.654	4160.71
812.837	4114.21
813.02	4040.97
813.203	4017.53
813.386	3833.85
813.569	3816.61
813.751	3713.54
813.934	3712.96
814.117	3676.34
814.3	3593.8
814.482	3518.24
814.665	3456.82
814.848	3405.87
815.03	3326.04
815.213	3301.44
815.396	3255.52
815.578	3242.92
815.761	3191
815.943	3242.54
816.126	3102.65
816.309	3032.32
816.491	2998.61
816.674	2875.97
816.856	2941.84
817.039	2949.01
817.221	3040.85
817.403	2971.87
817.586	2968.97
817.768	3036.97
817.951	2897.67
818.133	2866.28
818.315	2899.22
818.498	2979.23
818.68	3042.4
818.862	3041.43
819.045	3049.18
819.227	3028.64
819.409	3019.34
819.591	2994.73
819.774	3003.07
819.956	2949.01
820.138	3092.19
820.32	3095.48
820.502	3186.93
820.684	3294.85
820.866	3341.54
821.048	3367.31
821.231	3415.55
821.413	3426.79
821.595	3377.58
821.777	3436.67
821.959	3402.38
822.141	3454.5
822.323	3269.08
822.505	3142.76
822.686	3046.27
822.868	2859.31
823.05	2695.59
823.232	2616.15
823.414	2583.41
823.596	2662.26
823.778	2620.22
823.96	2702.95
824.141	2732.4
824.323	2810.29
824.505	2894.57
824.687	2990.67
824.868	3092.58
825.05	3180.34
825.232	3276.83
825.413	3356.07
825.595	3329.53
825.777	3243.51
825.958	3270.05
826.14	3306.28
826.321	3332.63
826.503	3303.76
826.685	3336.5
826.866	3351.23
827.048	3331.27
827.229	3245.64
827.411	3211.93
827.592	3100.71
827.773	3106.33
827.955	3031.16
828.136	3027.48
828.318	2973.42
828.499	3042.01
828.68	2937
828.862	2974.59
829.043	3012.95
829.224	2940.87
829.406	2924.4
829.587	2930.99
829.768	2991.44
829.949	2962.38
830.131	2971.29
830.312	3022.44
830.493	2962.38
830.674	3004.23
830.855	2967.42
831.036	2993.77
831.218	3044.72
831.399	3030
831.58	2977.88
831.761	2976.91
831.942	2976.14
832.123	2987.95
832.304	2923.63
832.485	2933.32
832.666	2970.71
832.847	2984.47
833.028	2992.99
833.209	2958.12
833.389	2952.11
833.57	2881.97
833.751	2923.82
833.932	2974.39
834.113	2971.29
834.294	2943.78
834.475	3030.58
834.655	3082.89
834.836	3023.22
835.017	3044.92
835.198	3002.48
835.378	3044.72
835.559	3083.66
835.74	3035.62
835.92	3038.72
836.101	3045.3
836.281	3062.55
836.462	3066.81
836.643	3104.4
836.823	3084.05
837.004	3099.55
837.184	3136.17
837.365	3128.03
837.545	3135.78
837.726	3095.87
837.906	3148.18
838.087	3103.62
838.267	3089.67
838.448	3078.63
838.628	3118.93
838.808	3079.01
838.989	3132.88
839.169	3048.21
839.349	3126.87
839.53	3157.68
839.71	3160.97
839.89	3090.06
840.07	3123.96
840.251	3090.06
840.431	3141.21
840.611	3076.11
840.791	3066.81
840.971	3102.85
841.151	3063.9
841.332	3051.31
841.512	3116.41
841.692	2998.8
841.872	3093.74
842.052	3066.61
842.232	3106.91
842.412	3014.11
842.592	3046.27
842.772	3095.48
842.952	3091.03
843.132	2990.86
843.312	2974.2
843.492	3009.65
843.672	3027.87
843.851	2942.23
844.031	2974.39
844.211	3015.85
844.391	2978.65
844.571	2988.92
844.751	3032.9
844.93	3035.23
845.11	2955.6
845.29	2988.73
845.47	3032.9
845.649	2993.38
845.829	3027.67
846.009	2977.69
846.188	3035.62
846.368	3005.97
846.547	3012.95
846.727	3036.2
846.907	2921.89
847.086	2982.53
847.266	3008.1
847.445	2956.95
847.625	2938.55
847.804	2928.09
847.984	2939.13
848.163	2918.59
848.343	2874.42
848.522	2873.84
848.701	2898.83
848.881	2859.31
849.06	2898.05
849.239	2879.07
849.419	2884.11
849.598	2758.36
849.777	2794.79
849.957	2708.76
850.136	2629.91
850.315	2630.68
850.494	2624.48
850.674	2660.33
850.853	2729.49
851.032	2682.8
851.211	2767.66
851.39	2700.63
851.569	2659.55
851.748	2645.21
851.927	2738.79
852.107	2694.81
852.286	2663.04
852.465	2646.76
852.644	2751.58
852.823	2727.94
853.002	2664.2
853.181	2685.71
853.359	2689.2
853.538	2591.74
853.717	2630.49
853.896	2553.38
854.075	2433.64
854.254	2362.34
854.433	2277.87
854.611	2301.51
854.79	2261.79
854.969	2349.94
855.148	2363.7
855.327	2318.56
855.505	2402.06
855.684	2421.82
855.863	2428.99
856.041	2412.14
856.22	2493.51
856.399	2463.48
856.577	2593.68
856.756	2602.98
856.934	2670.21
857.113	2691.91
857.291	2585.35
857.47	2580.7
857.648	2593.29
857.827	2579.34
858.005	2622.93
858.184	2556.28
858.362	2677.18
858.541	2549.31
858.719	2532.07
858.898	2510.56
859.076	2521.99
859.254	2598.33
859.433	2561.9
859.611	2544.27
859.789	2460.57
859.967	2581.86
860.146	2568.68
860.324	2459.8
860.502	2508.43
860.68	2426.28
860.859	2453.02
861.037	2443.72
861.215	2510.75
861.393	2497.39
861.571	2463.48
861.749	2443.72
861.927	2444.3
862.105	2428.99
862.283	2434.03
862.461	2435.77
862.639	2399.93
862.817	2452.82
862.995	2428.99
863.173	2415.62
863.351	2405.74
863.529	2436.74
863.707	2427.06
863.885	2453.02
864.063	2367.96
864.241	2352.46
864.418	2380.56
864.596	2313.13
864.774	2312.36
864.952	2343.94
865.129	2386.95
865.307	2313.52
865.485	2247.84
865.663	2318.75
865.84	2212.19
866.018	2205.6
866.196	2060.29
866.373	2048.67
866.551	2021.54
866.728	1947.34
866.906	2041.89
867.084	2053.9
867.261	2085.67
867.439	2105.63
867.616	2136.82
867.794	2158.72
867.971	2162.01
868.149	2174.02
868.326	2263.73
868.503	2212.77
868.681	2210.06
868.858	2168.21
869.035	2149.61
869.213	2201.34
869.39	2164.92
869.567	2231.18
869.745	2163.17
869.922	2152.13
870.099	2189.33
870.276	2194.75
870.454	2214.51
870.631	2196.5
870.808	2142.63
870.985	2188.36
871.162	2225.75
871.339	2174.02
871.517	2087.8
871.694	2126.36
871.871	2143.8
872.048	2123.07
872.225	2119.97
872.402	2108.73
872.579	2085.09
872.756	2151.16
872.933	2103.69
873.11	2111.25
873.287	2078.31
873.463	2074.82
873.64	2048.86
873.817	2111.83
873.994	2081.99
874.171	2038.01
874.348	2059.9
874.524	2046.92
874.701	2063.59
874.878	1992.29
875.055	2061.26
875.231	2004.88
875.408	2026
875.585	1928.74
875.762	2006.43
875.938	1974.66
876.115	1957.8
876.291	1984.15
876.468	1970.78
876.645	1977.95
876.821	1980.08
876.998	1948.11
877.174	1947.53
877.351	1932.61
877.527	1897.54
877.704	1955.86
877.88	1938.42
878.057	1905.68
878.233	1954.89
878.409	1889.99
878.586	1935.52
878.762	1910.91
878.938	1932.81
879.115	1814.81
879.291	1892.89
879.467	1860.73
879.644	1868.48
879.82	1909.75
879.996	1846.39
880.172	1793.89
880.349	1852.21
880.525	1879.33
880.701	1814.43
880.877	1790.79
881.053	1844.65
881.229	1802.03
881.405	1908.59
881.581	1808.61
881.757	1837.87
881.933	1822.37
882.109	1860.15
882.285	1847.17
882.461	1777.81
882.637	1846.59
882.813	1786.91
882.989	1833.41
883.165	1881.85
883.341	1803.77
883.517	1850.46
883.693	1840.39
883.869	1873.13
884.044	1838.84
884.22	1823.34
884.396	1889.02
884.572	1852.21
884.747	1858.6
884.923	1817.14
885.099	1905.29
885.275	1880.88
885.45	1815.78
885.626	1774.51
885.801	1791.18
885.977	1791.37
886.153	1765.41
886.328	1819.66
886.504	1784.01
886.679	1805.9
886.855	1772.19
887.03	1827.02
887.206	1845.81
887.381	1801.45
887.557	1841.75
887.732	1853.37
887.908	1803.77
888.083	1836.32
888.258	1803.77
888.434	1805.13
888.609	1809.2
888.784	1850.08
888.96	1820.05
889.135	1789.63
889.31	1760.56
889.485	1803.19
889.661	1805.13
889.836	1828.18
890.011	1830.7
890.186	1794.28
890.361	1741.38
890.537	1802.03
890.712	1821.01
890.887	1843.29
891.062	1773.93
891.237	1860.93
891.412	1771.22
891.587	1843.49
891.762	1785.56
891.937	1825.47
892.112	1743.71
892.287	1756.3
892.462	1697.21
892.637	1691.59
892.812	1682.29
892.987	1690.43
893.161	1663.5
893.336	1631.14
893.511	1664.66
893.686	1635.4
893.861	1629.01
894.035	1659.24
894.21	1660.01
894.385	1563.52
894.56	1600.34
894.734	1549.96
894.909	1479.24
895.084	1512.76
895.258	1448.44
895.433	1472.66
895.608	1438.17
895.782	1382.56
895.957	1394.77
896.131	1406.78
896.306	1303.9
896.48	1269.22
896.655	1282.2
896.829	1197.92
897.004	1214.59
897.178	1229.5
897.353	1195.21
897.527	1241.32
897.701	1202.96
897.876	1189.98
898.05	1287.05
898.224	1241.52
898.399	1257.4
898.573	1162.85
898.747	1075.47
898.921	1051.26
899.096	982.28
899.27	983.83
899.444	994.88
899.618	1065.98
899.792	1104.34
899.967	1090.78
900.141	1117.13
900.315	1027.62
900.489	1049.51
900.663	1046.41
900.837	1044.67
901.011	973.37
901.185	1096.59
901.359	1058.62
901.533	1068.89
901.707	1038.66
901.881	1036.92
902.055	965.04
902.229	1024.91
902.403	1090.59
902.576	1027.81
902.75	1077.61
902.924	1195.4
903.098	1183.97
903.272	1197.92
903.446	1276.39
903.619	1258.18
903.793	1337.81
903.967	1288.02
904.14	1345.36
904.314	1342.85
904.488	1303.32
904.661	1342.26
904.835	1318.82
905.009	1370.75
905.182	1392.25
905.356	1369.97
905.529	1326.18
905.703	1294.6
905.876	1287.24
906.05	1237.06
906.223	1209.94
906.397	1159.75
906.57	1121.39
906.744	1063.85
906.917	1046.22
907.09	1082.06
907.264	1030.72
907.437	1010.76
907.61	968.72
907.784	994.29
907.957	1013.67
908.13	982.67
908.304	995.65
908.477	924.16
908.65	964.46
908.823	923.38
908.996	972.98
909.17	920.28
909.343	898.2
909.516	922.61
909.689	920.09
909.862	890.83
910.035	918.15
910.208	883.47
910.381	886.38
910.554	977.63
910.727	929.58
910.9	896.84
911.073	924.74
911.246	978.21
911.419	996.81
911.592	977.63
911.765	913.5
911.938	913.31
912.11	948.38
912.283	911.37
912.456	982.67
912.629	910.01
912.802	843.17
912.974	802.87
913.147	775.75
913.32	721.89
913.493	775.17
913.665	775.75
913.838	797.25
914.01	774.78
914.183	834.45
914.356	857.7
914.528	890.83
914.701	923.77
914.873	852.28
915.046	753.08
915.218	739.71
915.391	664.34
915.563	695.15
915.736	732.15
915.908	800.74
916.081	798.8
916.253	776.91
916.425	801.32
916.598	805.58
916.77	798.22
916.942	771.68
917.115	690.11
917.287	785.24
917.459	725.76
917.632	691.08
917.804	644.39
917.976	720.92
918.148	749.4
918.32	773.23
918.493	809.65
918.665	848.21
918.837	795.7
919.009	874.17
919.181	903.62
919.353	865.07
919.525	843.37
919.697	859.83
919.869	846.85
920.041	922.41
920.213	995.26
920.385	917.38
920.557	882.7
920.729	915.05
920.901	868.36
921.073	870.49
921.244	849.57
921.416	895.29
921.588	873.2
921.76	827.09
921.932	905.36
922.103	891.41
922.275	867.2
922.447	860.61
922.619	802.48
922.79	833.29
922.962	811.01
923.134	846.66
923.305	778.27
923.477	734.67
923.648	742.42
923.82	772.26
923.991	699.99
924.163	679.65
924.335	748.43
924.506	735.84
924.677	790.67
924.849	712.78
925.02	740.49
925.192	772.07
925.363	735.84
925.535	723.05
925.706	702.9
925.877	807.91
926.049	710.84
926.22	724.4
926.391	749.59
926.562	756.57
926.734	732.35
926.905	771.87
927.076	648.26
927.247	700.96
927.419	604.48
927.59	620.56
927.761	609.71
927.932	590.91
928.103	556.23
928.274	529.11
928.445	540.34
928.616	557.98
928.787	484.74
928.958	533.18
929.129	511.67
929.3	464.59
929.471	454.71
929.642	405.3
929.813	355.12
929.984	428.36
930.155	338.07
930.326	369.65
930.496	338.07
930.667	296.22
930.838	333.04
931.009	280.53
931.18	309.98
931.35	281.11
931.521	294.67
931.692	222.41
931.863	171.26
932.033	232.87
932.204	222.6
932.374	220.27
932.545	155.95
932.716	211.36
932.886	224.54
933.057	140.64
933.227	162.15
933.398	210.2
933.568	111
933.739	100.73
933.909	97.83
934.08	141.61
934.25	46.48
934.421	95.69
934.591	124.95
934.761	98.6
934.932	82.71
935.102	115.46
935.272	121.46
935.443	112.74
935.613	98.99
935.783	109.84
935.953	75.35
936.123	234.61
936.294	65.66
936.464	114.68
936.634	113.13
936.804	68.38
936.974	60.05
937.144	80.2
937.314	90.08
937.484	102.48
937.655	76.71
937.825	136.38
937.995	80.97
938.165	145.49
938.334	116.23
938.504	148.2
938.674	121.85
938.844	154.79
939.014	203.42
939.184	191.99
939.354	262.12
939.524	259.99
939.694	178.81
939.863	181.33
940.033	240.23
940.203	245.46
940.373	238.1
940.542	233.64
940.712	167.77
940.882	233.64
941.051	244.49
941.221	220.27
941.391	253.79
941.56	198.19
941.73	184.24
941.899	321.8
942.069	173.97
942.238	205.16
942.408	171.26
942.577	232.29
942.747	175.33
942.916	87.56
943.086	136.38
943.255	195.28
943.425	192.18
943.594	147.81
943.763	88.33
943.933	94.15
944.102	71.86
944.271	118.17
944.441	147.43
944.61	109.06
944.779	165.06
944.948	253.21
945.117	101.12
945.287	115.26
945.456	72.06
945.625	139.29
945.794	126.89
945.963	108.09
946.132	148.2
946.301	115.65
946.47	172.03
946.639	73.61
946.808	123.79
946.977	155.18
947.146	178.62
947.315	112.16
947.484	167.77
947.653	115.46
947.822	149.17
947.991	115.46
948.16	206.71
948.329	196.06
948.498	169.71
948.666	153.04
948.835	169.9
949.004	119.91
949.173	105.19
949.341	157.11
949.51	135.61
949.679	186.76
949.847	156.92
950.016	226.67
950.185	209.23
950.353	129.6
950.522	161.96
950.69	229.96
950.859	149.17
951.028	210.39
951.196	165.64
951.365	136.77
951.533	121.08
951.701	165.83
951.87	146.26
952.038	99.57
952.207	124.76
952.375	217.17
952.543	127.28
952.712	119.91
952.88	115.65
953.048	203.81
953.217	150.53
953.385	162.54
953.553	176.88
953.721	122.82
953.89	147.62
954.058	98.99
954.226	115.46
954.394	119.14
954.562	98.21
954.73	133.67
954.898	149.56
955.067	186.37
955.235	114.49
955.403	170.68
955.571	191.6
955.739	165.25
955.907	130.96
956.075	112.74
956.243	117.98
956.41	145.1
956.578	94.15
956.746	108.29
956.914	139.48
957.082	186.76
957.25	185.4
957.418	126.89
957.585	184.24
957.753	176.29
957.921	133.28
958.089	177.26
958.256	163.12
958.424	144.52
958.592	168.74
958.759	124.95
958.927	146.26
959.095	115.65
959.262	129.21
959.43	154.59
959.597	129.99
959.765	123.4
959.932	111.19
960.1	191.99
960.267	171.26
960.435	168.93
960.602	176.49
960.77	142.19
960.937	105.77
961.104	149.75
961.272	135.03
961.439	135.41
961.606	178.43
961.774	191.79
961.941	167.38
962.108	179.39
962.275	153.82
962.443	207.1
962.61	177.65
962.777	206.52
962.944	189.86
963.111	190.44
963.278	193.34
963.446	196.06
963.613	180.17
963.78	208.07
963.947	198.96
964.114	179.01
964.281	268.91
964.448	204.58
964.615	166.22
964.782	202.64
964.949	220.66
965.116	212.91
965.282	232.09
965.449	174.16
965.616	178.43
965.783	183.85
965.95	189.47
966.117	133.86
966.283	160.99
966.45	180.94
966.617	207.87
966.784	233.64
966.95	228.99
967.117	238.29
967.284	176.1
967.45	142.58
967.617	258.64
967.784	215.04
967.95	253.79
968.117	200.51
968.283	250.31
968.45	318.12
968.616	236.55
968.783	266.39
968.949	234.81
969.116	263.87
969.282	235.19
969.449	273.36
969.615	230.35
969.781	184.43
969.948	237.13
970.114	187.14
970.28	298.35
970.447	259.8
970.613	300.68
970.779	235
970.945	257.86
971.112	238.29
971.278	250.11
971.444	228.8
971.61	268.13
971.776	204.97
971.942	241.39
972.108	254.18
972.275	242.94
972.441	237.71
972.607	271.23
972.773	183.85
972.939	241.2
973.105	240.81
973.271	146.65
973.437	194.89
973.602	194.31
973.768	235
973.934	194.12
974.1	222.99
974.266	151.88
974.432	222.6
974.598	181.33
974.763	236.74
974.929	188.69
975.095	260.38
975.261	160.41
975.426	171.45
975.592	173.78
975.758	269.29
975.923	146.46
976.089	176.1
976.255	208.46
976.42	209.81
976.586	205.36
976.751	236.16
976.917	261.54
977.082	226.47
977.248	152.27
977.413	142.19
977.579	186.76
977.744	198.38
977.91	129.6
978.075	150.14
978.24	206.32
978.406	190.24
978.571	179.59
978.736	172.81
978.902	198.38
979.067	169.51
979.232	123.01
979.397	167.38
979.563	243.91
979.728	163.12
979.893	168.93
980.058	162.54
980.223	226.47
980.388	176.88
980.554	205.94
980.719	149.75
980.884	172.61
981.049	215.43
981.214	172.23
981.379	220.86
981.544	156.34
981.709	178.04
981.874	185.4
982.039	190.05
982.204	213.49
982.368	187.34
982.533	156.14
982.698	216.21
982.863	228.02
983.028	175.13
983.193	215.43
983.357	204
983.522	199.16
983.687	195.28
983.852	174.94
984.016	177.26
984.181	185.98
984.346	188.69
984.51	203.03
984.675	202.84
984.839	194.89
985.004	217.17
985.168	191.21
985.333	192.57
985.498	174.16
985.662	195.28
985.827	195.86
985.991	173.58
986.155	173.78
986.32	204.58
986.484	232.09
986.649	181.72
986.813	151.88
986.977	192.57
987.142	200.71
987.306	158.86
987.47	161.96
987.634	160.99
987.799	184.04
987.963	197.41
988.127	194.31
988.291	245.85
988.455	184.82
988.62	179.2
988.784	218.14
988.948	204.19
989.112	144.52
989.276	175.33
989.44	209.81
989.604	161.76
989.768	180.36
989.932	246.62
990.096	148.78
990.26	157.5
990.424	135.22
990.588	208.46
990.752	231.32
990.915	232.87
991.079	149.17
991.243	164.86
991.407	175.91
991.571	183.85
991.734	186.76
991.898	189.27
992.062	248.17
992.226	162.34
992.389	183.85
992.553	157.31
992.717	137.74
992.88	171.84
993.044	182.69
993.207	170.29
993.371	199.54
993.535	173.19
993.698	178.04
993.862	171.26
994.025	204.77
994.189	163.89
994.352	148.2
994.515	180.17
994.679	216.21
994.842	121.46
995.006	189.47
995.169	122.63
995.332	148.98
995.496	169.51
995.659	94.92
995.822	152.27
995.985	135.22
996.149	184.24
996.312	154.01
996.475	211.94
996.638	135.8
996.801	212.72
996.964	217.95
997.128	154.4
997.291	138.71
997.454	153.43
997.617	139.68
997.78	188.11
997.943	124.56
998.106	165.64
998.269	135.22
998.432	136.38
998.595	117.01
998.758	94.73
998.92	108.09
999.083	93.56
999.246	126.11
999.409	97.05
999.572	114.88
999.735	133.09
999.897	158.66
1000.06	123.21
1000.223	115.07
1000.386	148.98
1000.548	154.79
1000.711	130.57
1000.874	138.32
1001.036	72.25
1001.199	180.56
1001.361	104.8
1001.524	133.48
1001.687	139.09
1001.849	111
1002.012	147.81
1002.174	138.13
1002.337	142
1002.499	117.78
1002.661	162.54
1002.824	86.78
1002.986	92.4
1003.149	137.54
1003.311	83.3
1003.473	184.04
1003.636	100.15
1003.798	152.46
1003.96	104.99
1004.123	118.36
1004.285	91.43
1004.447	138.13
1004.609	116.23
1004.771	150.33
1004.933	75.74
1005.096	94.15
1005.258	46.87
1005.42	99.96
1005.582	135.22
1005.744	120.69
1005.906	62.76
1006.068	121.08
1006.23	53.46
1006.392	60.63
1006.554	87.75
1006.716	148.2
1006.878	114.29
1007.04	88.53
1007.202	90.85
1007.363	127.66
1007.525	104.99
1007.687	100.34
1007.849	146.26
1008.011	63.73
1008.172	66.44
1008.334	103.06
1008.496	122.43
1008.658	49.97
1008.819	78.65
1008.981	62.18
1009.143	67.8
1009.304	78.45
1009.466	120.88
1009.627	162.93
1009.789	190.05
1009.95	131.15
1010.112	68.57
1010.273	120.3
1010.435	55.2
1010.596	94.15
1010.758	47.26
1010.919	76.9
1011.081	59.85
1011.242	60.24
1011.403	134.06
1011.565	84.65
1011.726	108.29
1011.887	74.96
1012.049	81.94
1012.21	92.4
1012.371	139.87
1012.532	29.24
1012.693	76.32
1012.855	46.29
1013.016	94.34
1013.177	101.31
1013.338	72.83
1013.499	176.49
1013.66	114.88
1013.821	102.67
1013.982	95.69
1014.143	107.71
1014.304	69.54
1014.465	115.46
1014.626	117.98
1014.787	51.33
1014.948	150.91
1015.109	-3.89
1015.27	98.41
1015.431	62.18
1015.592	20.13
1015.752	110.81
1015.913	102.09
1016.074	83.3
1016.235	76.51
1016.395	67.99
1016.556	56.17
1016.717	75.35
1016.877	110.23
1017.038	37.96
1017.199	80.2
1017.359	65.47
1017.52	85.04
1017.681	57.14
1017.841	88.53
1018.002	60.05
1018.162	47.45
1018.323	114.68
1018.483	65.66
1018.644	55.59
1018.804	47.84
1018.964	33.31
1019.125	46.1
1019.285	82.91
1019.446	37.96
1019.606	37.18
1019.766	-6.8
1019.926	115.46
1020.087	69.73
1020.247	39.9
1020.407	80.97
1020.567	108.48
1020.728	40.48
1020.888	40.48
1021.048	72.25
1021.208	19.94
1021.368	31.95
1021.528	89.69
1021.688	95.31
1021.848	85.81
1022.008	66.05
1022.168	46.1
1022.328	84.65
1022.488	78.84
1022.648	45.9
1022.808	73.41
1022.968	76.71
1023.128	25.56
1023.288	17.61
1023.448	42.61
1023.608	80.58
1023.767	84.65
1023.927	34.47
1024.087	31.37
1024.247	12.19
1024.406	22.65
1024.566	18
1024.726	49.2
1024.885	52.3
1025.045	85.23
1025.205	35.44
1025.364	34.47
1025.524	73.22
1025.683	42.22
1025.843	51.13
1026.003	47.26
1026.162	93.56
1026.321	96.08
1026.481	64.5
1026.64	24.59
1026.8	64.31
1026.959	43.77
1027.119	60.82
1027.278	37.18
1027.437	35.25
1027.597	46.48
1027.756	67.41
1027.915	66.44
1028.074	54.81
1028.234	29.63
1028.393	46.29
1028.552	40.86
1028.711	-26.95
1028.87	87.95
1029.03	-8.15
1029.189	67.21
1029.348	-9.32
1029.507	10.45
1029.666	28.46
1029.825	1.53
1029.984	17.61
1030.143	52.3
1030.302	20.13
1030.461	-26.17
1030.62	41.64
1030.779	68.18
1030.938	25.56
1031.097	-25.2
1031.255	60.43
1031.414	72.64
1031.573	65.28
1031.732	-8.35
1031.891	34.08
1032.049	73.61
1032.208	80.2
1032.367	1.34
1032.525	19.94
1032.684	32.15
1032.843	48.42
1033.001	-1.95
1033.16	166.22
1033.319	72.06
1033.477	55.59
1033.636	47.45
1033.794	-13.58
1033.953	46.87
1034.111	91.24
1034.27	13.55
1034.428	57.91
1034.587	11.8
1034.745	55.78
1034.903	33.89
1035.062	64.11
1035.22	-0.98
1035.378	57.91
1035.537	-0.6
1035.695	52.49
1035.853	22.26
1036.011	44.35
1036.17	59.27
1036.328	5.99
1036.486	45.9
1036.644	27.11
1036.802	-37.99
1036.96	2.5
1037.119	5.22
1037.277	14.32
1037.435	-14.55
1037.593	-9.7
1037.751	7.73
1037.909	33.11
1038.067	33.11
