Data from calibration3_FLMT105791__5__17-25-33-069.txt Node

Date: Mon Mar 20 17:25:33 GMT 2023
User: antho
Spectrometer: FLMT10579
Trigger mode: 0
Integration Time (sec): 1.000000E-1
Scans to average: 10
Electric dark correction enabled: true
Nonlinearity correction enabled: false
Boxcar width: 0
XAxis mode: Wavelengths
Number of Pixels in Spectrum: 3648
>>>>>Begin Spectral Data<<<<<
345.248	-182.67
345.464	-182.67
345.681	-182.67
345.898	-175.5
346.114	-187.71
346.331	-27.29
346.548	21.54
346.764	-17.99
346.981	-2.68
347.197	-27.29
347.414	28.51
347.631	-12.56
347.847	66.68
348.064	-0.94
348.28	18.63
348.497	-33.1
348.713	-13.53
348.93	23.48
349.146	63.58
349.363	99.81
349.579	113.57
349.796	105.24
350.012	88.96
350.229	155.03
350.445	122.87
350.661	114.15
350.878	141.27
351.094	127.32
351.311	154.26
351.527	155.61
351.743	124.42
351.96	176.54
352.176	160.26
352.392	177.12
352.609	164.33
352.825	148.25
353.041	143.79
353.257	135.27
353.474	166.65
353.69	165.49
353.906	171.3
354.122	143.41
354.339	219.74
354.555	199.2
354.771	166.46
354.987	226.91
355.203	251.9
355.42	188.94
355.636	172.47
355.852	161.23
356.068	203.47
356.284	145.15
356.5	252.68
356.716	195.33
356.932	174.6
357.148	225.75
357.364	174.79
357.58	230.01
357.796	257.91
358.012	227.3
358.228	202.3
358.444	104.46
358.66	186.22
358.876	190.1
359.092	156.77
359.308	197.46
359.524	217.03
359.74	241.05
359.956	245.51
360.172	256.75
360.388	296.85
360.604	235.44
360.819	292.98
361.035	229.43
361.251	248.22
361.467	201.34
361.683	262.95
361.898	266.63
362.114	273.02
362.33	257.52
362.546	286.97
362.762	279.8
362.977	266.24
363.193	266.05
363.409	300.15
363.624	282.9
363.84	283.87
364.056	275.35
364.271	336.38
364.487	337.54
364.703	336.57
364.918	301.5
365.134	296.66
365.35	325.33
365.565	432.86
365.781	376.48
365.996	391.21
366.212	479.75
366.427	437.9
366.643	435.19
366.858	396.25
367.074	387.33
367.289	471.23
367.505	520.44
367.72	379.39
367.936	445.84
368.151	457.66
368.367	445.07
368.582	408.65
368.798	394.31
369.013	453.98
369.228	423.56
369.444	417.56
369.659	478.39
369.874	448.75
370.09	511.72
370.305	402.83
370.52	448.56
370.736	527.22
370.951	440.81
371.166	496.8
371.381	494.09
371.597	481.3
371.812	456.11
372.027	470.26
372.242	474.33
372.458	504.94
372.673	418.91
372.888	443.13
373.103	464.25
373.318	524.89
373.533	431.7
373.749	422.59
373.964	335.21
374.179	449.33
374.394	349.36
374.609	448.17
374.824	397.02
375.039	449.72
375.254	374.35
375.469	476.84
375.684	483.82
375.899	544.07
376.114	509.2
376.329	519.66
376.544	533.42
376.759	538.65
376.974	518.31
377.189	509.39
377.404	550.27
377.619	591.74
377.834	540.39
378.049	578.17
378.264	623.12
378.478	697.13
378.693	653.74
378.908	671.17
379.123	612.47
379.338	651.8
379.553	585.34
379.767	589.61
379.982	574.69
380.197	578.37
380.412	566.36
380.626	638.43
380.841	711.47
381.056	697.52
381.271	738.98
381.485	653.15
381.7	630.49
381.915	627.58
382.129	592.71
382.344	559.57
382.559	537.68
382.773	544.27
382.988	463.67
383.202	498.74
383.417	452.82
383.632	550.47
383.846	469.29
384.061	493.51
384.275	487.11
384.49	571.39
384.704	624.48
384.919	676.79
385.133	680.67
385.348	752.93
385.562	702.95
385.777	732.4
385.991	675.05
386.206	663.81
386.42	653.15
386.634	761.46
386.849	738.4
387.063	764.37
387.277	743.05
387.492	717.48
387.706	695.97
387.92	707.98
388.135	792.26
388.349	796.14
388.563	776.38
388.778	753.13
388.992	803.7
389.206	806.41
389.42	895.73
389.635	859.88
389.849	960.44
390.063	1012.17
390.277	1007.52
390.491	1067.58
390.706	1011.2
390.92	1013.52
391.134	1036.19
391.348	1122.02
391.562	1058.67
391.776	1148.37
391.99	1134.62
392.205	1122.8
392.419	1061.77
392.633	1003.26
392.847	981.36
393.061	843.61
393.275	849.42
393.489	672.53
393.703	583.99
393.917	612.27
394.131	605.1
394.345	756.23
394.559	871.51
394.773	936.99
394.986	1091.41
395.2	1143.92
395.414	1240.79
395.628	1257.45
395.842	1287.48
396.056	1279.35
396.27	1171.43
396.484	1176.85
396.697	1041.62
396.911	926.14
397.125	813.38
397.339	808.93
397.553	831.01
397.766	965.09
397.98	1141.78
398.194	1312.67
398.408	1451.39
398.621	1521.14
398.835	1648.24
399.049	1674.78
399.262	1768.75
399.476	1794.91
399.69	1836.17
399.903	1883.06
400.117	1809.05
400.331	1882.09
400.544	1864.66
400.758	2009.97
400.971	1928.79
401.185	1946.42
401.398	1940.6
401.612	2065.57
401.826	2045.03
402.039	2082.81
402.253	2095.6
402.466	2178.91
402.68	2128.73
402.893	2210.11
403.106	2157.8
403.32	2113.23
403.533	2159.73
403.747	2054.92
403.96	2151.21
404.174	2207.59
404.387	2168.84
404.6	2213.21
404.814	2226.96
405.027	2127.38
405.24	2113.81
405.454	2135.51
405.667	2225.03
405.88	2191.12
406.094	2223.28
406.307	2218.24
406.52	2170
406.733	2112.46
406.947	2145.59
407.16	2257.96
407.373	2287.02
407.586	2303.69
407.799	2335.07
408.012	2297.68
408.226	2322.87
408.439	2461.78
408.652	2429.04
408.865	2546.65
409.078	2632.09
409.291	2616.59
409.504	2620.08
409.717	2636.74
409.93	2585.4
410.143	2416.64
410.357	2276.37
410.57	2203.33
410.783	2280.82
410.996	2359.1
411.209	2473.41
411.421	2672.78
411.634	2738.07
411.847	2723.54
412.06	2782.24
412.273	2798.32
412.486	2818.47
412.699	2871.37
412.912	2877.95
413.125	2844.82
413.338	2790.96
413.55	2741.17
413.763	2748.92
413.976	2851.02
414.189	2780.31
414.402	2842.5
414.615	2963.2
414.827	2834.36
415.04	2873.88
415.253	2864.2
415.466	2946.93
415.678	2975.99
415.891	2933.17
416.104	2865.55
416.316	2927.75
416.529	3017.45
416.742	3129.05
416.954	3078.29
417.167	3014.16
417.38	3032.37
417.592	2958.16
417.805	2887.45
418.017	2893.07
418.23	2945.96
418.442	2934.53
418.655	2950.61
418.868	2913.8
419.08	3011.64
419.293	3036.83
419.505	3106.19
419.718	3070.73
419.93	3106.19
420.142	3020.16
420.355	3042.64
420.567	3016.1
420.78	3121.49
420.992	3120.53
421.205	3317.76
421.417	3324.54
421.629	3384.41
421.842	3335.58
422.054	3340.62
422.266	3357.48
422.479	3360.97
422.691	3184.46
422.903	3258.86
423.115	3095.73
423.328	3086.43
423.54	3163.34
423.752	3182.72
423.964	3248.79
424.177	3315.82
424.389	3311.95
424.601	3430.33
424.813	3423.74
425.025	3421.22
425.238	3422.77
425.45	3405.33
425.662	3359.03
425.874	3647.13
426.086	3360.97
426.298	3507.05
426.51	3444.66
426.722	3430.52
426.934	3473.15
427.146	3511.89
427.358	3411.34
427.57	3438.27
427.782	3294.9
427.994	3305.55
428.206	3350.31
428.418	3595.59
428.63	3646.94
428.842	3638.61
429.054	3483.61
429.266	3455.71
429.478	3413.47
429.69	3332.29
429.902	3235.22
430.114	3259.25
430.325	3086.81
430.537	2891.71
430.749	2803.94
430.961	2670.06
431.173	2729.93
431.384	2791.54
431.596	2891.9
431.808	3307.3
432.02	3706.42
432.231	3987.16
432.443	4216.94
432.655	4057.68
432.867	3971.27
433.078	3977.47
433.29	4066.59
433.502	4165.79
433.713	4272.35
433.925	4326.8
434.136	4122.39
434.348	3861.41
434.56	3802.71
434.771	4023.97
434.983	3921.86
435.194	4199.7
435.406	4394.03
435.617	4375.23
435.829	4479.08
436.04	4540.89
436.252	4482.57
436.463	4717.2
436.675	4818.33
436.886	4880.91
437.098	4974.69
437.309	4935.16
437.521	4814.07
437.732	4659.85
437.943	4658.3
438.155	4593.97
438.366	4547.09
438.578	4624
438.789	4405.65
439	4370.58
439.211	4331.45
439.423	4475.4
439.634	4668.37
439.845	4798.38
440.057	4840.03
440.268	5031.07
440.479	4963.26
440.69	4962.48
440.902	4826.47
441.113	4829.38
441.324	4956.67
441.535	5171.34
441.746	5277.32
441.957	5278.87
442.168	5395.51
442.38	5382.72
442.591	5479.98
442.802	5379.04
443.013	5529.38
443.224	5568.33
443.435	5475.14
443.646	5453.63
443.857	5418.56
444.068	5460.8
444.279	5430.38
444.49	5760.72
444.701	5591
444.912	5881.62
445.123	5776.41
445.334	5582.47
445.545	5746.38
445.756	5605.91
445.967	5472.42
446.178	5376.32
446.388	5318.97
446.599	5458.67
446.81	5535.78
447.021	5519.31
447.232	5646.8
447.443	5737.28
447.653	5947.68
447.864	6076.53
448.075	6033.13
448.286	5985.27
448.496	5940.32
448.707	6074.59
448.918	5880.45
449.129	5971.9
449.339	5967.64
449.55	6116.24
449.761	6137.94
449.971	6050.95
450.182	6181.15
450.393	6292.36
450.603	6205.56
450.814	6434.57
451.024	6482.43
451.235	6691.29
451.446	6600.23
451.656	6608.56
451.867	6545.59
452.077	6348.16
452.288	6505.68
452.498	6395.82
452.709	6335.57
452.919	6168.36
453.13	6061.22
453.34	6044.75
453.55	5865.92
453.761	6126.32
453.971	6096.29
454.182	6162.74
454.392	6275.89
454.602	6533
454.813	6565.35
455.023	6411.9
455.233	6324.52
455.444	6363.27
455.654	6177.47
455.864	6367.34
456.075	6487.46
456.285	6470.8
456.495	6505.87
456.705	6605.65
456.916	6766.07
457.126	6828.85
457.336	6742.05
457.546	6617.28
457.756	6710.27
457.967	6873.8
458.177	6654.86
458.387	6742.63
458.597	6579.11
458.807	6698.07
459.017	6567.48
459.227	6562.06
459.437	6605.84
459.647	6791.45
459.857	6733.72
460.068	6851.71
460.278	6824
460.488	6911.77
460.698	6851.32
460.908	6948.39
461.117	7102.42
461.327	7098.35
461.537	7290.55
461.747	7238.43
461.957	7163.45
462.167	7321.93
462.377	7316.51
462.587	7280.08
462.797	7423.84
463.007	7334.91
463.216	7549.2
463.426	7703.03
463.636	7511.03
463.846	7295.58
464.056	7302.56
464.265	7270.01
464.475	7314.96
464.685	7538.74
464.895	7368.05
465.104	7258.58
465.314	7581.17
465.524	7394.01
465.733	7376.57
465.943	7654.6
466.153	7778.4
466.362	7840.79
466.572	7782.66
466.782	7580.78
466.991	7757.28
467.201	7666.8
467.41	7481.19
467.62	7749.53
467.829	7796.42
468.039	7923.52
468.249	7872.37
468.458	8085.49
468.668	7995.98
468.877	8194.96
469.086	8260.83
469.296	8459.04
469.505	8484.8
469.715	8352.86
469.924	8289.31
470.134	8398.78
470.343	8186.63
470.552	8222.66
470.762	8173.26
470.971	8308.88
471.18	8401.3
471.39	8507.67
471.599	8398.59
471.808	8528.59
472.018	8804.88
472.227	8968.01
472.436	9305.71
472.645	9263.47
472.855	9200.51
473.064	9484.93
473.273	9555.06
473.482	9145.29
473.691	9445.21
473.901	9307.46
474.11	9242.36
474.319	9526.2
474.528	9474.47
474.737	9992.55
474.946	9775.16
475.155	9930.16
475.364	10060.74
475.573	9897.03
475.783	10173.89
475.992	10013.08
476.201	10056.68
476.41	10181.06
476.619	9954.18
476.828	10056.29
477.037	10026.84
477.245	10011.73
477.454	10166.92
477.663	10529.42
477.872	10744.48
478.081	10923.5
478.29	10813.45
478.499	11031.81
478.708	11231.17
478.917	11216.64
479.125	10944.23
479.334	11000.03
479.543	11321.07
479.752	11485.95
479.961	11408.45
480.169	11696.94
480.378	11797.11
480.587	12129.97
480.796	11814.54
481.004	11931.76
481.213	12118.34
481.422	12200.49
481.63	12392.69
481.839	12483.94
482.048	12718.38
482.256	12573.65
482.465	12961.14
482.674	12803.62
482.882	12828.23
483.091	12983.03
483.299	12725.93
483.508	13076.03
483.716	13212.24
483.925	13317.44
484.134	12890.42
484.342	13238.59
484.551	13151.01
484.759	13028.95
484.967	13567.96
485.176	13390.87
485.384	13496.46
485.593	13285.67
485.801	13115.36
486.01	12733.68
486.218	12027.86
486.426	11605.49
486.635	11339.67
486.843	11412.33
487.051	11822.49
487.26	12002.09
487.468	12358.59
487.676	12731.94
487.885	13101.61
488.093	13406.57
488.301	13835.13
488.509	13873.11
488.717	14136.41
488.926	14150.75
489.134	13991.29
489.342	14041.67
489.55	13865.17
489.758	14228.63
489.967	14766.28
490.175	14724.43
490.383	15135.37
490.591	15402.94
490.799	15237.28
491.007	15209.19
491.215	15218.1
491.423	15086.74
491.631	15091.97
491.839	14954.99
492.047	14920.7
492.255	14608.77
492.463	14678.32
492.671	14404.75
492.879	14909.85
493.087	14983.47
493.295	15201.44
493.503	15361.86
493.711	15791.4
493.919	15673.02
494.127	15594.94
494.334	15559.1
494.542	15741.41
494.75	16115.93
494.958	15917.72
495.166	16380.78
495.374	16466.61
495.581	16533.26
495.789	16523.76
495.997	16539.46
496.205	15964.03
496.412	16183.16
496.62	16497.61
496.828	16306.38
497.035	16536.94
497.243	16600.29
497.451	16719.06
497.658	16664.23
497.866	16624.13
498.074	16823.1
498.281	16466.03
498.489	16557.48
498.696	16198.46
498.904	16083.76
499.112	16128.71
499.319	16404.61
499.527	16607.27
499.734	16774.09
499.942	16632.65
500.149	16667.72
500.357	16732.24
500.564	16393.57
500.771	16341.25
500.979	16058.38
501.186	15894.09
501.394	16291.07
501.601	15917.72
501.808	15932.84
502.016	16051.41
502.223	15896.99
502.43	16035.72
502.638	16063.61
502.845	16391.05
503.052	16483.47
503.26	16600.1
503.467	16758.78
503.674	16742.51
503.881	16679.54
504.089	16483.85
504.296	16446.46
504.503	16281
504.71	16177.34
504.917	16443.94
505.125	16587.31
505.332	16873.87
505.539	16814
505.746	17283.64
505.953	17345.06
506.16	17477
506.367	17501.41
506.574	17823.61
506.781	17620.18
506.988	17584.92
507.195	17418.68
507.402	17482.43
507.609	17401.25
507.816	17163.32
508.023	17091.83
508.23	17001.74
508.437	16833.37
508.644	16999.41
508.851	17089.12
509.058	17403.57
509.265	17530.48
509.472	17747.28
509.679	17857.71
509.885	17697.68
510.092	17771.88
510.299	17751.73
510.506	17344.48
510.713	17568.06
510.92	17507.23
511.126	17658.35
511.333	17820.13
511.54	17911.19
511.746	17942.38
511.953	18106.1
512.16	18270.59
512.367	18182.24
512.573	17968.73
512.78	17823.42
512.987	17879.41
513.193	17607.39
513.4	17398.92
513.606	17514.01
513.813	17611.66
514.02	17397.76
514.226	17377.41
514.433	17407.83
514.639	17233.07
514.846	17279.96
515.052	17288.87
515.259	17425.85
515.465	17533.96
515.672	17493.28
515.878	17642.27
516.085	17885.23
516.291	17860.23
516.497	17646.72
516.704	17057.54
516.91	16748.51
517.117	15984.57
517.323	15547.28
517.529	15513.37
517.736	15403.32
517.942	15695.5
518.148	16071.95
518.354	16147.9
518.561	16108.76
518.767	16122.9
518.973	16197.88
519.179	16617.15
519.386	16670.82
519.592	16709.37
519.798	16765.75
520.004	17503.54
520.21	17412.48
520.417	17594.99
520.623	17775.18
520.829	17719.57
521.035	17757.74
521.241	17627.74
521.447	17816.45
521.653	18206.85
521.859	17931.73
522.065	18082.46
522.271	18303.14
522.477	18179.72
522.683	18327.36
522.889	17835.24
523.095	17668.23
523.301	17845.31
523.507	17645.56
523.713	17783.12
523.919	17818.38
524.125	18196.58
524.331	18388.97
524.537	18646.07
524.742	18728.8
524.948	18743.72
525.154	18843.31
525.36	18680.75
525.566	18486.81
525.772	18749.34
525.977	18508.12
526.183	18396.14
526.389	18518.39
526.595	17856.16
526.8	17756.97
527.006	17125.93
527.212	16665.2
527.417	16606.88
527.623	16761.69
527.829	16970.93
528.034	17352.03
528.24	17422.17
528.446	17843.76
528.651	18214.02
528.857	18393.62
529.062	18459.3
529.268	18693.15
529.473	18908.21
529.679	19093.63
529.884	18978.54
530.09	18859.58
530.295	18425.01
530.501	18731.51
530.706	18744.11
530.912	18921.58
531.117	19062.05
531.323	18994.24
531.528	19313.53
531.733	19318.96
531.939	19195.54
532.144	19052.55
532.35	18964.98
532.555	18912.67
532.76	18365.33
532.966	18274.66
533.171	18070.06
533.376	17966.02
533.581	18016.2
533.787	18279.31
533.992	18657.31
534.197	18255.86
534.402	18745.08
534.607	18696.25
534.813	18559.08
535.018	18697.8
535.223	18989.39
535.428	18880.7
535.633	19029.3
535.838	19293.38
536.043	19479.38
536.249	19697.73
536.454	19367.01
536.659	19530.92
536.864	19359.26
537.069	19067.67
537.274	18954.71
537.479	18942.31
537.684	18895.04
537.889	18765.61
538.094	19255.21
538.299	19146.33
538.504	19407.89
538.708	19163.96
538.913	19471.05
539.118	19358.48
539.323	19338.33
539.528	19100.6
539.733	19019.42
539.938	18976.22
540.142	18867.52
540.347	18704
540.552	18705.36
540.757	18397.69
540.962	18555.4
541.166	18343.05
541.371	18320
541.576	18423.84
541.781	18600.73
541.985	18953.35
542.19	18735.39
542.395	19369.91
542.599	19240.68
542.804	18918.29
543.008	19143.03
543.213	19150.01
543.418	18894.46
543.622	19130.25
543.827	18763.48
544.031	19065.73
544.236	19231.96
544.44	19471.24
544.645	19456.13
544.849	19331.94
545.054	19467.95
545.258	19637.09
545.463	19637.86
545.667	19249.01
545.872	19603.76
546.076	19490.23
546.281	19397.81
546.485	19330.58
546.689	19437.34
546.894	19391.61
547.098	19485.97
547.302	19497.4
547.507	19396.07
547.711	19398.59
547.915	19340.66
548.119	19070.38
548.324	19105.45
548.528	19193.21
548.732	19253.47
548.936	19418.54
549.141	19436.37
549.345	19445.09
549.549	19460
549.753	19673.71
549.957	19577.41
550.161	19735.71
550.366	19722.14
550.57	19624.88
550.774	19572.57
550.978	19608.22
551.182	19496.04
551.386	19342.79
551.59	19419.51
551.794	19382.7
551.998	19499.92
552.202	19541.38
552.406	19471.63
552.61	19783.17
552.814	19690.95
553.018	19571.21
553.222	19312.76
553.426	19379.21
553.63	19644.45
553.833	19467.75
554.037	19255.99
554.241	19303.46
554.445	19596.01
554.649	19594.46
554.853	19449.74
555.056	19632.83
555.26	19733.77
555.464	19493.13
555.668	19668.09
555.871	19554.36
556.075	19726.02
556.279	19504.57
556.483	19485.58
556.686	19272.46
556.89	19284.86
557.094	19142.84
557.297	18855.32
557.501	19005.67
557.704	18770.07
557.908	19044.22
558.112	19035.89
558.315	19071.54
558.519	18967.3
558.722	18714.66
558.926	18720.47
559.129	18238.23
559.333	18573.8
559.536	18516.65
559.74	18271.17
559.943	18164.03
560.147	18484.87
560.35	18238.82
560.553	18611.97
560.757	18615.85
560.96	18648.59
561.164	18831.1
561.367	18958
561.57	18894.65
561.774	18692.76
561.977	18607.52
562.18	18579.81
562.384	18710.59
562.587	18536.41
562.79	18806.88
562.993	18591.63
563.197	18601.51
563.4	18785.57
563.603	18759.8
563.806	18850.09
564.009	18706.91
564.212	18731.71
564.416	18511.03
564.619	18437.21
564.822	18274.66
565.025	18544.94
565.228	18522.07
565.431	18647.04
565.634	18386.64
565.837	18262.45
566.04	18096.22
566.243	17948.19
566.446	17798.82
566.649	18109.2
566.852	17909.44
567.055	18162.67
567.258	18089.24
567.461	18315.93
567.664	18339.56
567.867	18369.01
568.07	18137.29
568.273	18295.97
568.475	18414.35
568.678	17879.03
568.881	17831.56
569.084	17625.02
569.287	17473.71
569.489	17713.57
569.692	17691.67
569.895	17837.76
570.098	17601.58
570.3	17649.82
570.503	17509.36
570.706	17434.96
570.909	17363.27
571.111	17115.27
571.314	17132.13
571.516	17145.69
571.719	17295.46
571.922	17229
572.124	17346.22
572.327	17479.71
572.529	17476.61
572.732	17588.02
572.935	17574.65
573.137	17996.05
573.34	17613.21
573.542	17841.25
573.745	17814.51
573.947	17815.48
574.15	17583.17
574.352	17616.69
574.554	17735.85
574.757	17587.05
574.959	17229.59
575.162	17576.2
575.364	17226.49
575.566	17411.51
575.769	17103.26
575.971	17283.45
576.173	16885.68
576.376	17108.11
576.578	17371.8
576.78	17228.42
576.982	17095.32
577.185	17289.07
577.387	17248.77
577.589	17436.9
577.791	17265.43
577.993	17288.68
578.196	17234.24
578.398	17054.24
578.6	16940.32
578.802	16894.79
579.004	16890.14
579.206	16956.98
579.408	17168.56
579.61	16963.57
579.812	17337.31
580.014	17101.71
580.216	17165.26
580.418	17427.01
580.62	17372.38
580.822	17485.72
581.024	17525.05
581.226	17510.52
581.428	17521.95
581.63	17893.36
581.832	17658.15
582.034	17832.14
582.236	17777.7
582.438	17998.96
582.64	17917.19
582.841	18022.98
583.043	18280.28
583.245	17978.42
583.447	18091.37
583.649	18093.89
583.85	18098.35
584.052	18113.07
584.254	18038.67
584.456	18065.41
584.657	18013.1
584.859	18251.41
585.061	17996.44
585.262	17995.86
585.464	17786.61
585.666	17891.43
585.867	17605.07
586.069	17651.95
586.27	17596.35
586.472	17616.69
586.674	17671.72
586.875	17642.65
587.077	17686.05
587.278	17663
587.48	17703.3
587.681	17826.52
587.883	17732.55
588.084	17435.15
588.285	17461.69
588.487	17048.04
588.688	17086.6
588.89	16585.76
589.091	16166.11
589.292	15828.99
589.494	15484.5
589.695	15233.99
589.896	15024.35
590.098	15117.16
590.299	15256.08
590.5	15432.77
590.702	15771.83
590.903	15937.1
591.104	16189.36
591.305	16431.35
591.507	16455.18
591.708	16476.3
591.909	16509.62
592.11	16386.01
592.311	16567.75
592.512	16371.09
592.714	16296.5
592.915	16558.45
593.116	16491.02
593.317	16726.62
593.518	16669.85
593.719	16765.75
593.92	16743.86
594.121	16790.55
594.322	16674.31
594.523	16535
594.724	16382.72
594.925	16428.05
595.126	16294.56
595.327	16325.95
595.528	16412.75
595.729	16434.25
595.929	16441.62
596.13	16498.77
596.331	16746.57
596.532	16665.01
596.733	16913.97
596.934	16932.77
597.135	16909.32
597.335	16782.61
597.536	16853.33
597.737	16778.74
597.938	16634.78
598.138	16758.59
598.339	16752.58
598.54	16786.29
598.74	16610.95
598.941	16583.44
599.142	16883.55
599.342	16837.44
599.543	16698.72
599.744	16729.72
599.944	16772.34
600.145	16956.79
600.345	16848.29
600.546	16822.91
600.746	16890.33
600.947	17058.31
601.147	16678.57
601.348	16880.84
601.548	16723.52
601.749	16696.2
601.949	16550.5
602.15	16624.13
602.35	16374.39
602.551	16461.18
602.751	16603.39
602.951	16683.8
603.152	16696.2
603.352	16765.75
603.552	16786.1
603.753	16890.53
603.953	17069.94
604.153	17022.86
604.354	17003.1
604.554	16953.5
604.754	17026.34
604.954	16977.33
605.155	17157.51
605.355	16978.3
605.555	17004.84
605.755	17038.55
605.955	16864.37
606.155	16918.04
606.356	16939.74
606.556	16919.59
606.756	17000.58
606.956	16887.04
607.156	16977.33
607.356	16869.99
607.556	16978.1
607.756	16888.4
607.956	16903.12
608.156	16897.89
608.356	16650.09
608.556	16844.61
608.756	16661.13
608.956	16728.56
609.156	16671.79
609.356	16641.76
609.556	16513.11
609.755	16685.35
609.955	16553.6
610.155	16455.57
610.355	16640.01
610.555	16399.77
610.755	16314.13
610.954	16276.74
611.154	16510.98
611.354	16410.62
611.554	16415.65
611.753	16651.25
611.953	16413.33
612.153	16511.56
612.352	16389.89
612.552	16229.66
612.752	16271.89
612.951	16425.73
613.151	16226.17
613.351	16322.07
613.55	16274.99
613.75	16281.97
613.949	16027
614.149	16056.83
614.348	16086.48
614.548	16024.09
614.747	16041.33
614.947	16180.44
615.146	16008.01
615.346	16252.71
615.545	16125.42
615.745	16144.02
615.944	15987.67
616.144	16096.36
616.343	15766.6
616.542	15898.54
616.742	15592.81
616.941	15667.01
617.14	15466.49
617.34	15667.98
617.539	15755.75
617.738	15723.01
617.938	15887.89
618.137	15873.16
618.336	16014.02
618.535	16092.48
618.734	16124.84
618.934	15926.44
619.133	15949.89
619.332	16220.16
619.531	15724.17
619.73	16120.58
619.929	16023.51
620.128	16123.1
620.328	16032.42
620.527	16036.68
620.726	16192.07
620.925	16119.61
621.124	16218.23
621.323	16069.23
621.522	15795.28
621.721	16126.97
621.92	15828.6
622.119	15940.2
622.318	15821.04
622.517	15763.11
622.715	15678.64
622.914	15585.64
623.113	15757.88
623.312	15394.61
623.511	15591.84
623.71	15492.25
623.909	15289.21
624.107	15622.65
624.306	15383.17
624.505	15303.35
624.704	15346.75
624.902	15055.55
625.101	15241.93
625.3	15124.91
625.499	15110.38
625.697	15239.61
625.896	15014.86
626.095	14941.43
626.293	14821.89
626.492	15082.67
626.69	14993.74
626.889	15171.02
627.088	15062.14
627.286	15112.32
627.485	14821.31
627.683	14825.38
627.882	14575.83
628.08	14341.2
628.279	14135.25
628.477	14254.4
628.676	14087.01
628.874	14262.93
629.073	14158.89
629.271	14260.99
629.469	14281.14
629.668	14269.13
629.866	14162.18
630.065	14273.58
630.263	14268.16
630.461	14136.41
630.66	14391.77
630.858	14174.39
631.056	14515.38
631.254	14539.02
631.453	14353.41
631.651	14471.98
631.849	14235.8
632.047	14276.3
632.245	14213.33
632.444	14347.6
632.642	14512.67
632.84	14753.88
633.038	14483.61
633.236	14407.85
633.434	14700.41
633.632	14704.87
633.83	14456.48
634.028	14721.72
634.227	14568.47
634.425	14808.91
634.623	14557.04
634.821	14717.07
635.019	14710.68
635.216	14893.96
635.414	14839.33
635.612	14724.24
635.81	14778.49
636.008	14854.05
636.206	14760.86
636.404	14679.68
636.602	14772.1
636.8	14639.57
636.997	14818.79
637.195	14837
637.393	14793.21
637.591	14926.32
637.789	14938.14
637.986	14966.81
638.184	14899.97
638.382	15036.95
638.58	14904.81
638.777	15063.1
638.975	14996.26
639.173	14997.62
639.37	15046.83
639.568	14947.63
639.765	14977.08
639.963	14892.03
640.161	14656.82
640.358	14905.2
640.556	14606.64
640.753	14769.19
640.951	14620.2
641.148	14708.74
641.346	14729.28
641.543	14603.54
641.741	14663.6
641.938	14546.96
642.136	14628.92
642.333	14547.54
642.531	14685.49
642.728	14640.15
642.925	14803.29
643.123	14618.07
643.32	14633.57
643.517	14628.72
643.715	14510.73
643.912	14659.72
644.109	14657.2
644.306	14662.82
644.504	14595.4
644.701	14722.5
644.898	14568.66
645.095	14541.34
645.293	14549.67
645.49	14477.99
645.687	14510.73
645.884	14552.97
646.081	14184.27
646.278	14284.63
646.475	14147.07
646.672	14075.38
646.87	13999.82
647.067	13920.58
647.264	13912.44
647.461	13836.49
647.658	13694.67
647.855	13881.25
648.052	13645.84
648.249	13532.89
648.446	13529.79
648.642	13752.99
648.839	13402.88
649.036	13592.18
649.233	13536.96
649.43	13445.7
649.627	13188.6
649.824	13366.07
650.021	13283.15
650.217	13455
650.414	13631.12
650.611	13598.38
650.808	13794.83
651.004	13779.92
651.201	13816.73
651.398	13948.67
651.595	13726.25
651.791	13541.03
651.988	13725.28
652.185	13410.44
652.381	13714.43
652.578	13524.75
652.775	13606.71
652.971	13801.42
653.168	13562.73
653.364	13921.35
653.561	13596.44
653.757	13797.93
653.954	13986.26
654.15	13613.68
654.347	13785.15
654.543	13826.61
654.74	13541.99
654.936	13481.74
655.133	13464.11
655.329	13424.2
655.525	13165.54
655.722	13138.61
655.918	12840.44
656.115	12453.33
656.311	12122.02
656.507	11724.65
656.704	11629.9
656.9	11688.03
657.096	11978.26
657.292	11895.34
657.489	12145.46
657.685	12454.69
657.881	12415.94
658.077	12603.87
658.273	12825.71
658.47	13095.02
658.666	13083.2
658.862	13315.31
659.058	13288.19
659.254	13342.05
659.45	13523.98
659.646	13330.04
659.842	13393.2
660.038	13625.31
660.234	13402.69
660.43	13428.46
660.626	13635.57
660.822	13577.45
661.018	13683.43
661.214	13680.33
661.41	13600.31
661.606	13732.64
661.802	13837.07
661.998	13705.32
662.194	13683.24
662.39	13731.87
662.586	13771.97
662.781	13772.36
662.977	13834.17
663.173	13652.62
663.369	13670.06
663.564	13673.74
663.76	13677.04
663.956	13678.01
664.152	13480.77
664.347	13502.28
664.543	13581.33
664.739	13504.41
664.934	13450.35
665.13	13554.39
665.326	13492.01
665.521	13593.34
665.717	13463.72
665.912	13512.93
666.108	13278.3
666.304	13577.26
666.499	13387.58
666.695	13182.21
666.89	13555.17
667.086	13371.88
667.281	13457.13
667.477	13535.41
667.672	13431.56
667.867	13373.43
668.063	13354.45
668.258	13269.39
668.454	13333.14
668.649	13428.46
668.844	13456.94
669.04	13392.81
669.235	13301.36
669.43	13446.48
669.626	13204.1
669.821	13319.96
670.016	13201.77
670.211	13335.46
670.407	13082.04
670.602	13295.16
670.797	13098.12
670.992	13388.93
671.187	13122.73
671.382	13252.73
671.578	12960.56
671.773	13007.25
671.968	12878.99
672.163	13059.18
672.358	13073.51
672.553	12885.77
672.748	13049.1
672.943	13075.06
673.138	13075.06
673.333	13141.33
673.528	12865.43
673.723	13095.99
673.918	12904.18
674.113	12919.68
674.308	13048.13
674.503	12891
674.698	13016.16
674.892	12808.08
675.087	12916.39
675.282	12940.6
675.477	12953
675.672	12968.5
675.867	12764.87
676.061	12780.57
676.256	12691.64
676.451	12811.37
676.646	12842.95
676.84	12683.5
677.035	12648.43
677.23	12782.12
677.424	12756.35
677.619	12682.92
677.814	12871.24
678.008	12710.43
678.203	12743.37
678.397	12606.97
678.592	12671.1
678.787	12775.14
678.981	12634.48
679.176	12699.78
679.37	12569.19
679.565	12573.65
679.759	12613.95
679.954	12581.59
680.148	12595.15
680.342	12607.36
680.537	12549.82
680.731	12479.1
680.926	12631.38
681.12	12470.57
681.314	12508.35
681.509	12464.76
681.703	12497.31
681.897	12314.02
682.092	12424.85
682.286	12442.87
682.48	12369.82
682.674	12481.81
682.869	12282.06
683.063	12406.64
683.257	12391.91
683.451	12205.53
683.645	12305.69
683.839	12181.89
684.034	12155.73
684.228	12046.65
684.422	11912
684.616	12097.8
684.81	12093.54
685.004	11917.81
685.198	11988.92
685.392	11970.12
685.586	11989.11
685.78	11879.64
685.974	11937.77
686.168	11898.82
686.362	11828.49
686.556	11090.51
686.75	10671.82
686.944	10004.95
687.138	9291.18
687.331	8770
687.525	8501.08
687.719	8236.23
687.913	8312.18
688.107	8479.38
688.301	8517.94
688.494	8710.52
688.688	8613.65
688.882	8512.12
689.076	8586.33
689.269	8575.09
689.463	8709.94
689.657	8710.52
689.85	8772.71
690.044	8913.76
690.238	9021.29
690.431	9045.51
690.625	9071.86
690.818	9323.54
691.012	9299.9
691.205	9603.11
691.399	9592.46
691.593	9619
691.786	9663.18
691.98	9926.48
692.173	10014.44
692.366	10031.3
692.56	10130.88
692.753	10017.35
692.947	9988.48
693.14	9959.22
693.333	10037.3
693.527	10001.26
693.72	9959.03
693.914	9895.48
694.107	9839.87
694.3	9824.76
694.493	9628.3
694.687	9960
694.88	9685.65
695.073	9913.5
695.266	9868.35
695.46	9923.96
695.653	9915.05
695.846	9873
696.039	10011.53
696.232	9987.51
696.425	10177.96
696.618	10231.63
696.812	10424.02
697.005	10388.37
697.198	10596.07
697.391	10490.09
697.584	10688.29
697.777	10705.15
697.97	10542.59
698.163	10574.95
698.356	10460.83
698.549	10540.27
698.742	10509.27
698.935	10383.53
699.127	10284.72
699.32	10114.99
699.513	10088.84
699.706	10079.34
699.899	10220.78
700.092	10058.03
700.285	9927.45
700.477	9780.97
700.67	9921.63
700.863	9851.5
701.056	10009.79
701.248	9927.06
701.441	9919.5
701.634	9830.77
701.826	9884.43
702.019	9717.62
702.212	9845.88
702.404	9686.23
702.597	9664.14
702.79	9708.12
702.982	9732.34
703.175	9815.27
703.367	9928.03
703.56	9917.57
703.752	9986.54
703.945	9974.72
704.137	9951.86
704.33	10004.75
704.522	10041.76
704.715	10044.08
704.907	10095.23
705.1	10154.91
705.292	10094.26
705.484	9976.66
705.677	10078.38
705.869	10093.29
706.061	10061.91
706.254	10142.51
706.446	9935.97
706.638	10001.26
706.831	10035.94
707.023	10042.34
707.215	10138.24
707.407	10146.38
707.599	9985.76
707.792	10201.02
707.984	10110.73
708.176	10102.01
708.368	10054.74
708.56	10105.31
708.752	10073.92
708.944	9934.81
709.136	10066.75
709.329	10009.98
709.521	10126.42
709.713	10037.49
709.905	10059.78
710.097	10076.05
710.289	9964.65
710.481	9990.8
710.672	9953.02
710.864	10051.25
711.056	10059.58
711.248	9932.29
711.44	9990.8
711.632	9944.88
711.824	9986.35
712.016	9926.28
712.207	10030.91
712.399	9895.28
712.591	9959.41
712.783	9916.98
712.975	9869.13
713.166	9804.42
713.358	9817.2
713.55	9786.01
713.741	9850.92
713.933	9848.59
714.125	9773.03
714.316	9620.16
714.508	9712.39
714.7	9595.75
714.891	9576.96
715.083	9556.42
715.274	9451.02
715.466	9524.26
715.657	9491.9
715.849	9312.49
716.04	9272.39
716.232	9131.34
716.423	8978.09
716.615	8792.09
716.806	8466.4
716.998	8184.11
717.189	7943.67
717.381	7718.73
717.572	7485.26
717.763	7291.9
717.955	7209.56
718.146	7056.89
718.337	6906.73
718.528	6704.85
718.72	6475.45
718.911	6437.87
719.102	6346.8
719.293	6274.73
719.485	6278.99
719.676	6149.76
719.867	6118.96
720.058	6115.47
720.249	6068.39
720.44	6079.05
720.632	6252.84
720.823	6320.45
721.014	6660.09
721.205	6812.38
721.396	6997.02
721.587	7209.75
721.778	7310.12
721.969	7507.93
722.16	7524.21
722.351	7760.77
722.542	7816.76
722.733	7818.51
722.924	7701.1
723.115	7755.93
723.305	7513.36
723.496	7488.17
723.687	7193.29
723.878	7141.94
724.069	7098.74
724.26	7041
724.45	6867.02
724.641	6761.62
724.832	6825.75
725.023	6683.92
725.213	6708.72
725.404	6645.37
725.595	6565.16
725.785	6572.33
725.976	6673.46
726.167	6594.03
726.357	6594.8
726.548	6760.45
726.739	6546.17
726.929	6741.66
727.12	6719.77
727.31	6759.29
727.501	6612.63
727.691	6588.6
727.882	6579.49
728.072	6654.47
728.263	6657.77
728.453	6776.73
728.644	6797.85
728.834	6657.38
729.024	6562.25
729.215	6539.78
729.405	6567.29
729.596	6657.19
729.786	6646.72
729.976	6718.6
730.167	6685.86
730.357	6630.84
730.547	6653.51
730.737	6709.5
730.928	6720.74
731.118	6749.99
731.308	6670.17
731.498	6677.92
731.688	6779.05
731.879	6931.15
732.069	6932.5
732.259	7026.66
732.449	7103.97
732.639	7242.11
732.829	7222.35
733.019	7288.61
733.209	7362.43
733.399	7436.24
733.589	7509.29
733.779	7627.28
733.969	7636.97
734.159	7792.16
734.349	7781.89
734.539	7893.49
734.729	7796.61
734.919	7868.69
735.109	7950.06
735.299	7807.85
735.488	7822
735.678	7751.08
735.868	7805.14
736.058	7748.37
736.248	7759.42
736.437	7677.65
736.627	7655.18
736.817	7784.99
737.007	7645.88
737.196	7713.5
737.386	7764.65
737.576	7754.38
737.765	7822.38
737.955	7656.54
738.144	7925.26
738.334	7877.21
738.524	7707.88
738.713	7774.14
738.903	7766.97
739.092	7752.05
739.282	7730.35
739.471	7746.24
739.661	7749.53
739.85	7840.98
740.04	7822.19
740.229	7869.46
740.419	7889.03
740.608	7813.28
740.797	7781.31
740.987	7860.16
741.176	7772.59
741.365	7754.18
741.555	7667.39
741.744	7863.65
741.933	7754.38
742.123	7814.05
742.312	7836.91
742.501	7864.62
742.69	7873.92
742.88	7740.04
743.069	7894.84
743.258	7869.46
743.447	7879.54
743.636	7795.65
743.825	7811.53
744.014	7824.71
744.204	7904.73
744.393	7749.15
744.582	7976.02
744.771	7921.78
744.96	7856.48
745.149	7910.73
745.338	7808.63
745.527	7896.59
745.716	7809.21
745.905	7757.48
746.094	7908.41
746.283	7946.38
746.471	7768.71
746.66	7932.82
746.849	7814.63
747.038	7867.91
747.227	7757.48
747.416	7841.76
747.604	7731.52
747.793	7768.71
747.982	7764.26
748.171	7844.86
748.359	7692.18
748.548	7745.47
748.737	7737.91
748.926	7731.52
749.114	7555.98
749.303	7674.75
749.491	7637.74
749.68	7489.91
749.869	7618.37
750.057	7505.22
750.246	7560.44
750.434	7574.97
750.623	7450.97
750.811	7449.03
751	7604.8
751.188	7495.53
751.377	7431.4
751.565	7444.38
751.754	7394.4
751.942	7374.25
752.131	7410.67
752.319	7389.16
752.507	7375.6
752.696	7376.38
752.884	7335.5
753.072	7327.16
753.261	7362.62
753.449	7317.67
753.637	7225.84
753.825	7362.81
754.014	7287.64
754.202	7326.97
754.39	7329.68
754.578	7311.47
754.766	7214.6
754.955	7196.97
755.143	7272.72
755.331	7215.37
755.519	7240.75
755.707	7159.19
755.895	7160.35
756.083	7176.82
756.271	7087.89
756.459	7081.49
756.647	7107.84
756.835	7078.78
757.023	7074.91
757.211	7072.77
757.399	6990.04
757.587	7000.7
757.775	6856.75
757.963	6944.32
758.151	6966.8
758.339	6883.68
758.526	6836.98
758.714	6813.73
758.902	6589.96
759.09	6437.48
759.278	6047.08
759.465	5534.03
759.653	4896.99
759.841	4371.16
760.028	3802.71
760.216	3318.34
760.404	2990.13
760.591	2486.2
760.779	2084.17
760.967	1841.41
761.154	1565.7
761.342	1596.9
761.529	1574.62
761.717	1655.02
761.905	1674.4
762.092	1790.84
762.28	1718.18
762.467	1684.47
762.655	1596.7
762.842	1612.98
763.029	1652.89
763.217	1650.18
763.404	1653.86
763.592	1708.3
763.779	1650.37
763.966	1740.46
764.154	1833.46
764.341	1897.01
764.528	1916.39
764.716	2060.34
764.903	2165.55
765.09	2298.26
765.277	2381.57
765.465	2640.03
765.652	2823.32
765.839	2956.61
766.026	3225.34
766.213	3378.79
766.4	3512.48
766.588	3852.7
766.775	3932.13
766.962	4139.64
767.149	4305.87
767.336	4580.8
767.523	4617.03
767.71	4831.51
767.897	5030.1
768.084	5097.52
768.271	5272.86
768.458	5321.11
768.645	5473.59
768.832	5493.54
769.019	5596.03
769.206	5628
769.392	5756.07
769.579	5836.47
769.766	5773.12
769.953	5811.48
770.14	5903.51
770.327	5912.04
770.513	6000.77
770.7	6004.45
770.887	5936.64
771.073	6032.55
771.26	6015.11
771.447	5976.55
771.634	5937.8
771.82	6068.97
772.007	5998.06
772.193	6071.1
772.38	6073.04
772.567	6011.82
772.753	5972.1
772.94	6060.45
773.126	6051.92
773.313	6120.89
773.499	6020.92
773.686	6096.87
773.872	5975.97
774.059	6055.99
774.245	5939.35
774.432	5973.26
774.618	5914.36
774.804	5925.99
774.991	5896.92
775.177	5911.07
775.363	5868.64
775.55	5943.62
775.736	5843.45
775.922	5953.69
776.109	5900.02
776.295	5896.34
776.481	5934.51
776.667	5868.25
776.853	5847.32
777.04	5825.24
777.226	5840.74
777.412	5898.28
777.598	5794.04
777.784	5799.86
777.97	5747.93
778.156	5778.74
778.342	5741.15
778.528	5691.36
778.715	5725.65
778.901	5670.63
779.087	5690.97
779.272	5660.55
779.458	5654.55
779.644	5665.2
779.83	5664.43
780.016	5782.22
780.202	5667.14
780.388	5661.71
780.574	5543.53
780.76	5562.32
780.946	5604.75
781.131	5637.5
781.317	5575.11
781.503	5545.08
781.689	5518.73
781.874	5696.59
782.06	5481.72
782.246	5612.5
782.432	5478.82
782.617	5536.36
782.803	5554.57
782.989	5434.84
783.174	5398.8
783.36	5394.54
783.545	5377.68
783.731	5364.51
783.916	5279.45
784.102	5366.06
784.288	5326.34
784.473	5345.32
784.659	5338.35
784.844	5326.14
785.029	5299.99
785.215	5307.16
785.4	5232.18
785.586	5335.25
785.771	5221.91
785.956	5323.82
786.142	5183.16
786.327	5229.85
786.512	5185.68
786.698	5172.5
786.883	5078.53
787.068	5155.26
787.254	5111.28
787.439	5085.7
787.624	5041.34
787.809	5101.78
787.994	4983.79
788.18	5136.85
788.365	4980.5
788.55	4954.73
788.735	5001.04
788.92	5002.59
789.105	4943.88
789.29	4991.35
789.475	4825.11
789.66	4876.46
789.845	4833.06
790.03	4842.94
790.215	4887.89
790.4	4858.83
790.585	4826.66
790.77	4874.33
790.955	4791.4
791.14	4788.69
791.325	4919.47
791.51	4676.32
791.695	4778.42
791.879	4786.75
792.064	4751.3
792.249	4842.16
792.434	4742
792.618	4757.5
792.803	4807.68
792.988	4771.06
793.173	4809.42
793.357	4765.25
793.542	4735.02
793.727	4757.88
793.911	4830.54
794.096	4774.55
794.281	4813.88
794.465	4931.29
794.65	4783.07
794.834	4908.62
795.019	4881.49
795.203	4894.67
795.388	4942.14
795.572	4926.83
795.757	4866.19
795.941	4849.53
796.126	4840.61
796.31	4788.3
796.494	4798.76
796.679	4748.97
796.863	4736.18
797.048	4861.34
797.232	4795.86
797.416	4874.33
797.601	4836.16
797.785	4915.98
797.969	4954.54
798.153	4845.46
798.338	4922.37
798.522	4932.64
798.706	4985.34
798.89	4940.59
799.074	5042.11
799.258	5022.93
799.443	4949.5
799.627	4915.98
799.811	4966.94
799.995	4904.36
800.179	4883.24
800.363	4851.27
800.547	4923.34
800.731	4926.25
800.915	4822.4
801.099	4835.58
801.283	4776.87
801.467	4866.58
801.651	4795.47
801.835	4893.51
802.019	4846.62
802.202	4864.44
802.386	4777.45
802.57	4748
802.754	4772.22
802.938	4722.62
803.121	4780.55
803.305	4862.51
803.489	4848.56
803.673	4804.58
803.856	4841
804.04	4782.1
804.224	4841
804.407	4816.98
804.591	4787.72
804.775	4787.72
804.958	4815.43
805.142	4921.21
805.326	4841.78
805.509	4852.04
805.693	4872
805.876	4894.67
806.06	4882.46
806.243	4917.92
806.427	4908.42
806.61	4940.59
806.794	4836.16
806.977	4922.76
807.16	4878.01
807.344	4874.13
807.527	4860.57
807.71	4875.29
807.894	4870.84
808.077	4858.83
808.26	4765.63
808.444	4751.68
808.627	4866.58
808.81	4733.28
808.993	4692.78
809.177	4664.3
809.36	4691.43
809.543	4725.53
809.726	4573.44
809.909	4532.17
810.092	4549.22
810.276	4526.74
810.459	4510.08
810.642	4535.85
810.825	4387.05
811.008	4482.76
811.191	4329.12
811.374	4359.93
811.557	4366.32
811.74	4360.31
811.923	4268.28
812.106	4204.73
812.289	4178.58
812.472	4213.65
812.654	4176.64
812.837	4121.81
813.02	4054.58
813.203	3997.62
813.386	3815.5
813.569	3776.55
813.751	3717.65
813.934	3743.81
814.117	3690.34
814.3	3582.42
814.482	3535.73
814.665	3395.65
814.848	3362.71
815.03	3289.09
815.213	3275.52
815.396	3249.37
815.578	3222.05
815.761	3177.87
815.943	3227.86
816.126	3087.01
816.309	3043.61
816.491	2928.52
816.674	2841.14
816.856	2911.67
817.039	2933.75
817.221	3050.19
817.403	2958.16
817.586	3012.8
817.768	2980.64
817.951	2872.72
818.133	2845.4
818.315	2872.33
818.498	2993.23
818.68	3008.93
818.862	3043.22
819.045	3039.54
819.227	2990.52
819.409	2967.46
819.591	3026.17
819.774	2964.95
819.956	2969.01
820.138	3079.06
820.32	3089.14
820.502	3194.54
820.684	3327.45
820.866	3294.9
821.048	3392.55
821.231	3413.47
821.413	3415.99
821.595	3395.45
821.777	3403.4
821.959	3403.78
822.141	3465.98
822.323	3275.14
822.505	3148.23
822.686	3018.81
822.868	2868.46
823.05	2728.38
823.232	2660.96
823.414	2564.47
823.596	2646.62
823.778	2612.71
823.96	2689.05
824.141	2726.06
824.323	2795.03
824.505	2933.56
824.687	2990.91
824.868	3084.29
825.05	3219.92
825.232	3254.02
825.413	3342.17
825.595	3280.17
825.777	3251.3
825.958	3247.62
826.14	3282.69
826.321	3317.95
826.503	3302.26
826.685	3319.12
826.866	3346.05
827.048	3369.68
827.229	3201.12
827.411	3146.49
827.592	3110.26
827.773	3086.04
827.955	2986.84
828.136	3039.35
828.318	2972.11
828.499	3015.71
828.68	2939.95
828.862	2967.46
829.043	2966.88
829.224	2909.92
829.406	2918.25
829.587	2938.02
829.768	2947.51
829.949	2960.3
830.131	2967.08
830.312	3036.25
830.493	2983.93
830.674	2979.67
830.855	2960.88
831.036	2975.02
831.218	3020.16
831.399	3063.76
831.58	2996.14
831.761	2982
831.942	3009.9
832.123	3015.32
832.304	2921.93
832.485	2920.97
832.666	2991.49
832.847	2990.13
833.028	2927.36
833.209	2944.99
833.389	2956.03
833.57	2865.55
833.751	2883.96
833.932	2943.83
834.113	2964.17
834.294	2899.07
834.475	2988.2
834.655	3037.21
834.836	3024.81
835.017	2976.96
835.198	3010.86
835.378	3035.66
835.559	3094.95
835.74	3025.98
835.92	3019.97
836.101	3004.28
836.281	3083.91
836.462	3042.25
836.643	3089.14
836.823	3122.66
837.004	3133.7
837.184	3161.41
837.365	3114.52
837.545	3063.56
837.726	3041.86
837.906	3156.95
838.087	3105.8
838.267	3092.04
838.448	3067.83
838.628	3072.86
838.808	3074.8
838.989	3087.01
839.169	3055.23
839.349	3149.78
839.53	3131.37
839.71	3130.79
839.89	3073.25
840.07	3109.48
840.251	3088.36
840.431	3174.39
840.611	3120.33
840.791	3063.76
840.971	3107.54
841.151	3097.66
841.332	3007.96
841.512	3070.73
841.692	3032.18
841.872	3032.95
842.052	3052.52
842.232	3088.36
842.412	3027.72
842.592	2992.85
842.772	3077.9
842.952	3033.73
843.132	2983.74
843.312	2986.06
843.492	2967.08
843.672	3021.13
843.851	2958.94
844.031	2957.39
844.211	2998.85
844.391	2962.62
844.571	2999.82
844.751	3023.65
844.93	2978.31
845.11	2970.56
845.29	2999.43
845.47	3025.4
845.649	3005.25
845.829	3017.84
846.009	2945.18
846.188	3008.73
846.368	2950.8
846.547	2983.16
846.727	2982
846.907	2916.7
847.086	2957.39
847.266	3026.56
847.445	2944.41
847.625	2903.92
847.804	2928.52
847.984	2906.05
848.163	2871.37
848.343	2896.17
848.522	2886.87
848.701	2885.51
848.881	2860.9
849.06	2910.12
849.239	2844.63
849.419	2874.47
849.598	2733.03
849.777	2743.11
849.957	2733.22
850.136	2687.5
850.315	2632.48
850.494	2669.68
850.674	2671.61
850.853	2746.4
851.032	2679.56
851.211	2739.04
851.39	2676.84
851.569	2646.04
851.748	2618.91
851.927	2690.99
852.107	2655.34
852.286	2646.23
852.465	2669.48
852.644	2730.32
852.823	2735.94
853.002	2697.57
853.181	2670.26
853.359	2700.29
853.538	2591.01
853.717	2625.5
853.896	2513.32
854.075	2412.57
854.254	2372.27
854.433	2238.78
854.611	2294.19
854.79	2240.72
854.969	2304.07
855.148	2332.17
855.327	2321.9
855.505	2419.94
855.684	2380.22
855.863	2447.06
856.041	2405.4
856.22	2500.92
856.399	2440.08
856.577	2582.3
856.756	2583.07
856.934	2664.44
857.113	2633.25
857.291	2564.28
857.47	2484.45
857.648	2579.58
857.827	2556.33
858.005	2633.06
858.184	2547.42
858.362	2681.11
858.541	2536.57
858.719	2546.26
858.898	2512.16
859.076	2536.76
859.254	2581.52
859.433	2504.6
859.611	2499.57
859.789	2476.7
859.967	2540.45
860.146	2573.77
860.324	2470.89
860.502	2452.48
860.68	2427.49
860.859	2444.93
861.037	2459.07
861.215	2457.91
861.393	2467.98
861.571	2431.17
861.749	2435.05
861.927	2450.93
862.105	2431.37
862.283	2436.79
862.461	2401.53
862.639	2377.5
862.817	2403.08
862.995	2432.72
863.173	2386.8
863.351	2423.81
863.529	2433.69
863.707	2449.77
863.885	2486.2
864.063	2323.06
864.241	2358.52
864.418	2424.78
864.596	2388.16
864.774	2320.54
864.952	2312.02
865.129	2326.16
865.307	2303.3
865.485	2250.41
865.663	2263.97
865.84	2165.55
866.018	2188.21
866.196	2033.6
866.373	2051.43
866.551	1990.01
866.728	1929.95
866.906	2020.04
867.084	2064.41
867.261	2065.77
867.439	2101.8
867.616	2170
867.794	2184.14
867.971	2165.35
868.149	2155.66
868.326	2186.28
868.503	2198.09
868.681	2192.67
868.858	2158.57
869.035	2149.66
869.213	2228.13
869.39	2143.46
869.567	2259.12
869.745	2174.65
869.922	2195.58
870.099	2206.81
870.276	2203.33
870.454	2193.64
870.631	2156.44
870.808	2131.06
870.985	2165.16
871.162	2209.14
871.339	2187.63
871.517	2106.45
871.694	2097.54
871.871	2141.13
872.048	2151.6
872.225	2127.38
872.402	2156.83
872.579	2075.45
872.756	2109.94
872.933	2063.25
873.11	2091.73
873.287	2103.93
873.463	2068.87
873.64	2052.4
873.817	2102.96
873.994	2049.3
874.171	2049.68
874.348	2058.98
874.524	1995.05
874.701	2038.25
874.878	1960.37
875.055	2023.72
875.231	1994.66
875.408	2037.87
875.585	1929.17
875.762	2003.18
875.938	1979.35
876.115	1976.45
876.291	1956.49
876.468	1951.84
876.645	1930.72
876.821	1946.42
876.998	1914.84
877.174	1931.69
877.351	1947.97
877.527	1912.7
877.704	1966.18
877.88	1931.3
878.057	1867.17
878.233	1953.39
878.409	1876.86
878.586	1935.95
878.762	1894.11
878.938	1892.36
879.115	1796.84
879.291	1871.82
879.467	1809.05
879.644	1844.7
879.82	1867.95
879.996	1832.3
880.172	1801.11
880.349	1864.85
880.525	1841.6
880.701	1786.19
880.877	1792.58
881.053	1846.83
881.229	1816.41
881.405	1855.36
881.581	1790.84
881.757	1802.46
881.933	1820.87
882.109	1841.99
882.285	1813.12
882.461	1769.72
882.637	1863.69
882.813	1798.98
882.989	1840.05
883.165	1861.56
883.341	1783.09
883.517	1839.47
883.693	1819.51
883.869	1828.04
884.044	1797.62
884.22	1850.51
884.396	1870.66
884.572	1818.54
884.747	1865.43
884.923	1835.59
885.099	1862.91
885.275	1855.16
885.45	1807.69
885.626	1810.21
885.801	1748.6
885.977	1802.08
886.153	1753.83
886.328	1778.05
886.504	1753.64
886.679	1810.41
886.855	1772.43
887.03	1796.46
887.206	1814.48
887.381	1763.52
887.557	1819.71
887.732	1829.2
887.908	1795.49
888.083	1825.32
888.258	1775.73
888.434	1790.06
888.609	1765.07
888.784	1810.02
888.96	1808.08
889.135	1797.62
889.31	1792.78
889.485	1812.54
889.661	1766.81
889.836	1808.86
890.011	1803.82
890.186	1763.33
890.361	1776.11
890.537	1814.09
890.712	1801.49
890.887	1813.51
891.062	1807.69
891.237	1840.82
891.412	1735.04
891.587	1791.61
891.762	1816.61
891.937	1840.63
892.112	1720.7
892.287	1724.58
892.462	1738.33
892.637	1676.33
892.812	1655.02
892.987	1651.73
893.161	1629.83
893.336	1654.25
893.511	1670.52
893.686	1634.1
893.861	1650.37
894.035	1642.82
894.21	1653.08
894.385	1574.03
894.56	1590.31
894.734	1511.26
894.909	1508.55
895.084	1468.25
895.258	1422.91
895.433	1449.65
895.608	1423.69
895.782	1365.18
895.957	1366.53
896.131	1368.66
896.306	1296.39
896.48	1294.26
896.655	1295.04
896.829	1219.48
897.004	1210.37
897.178	1219.28
897.353	1192.74
897.527	1232.46
897.701	1202.62
897.876	1186.15
898.05	1275.08
898.224	1255.71
898.399	1263.26
898.573	1184.41
898.747	1064.29
898.921	1039.87
899.096	944.94
899.27	970.51
899.444	1000.74
899.618	1044.91
899.792	1071.45
899.967	1079.01
900.141	1105.94
900.315	995.12
900.489	1043.36
900.663	1040.07
900.837	1021.86
901.011	972.26
901.185	1100.71
901.359	1058.86
901.533	1104.59
901.707	1063.51
901.881	1049.95
902.055	988.72
902.229	1036.77
902.403	1118.54
902.576	1044.14
902.75	1071.45
902.924	1191
903.098	1148.37
903.272	1195.65
903.446	1261.91
903.619	1255.9
903.793	1305.31
903.967	1312.86
904.14	1351.42
904.314	1321.19
904.488	1314.99
904.661	1339.02
904.835	1324.49
905.009	1372.54
905.182	1383.77
905.356	1353.55
905.529	1331.66
905.703	1282.83
905.876	1280.12
906.05	1244.08
906.223	1232.07
906.397	1117.37
906.57	1134.23
906.744	1094.12
906.917	1064.67
907.09	1054.4
907.264	1042.97
907.437	990.86
907.61	960.44
907.784	978.84
907.957	1019.14
908.13	945.71
908.304	985.04
908.477	948.42
908.65	919.17
908.823	907.93
908.996	952.49
909.17	918.98
909.343	912.19
909.516	869.18
909.689	901.34
909.862	882.16
910.035	904.64
910.208	845.74
910.381	873.06
910.554	980.59
910.727	917.81
910.9	891.08
911.073	905.41
911.246	975.36
911.419	965.28
911.592	959.08
911.765	930.6
911.938	895.34
912.11	957.34
912.283	952.11
912.456	946.29
912.629	927.11
912.802	857.17
912.974	801.76
913.147	773.66
913.32	701.98
913.493	758.75
913.665	771.92
913.838	795.56
914.01	772.7
914.183	855.23
914.356	845.35
914.528	832.18
914.701	895.14
914.873	817.84
915.046	794.78
915.218	736.27
915.391	660.71
915.563	670.01
915.736	767.27
915.908	747.51
916.081	815.32
916.253	766.11
916.425	832.18
916.598	820.55
916.77	778.7
916.942	739.57
917.115	662.65
917.287	739.95
917.459	701.4
917.632	675.82
917.804	623.7
917.976	734.53
918.148	730.46
918.32	756.81
918.493	789.55
918.665	834.11
918.837	802.15
919.009	851.16
919.181	876.93
919.353	829.08
919.525	841.48
919.697	827.53
919.869	850.39
920.041	922.08
920.213	964.89
920.385	931.18
920.557	895.14
920.729	883.71
920.901	878.87
921.073	862.4
921.244	828.5
921.416	864.73
921.588	813.58
921.76	825.78
921.932	897.28
922.103	831.98
922.275	880.61
922.447	861.04
922.619	753.9
922.79	830.24
922.962	825.4
923.134	832.76
923.305	781.8
923.477	739.76
923.648	724.84
923.82	764.37
923.991	689.77
924.163	714.57
924.335	730.07
924.506	718.83
924.677	765.53
924.849	694.81
925.02	728.91
925.192	728.91
925.363	748.87
925.535	775.6
925.706	671.75
925.877	773.86
926.049	700.62
926.22	741.31
926.391	730.85
926.562	756.62
926.734	698.88
926.905	729.3
927.076	651.6
927.247	681.44
927.419	632.81
927.59	593.48
927.761	582.24
927.932	577.4
928.103	571.59
928.274	520.24
928.445	514.62
928.616	552.41
928.787	491.18
928.958	515.79
929.129	512.69
929.3	471.61
929.471	429.38
929.642	387.14
929.813	314.29
929.984	420.08
930.155	325.72
930.326	365.05
930.496	339.86
930.667	273.02
930.838	303.25
931.009	269.92
931.18	290.46
931.35	250.55
931.521	267.21
931.692	214.51
931.863	164.72
932.033	214.12
932.204	220.71
932.374	197.27
932.545	169.95
932.716	202.11
932.886	209.67
933.057	97.29
933.227	125.39
933.398	187.39
933.568	106.4
933.739	72.69
933.909	65.52
934.08	162.2
934.25	74.62
934.421	86.25
934.591	109.69
934.761	91.87
934.932	58.74
935.102	114.54
935.272	100.59
935.443	82.37
935.613	76.37
935.783	135.07
935.953	73.07
936.123	212.19
936.294	77.34
936.464	69.2
936.634	91.29
936.804	42.66
936.974	58.35
937.144	106.21
937.314	77.14
937.484	81.21
937.655	59.32
937.825	112.99
937.995	77.34
938.165	143.02
938.334	96.91
938.504	129.84
938.674	135.07
938.844	151.16
939.014	231.75
939.184	228.46
939.354	248.8
939.524	231.95
939.694	188.16
939.863	189.52
940.033	215.67
940.203	225.75
940.373	188.55
940.542	211.22
940.712	190.1
940.882	201.92
941.051	227.3
941.221	198.62
941.391	231.56
941.56	175.57
941.73	168.4
941.899	289.3
942.069	190.68
942.238	194.94
942.408	149.22
942.577	191.26
942.747	166.07
942.916	114.15
943.086	148.25
943.255	184.87
943.425	169.95
943.594	141.66
943.763	97.1
943.933	106.4
944.102	48.47
944.271	89.93
944.441	159.87
944.61	120.93
944.779	153.87
944.948	221.87
945.117	99.62
945.287	109.69
945.456	74.24
945.625	90.12
945.794	113.37
945.963	113.18
946.132	153.09
946.301	101.56
946.47	143.79
946.639	63.97
946.808	129.26
946.977	146.89
947.146	195.91
947.315	118.8
947.484	153.87
947.653	144.76
947.822	109.69
947.991	104.27
948.16	168.79
948.329	171.5
948.498	121.51
948.666	140.11
948.835	169.56
949.004	97.1
949.173	103.69
949.341	142.63
949.51	122.09
949.679	177.5
949.847	163.55
950.016	176.73
950.185	188.94
950.353	129.26
950.522	134.11
950.69	190.87
950.859	139.92
951.028	194.75
951.196	162.59
951.365	92.84
951.533	113.96
951.701	141.27
951.87	151.74
952.038	78.31
952.207	130.62
952.375	194.36
952.543	99.81
952.712	111.44
952.88	111.05
953.048	175.95
953.217	143.41
953.385	152.71
953.553	187.77
953.721	95.94
953.89	144.57
954.058	83.34
954.226	106.01
954.394	169.95
954.562	67.46
954.73	134.49
954.898	123.45
955.067	178.28
955.235	147.28
955.403	178.47
955.571	204.44
955.739	161.04
955.907	143.02
956.075	98.26
956.243	112.02
956.41	147.67
956.578	85.47
956.746	86.44
956.914	122.48
957.082	129.07
957.25	158.91
957.418	120.54
957.585	164.14
957.753	190.29
957.921	107.95
958.089	144.96
958.256	167.24
958.424	164.72
958.592	139.72
958.759	85.86
958.927	168.01
959.095	124.22
959.262	141.47
959.43	139.14
959.597	96.52
959.765	135.46
959.932	98.46
960.1	166.46
960.267	168.01
960.435	137.01
960.602	161.42
960.77	138.76
960.937	135.85
961.104	160.26
961.272	96.91
961.439	147.86
961.606	148.06
961.774	192.62
961.941	143.79
962.108	144.57
962.275	147.28
962.443	202.11
962.61	172.08
962.777	218.39
962.944	197.65
963.111	183.7
963.278	206.18
963.446	149.22
963.613	162.97
963.78	217.03
963.947	200.56
964.114	187.58
964.281	237.37
964.448	191.07
964.615	154.84
964.782	187.77
964.949	187.77
965.116	188.16
965.282	220.9
965.449	126.16
965.616	155.03
965.783	182.35
965.95	181.96
966.117	148.44
966.283	145.54
966.45	153.48
966.617	186.42
966.784	216.84
966.95	217.8
967.117	209.09
967.284	149.22
967.45	192.42
967.617	253.45
967.784	208.12
967.95	279.42
968.117	201.14
968.283	237.57
968.45	302.86
968.616	233.69
968.783	269.15
968.949	213.54
969.116	261.4
969.282	217.03
969.449	224.78
969.615	232.34
969.781	185.45
969.948	180.8
970.114	197.65
970.28	288.91
970.447	218.39
970.613	265.66
970.779	227.88
970.945	235.63
971.112	237.95
971.278	213.15
971.444	218
971.61	264.3
971.776	211.8
971.942	228.46
972.108	247.64
972.275	218.77
972.441	213.54
972.607	267.4
972.773	192.23
972.939	215.09
973.105	208.7
973.271	150.57
973.437	170.53
973.602	174.4
973.768	204.24
973.934	211.02
974.1	203.27
974.266	134.11
974.432	199.2
974.598	175.95
974.763	214.7
974.929	172.66
975.095	255.39
975.261	176.54
975.426	170.53
975.592	175.76
975.758	260.62
975.923	144.37
976.089	151.54
976.255	209.47
976.42	207.73
976.586	207.15
976.751	188.74
976.917	272.44
977.082	192.81
977.248	125.19
977.413	124.03
977.579	164.72
977.744	188.74
977.91	147.86
978.075	163.17
978.24	227.1
978.406	197.85
978.571	175.95
978.736	152.12
978.902	201.14
979.067	133.72
979.232	120.93
979.397	162.2
979.563	246.87
979.728	132.56
979.893	165.69
980.058	132.17
980.223	181.38
980.388	152.32
980.554	187.77
980.719	143.6
980.884	175.76
981.049	194.75
981.214	166.65
981.379	220.32
981.544	175.18
981.709	175.76
981.874	157.94
982.039	157.16
982.204	196.69
982.368	152.32
982.533	145.73
982.698	205.99
982.863	201.14
983.028	167.43
983.193	200.17
983.357	181.19
983.522	179.25
983.687	180.41
983.852	195.14
984.016	184.48
984.181	182.15
984.346	192.23
984.51	212.38
984.675	172.27
984.839	185.25
985.004	196.69
985.168	211.99
985.333	211.99
985.498	182.35
985.662	219.35
985.827	197.46
985.991	174.4
986.155	151.93
986.32	190.49
986.484	226.14
986.649	200.95
986.813	135.85
986.977	179.05
987.142	199.2
987.306	133.14
987.47	155.61
987.634	185.25
987.799	193.39
987.963	175.18
988.127	190.1
988.291	250.35
988.455	171.89
988.62	162.78
988.784	208.12
988.948	167.62
989.112	141.27
989.276	171.89
989.44	175.57
989.604	152.32
989.768	161.04
989.932	240.86
990.096	125.58
990.26	125.58
990.424	125.77
990.588	138.76
990.752	225.94
990.915	196.69
991.079	134.11
991.243	138.17
991.407	179.44
991.571	127.91
991.734	175.18
991.898	181.19
992.062	249.19
992.226	139.14
992.389	159.87
992.553	95.55
992.717	160.07
992.88	164.72
993.044	162.39
993.207	168.2
993.371	166.85
993.535	162
993.698	163.36
993.862	187.19
994.025	201.34
994.189	166.85
994.352	156.39
994.515	167.62
994.679	199.01
994.842	133.33
995.006	163.17
995.169	116.86
995.332	118.99
995.496	164.72
995.659	95.16
995.822	131.97
995.985	140.89
996.149	168.59
996.312	133.52
996.475	183.7
996.638	134.88
996.801	207.92
996.964	201.14
997.128	138.17
997.291	125.19
997.454	137.98
997.617	93.42
997.78	170.72
997.943	134.11
998.106	167.62
998.269	96.32
998.432	132.17
998.595	82.57
998.758	86.64
998.92	96.32
999.083	73.85
999.246	106.4
999.409	105.04
999.572	63.58
999.735	104.27
999.897	146.7
1000.06	101.56
1000.223	121.51
1000.386	154.06
1000.548	152.51
1000.711	132.56
1000.874	144.57
1001.036	68.04
1001.199	157.74
1001.361	92.26
1001.524	127.71
1001.687	159.29
1001.849	106.79
1002.012	126.55
1002.174	100.78
1002.337	151.35
1002.499	122.09
1002.661	118.22
1002.824	69.59
1002.986	87.61
1003.149	131.01
1003.311	69.39
1003.473	136.43
1003.636	75.01
1003.798	130.62
1003.96	107.95
1004.123	106.21
1004.285	86.83
1004.447	112.02
1004.609	128.1
1004.771	169.17
1004.933	58.74
1005.096	71.14
1005.258	73.07
1005.42	72.88
1005.582	140.89
1005.744	104.07
1005.906	79.27
1006.068	113.18
1006.23	52.93
1006.392	38.98
1006.554	56.8
1006.716	127.71
1006.878	90.71
1007.04	53.31
1007.202	67.07
1007.363	81.21
1007.525	84.89
1007.687	93.03
1007.849	145.15
1008.011	62.03
1008.172	49.24
1008.334	74.04
1008.496	106.59
1008.658	26.58
1008.819	49.83
1008.981	53.12
1009.143	47.89
1009.304	61.84
1009.466	103.88
1009.627	140.69
1009.789	169.17
1009.95	103.3
1010.112	42.27
1010.273	66.49
1010.435	54.67
1010.596	84.7
1010.758	53.51
1010.919	73.27
1011.081	38.78
1011.242	74.24
1011.403	100.59
1011.565	65.71
1011.726	87.41
1011.887	51.18
1012.049	50.99
1012.21	112.41
1012.371	106.59
1012.532	30.45
1012.693	80.44
1012.855	58.74
1013.016	83.54
1013.177	96.91
1013.338	61.06
1013.499	129.46
1013.66	61.45
1013.821	92.84
1013.982	76.76
1014.143	67.07
1014.304	40.33
1014.465	106.79
1014.626	108.14
1014.787	66.29
1014.948	139.92
1015.109	-0.36
1015.27	121.9
1015.431	31.81
1015.592	44.4
1015.752	108.92
1015.913	52.15
1016.074	75.79
1016.235	58.54
1016.395	59.71
1016.556	82.37
1016.717	56.61
1016.877	81.99
1017.038	18.63
1017.199	38.01
1017.359	62.23
1017.52	55.25
1017.681	40.33
1017.841	47.69
1018.002	44.59
1018.162	28.51
1018.323	116.09
1018.483	43.04
1018.644	37.81
1018.804	25.22
1018.964	33.94
1019.125	40.33
1019.285	50.79
1019.446	13.59
1019.606	-5.2
1019.766	-0.55
1019.926	73.66
1020.087	64.94
1020.247	17.28
1020.407	76.76
1020.567	75.59
1020.728	39.36
1020.888	5.26
1021.048	24.44
1021.208	9.53
1021.368	46.92
1021.528	79.86
1021.688	75.98
1021.848	71.72
1022.008	49.83
1022.168	14.95
1022.328	51.57
1022.488	86.83
1022.648	40.72
1022.808	41.3
1022.968	44.59
1023.128	16.31
1023.288	22.51
1023.448	18.83
1023.608	70.36
1023.767	70.75
1023.927	14.18
1024.087	16.69
1024.247	-4.04
1024.406	31.42
1024.566	16.5
1024.726	1.39
1024.885	41.49
1025.045	76.56
1025.205	27.93
1025.364	39.36
1025.524	55.83
1025.683	18.24
1025.843	54.86
1026.003	62.81
1026.162	99.62
1026.321	94.58
1026.481	30.84
1026.64	25.41
1026.8	55.83
1026.959	39.94
1027.119	47.69
1027.278	21.73
1027.437	8.36
1027.597	45.37
1027.756	61.84
1027.915	58.16
1028.074	62.42
1028.234	13.4
1028.393	53.7
1028.552	-1.32
1028.711	-47.63
1028.87	91.09
1029.03	-1.52
1029.189	27.35
1029.348	-37.36
1029.507	28.13
1029.666	37.43
1029.825	-5.39
1029.984	-11.98
1030.143	41.11
1030.302	7.2
1030.461	-23.99
1030.62	31.03
1030.779	32.39
1030.938	7.78
1031.097	-18.37
1031.255	40.33
1031.414	76.76
1031.573	60.29
1031.732	-20.31
1031.891	28.32
1032.049	87.99
1032.208	26.38
1032.367	-0.74
1032.525	6.62
1032.684	9.33
1032.843	31.03
1033.001	-23.99
1033.16	191.65
1033.319	70.17
1033.477	33.74
1033.636	30.64
1033.794	-17.02
1033.953	49.05
1034.111	35.1
1034.27	18.83
1034.428	45.95
1034.587	-10.04
1034.745	41.49
1034.903	8.75
1035.062	44.4
1035.22	15.53
1035.378	40.91
1035.537	-10.43
1035.695	50.41
1035.853	-26.51
1036.011	50.21
1036.17	44.79
1036.328	-49.37
1036.486	25.03
1036.644	39.94
1036.802	-56.35
1036.96	3.33
1037.119	-2.68
1037.277	-9.85
1037.435	-18.57
1037.593	0.81
1037.751	24.06
1037.909	37.81
1038.067	37.81
