Data from calibration3_FLMT105791__2__17-25-30-069.txt Node

Date: Mon Mar 20 17:25:30 GMT 2023
User: antho
Spectrometer: FLMT10579
Trigger mode: 0
Integration Time (sec): 1.000000E-1
Scans to average: 10
Electric dark correction enabled: true
Nonlinearity correction enabled: false
Boxcar width: 0
XAxis mode: Wavelengths
Number of Pixels in Spectrum: 3648
>>>>>Begin Spectral Data<<<<<
345.248	-189.84
345.464	-189.84
345.681	-189.84
345.898	-173.95
346.114	-188.68
346.331	-53.83
346.548	34.91
346.764	-15.66
346.981	0.42
347.197	-6.94
347.414	19.79
347.631	-26.32
347.847	42.08
348.064	-0.55
348.28	42.08
348.497	-24.19
348.713	-11.79
348.93	21.93
349.146	109.31
349.363	95.16
349.579	128.87
349.796	98.84
350.012	120.93
350.229	131.2
350.445	131.2
350.661	119.38
350.878	130.42
351.094	163.36
351.311	143.21
351.527	125.58
351.743	129.65
351.96	182.35
352.176	194.55
352.392	163.36
352.609	173.63
352.825	125.58
353.041	144.57
353.257	132.75
353.474	146.7
353.69	176.54
353.906	183.32
354.122	139.34
354.339	238.15
354.555	178.09
354.771	191.84
354.987	242.41
355.203	233.69
355.42	204.44
355.636	183.12
355.852	159.1
356.068	176.73
356.284	155.42
356.5	255.2
356.716	199.79
356.932	178.47
357.148	200.56
357.364	186.03
357.58	239.31
357.796	229.82
358.012	202.3
358.228	179.44
358.444	97.68
358.66	217.8
358.876	196.69
359.092	159.87
359.308	188.35
359.524	218.97
359.74	205.99
359.956	243.77
360.172	264.3
360.388	286.2
360.604	242.99
360.819	327.47
361.035	242.99
361.251	274.57
361.467	222.07
361.683	301.5
361.898	250.55
362.114	303.83
362.33	258.3
362.546	316.23
362.762	264.11
362.977	294.92
363.193	274.96
363.409	334.63
363.624	263.92
363.84	257.33
364.056	296.66
364.271	317
364.487	350.52
364.703	286.58
364.918	284.65
365.134	315.65
365.35	345.48
365.565	464.06
365.781	348.39
365.996	397.99
366.212	472.97
366.427	432.67
366.643	393.15
366.858	404.38
367.074	417.36
367.289	468.51
367.505	532.84
367.72	391.4
367.936	395.28
368.151	455.14
368.367	409.81
368.582	401.48
368.798	387.33
369.013	450.88
369.228	422.01
369.444	406.32
369.659	490.21
369.874	439.64
370.09	498.93
370.305	398.57
370.52	458.44
370.736	525.09
370.951	459.41
371.166	497.58
371.381	503.39
371.597	492.34
371.812	442.94
372.027	457.66
372.242	458.05
372.458	500.48
372.673	410.97
372.888	436.74
373.103	459.21
373.318	549.31
373.533	464.44
373.749	427.63
373.964	359.43
374.179	432.28
374.394	333.28
374.609	442.55
374.824	409.03
375.039	452.63
375.254	395.28
375.469	461.15
375.684	488.47
375.899	538.46
376.114	509.01
376.329	504.36
376.544	540.39
376.759	543.49
376.974	489.83
377.189	528.19
377.404	539.42
377.619	577.98
377.834	525.47
378.049	586.12
378.264	578.56
378.478	674.66
378.693	657.03
378.908	677.57
379.123	670.01
379.338	644.82
379.553	600.84
379.767	572.17
379.982	550.47
380.197	592.12
380.412	594.45
380.626	641.72
380.841	698.3
381.056	701.2
381.271	779.09
381.485	676.02
381.7	644.44
381.915	647.92
382.129	592.51
382.344	540.59
382.559	526.06
382.773	575.85
382.988	434.03
383.202	499.71
383.417	465.61
383.632	528.19
383.846	450.49
384.061	492.15
384.275	480.72
384.49	580.5
384.704	636.3
384.919	697.13
385.133	699.46
385.348	722.71
385.562	698.88
385.777	759.52
385.991	684.73
386.206	663.04
386.42	661.1
386.634	754.87
386.849	726.58
387.063	765.53
387.277	740.53
387.492	728.72
387.706	720.97
387.92	708.57
388.135	803.7
388.349	794.59
388.563	787.61
388.778	783.16
388.992	814.16
389.206	840.51
389.42	907.74
389.635	854.07
389.849	965.47
390.063	986.79
390.277	1035.42
390.491	1043.36
390.706	1032.51
390.92	1011.78
391.134	1049.56
391.348	1091.41
391.562	1088.31
391.776	1129.58
391.99	1126.28
392.205	1147.4
392.419	1069.71
392.633	1021.08
392.847	1016.04
393.061	824.81
393.275	861.24
393.489	679.12
393.703	559.19
393.917	596.39
394.131	623.9
394.345	749.25
394.559	895.14
394.773	943.39
394.986	1086.37
395.2	1135.97
395.414	1244.86
395.628	1218.9
395.842	1316.16
396.056	1270.05
396.27	1206.69
396.484	1191.19
396.697	1027.47
396.911	909.87
397.125	811.83
397.339	802.53
397.553	801.56
397.766	954.24
397.98	1126.48
398.194	1287.68
398.408	1399.27
398.621	1532.96
398.835	1635.65
399.049	1618.98
399.262	1744.73
399.476	1791.03
399.69	1790.06
399.903	1890.62
400.117	1832.69
400.331	1871.44
400.544	1851.29
400.758	1993.11
400.971	1919.29
401.185	1965.79
401.398	1912.9
401.612	2071.38
401.826	2072.16
402.039	2065.77
402.253	2082.43
402.466	2145.98
402.68	2122.92
402.893	2215.34
403.106	2167.29
403.32	2048.52
403.533	2136.1
403.747	2076.81
403.96	2107.61
404.174	2167.1
404.387	2182.4
404.6	2171.55
404.814	2256.41
405.027	2152.37
405.24	2123.89
405.454	2130.67
405.667	2253.31
405.88	2162.64
406.094	2228.71
406.307	2253.7
406.52	2137.06
406.733	2115.36
406.947	2126.6
407.16	2195.96
407.373	2277.34
407.586	2264.74
407.799	2237.23
408.012	2282.57
408.226	2333.14
408.439	2444.73
408.652	2396.69
408.865	2531.34
409.078	2587.33
409.291	2596.83
409.504	2570.67
409.717	2584.62
409.93	2566.99
410.143	2403.66
410.357	2252.15
410.57	2221.73
410.783	2260.09
410.996	2356.19
411.209	2454.62
411.421	2657.08
411.634	2731.29
411.847	2698.74
412.06	2745.24
412.273	2786.12
412.486	2802.39
412.699	2845.79
412.912	2841.92
413.125	2765.97
413.338	2804.72
413.55	2734.58
413.763	2716.95
413.976	2796.19
414.189	2771.78
414.402	2804.14
414.615	2972.31
414.827	2842.11
415.04	2875.43
415.253	2889
415.466	2928.72
415.678	2949.25
415.891	2914.96
416.104	2863.62
416.316	2889
416.529	3002.92
416.742	3095.73
416.954	3110.84
417.167	3019.39
417.38	2995.36
417.592	2969.98
417.805	2874.27
418.017	2896.75
418.23	3000.21
418.442	2903.14
418.655	2979.28
418.868	2913.02
419.08	2988.2
419.293	3077.9
419.505	3084.49
419.718	3075.38
419.93	3086.23
420.142	3057.36
420.355	3058.14
420.567	3032.37
420.78	3102.89
420.992	3122.08
421.205	3251.3
421.417	3304.39
421.629	3338.68
421.842	3318.53
422.054	3334.62
422.266	3375.5
422.479	3351.86
422.691	3141.84
422.903	3186.59
423.115	3060.08
423.328	3109.09
423.54	3126.92
423.752	3191.82
423.964	3303.04
424.177	3323.18
424.389	3273.39
424.601	3424.32
424.813	3422.58
425.025	3425.1
425.238	3406.69
425.45	3350.7
425.662	3378.79
425.874	3606.64
426.086	3359.8
426.298	3424.51
426.51	3436.72
426.722	3391.19
426.934	3436.14
427.146	3464.43
427.358	3437.5
427.57	3423.55
427.782	3276.88
427.994	3277.46
428.206	3281.14
428.418	3529.91
428.63	3617.29
428.842	3632.79
429.054	3467.72
429.266	3424.9
429.478	3343.72
429.69	3268.55
429.902	3250.34
430.114	3202.67
430.325	3023.65
430.537	2878.15
430.749	2816.73
430.961	2649.14
431.173	2725.28
431.384	2778.95
431.596	2864.97
431.808	3302.26
432.02	3684.33
432.231	3956.74
432.443	4169.28
432.655	4036.76
432.867	3938.53
433.078	3972.04
433.29	4036.76
433.502	4150.87
433.713	4252.4
433.925	4264.41
434.136	4102.24
434.348	3830.61
434.56	3777.33
434.771	4015.44
434.983	3848.82
435.194	4152.42
435.406	4350.24
435.617	4383.76
435.829	4468.62
436.04	4464.36
436.252	4438.98
436.463	4673.41
436.675	4819.69
436.886	4836.35
437.098	4897.19
437.309	4892.92
437.521	4784.23
437.732	4644.35
437.943	4610.64
438.155	4598.24
438.366	4524.81
438.578	4621.68
438.789	4361.28
439	4281.07
439.211	4400.23
439.423	4421.15
439.634	4593.97
439.845	4773.77
440.057	4814.84
440.268	4982.05
440.479	4912.49
440.69	4940.97
440.902	4823.56
441.113	4787.53
441.324	4923.34
441.535	5128.91
441.746	5269.18
441.957	5247.29
442.168	5350.94
442.38	5347.07
442.591	5411.78
442.802	5263.95
443.013	5504
443.224	5574.14
443.435	5427.28
443.646	5444.91
443.857	5385.82
444.068	5426.12
444.279	5379.62
444.49	5717.71
444.701	5514.66
444.912	5822.14
445.123	5766.53
445.334	5557.09
445.545	5635.17
445.756	5503.23
445.967	5466.42
446.178	5331.37
446.388	5343
446.599	5367.02
446.81	5480.95
447.021	5423.21
447.232	5643.89
447.443	5754.71
447.653	5883.94
447.864	5992.05
448.075	6012.01
448.286	6005.81
448.496	5949.43
448.707	5998.64
448.918	5825.24
449.129	5951.56
449.339	5941.1
449.55	6059.09
449.761	5989.73
449.971	6008.13
450.182	6095.32
450.393	6198.78
450.603	6158.29
450.814	6461.7
451.024	6394.85
451.235	6611.08
451.446	6593.83
451.656	6598.09
451.867	6493.66
452.077	6306.89
452.288	6471.38
452.498	6357.65
452.709	6333.82
452.919	6117.79
453.13	6011.04
453.34	5989.15
453.55	5783.97
453.761	6086.02
453.971	6024.02
454.182	6136.01
454.392	6270.86
454.602	6475.65
454.813	6547.53
455.023	6374.7
455.233	6223.19
455.444	6311.93
455.654	6136.59
455.864	6311.93
456.075	6477.97
456.285	6429.73
456.495	6448.52
456.705	6511.49
456.916	6756.19
457.126	6787.58
457.336	6646.72
457.546	6599.06
457.756	6716.47
457.967	6805.6
458.177	6667.65
458.387	6699.81
458.597	6545.78
458.807	6622.31
459.017	6496.57
459.227	6554.5
459.437	6541.13
459.647	6698.84
459.857	6679.27
460.068	6829.82
460.278	6896.27
460.488	6827.49
460.698	6809.08
460.908	6899.37
461.117	6997.02
461.327	7079.94
461.537	7150.08
461.747	7156.09
461.957	7126.25
462.167	7334.14
462.377	7214.79
462.587	7179.34
462.797	7335.5
463.007	7320
463.216	7453.49
463.426	7640.07
463.636	7406.99
463.846	7242.3
464.056	7232.23
464.265	7198.32
464.475	7270.4
464.685	7454.46
464.895	7385.68
465.104	7239.59
465.314	7471.31
465.524	7308.76
465.733	7295.39
465.943	7569.16
466.153	7677.65
466.362	7742.95
466.572	7698.77
466.782	7569.93
466.991	7666.22
467.201	7493.59
467.41	7403.89
467.62	7689.47
467.829	7714.66
468.039	7842.34
468.249	7788.28
468.458	7906.66
468.668	7907.24
468.877	8053.33
469.086	8152.92
469.296	8345.11
469.505	8415.64
469.715	8309.46
469.924	8231.19
470.134	8322.64
470.343	8146.91
470.552	8119.98
470.762	8116.3
470.971	8232.16
471.18	8316.83
471.39	8417.77
471.599	8319.73
471.808	8506.31
472.018	8741.13
472.227	8846.72
472.436	9233.25
472.645	9198.38
472.855	9096.27
473.064	9389.8
473.273	9422.73
473.482	9090.85
473.691	9299.9
473.901	9214.07
474.11	9036.6
474.319	9445.4
474.528	9388.05
474.737	9890.25
474.946	9776.9
475.155	9842.59
475.364	9965.23
475.573	9858.86
475.783	10102.98
475.992	10005.33
476.201	10005.33
476.41	10086.32
476.619	9915.24
476.828	9876.3
477.037	9888.31
477.245	9976.66
477.454	10156.46
477.663	10349.82
477.872	10739.25
478.081	10842.71
478.29	10705.15
478.499	10949.85
478.708	11149.6
478.917	11110.66
479.125	10767.53
479.334	10905.87
479.543	11224.58
479.752	11360.4
479.961	11302.08
480.169	11607.04
480.378	11673.88
480.587	12004.22
480.796	11761.07
481.004	11846.71
481.213	11974
481.422	12042.39
481.63	12276.44
481.839	12318.48
482.048	12568.22
482.256	12472.51
482.465	12870.47
482.674	12675.17
482.882	12788.71
483.091	12828.04
483.299	12581.4
483.508	12988.07
483.716	13139.19
483.925	13167.29
484.134	12755.77
484.342	13005.31
484.551	13086.11
484.759	12978.19
484.967	13475.73
485.176	13317.25
485.384	13343.79
485.593	13143.26
485.801	13039.41
486.01	12483.75
486.218	11976.9
486.426	11467.74
486.635	11196.88
486.843	11367.76
487.051	11696.16
487.26	12019.14
487.468	12257.06
487.676	12642.81
487.885	13042.9
488.093	13332.55
488.301	13810.92
488.509	13791.54
488.717	14006.02
488.926	14015.71
489.134	13852.18
489.342	13796.19
489.55	13743.88
489.758	14083.91
489.967	14579.12
490.175	14548.32
490.383	14988.9
490.591	15266.93
490.799	15153.97
491.007	15044.7
491.215	15086.94
491.423	14945.11
491.631	15008.86
491.839	14874.2
492.047	14796.31
492.255	14492.91
492.463	14452.22
492.671	14246.65
492.879	14811.23
493.087	14858.7
493.295	15055.55
493.503	15190.59
493.711	15638.53
493.919	15533.52
494.127	15527.32
494.334	15464.35
494.542	15503.3
494.75	15954.54
494.958	15776.09
495.166	16144.8
495.374	16240.51
495.581	16293.21
495.789	16236.83
495.997	16364.12
496.205	15827.63
496.412	15968.87
496.62	16406.35
496.828	16154.29
497.035	16458.28
497.243	16491.8
497.451	16495.67
497.658	16589.25
497.866	16461.57
498.074	16567.55
498.281	16341.84
498.489	16369.74
498.696	16064.97
498.904	15896.6
499.112	15942.91
499.319	16332.92
499.527	16494.51
499.734	16529.77
499.942	16479.59
500.149	16478.62
500.357	16558.06
500.564	16172.69
500.771	16131.81
500.979	15932.25
501.186	15830.92
501.394	16178.89
501.601	15663.53
501.808	15759.04
502.016	15818.91
502.223	15752.65
502.43	15935.94
502.638	15838.09
502.845	16217.06
503.052	16497.03
503.26	16408.29
503.467	16536.55
503.674	16549.53
503.881	16522.8
504.089	16377.29
504.296	16249.61
504.503	16113.21
504.71	16002.58
504.917	16283.52
505.125	16395.12
505.332	16690.77
505.539	16668.3
505.746	17068.97
505.953	17174.17
506.16	17349.32
506.367	17387.3
506.574	17582.01
506.781	17563.02
506.988	17412.87
507.195	17335.37
507.402	17322.97
507.609	17246.44
507.816	17059.86
508.023	16935.09
508.23	16838.22
508.437	16653.77
508.644	16785.71
508.851	16870.57
509.058	17286.35
509.265	17325.88
509.472	17542.29
509.679	17712.4
509.885	17683.15
510.092	17587.44
510.299	17624.64
510.506	17198.59
510.713	17309.8
510.92	17300.88
511.126	17513.23
511.333	17544.23
511.54	17733.91
511.746	17828.26
511.953	17894.14
512.16	18105.32
512.367	17965.24
512.573	17722.67
512.78	17743.79
512.987	17611.85
513.193	17390.01
513.4	17173.79
513.606	17382.65
513.813	17449.49
514.02	17248.96
514.226	17181.15
514.433	17251.87
514.639	17100.94
514.846	17162.16
515.052	17125.35
515.259	17288.1
515.465	17352.81
515.672	17388.26
515.878	17475.84
516.085	17750.77
516.291	17588.21
516.497	17528.54
516.704	16943.61
516.91	16515.43
517.117	15767.96
517.323	15460.48
517.529	15295.79
517.736	15319.63
517.942	15472.49
518.148	15960.54
518.354	15957.83
518.561	15955.31
518.767	15878.97
518.973	15983.6
519.179	16361.02
519.386	16566
519.592	16518.92
519.798	16641.56
520.004	17408.03
520.21	17285.77
520.417	17462.86
520.623	17471.96
520.829	17685.47
521.035	17635.49
521.241	17456.46
521.447	17673.27
521.653	17898.4
521.859	17787.19
522.065	17920.1
522.271	17979.58
522.477	17993.92
522.683	18178.95
522.889	17728.48
523.095	17455.3
523.301	17638
523.507	17403.18
523.713	17534.74
523.919	17570.77
524.125	17996.05
524.331	18258.58
524.537	18488.36
524.742	18494.17
524.948	18502.89
525.154	18641.03
525.36	18509.48
525.566	18264.97
525.772	18447.67
525.977	18368.82
526.183	18169.65
526.389	18319.22
526.595	17719.19
526.8	17529.51
527.006	16913.78
527.212	16556.31
527.417	16426.12
527.623	16562.51
527.829	16792.69
528.034	17178.82
528.24	17294.1
528.446	17685.67
528.651	18067.16
528.857	18188.05
529.062	18188.83
529.268	18575.74
529.473	18729.96
529.679	18835.94
529.884	18780.73
530.09	18677.85
530.295	18215.18
530.501	18562.37
530.706	18656.92
530.912	18746.63
531.117	18774.14
531.323	18669.32
531.528	19088.2
531.733	19093.63
531.939	18972.15
532.144	18796.61
532.35	18737.91
532.555	18661.38
532.76	18246.57
532.966	18142.52
533.171	17973.96
533.376	17827.3
533.581	17867.4
533.787	18109.59
533.992	18445.16
534.197	18037.32
534.402	18532.92
534.607	18553.27
534.813	18484.49
535.018	18527.3
535.223	18778.98
535.428	18684.63
535.633	18943.47
535.838	19185.46
536.043	19325.16
536.249	19401.1
536.454	19217.82
536.659	19301.13
536.864	19085.88
537.069	18865.39
537.274	18818.7
537.479	18673.39
537.684	18675.13
537.889	18618.56
538.094	19173.84
538.299	18902.98
538.504	19091.5
538.708	19026.79
538.913	19307.33
539.118	19211.81
539.323	19122.69
539.528	18964.4
539.733	18754.38
539.938	18779.95
540.142	18666.61
540.347	18612.36
540.552	18372.89
540.757	18085.75
540.962	18387.03
541.166	18243.47
541.371	18221.18
541.576	18235.13
541.781	18417.45
541.985	18794.68
542.19	18461.24
542.395	19037.63
542.599	19014.77
542.804	18707.68
543.008	18967.89
543.213	18936.89
543.418	18708.26
543.622	18945.02
543.827	18620.69
544.031	18962.65
544.236	19007.02
544.44	19287.18
544.645	19245.33
544.849	19068.63
545.054	19349.57
545.258	19307.52
545.463	19395.68
545.667	18982.03
545.872	19386.38
546.076	19289.7
546.281	19246.3
546.485	19175
546.689	19218.59
546.894	19173.65
547.098	19347.82
547.302	19237
547.507	19188.95
547.711	19277.69
547.915	19123.66
548.119	18918.48
548.324	18835.17
548.528	19014.77
548.732	19026.2
548.936	19201.35
549.141	19204.65
549.345	19162.6
549.549	19348.99
549.753	19451.09
549.957	19326.51
550.161	19436.75
550.366	19512.32
550.57	19377.86
550.774	19330
550.978	19348.41
551.182	19294.54
551.386	19196.12
551.59	19216.85
551.794	19244.94
551.998	19351.89
552.202	19336.2
552.406	19292.99
552.61	19596.6
552.814	19438.89
553.018	19320.31
553.222	19100.22
553.426	19172.68
553.63	19409.05
553.833	19233.9
554.037	19063.79
554.241	19154.46
554.445	19348.6
554.649	19363.13
554.853	19234.29
555.056	19441.02
555.26	19532.85
555.464	19334.65
555.668	19399.36
555.871	19445.67
556.075	19444.89
556.279	19293.19
556.483	19130.44
556.686	19074.25
556.89	19053.72
557.094	18984.94
557.297	18666.22
557.501	18838.46
557.704	18532.15
557.908	18878.96
558.112	18754.57
558.315	18940.96
558.519	18742.56
558.722	18492.62
558.926	18620.5
559.129	18126.25
559.333	18404.66
559.536	18273.5
559.74	18138.84
559.943	17973.38
560.147	18153.37
560.35	18091.95
560.553	18432.76
560.757	18397.69
560.96	18468.41
561.164	18541.64
561.367	18824.32
561.57	18741.98
561.774	18507.74
561.977	18395.94
562.18	18377.73
562.384	18462.4
562.587	18359.52
562.79	18509.29
562.993	18326.39
563.197	18355.06
563.4	18551.52
563.603	18564.89
563.806	18629.8
564.009	18540.09
564.212	18517.62
564.416	18323.29
564.619	18309.73
564.822	18176.82
565.025	18434.31
565.228	18299.46
565.431	18409.51
565.634	18140.39
565.837	18128.38
566.04	17928.04
566.243	17806.57
566.446	17703.49
566.649	17921.46
566.852	17782.73
567.055	17901.69
567.258	17915.84
567.461	18058.24
567.664	18166.93
567.867	18177.2
568.07	17970.48
568.273	18141.55
568.475	18273.88
568.678	17699.42
568.881	17706.01
569.084	17538.03
569.287	17358.23
569.489	17486.11
569.692	17586.86
569.895	17636.45
570.098	17482.62
570.3	17466.34
570.503	17369.08
570.706	17317.16
570.909	17269.11
571.111	16906.22
571.314	16851
571.516	16969.58
571.719	17090.86
571.922	16971.32
572.124	17093.58
572.327	17300.88
572.529	17298.56
572.732	17254.39
572.935	17429.92
573.137	17761.62
573.34	17520.4
573.542	17651.37
573.745	17542.68
573.947	17677.92
574.15	17394.85
574.352	17525.05
574.554	17590.54
574.757	17342.54
574.959	17066.64
575.162	17344.09
575.364	17077.88
575.566	17272.21
575.769	17012.4
575.971	17095.71
576.173	16684.77
576.376	16906.8
576.578	17106.94
576.78	17030.22
576.982	16948.26
577.185	17133.29
577.387	17003.1
577.589	17276.67
577.791	17071.49
577.993	17124.57
578.196	17117.41
578.398	16811.87
578.6	16775.25
578.802	16766.92
579.004	16800.63
579.206	16828.72
579.408	17019.76
579.61	16868.63
579.812	17186.38
580.014	16946.71
580.216	17000.38
580.418	17192.19
580.62	17279.38
580.822	17262.91
581.024	17319.68
581.226	17392.33
581.428	17437.86
581.63	17725.77
581.832	17495.99
582.034	17665.52
582.236	17522.53
582.438	17700.39
582.64	17775.37
582.841	17811.02
583.043	18054.95
583.245	17738.75
583.447	17915.64
583.649	17899.37
583.85	17935.6
584.052	17859.26
584.254	17819.93
584.456	17906.54
584.657	17793.2
584.859	18069.09
585.061	17820.9
585.262	17811.21
585.464	17652.15
585.666	17693.03
585.867	17459.76
586.069	17434.38
586.27	17406.28
586.472	17371.8
586.674	17355.13
586.875	17440.38
587.077	17511.29
587.278	17500.06
587.48	17450.26
587.681	17677.92
587.883	17578.52
588.084	17360.56
588.285	17340.6
588.487	16947.88
588.688	17001.55
588.89	16358.3
589.091	16040.75
589.292	15664.3
589.494	15295.41
589.695	15037.14
589.896	14862.96
590.098	14959.84
590.299	15153.58
590.5	15312.84
590.702	15643.38
590.903	15824.34
591.104	16070.2
591.305	16288.17
591.507	16267.63
591.708	16328.47
591.909	16343.39
592.11	16266.47
592.311	16403.45
592.512	16098.88
592.714	16168.24
592.915	16409.65
593.116	16310.45
593.317	16541.2
593.518	16542.36
593.719	16613.28
593.92	16541.59
594.121	16617.54
594.322	16481.14
594.523	16407.13
594.724	16274.8
594.925	16246.71
595.126	16138.6
595.327	16106.43
595.528	16206.21
595.729	16261.04
595.929	16249.42
596.13	16428.63
596.331	16639.82
596.532	16483.85
596.733	16667.33
596.934	16719.06
597.135	16725.46
597.335	16631.1
597.536	16598.16
597.737	16558.83
597.938	16449.56
598.138	16572.01
598.339	16601.26
598.54	16623.74
598.74	16421.85
598.941	16504.39
599.142	16658.42
599.342	16604.36
599.543	16571.04
599.744	16563.87
599.944	16665.78
600.145	16736.5
600.345	16686.51
600.546	16622.19
600.746	16662.29
600.947	16862.82
601.147	16447.04
601.348	16838.99
601.548	16491.8
601.749	16568.91
601.949	16343.19
602.15	16543.53
602.35	16308.12
602.551	16294.17
602.751	16408.1
602.951	16534.81
603.152	16443.75
603.352	16581.11
603.552	16625.09
603.753	16808.96
603.953	16958.53
604.153	16789.97
604.354	16879.68
604.554	16738.05
604.754	16833.18
604.954	16905.64
605.155	17043.98
605.355	16826.4
605.555	16820.2
605.755	16899.63
605.955	16690.19
606.155	16709.96
606.356	16789.78
606.556	16792.88
606.756	16776.41
606.956	16651.44
607.156	16824.27
607.356	16710.54
607.556	16777.96
607.756	16699.88
607.956	16721.39
608.156	16676.24
608.356	16514.46
608.556	16649.89
608.756	16536.36
608.956	16555.54
609.156	16474.75
609.356	16509.81
609.556	16374.77
609.755	16487.53
609.955	16394.15
610.155	16303.47
610.355	16431.35
610.555	16205.05
610.755	16098.1
610.954	16182.38
611.154	16423.6
611.354	16336.99
611.554	16188.97
611.753	16395.5
611.953	16245.35
612.153	16333.5
612.352	16303.67
612.552	16108.18
612.752	16119.8
612.951	16359.66
613.151	16035.13
613.351	16184.32
613.55	16133.95
613.75	16114.76
613.949	15863.67
614.149	15870.84
614.348	15893.89
614.548	15873.16
614.747	15829.76
614.947	16024.67
615.146	15857.66
615.346	16133.36
615.545	16103.33
615.745	15931.48
615.944	15841.77
616.144	15786.94
616.343	15652.48
616.542	15716.23
616.742	15370.19
616.941	15568.98
617.14	15320.79
617.34	15547.86
617.539	15531.59
617.738	15532.36
617.938	15750.52
618.137	15666.05
618.336	15760.21
618.535	15912.69
618.734	15915.79
618.934	15810.97
619.133	15866.19
619.332	15955.89
619.531	15660.04
619.73	15940
619.929	15857.27
620.128	15901.25
620.328	15955.12
620.527	15911.33
620.726	15985.92
620.925	15966.55
621.124	16081.44
621.323	15886.92
621.522	15645.12
621.721	15891.95
621.92	15708.67
622.119	15730.95
622.318	15620.9
622.517	15600.37
622.715	15530.23
622.914	15413.01
623.113	15593.58
623.312	15263.25
623.511	15566.27
623.71	15285.91
623.909	15207.64
624.107	15423.47
624.306	15262.28
624.505	15201.44
624.704	15136.15
624.902	14951.12
625.101	15142.15
625.3	14900.36
625.499	15021.45
625.697	14987.54
625.896	14866.26
626.095	14805.61
626.293	14756.79
626.492	14936.01
626.69	14800.77
626.889	15098.37
627.088	14945.5
627.286	14990.64
627.485	14667.47
627.683	14654.1
627.882	14446.6
628.08	14151.91
628.279	14004.86
628.477	14075.77
628.676	13926
628.874	14081
629.073	14036.63
629.271	14131.37
629.469	14179.81
629.668	14109.48
629.866	13941.31
630.065	14050.39
630.263	14129.05
630.461	14003.89
630.66	14151.72
630.858	14159.27
631.056	14283.47
631.254	14369.49
631.453	14178.45
631.651	14198.41
631.849	14222.82
632.047	14129.05
632.245	14083.32
632.444	14146.68
632.642	14378.79
632.84	14549.09
633.038	14334.81
633.236	14284.24
633.434	14450.28
633.632	14542.12
633.83	14324.73
634.028	14527.78
634.227	14462.88
634.425	14749.82
634.623	14396.61
634.821	14639.96
635.019	14660.5
635.216	14747.1
635.414	14753.11
635.612	14543.67
635.81	14601.6
636.008	14723.66
636.206	14691.11
636.404	14552
636.602	14585.9
636.8	14423.35
636.997	14660.5
637.195	14652.94
637.393	14621.75
637.591	14771.51
637.789	14822.28
637.986	14832.74
638.184	14781.78
638.382	14905.59
638.58	14796.12
638.777	14975.34
638.975	14817.05
639.173	14871.49
639.37	14767.83
639.568	14744.58
639.765	14740.13
639.963	14714.36
640.161	14539.6
640.358	14732.77
640.556	14390.03
640.753	14617.29
640.951	14468.69
641.148	14476.63
641.346	14566.92
641.543	14475.08
641.741	14510.34
641.938	14441.56
642.136	14457.64
642.333	14332.29
642.531	14517.9
642.728	14530.88
642.925	14663.99
643.123	14584.94
643.32	14592.3
643.517	14379.56
643.715	14392.35
643.912	14579.7
644.109	14411.92
644.306	14499.49
644.504	14328.22
644.701	14483.99
644.898	14464.62
645.095	14309.82
645.293	14388.09
645.49	14287.34
645.687	14362.32
645.884	14366
646.081	14094.56
646.278	14104.06
646.475	13967.46
646.672	14024.62
646.87	13901.2
647.067	13829.52
647.264	13820.22
647.461	13674.52
647.658	13477.48
647.855	13686.92
648.052	13469.15
648.249	13344.95
648.446	13425.94
648.642	13590.63
648.839	13354.83
649.036	13365.68
649.233	13415.28
649.43	13311.63
649.627	13133.77
649.824	13184.53
650.021	13063.63
650.217	13387.77
650.414	13437.95
650.611	13511.58
650.808	13667.35
651.004	13605.74
651.201	13587.53
651.398	13753.18
651.595	13516.23
651.791	13413.73
651.988	13506.54
652.185	13237.81
652.381	13627.63
652.578	13352.9
652.775	13536.38
652.971	13658.44
653.168	13501.89
653.364	13766.94
653.561	13471.28
653.757	13633.64
653.954	13835.13
654.15	13503.44
654.347	13642.36
654.543	13654.17
654.74	13343.99
654.936	13333.52
655.133	13319.77
655.329	13311.82
655.525	13059.95
655.722	13027.21
655.918	12680.59
656.115	12218.12
656.311	11989.5
656.507	11570.62
656.704	11399.15
656.9	11518.69
657.096	11767.46
657.292	11827.14
657.489	12070.87
657.685	12293.88
657.881	12363.62
658.077	12518.62
658.273	12676.72
658.47	12950.29
658.666	12946.22
658.862	13180.07
659.058	13135.32
659.254	13176.98
659.45	13394.75
659.646	13219.6
659.842	13319.57
660.038	13449.77
660.234	13259.12
660.43	13298.84
660.626	13512.93
660.822	13406.18
661.018	13551.49
661.214	13442.8
661.41	13330.04
661.606	13489.1
661.802	13669.09
661.998	13523.2
662.194	13502.28
662.39	13594.89
662.586	13573.38
662.781	13554.01
662.977	13685.56
663.173	13483.1
663.369	13484.06
663.564	13554.59
663.76	13564.47
663.956	13504.21
664.152	13374.98
664.347	13265.32
664.543	13490.07
664.739	13348.05
664.934	13267.26
665.13	13392.62
665.326	13412.96
665.521	13459.46
665.717	13303.88
665.912	13426.52
666.108	13140.94
666.304	13406.57
666.499	13295.55
666.695	13050.85
666.89	13368.2
667.086	13282.57
667.281	13228.51
667.477	13381.96
667.672	13275.2
667.867	13161.09
668.063	13255.25
668.258	13028.95
668.454	13192.67
668.649	13196.35
668.844	13318.99
669.04	13216.69
669.235	13185.89
669.43	13285.67
669.626	13099.67
669.821	13204.49
670.016	13109.94
670.211	13228.12
670.407	12999.5
670.602	13194.02
670.797	13037.86
670.992	13218.24
671.187	13013.45
671.382	13147.72
671.578	12841.99
671.773	13012.48
671.968	12768.17
672.163	12944.87
672.358	12883.25
672.553	12805.95
672.748	12856.32
672.943	12951.84
673.138	12870.27
673.333	12989.82
673.528	12707.72
673.723	12917.74
673.918	12738.72
674.113	12799.94
674.308	12955.91
674.503	12771.07
674.698	12897.59
674.892	12668.58
675.087	12768.94
675.282	12796.65
675.477	12769.33
675.672	12880.35
675.867	12659.28
676.061	12704.81
676.256	12614.14
676.451	12777.66
676.646	12755.19
676.84	12595.93
677.035	12508.74
677.23	12647.66
677.424	12643.4
677.619	12600.96
677.814	12734.07
678.008	12599.8
678.203	12584.11
678.397	12495.76
678.592	12525.02
678.787	12687.76
678.981	12494.21
679.176	12556.02
679.37	12475.42
679.565	12525.79
679.759	12547.3
679.954	12495.57
680.148	12425.43
680.342	12642.43
680.537	12446.16
680.731	12338.63
680.926	12516.3
681.12	12363.24
681.314	12411.67
681.509	12381.26
681.703	12304.53
681.897	12264.04
682.092	12270.63
682.286	12388.23
682.48	12292.52
682.674	12272.95
682.869	12158.64
683.063	12324.68
683.257	12314.41
683.451	12064.09
683.645	12216.76
683.839	12098
684.034	12052.66
684.228	12008.68
684.422	11892.43
684.616	11962.76
684.81	11977.1
685.004	11828.49
685.198	11887.2
685.392	11830.04
685.586	11936.41
685.78	11741.11
685.974	11835.66
686.168	11738.98
686.362	11633.39
686.556	10995.77
686.75	10537.56
686.944	9937.13
687.138	9206.51
687.331	8719.63
687.525	8359.26
687.719	8199.61
687.913	8254.05
688.107	8399.75
688.301	8410.99
688.494	8581.29
688.688	8501.27
688.882	8433.27
689.076	8429.2
689.269	8499.53
689.463	8625.47
689.657	8588.85
689.85	8653.17
690.044	8818.82
690.238	8905.43
690.431	8995.72
690.625	8999.4
690.818	9289.05
691.012	9259.21
691.205	9471.17
691.399	9505.27
691.593	9491.32
691.786	9609.7
691.98	9797.83
692.173	9872.62
692.366	9900.13
692.56	10009.01
692.753	9902.45
692.947	9854.6
693.14	9848.98
693.333	9893.93
693.527	9889.28
693.72	9900.32
693.914	9790.27
694.107	9656.01
694.3	9698.05
694.493	9531.43
694.687	9803.84
694.88	9668.99
695.073	9805.39
695.266	9809.26
695.46	9831.15
695.653	9799.96
695.846	9804.61
696.039	9927.25
696.232	9823.21
696.425	10101.82
696.618	10112.09
696.812	10305.25
697.005	10328.12
697.198	10534.84
697.391	10373.84
697.584	10543.95
697.777	10504.62
697.97	10373.26
698.163	10439.52
698.356	10378.88
698.549	10499
698.742	10392.05
698.935	10198.11
699.127	10152.97
699.32	10096.78
699.513	10040.59
699.706	9954.76
699.899	10094.46
700.092	9928.22
700.285	9902.65
700.477	9724.79
700.67	9841.04
700.863	9766.64
701.056	9899.55
701.248	9799.57
701.441	9827.09
701.634	9676.74
701.826	9804.61
702.019	9611.25
702.212	9737.77
702.404	9610.67
702.597	9580.83
702.79	9650.97
702.982	9661.82
703.175	9796.28
703.367	9806.16
703.56	9853.44
703.752	9943.14
703.945	9907.88
704.137	9885.6
704.33	9904.97
704.522	9990.41
704.715	9939.85
704.907	9953.41
705.1	10048.34
705.292	9916.21
705.484	9907.3
705.677	9938.68
705.869	9953.8
706.061	9979.37
706.254	10016.18
706.446	9840.84
706.638	9881.53
706.831	9955.93
707.023	9909.23
707.215	10086.71
707.407	10036.72
707.599	9906.33
707.792	10102.79
707.984	10067.33
708.176	9969.49
708.368	9941.78
708.56	10059.78
708.752	9968.13
708.944	9884.43
709.136	9924.73
709.329	9918.34
709.521	10054.16
709.713	9914.66
709.905	9981.31
710.097	10033.62
710.289	9955.73
710.481	9867
710.672	9895.48
710.864	9969.49
711.056	9878.04
711.248	9895.48
711.44	9915.24
711.632	9914.85
711.824	9931.9
712.016	9903.62
712.207	9924.35
712.399	9817.4
712.591	9844.33
712.783	9816.82
712.975	9709.87
713.166	9794.54
713.358	9740.48
713.55	9704.44
713.741	9708.9
713.933	9733.7
714.125	9639.34
714.316	9555.06
714.508	9597.69
714.7	9507.4
714.891	9451.41
715.083	9444.82
715.274	9404.14
715.466	9453.54
715.657	9424.48
715.849	9181.91
716.04	9131.92
716.232	9021.87
716.423	8894.58
716.615	8626.82
716.806	8409.24
716.998	8091.3
717.189	7913.44
717.381	7599.57
717.572	7401.76
717.763	7270.78
717.955	7168.49
718.146	6987.33
718.337	6794.17
718.528	6663.19
718.72	6397.37
718.911	6447.17
719.102	6304.95
719.293	6296.82
719.485	6241.41
719.676	6123.61
719.867	6059.67
720.058	6051.92
720.249	6015.3
720.44	6027.7
720.632	6226.29
720.823	6306.5
721.014	6577.56
721.205	6751.15
721.396	6906.15
721.587	7155.5
721.778	7287.64
721.969	7413.19
722.16	7566.25
722.351	7665.06
722.542	7710.2
722.733	7791.96
722.924	7624.76
723.115	7641.04
723.305	7434.89
723.496	7470.15
723.687	7081.69
723.878	7086.72
724.069	7003.8
724.26	6975.51
724.45	6781.19
724.641	6738.56
724.832	6670.94
725.023	6670.36
725.213	6598.87
725.404	6602.94
725.595	6517.69
725.785	6516.53
725.976	6560.7
726.167	6514.2
726.357	6553.53
726.548	6656.61
726.739	6491.34
726.929	6703.69
727.12	6704.66
727.31	6626.57
727.501	6479.71
727.691	6510.91
727.882	6520.01
728.072	6558.76
728.263	6616.89
728.453	6710.08
728.644	6749.8
728.834	6586.66
729.024	6489.98
729.215	6479.52
729.405	6515.75
729.596	6595.96
729.786	6588.02
729.976	6619.99
730.167	6646.53
730.357	6580.27
730.547	6580.46
730.737	6578.53
730.928	6619.02
731.118	6642.07
731.308	6553.53
731.498	6586.47
731.688	6768.2
731.879	6821.68
732.069	6873.6
732.259	6991.01
732.449	7064.83
732.639	7150.85
732.829	7177.01
733.019	7222.74
733.209	7402.53
733.399	7353.9
733.589	7521.49
733.779	7532.92
733.969	7585.82
734.159	7721.83
734.349	7720.08
734.539	7797
734.729	7833.43
734.919	7723.96
735.109	7904.34
735.299	7683.85
735.488	7811.53
735.678	7768.71
735.868	7694.12
736.058	7662.15
736.248	7663.7
736.437	7557.14
736.627	7570.9
736.817	7736.36
737.007	7601.32
737.196	7727.45
737.386	7688.7
737.576	7663.9
737.765	7696.25
737.955	7622.05
738.144	7881.67
738.334	7733.84
738.524	7595.12
738.713	7654.79
738.903	7649.75
739.092	7662.15
739.282	7682.69
739.471	7706.33
739.661	7661.38
739.85	7747.79
740.04	7709.23
740.229	7747.21
740.419	7726.09
740.608	7797.2
740.797	7729.38
740.987	7725.9
741.176	7733.45
741.365	7725.7
741.555	7595.89
741.744	7842.15
741.933	7691.02
742.123	7689.67
742.312	7771.04
742.501	7785.38
742.69	7785.18
742.88	7630.57
743.069	7858.23
743.258	7793.51
743.447	7817.93
743.636	7781.11
743.825	7770.26
744.014	7829.55
744.204	7809.21
744.393	7644.52
744.582	7860.94
744.771	7804.75
744.96	7717.95
745.149	7760.77
745.338	7730.55
745.527	7805.72
745.716	7699.93
745.905	7686.37
746.094	7783.25
746.283	7759.8
746.471	7722.02
746.66	7865.39
746.849	7792.55
747.038	7760.38
747.227	7711.37
747.416	7703.81
747.604	7667.77
747.793	7678.82
747.982	7679.2
748.171	7734.62
748.359	7665.06
748.548	7671.26
748.737	7651.3
748.926	7647.24
749.114	7410.86
749.303	7608.49
749.491	7537.57
749.68	7409.7
749.869	7603.25
750.057	7554.04
750.246	7404.47
750.434	7427.53
750.623	7428.49
750.811	7376.96
751	7534.86
751.188	7399.43
751.377	7402.73
751.565	7312.25
751.754	7398.27
751.942	7225.06
752.131	7347.7
752.319	7291.13
752.507	7263.23
752.696	7321.35
752.884	7273.5
753.072	7292.48
753.261	7257.61
753.449	7284.54
753.637	7087.11
753.825	7293.26
754.014	7245.02
754.202	7291.52
754.39	7274.85
754.578	7258.58
754.766	7203.36
754.955	7082.85
755.143	7189.8
755.331	7200.65
755.519	7172.55
755.707	7074.13
755.895	7097.96
756.083	7119.86
756.271	7047.39
756.459	7013.29
756.647	7096.99
756.835	6948
757.023	7002.83
757.211	6962.15
757.399	6877.67
757.587	6945.48
757.775	6888.71
757.963	6833.3
758.151	6908.86
758.339	6744.76
758.526	6827.68
758.714	6768.59
758.902	6603.71
759.09	6383.62
759.278	6041.85
759.465	5481.72
759.653	4860.38
759.841	4265.57
760.028	3757.76
760.216	3251.69
760.404	2957.58
760.591	2486.58
760.779	2088.05
760.967	1839.86
761.154	1569.19
761.342	1584.3
761.529	1553.5
761.717	1665.29
761.905	1703.07
762.092	1765.07
762.28	1739.11
762.467	1694.93
762.655	1594.18
762.842	1613.37
763.029	1628.48
763.217	1665.29
763.404	1614.33
763.592	1691.83
763.779	1649.79
763.966	1725.74
764.154	1820.67
764.341	1889.84
764.528	1909.22
764.716	2082.04
764.903	2156.63
765.09	2274.62
765.277	2433.88
765.465	2631.31
765.652	2781.27
765.839	2968.82
766.026	3192.21
766.213	3348.57
766.4	3514.61
766.588	3806.2
766.775	3930.97
766.962	4078.8
767.149	4274.1
767.336	4501.17
767.523	4543.4
767.71	4746.06
767.897	5001.62
768.084	5089
768.271	5167.66
768.458	5305.22
768.645	5464.48
768.832	5416.82
769.019	5564.07
769.206	5520.86
769.392	5670.82
769.579	5796.76
769.766	5752
769.953	5776.41
770.14	5854.3
770.327	5872.7
770.513	5931.41
770.7	5984.5
770.887	5880.07
771.073	5903.7
771.26	5953.5
771.447	5943.03
771.634	5881.62
771.82	6055.21
772.007	5883.75
772.193	6045.91
772.38	5957.95
772.567	5957.76
772.753	5966.87
772.94	6028.09
773.126	5983.92
773.313	6058.12
773.499	5960.86
773.686	6053.08
773.872	5873.29
774.059	6002.71
774.245	5949.62
774.432	5921.72
774.618	5778.54
774.804	5883.55
774.991	5841.7
775.177	5862.82
775.363	5860.3
775.55	5937.61
775.736	5756.84
775.922	5826.79
776.109	5825.43
776.295	5867.67
776.481	5884.33
776.667	5883.55
776.853	5798.69
777.04	5758.78
777.226	5738.05
777.412	5859.72
777.598	5727.98
777.784	5755.49
777.97	5702.21
778.156	5717.71
778.342	5725.46
778.528	5739.41
778.715	5627.23
778.901	5642.73
779.087	5657.45
779.272	5663.26
779.458	5587.12
779.644	5604.75
779.83	5619.09
780.016	5744.64
780.202	5557.87
780.388	5605.72
780.574	5512.14
780.76	5549.92
780.946	5631.3
781.131	5556.51
781.317	5483.08
781.503	5465.25
781.689	5457.12
781.874	5629.36
782.06	5415.27
782.246	5537.72
782.432	5433.48
782.617	5434.45
782.803	5497.03
782.989	5405.58
783.174	5385.04
783.36	5351.52
783.545	5350.94
783.731	5358.5
783.916	5243.41
784.102	5334.28
784.288	5303.48
784.473	5297.86
784.659	5237.99
784.844	5291.66
785.029	5280.23
785.215	5209.51
785.4	5181.61
785.586	5258.72
785.771	5159.52
785.956	5244.38
786.142	5113.99
786.327	5198.08
786.512	5178.12
786.698	5116.12
786.883	5038.43
787.068	5093.84
787.254	5106.82
787.439	5086.67
787.624	5008.59
787.809	4989.41
787.994	4918.31
788.18	5065.55
788.365	4902.81
788.55	4887.89
788.735	4966.94
788.92	4865.8
789.105	4835.58
789.29	4905.32
789.475	4820.66
789.66	4830.15
789.845	4728.82
790.03	4776.87
790.215	4805.35
790.4	4858.83
790.585	4838.09
790.77	4781.33
790.955	4750.91
791.14	4772.8
791.325	4826.86
791.51	4672.44
791.695	4712.16
791.879	4743.16
792.064	4713.51
792.249	4768.35
792.434	4748
792.618	4690.65
792.803	4770.09
792.988	4705.38
793.173	4740.45
793.357	4770.67
793.542	4690.27
793.727	4739.67
793.911	4792.56
794.096	4762.53
794.281	4759.43
794.465	4872
794.65	4810.19
794.834	4807.87
795.019	4848.36
795.203	4808.06
795.388	4850.69
795.572	4885.95
795.757	4804.58
795.941	4812.52
796.126	4761.37
796.31	4725.72
796.494	4725.91
796.679	4718.36
796.863	4724.75
797.048	4881.88
797.232	4732.89
797.416	4800.31
797.601	4800.51
797.785	4829.57
797.969	4853.79
798.153	4816.59
798.338	4880.72
798.522	4910.56
798.706	4906.29
798.89	4902.42
799.074	4950.47
799.258	4964.61
799.443	4937.49
799.627	4898.93
799.811	4940.01
799.995	4888.27
800.179	4816.98
800.363	4819.69
800.547	4856.89
800.731	4881.11
800.915	4762.73
801.099	4767.38
801.283	4792.18
801.467	4823.76
801.651	4793.14
801.835	4845.26
802.019	4813.29
802.202	4866.58
802.386	4712.55
802.57	4743.35
802.754	4742.58
802.938	4745.87
803.121	4733.08
803.305	4844.1
803.489	4750.71
803.673	4821.04
803.856	4804.58
804.04	4736.96
804.224	4796.44
804.407	4781.71
804.591	4774.16
804.775	4754.98
804.958	4793.53
805.142	4857.47
805.326	4763.11
805.509	4771.64
805.693	4837.13
805.876	4855.14
806.06	4797.79
806.243	4837.13
806.427	4882.07
806.61	4878.2
806.794	4828.41
806.977	4899.32
807.16	4829.38
807.344	4891.18
807.527	4814.65
807.71	4821.04
807.894	4801.67
808.077	4768.15
808.26	4739.09
808.444	4722.62
808.627	4799.73
808.81	4699.37
808.993	4646.48
809.177	4624.2
809.36	4655.97
809.543	4699.18
809.726	4496.91
809.909	4543.4
810.092	4481.41
810.276	4530.81
810.459	4504.66
810.642	4463.97
810.825	4437.62
811.008	4416.69
811.191	4262.28
811.374	4344.81
811.557	4317.5
811.74	4393.83
811.923	4260.73
812.106	4187.88
812.289	4170.25
812.472	4156.1
812.654	4153.97
812.837	4062.52
813.02	4008.27
813.203	3876.33
813.386	3799.61
813.569	3769
813.751	3616.13
813.934	3657.2
814.117	3596.56
814.3	3576.99
814.482	3467.14
814.665	3383.83
814.848	3354.57
815.03	3276.88
815.213	3211.59
815.396	3187.17
815.578	3172.26
815.761	3104.25
815.943	3180.39
816.126	3038.38
816.309	3023.85
816.491	2918.45
816.674	2831.07
816.856	2912.63
817.039	2934.14
817.221	3018.23
817.403	2926.39
817.586	2930.65
817.768	2987.23
817.951	2868.27
818.133	2820.02
818.315	2857.61
818.498	2918.64
818.68	3003.7
818.862	3002.92
819.045	3062.59
819.227	2984.51
819.409	3000.6
819.591	3004.08
819.774	2952.93
819.956	2920.19
820.138	3062.4
820.32	3066.66
820.502	3191.63
820.684	3307.1
820.866	3277.27
821.048	3404.17
821.231	3374.14
821.413	3387.51
821.595	3354.38
821.777	3410.18
821.959	3397.78
822.141	3410.76
822.323	3189.5
822.505	3100.18
822.686	3006.8
822.868	2833.59
823.05	2687.31
823.232	2628.79
823.414	2530.56
823.596	2656.89
823.778	2629.96
823.96	2652.43
824.141	2725.67
824.323	2753.96
824.505	2873.3
824.687	2943.44
824.868	3072.09
825.05	3180.2
825.232	3261.38
825.413	3329
825.595	3255.76
825.777	3214.88
825.958	3260.41
826.14	3248.79
826.321	3265.45
826.503	3273.39
826.685	3292.96
826.866	3317.37
827.048	3295.67
827.229	3208.87
827.411	3128.47
827.592	3097.66
827.773	3074.61
827.955	3006.21
828.136	2986.84
828.318	2968.05
828.499	2983.55
828.68	2935.5
828.862	2954.1
829.043	2949.83
829.224	2907.79
829.406	2862.26
829.587	2884.73
829.768	2913.02
829.949	2928.52
830.131	2928.91
830.312	3024.43
830.493	2944.6
830.674	2964.17
830.855	2960.68
831.036	2962.81
831.218	2988.97
831.399	3031.79
831.58	2945.57
831.761	2919.8
831.942	2923.29
832.123	2954.1
832.304	2921.16
832.485	2888.8
832.666	2942.67
832.847	2919.22
833.028	2909.15
833.209	2933.37
833.389	2863.42
833.57	2842.11
833.751	2850.83
833.932	2944.41
834.113	2914.57
834.294	2891.52
834.475	2942.28
834.655	3019.97
834.836	3002.73
835.017	3041.67
835.198	2965.72
835.378	2996.91
835.559	3071.31
835.74	3002.73
835.92	2957.2
836.101	2994.4
836.281	3014.35
836.462	3056.01
836.643	3051.16
836.823	3047.48
837.004	3044.58
837.184	3076.16
837.365	3116.07
837.545	3104.83
837.726	3018.42
837.906	3111.42
838.087	3080.03
838.267	3033.15
838.448	3059.3
838.628	3054.46
838.808	3056.39
838.989	3068.99
839.169	3021.91
839.349	3067.63
839.53	3081.39
839.71	3097.66
839.89	3033.73
840.07	3117.43
840.251	3040.12
840.431	3080.81
840.611	3058.14
840.791	3053.49
840.971	3056.59
841.151	3022.49
841.332	2987.42
841.512	3040.31
841.692	2980.83
841.872	3074.22
842.052	3030.43
842.232	3027.33
842.412	2984.51
842.592	2998.66
842.772	3024.62
842.952	3045.54
843.132	2960.68
843.312	2979.67
843.492	2945.18
843.672	3027.53
843.851	2929.88
844.031	3000.6
844.211	2915.93
844.391	2931.04
844.571	2966.88
844.751	2949.25
844.93	2918.64
845.11	2933.95
845.29	2978.7
845.47	2973.08
845.649	2987.61
845.829	2970.37
846.009	2950.42
846.188	2980.06
846.368	2986.45
846.547	2923.87
846.727	2976.18
846.907	2936.08
847.086	2948.67
847.266	2951.38
847.445	2928.13
847.625	2905.85
847.804	2883.38
847.984	2908.37
848.163	2870.78
848.343	2827.39
848.522	2866.14
848.701	2868.46
848.881	2814.21
849.06	2835.91
849.239	2821.96
849.419	2822.93
849.598	2722.96
849.777	2714.82
849.957	2680.33
850.136	2632.67
850.315	2644.29
850.494	2637.32
850.674	2649.53
850.853	2709.97
851.032	2644.49
851.211	2701.45
851.39	2689.63
851.569	2562.92
851.748	2612.13
851.927	2688.28
852.107	2695.44
852.286	2623.37
852.465	2641
852.644	2674.71
852.823	2647.2
853.002	2651.85
853.181	2668.9
853.359	2647.39
853.538	2576.87
853.717	2602.06
853.896	2451.9
854.075	2365.49
854.254	2315.89
854.433	2218.63
854.611	2306.4
854.79	2210.3
854.969	2319.96
855.148	2337.21
855.327	2289.74
855.505	2387
855.684	2378.47
855.863	2433.5
856.041	2396.1
856.22	2454.62
856.399	2427.49
856.577	2531.92
856.756	2516.42
856.934	2609.61
857.113	2627.44
857.291	2508.67
857.47	2526.88
857.648	2552.07
857.827	2550.13
858.005	2587.72
858.184	2515.26
858.362	2633.25
858.541	2557.5
858.719	2514.1
858.898	2511.38
859.076	2500.15
859.254	2540.64
859.433	2499.18
859.611	2500.92
859.789	2437.18
859.967	2544.71
860.146	2558.27
860.324	2406.37
860.502	2445.9
860.68	2406.76
860.859	2449.97
861.037	2429.62
861.215	2436.02
861.393	2438.15
861.571	2433.5
861.749	2421.29
861.927	2457.33
862.105	2406.57
862.283	2426.14
862.461	2406.95
862.639	2394.94
862.817	2390.49
862.995	2392.23
863.173	2395.91
863.351	2380.02
863.529	2399.59
863.707	2443.77
863.885	2428.85
864.063	2302.72
864.241	2322.29
864.418	2420.9
864.596	2327.91
864.774	2314.15
864.952	2325.97
865.129	2320.74
865.307	2281.99
865.485	2248.08
865.663	2307.37
865.84	2197.13
866.018	2173.1
866.196	2030.12
866.373	2032.25
866.551	1992.72
866.728	1940.41
866.906	2004.35
867.084	2040.97
867.261	2038.83
867.439	2076.03
867.616	2154.89
867.794	2132.22
867.971	2191.89
868.149	2140.94
868.326	2222.7
868.503	2162.45
868.681	2149.66
868.858	2140.36
869.035	2112.65
869.213	2158.96
869.39	2145.01
869.567	2209.14
869.745	2134.16
869.922	2178.14
870.099	2171.55
870.276	2206.43
870.454	2188.21
870.631	2172.71
870.808	2165.55
870.985	2156.44
871.162	2171.36
871.339	2171.74
871.517	2045.81
871.694	2102.38
871.871	2116.72
872.048	2076.03
872.225	2120.4
872.402	2117.5
872.579	2032.44
872.756	2097.93
872.933	2029.73
873.11	2085.72
873.287	2134.93
873.463	2074.1
873.64	2053.17
873.817	2068.48
873.994	2032.63
874.171	2015.78
874.348	2053.17
874.524	1980.32
874.701	2008.03
874.878	1950.49
875.055	2018.49
875.231	1978
875.408	2024.69
875.585	1929.17
875.762	1975.67
875.938	1973.74
876.115	1943.32
876.291	1946.22
876.468	1922.39
876.645	1936.92
876.821	1938.28
876.998	1934.02
877.174	1958.82
877.351	1972.77
877.527	1897.01
877.704	1915.03
877.88	1909.02
878.057	1860.39
878.233	1916.19
878.409	1898.17
878.586	1900.89
878.762	1890.04
878.938	1858.46
879.115	1853.03
879.291	1870.86
879.467	1811.96
879.644	1829.59
879.82	1847.99
879.996	1894.49
880.172	1763.71
880.349	1836.76
880.525	1819.32
880.701	1756.54
880.877	1775.34
881.053	1843.73
881.229	1797.43
881.405	1861.17
881.581	1759.06
881.757	1804.98
881.933	1791.42
882.109	1836.95
882.285	1831.52
882.461	1713.15
882.637	1826.29
882.813	1787.16
882.989	1795.68
883.165	1846.06
883.341	1721.09
883.517	1835.59
883.693	1791.61
883.869	1827.26
884.044	1765.26
884.22	1835.4
884.396	1858.26
884.572	1813.12
884.747	1832.49
884.923	1854
885.099	1845.28
885.275	1844.51
885.45	1807.69
885.626	1799.94
885.801	1785.41
885.977	1766.43
886.153	1710.43
886.328	1786.19
886.504	1752.67
886.679	1764.68
886.855	1757.13
887.03	1804.79
887.206	1822.81
887.381	1769.53
887.557	1808.47
887.732	1781.93
887.908	1761.58
888.083	1791.61
888.258	1783.86
888.434	1746.47
888.609	1768.56
888.784	1819.9
888.96	1790.45
889.135	1769.53
889.31	1775.14
889.485	1783.48
889.661	1779.02
889.836	1821.26
890.011	1829.59
890.186	1752.86
890.361	1749.57
890.537	1779.21
890.712	1803.63
890.887	1811.96
891.062	1795.49
891.237	1855.55
891.412	1748.79
891.587	1793.36
891.762	1811.96
891.937	1824.36
892.112	1742.4
892.287	1747.83
892.462	1680.98
892.637	1693.19
892.812	1651.92
892.987	1641.85
893.161	1620.92
893.336	1616.85
893.511	1627.12
893.686	1614.53
893.861	1637
894.035	1617.82
894.21	1635.84
894.385	1532.77
894.56	1581.59
894.734	1547.49
894.909	1461.47
895.084	1439.77
895.258	1450.62
895.433	1435.7
895.608	1390.36
895.782	1340.18
895.957	1401.21
896.131	1358.59
896.306	1270.82
896.48	1285.93
896.655	1261.33
896.829	1192.16
897.004	1198.55
897.178	1204.37
897.353	1176.27
897.527	1212.89
897.701	1221.61
897.876	1143.33
898.05	1284.77
898.224	1223.55
898.399	1255.9
898.573	1150.7
898.747	1058.09
898.921	1054.99
899.096	966.64
899.27	965.28
899.444	988.92
899.618	1052.27
899.792	1095.67
899.967	1083.66
900.141	1092.96
900.315	1009.84
900.489	1022.44
900.663	1042.59
900.837	1044.33
901.011	983.69
901.185	1077.07
901.359	1048.01
901.533	1047.82
901.707	1073.97
901.881	1029.99
902.055	979.42
902.229	1047.43
902.403	1073.2
902.576	1061.57
902.75	1062.93
902.924	1187.9
903.098	1138.88
903.272	1215.21
903.446	1285.55
903.619	1265.98
903.793	1291.94
903.967	1261.52
904.14	1326.43
904.314	1322.74
904.488	1295.62
904.661	1334.37
904.835	1299.88
905.009	1353.74
905.182	1383.77
905.356	1331.85
905.529	1333.21
905.703	1272.56
905.876	1264.43
906.05	1226.45
906.223	1186.54
906.397	1163.48
906.57	1086.76
906.744	1089.86
906.917	1088.5
907.09	1049.17
907.264	1036
907.437	967.8
907.61	944.55
907.784	990.66
907.957	1001.51
908.13	952.11
908.304	975.16
908.477	913.74
908.65	955.01
908.823	887.98
908.996	928.86
909.17	890.11
909.343	904.25
909.516	902.7
909.689	907.74
909.862	889.33
910.035	867.44
910.208	866.47
910.381	867.24
910.554	976.52
910.727	889.72
910.9	918.59
911.073	884.49
911.246	985.43
911.419	999.96
911.592	994.15
911.765	894.18
911.938	898.24
912.11	895.34
912.283	938.54
912.456	967.61
912.629	921.69
912.802	879.45
912.974	789.75
913.147	731.43
913.32	709.92
913.493	723.48
913.665	777.73
913.838	755.07
914.01	763.01
914.183	822.88
914.356	865.69
914.528	839.15
914.701	908.71
914.873	833.53
915.046	800.79
915.218	747.7
915.391	669.43
915.563	661.49
915.736	732.4
915.908	801.18
916.081	748.67
916.253	768.63
916.425	780.25
916.598	811.83
916.77	800.4
916.942	779.86
917.115	664.2
917.287	757.78
917.459	682.41
917.632	647.15
917.804	642.3
917.976	701.01
918.148	741.31
918.32	736.27
918.493	821.91
918.665	838.38
918.837	795.75
919.009	883.52
919.181	882.74
919.353	844
919.525	845.16
919.697	847.68
919.869	844.19
920.041	895.53
920.213	980.59
920.385	909.29
920.557	891.46
920.729	881
920.901	879.06
921.073	817.45
921.244	850.2
921.416	883.33
921.588	842.25
921.76	845.35
921.932	875.19
922.103	840.51
922.275	854.65
922.447	860.27
922.619	796.72
922.79	837.21
922.962	800.21
923.134	831.6
923.305	741.5
923.477	713.8
923.648	727.75
923.82	775.6
923.991	693.45
924.163	701.2
924.335	744.41
924.506	705.47
924.677	766.3
924.849	702.75
925.02	721.55
925.192	745.38
925.363	735.3
925.535	715.35
925.706	712.05
925.877	765.33
926.049	690.74
926.22	701.78
926.391	706.24
926.562	758.94
926.734	703.92
926.905	721.35
927.076	667.1
927.247	666.33
927.419	629.13
927.59	614.4
927.761	624.29
927.932	558.02
928.103	571.59
928.274	498.93
928.445	486.53
928.616	528.57
928.787	513.85
928.958	525.67
929.129	510.94
929.3	464.44
929.471	410.58
929.642	355.75
929.813	330.95
929.984	427.44
930.155	311.97
930.326	356.33
930.496	347.61
930.667	283.87
930.838	313.71
931.009	273.41
931.18	274.96
931.35	283.1
931.521	283.68
931.692	214.32
931.863	179.44
932.033	229.82
932.204	235.24
932.374	192.42
932.545	144.18
932.716	225.36
932.886	195.33
933.057	114.34
933.227	142.05
933.398	193.39
933.568	114.34
933.739	75.59
933.909	93.22
934.08	127.52
934.25	38.98
934.421	75.21
934.591	90.9
934.761	106.98
934.932	41.3
935.102	119.19
935.272	101.94
935.443	75.98
935.613	81.41
935.783	128.49
935.953	45.18
936.123	244.93
936.294	91.29
936.464	89.54
936.634	109.31
936.804	58.74
936.974	70.75
937.144	103.69
937.314	104.07
937.484	75.98
937.655	60.48
937.825	115.31
937.995	82.96
938.165	119.38
938.334	75.59
938.504	115.89
938.674	125.19
938.844	159.87
939.014	231.95
939.184	217.42
939.354	223.23
939.524	244.15
939.694	196.49
939.863	204.82
940.033	255.58
940.203	239.5
940.373	197.07
940.542	213.35
940.712	180.6
940.882	206.18
941.051	226.14
941.221	254.23
941.391	242.6
941.56	180.8
941.73	165.3
941.899	249.77
942.069	164.33
942.238	220.32
942.408	160.65
942.577	209.67
942.747	175.95
942.916	105.62
943.086	160.84
943.255	205.79
943.425	171.11
943.594	137.98
943.763	92.64
943.933	109.89
944.102	69.98
944.271	137.79
944.441	169.95
944.61	130.62
944.779	157.94
944.948	242.02
945.117	101.36
945.287	114.54
945.456	67.07
945.625	81.79
945.794	115.51
945.963	114.54
946.132	139.34
946.301	116.09
946.47	169.75
946.639	80.05
946.808	118.02
946.977	143.6
947.146	208.7
947.315	121.51
947.484	163.36
947.653	148.25
947.822	123.26
947.991	110.86
948.16	211.8
948.329	194.94
948.498	141.66
948.666	147.47
948.835	171.69
949.004	117.25
949.173	108.92
949.341	146.51
949.51	120.54
949.679	178.28
949.847	149.61
950.016	208.89
950.185	205.4
950.353	131.97
950.522	147.86
950.69	186.42
950.859	133.14
951.028	212.57
951.196	138.95
951.365	125
951.533	127.91
951.701	158.52
951.87	155.22
952.038	81.21
952.207	128.68
952.375	176.54
952.543	112.21
952.712	126.55
952.88	122.09
953.048	205.21
953.217	149.22
953.385	137.01
953.553	175.37
953.721	139.72
953.89	154.06
954.058	101.56
954.226	92.26
954.394	134.3
954.562	108.34
954.73	157.55
954.898	112.79
955.067	150.19
955.235	116.67
955.403	190.29
955.571	236.99
955.739	158.91
955.907	112.21
956.075	118.41
956.243	119.57
956.41	167.82
956.578	79.86
956.746	104.46
956.914	115.89
957.082	154.26
957.25	170.34
957.418	155.03
957.585	180.8
957.753	186.42
957.921	117.83
958.089	157.55
958.256	170.14
958.424	178.67
958.592	163.55
958.759	132.75
958.927	173.63
959.095	130.04
959.262	125
959.43	141.66
959.597	113.57
959.765	164.91
959.932	121.32
960.1	159.68
960.267	147.28
960.435	145.54
960.602	189.71
960.77	146.7
960.937	121.9
961.104	164.14
961.272	101.94
961.439	147.67
961.606	159.49
961.774	168.01
961.941	168.01
962.108	157.16
962.275	152.71
962.443	185.64
962.61	138.95
962.777	245.32
962.944	193.97
963.111	190.29
963.278	182.93
963.446	164.91
963.613	160.07
963.78	193.97
963.947	199.98
964.114	158.13
964.281	246.09
964.448	205.4
964.615	161.04
964.782	188.55
964.949	210.83
965.116	198.82
965.282	214.51
965.449	184.48
965.616	149.22
965.783	207.15
965.95	169.37
966.117	128.68
966.283	183.12
966.45	189.32
966.617	176.34
966.784	218.97
966.95	247.06
967.117	199.79
967.284	168.79
967.45	180.22
967.617	263.92
967.784	237.37
967.95	264.3
968.117	211.41
968.283	251.9
968.45	294.14
968.616	209.09
968.783	219.35
968.949	221.87
969.116	263.33
969.282	215.67
969.449	246.29
969.615	220.71
969.781	182.74
969.948	218
970.114	181.38
970.28	269.53
970.447	229.04
970.613	271.08
970.779	246.87
970.945	263.14
971.112	200.75
971.278	215.87
971.444	219.16
971.61	271.86
971.776	194.55
971.942	239.12
972.108	267.98
972.275	229.62
972.441	243.19
972.607	264.69
972.773	194.36
972.939	210.05
973.105	199.01
973.271	180.02
973.437	189.71
973.602	180.41
973.768	208.89
973.934	183.12
974.1	205.02
974.266	148.83
974.432	213.93
974.598	169.95
974.763	232.92
974.929	167.62
975.095	247.25
975.261	141.86
975.426	147.47
975.592	187.97
975.758	243.19
975.923	155.42
976.089	162
976.255	207.34
976.42	196.69
976.586	215.09
976.751	192.23
976.917	273.8
977.082	205.79
977.248	157.16
977.413	127.91
977.579	180.8
977.744	191.07
977.91	151.35
978.075	158.13
978.24	215.87
978.406	147.86
978.571	167.04
978.736	169.37
978.902	204.05
979.067	156.39
979.232	125.77
979.397	166.65
979.563	248.03
979.728	131.97
979.893	194.17
980.058	177.89
980.223	198.62
980.388	166.85
980.554	193.2
980.719	181.96
980.884	182.15
981.049	217.03
981.214	166.27
981.379	184.87
981.544	160.07
981.709	156.97
981.874	162.97
982.039	173.44
982.204	164.14
982.368	196.3
982.533	163.75
982.698	211.22
982.863	223.23
983.028	183.32
983.193	206.57
983.357	194.36
983.522	199.4
983.687	162.59
983.852	173.82
984.016	164.72
984.181	193
984.346	211.41
984.51	193.39
984.675	204.24
984.839	180.99
985.004	216.45
985.168	223.81
985.333	217.61
985.498	165.88
985.662	226.33
985.827	160.45
985.991	195.91
986.155	174.6
986.32	194.55
986.484	249.19
986.649	214.32
986.813	135.46
986.977	206.18
987.142	216.64
987.306	153.48
987.47	141.66
987.634	175.18
987.799	183.32
987.963	166.85
988.127	198.24
988.291	229.24
988.455	165.49
988.62	157.74
988.784	207.34
988.948	192.62
989.112	149.61
989.276	183.32
989.44	178.28
989.604	152.32
989.768	162
989.932	245.9
990.096	138.76
990.26	160.84
990.424	121.32
990.588	174.21
990.752	238.92
990.915	204.24
991.079	167.82
991.243	171.11
991.407	183.9
991.571	153.67
991.734	192.62
991.898	186.42
992.062	272.05
992.226	168.2
992.389	134.11
992.553	105.24
992.717	147.47
992.88	142.44
993.044	159.87
993.207	159.1
993.371	176.92
993.535	173.24
993.698	184.29
993.862	201.34
994.025	220.9
994.189	183.7
994.352	169.37
994.515	169.17
994.679	167.82
994.842	152.9
995.006	202.69
995.169	119.38
995.332	133.72
995.496	183.7
995.659	106.98
995.822	161.81
995.985	122.29
996.149	202.3
996.312	158.13
996.475	195.33
996.638	127.32
996.801	193.97
996.964	188.55
997.128	157.74
997.291	126.94
997.454	140.5
997.617	88.57
997.78	191.84
997.943	127.13
998.106	158.91
998.269	116.86
998.432	134.11
998.595	146.12
998.758	116.09
998.92	118.22
999.083	81.99
999.246	128.49
999.409	92.64
999.572	86.06
999.735	109.89
999.897	127.52
1000.06	105.04
1000.223	115.51
1000.386	155.03
1000.548	174.02
1000.711	150.77
1000.874	149.8
1001.036	70.75
1001.199	142.63
1001.361	117.06
1001.524	124.42
1001.687	158.91
1001.849	124.42
1002.012	121.51
1002.174	140.11
1002.337	137.01
1002.499	119.57
1002.661	155.81
1002.824	65.71
1002.986	99.81
1003.149	117.06
1003.311	87.41
1003.473	158.32
1003.636	77.34
1003.798	121.71
1003.96	113.37
1004.123	109.11
1004.285	100.2
1004.447	94.97
1004.609	92.64
1004.771	165.69
1004.933	73.66
1005.096	77.92
1005.258	56.8
1005.42	75.4
1005.582	144.96
1005.744	97.68
1005.906	86.44
1006.068	99.81
1006.23	66.68
1006.392	47.11
1006.554	61.06
1006.716	133.91
1006.878	122.29
1007.04	52.54
1007.202	87.99
1007.363	150.38
1007.525	114.15
1007.687	121.51
1007.849	141.47
1008.011	55.44
1008.172	73.66
1008.334	73.85
1008.496	107.17
1008.658	18.44
1008.819	86.25
1008.981	28.32
1009.143	80.05
1009.304	70.56
1009.466	104.66
1009.627	149.22
1009.789	153.67
1009.95	98.84
1010.112	52.54
1010.273	82.96
1010.435	63.39
1010.596	69.98
1010.758	61.64
1010.919	78.31
1011.081	61.84
1011.242	93.81
1011.403	97.87
1011.565	79.08
1011.726	95.74
1011.887	62.42
1012.049	48.47
1012.21	127.13
1012.371	158.71
1012.532	4.29
1012.693	68.43
1012.855	63.97
1013.016	85.86
1013.177	101.17
1013.338	93.81
1013.499	164.91
1013.66	108.14
1013.821	104.27
1013.982	84.12
1014.143	50.6
1014.304	40.14
1014.465	108.14
1014.626	102.91
1014.787	73.46
1014.948	155.42
1015.109	-1.52
1015.27	102.52
1015.431	69.78
1015.592	69.98
1015.752	169.95
1015.913	88.38
1016.074	94.77
1016.235	71.33
1016.395	63.58
1016.556	53.12
1016.717	84.51
1016.877	132.75
1017.038	56.8
1017.199	81.21
1017.359	61.06
1017.52	71.33
1017.681	38.01
1017.841	73.27
1018.002	72.3
1018.162	36.65
1018.323	115.31
1018.483	56.41
1018.644	48.86
1018.804	18.83
1018.964	26.19
1019.125	31.81
1019.285	63.39
1019.446	22.31
1019.606	52.54
1019.766	13.21
1019.926	68.04
1020.087	89.16
1020.247	20.38
1020.407	81.41
1020.567	96.91
1020.728	35.29
1020.888	30.45
1021.048	27.54
1021.208	25.22
1021.368	46.53
1021.528	105.04
1021.688	68.23
1021.848	98.46
1022.008	43.24
1022.168	43.43
1022.328	58.74
1022.488	76.95
1022.648	32.39
1022.808	42.08
1022.968	49.83
1023.128	15.92
1023.288	33.36
1023.448	44.79
1023.608	104.27
1023.767	82.18
1023.927	22.51
1024.087	13.4
1024.247	-1.91
1024.406	10.49
1024.566	21.93
1024.726	-7.91
1024.885	55.06
1025.045	89.74
1025.205	47.11
1025.364	42.08
1025.524	51.57
1025.683	54.09
1025.843	62.03
1026.003	33.55
1026.162	100.39
1026.321	77.34
1026.481	37.04
1026.64	33.74
1026.8	53.12
1026.959	42.85
1027.119	63
1027.278	35.88
1027.437	6.62
1027.597	65.13
1027.756	47.89
1027.915	74.24
1028.074	69.59
1028.234	33.36
1028.393	54.86
1028.552	23.86
1028.711	-16.44
1028.87	83.34
1029.03	18.63
1029.189	33.94
1029.348	9.33
1029.507	4.68
1029.666	41.88
1029.825	-7.72
1029.984	9.53
1030.143	25.41
1030.302	16.69
1030.461	-24.96
1030.62	35.29
1030.779	49.63
1030.938	8.17
1031.097	19.41
1031.255	38.2
1031.414	83.34
1031.573	76.76
1031.732	1.19
1031.891	20.76
1032.049	83.15
1032.208	48.08
1032.367	-6.17
1032.525	20.57
1032.684	44.79
1032.843	32.39
1033.001	-6.75
1033.16	151.54
1033.319	58.35
1033.477	64.74
1033.636	-10.43
1033.794	-2.87
1033.953	49.44
1034.111	34.52
1034.27	12.63
1034.428	21.73
1034.587	-5.59
1034.745	43.82
1034.903	41.69
1035.062	54.86
1035.22	-23.22
1035.378	61.26
1035.537	-5.01
1035.695	61.84
1035.853	19.02
1036.011	58.16
1036.17	38.78
1036.328	-12.37
1036.486	21.73
1036.644	35.68
1036.802	-70.3
1036.96	16.69
1037.119	28.13
1037.277	13.4
1037.435	-29.42
1037.593	-15.66
1037.751	1
1037.909	50.79
1038.067	50.79
