Data from calibration3_FLMT105791__7__17-25-35-058.txt Node

Date: Mon Mar 20 17:25:35 GMT 2023
User: antho
Spectrometer: FLMT10579
Trigger mode: 0
Integration Time (sec): 1.000000E-1
Scans to average: 10
Electric dark correction enabled: true
Nonlinearity correction enabled: false
Boxcar width: 0
XAxis mode: Wavelengths
Number of Pixels in Spectrum: 3648
>>>>>Begin Spectral Data<<<<<
345.248	-167.28
345.464	-167.28
345.681	-167.28
345.898	-156.43
346.114	-165.15
346.331	-30.69
346.548	17.55
346.764	-1.05
346.981	-14.03
347.197	18.52
347.414	6.7
347.631	-22.56
347.847	70.64
348.064	-8.8
348.28	17.74
348.497	-45.61
348.713	-8.41
348.93	17.74
349.146	77.03
349.363	113.07
349.579	136.51
349.796	101.83
350.012	118.11
350.229	166.54
350.445	111.13
350.661	140.19
350.878	158.4
351.094	156.27
351.311	163.05
351.527	165.96
351.743	160.34
351.96	140
352.176	184.75
352.392	164.6
352.609	192.31
352.825	128.57
353.041	157.24
353.257	116.17
353.474	180.49
353.69	156.85
353.906	164.02
354.122	138.84
354.339	214.78
354.555	204.9
354.771	182.04
354.987	243.46
355.203	249.47
355.42	151.82
355.636	161.12
355.852	173.32
356.068	170.8
356.284	138.84
356.5	259.73
356.716	171.77
356.932	158.6
357.148	209.17
357.364	152.59
357.58	215.75
357.796	250.63
358.012	232.61
358.228	181.65
358.444	109.97
358.66	214.78
358.876	187.27
359.092	147.75
359.308	208.2
359.524	247.72
359.74	220.02
359.956	235.9
360.172	255.28
360.388	322.12
360.604	260.51
360.819	320.38
361.035	253.15
361.251	263.42
361.467	207.81
361.683	287.44
361.898	230.28
362.114	279.5
362.33	279.11
362.546	321.54
362.762	271.36
362.977	306.81
363.193	275.43
363.409	332.78
363.624	246.95
363.84	276.4
364.056	273.1
364.271	337.04
364.487	345.76
364.703	299.65
364.918	307.01
365.134	324.06
365.35	324.83
365.565	461.43
365.781	363.78
365.996	392.64
366.212	476.34
366.427	425.19
366.643	410.47
366.858	430.04
367.074	401.17
367.289	462.01
367.505	547.06
367.72	384.9
367.936	431.59
368.151	446.89
368.367	429.07
368.582	436.82
368.798	381.99
369.013	460.07
369.228	423.84
369.444	434.49
369.659	503.08
369.874	446.7
370.09	488.55
370.305	450.77
370.52	482.16
370.736	530.01
370.951	444.96
371.166	522.46
371.381	522.26
371.597	506.57
371.812	438.56
372.027	464.91
372.242	471.11
372.458	545.12
372.673	427.52
372.888	431.39
373.103	461.43
373.318	501.53
373.533	447.67
373.749	425.39
373.964	351.96
374.179	462.01
374.394	364.55
374.609	443.99
374.824	392.26
375.039	465.3
375.254	382.96
375.469	480.41
375.684	487.77
375.899	552.49
376.114	518.39
376.329	512.19
376.544	494.17
376.759	517.61
376.974	503.08
377.189	522.65
377.404	532.92
377.619	579.03
377.834	548.22
378.049	586.2
378.264	607.12
378.478	711.36
378.693	645.1
378.908	674.55
379.123	630.76
379.338	682.88
379.553	565.66
379.767	605.57
379.982	581.74
380.197	603.83
380.412	586.59
380.626	639.48
380.841	701.28
381.056	723.37
381.271	755.34
381.485	654.78
381.7	639.48
381.915	668.54
382.129	579.8
382.344	571.09
382.559	575.74
382.773	537.57
382.988	460.07
383.202	505.21
383.417	459.49
383.632	554.81
383.846	483.12
384.061	499.98
384.275	499.4
384.49	591.62
384.704	669.9
384.919	685.2
385.133	729.57
385.348	734.61
385.562	689.85
385.777	750.5
385.991	658.66
386.206	663.7
386.42	678.62
386.634	706.32
386.849	741
387.063	789.83
387.277	720.08
387.492	726.08
387.706	712.33
387.92	697.41
388.135	784.4
388.349	800.68
388.563	778.4
388.778	818.89
388.992	820.63
389.206	810.56
389.42	930.1
389.635	872.36
389.849	948.51
390.063	1024.07
390.277	1002.37
390.491	1073.28
390.706	1039.18
390.92	1030.46
391.134	1051.39
391.348	1115.52
391.562	1078.9
391.776	1113.97
391.99	1105.25
392.205	1173.83
392.419	1048.09
392.633	1032.01
392.847	970.79
393.061	848.53
393.275	863.26
393.489	699.35
393.703	593.75
393.917	615.26
394.131	628.82
394.345	744.1
394.559	893.87
394.773	989
394.986	1080.45
395.2	1165.12
395.414	1267.41
395.628	1238.55
395.842	1300.54
396.056	1302.29
396.27	1159.69
396.484	1175.77
396.697	1023.1
396.911	932.23
397.125	792.35
397.339	795.83
397.553	801.26
397.766	974.47
397.98	1134.7
398.194	1319.53
398.408	1419.89
398.621	1533.23
398.835	1673.51
399.049	1659.17
399.262	1786.27
399.476	1807.77
399.69	1834.32
399.903	1887.02
400.117	1837.22
400.331	1851.76
400.544	1866.67
400.758	2041.24
400.971	1936.42
401.185	1983.5
401.398	1940.69
401.612	2066.04
401.826	2084.83
402.039	2075.92
402.253	2067.98
402.466	2158.65
402.68	2127.07
402.893	2258.82
403.106	2136.76
403.32	2094.13
403.533	2115.45
403.747	2058.87
403.96	2164.46
404.174	2193.33
404.387	2159.81
404.6	2165.24
404.814	2240.41
405.027	2121.45
405.24	2154.58
405.454	2176.28
405.667	2242.93
405.88	2225.49
406.094	2259.98
406.307	2283.23
406.52	2169.69
406.733	2116.8
406.947	2180.35
407.16	2276.64
407.373	2317.14
407.586	2282.84
407.799	2296.79
408.012	2316.75
408.226	2290.4
408.439	2473.68
408.652	2419.63
408.865	2558.55
409.078	2614.93
409.291	2615.12
409.504	2595.94
409.717	2624.81
409.93	2596.33
410.143	2416.53
410.357	2305.71
410.57	2222.2
410.783	2273.35
410.996	2365.57
411.209	2465.55
411.421	2694.36
411.634	2746.67
411.847	2733.31
412.06	2793.75
412.273	2795.5
412.486	2829.79
412.699	2865.83
412.912	2886.56
413.125	2817.2
413.338	2800.54
413.55	2775.93
413.763	2722.26
413.976	2798.99
414.189	2816.81
414.402	2843.16
414.615	3005.52
414.827	2844.52
415.04	2851.3
415.253	2897.8
415.466	2929.57
415.678	2959.41
415.891	2928.6
416.104	2898.18
416.316	2962.9
416.529	3037.1
416.742	3130.68
416.954	3114.6
417.167	3062.29
417.38	2989.44
417.592	2974.71
417.805	2922.21
418.017	2926.47
418.23	2950.5
418.442	2938.68
418.655	2990.21
418.868	2965.22
419.08	3028.19
419.293	3071.98
419.505	3106.66
419.718	3069.26
419.93	3157.22
420.142	3072.17
420.355	3059.58
420.567	3055.12
420.78	3137.85
420.992	3137.07
421.205	3295.17
421.417	3339.35
421.629	3366.66
421.842	3367.25
422.054	3392.63
422.266	3444.74
422.479	3368.99
422.691	3193.07
422.903	3220.58
423.115	3121.38
423.328	3092.71
423.54	3158.77
423.752	3161.1
423.964	3290.91
424.177	3362.21
424.389	3357.17
424.601	3479.62
424.813	3462.18
425.025	3416.07
425.238	3447.65
425.45	3394.95
425.662	3372.28
425.874	3687.12
426.086	3411.03
426.298	3467.8
426.51	3436.61
426.722	3472.45
426.934	3485.24
427.146	3485.24
427.358	3427.31
427.57	3418.59
427.782	3302.92
427.994	3284.32
428.206	3328.69
428.418	3577.46
428.63	3607.69
428.842	3651.67
429.054	3502.48
429.266	3472.64
429.478	3404.45
429.69	3344
429.902	3265.53
430.114	3226.78
430.325	3058.8
430.537	2884.43
430.749	2827.66
430.961	2673.05
431.173	2699.01
431.384	2822.24
431.596	2905.35
431.808	3339.93
432.02	3728.58
432.231	3983.75
432.443	4226.52
432.655	4062.02
432.867	3996.15
433.078	3986.27
433.29	4036.26
433.502	4176.53
433.713	4247.83
433.925	4340.83
434.136	4143.01
434.348	3930.28
434.56	3843.67
434.771	4040.13
434.983	3936.86
435.194	4236.98
435.406	4368.14
435.617	4381.13
435.829	4576.04
436.04	4531.28
436.252	4481.49
436.463	4706.04
436.675	4819.19
436.886	4910.25
437.098	4988.91
437.309	4951.13
437.521	4840.89
437.732	4707.2
437.943	4671.36
438.155	4638.81
438.366	4565.77
438.578	4642.88
438.789	4416
439	4431.5
439.211	4392.17
439.423	4475.29
439.634	4691.7
439.845	4790.13
440.057	4870.92
440.268	5040.25
440.479	4957.52
440.69	4966.44
440.902	4856
441.113	4843.02
441.324	4989.3
441.535	5165.03
441.746	5350.83
441.957	5294.06
442.168	5350.06
442.38	5439.95
442.591	5473.67
442.802	5347.54
443.013	5530.63
443.224	5593.98
443.435	5553.49
443.646	5438.99
443.857	5469.4
444.068	5474.44
444.279	5430.85
444.49	5734.84
444.701	5606.58
444.912	5862.52
445.123	5869.69
445.334	5694.34
445.545	5692.41
445.756	5560.66
445.967	5497.3
446.178	5369.24
446.388	5335.91
446.599	5461.46
446.81	5514.55
447.021	5563.56
447.232	5669.93
447.443	5795.48
447.653	5989.81
447.864	6067.89
448.075	6077.96
448.286	6021.39
448.496	5926.84
448.707	6040.57
448.918	5889.84
449.129	6004.53
449.339	6000.27
449.55	6123.11
449.761	6076.22
449.971	6088.43
450.182	6240.9
450.393	6248.46
450.603	6213.2
450.814	6533.85
451.024	6523
451.235	6677.03
451.446	6670.64
451.656	6642.93
451.867	6496.65
452.077	6389.32
452.288	6549.74
452.498	6417.21
452.709	6369.55
452.919	6232.19
453.13	6075.83
453.34	6041.54
453.55	5863.29
453.761	6178.71
453.971	6095.98
454.182	6263.77
454.392	6308.72
454.602	6568.14
454.813	6601.27
455.023	6430.97
455.233	6288.95
455.444	6405.98
455.654	6196.54
455.864	6385.05
456.075	6517.58
456.285	6483.67
456.495	6549.54
456.705	6588.1
456.916	6811.49
457.126	6868.65
457.336	6772.55
457.546	6680.13
457.756	6767.51
457.967	6950.21
458.177	6701.25
458.387	6694.47
458.597	6553.81
458.807	6720.82
459.017	6569.69
459.227	6614.26
459.437	6610.19
459.647	6755.69
459.857	6729.34
460.068	6838.81
460.278	6944.98
460.488	6836.87
460.698	6947.69
460.908	6982.96
461.117	7059.1
461.327	7148.42
461.537	7284.04
461.747	7241.22
461.957	7201.5
462.167	7376.26
462.377	7358.44
462.587	7296.63
462.797	7495.42
463.007	7397.38
463.216	7537.46
463.426	7734.11
463.636	7522.74
463.846	7280.55
464.056	7354.76
464.265	7290.63
464.475	7356.11
464.685	7560.32
464.895	7391.57
465.104	7269.51
465.314	7591.32
465.524	7435.94
465.733	7417.14
465.943	7649.06
466.153	7804.06
466.362	7847.07
466.572	7790.11
466.782	7623.49
466.991	7804.25
467.201	7607.4
467.41	7481.08
467.62	7798.83
467.829	7751.16
468.039	8019.89
468.249	7890.28
468.458	8046.24
468.668	7986.57
468.877	8167.53
469.086	8254.33
469.296	8452.92
469.505	8524.6
469.715	8403.71
469.924	8273.7
470.134	8399.06
470.343	8210.93
470.552	8281.84
470.762	8198.53
470.971	8383.94
471.18	8405.06
471.39	8540.68
471.599	8450.2
471.808	8594.35
472.018	8858.62
472.227	9031.25
472.436	9326.52
472.645	9285.26
472.855	9176.95
473.064	9559.21
473.273	9541.58
473.482	9249.99
473.691	9468.35
473.901	9333.3
474.11	9178.31
474.319	9502.64
474.528	9459.63
474.737	9987.98
474.946	9793.65
475.155	9936.44
475.364	10138.13
475.573	9903.7
475.783	10187.15
475.992	10010.84
476.201	10110.81
476.41	10150.92
476.619	10053.66
476.828	10094.73
477.037	9993.98
477.245	10094.54
477.454	10220.86
477.663	10517.49
477.872	10815.86
478.081	11001.86
478.29	10822.06
478.499	11027.04
478.708	11255.08
478.917	11228.93
479.125	10922.61
479.334	11069.28
479.543	11384.12
479.752	11500.17
479.961	11437.4
480.169	11789.44
480.378	11836.32
480.587	12148.84
480.796	11948.5
481.004	11935.33
481.213	12087.23
481.422	12243.39
481.63	12386.57
481.839	12465.42
482.048	12716.13
482.256	12629.53
482.465	12960.25
482.674	12856.02
482.882	12946.11
483.091	13005.78
483.299	12742.87
483.508	13085.61
483.716	13332.25
483.925	13267.92
484.134	12917.63
484.342	13339.61
484.551	13260.75
484.759	13122.81
484.967	13587.22
485.176	13529.29
485.384	13530.26
485.593	13301.64
485.801	13219.29
486.01	12678.35
486.218	12079.48
486.426	11679.78
486.635	11399.62
486.843	11487.19
487.051	11820.44
487.26	12102.53
487.468	12396.25
487.676	12769.99
487.885	13163.88
488.093	13464.58
488.301	13985.18
488.509	13914.07
488.717	14207.98
488.926	14191.52
489.134	13981.69
489.342	14109.17
489.55	13917.17
489.758	14274.44
489.967	14726.06
490.175	14684.8
490.383	15232.71
490.591	15518.49
490.799	15325.33
491.007	15274.56
491.215	15317.58
491.423	15072.1
491.631	15136.23
491.839	15045.17
492.047	14984.72
492.255	14601.68
492.463	14672.78
492.671	14453.85
492.879	14931.63
493.087	15118.4
493.295	15255.38
493.503	15419.29
493.711	15857.55
493.919	15718.24
494.127	15707.78
494.334	15662.64
494.542	15672.52
494.75	16164.25
494.958	15947.25
495.166	16407.21
495.374	16495.56
495.581	16583.13
495.789	16443.44
495.997	16590.69
496.205	15930.59
496.412	16215.4
496.62	16505.83
496.828	16299.68
497.035	16619.94
497.243	16662.57
497.451	16706.16
497.658	16733.09
497.866	16636.8
498.074	16887.9
498.281	16465.91
498.489	16513.96
498.696	16257.06
498.904	16089.08
499.112	16139.06
499.319	16575.38
499.527	16655.4
499.734	16830.74
499.942	16655.59
500.149	16750.53
500.357	16753.44
500.564	16396.94
500.771	16344.44
500.979	16036.57
501.186	15985.62
501.394	16331.07
501.601	15944.54
501.808	15967.98
502.016	16049.94
502.223	15929.04
502.43	16098.96
502.638	16025.92
502.845	16418.64
503.052	16616.84
503.26	16554.84
503.467	16753.82
503.674	16766.61
503.881	16709.65
504.089	16547.68
504.296	16430.07
504.503	16281.27
504.71	16214.43
504.917	16462.82
505.125	16632.15
505.332	16839.65
505.539	16853.22
505.746	17250.2
505.953	17407.91
506.16	17547.02
506.367	17497.81
506.574	17838.03
506.781	17708.8
506.988	17688.27
507.195	17479.02
507.402	17438.14
507.609	17478.44
507.816	17196.92
508.023	17220.95
508.23	17054.52
508.437	16862.71
508.644	17019.45
508.851	17140.16
509.058	17555.16
509.265	17491.42
509.472	17776.42
509.679	17944.21
509.885	17863.22
510.092	17769.83
510.299	17765.38
510.506	17439.69
510.713	17612.9
510.92	17545.67
511.126	17729.34
511.333	17920.18
511.54	17961.64
511.746	17963.97
511.953	18175.15
512.16	18320.85
512.367	18173.02
512.573	17943.04
512.78	17894.8
512.987	17835.71
513.193	17542.96
513.4	17372.85
513.606	17545.67
513.813	17640.22
514.02	17460.03
514.226	17463.13
514.433	17506.73
514.639	17389.9
514.846	17406.75
515.052	17348.82
515.259	17440.27
515.465	17598.37
515.672	17584.22
515.878	17683.23
516.085	17996.91
516.291	17848.11
516.497	17751.43
516.704	17213.97
516.91	16763.51
517.117	16011.97
517.323	15608.39
517.529	15573.9
517.736	15463.85
517.942	15658.57
518.148	16004.8
518.354	16242.14
518.561	16228.96
518.767	16132.86
518.973	16226.44
519.179	16562.21
519.386	16777.07
519.592	16757.7
519.798	16816.02
520.004	17579.19
520.21	17473.4
520.417	17532.49
520.623	17683.81
520.829	17765.38
521.035	17814.2
521.241	17674.51
521.447	17908.75
521.653	18137.37
521.859	17974.43
522.065	18160.23
522.271	18279.78
522.477	18102.69
522.683	18286.56
522.889	17976.76
523.095	17809.94
523.301	17772.16
523.507	17776.03
523.713	17720.82
523.919	17814.4
524.125	18234.25
524.331	18462.87
524.537	18702.73
524.742	18750
524.948	18765.5
525.154	18884.46
525.36	18780.03
525.566	18557.8
525.772	18769.38
525.977	18549.67
526.183	18410.17
526.389	18527.97
526.595	17907.98
526.8	17682.65
527.006	17158.17
527.212	16766.42
527.417	16677.68
527.623	16768.16
527.829	16992.52
528.034	17440.27
528.24	17462.74
528.446	17933.94
528.651	18260.4
528.857	18423.34
529.062	18518.86
529.268	18784.88
529.473	18959.64
529.679	19120.83
529.884	19034.23
530.09	18898.8
530.295	18514.4
530.501	18874.97
530.706	18805.41
530.912	18961.96
531.117	19037.13
531.323	18986.18
531.528	19287.84
531.733	19344.81
531.939	19141.56
532.144	19070.65
532.35	19014.08
532.555	19025.51
532.76	18489.02
532.966	18346.43
533.171	18161.98
533.376	18062.97
533.581	18143.77
533.787	18354.56
533.992	18699.24
534.197	18264.66
534.402	18711.83
534.607	18799.21
534.813	18650.8
535.018	18719.78
535.223	19075.11
535.428	18907.71
535.633	19151.64
535.838	19348.49
536.043	19535.84
536.249	19746.64
536.454	19496.7
536.659	19493.8
536.864	19431.02
537.069	19088.86
537.274	18972.04
537.479	18936.77
537.684	18898.61
537.889	18913.72
538.094	19345.19
538.299	19098.75
538.504	19484.69
538.708	19178.96
538.913	19580.4
539.118	19533.51
539.323	19382.2
539.528	19125.29
539.733	19010.78
539.938	19079.37
540.142	18944.33
540.347	18933.48
540.552	18689.55
540.757	18363.48
540.962	18638.6
541.166	18420.82
541.371	18421.21
541.576	18536.3
541.781	18665.33
541.985	19078.02
542.19	18724.43
542.395	19339.19
542.599	19252.19
542.804	19009.82
543.008	19346.16
543.213	19202.59
543.418	18947.24
543.622	19153.38
543.827	18805.99
544.031	19168.69
544.236	19234.37
544.44	19475.2
544.645	19471.9
544.849	19402.35
545.054	19498.64
545.258	19620.7
545.463	19648.99
545.667	19329.11
545.872	19647.83
546.076	19450.59
546.281	19425.02
546.485	19435.09
546.689	19485.66
546.894	19474.23
547.098	19650.73
547.302	19492.63
547.507	19400.6
547.711	19524.99
547.915	19476.75
548.119	19168.69
548.324	19122.58
548.528	19235.34
548.732	19280.09
548.936	19407.19
549.141	19401.96
549.345	19469.38
549.549	19574.01
549.753	19687.74
549.957	19652.67
550.161	19708.08
550.366	19814.06
550.57	19653.25
550.774	19507.75
550.978	19598.23
551.182	19539.13
551.386	19428.5
551.59	19479.07
551.794	19410.68
551.998	19543.2
552.202	19616.63
552.406	19605.98
552.61	19890.98
552.814	19682.89
553.018	19550.56
553.222	19355.46
553.426	19467.83
553.63	19570.33
553.833	19563.16
554.037	19381.81
554.241	19328.34
554.445	19688.51
554.649	19585.83
554.853	19379.68
555.056	19671.27
555.26	19804.37
555.464	19611.4
555.668	19663.52
555.871	19685.22
556.075	19774.73
556.279	19519.76
556.483	19408.35
556.686	19318.84
556.89	19269.63
557.094	19236.5
557.297	18970.87
557.501	19044.88
557.704	18878.26
557.908	18998.38
558.112	19092.93
558.315	19176.63
558.519	18994.9
558.722	18723.46
558.926	18774.99
559.129	18333.64
559.333	18556.84
559.536	18460.35
559.74	18365.61
559.943	18155.58
560.147	18533.78
560.35	18259.63
560.553	18730.05
560.757	18643.83
560.96	18698.27
561.164	18809.48
561.367	18938.52
561.57	19027.64
561.774	18743.03
561.977	18662.81
562.18	18597.52
562.384	18730.24
562.587	18519.83
562.79	18808.13
562.993	18629.88
563.197	18625.81
563.4	18801.73
563.603	18806.38
563.806	18800.76
564.009	18772.09
564.212	18851.72
564.416	18571.56
564.619	18555.29
564.822	18392.15
565.025	18631.23
565.228	18523.7
565.431	18724.04
565.634	18407.84
565.837	18367.74
566.04	18061.04
566.243	17942.27
566.446	17815.56
566.649	18267.18
566.852	17924.64
567.055	18179.22
567.258	18175.54
567.461	18321.43
567.664	18351.46
567.867	18435.94
568.07	18233.66
568.273	18351.85
568.475	18473.52
568.678	17867.29
568.881	18074.02
569.084	17724.5
569.287	17601.08
569.489	17841.71
569.692	17857.8
569.895	17841.13
570.098	17642.35
570.3	17677.22
570.503	17586.36
570.706	17478.83
570.909	17334.87
571.111	17174.06
571.314	17044.06
571.516	17147.13
571.719	17382.34
571.922	17193.05
572.124	17407.53
572.327	17479.79
572.529	17517.19
572.732	17620.07
572.935	17685.55
573.137	18012.41
573.34	17643.7
573.542	17911.85
573.745	17746.78
573.947	17858.18
574.15	17674.32
574.352	17644.67
574.554	17843.07
574.757	17513.51
574.959	17267.25
575.162	17594.88
575.364	17329.25
575.566	17495.68
575.769	17184.91
575.971	17356.76
576.173	16823.18
576.376	17200.22
576.578	17318.98
576.78	17357.15
576.982	17252.14
577.185	17311.82
577.387	17265.12
577.589	17460.81
577.791	17359.67
577.993	17267.06
578.196	17315.69
578.398	17116.52
578.6	16965.59
578.802	17070.02
579.004	16882.67
579.206	17013.64
579.408	17286.82
579.61	17105.28
579.812	17409.85
580.014	17156.43
580.216	17207
580.418	17549.16
580.62	17485.03
580.822	17408.3
581.024	17572.6
581.226	17601.47
581.428	17622.39
581.63	17851.6
581.832	17729.15
582.034	17814.01
582.236	17839.58
582.438	18024.22
582.64	18006.59
582.841	18133.3
583.043	18342.36
583.245	18011.44
583.447	18176.7
583.649	18120.32
583.85	18155.78
584.052	18240.25
584.254	18072.47
584.456	18058.52
584.657	18137.18
584.859	18243.35
585.061	18036.24
585.262	18115.09
585.464	17852.37
585.666	17962.81
585.867	17690.78
586.069	17650.68
586.27	17612.9
586.472	17667.15
586.674	17637.5
586.875	17671.41
587.077	17726.63
587.278	17771.58
587.48	17661.14
587.681	17876.39
587.883	17752.59
588.084	17460.03
588.285	17535.4
588.487	17115.94
588.688	17179.29
588.89	16550.2
589.091	16273.52
589.292	15822.87
589.494	15517.72
589.695	15266.43
589.896	15021.14
590.098	15267.01
590.299	15240.85
590.5	15566.15
590.702	15845.73
590.903	15993.37
591.104	16277.01
591.305	16474.25
591.507	16448.48
591.708	16411.47
591.909	16528.69
592.11	16477.15
592.311	16679.62
592.512	16332.04
592.714	16377.76
592.915	16590.88
593.116	16492.65
593.317	16816.21
593.518	16767.97
593.719	16899.13
593.92	16818.15
594.121	16695.89
594.322	16751.3
594.523	16630.79
594.724	16382.02
594.925	16491.88
595.126	16199.71
595.327	16315.37
595.528	16510.48
595.729	16478.9
595.929	16473.28
596.13	16612.97
596.331	16827.45
596.532	16696.28
596.733	16899.33
596.934	16890.22
597.135	16865.42
597.335	16869.49
597.536	16828.22
597.737	16750.34
597.938	16702.48
598.138	16783.08
598.339	16792.38
598.54	16860.97
598.74	16629.83
598.941	16642.61
599.142	16884.99
599.342	16774.36
599.543	16725.54
599.744	16836.55
599.944	16786.57
600.145	16995.62
600.345	16833.65
600.546	16906.11
600.746	16832.48
600.947	17058.39
601.147	16659.08
601.348	16963.26
601.548	16798
601.749	16695.51
601.949	16504.08
602.15	16714.49
602.35	16442.86
602.551	16609.68
602.751	16598.05
602.951	16716.43
603.152	16676.32
603.352	16810.01
603.552	16808.27
603.753	16969.85
603.953	17107.02
604.153	17009.38
604.354	17087.84
604.554	16972.18
604.754	17142.48
604.954	17038.63
605.155	17236.84
605.355	17026.43
605.555	17056.46
605.755	17039.79
605.955	17014.8
606.155	17043.86
606.356	16930.71
606.556	16886.35
606.756	16913.66
606.956	16857.28
607.156	17028.17
607.356	16896.62
607.556	16995.43
607.756	16986.51
607.956	17041.15
608.156	16939.05
608.356	16695.31
608.556	16829.58
608.756	16627.11
608.956	16733.48
609.156	16678.26
609.356	16663.73
609.556	16593.21
609.755	16679.42
609.955	16688.14
610.155	16505.44
610.355	16747.04
610.555	16464.75
610.755	16324.87
610.954	16422.52
611.154	16606.38
611.354	16565.11
611.554	16427.75
611.753	16628.86
611.953	16465.53
612.153	16439.95
612.352	16598.63
612.552	16336.49
612.752	16290.77
612.951	16455.65
613.151	16257.25
613.351	16386.48
613.55	16390.74
613.75	16336.88
613.949	16070.86
614.149	16132.86
614.348	16108.06
614.548	16054.78
614.747	16064.08
614.947	16246.59
615.146	15970.5
615.346	16303.55
615.545	16305.49
615.745	16188.66
615.944	16118.72
616.144	16108.06
616.343	15846.89
616.542	15890.49
616.742	15756.22
616.941	15665.93
617.14	15545.81
617.34	15770.94
617.539	15775.79
617.738	15747.69
617.938	15926.52
618.137	15883.9
618.336	15976.9
618.535	16161.73
618.734	16161.34
618.934	15980.38
619.133	16064.47
619.332	16168.32
619.531	15855.22
619.73	16137.9
619.929	16135.96
620.128	16184.79
620.328	16194.09
620.527	16118.72
620.726	16165.41
620.925	16168.9
621.124	16250.27
621.323	16105.74
621.522	15902.11
621.721	16101.48
621.92	15905.99
622.119	15948.8
622.318	15766.49
622.517	15761.26
622.715	15800.59
622.914	15675.23
623.113	15812.79
623.312	15434.99
623.511	15711.66
623.71	15571
623.909	15447.39
624.107	15720.38
624.306	15488.65
624.505	15408.06
624.704	15323.39
624.902	15170.91
625.101	15381.12
625.3	15161.41
625.499	15062.41
625.697	15159.48
625.896	15058.15
626.095	14947.91
626.293	14901.6
626.492	15125.96
626.69	15045.36
626.889	15308.86
627.088	15207.33
627.286	15117.43
627.485	14962.24
627.683	14735.36
627.882	14587.15
628.08	14432.54
628.279	14248.87
628.477	14260.68
628.676	14092.51
628.874	14275.8
629.073	14226.58
629.271	14265.14
629.469	14327.72
629.668	14273.67
629.866	14200.43
630.065	14277.93
630.263	14337.8
630.461	14216.9
630.66	14384.29
630.858	14285.29
631.056	14507.91
631.254	14540.26
631.453	14359.3
631.651	14389.91
631.849	14406.77
632.047	14260.49
632.245	14337.8
632.444	14409.29
632.642	14533.48
632.84	14752.41
633.038	14562.54
633.236	14402.89
633.434	14611.17
633.632	14712.12
633.83	14563.9
634.028	14766.36
634.227	14623.96
634.425	14898.5
634.623	14653.6
634.821	14830.3
635.019	14864.4
635.216	14959.72
635.414	14926.21
635.612	14784.19
635.81	14759.2
636.008	14858.2
636.206	14865.18
636.404	14728.58
636.602	14733.81
636.8	14588.5
636.997	14815.96
637.195	14854.13
637.393	14819.84
637.591	15026.18
637.789	14959.72
637.986	15023.08
638.184	14990.72
638.382	15086.05
638.58	15015.52
638.777	15122.47
638.975	15047.88
639.173	15092.25
639.37	14968.83
639.568	14983.17
639.765	14948.87
639.963	14908.77
640.161	14752.03
640.358	14967.86
640.556	14694.87
640.753	14788.65
640.951	14603.81
641.148	14640.23
641.346	14705.53
641.543	14579.2
641.741	14634.03
641.938	14560.22
642.136	14699.72
642.333	14520.69
642.531	14825.65
642.728	14648.76
642.925	14793.88
643.123	14730.13
643.32	14798.91
643.517	14600.71
643.715	14647.4
643.912	14722.77
644.109	14624.35
644.306	14766.56
644.504	14703.2
644.701	14780.9
644.898	14687.9
645.095	14562.54
645.293	14618.73
645.49	14562.35
645.687	14540.84
645.884	14512.17
646.081	14217.09
646.278	14334.11
646.475	14208.95
646.672	14077.79
646.87	14011.72
647.067	13977.04
647.264	14007.84
647.461	13827.08
647.658	13708.5
647.855	13831.73
648.052	13591.87
648.249	13582.96
648.446	13625.77
648.642	13765.08
648.839	13501.19
649.036	13552.93
649.233	13585.09
649.43	13454.11
649.627	13180.35
649.824	13366.54
650.021	13264.24
650.217	13518.44
650.414	13626.94
650.611	13616.28
650.808	13855.75
651.004	13807.7
651.201	13836.96
651.398	13981.69
651.595	13746.87
651.791	13579.47
651.988	13720.71
652.185	13363.25
652.381	13775.73
652.578	13534.71
652.775	13637.98
652.971	13847.42
653.168	13663.75
653.364	13927.63
653.561	13653.48
653.757	13824.37
653.954	13968.51
654.15	13660.26
654.347	13823.4
654.543	13880.55
654.74	13582.76
654.936	13601.94
655.133	13387.66
655.329	13476.4
655.525	13139.28
655.722	13198.76
655.918	12868.22
656.115	12401.87
656.311	12098.08
656.507	11679.78
656.704	11617.58
656.9	11734.41
657.096	11976.6
657.292	11994.04
657.489	12147.1
657.685	12370.87
657.881	12454.96
658.077	12701.41
658.273	12923.83
658.47	13102.46
658.666	13072.24
658.862	13341.74
659.058	13359.18
659.254	13367.9
659.45	13470
659.646	13350.46
659.842	13437.84
660.038	13644.96
660.234	13407.81
660.43	13521.93
660.626	13629.84
660.822	13695.91
661.018	13691.65
661.214	13656.19
661.41	13581.99
661.606	13738.34
661.802	13933.06
661.998	13812.74
662.194	13735.63
662.39	13795.3
662.586	13801.31
662.781	13650.57
662.977	13884.62
663.173	13669.75
663.369	13728.27
663.564	13692.04
663.76	13671.5
663.956	13746.87
664.152	13576.76
664.347	13528.71
664.543	13642.82
664.739	13458.76
664.934	13487.83
665.13	13603.49
665.326	13580.05
665.521	13692.04
665.717	13532.39
665.912	13609.31
666.108	13393.08
666.304	13646.89
666.499	13421.56
666.695	13287.3
666.89	13450.05
667.086	13531.42
667.281	13445.78
667.477	13549.63
667.672	13442.68
667.867	13328.18
668.063	13421.76
668.258	13299.12
668.454	13413.23
668.649	13391.92
668.844	13396.57
669.04	13450.05
669.235	13347.75
669.43	13451.98
669.626	13166.21
669.821	13258.82
670.016	13270.64
670.211	13389.98
670.407	13197.01
670.602	13388.82
670.797	13141.6
670.992	13379.33
671.187	13134.43
671.382	13269.47
671.578	13034.85
671.773	13148.38
671.968	12941.85
672.163	13060.23
672.358	13055.38
672.553	12925.38
672.748	13082.31
672.943	13151.09
673.138	13072.63
673.333	13060.03
673.528	12948.05
673.723	13121.26
673.918	12923.05
674.113	12998.23
674.308	13141.79
674.503	12925.77
674.698	13012.95
674.892	12827.15
675.087	12917.43
675.282	12972.26
675.477	12949.02
675.672	12974.4
675.867	12817.46
676.061	12779.1
676.256	12760.31
676.451	12922.28
676.646	12835.67
676.84	12764.18
677.035	12642.7
677.23	12872.87
677.424	12828.31
677.619	12740.54
677.814	12893.8
678.008	12762.24
678.203	12723.49
678.397	12593.68
678.592	12693.08
678.787	12802.35
678.981	12667.89
679.176	12727.56
679.37	12652.58
679.565	12611.31
679.759	12721.56
679.954	12586.51
680.148	12560.36
680.342	12757.98
680.537	12519.67
680.731	12540.6
680.926	12625.65
681.12	12530.33
681.314	12505.33
681.509	12579.54
681.703	12513.08
681.897	12370.1
682.092	12396.64
682.286	12502.23
682.48	12481.5
682.674	12411.95
682.869	12400.32
683.063	12471.62
683.257	12370.1
683.451	12328.83
683.645	12399.55
683.839	12256.37
684.034	12183.33
684.228	12146.9
684.422	12008.18
684.616	12079.67
684.81	12101.56
685.004	12018.45
685.198	12084.52
685.392	12031.43
685.586	12099.43
685.78	11890.57
685.974	11923.32
686.168	11870.04
686.362	11864.61
686.556	11137.28
686.75	10713.95
686.944	10053.66
687.138	9266.85
687.331	8778.41
687.525	8461.25
687.719	8259.17
687.913	8329.89
688.107	8549.79
688.301	8513.37
688.494	8692.58
688.688	8589.32
688.882	8578.85
689.076	8603.46
689.269	8564.13
689.463	8748.58
689.657	8747.22
689.85	8775.51
690.044	8929.15
690.238	9028.93
690.431	9069.61
690.625	9150.21
690.818	9408.09
691.012	9392.98
691.205	9609.2
691.399	9658.99
691.593	9622.96
691.786	9735.52
691.98	9975.77
692.173	10051.72
692.366	10074.58
692.56	10202.26
692.753	10051.14
692.947	10063.93
693.14	10067.8
693.333	10064.7
693.527	9967.83
693.72	10046.1
693.914	9972.09
694.107	9757.22
694.3	9862.43
694.493	9671.78
694.687	9902.73
694.88	9785.9
695.073	9921.13
695.266	9867.66
695.46	9910.67
695.653	9957.56
695.846	9937.02
696.039	9993.01
696.232	9952.52
696.425	10194.32
696.618	10234.42
696.812	10403.95
697.005	10458.2
697.198	10645.75
697.391	10566.89
697.584	10685.85
697.777	10617.27
697.97	10542.87
698.163	10605.64
698.356	10546.55
698.549	10619.59
698.742	10561.08
698.935	10281.5
699.127	10290.8
699.32	10192.38
699.513	10131.93
699.706	10120.89
699.899	10263.48
700.092	10068.96
700.285	10018.39
700.477	9884.9
700.67	9978.29
700.863	9855.84
701.056	10054.63
701.248	9894.98
701.441	9919.2
701.634	9839.37
701.826	9899.82
702.019	9702.97
702.212	9826.39
702.404	9762.07
702.597	9740.95
702.79	9786.48
702.982	9830.65
703.175	9919
703.367	9899.82
703.56	9926.56
703.752	10046.88
703.945	9985.46
704.137	9946.32
704.33	9966.47
704.522	10021.88
704.715	10091.44
704.907	10086.01
705.1	10158.28
705.292	10118.95
705.484	10010.06
705.677	10055.98
705.869	10087.76
706.061	10093.18
706.254	10150.34
706.446	9949.42
706.638	10007.93
706.831	10132.51
707.023	9973.25
707.215	10250.7
707.407	10163.32
707.599	10056.37
707.792	10204.39
707.984	10057.73
708.176	10079.81
708.368	10091.05
708.56	10138.13
708.752	10108.49
708.944	9986.62
709.136	10073.03
709.329	9995.34
709.521	10090.66
709.713	9955.81
709.905	10070.51
710.097	10133.09
710.289	9992.05
710.481	9998.63
710.672	9986.04
710.864	10037.58
711.056	10005.8
711.248	9936.63
711.44	9962.21
711.632	9988.17
711.824	10017.62
712.016	9943.22
712.207	9974.22
712.399	9916.48
712.591	9947.1
712.783	9956.78
712.975	9908.93
713.166	9870.76
713.358	9858.17
713.55	9849.64
713.741	9806.44
713.933	9834.33
714.125	9727.58
714.316	9650.66
714.508	9774.27
714.7	9640.98
714.891	9569.29
715.083	9615.01
715.274	9455.75
715.466	9527.44
715.657	9488.69
715.849	9296.88
716.04	9288.16
716.232	9152.54
716.423	8971.97
716.615	8771.24
716.806	8508.14
716.998	8238.83
717.189	7943.75
717.381	7707.18
717.572	7467.52
717.763	7337.9
717.955	7222.43
718.146	7072.27
718.337	6887.25
718.528	6736.12
718.72	6514.09
718.911	6480.57
719.102	6427.68
719.293	6417.6
719.485	6280.43
719.676	6151.78
719.867	6166.12
720.058	6109.16
720.249	6062.85
720.44	6114.78
720.632	6249.24
720.823	6346.3
721.014	6640.02
721.205	6845.4
721.396	6945.56
721.587	7195.69
721.778	7421.79
721.969	7598.49
722.16	7599.07
722.351	7751.36
722.542	7896.67
722.733	7828.47
722.924	7662.43
723.115	7727.91
723.305	7516.54
723.496	7523.12
723.687	7179.61
723.878	7153.84
724.069	7048.83
724.26	7052.71
724.45	6830.09
724.641	6821.95
724.832	6845.2
725.023	6677.42
725.213	6736.7
725.404	6641.77
725.595	6576.67
725.785	6616.39
725.976	6702.22
726.167	6655.91
726.357	6609.02
726.548	6781.27
726.739	6624.33
726.929	6800.45
727.12	6687.88
727.31	6718.49
727.501	6555.94
727.691	6538.69
727.882	6571.05
728.072	6668.7
728.263	6693.11
728.453	6773.9
728.644	6792.5
728.834	6618.52
729.024	6611.16
729.215	6516.41
729.405	6574.15
729.596	6659.4
729.786	6738.84
729.976	6762.28
730.167	6683.42
730.357	6679.35
730.547	6618.71
730.737	6728.37
730.928	6725.08
731.118	6762.09
731.308	6709.77
731.498	6721.4
731.688	6876.01
731.879	6862.83
732.069	6915.34
732.259	7034.11
732.449	7133.11
732.639	7200.92
732.829	7263.31
733.019	7334.61
733.209	7459.58
733.399	7476.43
733.589	7583.77
733.779	7653.52
733.969	7662.62
734.159	7864.31
734.349	7781.97
734.539	7865.09
734.729	7836.03
734.919	7844.36
735.109	8033.45
735.299	7787.4
735.488	7848.23
735.678	7798.44
735.868	7784.3
736.058	7747.87
736.248	7705.83
736.437	7677.73
736.627	7649.64
736.817	7797.86
737.007	7660.1
737.196	7744.77
737.386	7774.03
737.576	7732.76
737.765	7841.26
737.955	7737.99
738.144	7942.2
738.334	7854.82
738.524	7663.59
738.713	7796.89
738.903	7712.22
739.092	7804.45
739.282	7767.05
739.471	7801.93
739.661	7720.36
739.85	7837.96
740.04	7775.77
740.229	7796.31
740.419	7847.07
740.608	7871.87
740.797	7793.4
740.987	7903.45
741.176	7884.46
741.365	7825.56
741.555	7619.03
741.744	7881.36
741.933	7707.18
742.123	7843.58
742.312	7839.9
742.501	7901.32
742.69	7852.49
742.88	7775.77
743.069	7938.91
743.258	7929.8
743.447	7885.82
743.636	7931.35
743.825	7880.01
744.014	7878.46
744.204	7931.35
744.393	7761.43
744.582	7963.51
744.771	7920.69
744.96	7887.95
745.149	7847.65
745.338	7878.26
745.527	7901.32
745.716	7806.77
745.905	7778.48
746.094	7944.52
746.283	7911.2
746.471	7791.27
746.66	7831.18
746.849	7910.62
747.038	7843.39
747.227	7746.71
747.416	7812
747.604	7791.27
747.793	7760.08
747.982	7754.65
748.171	7802.12
748.359	7739.35
748.548	7771.9
748.737	7745.74
748.926	7727.91
749.114	7509.37
749.303	7728.88
749.491	7630.27
749.68	7474.49
749.869	7694.2
750.057	7592.68
750.246	7558.19
750.434	7538.43
750.623	7554.51
750.811	7500.84
751	7540.76
751.188	7448.53
751.377	7478.56
751.565	7444.27
751.754	7400.09
751.942	7366
752.131	7471.97
752.319	7369.68
752.507	7365.61
752.696	7407.46
752.884	7406.68
753.072	7288.5
753.261	7388.86
753.449	7350.11
753.637	7270.48
753.825	7441.36
754.014	7345.46
754.202	7341
754.39	7288.3
754.578	7326.28
754.766	7266.02
754.955	7226.3
755.143	7310.78
755.331	7276.1
755.519	7234.25
755.707	7164.3
755.895	7168.57
756.083	7214.48
756.271	7105.99
756.459	7129.62
756.647	7167.02
756.835	7043.21
757.023	7028.87
757.211	7034.11
757.399	7044.18
757.587	6979.47
757.775	6939.36
757.963	6967.26
758.151	6989.16
758.339	6896.55
758.526	6845.01
758.714	6828.54
758.902	6662.69
759.09	6498.2
759.278	6028.17
759.465	5553.1
759.653	4902.69
759.841	4358.46
760.028	3834.37
760.216	3240.92
760.404	2993.9
760.591	2488.21
760.779	2132.5
760.967	1852.92
761.154	1572.37
761.342	1587.1
761.529	1593.49
761.717	1658.98
761.905	1670.6
762.092	1832.19
762.28	1711.87
762.467	1701.21
762.655	1591.17
762.842	1639.99
763.029	1666.34
763.217	1641.73
763.404	1638.83
763.592	1662.08
763.779	1689.2
763.966	1730.47
764.154	1803.9
764.341	1893.02
764.528	1901.16
764.716	2057.9
764.903	2154.58
765.09	2333.22
765.277	2440.94
765.465	2707.54
765.652	2774.96
765.839	2947.4
766.026	3208.95
766.213	3328.88
766.4	3571.26
766.588	3814.41
766.775	4003.51
766.962	4119.18
767.149	4332.88
767.336	4542.32
767.523	4613.82
767.71	4817.64
767.897	5075.52
768.084	5139.06
768.271	5283.41
768.458	5375.63
768.645	5500.98
768.832	5505.63
769.019	5553.88
769.206	5637.58
769.392	5688.92
769.579	5883.25
769.766	5874.34
769.953	5837.91
770.14	5904.17
770.327	5907.08
770.513	6003.37
770.7	6053.94
770.887	5946.8
771.073	6002.98
771.26	6030.11
771.447	5936.14
771.634	5976.83
771.82	6130.08
772.007	5976.25
772.193	6069.83
772.38	6079.71
772.567	6047.74
772.753	5966.56
772.94	6123.69
773.126	6042.51
773.313	6111.29
773.499	6021.58
773.686	6078.54
773.872	6033.21
774.059	6064.79
774.245	5960.36
774.432	5954.74
774.618	5893.71
774.804	5938.08
774.991	5922.19
775.177	5888.29
775.363	5909.02
775.55	5933.43
775.736	5820.67
775.922	5928.97
776.109	5831.9
776.295	5878.99
776.481	5922.38
776.667	5957.45
776.853	5877.63
777.04	5833.45
777.226	5818.73
777.412	5937.69
777.598	5745.49
777.784	5854.96
777.97	5783.47
778.156	5822.22
778.342	5761.57
778.528	5697.83
778.715	5653.27
778.901	5724.18
779.087	5736.77
779.272	5680.98
779.458	5668.19
779.644	5709.26
779.83	5690.08
780.016	5709.46
780.202	5638.35
780.388	5612.58
780.574	5575.58
780.76	5626.73
780.946	5619.56
781.131	5574.22
781.317	5599.21
781.503	5461.27
781.689	5557.75
781.874	5665.28
782.06	5486.07
782.246	5536.83
782.432	5538.38
782.617	5577.13
782.803	5579.45
782.989	5449.45
783.174	5442.47
783.36	5393.26
783.545	5467.27
783.731	5388.8
783.916	5269.26
784.102	5395.97
784.288	5344.63
784.473	5391.9
784.659	5314.99
784.844	5365.56
785.029	5349.28
785.215	5321.96
785.4	5238.46
785.586	5366.91
785.771	5238.65
785.956	5307.24
786.142	5238.84
786.327	5227.22
786.512	5194.48
786.698	5153.98
786.883	5096.25
787.068	5187.11
787.254	5162.31
787.439	5086.75
787.624	5086.56
787.809	5036.77
787.994	5021.07
788.18	5134.61
788.365	4966.05
788.55	4953.07
788.735	5018.75
788.92	4946.29
789.105	4954.42
789.29	4952.87
789.475	4895.91
789.66	4915.87
789.845	4856.39
790.03	4792.26
790.215	4861.62
790.4	4869.37
790.585	4881.96
790.77	4786.25
790.955	4790.51
791.14	4838.18
791.325	4858.52
791.51	4703.13
791.695	4794.19
791.879	4833.91
792.064	4734.13
792.249	4845.92
792.434	4758.16
792.618	4783.34
792.803	4804.46
792.988	4783.54
793.173	4790.71
793.357	4806.01
793.542	4759.13
793.727	4794.58
793.911	4854.06
794.096	4800.39
794.281	4875.37
794.465	4908.12
794.65	4795.36
794.834	4865.49
795.019	4877.51
795.203	4871.5
795.388	4849.61
795.572	4911.61
795.757	4878.67
795.941	4859.29
796.126	4835.08
796.31	4739.56
796.494	4841.86
796.679	4742.46
796.863	4773.46
797.048	4881.77
797.232	4770.36
797.416	4899.4
797.601	4862.2
797.785	4922.65
797.969	4954.04
798.153	4866.66
798.338	4906.57
798.522	4973.6
798.706	4966.44
798.89	4951.13
799.074	5028.05
799.258	5022.04
799.443	4938.54
799.627	4928.46
799.811	4989.88
799.995	4899.01
800.179	4856.97
800.363	4840.11
800.547	4860.65
800.731	4957.52
800.915	4798.46
801.099	4788.96
801.283	4892.81
801.467	4849.8
801.651	4829.84
801.835	4949
802.019	4819.19
802.202	4882.54
802.386	4800.39
802.57	4769.78
802.754	4786.44
802.938	4734.71
803.121	4787.22
803.305	4879.06
803.489	4840.69
803.673	4803.69
803.856	4824.61
804.04	4790.9
804.224	4802.72
804.407	4806.98
804.591	4798.26
804.775	4781.41
804.958	4811.24
805.142	4904.44
805.326	4856.77
805.509	4822.48
805.693	4870.53
805.876	4921.49
806.06	4899.01
806.243	4928.07
806.427	4935.24
806.61	4931.75
806.794	4838.56
806.977	4909.28
807.16	4907.54
807.344	4919.16
807.527	4843.79
807.71	4861.62
807.894	4859.68
808.077	4899.21
808.26	4799.62
808.444	4798.84
808.627	4871.11
808.81	4747.11
808.993	4704.49
809.177	4652.18
809.36	4669.03
809.543	4693.64
809.726	4594.25
809.909	4564.99
810.092	4542.32
810.276	4521.01
810.459	4575.65
810.642	4524.5
810.825	4451.07
811.008	4432.47
811.191	4355.94
811.374	4394.49
811.557	4355.74
811.74	4398.56
811.923	4267.2
812.106	4243.37
812.289	4207.33
812.472	4163.16
812.654	4161.8
812.837	4161.42
813.02	4051.37
813.203	4002.74
813.386	3861.11
813.569	3833.4
813.751	3654.96
813.934	3744.47
814.117	3658.06
814.3	3604.39
814.482	3534.84
814.665	3473.81
814.848	3343.03
815.03	3322.88
815.213	3238.21
815.396	3271.92
815.578	3194.04
815.761	3125.84
815.943	3211.67
816.126	3083.99
816.309	3059.77
816.491	2971.42
816.674	2857.88
816.856	2956.31
817.039	2962.51
817.221	3044.66
817.403	2970.45
817.586	2949.72
817.768	2964.83
817.951	2879
818.133	2839.67
818.315	2901.28
818.498	2977.81
818.68	3017.53
818.862	3003.2
819.045	3044.08
819.227	3033.61
819.409	3005.52
819.591	3037.68
819.774	3045.24
819.956	2974.13
820.138	3082.05
820.32	3039.62
820.502	3192.1
820.684	3318.23
820.866	3356.4
821.048	3385.85
821.231	3445.13
821.413	3439.13
821.595	3370.73
821.777	3416.85
821.959	3414.13
822.141	3438.55
822.323	3245.19
822.505	3133.59
822.686	2990.99
822.868	2895.28
823.05	2701.53
823.232	2665.69
823.414	2532.97
823.596	2663.36
823.778	2657.74
823.96	2714.71
824.141	2739.7
824.323	2802.86
824.505	2901.67
824.687	2964.83
824.868	3105.88
825.05	3184.74
825.232	3260.1
825.413	3303.5
825.595	3304.08
825.777	3268.05
825.958	3236.85
826.14	3263.01
826.321	3308.73
826.503	3296.33
826.685	3317.65
826.866	3376.93
827.048	3362.21
827.229	3277.15
827.411	3185.51
827.592	3085.73
827.773	3089.61
827.955	2989.05
828.136	3018.5
828.318	2999.71
828.499	3015.59
828.68	2941
828.862	2949.91
829.043	2972.58
829.224	2941.39
829.406	2892.57
829.587	2912.33
829.768	2968.32
829.949	2970.84
830.131	2957.66
830.312	3056.48
830.493	3008.23
830.674	3001.06
830.855	2986.34
831.036	2987.11
831.218	3035.74
831.399	3072.75
831.58	2984.6
831.761	3020.05
831.942	2991.38
832.123	2987.7
832.304	2899.15
832.485	2905.16
832.666	2978.98
832.847	3001.26
833.028	2953.4
833.209	2966.58
833.389	2934.8
833.57	2904.38
833.751	2898.96
833.932	2945.65
834.113	2982.85
834.294	2942.36
834.475	2997.77
834.655	3060.74
834.836	3008.81
835.017	3034.58
835.198	2960.96
835.378	3059.96
835.559	3096.19
835.74	3019.86
835.92	3070.43
836.101	3012.3
836.281	3093.68
836.462	3081.47
836.643	3119.44
836.823	3096.58
837.004	3105.49
837.184	3148.7
837.365	3110.53
837.545	3124.09
837.726	3069.07
837.906	3147.92
838.087	3098.52
838.267	3100.65
838.448	3067.52
838.628	3117.31
838.808	3083.41
838.989	3136.3
839.169	3074.88
839.349	3127.77
839.53	3137.07
839.71	3120.02
839.89	3047.95
840.07	3139.59
840.251	3109.37
840.431	3173.31
840.611	3092.71
840.791	3067.13
840.971	3088.64
841.151	3116.34
841.332	2988.66
841.512	3141.72
841.692	3014.43
841.872	3119.83
842.052	3059.19
842.232	3068.68
842.412	3039.62
842.592	3033.81
842.772	3076.43
842.952	3073.33
843.132	3013.66
843.312	3008.62
843.492	3002.61
843.672	3015.59
843.851	2943.33
844.031	2998.16
844.211	3001.65
844.391	2950.5
844.571	2978.59
844.751	3017.73
844.93	2994.67
845.11	2998.74
845.29	3007.07
845.47	3025.86
845.649	2977.81
845.829	3021.79
846.009	2959.99
846.188	3008.43
846.368	3020.44
846.547	2946.23
846.727	3037.49
846.907	2917.37
847.086	2980.53
847.266	2977.04
847.445	2953.98
847.625	2920.46
847.804	2859.43
847.984	2916.78
848.163	2908.84
848.343	2897.02
848.522	2947.4
848.701	2928.41
848.881	2876.68
849.06	2877.45
849.239	2866.8
849.419	2890.43
849.598	2759.65
849.777	2769.34
849.957	2711.99
850.136	2642.63
850.315	2634.69
850.494	2628.49
850.674	2676.73
850.853	2711.61
851.032	2734.66
851.211	2736.41
851.39	2736.99
851.569	2658.52
851.748	2656
851.927	2723.23
852.107	2683.71
852.286	2668.59
852.465	2629.07
852.644	2744.35
852.823	2719.94
853.002	2706.37
853.181	2727.88
853.359	2654.06
853.538	2612.02
853.717	2671.5
853.896	2553.31
854.075	2415.56
854.254	2373.52
854.433	2252.62
854.611	2293.5
854.79	2249.52
854.969	2313.65
855.148	2334.96
855.327	2328.57
855.505	2390.57
855.684	2382.04
855.863	2423.5
856.041	2437.65
856.22	2473.88
856.399	2440.36
856.577	2617.64
856.756	2567.26
856.934	2648.64
857.113	2676.54
857.291	2607.76
857.47	2561.84
857.648	2582.76
857.827	2570.94
858.005	2594.97
858.184	2554.28
858.362	2649.99
858.541	2567.07
858.719	2538.4
858.898	2538.2
859.076	2510.88
859.254	2596.13
859.433	2544.4
859.611	2473.49
859.789	2478.33
859.967	2556.41
860.146	2578.69
860.324	2505.65
860.502	2533.55
860.68	2427.96
860.859	2498.29
861.037	2500.42
861.215	2499.45
861.393	2491.12
861.571	2469.03
861.749	2412.46
861.927	2489.38
862.105	2498.29
862.283	2398.51
862.461	2413.62
862.639	2385.72
862.817	2408.39
862.995	2438.42
863.173	2398.9
863.351	2419.05
863.529	2401.03
863.707	2420.21
863.885	2440.36
864.063	2331.67
864.241	2377.78
864.418	2462.45
864.596	2367.12
864.774	2313.26
864.952	2354.53
865.129	2379.33
865.307	2313.07
865.485	2275.67
865.663	2332.05
865.84	2206.89
866.018	2172.41
866.196	2059.45
866.373	2064.68
866.551	2051.9
866.728	1962.38
866.906	2023.03
867.084	2076.11
867.261	2093.36
867.439	2116.61
867.616	2146.25
867.794	2130.75
867.971	2140.44
868.149	2153.81
868.326	2183.06
868.503	2184.42
868.681	2164.27
868.858	2203.02
869.035	2168.14
869.213	2184.03
869.39	2146.06
869.567	2239.25
869.745	2167.18
869.922	2156.52
870.099	2158.07
870.276	2219.88
870.454	2186.16
870.631	2197.98
870.808	2163.11
870.985	2196.82
871.162	2230.34
871.339	2165.43
871.517	2112.15
871.694	2122.81
871.871	2147.61
872.048	2144.12
872.225	2146.25
872.402	2127.85
872.579	2080.38
872.756	2143.73
872.933	2053.64
873.11	2089.68
873.287	2099.75
873.463	2064.3
873.64	2026.32
873.817	2070.69
873.994	2079.8
874.171	2038.14
874.348	2051.9
874.524	1962.97
874.701	2036.4
874.878	1968.97
875.055	2018.57
875.231	2005.98
875.408	2005.01
875.585	1942.62
875.762	1980.4
875.938	1934.1
876.115	2010.43
876.291	1971.1
876.468	1948.05
876.645	1883.34
876.821	1938.36
876.998	1938.17
877.174	1944.17
877.351	1918.99
877.527	1884.5
877.704	1931.58
877.88	1924.6
878.057	1915.11
878.233	1949.21
878.409	1878.69
878.586	1905.04
878.762	1905.23
878.938	1885.27
879.115	1841.49
879.291	1944.37
879.467	1841.29
879.644	1870.74
879.82	1886.24
879.996	1863.38
880.172	1819.21
880.349	1870.74
880.525	1868.81
880.701	1795.37
880.877	1788.79
881.053	1827.73
881.229	1826.18
881.405	1875.59
881.581	1764.76
881.757	1792.27
881.933	1860.67
882.109	1848.85
882.285	1830.64
882.461	1787.43
882.637	1830.64
882.813	1794.79
882.989	1794.79
883.165	1863.38
883.341	1803.9
883.517	1889.15
883.693	1827.73
883.869	1816.11
884.044	1821.92
884.22	1827.34
884.396	1897.09
884.572	1834.12
884.747	1862.8
884.923	1876.55
885.099	1831.8
885.275	1838.19
885.45	1794.21
885.626	1788.4
885.801	1757.4
885.977	1776.19
886.153	1760.69
886.328	1816.88
886.504	1733.18
886.679	1804.67
886.855	1756.82
887.03	1785.69
887.206	1821.72
887.381	1796.54
887.557	1804.87
887.732	1815.91
887.908	1828.7
888.083	1807.97
888.258	1798.67
888.434	1824.44
888.609	1795.76
888.784	1839.36
888.96	1787.82
889.135	1785.69
889.31	1781.43
889.485	1831.61
889.661	1777.16
889.836	1875.97
890.011	1838.39
890.186	1787.62
890.361	1792.47
890.537	1826.37
890.712	1792.47
890.887	1818.62
891.062	1819.59
891.237	1856.21
891.412	1742.68
891.587	1769.22
891.762	1799.83
891.937	1868.03
892.112	1746.94
892.287	1794.79
892.462	1750.81
892.637	1706.44
892.812	1660.14
892.987	1690.56
893.161	1650.84
893.336	1664.6
893.511	1666.92
893.686	1663.82
893.861	1586.9
894.035	1650.26
894.21	1642.31
894.385	1562.3
894.56	1604.34
894.734	1539.24
894.909	1505.92
895.084	1507.85
895.258	1433.65
895.433	1458.84
895.608	1416.79
895.782	1382.69
895.957	1359.83
896.131	1344.14
896.306	1321.47
896.48	1292.79
896.655	1268.38
896.829	1200.96
897.004	1209.87
897.178	1179.26
897.353	1203.86
897.527	1261.02
897.701	1204.83
897.876	1169.77
898.05	1258.7
898.224	1240.1
898.399	1231.18
898.573	1177.51
898.747	1057.59
898.921	1079.87
899.096	935.14
899.27	1020.77
899.444	986.48
899.618	1060.69
899.792	1076.57
899.967	1071.15
900.141	1115.13
900.315	1011.67
900.489	1020
900.663	1030.65
900.837	1064.75
901.011	1006.24
901.185	1107.57
901.359	1046.15
901.533	1079.09
901.707	1062.82
901.881	1053.52
902.055	1024.07
902.229	1040.92
902.403	1116.48
902.576	1055.07
902.75	1046.74
902.924	1182.36
903.098	1174.03
903.272	1216.65
903.446	1300.35
903.619	1256.56
903.793	1323.02
903.967	1296.28
904.14	1338.52
904.314	1320.89
904.488	1331.35
904.661	1369.71
904.835	1343.56
905.009	1359.06
905.182	1374.75
905.356	1337.16
905.529	1299.77
905.703	1299.96
905.876	1266.64
906.05	1252.5
906.223	1202.12
906.397	1159.69
906.57	1103.12
906.744	1087.23
906.917	1061.27
907.09	1068.82
907.264	1022.32
907.437	981.44
907.61	956.06
907.784	993.26
907.957	999.85
908.13	946.37
908.304	991.71
908.477	921.57
908.65	924.29
908.823	897.55
908.996	964.39
909.17	921.19
909.343	910.53
909.516	893.87
909.689	874.88
909.862	882.24
910.035	892.9
910.208	867.91
910.381	880.5
910.554	951.8
910.727	924.09
910.9	918.86
911.073	911.11
911.246	994.62
911.419	975.63
911.592	943.86
911.765	935.52
911.938	901.23
912.11	927.97
912.283	924.87
912.456	975.63
912.629	945.41
912.802	871.2
912.974	806.68
913.147	787.11
913.32	743.91
913.493	768.51
913.665	774.52
913.838	809.2
914.01	809.4
914.183	821.99
914.356	795.45
914.528	872.94
914.701	901.62
914.873	828.77
915.046	766.77
915.218	731.7
915.391	669.7
915.563	668.54
915.736	765.61
915.908	790.41
916.081	778.98
916.253	790.02
916.425	807.07
916.598	832.06
916.77	799.71
916.942	752.63
917.115	670.09
917.287	740.61
917.459	705.74
917.632	659.24
917.804	658.85
917.976	731.7
918.148	772.39
918.32	810.17
918.493	806.49
918.665	823.73
918.837	850.08
919.009	871.59
919.181	880.11
919.353	849.11
919.525	836.71
919.697	858.03
919.869	875.66
920.041	942.69
920.213	998.88
920.385	902.78
920.557	891.16
920.729	883.6
920.901	867.91
921.073	837.49
921.244	835.74
921.416	893.87
921.588	839.23
921.76	838.07
921.932	889.22
922.103	861.9
922.275	857.83
922.447	863.06
922.619	786.15
922.79	848.53
922.962	820.44
923.134	865
923.305	751.27
923.477	747.78
923.648	741.78
923.82	762.7
923.991	707.29
924.163	710.2
924.335	747.4
924.506	691.02
924.677	765.61
924.849	732.09
925.02	740.61
925.192	755.92
925.363	730.15
925.535	736.93
925.706	693.92
925.877	755.34
926.049	718.72
926.22	717.75
926.391	751.85
926.562	766.77
926.734	723.76
926.905	763.48
927.076	663.31
927.247	677.07
927.419	606.35
927.59	591.43
927.761	589.49
927.932	593.37
928.103	588.33
928.274	524.97
928.445	511.41
928.616	499.21
928.787	491.65
928.958	534.66
929.129	505.99
929.3	486.81
929.471	454.45
929.642	374.24
929.813	311.85
929.984	423.64
930.155	327.35
930.326	398.26
930.496	337.62
930.667	283.18
930.838	338.98
931.009	305.07
931.18	302.75
931.35	277.56
931.521	287.83
931.692	225.25
931.863	161.12
932.033	211.3
932.204	194.64
932.374	217.69
932.545	150.65
932.716	239
932.886	220.21
933.057	127.6
933.227	142.9
933.398	209.94
933.568	122.17
933.739	66.37
933.909	99.51
934.08	132.44
934.25	70.06
934.421	103.77
934.591	126.24
934.761	104.93
934.932	67.92
935.102	102.8
935.272	86.52
935.443	102.61
935.613	95.82
935.783	131.09
935.953	74.32
936.123	218.47
936.294	61.34
936.464	87.69
936.634	76.84
936.804	43.12
936.974	71.22
937.144	125.27
937.314	84.01
937.484	76.84
937.655	75.09
937.825	116.75
937.995	57.07
938.165	113.07
938.334	114.62
938.504	124.69
938.674	136.12
938.844	174.1
939.014	204.32
939.184	193.86
939.354	219.63
939.524	228.54
939.694	190.57
939.863	188.44
940.033	233.97
940.203	236.1
940.373	199.67
940.542	229.32
940.712	199.67
940.882	204.9
941.051	226.41
941.221	205.1
941.391	243.07
941.56	200.84
941.73	156.08
941.899	292.87
942.069	167.51
942.238	194.64
942.408	163.64
942.577	182.62
942.747	150.07
942.916	95.24
943.086	124.89
943.255	193.47
943.425	168.67
943.594	107.06
943.763	76.64
943.933	129.92
944.102	71.22
944.271	121.98
944.441	134.77
944.61	124.11
944.779	124.11
944.948	216.92
945.117	105.12
945.287	100.67
945.456	46.22
945.625	102.41
945.794	117.33
945.963	106.67
946.132	139.61
946.301	109.97
946.47	151.82
946.639	96.21
946.808	109.19
946.977	155.3
947.146	186.11
947.315	121.59
947.484	145.81
947.653	120.43
947.822	132.25
947.991	115.78
948.16	188.44
948.329	153.56
948.498	146.59
948.666	161.12
948.835	150.65
949.004	105.51
949.173	104.35
949.341	119.27
949.51	148.33
949.679	184.75
949.847	150.27
950.016	183.59
950.185	183.79
950.353	141.74
950.522	151.04
950.69	200.25
950.859	155.3
951.028	193.67
951.196	176.04
951.365	120.24
951.533	102.02
951.701	156.66
951.87	142.32
952.038	76.64
952.207	111.32
952.375	174.1
952.543	86.52
952.712	133.99
952.88	107.06
953.048	190.18
953.217	173.71
953.385	133.8
953.553	180.1
953.721	103.38
953.89	139.22
954.058	96.79
954.226	93.31
954.394	140
954.562	96.41
954.73	127.4
954.898	148.14
955.067	157.82
955.235	133.41
955.403	172.35
955.571	195.99
955.739	157.44
955.907	122.76
956.075	106.87
956.243	90.4
956.41	153.56
956.578	73.93
956.746	96.99
956.914	146.97
957.082	176.62
957.25	185.53
957.418	135.35
957.585	156.08
957.753	222.73
957.921	133.22
958.089	155.3
958.256	164.6
958.424	139.03
958.592	135.93
958.759	90.01
958.927	160.15
959.095	110.94
959.262	122.56
959.43	145.62
959.597	115.39
959.765	137.87
959.932	99.51
960.1	163.25
960.267	141.74
960.435	146.78
960.602	208.39
960.77	120.82
960.937	116.75
961.104	158.4
961.272	98.34
961.439	135.54
961.606	172.55
961.774	201.42
961.941	144.07
962.108	195.22
962.275	156.85
962.443	187.66
962.61	195.8
962.777	228.73
962.944	201.03
963.111	191.15
963.278	180.69
963.446	142.71
963.613	163.83
963.78	190.76
963.947	194.83
964.114	184.75
964.281	250.43
964.448	210.33
964.615	166.35
964.782	168.09
964.949	223.12
965.116	167.12
965.282	203.94
965.449	166.54
965.616	136.7
965.783	180.69
965.95	193.67
966.117	105.12
966.283	151.62
966.45	198.9
966.617	189.6
966.784	240.17
966.95	217.69
967.117	201.61
967.284	165.57
967.45	182.04
967.617	268.26
967.784	247.14
967.95	252.95
968.117	197.93
968.283	264
968.45	293.45
968.616	207.62
968.783	268.45
968.949	229.51
969.116	292.09
969.282	231.45
969.449	238.62
969.615	236.29
969.781	194.64
969.948	213.04
970.114	177.2
970.28	290.54
970.447	224.86
970.613	274.07
970.779	215.37
970.945	256.63
971.112	239.78
971.278	208
971.444	209.36
971.61	290.54
971.776	198.51
971.942	232.61
972.108	259.35
972.275	181.65
972.441	245.4
972.607	279.3
972.773	171.19
972.939	256.63
973.105	202.77
973.271	161.89
973.437	179.72
973.602	176.23
973.768	242.3
973.934	181.85
974.1	233
974.266	133.99
974.432	199.48
974.598	204.9
974.763	213.62
974.929	174.29
975.095	244.43
975.261	155.69
975.426	133.8
975.592	179.33
975.758	276.01
975.923	153.17
976.089	125.47
976.255	239.58
976.42	207.62
976.586	199.48
976.751	212.07
976.917	290.93
977.082	193.47
977.248	134.96
977.413	134.96
977.579	146.59
977.744	198.9
977.91	171
978.075	147.75
978.24	205.1
978.406	154.34
978.571	153.37
978.736	155.3
978.902	199.67
979.067	146.97
979.232	129.73
979.397	174.87
979.563	225.44
979.728	167.32
979.893	177.39
980.058	155.5
980.223	207.62
980.388	181.65
980.554	197.93
980.719	168.29
980.884	179.72
981.049	211.68
981.214	179.33
981.379	204.52
981.544	142.52
981.709	183.2
981.874	164.22
982.039	168.48
982.204	222.92
982.368	167.51
982.533	144.84
982.698	208.97
982.863	207.62
983.028	153.37
983.193	181.46
983.357	161.5
983.522	182.24
983.687	207.04
983.852	149.1
984.016	161.12
984.181	145.04
984.346	217.5
984.51	206.84
984.675	194.25
984.839	217.5
985.004	207.23
985.168	228.73
985.333	207.23
985.498	169.25
985.662	225.44
985.827	208.97
985.991	182.62
986.155	151.04
986.32	202.97
986.484	257.41
986.649	184.75
986.813	135.15
986.977	200.64
987.142	216.33
987.306	143.29
987.47	151.82
987.634	164.02
987.799	181.65
987.963	167.51
988.127	211.49
988.291	241.72
988.455	221.95
988.62	161.12
988.784	187.85
988.948	192.31
989.112	148.72
989.276	181.85
989.44	150.85
989.604	148.91
989.768	156.47
989.932	244.23
990.096	125.08
990.26	136.7
990.424	121.98
990.588	163.25
990.752	250.82
990.915	199.87
991.079	163.83
991.243	128.18
991.407	201.42
991.571	148.91
991.734	176.42
991.898	167.32
992.062	240.36
992.226	141.35
992.389	143.29
992.553	99.7
992.717	120.04
992.88	150.07
993.044	175.45
993.207	155.89
993.371	158.21
993.535	190.57
993.698	153.56
993.862	194.44
994.025	206.26
994.189	129.92
994.352	158.6
994.515	161.89
994.679	179.14
994.842	149.69
995.006	166.93
995.169	141.16
995.332	131.47
995.496	183.98
995.659	85.17
995.822	140.77
995.985	168.87
996.149	191.34
996.312	139.03
996.475	211.68
996.638	112.1
996.801	193.47
996.964	169.25
997.128	135.54
997.291	132.83
997.454	155.89
997.617	101.64
997.78	170.03
997.943	114.81
998.106	179.52
998.269	135.54
998.432	146
998.595	150.65
998.758	78.58
998.92	107.26
999.083	75.09
999.246	125.66
999.409	87.88
999.572	94.86
999.735	128.95
999.897	117.52
1000.06	120.62
1000.223	118.3
1000.386	121.79
1000.548	148.14
1000.711	146.2
1000.874	162.09
1001.036	75.67
1001.199	167.12
1001.361	104.93
1001.524	125.85
1001.687	163.83
1001.849	128.57
1002.012	115.59
1002.174	146.2
1002.337	152.98
1002.499	123.92
1002.661	175.07
1002.824	68.7
1002.986	115.01
1003.149	118.88
1003.311	79.16
1003.473	148.14
1003.636	71.8
1003.798	143.49
1003.96	125.47
1004.123	101.83
1004.285	109.19
1004.447	110.74
1004.609	115.01
1004.771	162.67
1004.933	67.54
1005.096	69.47
1005.258	89.24
1005.42	121.98
1005.582	117.14
1005.744	109.39
1005.906	47.58
1006.068	95.05
1006.23	82.65
1006.392	49.32
1006.554	66.57
1006.716	112.29
1006.878	109.58
1007.04	61.72
1007.202	79.16
1007.363	107.26
1007.525	126.44
1007.687	116.75
1007.849	131.47
1008.011	30.92
1008.172	63.08
1008.334	69.28
1008.496	106.67
1008.658	26.08
1008.819	74.51
1008.981	50.1
1009.143	68.12
1009.304	84.39
1009.466	140.19
1009.627	145.62
1009.789	165.38
1009.95	112.87
1010.112	65.99
1010.273	121.01
1010.435	49.32
1010.596	72.96
1010.758	65.99
1010.919	59.98
1011.081	41.77
1011.242	89.04
1011.403	90.79
1011.565	91.17
1011.726	95.44
1011.887	60.17
1012.049	45.84
1012.21	100.09
1012.371	132.25
1012.532	16.19
1012.693	93.89
1012.855	74.51
1013.016	96.21
1013.177	96.41
1013.338	51.46
1013.499	139.61
1013.66	94.27
1013.821	112.49
1013.982	84.39
1014.143	70.83
1014.304	66.96
1014.465	95.05
1014.626	96.6
1014.787	65.21
1014.948	165.57
1015.109	-9.57
1015.27	115.97
1015.431	54.94
1015.592	53.01
1015.752	92.92
1015.913	89.04
1016.074	94.66
1016.235	70.06
1016.395	71.22
1016.556	60.56
1016.717	72.96
1016.877	109.39
1017.038	48.74
1017.199	73.74
1017.359	68.7
1017.52	70.25
1017.681	61.72
1017.841	76.45
1018.002	55.14
1018.162	48.94
1018.323	144.65
1018.483	58.04
1018.644	46.81
1018.804	19.29
1018.964	20.26
1019.125	31.5
1019.285	67.15
1019.446	37.51
1019.606	20.65
1019.766	28.59
1019.926	75.48
1020.087	90.98
1020.247	6.31
1020.407	102.8
1020.567	105.51
1020.728	49.13
1020.888	12.32
1021.048	44.67
1021.208	27.82
1021.368	29.37
1021.528	94.08
1021.688	91.76
1021.848	96.79
1022.008	78.77
1022.168	39.25
1022.328	28.79
1022.488	55.52
1022.648	42.74
1022.808	45.84
1022.968	54.75
1023.128	16.19
1023.288	25.3
1023.448	67.34
1023.608	126.05
1023.767	55.91
1023.927	14.06
1024.087	14.45
1024.247	5.93
1024.406	28.01
1024.566	29.37
1024.726	-10.93
1024.885	50.68
1025.045	47.39
1025.205	32.47
1025.364	49.52
1025.524	55.52
1025.683	38.47
1025.843	60.56
1026.003	45.64
1026.162	106.09
1026.321	70.44
1026.481	27.43
1026.64	43.51
1026.8	57.27
1026.959	39.25
1027.119	16.78
1027.278	42.54
1027.437	29.56
1027.597	29.37
1027.756	57.27
1027.915	46.42
1028.074	63.66
1028.234	37.7
1028.393	43.12
1028.552	31.5
1028.711	-38.83
1028.87	62.31
1029.03	-34.18
1029.189	36.54
1029.348	-18.1
1029.507	19.49
1029.666	26.85
1029.825	14.84
1029.984	14.64
1030.143	36.54
1030.302	10.38
1030.461	-12.67
1030.62	41.77
1030.779	55.72
1030.938	20.46
1031.097	1.66
1031.255	54.17
1031.414	61.72
1031.573	98.15
1031.732	-15.77
1031.891	24.91
1032.049	76.26
1032.208	54.36
1032.367	8.25
1032.525	28.4
1032.684	17.55
1032.843	32.28
1033.001	10.19
1033.16	175.84
1033.319	75.09
1033.477	56.3
1033.636	7.67
1033.794	7.48
1033.953	40.41
1034.111	50.1
1034.27	14.26
1034.428	33.83
1034.587	8.25
1034.745	30.92
1034.903	24.14
1035.062	57.27
1035.22	-12.67
1035.378	75.87
1035.537	-13.45
1035.695	51.84
1035.853	4.96
1036.011	48.94
1036.17	32.08
1036.328	-24.11
1036.486	24.33
1036.644	50.49
1036.802	-41.35
1036.96	-1.63
1037.119	18.13
1037.277	22.2
1037.435	-2.02
1037.593	-15.39
1037.751	22.59
1037.909	51.07
1038.067	51.07
