Data from calibration3_FLMT105791__3__17-25-31-069.txt Node

Date: Mon Mar 20 17:25:31 GMT 2023
User: antho
Spectrometer: FLMT10579
Trigger mode: 0
Integration Time (sec): 1.000000E-1
Scans to average: 10
Electric dark correction enabled: true
Nonlinearity correction enabled: false
Boxcar width: 0
XAxis mode: Wavelengths
Number of Pixels in Spectrum: 3648
>>>>>Begin Spectral Data<<<<<
345.248	-161.39
345.464	-161.39
345.681	-161.39
345.898	-178.83
346.114	-159.07
346.331	-36.04
346.548	21.12
346.764	-13.17
346.981	14.92
347.197	-23.25
347.414	25.19
347.631	-28.09
347.847	41.07
348.064	6.59
348.28	39.52
348.497	-36.62
348.713	-11.24
348.93	62.77
349.146	99.78
349.363	111.4
349.579	127.29
349.796	127.29
350.012	138.34
350.229	126.32
350.445	142.79
350.661	116.44
350.878	138.14
351.094	185.03
351.311	148.41
351.527	161
351.743	118.38
351.96	148.99
352.176	194.52
352.392	180.96
352.609	171.27
352.825	124.77
353.041	123.8
353.257	149.38
353.474	178.25
353.69	183.28
353.906	179.02
354.122	143.57
354.339	209.05
354.555	201.88
354.771	169.53
354.987	225.72
355.203	227.85
355.42	178.83
355.636	187.35
355.852	198.78
356.068	182.32
356.284	177.47
356.5	251.87
356.716	214.09
356.932	179.99
357.148	209.83
357.364	172.24
357.58	179.8
357.796	235.02
358.012	249.35
358.228	195.68
358.444	105.2
358.66	235.02
358.876	184.25
359.092	156.35
359.308	183.67
359.524	203.82
359.74	225.91
359.956	239.86
360.172	243.35
360.388	306.12
360.604	232.88
360.819	316.97
361.035	236.95
361.251	266.21
361.467	238.7
361.683	295.85
361.898	240.44
362.114	274.35
362.33	263.69
362.546	280.93
362.762	276.28
362.977	297.21
363.193	262.72
363.409	334.02
363.624	286.55
363.84	275.51
364.056	278.41
364.271	340.03
364.487	343.13
364.703	312.32
364.918	297.98
365.134	327.82
365.35	322.4
365.565	422.76
365.781	341.96
365.996	418.11
366.212	478.94
366.427	442.13
366.643	383.43
366.858	411.52
367.074	388.66
367.289	472.16
367.505	515.76
367.72	376.84
367.936	418.88
368.151	444.07
368.367	449.3
368.582	421.59
368.798	398.93
369.013	466.93
369.228	428.38
369.444	440
369.659	482.24
369.874	478.75
370.09	528.15
370.305	408.42
370.52	468.29
370.736	506.46
370.951	458.02
371.166	503.94
371.381	514.01
371.597	482.43
371.812	446.01
372.027	469.26
372.242	475.46
372.458	516.34
372.673	431.86
372.888	453.37
373.103	486.31
373.318	530.48
373.533	463.25
373.749	406.68
373.964	356.3
374.179	444.46
374.394	380.71
374.609	450.27
374.824	374.13
375.039	449.69
375.254	388.27
375.469	478.56
375.684	473.91
375.899	530.09
376.114	508.59
376.329	542.1
376.544	517.89
376.759	533.77
376.974	499.87
377.189	501.61
377.404	531.84
377.619	598.29
377.834	521.76
378.049	555.86
378.264	598.87
378.478	656.61
378.693	683.35
378.908	667.46
379.123	638.59
379.338	648.86
379.553	599.65
379.767	567.68
379.982	584.34
380.197	577.56
380.412	582.21
380.626	651.77
380.841	725.58
381.056	704.46
381.271	741.47
381.485	669.59
381.7	621.54
381.915	645.57
382.129	581.63
382.344	562.25
382.559	527.77
382.773	575.43
382.988	457.05
383.202	488.63
383.417	441.74
383.632	552.18
383.846	493.09
384.061	499.48
384.275	466.16
384.49	588.99
384.704	629.1
384.919	696.72
385.133	708.92
385.348	773.05
385.562	687.42
385.777	743.41
385.991	704.27
386.206	653.51
386.42	697.88
386.634	755.81
386.849	759.1
387.063	775.38
387.277	755.61
387.492	732.36
387.706	706.21
387.92	738.56
388.135	781.58
388.349	787.58
388.563	751.16
388.778	766.85
388.992	787.78
389.206	795.72
389.42	909.26
389.635	877.29
389.849	956.14
390.063	1015.43
390.277	999.74
390.491	1084.6
390.706	1019.69
390.92	1031.7
391.134	1047.2
391.348	1081.5
391.562	1053.02
391.776	1143.5
391.99	1109.59
392.205	1113.27
392.419	1064.64
392.633	1029.96
392.847	979.59
393.061	858.3
393.275	820.91
393.489	682.77
393.703	576.79
393.917	647.12
394.131	600.42
394.345	761.04
394.559	890.07
394.773	945.49
394.986	1072.58
395.2	1109.2
395.414	1223.32
395.628	1217.31
395.842	1295.98
396.056	1297.91
396.27	1186.51
396.484	1149.11
396.697	1041.39
396.911	918.17
397.125	799.59
397.339	789.52
397.553	793.59
397.766	983.27
397.98	1162.29
398.194	1317.09
398.408	1401.76
398.621	1561.8
398.835	1631.55
399.049	1630.77
399.262	1771.62
399.476	1791.58
399.69	1802.24
399.903	1876.44
400.117	1818.12
400.331	1895.43
400.544	1858.42
400.758	1991.53
400.971	1929.92
401.185	1948.71
401.398	1918.49
401.612	2046.55
401.826	2065.73
402.039	2082.01
402.253	2082.2
402.466	2174.62
402.68	2125.41
402.893	2202.91
403.106	2166.09
403.32	2062.25
403.533	2090.34
403.747	2018.46
403.96	2145.75
404.174	2192.06
404.387	2136.84
404.6	2194.57
404.814	2214.72
405.027	2132.58
405.24	2146.53
405.454	2136.45
405.667	2246.69
405.88	2213.37
406.094	2256.57
406.307	2260.26
406.52	2133.54
406.733	2099.06
406.947	2129.67
407.16	2226.16
407.373	2265.29
407.586	2272.46
407.799	2274.2
408.012	2308.69
408.226	2272.85
408.439	2447.03
408.652	2404.21
408.865	2527.43
409.078	2606.09
409.291	2558.63
409.504	2531.31
409.717	2569.86
409.93	2555.14
410.143	2429.2
410.357	2261.61
410.57	2217.44
410.783	2232.36
410.996	2332.33
411.209	2439.67
411.421	2680.11
411.634	2715.17
411.847	2696.19
412.06	2779.11
412.273	2804.49
412.486	2825.22
412.699	2844.98
412.912	2886.06
413.125	2793.84
413.338	2774.65
413.55	2751.99
413.763	2688.24
413.976	2747.53
414.189	2782.99
414.402	2839.75
414.615	2974.02
414.827	2807.98
415.04	2867.27
415.253	2887.8
415.466	2944.96
415.678	2989.71
415.891	2870.37
416.104	2887.8
416.316	2941.86
416.529	2998.43
416.742	3081.94
416.954	3120.3
417.167	3040.28
417.38	2991.07
417.592	2980.41
417.805	2830.65
418.017	2868.82
418.23	2920.55
418.442	2881.6
418.655	2960.85
418.868	2938.37
419.08	3014.71
419.293	3083.49
419.505	3071.86
419.718	3086.39
419.93	3084.26
420.142	3028.85
420.355	3062.37
420.567	2985.26
420.78	3081.16
420.992	3084.26
421.205	3240.03
421.417	3296.42
421.629	3369.46
421.842	3312.69
422.054	3286.15
422.266	3361.51
422.479	3361.51
422.691	3167.19
422.903	3145.87
423.115	3073.41
423.328	3116.04
423.54	3139.09
423.752	3175.32
423.964	3296.61
424.177	3306.3
424.389	3295.64
424.601	3419.64
424.813	3394.06
425.025	3414.99
425.238	3406.66
425.45	3325.09
425.662	3343.88
425.874	3643.03
426.086	3358.61
426.298	3464.98
426.51	3402.4
426.722	3377.98
426.934	3489.19
427.146	3455.29
427.358	3396.78
427.57	3412.08
427.782	3282.66
427.994	3278.2
428.206	3299.32
428.418	3555.26
428.63	3589.36
428.842	3616.29
429.054	3481.83
429.266	3458.58
429.478	3384.57
429.69	3301.84
429.902	3225.7
430.114	3246.43
430.325	3056.75
430.537	2847.31
430.749	2798.29
430.961	2635.16
431.173	2721.76
431.384	2796.16
431.596	2927.71
431.808	3328.77
432.02	3695.73
432.231	3959.81
432.443	4184.36
432.655	4026.84
432.867	3915.24
433.078	3965.04
433.29	4036.14
433.502	4153.17
433.713	4204.51
433.925	4277.36
434.136	4123.72
434.348	3860.41
434.56	3801.71
434.771	3978.21
434.983	3893.35
435.194	4149.48
435.406	4284.72
435.617	4321.73
435.829	4446.89
436.04	4469.55
436.252	4433.32
436.463	4616.42
436.675	4821.01
436.886	4881.85
437.098	4926.99
437.309	4884.56
437.521	4752.23
437.732	4683.26
437.943	4591.03
438.155	4615.06
438.366	4541.82
438.578	4613.32
438.789	4365.13
439	4346.14
439.211	4387.41
439.423	4395.16
439.634	4591.42
439.845	4751.65
440.057	4791.37
440.268	4986.86
440.479	4921.37
440.69	4921.18
440.902	4806.09
441.113	4767.93
441.324	4928.54
441.535	5091.1
441.746	5265.47
441.957	5245.12
442.168	5348.78
442.38	5339.29
442.591	5460.38
442.802	5276.12
443.013	5475.3
443.224	5574.69
443.435	5458.25
443.646	5420.66
443.857	5410.2
444.068	5417.75
444.279	5416.79
444.49	5683.38
444.701	5556.48
444.912	5809.9
445.123	5815.13
445.334	5549.7
445.545	5675.83
445.756	5487.31
445.967	5425.7
446.178	5324.76
446.388	5334.64
446.599	5353.24
446.81	5483.82
447.021	5464.25
447.232	5610.73
447.443	5779.29
447.653	5920.14
447.864	5977.88
448.075	5965.09
448.286	5996.86
448.496	5944.75
448.707	5969.55
448.918	5838.77
449.129	5964.31
449.339	5956.56
449.55	6060.61
449.761	6040.65
449.971	5985.43
450.182	6132.1
450.393	6216.19
450.603	6122.41
450.814	6421.17
451.024	6407.22
451.235	6650.18
451.446	6606.59
451.656	6590.31
451.867	6496.15
452.077	6280.7
452.288	6451.98
452.498	6306.28
452.709	6341.15
452.919	6133.26
453.13	5996.67
453.34	6020.7
453.55	5768.24
453.761	6105.94
453.971	5994.35
454.182	6197.78
454.392	6246.8
454.602	6501.58
454.813	6493.83
455.023	6342.9
455.233	6264.82
455.444	6339.02
455.654	6132.1
455.864	6364.98
456.075	6458.95
456.285	6409.74
456.495	6542.26
456.705	6498.28
456.916	6733.88
457.126	6779.22
457.336	6667.23
457.546	6550.01
457.756	6659.48
457.967	6802.47
458.177	6598.64
458.387	6639.72
458.597	6503.71
458.807	6655.02
459.017	6504.68
459.227	6537.03
459.437	6474.26
459.647	6748.99
459.857	6717.99
460.068	6810.8
460.278	6825.33
460.488	6807.7
460.698	6811.96
460.908	6894.11
461.117	7002.99
461.327	7008.42
461.537	7195.97
461.747	7206.82
461.957	7097.74
462.167	7278.11
462.377	7316.67
462.587	7174.46
462.797	7368.4
463.007	7304.66
463.216	7450.36
463.426	7655.92
463.636	7405.99
463.846	7222.51
464.056	7301.75
464.265	7204.49
464.475	7243.82
464.685	7466.44
464.895	7379.06
465.104	7169.62
465.314	7428.27
465.524	7318.03
465.733	7331.4
465.943	7608.07
466.153	7732.84
466.362	7779.73
466.572	7686.92
466.782	7544.13
466.991	7667.93
467.201	7540.25
467.41	7412.77
467.62	7682.85
467.829	7699.51
468.039	7856.06
468.249	7810.14
468.458	8006.02
468.668	7933.56
468.877	8128.86
469.086	8090.88
469.296	8298.97
469.505	8407.66
469.715	8314.66
469.924	8229.03
470.134	8330.16
470.343	8157.34
470.552	8204.03
470.762	8062.4
470.971	8240.46
471.18	8303.42
471.39	8462.49
471.599	8343.72
471.808	8480.51
472.018	8704.29
472.227	8890.09
472.436	9208.03
472.645	9248.72
472.855	9121.04
473.064	9406.82
473.273	9410.69
473.482	9132.66
473.691	9286.69
473.901	9223.14
474.11	9094.3
474.319	9418.25
474.528	9363.22
474.737	9863.28
474.946	9720.69
475.155	9858.44
475.364	9966.74
475.573	9783.65
475.783	10104.11
475.992	9978.95
476.201	9963.06
476.41	10051.22
476.619	9965.97
476.828	9949.7
477.037	9947.95
477.245	9909.78
477.454	10150.03
477.663	10439.1
477.872	10671.98
478.081	10848.29
478.29	10673.15
478.499	10993.22
478.708	11174.57
478.917	11028.29
479.125	10853.14
479.334	10885.69
479.543	11239.08
479.752	11328.79
479.961	11286.94
480.169	11618.83
480.378	11672.5
480.587	11921.07
480.796	11769.37
481.004	11764.14
481.213	11935.41
481.422	12003.61
481.63	12313.22
481.839	12383.94
482.048	12542.03
482.256	12461.63
482.465	12796.62
482.674	12720.28
482.882	12740.43
483.091	12853.19
483.299	12636.97
483.508	12960.72
483.716	13057.59
483.925	13159.12
484.134	12715.63
484.342	13016.52
484.551	13023.49
484.759	12973.7
484.967	13449.93
485.176	13324.19
485.384	13324.97
485.593	13172.29
485.801	13056.63
486.01	12532.93
486.218	11898.79
486.426	11441.74
486.635	11200.33
486.843	11283.06
487.051	11726.74
487.26	11975.52
487.468	12221.38
487.676	12594.34
487.885	13007.03
488.093	13335.82
488.301	13855.83
488.509	13719.05
488.717	13942.63
488.926	14048.22
489.134	13836.65
489.342	13883.93
489.55	13800.42
489.758	14094.72
489.967	14526.59
490.175	14437.46
490.383	15022.58
490.591	15268.06
490.799	15100.08
491.007	14943.14
491.215	15131.27
491.423	14997.59
491.631	14921.06
491.839	14910.98
492.047	14813.72
492.255	14488.81
492.463	14515.54
492.671	14298.93
492.879	14765.28
493.087	14963.68
493.295	15015.02
493.503	15212.06
493.711	15620.87
493.919	15446.5
494.127	15558.87
494.334	15407.94
494.542	15542.6
494.75	15868.67
494.958	15672.02
495.166	16176.15
495.374	16260.04
495.581	16368.54
495.789	16270.12
495.997	16331.15
496.205	15714.84
496.412	16077.73
496.62	16349.36
496.828	16175.76
497.035	16376.87
497.243	16434.22
497.451	16500.87
497.658	16527.99
497.866	16489.44
498.074	16649.09
498.281	16236.79
498.489	16361.76
498.696	16098.46
498.904	15912.27
499.112	15898.51
499.319	16327.66
499.527	16478.78
499.734	16478.59
499.942	16396.44
500.149	16485.37
500.357	16497.38
500.564	16204.05
500.771	16155.42
500.979	15952.18
501.186	15802.02
501.394	16166.46
501.601	15743.12
501.808	15771.41
502.016	15843.87
502.223	15812.87
502.43	15846
502.638	15846.39
502.845	16212.57
503.052	16391.6
503.26	16375.9
503.467	16513.66
503.674	16623.32
503.881	16547.37
504.089	16352.27
504.296	16189.52
504.503	16088.96
504.71	16065.52
504.917	16263.34
505.125	16395.86
505.332	16626.03
505.539	16670.4
505.746	17035.23
505.953	17258.42
506.16	17372.73
506.367	17335.34
506.574	17601.74
506.781	17486.46
506.988	17438.99
507.195	17218.12
507.402	17239.05
507.609	17314.8
507.816	17017.79
508.023	16878.48
508.23	16844
508.437	16700.82
508.644	16763.59
508.851	16924.79
509.058	17307.44
509.265	17291.94
509.472	17562.22
509.679	17591.86
509.885	17585.08
510.092	17478.13
510.299	17497.7
510.506	17284.19
510.713	17326.62
510.92	17308.02
511.126	17502.35
511.333	17623.83
511.54	17742.01
511.746	17711.98
511.953	17836.56
512.16	18093.86
512.367	17938.67
512.573	17826.49
512.78	17672.85
512.987	17603.1
513.193	17389.01
513.4	17180.54
513.606	17365.37
513.813	17392.88
514.02	17147.02
514.226	17217.15
514.433	17282.45
514.639	17102.07
514.846	17197.39
515.052	17092.96
515.259	17301.24
515.465	17362.27
515.672	17441.13
515.878	17508.94
516.085	17703.85
516.291	17569.39
516.497	17513.97
516.704	16969.16
516.91	16520.05
517.117	15883.79
517.323	15445.72
517.529	15288.98
517.736	15242.48
517.942	15544.15
518.148	15906.84
518.354	15959.35
518.561	16044.4
518.767	15846
518.973	16000.42
519.179	16384.82
519.386	16570.04
519.592	16556.09
519.798	16592.51
520.004	17302.6
520.21	17248.73
520.417	17353.94
520.623	17514.56
520.829	17429.89
521.035	17612.79
521.241	17434.15
521.447	17593.41
521.653	17938.28
521.859	17700.55
522.065	17961.14
522.271	18021.98
522.477	17934.79
522.683	18113.23
522.889	17801.11
523.095	17558.54
523.301	17549.62
523.507	17469.8
523.713	17535.09
523.919	17530.44
524.125	18014.23
524.331	18277.73
524.537	18454.62
524.742	18525.14
524.948	18529.6
525.154	18560.6
525.36	18571.25
525.566	18177.36
525.772	18482.52
525.977	18374.99
526.183	18191.7
526.389	18270.17
526.595	17630.22
526.8	17476.39
527.006	16919.36
527.212	16493.51
527.417	16485.95
527.623	16506.88
527.829	16815.9
528.034	17176.47
528.24	17207.66
528.446	17679.24
528.651	18130.48
528.857	18190.35
529.062	18236.65
529.268	18474.77
529.473	18689.63
529.679	18790.57
529.884	18805.11
530.09	18602.83
530.295	18376.73
530.501	18620.46
530.706	18583.07
530.912	18714.43
531.117	18767.13
531.323	18795.03
531.528	19053.1
531.733	19082.75
531.939	18991.49
532.144	18821.57
532.35	18863.23
532.555	18610.97
532.76	18197.32
532.966	18100.25
533.171	17976.64
533.376	17829.78
533.581	17835.01
533.787	18133.77
533.992	18342.24
534.197	18083.01
534.402	18530.95
534.607	18581.52
534.813	18448.22
535.018	18494.14
535.223	18726.83
535.428	18635.58
535.633	18907.6
535.838	19195.31
536.043	19302.26
536.249	19526.81
536.454	19287.54
536.659	19314.85
536.864	19107.55
537.069	18855.87
537.274	18764.42
537.479	18687.7
537.684	18643.52
537.889	18652.63
538.094	19037.41
538.299	18896.75
538.504	19147.46
538.708	19014.74
538.913	19317.37
539.118	19198.22
539.323	19116.07
539.528	18901.98
539.733	18820.22
539.938	18881.64
540.142	18617.17
540.347	18541.22
540.552	18475.54
540.757	18154.5
540.962	18399.4
541.166	18138.03
541.371	18268.43
541.576	18263
541.781	18407.73
541.985	18840.56
542.19	18507.51
542.395	18999.82
542.599	19013.38
542.804	18728.96
543.008	18973.28
543.213	18806.46
543.418	18671.61
543.622	18915.15
543.827	18560.79
544.031	18896.94
544.236	19012.61
544.44	19231.35
544.645	19284.05
544.849	19144.16
545.054	19260.41
545.258	19339.46
545.463	19394.49
545.667	19136.03
545.872	19318.54
546.076	19241.81
546.281	19219.34
546.485	19068.02
546.689	19253.05
546.894	19205.39
547.098	19271.26
547.302	19223.02
547.507	19139.71
547.711	19258.86
547.915	19192.99
548.119	18950.42
548.324	18894.23
548.528	18965.33
548.732	18967.66
548.936	19186.59
549.141	19166.25
549.345	19134.67
549.549	19357.29
549.753	19565.37
549.957	19459.97
550.161	19531.66
550.366	19504.92
550.57	19354.57
550.774	19216.24
550.978	19371.82
551.182	19408.82
551.386	19172.84
551.59	19261.77
551.794	19129.63
551.998	19356.32
552.202	19376.27
552.406	19268.74
552.61	19548.51
552.814	19440.6
553.018	19410.57
553.222	19117.23
553.426	19190.86
553.63	19317.57
553.833	19225.92
554.037	19039.35
554.241	19118.59
554.445	19427.62
554.649	19355.35
554.853	19180.59
555.056	19381.7
555.26	19645.97
555.464	19453.58
555.668	19430.52
555.871	19429.36
556.075	19467.72
556.279	19236.19
556.483	19204.42
556.686	19041.28
556.89	19055.81
557.094	18992.65
557.297	18707.07
557.501	18805.11
557.704	18537.35
557.908	18840.17
558.112	18828.74
558.315	18904.11
558.519	18738.07
558.722	18483.68
558.926	18612.33
559.129	18047.36
559.333	18409.09
559.536	18283.34
559.74	18129.32
559.943	17948.55
560.147	18208.36
560.35	18092.89
560.553	18453.07
560.757	18423.62
560.96	18430.59
561.164	18632.86
561.367	18751.83
561.57	18694.86
561.774	18484.07
561.977	18437.76
562.18	18344.38
562.384	18550.72
562.587	18358.32
562.79	18568.93
562.993	18377.12
563.197	18384.48
563.4	18585.4
563.603	18558.85
563.806	18578.62
564.009	18530.37
564.212	18558.47
564.416	18264.36
564.619	18377.51
564.822	18235.49
565.025	18446.29
565.228	18314.34
565.431	18498.02
565.634	18141.72
565.837	18116.14
566.04	17886.74
566.243	17758.87
566.446	17662.97
566.649	17936.92
566.852	17717.8
567.055	17926.27
567.258	17894.3
567.461	18066.54
567.664	18117.11
567.867	18184.92
568.07	17886.36
568.273	18064.22
568.475	18219.21
568.678	17776.7
568.881	17768.56
569.084	17526.57
569.287	17307.63
569.489	17450.62
569.692	17546.91
569.895	17613.37
570.098	17315.96
570.3	17346
570.503	17364.21
570.706	17308.21
570.909	17188.67
571.111	17017.01
571.314	16868.8
571.516	16877.51
571.719	16997.83
571.922	17051.31
572.124	17153.41
572.327	17323.33
572.529	17195.07
572.732	17413.81
572.935	17447.13
573.137	17765.46
573.34	17402.76
573.542	17619.95
573.745	17548.66
573.947	17506.03
574.15	17478.13
574.352	17424.08
574.554	17658.7
574.757	17394.82
574.959	17102.46
575.162	17364.79
575.364	17046.66
575.566	17241.18
575.769	17004.42
575.971	17150.5
576.173	16645.79
576.376	16957.92
576.578	17154.38
576.78	17044.72
576.982	17013.33
577.185	17107.11
577.387	16999.58
577.589	17212.5
577.791	17029.03
577.993	17079.59
578.196	17120.86
578.398	16895.73
578.6	16787.81
578.802	16759.72
579.004	16659.55
579.206	16850.58
579.408	17070.68
579.61	16819
579.812	17207.27
580.014	16926.15
580.216	17047.82
580.418	17306.28
580.62	17239.43
580.822	17257.07
581.024	17321
581.226	17371.96
581.428	17353.94
581.63	17682.15
581.832	17383.58
582.034	17636.42
582.236	17597.48
582.438	17690.48
582.64	17838.11
582.841	17847.99
583.043	18071.19
583.245	17766.23
583.447	17902.83
583.649	17962.69
583.85	17957.07
584.052	17912.51
584.254	17829.59
584.456	17848.77
584.657	17798.2
584.859	18060.54
585.061	17730.39
585.262	17735.62
585.464	17665.1
585.666	17649.21
585.867	17514.75
586.069	17513.2
586.27	17424.46
586.472	17447.33
586.674	17374.67
586.875	17516.69
587.077	17470.77
587.278	17461.08
587.48	17428.53
587.681	17703.65
587.883	17550.21
588.084	17319.06
588.285	17327.78
588.487	16959.08
588.688	17027.09
588.89	16451.27
589.091	16019.02
589.292	15731.89
589.494	15296.92
589.695	15082.64
589.896	14872.62
590.098	15076.05
590.299	15051.83
590.5	15315.72
590.702	15650.9
590.903	15911.68
591.104	16067.65
591.305	16261.59
591.507	16331.15
591.708	16296.47
591.909	16300.15
592.11	16246.48
592.311	16349.94
592.512	16260.62
592.714	16193.39
592.915	16387.33
593.116	16226.52
593.317	16495.25
593.518	16543.3
593.719	16573.33
593.92	16539.43
594.121	16569.07
594.322	16486.15
594.523	16431.7
594.724	16152.51
594.925	16198.24
595.126	16096.33
595.327	16070.95
595.528	16255.2
595.729	16264.3
595.929	16330.76
596.13	16416.4
596.331	16624.48
596.532	16453.6
596.733	16747.12
596.934	16712.64
597.135	16692.87
597.335	16628.36
597.536	16533.23
597.737	16592.13
597.938	16517.53
598.138	16555.31
598.339	16616.15
598.54	16605.11
598.74	16303.05
598.941	16407.29
599.142	16673.5
599.342	16618.86
599.543	16558.22
599.744	16631.46
599.944	16605.69
600.145	16732.98
600.345	16598.13
600.546	16632.04
600.746	16607.43
600.947	16776.96
601.147	16471.03
601.348	16718.64
601.548	16548.53
601.749	16586.12
601.949	16336.77
602.15	16430.54
602.35	16278.64
602.551	16313.9
602.751	16503.78
602.951	16579.73
603.152	16588.64
603.352	16627.77
603.552	16622.54
603.753	16723.1
603.953	16853.88
604.153	16726.78
604.354	16853.68
604.554	16788.58
604.754	16850.58
604.954	16836.63
605.155	16938.55
605.355	16857.75
605.555	16736.85
605.755	16799.43
605.955	16775.22
606.155	16794.78
606.356	16767.47
606.556	16702.75
606.756	16758.94
606.956	16613.44
607.156	16839.73
607.356	16610.34
607.556	16768.44
607.756	16626.22
607.956	16813.97
608.156	16757.97
608.356	16471.81
608.556	16656.84
608.756	16481.69
608.956	16588.06
609.156	16496.22
609.356	16506.1
609.556	16337.93
609.755	16463.28
609.955	16351.68
610.155	16375.13
610.355	16493.31
610.555	16209.86
610.755	16146.7
610.954	16151.54
611.154	16326.5
611.354	16317.2
611.554	16170.72
611.753	16432.67
611.953	16294.14
612.153	16308.87
612.352	16238.92
612.552	16087.61
612.752	16112.99
612.951	16303.64
613.151	16089.93
613.351	16046.53
613.55	16075.79
613.75	16096.91
613.949	15856.47
614.149	15916.33
614.348	15908.39
614.548	15865.57
614.747	15813.07
614.947	15976.4
615.146	15848.72
615.346	16134.88
615.545	16109.31
615.745	16034.91
615.944	15926.6
616.144	15855.89
616.343	15573.6
616.542	15665.43
616.742	15473.82
616.941	15490.48
617.14	15304.67
617.34	15573.4
617.539	15528.07
617.738	15519.35
617.938	15831.47
618.137	15628.43
618.336	15783.23
618.535	15914.98
618.734	15848.72
618.934	15727.82
619.133	15821.59
619.332	16046.34
619.531	15644.89
619.73	15951.02
619.929	15903.16
620.128	16000.61
620.328	15992.48
620.527	15876.04
620.726	15907.62
620.925	15863.64
621.124	16053.51
621.323	15806.48
621.522	15727.24
621.721	15957.41
621.92	15654
622.119	15819.46
622.318	15571.08
622.517	15593.16
622.715	15555.96
622.914	15463.55
623.113	15553.06
623.312	15171.96
623.511	15478.08
623.71	15277.36
623.909	15196.76
624.107	15474.98
624.306	15230.66
624.505	15206.06
624.704	15184.75
624.902	14978.21
625.101	15111.9
625.3	14935.01
625.499	14895.29
625.697	15021.61
625.896	14849.56
626.095	14767.41
626.293	14735.45
626.492	14864.67
626.69	14815.85
626.889	15027.04
627.088	14989.45
627.286	15022.19
627.485	14719.56
627.683	14666.28
627.882	14437.85
628.08	14216.98
628.279	14041.64
628.477	14118.36
628.676	13946.89
628.874	14111
629.073	14085.81
629.271	14168.54
629.469	14181.91
629.668	14158.47
629.866	13960.65
630.065	14062.56
630.263	14128.24
630.461	14018.77
630.66	14160.4
630.858	14115.26
631.056	14376.43
631.254	14404.14
631.453	14181.52
631.651	14237.9
631.849	14182.49
632.047	14119.14
632.245	14081.16
632.444	14266.77
632.642	14352.41
632.84	14551.39
633.038	14302.42
633.236	14233.06
633.434	14439.98
633.632	14538.4
633.83	14285.37
634.028	14563.01
634.227	14456.84
634.425	14702.31
634.623	14443.86
634.821	14570.18
635.019	14638.18
635.216	14767.22
635.414	14701.54
635.612	14563.2
635.81	14551.19
636.008	14633.92
636.206	14612.8
636.404	14580.25
636.602	14574.25
636.8	14449.09
636.997	14553.9
637.195	14665.7
637.393	14673.25
637.591	14863.12
637.789	14796.28
637.986	14851.5
638.184	14818.18
638.382	14837.36
638.58	14785.04
638.777	14966.2
638.975	14830.38
639.173	14890.44
639.37	14870.29
639.568	14777.29
639.765	14834.45
639.963	14698.25
640.161	14537.05
640.358	14744.36
640.556	14437.66
640.753	14644.97
640.951	14455.09
641.148	14500.62
641.346	14553.9
641.543	14437.27
641.741	14483.19
641.938	14289.63
642.136	14513.6
642.333	14337.68
642.531	14570.18
642.728	14486.87
642.925	14646.71
643.123	14543.44
643.32	14629.85
643.517	14513.6
643.715	14406.85
643.912	14574.05
644.109	14469.24
644.306	14511.28
644.504	14388.83
644.701	14505.27
644.898	14502.17
645.095	14418.09
645.293	14432.42
645.49	14418.86
645.687	14331.87
645.884	14356.67
646.081	14054.81
646.278	14012.19
646.475	14013.35
646.672	13897.68
646.87	13917.25
647.067	13806.43
647.264	13773.68
647.461	13676.62
647.658	13466.98
647.855	13637.29
648.052	13426.49
648.249	13366.62
648.446	13528.4
648.642	13593.5
648.839	13291.83
649.036	13427.07
649.233	13340.85
649.43	13321.48
649.627	13055.85
649.824	13250.76
650.021	13032.02
650.217	13317.99
650.414	13428.04
650.611	13428.23
650.808	13738.23
651.004	13609.39
651.201	13623.53
651.398	13707.62
651.595	13462.72
651.791	13389.48
651.988	13540.61
652.185	13282.92
652.381	13622.56
652.578	13382.9
652.775	13519.29
652.971	13668.87
653.168	13461.56
653.364	13744.62
653.561	13477.06
653.757	13675.65
653.954	13784.73
654.15	13459.04
654.347	13666.15
654.543	13625.66
654.74	13372.63
654.936	13408.66
655.133	13311.02
655.329	13334.46
655.525	12981.45
655.722	13013.61
655.918	12709.24
656.115	12264.97
656.311	12023.57
656.507	11615.15
656.704	11454.53
656.9	11576.4
657.096	11827.88
657.292	11799.4
657.489	12064.25
657.685	12299.66
657.881	12283.19
658.077	12474.42
658.273	12677.07
658.47	12873.92
658.666	12873.15
658.862	13169.58
659.058	13224.41
659.254	13125.41
659.45	13287.57
659.646	13248.24
659.842	13295.9
660.038	13418.74
660.234	13257.15
660.43	13391.03
660.626	13505.73
660.822	13467.95
661.018	13519.49
661.214	13498.76
661.41	13344.15
661.606	13506.51
661.802	13709.17
661.998	13515.61
662.194	13459.81
662.39	13600.09
662.586	13591.37
662.781	13548.94
662.977	13765.74
663.173	13520.84
663.369	13503.21
663.564	13559.21
663.76	13496.63
663.956	13471.44
664.152	13317.41
664.347	13269.17
664.543	13408.47
664.739	13379.21
664.934	13206.39
665.13	13450.32
665.326	13406.34
665.521	13467.37
665.717	13295.9
665.912	13400.14
666.108	13129.09
666.304	13455.55
666.499	13270.33
666.695	13074.26
666.89	13312.95
667.086	13311.21
667.281	13262.97
667.477	13407.31
667.672	13224.02
667.867	13232.16
668.063	13220.73
668.258	13160.47
668.454	13246.89
668.649	13166.67
668.844	13231.58
669.04	13205.62
669.235	13225.19
669.43	13278.27
669.626	13125.99
669.821	13189.73
670.016	13152.14
670.211	13240.3
670.407	12932.63
670.602	13177.52
670.797	12934.56
670.992	13128.89
671.187	12979.51
671.382	13105.64
671.578	12861.72
671.773	13011.48
671.968	12794.68
672.163	13007.61
672.358	12901.82
672.553	12790.8
672.748	12943.09
672.943	12993.66
673.138	12849.51
673.333	12976.22
673.528	12755.16
673.723	12957.62
673.918	12761.94
674.113	12791.77
674.308	12903.76
674.503	12748.18
674.698	12947.16
674.892	12670.49
675.087	12677.27
675.282	12763.49
675.477	12793.52
675.672	12761.94
675.867	12634.06
676.061	12704.2
676.256	12560.83
676.451	12794.49
676.646	12718.34
676.84	12625.34
677.035	12572.06
677.23	12637.74
677.424	12609.65
677.619	12631.74
677.814	12734.04
678.008	12661.38
678.203	12593.96
678.397	12593.38
678.592	12483.13
678.787	12637.55
678.981	12549.78
679.176	12514.52
679.37	12456.78
679.565	12536.22
679.759	12501.54
679.954	12491.85
680.148	12438.18
680.342	12591.44
680.537	12400.99
680.731	12309.92
680.926	12443.42
681.12	12331.43
681.314	12370.76
681.509	12387.81
681.703	12380.25
681.897	12261.1
682.092	12252.38
682.286	12354.68
682.48	12296.56
682.674	12198.33
682.869	12214.6
683.063	12303.92
683.257	12210.14
683.451	12175.46
683.645	12320.19
683.839	12094.48
684.034	12024.15
684.228	11970.29
684.422	11847.64
684.616	11937.54
684.81	11941.22
685.004	11839.51
685.198	11973.19
685.392	11813.35
685.586	11880.97
685.78	11751.74
685.974	11820.52
686.168	11756.58
686.362	11668.04
686.556	10961.44
686.75	10569.11
686.944	9948.34
687.138	9216.75
687.331	8665.93
687.525	8378.99
687.719	8145.91
687.913	8230.38
688.107	8410.37
688.301	8456.1
688.494	8611.68
688.688	8496.98
688.882	8444.47
689.076	8495.43
689.269	8484.19
689.463	8575.64
689.657	8637.64
689.85	8660.89
690.044	8805.62
690.238	8873.43
690.431	8929.42
690.625	8991.42
690.818	9246.39
691.012	9261.7
691.205	9494
691.399	9485.28
691.593	9560.46
691.786	9675.35
691.98	9791.4
692.173	9884.98
692.366	9871.03
692.56	10027.78
692.753	9857.08
692.947	9933.61
693.14	9922.96
693.333	9946.98
693.527	9848.95
693.72	9987.09
693.914	9772.61
694.107	9695.5
694.3	9628.66
694.493	9500.78
694.687	9820.27
694.88	9624.39
695.073	9799.93
695.266	9789.08
695.46	9833.06
695.653	9811.55
695.846	9787.33
696.039	9831.12
696.232	9872.2
696.425	10126.59
696.618	10167.85
696.812	10318.2
697.005	10307.74
697.198	10525.32
697.391	10359.08
697.584	10590.61
697.777	10553.61
697.97	10407.91
698.163	10446.46
698.356	10370.9
698.549	10490.64
698.742	10473.39
698.935	10192.27
699.127	10246.9
699.32	10017.12
699.513	10050.25
699.706	9928.96
699.899	10036.11
700.092	9970.81
700.285	9881.5
700.477	9768.15
700.67	9862.32
700.863	9749.36
701.056	9881.5
701.248	9770.48
701.441	9825.5
701.634	9764.67
701.826	9864.83
702.019	9609.48
702.212	9733.47
702.404	9587
702.597	9607.73
702.79	9630.21
702.982	9615.48
703.175	9736.19
703.367	9793.15
703.56	9800.7
703.752	9905.33
703.945	9880.14
704.137	9844.68
704.33	9963.26
704.522	9914.63
704.715	9934
704.907	9935.36
705.1	10057.81
705.292	10000.26
705.484	9877.62
705.677	9928.58
705.869	10017.7
706.061	10011.5
706.254	10071.17
706.446	9880.53
706.638	9878.01
706.831	9942.91
707.023	9939.43
707.215	10077.76
707.407	10071.95
707.599	9956.48
707.792	10019.44
707.984	10024.68
708.176	9935.94
708.368	9940.2
708.56	9958.03
708.752	9999.29
708.944	9935.16
709.136	9971.78
709.329	9877.43
709.521	10030.29
709.713	9881.88
709.905	9915.01
710.097	10008.59
710.289	9868.9
710.481	9879.56
710.672	9874.13
710.864	9956.86
711.056	9957.45
711.248	9885.37
711.44	9878.2
711.632	9921.41
711.824	9888.86
712.016	9844.88
712.207	9890.02
712.399	9761.76
712.591	9854.18
712.783	9877.62
712.975	9790.63
713.166	9732.7
713.358	9727.47
713.55	9753.04
713.741	9674.77
713.933	9743.16
714.125	9644.35
714.316	9543.21
714.508	9627.88
714.7	9522.1
714.891	9497.49
715.083	9504.08
715.274	9408.75
715.466	9501.75
715.657	9394.8
715.849	9195.63
716.04	9168.51
716.232	9014.28
716.423	8834.87
716.615	8675.23
716.806	8361.36
716.998	8158.7
717.189	7891.52
717.381	7600.12
717.572	7363.75
717.763	7283.35
717.955	7109.94
718.146	6992.14
718.337	6875.51
718.528	6644.56
718.72	6410.51
718.911	6374.09
719.102	6270.44
719.293	6383
719.485	6203.21
719.676	6098.39
719.867	6032.51
720.058	6096.84
720.249	6018.56
720.44	6000.74
720.632	6235.56
720.823	6304.92
721.014	6528.89
721.205	6743.57
721.396	6959.98
721.587	7103.35
721.778	7275.79
721.969	7379.25
722.16	7478.26
722.351	7652.63
722.542	7827.19
722.733	7800.26
722.924	7591.02
723.115	7672.78
723.305	7444.35
723.496	7450.36
723.687	7050.07
723.878	7123.31
724.069	7032.83
724.26	6990.98
724.45	6817.58
724.641	6775.73
724.832	6736.2
725.023	6614.92
725.213	6612.98
725.404	6604.07
725.595	6448.49
725.785	6532.58
725.976	6595.74
726.167	6534.32
726.357	6590.7
726.548	6729.03
726.739	6509.91
726.929	6639.72
727.12	6724.19
727.31	6613.56
727.501	6530.64
727.691	6519.98
727.882	6505.26
728.072	6569.77
728.263	6618.99
728.453	6727.87
728.644	6664.52
728.834	6566.67
729.024	6459.34
729.215	6458.76
729.405	6507.19
729.596	6612.59
729.786	6582.17
729.976	6645.72
730.167	6648.82
730.357	6526.76
730.547	6597.09
730.737	6681.18
730.928	6604.84
731.118	6701.52
731.308	6598.84
731.498	6609.69
731.688	6764.3
731.879	6812.54
732.069	6873.18
732.259	6979.16
732.449	7035.93
732.639	7155.67
732.829	7162.64
733.019	7188.41
733.209	7354.26
733.399	7375.18
733.589	7474.57
733.779	7549.75
733.969	7575.32
734.159	7744.66
734.349	7678.01
734.539	7748.73
734.729	7764.03
734.919	7773.33
735.109	7890.36
735.299	7694.28
735.488	7747.37
735.678	7693.51
735.868	7673.94
736.058	7648.95
736.248	7680.14
736.437	7547.81
736.627	7581.14
736.817	7695.25
737.007	7575.71
737.196	7681.11
737.386	7603.61
737.576	7590.44
737.765	7728.77
737.955	7620.66
738.144	7842.31
738.334	7727.8
738.524	7651.85
738.713	7675.3
738.903	7658.44
739.092	7682.47
739.282	7702.42
739.471	7632.87
739.661	7647.98
739.85	7773.53
740.04	7708.62
740.229	7755.31
740.419	7754.73
740.608	7740.4
740.797	7754.54
740.987	7777.01
741.176	7703
741.365	7676.65
741.555	7629.18
741.744	7799.49
741.933	7678.98
742.123	7712.3
742.312	7704.55
742.501	7779.92
742.69	7809.76
742.88	7663.87
743.069	7814.21
743.258	7799.49
743.447	7821.19
743.636	7779.34
743.825	7744.85
744.014	7740.01
744.204	7849.67
744.393	7673.55
744.582	7876.79
744.771	7887.45
744.96	7790.58
745.149	7808.98
745.338	7757.06
745.527	7808.79
745.716	7707.07
745.905	7706.1
746.094	7847.54
746.283	7794.64
746.471	7718.89
746.66	7791.93
746.849	7775.66
747.038	7734
747.227	7671.03
747.416	7746.21
747.604	7653.02
747.793	7715.4
747.982	7685.57
748.171	7678.01
748.359	7621.43
748.548	7657.67
748.737	7623.57
748.926	7594.31
749.114	7446.87
749.303	7557.3
749.491	7524.95
749.68	7461.21
749.869	7563.89
750.057	7454.42
750.246	7448.03
750.434	7492.98
750.623	7420.13
750.811	7390.49
751	7477.48
751.188	7400.37
751.377	7392.62
751.565	7374.41
751.754	7383.32
751.942	7275.79
752.131	7372.28
752.319	7333.53
752.507	7278.89
752.696	7292.65
752.884	7269.98
753.072	7184.92
753.261	7277.92
753.449	7250.02
753.637	7172.13
753.825	7266.68
754.014	7294.97
754.202	7197.32
754.39	7232.2
754.578	7229.48
754.766	7150.63
754.955	7080.88
755.143	7234.91
755.331	7159.74
755.519	7141.72
755.707	7110.91
755.895	7064.02
756.083	7068.87
756.271	7030.12
756.459	7008.81
756.647	7044.26
756.835	7008.03
757.023	6959.01
757.211	6939.83
757.399	6932.28
757.587	6934.02
757.775	6867.18
757.963	6863.3
758.151	6885.39
758.339	6759.07
758.526	6797.82
758.714	6744.73
758.902	6573.65
759.09	6356.65
759.278	6001.13
759.465	5491.38
759.653	4829.34
759.841	4296.93
760.028	3750.95
760.216	3257.28
760.404	2949.8
760.591	2482.1
760.779	2137.61
760.967	1853.77
761.154	1578.07
761.342	1586.98
761.529	1567.61
761.717	1659.06
761.905	1677.66
762.092	1809.6
762.28	1733.07
762.467	1675.14
762.655	1543
762.842	1606.94
763.029	1661.38
763.217	1655.96
763.404	1660.41
763.592	1669.71
763.779	1692.38
763.966	1740.63
764.154	1839.63
764.341	1879.74
764.528	1918.29
764.716	2059.34
764.903	2200.39
765.09	2300.75
765.277	2393.17
765.465	2665.57
765.652	2771.55
765.839	2905.43
766.026	3163.5
766.213	3336.91
766.4	3495.97
766.588	3780.2
766.775	3934.23
766.962	4085.55
767.149	4267.67
767.336	4526.9
767.523	4499.59
767.71	4773.35
767.897	4994.8
768.084	5111.44
768.271	5209.67
768.458	5286.78
768.645	5427.44
768.832	5447.4
769.019	5562.68
769.206	5591.16
769.392	5702.56
769.579	5768.82
769.766	5807.38
769.953	5808.54
770.14	5853.49
770.327	5848.45
770.513	5908.52
770.7	5962.57
770.887	5923.05
771.073	5941.26
771.26	6013.53
771.447	5908.71
771.634	5883.52
771.82	6047.24
772.007	5883.13
772.193	5980.2
772.38	5999.96
772.567	5988.15
772.753	5921.88
772.94	5991.63
773.126	5975.55
773.313	6038.13
773.499	5958.31
773.686	6025.15
773.872	5914.72
774.059	5984.66
774.245	5943.58
774.432	5910.07
774.618	5859.3
774.804	5921.88
774.991	5875.38
775.177	5918.78
775.363	5852.14
775.55	5930.6
775.736	5791.1
775.922	5842.64
776.109	5841.48
776.295	5859.88
776.481	5836.83
776.667	5848.84
776.853	5791.3
777.04	5775.02
777.226	5792.85
777.412	5836.05
777.598	5747.71
777.784	5726.01
777.97	5726.97
778.156	5695.78
778.342	5712.64
778.528	5711.67
778.715	5652.58
778.901	5619.44
779.087	5693.65
779.272	5630.49
779.458	5582.25
779.644	5613.44
779.83	5600.65
780.016	5656.06
780.202	5544.27
780.388	5585.93
780.574	5451.66
780.76	5519.08
780.946	5594.26
781.131	5559.58
781.317	5473.55
781.503	5481.69
781.689	5514.63
781.874	5585.54
782.06	5462.32
782.246	5562.1
782.432	5495.25
782.617	5474.33
782.803	5506.88
782.989	5348.78
783.174	5425.12
783.36	5292.01
783.545	5287.36
783.731	5327.27
783.916	5224.98
784.102	5271.67
784.288	5341.42
784.473	5333.47
784.659	5244.93
784.844	5290.46
785.029	5316.62
785.215	5205.02
785.4	5126.36
785.586	5289.49
785.771	5166.85
785.956	5209.09
786.142	5159.88
786.327	5172.08
786.512	5166.08
786.698	5173.05
786.883	5000.03
787.068	5092.06
787.254	5131.2
787.439	5014.76
787.624	5034.13
787.809	4982.21
787.994	4994.42
788.18	5025.61
788.365	4900.84
788.55	4928.93
788.735	4921.57
788.92	4904.32
789.105	4883.4
789.29	4889.02
789.475	4822.17
789.66	4840.58
789.845	4774.9
790.03	4763.28
790.215	4817.91
790.4	4852.79
790.585	4818.88
790.77	4801.83
790.955	4724.72
791.14	4765.79
791.325	4819.27
791.51	4683.26
791.695	4735.76
791.879	4732.66
792.064	4649.74
792.249	4799.51
792.434	4678.22
792.618	4692.56
792.803	4816.36
792.988	4692.95
793.173	4750.88
793.357	4796.79
793.542	4662.72
793.727	4716.78
793.911	4772.96
794.096	4778.19
794.281	4802.41
794.465	4904.52
794.65	4744.68
794.834	4854.34
795.019	4825.27
795.203	4868.87
795.388	4814.62
795.572	4845.62
795.757	4872.94
795.941	4878.36
796.126	4786.91
796.31	4728.4
796.494	4751.65
796.679	4732.28
796.863	4744.68
797.048	4828.96
797.232	4786.53
797.416	4833.8
797.601	4788.27
797.785	4854.92
797.969	4909.36
798.153	4796.79
798.338	4885.92
798.522	4900.45
798.706	4927.96
798.89	4888.63
799.074	5005.07
799.258	4958.19
799.443	4893.09
799.627	4884.56
799.811	4925.64
799.995	4846.2
800.179	4818.3
800.363	4825.47
800.547	4868.87
800.731	4888.24
800.915	4738.67
801.099	4767.54
801.283	4784.78
801.467	4796.79
801.651	4829.34
801.835	4828.76
802.019	4830.89
802.202	4848.72
802.386	4731.69
802.57	4757.27
802.754	4763.66
802.938	4721.62
803.121	4746.42
803.305	4868.48
803.489	4712.51
803.673	4773.93
803.856	4741.38
804.04	4746.03
804.224	4785.56
804.407	4737.7
804.591	4729.56
804.775	4750.49
804.958	4759.21
805.142	4906.26
805.326	4749.91
805.509	4846.78
805.693	4849.69
805.876	4843.49
806.06	4879.33
806.243	4825.86
806.427	4900.06
806.61	4910.33
806.794	4794.66
806.977	4890.57
807.16	4858.79
807.344	4878.75
807.527	4838.45
807.71	4790.59
807.894	4775.09
808.077	4804.35
808.26	4772.38
808.444	4699.73
808.627	4841.16
808.81	4671.83
808.993	4606.34
809.177	4663.5
809.36	4664.08
809.543	4636.76
809.726	4551.51
809.909	4536.59
810.092	4501.52
810.276	4496.29
810.459	4477.11
810.642	4470.14
810.825	4392.44
811.008	4422.28
811.191	4303.51
811.374	4324.05
811.557	4319.98
811.74	4363.58
811.923	4263.8
812.106	4229.5
812.289	4153.55
812.472	4173.51
812.654	4165.95
812.837	4065.4
813.02	3997.39
813.203	3919.7
813.386	3796.67
813.569	3752.69
813.751	3681.58
813.934	3695.92
814.117	3607.19
814.3	3553.91
814.482	3495.78
814.665	3388.64
814.848	3335.94
815.03	3314.05
815.213	3276.65
815.396	3234.61
815.578	3195.67
815.761	3120.11
815.943	3162.92
816.126	3068.37
816.309	3021.68
816.491	2944.57
816.674	2857
816.856	2934.3
817.039	2918.41
817.221	3018.78
817.403	2949.03
817.586	2918.03
817.768	2938.95
817.951	2897.68
818.133	2835.1
818.315	2880.83
818.498	2921.13
818.68	3020.52
818.862	3031.18
819.045	3070.12
819.227	2974.79
819.409	2949.03
819.591	2967.24
819.774	2972.86
819.956	2965.11
820.138	3092.79
820.32	3054.62
820.502	3225.31
820.684	3274.91
820.866	3319.47
821.048	3370.62
821.231	3396.58
821.413	3366.16
821.595	3355.31
821.777	3376.63
821.959	3350.08
822.141	3446.76
822.323	3243.33
822.505	3109.06
822.686	2993.59
822.868	2828.32
823.05	2707.62
823.232	2591.56
823.414	2521.04
823.596	2633.61
823.778	2624.89
823.96	2664.22
824.141	2700.45
824.323	2749.27
824.505	2867.65
824.687	2939.92
824.868	3082.71
825.05	3114.29
825.232	3250.69
825.413	3364.42
825.595	3290.02
825.777	3191.99
825.958	3231.9
826.14	3272
826.321	3284.4
826.503	3272.78
826.685	3331.1
826.866	3292.15
827.048	3284.4
827.229	3216.01
827.411	3154.98
827.592	3073.99
827.773	3073.99
827.955	2994.75
828.136	2998.24
828.318	2962.78
828.499	2957.75
828.68	2938.37
828.862	2943.21
829.043	2917.25
829.224	2869.4
829.406	2867.46
829.587	2854.09
829.768	2932.36
829.949	2934.11
830.131	2887.8
830.312	3019.16
830.493	2972.28
830.674	2939.34
830.855	2955.81
831.036	2940.31
831.218	3043.77
831.399	3052.68
831.58	2968.21
831.761	2942.05
831.942	2945.15
832.123	2981.19
832.304	2867.07
832.485	2907.56
832.666	2935.08
832.847	2952.13
833.028	2945.54
833.209	2940.7
833.389	2909.5
833.57	2834.91
833.751	2862.62
833.932	2999.59
834.113	2941.08
834.294	2912.8
834.475	2976.15
834.655	3009.67
834.836	3045.9
835.017	3018
835.198	2949.03
835.378	2956.2
835.559	3070.89
835.74	3013.74
835.92	3032.73
836.101	3010.25
836.281	3017.61
836.462	3029.04
836.643	3073.99
836.823	3061.01
837.004	3080.58
837.184	3123.01
837.365	3086.39
837.545	3057.91
837.726	3030.79
837.906	3111.39
838.087	3059.66
838.267	3058.69
838.448	3039.7
838.628	3066.63
838.808	3079.61
838.989	3089.88
839.169	3002.5
839.349	3072.64
839.53	3124.95
839.71	3111.19
839.89	3043.96
840.07	3114.1
840.251	3030.59
840.431	3142
840.611	3003.28
840.791	3003.08
840.971	3088.33
841.151	3060.24
841.332	2996.69
841.512	3092.4
841.692	2964.72
841.872	3083.49
842.052	2990.88
842.232	3047.64
842.412	3002.69
842.592	3003.47
842.772	3029.43
842.952	3042.8
843.132	2979.64
843.312	2946.51
843.492	2973.44
843.672	3015.68
843.851	2912.02
844.031	2964.72
844.211	2963.17
844.391	2973.63
844.571	2972.08
844.751	2941.86
844.93	2952.51
845.11	2936.05
845.29	2963.36
845.47	2983.9
845.649	2959.88
845.829	2983.71
846.009	2923.65
846.188	2963.17
846.368	2986.61
846.547	2962.98
846.727	2954.26
846.907	2878.89
847.086	2963.75
847.266	2964.33
847.445	2948.83
847.625	2898.46
847.804	2847.7
847.984	2888.19
848.163	2884.31
848.343	2852.35
848.522	2902.33
848.701	2890.71
848.881	2826.97
849.06	2905.43
849.239	2852.93
849.419	2811.27
849.598	2724.67
849.777	2743.65
849.957	2683.21
850.136	2626.24
850.315	2604.54
850.494	2606.09
850.674	2664.41
850.853	2697.35
851.032	2645.42
851.211	2708.2
851.39	2658.41
851.569	2596.02
851.748	2607.06
851.927	2710.33
852.107	2634.77
852.286	2670.61
852.465	2622.76
852.644	2700.26
852.823	2690.18
853.002	2622.56
853.181	2635.16
853.359	2647.56
853.538	2547.97
853.717	2558.63
853.896	2473.18
854.075	2403.63
854.254	2349.38
854.433	2259.09
854.611	2293.39
854.79	2218.21
854.969	2315.86
855.148	2348.99
855.327	2310.82
855.505	2376.7
855.684	2390.45
855.863	2400.92
856.041	2423.78
856.22	2445.87
856.399	2461.75
856.577	2557.46
856.756	2532.47
856.934	2627.02
857.113	2651.24
857.291	2530.34
857.47	2508.83
857.648	2538.28
857.827	2487.71
858.005	2601.83
858.184	2514.45
858.362	2620.04
858.541	2534.02
858.719	2540.22
858.898	2551.07
859.076	2493.33
859.254	2555.53
859.433	2481.9
859.611	2509.8
859.789	2452.26
859.967	2494.5
860.146	2545.45
860.324	2459.04
860.502	2452.45
860.68	2401.5
860.859	2425.13
861.037	2417.19
861.215	2423.97
861.393	2460.98
861.571	2412.73
861.749	2404.02
861.927	2435.02
862.105	2444.12
862.283	2394.13
862.461	2362.94
862.639	2352.67
862.817	2389.29
862.995	2371.08
863.173	2355.39
863.351	2414.67
863.529	2403.43
863.707	2465.05
863.885	2389.87
864.063	2316.83
864.241	2351.12
864.418	2428.62
864.596	2341.05
864.774	2282.54
864.952	2320.7
865.129	2345.5
865.307	2313.92
865.485	2240.3
865.663	2315.47
865.84	2211.04
866.018	2193.99
866.196	1984.94
866.373	2011.48
866.551	1984.75
866.728	1934.57
866.906	2006.45
867.084	2035.9
867.261	2041.13
867.439	2092.28
867.616	2126.96
867.794	2134.32
867.971	2125.21
868.149	2120.37
868.326	2184.69
868.503	2180.24
868.681	2165.71
868.858	2138.78
869.035	2101.19
869.213	2178.49
869.39	2149.63
869.567	2226.35
869.745	2133.74
869.922	2167.45
870.099	2197.87
870.276	2183.53
870.454	2182.76
870.631	2152.14
870.808	2130.44
870.985	2159.12
871.162	2238.17
871.339	2141.88
871.517	2089.76
871.694	2092.66
871.871	2120.37
872.048	2116.88
872.225	2132.77
872.402	2096.35
872.579	2065.35
872.756	2105.45
872.933	1993.27
873.11	2075.42
873.287	2128.89
873.463	2037.06
873.64	2072.13
873.817	2064.18
873.994	2061.28
874.171	1982.23
874.348	2039.19
874.524	1953.75
874.701	1986.68
874.878	1960.33
875.055	2016.52
875.231	1992.3
875.408	1987.07
875.585	1933.02
875.762	1962.08
875.938	1950.26
876.115	1951.62
876.291	1949.87
876.468	1946.38
876.645	1914.03
876.821	1946.77
876.998	1923.13
877.174	1939.22
877.351	1895.24
877.527	1890.78
877.704	1893.3
877.88	1941.93
878.057	1880.51
878.233	1968.28
878.409	1912.87
878.586	1934.18
878.762	1901.63
878.938	1863.07
879.115	1834.21
879.291	1885.55
879.467	1822.97
879.644	1850.67
879.82	1871.6
879.996	1830.52
880.172	1798.17
880.349	1830.91
880.525	1850.29
880.701	1773.17
880.877	1777.82
881.053	1834.01
881.229	1797.2
881.405	1845.83
881.581	1793.52
881.757	1792.74
881.933	1828.39
882.109	1835.75
882.285	1831.3
882.461	1752.44
882.637	1774.34
882.813	1759.81
882.989	1803.4
883.165	1860.55
883.341	1825.29
883.517	1860.17
883.693	1820.84
883.869	1822.97
884.044	1763.68
884.22	1830.91
884.396	1843.31
884.572	1803.59
884.747	1854.94
884.923	1815.41
885.099	1861.52
885.275	1852.8
885.45	1783.06
885.626	1786.93
885.801	1764.26
885.977	1781.7
886.153	1729.58
886.328	1809.21
886.504	1743.14
886.679	1794.29
886.855	1736.17
887.03	1779.57
887.206	1789.06
887.381	1781.12
887.557	1805.14
887.732	1784.8
887.908	1766.59
888.083	1833.62
888.258	1764.46
888.434	1785.57
888.609	1787.51
888.784	1822.39
888.96	1796.23
889.135	1776.47
889.31	1745.86
889.485	1777.24
889.661	1779.96
889.836	1816.38
890.011	1823.16
890.186	1784.02
890.361	1736.56
890.537	1814.64
890.712	1767.17
890.887	1778.6
891.062	1803.21
891.237	1811.54
891.412	1745.28
891.587	1777.05
891.762	1825.68
891.937	1821.03
892.112	1695.48
892.287	1737.91
892.462	1678.24
892.637	1691.22
892.812	1653.25
892.987	1658.67
893.161	1611.78
893.336	1627.48
893.511	1637.16
893.686	1650.73
893.861	1610.62
894.035	1611.78
894.21	1584.08
894.385	1560.83
894.56	1551.72
894.734	1455.24
894.909	1488.95
895.084	1468.02
895.258	1412.8
895.433	1441.67
895.608	1409.51
895.782	1362.24
895.957	1340.54
896.131	1364.95
896.306	1302.95
896.48	1266.33
896.655	1297.14
896.829	1167.33
897.004	1211.31
897.178	1183.99
897.353	1171.98
897.527	1216.15
897.701	1227
897.876	1171.59
898.05	1255.87
898.224	1245.6
898.399	1228.36
898.573	1150.66
898.747	1042.94
898.921	1061.73
899.096	930.57
899.27	960.21
899.444	963.7
899.618	1034.03
899.792	1069.48
899.967	1059.8
900.141	1119.47
900.315	1027.44
900.489	1008.26
900.663	1041.97
900.837	1042.75
901.011	982.69
901.185	1107.46
901.359	1052.24
901.533	1047.01
901.707	1080.33
901.881	1046.43
902.055	992.37
902.229	1030.15
902.403	1083.24
902.576	1069.48
902.75	1043.14
902.924	1165.97
903.098	1173.91
903.272	1250.06
903.446	1228.74
903.619	1244.63
903.793	1279.12
903.967	1310.31
904.14	1344.02
904.314	1338.41
904.488	1301.59
904.661	1337.05
904.835	1338.79
905.009	1367.08
905.182	1373.09
905.356	1336.08
905.529	1335.69
905.703	1290.36
905.876	1287.64
906.05	1253.35
906.223	1194.26
906.397	1138.85
906.57	1126.25
906.744	1059.6
906.917	1061.15
907.09	1035
907.264	1024.15
907.437	995.28
907.61	925.72
907.784	989.08
907.957	999.15
908.13	942.77
908.304	974.74
908.477	941.61
908.65	909.06
908.823	882.32
908.996	971.45
909.17	931.54
909.343	954.79
909.516	927.47
909.689	935.02
909.862	895.69
910.035	924.56
910.208	876.9
910.381	866.44
910.554	974.35
910.727	906.54
910.9	901.89
911.073	882.13
911.246	982.3
911.419	960.99
911.592	949.56
911.765	904.8
911.938	890.46
912.11	918.36
912.283	914.29
912.456	949.75
912.629	920.49
912.802	867.21
912.974	813.74
913.147	735.85
913.32	684.9
913.493	742.83
913.665	756.97
913.838	789.52
914.01	740.5
914.183	850.74
914.356	851.13
914.528	882.52
914.701	911.19
914.873	840.09
915.046	785.26
915.218	728.68
915.391	666.1
915.563	663.78
915.736	715.31
915.908	762.4
916.081	796.11
916.253	774.21
916.425	813.54
916.598	836.02
916.77	784.68
916.942	761.62
917.115	679.47
917.287	732.36
917.459	707.76
917.632	642.47
917.804	619.99
917.976	732.75
918.148	764.14
918.32	787.58
918.493	802.5
918.665	845.32
918.837	804.83
919.009	860.63
919.181	858.69
919.353	870.12
919.525	835.63
919.697	841.06
919.869	844.16
920.041	907.51
920.213	974.94
920.385	895.11
920.557	875.35
920.729	881.94
920.901	863.34
921.073	850.94
921.244	844.74
921.416	871.28
921.588	847.06
921.76	846.48
921.932	907.12
922.103	816.26
922.275	852.1
922.447	853.84
922.619	809.28
922.79	816.84
922.962	799.59
923.134	837.57
923.305	770.15
923.477	731.01
923.648	763.36
923.82	767.43
923.991	723.65
924.163	696.91
924.335	731.2
924.506	684.7
924.677	753.68
924.849	686.64
925.02	731.98
925.192	746.9
925.363	725.39
925.535	717.06
925.706	712.02
925.877	745.35
926.049	693.03
926.22	745.35
926.391	750.96
926.562	773.83
926.734	678.5
926.905	743.6
927.076	669.01
927.247	666.88
927.419	611.66
927.59	627.35
927.761	587.44
927.932	564
928.103	575.62
928.274	532.22
928.445	505.1
928.616	508.01
928.787	488.63
928.958	526.8
929.129	520.79
929.3	483.4
929.471	442.91
929.642	403.58
929.813	328.6
929.984	411.91
930.155	327.24
930.326	377.23
930.496	346.23
930.667	279.38
930.838	319.88
931.009	263.88
931.18	290.04
931.35	278.8
931.521	269.31
931.692	215.06
931.863	179.22
932.033	216.42
932.204	223.97
932.374	198.98
932.545	163.33
932.716	217
932.886	208.86
933.057	116.05
933.227	133.1
933.398	197.04
933.568	135.04
933.739	62
933.909	96.87
934.08	157.13
934.25	61.03
934.421	83.51
934.591	141.82
934.761	70.72
934.932	80.02
935.102	136.4
935.272	114.31
935.443	117.22
935.613	96.1
935.783	109.08
935.953	59.29
936.123	249.55
936.294	82.54
936.464	102.3
936.634	95.13
936.804	44.17
936.974	32.74
937.144	99.78
937.314	69.36
937.484	69.56
937.655	61.03
937.825	117.02
937.995	83.89
938.165	120.7
938.334	122.25
938.504	150.35
938.674	146.47
938.844	156.55
939.014	206.34
939.184	192.97
939.354	258.07
939.524	256.72
939.694	191.62
939.863	169.34
940.033	243.93
940.203	244.9
940.373	214.87
940.542	234.05
940.712	180.38
940.882	207.31
941.051	246.83
941.221	224.36
941.391	222.03
941.56	179.8
941.73	158.49
941.899	313.48
942.069	168.75
942.238	207.12
942.408	159.45
942.577	184.64
942.747	165.65
942.916	104.62
943.086	132.52
943.255	183.28
943.425	188.9
943.594	149.96
943.763	76.34
943.933	88.54
944.102	73.43
944.271	136.2
944.441	162.55
944.61	133.1
944.779	153.06
944.948	247.8
945.117	123.22
945.287	138.72
945.456	70.91
945.625	110.05
945.794	131.17
945.963	130.78
946.132	142.4
946.301	102.69
946.47	145.31
946.639	83.51
946.808	146.28
946.977	163.33
947.146	187.35
947.315	130.59
947.484	163.91
947.653	125.16
947.822	97.45
947.991	90.48
948.16	216.61
948.329	202.27
948.498	141.63
948.666	151.12
948.835	150.54
949.004	101.52
949.173	107.53
949.341	136.4
949.51	144.73
949.679	177.28
949.847	136.59
950.016	195.1
950.185	209.83
950.353	141.82
950.522	151.32
950.69	224.17
950.859	154.22
951.028	188.13
951.196	187.74
951.365	135.43
951.533	146.28
951.701	172.24
951.87	164.69
952.038	99.39
952.207	119.35
952.375	194.13
952.543	120.7
952.712	148.99
952.88	99.39
953.048	196.27
953.217	158.68
953.385	149.96
953.553	216.03
953.721	73.62
953.89	162.36
954.058	105.98
954.226	111.99
954.394	145.7
954.562	97.26
954.73	146.47
954.898	124
955.067	160.23
955.235	126.32
955.403	149.19
955.571	192
955.739	146.47
955.907	85.83
956.075	118.96
956.243	119.35
956.41	122.64
956.578	93.97
956.746	104.24
956.914	146.47
957.082	166.43
957.25	155.39
957.418	152.48
957.585	200.72
957.753	210.02
957.921	144.54
958.089	155.39
958.256	165.27
958.424	141.44
958.592	151.51
958.759	143.57
958.927	158.1
959.095	132.14
959.262	142.21
959.43	155.39
959.597	105.2
959.765	130
959.932	103.85
960.1	204.21
960.267	144.34
960.435	155
960.602	189.68
960.77	127.1
960.937	109.66
961.104	174.18
961.272	109.47
961.439	150.35
961.606	154.03
961.774	172.05
961.941	117.22
962.108	173.21
962.275	163.14
962.443	182.9
962.61	174.37
962.777	208.86
962.944	216.42
963.111	183.67
963.278	184.25
963.446	170.69
963.613	177.08
963.78	190.84
963.947	183.28
964.114	168.17
964.281	215.25
964.448	191.62
964.615	146.86
964.782	167.79
964.949	181.54
965.116	182.9
965.282	208.86
965.449	182.7
965.616	145.5
965.783	168.37
965.95	165.46
966.117	124.97
966.283	155.39
966.45	192.97
966.617	198.98
966.784	220.1
966.95	214.48
967.117	220.87
967.284	170.11
967.45	190.65
967.617	232.3
967.784	249.16
967.95	265.43
968.117	238.12
968.283	228.62
968.45	320.65
968.616	213.9
968.783	251.48
968.949	240.25
969.116	273.57
969.282	245.09
969.449	250.13
969.615	219.9
969.781	192.58
969.948	212.15
970.114	165.46
970.28	289.07
970.447	215.06
970.613	291.98
970.779	233.85
970.945	239.08
971.112	231.92
971.278	224.17
971.444	223.2
971.61	250.71
971.776	203.05
971.942	227.07
972.108	239.28
972.275	201.69
972.441	248.38
972.607	281.9
972.773	192.2
972.939	229.2
973.105	193.94
973.271	171.85
973.437	193.94
973.602	160.42
973.768	228.43
973.934	191.03
974.1	212.54
974.266	130
974.432	181.15
974.598	187.16
974.763	205.76
974.929	163.91
975.095	267.37
975.261	169.92
975.426	145.5
975.592	177.86
975.758	233.85
975.923	133.49
976.089	152.29
976.255	212.35
976.42	206.73
976.586	204.79
976.751	182.51
976.917	272.99
977.082	203.05
977.248	155.97
977.413	131.36
977.579	182.7
977.744	196.27
977.91	163.91
978.075	178.83
978.24	191.62
978.406	188.52
978.571	170.3
978.736	194.13
978.902	198.98
979.067	152.48
979.232	143.37
979.397	191.81
979.563	231.72
979.728	153.84
979.893	164.88
980.058	161.2
980.223	212.15
980.388	208.08
980.554	194.13
980.719	177.67
980.884	190.45
981.049	226.1
981.214	183.48
981.379	175.15
981.544	194.52
981.709	177.47
981.874	155
982.039	166.43
982.204	205.37
982.368	172.24
982.533	144.54
982.698	208.86
982.863	214.67
983.028	175.34
983.193	224.17
983.357	189.1
983.522	176.5
983.687	184.45
983.852	170.3
984.016	191.23
984.181	169.34
984.346	182.51
984.51	191.62
984.675	180.77
984.839	189.1
985.004	177.67
985.168	230.37
985.333	204.79
985.498	170.5
985.662	209.44
985.827	218.16
985.991	186.97
986.155	153.64
986.32	213.12
986.484	231.92
986.649	194.72
986.813	146.67
986.977	191.03
987.142	204.21
987.306	126.9
987.47	160.23
987.634	185.61
987.799	179.02
987.963	197.82
988.127	212.35
988.291	268.73
988.455	160.42
988.62	159.26
988.784	192.97
988.948	207.89
989.112	169.53
989.276	188.32
989.44	196.65
989.604	141.24
989.768	177.08
989.932	243.73
990.096	128.65
990.26	138.34
990.424	153.25
990.588	155.19
990.752	243.54
990.915	193.36
991.079	181.54
991.243	147.25
991.407	186.19
991.571	164.69
991.734	166.24
991.898	197.82
992.062	249.74
992.226	164.3
992.389	140.47
992.553	115.67
992.717	147.05
992.88	137.56
993.044	148.41
993.207	175.15
993.371	192.58
993.535	173.02
993.698	164.88
993.862	161.2
994.025	169.14
994.189	166.43
994.352	161
994.515	164.49
994.679	186.38
994.842	147.44
995.006	187.35
995.169	130
995.332	142.6
995.496	180.18
995.659	95.13
995.822	143.37
995.985	135.62
996.149	177.86
996.312	152.09
996.475	214.48
996.638	117.99
996.801	192.78
996.964	217.77
997.128	108.3
997.291	128.45
997.454	155.39
997.617	106.17
997.78	187.55
997.943	111.02
998.106	172.82
998.269	111.02
998.432	126.32
998.595	161.2
998.758	86.99
998.92	126.52
999.083	83.89
999.246	148.41
999.409	80.99
999.572	77.5
999.735	113.73
999.897	128.45
1000.06	113.34
1000.223	112.18
1000.386	139.11
1000.548	156.74
1000.711	151.51
1000.874	138.34
1001.036	80.21
1001.199	146.67
1001.361	109.08
1001.524	102.88
1001.687	162.36
1001.849	95.52
1002.012	133.1
1002.174	119.35
1002.337	131.36
1002.499	93.19
1002.661	161
1002.824	79.63
1002.986	105.98
1003.149	130.39
1003.311	90.09
1003.473	163.33
1003.636	102.49
1003.798	142.6
1003.96	137.75
1004.123	101.14
1004.285	90.09
1004.447	127.1
1004.609	115.28
1004.771	148.99
1004.933	67.23
1005.096	87.77
1005.258	69.56
1005.42	79.82
1005.582	126.71
1005.744	120.51
1005.906	44.76
1006.068	105.4
1006.23	61.42
1006.392	56.77
1006.554	56.57
1006.716	118.19
1006.878	132.52
1007.04	52.31
1007.202	92.61
1007.363	84.67
1007.525	126.32
1007.687	98.62
1007.849	139.69
1008.011	46.31
1008.172	78.08
1008.334	63.55
1008.496	102.88
1008.658	43.79
1008.819	77.11
1008.981	81.18
1009.143	92.8
1009.304	66.84
1009.466	123.42
1009.627	118.19
1009.789	210.22
1009.95	92.22
1010.112	70.52
1010.273	116.44
1010.435	68.39
1010.596	74.4
1010.758	69.75
1010.919	88.54
1011.081	44.56
1011.242	83.89
1011.403	113.15
1011.565	89.32
1011.726	89.12
1011.887	45.53
1012.049	76.34
1012.21	119.93
1012.371	148.41
1012.532	22.47
1012.693	84.67
1012.855	70.72
1013.016	95.71
1013.177	89.32
1013.338	64.71
1013.499	152.87
1013.66	109.66
1013.821	97.26
1013.982	98.23
1014.143	94.16
1014.304	71.49
1014.465	93
1014.626	94.16
1014.787	83.89
1014.948	140.08
1015.109	4.84
1015.27	100.94
1015.431	37.01
1015.592	51.73
1015.752	102.49
1015.913	81.18
1016.074	81.76
1016.235	67.04
1016.395	67.23
1016.556	64.32
1016.717	53.47
1016.877	123.42
1017.038	64.52
1017.199	79.63
1017.359	82.92
1017.52	97.65
1017.681	45.72
1017.841	63.36
1018.002	98.62
1018.162	38.36
1018.323	100.75
1018.483	42.04
1018.644	53.28
1018.804	20.54
1018.964	52.7
1019.125	69.75
1019.285	72.85
1019.446	53.47
1019.606	16.86
1019.766	14.92
1019.926	68.59
1020.087	85.64
1020.247	1.94
1020.407	65.49
1020.567	101.33
1020.728	59.48
1020.888	7.17
1021.048	39.72
1021.208	35.46
1021.368	54.06
1021.528	72.27
1021.688	99.2
1021.848	81.57
1022.008	68.59
1022.168	40.49
1022.328	57.74
1022.488	81.96
1022.648	49.79
1022.808	75.95
1022.968	89.51
1023.128	30.03
1023.288	39.72
1023.448	35.65
1023.608	64.91
1023.767	60.64
1023.927	19.37
1024.087	11.43
1024.247	9.88
1024.406	11.43
1024.566	19.37
1024.726	32.55
1024.885	48.05
1025.045	25.57
1025.205	69.17
1025.364	46.5
1025.524	49.41
1025.683	32.74
1025.843	71.11
1026.003	45.92
1026.162	95.32
1026.321	62
1026.481	54.83
1026.64	39.14
1026.8	69.17
1026.959	41.07
1027.119	85.25
1027.278	36.04
1027.437	14.72
1027.597	51.54
1027.756	43.79
1027.915	55.61
1028.074	62.58
1028.234	2.52
1028.393	45.92
1028.552	37.2
1028.711	-11.82
1028.87	90.29
1029.03	3.68
1029.189	36.04
1029.348	4.07
1029.507	38.36
1029.666	26.54
1029.825	1.36
1029.984	4.26
1030.143	50.37
1030.302	41.66
1030.461	-28.48
1030.62	37.97
1030.779	52.89
1030.938	17.44
1031.097	-1.16
1031.255	66.65
1031.414	81.18
1031.573	68.39
1031.732	9.49
1031.891	29.45
1032.049	85.44
1032.208	47.27
1032.367	-5.62
1032.525	7.94
1032.684	27.32
1032.843	38.94
1033.001	-16.47
1033.16	173.79
1033.319	89.51
1033.477	48.05
1033.636	14.92
1033.794	-26.35
1033.953	66.84
1034.111	66.65
1034.27	22.09
1034.428	47.47
1034.587	-20.15
1034.745	16.08
1034.903	45.14
1035.062	51.73
1035.22	-1.74
1035.378	42.82
1035.537	16.66
1035.695	62.97
1035.853	16.47
1036.011	58.9
1036.17	34.68
1036.328	-27.9
1036.486	20.15
1036.644	31.77
1036.802	-23.06
1036.96	7.94
1037.119	15.89
1037.277	-1.16
1037.435	14.14
1037.593	-22.67
1037.751	31.77
1037.909	71.3
1038.067	71.3
