Data from gum_old_FLMT105791__137__15-46-26-252.txt Node

Date: Mon Mar 20 15:46:26 GMT 2023
User: antho
Spectrometer: FLMT10579
Trigger mode: 0
Integration Time (sec): 1.000000E-1
Scans to average: 10
Electric dark correction enabled: true
Nonlinearity correction enabled: false
Boxcar width: 0
XAxis mode: Wavelengths
Number of Pixels in Spectrum: 3648
>>>>>Begin Spectral Data<<<<<
345.248	-161.68
345.464	-161.68
345.681	-161.68
345.898	-175.83
346.114	-168.85
346.331	-29.16
346.548	14.05
346.764	-6.1
346.981	-3
347.197	-16.18
347.414	22.38
347.631	-53.96
347.847	76.63
348.064	7.27
348.28	17.15
348.497	-29.74
348.713	0.68
348.93	35.17
349.146	9.59
349.363	19.47
349.579	24.51
349.796	15.21
350.012	-11.33
350.229	27.8
350.445	32.07
350.661	5.13
350.878	11.14
351.094	35.94
351.311	30.9
351.527	34.39
351.743	4.75
351.96	62.68
352.176	57.45
352.392	29.93
352.609	33.03
352.825	8.82
353.041	10.95
353.257	1.26
353.474	27.03
353.69	22.96
353.906	12.5
354.122	-16.18
354.339	68.3
354.555	15.98
354.771	10.56
354.987	64.81
355.203	84.18
355.42	2.03
355.636	7.65
355.852	15.4
356.068	32.26
356.284	4.55
356.5	66.75
356.716	8.43
356.932	24.12
357.148	44.08
357.364	49.31
357.58	56.28
357.796	65.39
358.012	77.01
358.228	25.48
358.444	-38.46
358.66	47.95
358.876	34.2
359.092	-9.78
359.308	22.38
359.524	48.34
359.74	30.13
359.956	1.45
360.172	3.78
360.388	64.03
360.604	34.2
360.819	105.3
361.035	36.72
361.251	21.41
361.467	-2.23
361.683	63.26
361.898	62.1
362.114	77.21
362.33	56.09
362.546	83.21
362.762	19.47
362.977	46.21
363.193	-19.08
363.409	96.39
363.624	-11.53
363.84	-16.76
364.056	4.94
364.271	51.25
364.487	17.34
364.703	37.49
364.918	-9.78
365.134	0.87
365.35	14.82
365.565	136.3
365.781	37.68
365.996	65
366.212	136.11
366.427	52.02
366.643	11.53
366.858	30.9
367.074	6.3
367.289	85.73
367.505	143.28
367.72	-9.98
367.936	4.55
368.151	86.12
368.367	61.9
368.582	46.01
368.798	35.17
369.013	71.59
369.228	61.51
369.444	54.93
369.659	102.01
369.874	74.5
370.09	95.03
370.305	-21.02
370.52	51.05
370.736	88.06
370.951	43.88
371.166	87.86
371.381	118.86
371.597	63.65
371.812	-6.3
372.027	7.85
372.242	63.45
372.458	115.38
372.673	36.13
372.888	47.37
373.103	65.58
373.318	137.08
373.533	57.83
373.749	59.96
373.964	-14.43
374.179	83.6
374.394	22.18
374.609	84.18
374.824	-9.2
375.039	108.98
375.254	19.08
375.469	91.74
375.684	41.17
375.899	109.56
376.114	30.71
376.329	44.08
376.544	71.59
376.759	48.92
376.974	33.81
377.189	57.25
377.404	28.58
377.619	103.56
377.834	10.56
378.049	-3
378.264	6.1
378.478	65.2
378.693	31.29
378.908	71.78
379.123	48.53
379.338	73.72
379.553	77.98
379.767	58.41
379.982	84.38
380.197	98.91
380.412	28.19
380.626	96.58
380.841	160.52
381.056	88.83
381.271	140.95
381.485	30.13
381.7	7.85
381.915	80.11
382.129	19.08
382.344	39.82
382.559	35.36
382.773	107.82
382.988	6.68
383.202	70.04
383.417	12.11
383.632	157.81
383.846	55.7
384.061	63.26
384.275	13.85
384.49	52.02
384.704	74.88
384.919	82.05
385.133	66.94
385.348	87.28
385.562	28.58
385.777	123.32
385.991	80.31
386.206	34.58
386.42	38.65
386.634	85.15
386.849	117.51
387.063	74.11
387.277	62.87
387.492	37.1
387.706	6.68
387.92	40.4
388.135	100.26
388.349	85.93
388.563	73.91
388.778	62.68
388.992	80.31
389.206	110.92
389.42	158
389.635	50.66
389.849	107.82
390.063	124.29
390.277	84.38
390.491	155.48
390.706	102.59
390.92	118.28
391.134	83.41
391.348	120.61
391.562	33.62
391.776	87.67
391.99	70.62
392.205	142.69
392.419	92.9
392.633	106.46
392.847	132.04
393.061	38.07
393.275	125.65
393.489	74.69
393.703	54.73
393.917	129.91
394.131	49.5
394.345	91.55
394.559	119.64
394.773	70.04
394.986	102.98
395.2	88.64
395.414	154.9
395.628	48.92
395.842	110.34
396.056	94.26
396.27	64.81
396.484	109.95
396.697	82.83
396.911	122.93
397.125	93.87
397.339	133.39
397.553	76.43
397.766	172.92
397.98	114.41
398.194	141.34
398.408	104.53
398.621	126.61
398.835	144.83
399.049	122.74
399.262	162.84
399.476	175.05
399.69	184.93
399.903	212.64
400.117	149.48
400.331	180.67
400.544	140.56
400.758	262.82
400.971	148.31
401.185	201.79
401.398	139.21
401.612	209.15
401.826	186.87
402.039	205.86
402.253	147.15
402.466	197.91
402.68	149.09
402.893	193.46
403.106	183.77
403.32	180.67
403.533	207.6
403.747	201.79
403.96	193.46
404.174	217.68
404.387	153.54
404.6	175.63
404.814	221.94
405.027	193.26
405.24	175.05
405.454	172.92
405.667	221.74
405.88	161.88
406.094	204.89
406.307	231.24
406.52	206.63
406.733	139.01
406.947	118.86
407.16	228.33
407.373	238.41
407.586	184.16
407.799	139.98
408.012	228.72
408.226	184.93
408.439	228.72
408.652	127.78
408.865	207.6
409.078	260.11
409.291	239.37
409.504	197.14
409.717	254.68
409.93	234.53
410.143	219.81
410.357	178.73
410.57	165.75
410.783	190.36
410.996	200.04
411.209	197.72
411.421	256.42
411.634	212.64
411.847	206.83
412.06	227.56
412.273	218.26
412.486	227.75
412.699	331.99
412.912	236.66
413.125	264.17
413.338	246.93
413.55	267.08
413.763	233.17
413.976	231.62
414.189	207.6
414.402	226.59
414.615	271.73
414.827	215.93
415.04	262.24
415.253	247.71
415.466	277.35
415.678	325.4
415.891	237.24
416.104	231.43
416.316	242.28
416.529	238.79
416.742	257.01
416.954	280.64
417.167	251.39
417.38	248.48
417.592	269.41
417.805	202.18
418.017	183.38
418.23	279.87
418.442	219.22
418.655	238.79
418.868	237.63
419.08	293.24
419.293	291.49
419.505	251.19
419.718	254.1
419.93	296.72
420.142	234.92
420.355	306.02
420.567	283.16
420.78	273.28
420.992	281.81
421.205	322.3
421.417	219.61
421.629	228.52
421.842	245.77
422.054	227.75
422.266	280.45
422.479	301.37
422.691	277.35
422.903	309.51
423.115	234.34
423.328	255.65
423.54	263.79
423.752	232.79
423.964	248.29
424.177	266.11
424.389	253.32
424.601	368.22
424.813	280.06
425.025	293.62
425.238	320.36
425.45	269.6
425.662	255.84
425.874	589.67
426.086	239.57
426.298	304.67
426.51	288.78
426.722	260.69
426.934	259.14
427.146	294.59
427.358	253.32
427.57	280.06
427.782	257.97
427.994	270.37
428.206	261.46
428.418	207.6
428.63	280.45
428.842	306.41
429.054	294.4
429.266	308.15
429.478	270.37
429.69	292.85
429.902	237.24
430.114	306.02
430.325	261.27
430.537	255.65
430.749	241.51
430.961	188.23
431.173	260.49
431.384	261.66
431.596	163.23
431.808	261.46
432.02	275.41
432.231	317.65
432.443	354.27
432.655	298.27
432.867	288.59
433.078	325.01
433.29	390.5
433.502	344
433.713	353.69
433.925	327.92
434.136	365.31
434.348	267.27
434.56	238.6
434.771	377.71
434.983	260.88
435.194	263.59
435.406	320.55
435.617	374.42
435.829	399.99
436.04	384.69
436.252	363.18
436.463	407.35
436.675	378.68
436.886	360.85
437.098	394.57
437.309	445.13
437.521	384.3
437.732	364.73
437.943	352.52
438.155	363.37
438.366	336.64
438.578	406.58
438.789	350.59
439	366.86
439.211	324.04
439.423	345.16
439.634	365.5
439.845	369.77
440.057	376.74
440.268	416.85
440.479	318.81
440.69	374.42
440.902	361.82
441.113	384.3
441.324	335.28
441.535	380.04
441.746	424.21
441.957	323.65
442.168	363.95
442.38	397.86
442.591	401.73
442.802	359.89
443.013	383.72
443.224	435.64
443.435	401.73
443.646	387.79
443.857	402.12
444.068	370.74
444.279	364.34
444.49	473.03
444.701	398.05
444.912	526.7
445.123	449.2
445.334	442.81
445.545	435.83
445.756	422.27
445.967	383.14
446.178	399.41
446.388	441.65
446.599	438.93
446.81	432.93
447.021	385.46
447.232	480.98
447.443	483.69
447.653	382.17
447.864	452.3
448.075	463.35
448.286	448.82
448.496	412.39
448.707	454.05
448.918	410.84
449.129	544.72
449.339	394.95
449.55	455.6
449.761	417.04
449.971	503.45
450.182	456.57
450.393	495.31
450.603	463.73
450.814	504.42
451.024	500.93
451.235	493.57
451.446	545.3
451.656	537.36
451.867	461.22
452.077	499
452.288	527.48
452.498	516.05
452.709	463.54
452.919	481.95
453.13	463.73
453.34	499.77
453.55	415.68
453.761	488.34
453.971	485.63
454.182	509.26
454.392	501.13
454.602	560.22
454.813	508.49
455.023	498.22
455.233	450.37
455.444	499.96
455.654	387.2
455.864	504.03
456.075	459.28
456.285	422.66
456.495	450.37
456.705	481.75
456.916	527.09
457.126	530.58
457.336	488.73
457.546	445.72
457.756	464.12
457.967	534.84
458.177	477.68
458.387	498.8
458.597	471.29
458.807	468.97
459.017	452.88
459.227	477.88
459.437	448.62
459.647	526.7
459.857	530.19
460.068	495.12
460.278	531.35
460.488	519.34
460.698	562.93
460.908	505
461.117	464.32
461.327	498.61
461.537	514.3
461.747	540.46
461.957	522.63
462.167	614.86
462.377	581.34
462.587	496.28
462.797	580.95
463.007	508.88
463.216	556.73
463.426	598.39
463.636	589.86
463.846	515.66
464.056	519.73
464.265	580.95
464.475	498.61
464.685	538.13
464.895	557.9
465.104	517.21
465.314	580.76
465.524	508.3
465.733	499.38
465.943	606.33
466.153	628.03
466.362	585.6
466.572	561.77
466.782	544.14
466.991	568.94
467.201	598.19
467.41	503.45
467.62	557.9
467.829	554.02
468.039	550.92
468.249	561
468.458	587.73
468.668	599.74
468.877	604.39
469.086	618.34
469.296	658.45
469.505	571.65
469.715	651.28
469.924	618.34
470.134	642.76
470.343	640.82
470.552	604.78
470.762	579.98
470.971	563.13
471.18	605.17
471.39	575.91
471.599	560.61
471.808	617.18
472.018	570.29
472.227	661.55
472.436	663.68
472.645	641.01
472.855	588.12
473.064	703.98
473.273	651.28
473.482	676.47
473.691	672.59
473.901	659.61
474.11	627.84
474.319	731.49
474.528	648.76
474.737	744.86
474.946	672.21
475.155	697.01
475.364	733.04
475.573	684.8
475.783	719.87
475.992	727.04
476.201	740.99
476.41	674.92
476.619	655.74
476.828	707.27
477.037	670.66
477.245	718.51
477.454	725.87
477.663	693.52
477.872	705.34
478.081	830.69
478.29	700.49
478.499	842.51
478.708	760.36
478.917	852
479.125	755.13
479.334	776.83
479.543	758.62
479.752	782.45
479.961	758.04
480.169	823.14
480.378	784.97
480.587	927.37
480.796	838.83
481.004	821.39
481.213	853.17
481.422	834.95
481.63	822.17
481.839	862.47
482.048	909.74
482.256	846.58
482.465	846.97
482.674	870.02
482.882	888.43
483.091	956.63
483.299	864.98
483.508	900.83
483.716	853.36
483.925	898.7
484.134	862.08
484.342	846.77
484.551	879.71
484.759	859.56
484.967	913.42
485.176	907.8
485.384	922.72
485.593	939.19
485.801	885.52
486.01	900.05
486.218	825.27
486.426	776.83
486.635	801.63
486.843	770.63
487.051	827.2
487.26	775.09
487.468	845.8
487.676	860.92
487.885	873.7
488.093	888.04
488.301	904.51
488.509	900.44
488.717	953.91
488.926	918.65
489.134	898.89
489.342	939.77
489.55	895.4
489.758	927.76
489.967	912.07
490.175	1011.84
490.383	939.77
490.591	1065.32
490.799	925.63
491.007	1009.91
491.215	969.8
491.423	957.79
491.631	1001.96
491.839	981.62
492.047	1025.99
492.255	926.01
492.463	937.06
492.671	935.31
492.879	1026.57
493.087	955.08
493.295	991.89
493.503	1014.56
493.711	1077.53
493.919	1047.88
494.127	1047.69
494.334	1078.88
494.542	1000.61
494.75	1006.81
494.958	1025.99
495.166	1095.16
495.374	1047.88
495.581	1086.05
495.789	1073.84
495.997	1103.87
496.205	1061.44
496.412	1052.92
496.62	1052.73
496.828	1067.84
497.035	1072.88
497.243	1105.81
497.451	1107.56
497.658	1138.17
497.866	1092.25
498.074	1141.85
498.281	1068.61
498.489	1132.74
498.696	1071.52
498.904	1058.34
499.112	1069.39
499.319	1151.73
499.527	1083.14
499.734	1137.97
499.942	1062.03
500.149	1086.83
500.357	1127.9
500.564	1043.23
500.771	1121.51
500.979	1048.08
501.186	1044.98
501.394	1059.89
501.601	1063.77
501.808	1077.14
502.016	1098.64
502.223	1090.51
502.43	1081.79
502.638	1077.33
502.845	1082.76
503.052	1171.49
503.26	1078.11
503.467	1210.24
503.674	1096.32
503.881	1125.19
504.089	1205.01
504.296	1165.87
504.503	1065.32
504.71	1104.07
504.917	1053.5
505.125	1112.59
505.332	1131.19
505.539	1146.5
505.746	1245.5
505.953	1170.14
506.16	1168.01
506.367	1231.75
506.574	1229.42
506.781	1253.06
506.988	1153.86
507.195	1185.64
507.402	1176.72
507.609	1214.5
507.816	1176.72
508.023	1173.62
508.23	1135.65
508.437	1129.64
508.644	1185.05
508.851	1252.87
509.058	1217.22
509.265	1205.2
509.472	1217.8
509.679	1297.23
509.885	1215.47
510.092	1207.34
510.299	1232.52
510.506	1209.47
510.713	1231.55
510.92	1203.27
511.126	1245.7
511.333	1279.22
511.54	1250.35
511.746	1280.18
511.953	1344.9
512.16	1319.9
512.367	1272.05
512.573	1234.07
512.78	1254.8
512.987	1256.74
513.193	1234.65
513.4	1172.27
513.606	1239.89
513.813	1264.69
514.02	1245.5
514.226	1301.69
514.433	1313.32
514.639	1213.54
514.846	1275.15
515.052	1243.18
515.259	1288.9
515.465	1275.73
515.672	1275.34
515.878	1370.08
516.085	1278.05
516.291	1336.76
516.497	1304.4
516.704	1264.1
516.91	1254.22
517.117	1191.45
517.323	1132.16
517.529	1164.52
517.736	1187.38
517.942	1171.69
518.148	1153.28
518.354	1247.83
518.561	1243.37
518.767	1241.63
518.973	1282.7
519.179	1295.49
519.386	1274.95
519.592	1252.29
519.798	1250.15
520.004	1348.58
520.21	1310.8
520.417	1369.5
520.623	1426.27
520.829	1426.85
521.035	1395.85
521.241	1449.13
521.447	1445.64
521.653	1575.26
521.859	1437.31
522.065	1462.89
522.271	1565.57
522.477	1508.81
522.683	1561.12
522.889	1513.84
523.095	1511.52
523.301	1478.58
523.507	1456.49
523.713	1502.03
523.919	1459.59
524.125	1570.22
524.331	1548.33
524.537	1597.54
524.742	1608.01
524.948	1597.16
525.154	1636.49
525.36	1688.41
525.566	1602.97
525.772	1644.04
525.977	1555.11
526.183	1611.49
526.389	1643.07
526.595	1588.82
526.8	1623.89
527.006	1545.81
527.212	1445.06
527.417	1499.31
527.623	1454.56
527.829	1539.03
528.034	1582.04
528.24	1558.99
528.446	1570.42
528.651	1689.57
528.857	1663.61
529.062	1698.68
529.268	1680.66
529.473	1727.74
529.679	1720.96
529.884	1810.47
530.09	1755.64
530.295	1783.35
530.501	1776.18
530.706	1763.78
530.912	1687.64
531.117	1748.28
531.323	1760.68
531.528	1829.65
531.733	1816.86
531.939	1779.86
532.144	1819.38
532.35	1770.95
532.555	1838.37
532.76	1774.05
532.966	1815.31
533.171	1795.36
533.376	1746.34
533.581	1701.39
533.787	1751.77
533.992	1808.92
534.197	1844.96
534.402	1809.11
534.607	1830.81
534.813	1881.58
535.018	1805.43
535.223	1794.39
535.428	1866.08
535.633	1867.24
535.838	1880.03
536.043	1850.77
536.249	1972.25
536.454	1884.09
536.659	1927.11
536.864	1873.25
537.069	1840.5
537.274	1899.79
537.479	1875.57
537.684	1876.93
537.889	1819
538.094	1983.49
538.299	1865.11
538.504	1873.25
538.708	1926.33
538.913	1934.66
539.118	1894.94
539.323	1968.96
539.528	1876.73
539.733	1892.43
539.938	1893.59
540.142	1928.27
540.347	1874.6
540.552	1824.42
540.757	1869.95
540.962	1872.47
541.166	1814.15
541.371	1823.65
541.576	1859.3
541.781	1805.82
541.985	1870.34
542.19	1893.59
542.395	1971.28
542.599	1986.78
542.804	1942.22
543.008	1965.28
543.213	1899.59
543.418	1876.35
543.622	1934.28
543.827	1900.18
544.031	1940.28
544.236	1995.31
544.44	1965.08
544.645	2053.24
544.849	1967.99
545.054	2003.83
545.258	2039.09
545.463	2032.51
545.667	1936.79
545.872	1977.09
546.076	2009.45
546.281	1991.82
546.485	1974.77
546.689	2013.91
546.894	2026.89
547.098	2008.09
547.302	1930.59
547.507	2003.44
547.711	1961.4
547.915	2005.19
548.119	1953.26
548.324	1941.44
548.528	2023.01
548.732	1958.88
548.936	2017.39
549.141	2032.12
549.345	1986.01
549.549	2004.41
549.753	2023.98
549.957	2061.57
550.161	2083.85
550.366	1992.01
550.57	1975.54
550.774	2016.42
550.978	1997.05
551.182	2049.17
551.386	1980.58
551.59	2010.22
551.794	1977.67
551.998	2006.16
552.202	2010.03
552.406	1962.37
552.61	2051.49
552.814	2049.94
553.018	2063.31
553.222	2014.29
553.426	2028.05
553.63	2090.63
553.833	2013.32
554.037	1966.63
554.241	2040.45
554.445	2036.19
554.649	2006.74
554.853	1983.68
555.056	2026.11
555.26	2055.17
555.464	2008.67
555.668	2020.3
555.871	2037.93
556.075	2060.99
556.279	1987.94
556.483	1973.8
556.686	1998.41
556.89	1977.09
557.094	2023.4
557.297	1959.08
557.501	1998.41
557.704	1909.09
557.908	1984.07
558.112	1920.13
558.315	1994.92
558.519	1970.89
558.722	1923.23
558.926	1905.6
559.129	1864.33
559.333	1877.9
559.536	1841.66
559.74	1843.99
559.943	1794.97
560.147	1821.13
560.35	1820.16
560.553	1849.41
560.757	1799.62
560.96	1951.13
561.164	1879.06
561.367	1964.11
561.57	1861.43
561.774	1885.26
561.977	1862.98
562.18	1840.11
562.384	1977.09
562.587	1883.51
562.79	1823.26
562.993	1855.23
563.197	1876.54
563.4	1904.63
563.603	1941.25
563.806	1932.34
564.009	1847.86
564.212	1863.17
564.416	1779.28
564.619	1871.89
564.822	1758.16
565.025	1861.62
565.228	1800.4
565.431	1765.72
565.634	1716.31
565.837	1767.07
566.04	1746.15
566.243	1725.03
566.446	1671.17
566.649	1769.98
566.852	1695.97
567.055	1737.43
567.258	1787.61
567.461	1835.27
567.664	1828.88
567.867	1682.79
568.07	1761.84
568.273	1773.85
568.475	1820.93
568.678	1719.8
568.881	1695.97
569.084	1707.98
569.287	1616.14
569.489	1649.66
569.692	1688.02
569.895	1715.92
570.098	1652.57
570.3	1618.47
570.503	1552.4
570.706	1604.32
570.909	1595.02
571.111	1556.27
571.314	1584.76
571.516	1552.21
571.719	1569.06
571.922	1578.36
572.124	1582.82
572.327	1566.74
572.529	1517.14
572.732	1509.58
572.935	1618.66
573.137	1661.67
573.34	1574.29
573.542	1617.11
573.745	1605.87
573.947	1532.25
574.15	1574.49
574.352	1534.96
574.554	1627.19
574.757	1552.4
574.959	1509.97
575.162	1545.04
575.364	1493.11
575.566	1631.25
575.769	1482.26
575.971	1533.8
576.173	1418.13
576.376	1510.16
576.578	1540.19
576.78	1590.57
576.982	1423.56
577.185	1494.47
577.387	1444.87
577.589	1467.34
577.791	1511.91
577.993	1513.84
578.196	1472.77
578.398	1483.04
578.6	1506.87
578.802	1399.92
579.004	1421.62
579.206	1406.12
579.408	1466.76
579.61	1415.42
579.812	1478.97
580.014	1466.18
580.216	1411.55
580.418	1427.05
580.62	1394.5
580.822	1342.96
581.024	1393.91
581.226	1463.47
581.428	1407.86
581.63	1488.66
581.832	1415.42
582.034	1437.12
582.236	1431.31
582.438	1449.13
582.64	1462.69
582.841	1492.73
583.043	1510.36
583.245	1459.59
583.447	1419.49
583.649	1407.67
583.85	1432.66
584.052	1441.77
584.254	1372.8
584.456	1459.4
584.657	1356.13
584.859	1421.62
585.061	1390.62
585.262	1369.7
585.464	1336.95
585.666	1406.12
585.867	1343.15
586.069	1406.7
586.27	1369.7
586.472	1381.9
586.674	1357.3
586.875	1335.98
587.077	1358.85
587.278	1373.38
587.48	1346.83
587.681	1434.41
587.883	1383.65
588.084	1303.43
588.285	1349.35
588.487	1314.48
588.688	1348.77
588.89	1271.27
589.091	1249.57
589.292	1309.63
589.494	1258.29
589.695	1218.96
589.896	1144.37
590.098	1143.01
590.299	1201.72
590.5	1140.69
590.702	1173.24
590.903	1179.05
591.104	1267.2
591.305	1255.39
591.507	1309.05
591.708	1275.34
591.909	1223.61
592.11	1354.97
592.311	1272.63
592.512	1230.97
592.714	1217.6
592.915	1185.44
593.116	1206.95
593.317	1230.78
593.518	1255.19
593.719	1217.02
593.92	1273.02
594.121	1262.36
594.322	1262.17
594.523	1256.74
594.724	1182.73
594.925	1204.82
595.126	1250.74
595.327	1240.08
595.528	1266.82
595.729	1249.96
595.929	1192.42
596.13	1263.14
596.331	1256.16
596.532	1235.82
596.733	1305.37
596.934	1292.97
597.135	1262.94
597.335	1275.53
597.536	1201.91
597.737	1236.79
597.938	1193.39
598.138	1255.77
598.339	1249.57
598.54	1225.74
598.74	1208.69
598.941	1217.8
599.142	1281.54
599.342	1217.41
599.543	1186.22
599.744	1199.59
599.944	1199.59
600.145	1191.06
600.345	1214.31
600.546	1314.87
600.746	1284.45
600.947	1304.21
601.147	1230.97
601.348	1279.02
601.548	1166.65
601.749	1227.1
601.949	1155.41
602.15	1152.51
602.35	1201.91
602.551	1230.59
602.751	1169.36
602.951	1185.05
603.152	1135.84
603.352	1244.15
603.552	1220.9
603.753	1230.78
603.953	1213.73
604.153	1218.38
604.354	1198.42
604.554	1182.34
604.754	1216.64
604.954	1168.39
605.155	1233.3
605.355	1195.71
605.555	1223.8
605.755	1246.47
605.955	1194.55
606.155	1249.57
606.356	1201.91
606.556	1219.15
606.756	1192.22
606.956	1172.07
607.156	1270.3
607.356	1122.67
607.556	1204.43
607.756	1183.31
607.956	1247.44
608.156	1184.86
608.356	1110.27
608.556	1200.55
608.756	1159.87
608.956	1101.94
609.156	1188.54
609.356	1126.93
609.556	1121.89
609.755	1156.57
609.955	1153.86
610.155	1155.02
610.355	1166.65
610.555	1091.67
610.755	1145.34
610.954	1104.84
611.154	1118.99
611.354	1183.7
611.554	1069
611.753	1100.97
611.953	1037.03
612.153	1128.09
612.352	1153.09
612.552	1083.14
612.752	1057.96
612.951	1099.22
613.151	1099.81
613.351	1058.34
613.55	1070.16
613.75	1109.3
613.949	1095.93
614.149	1096.32
614.348	1071.52
614.548	1090.51
614.747	1022.11
614.947	1061.83
615.146	995.76
615.346	1087.41
615.545	1062.99
615.745	1087.21
615.944	1114.92
616.144	1069.19
616.343	1073.46
616.542	1053.69
616.742	1075.01
616.941	1054.66
617.14	993.05
617.34	1045.75
617.539	1051.56
617.738	979.1
617.938	1089.15
618.137	1049.82
618.336	1012.04
618.535	1068.42
618.734	1055.63
618.934	1027.54
619.133	1040.52
619.332	1055.05
619.531	1021.14
619.73	1008.74
619.929	1116.27
620.128	1028.31
620.328	1103.1
620.527	1014.36
620.726	1049.82
620.925	1025.6
621.124	1005.45
621.323	1040.52
621.522	996.35
621.721	982.01
621.92	958.18
622.119	1024.44
622.318	992.28
622.517	1005.64
622.715	1014.75
622.914	957.21
623.113	1004.68
623.312	905.09
623.511	990.73
623.71	972.32
623.909	947.13
624.107	1051.18
624.306	937.25
624.505	930.86
624.704	950.62
624.902	959.73
625.101	1017.27
625.3	991.11
625.499	952.36
625.697	937.64
625.896	927.37
626.095	1008.74
626.293	920.01
626.492	926.21
626.69	974.65
626.889	947.52
627.088	969.41
627.286	921.17
627.485	929.7
627.683	951.59
627.882	989.37
628.08	891.72
628.279	918.46
628.477	1006.61
628.676	856.46
628.874	952.75
629.073	913.03
629.271	877.19
629.469	953.14
629.668	927.37
629.866	946.16
630.065	889.78
630.263	945.97
630.461	907.61
630.66	916.13
630.858	945.78
631.056	940.35
631.254	969.8
631.453	894.82
631.651	932.99
631.849	923.69
632.047	922.53
632.245	904.7
632.444	923.69
632.642	932.41
632.84	922.33
633.038	897.34
633.236	883.58
633.434	891.33
633.632	864.98
633.83	886.49
634.028	907.03
634.227	913.23
634.425	960.31
634.623	900.05
634.821	906.83
635.019	874.48
635.216	871.18
635.414	917.3
635.612	918.07
635.81	890.95
636.008	928.34
636.206	855.49
636.404	924.66
636.602	843.48
636.8	879.52
636.997	920.78
637.195	904.9
637.393	892.3
637.591	930.28
637.789	916.33
637.986	884.75
638.184	889.78
638.382	921.95
638.58	921.17
638.777	959.92
638.975	892.69
639.173	892.5
639.37	878.55
639.568	900.63
639.765	906.64
639.963	871.18
640.161	919.04
640.358	923.5
640.556	842.51
640.753	832.24
640.951	845.42
641.148	856.27
641.346	833.4
641.543	836.7
641.741	898.12
641.938	802.99
642.136	823.52
642.333	796.79
642.531	904.51
642.728	902.18
642.925	852.39
643.123	839.6
643.32	820.04
643.517	824.1
643.715	811.7
643.912	817.71
644.109	820.04
644.306	814.03
644.504	759.2
644.701	823.14
644.898	843.09
645.095	815.97
645.293	801.05
645.49	850.26
645.687	810.54
645.884	825.85
646.081	750.48
646.278	768.5
646.475	779.54
646.672	813.06
646.87	842.7
647.067	810.93
647.264	808.41
647.461	742.54
647.658	739.63
647.855	802.79
648.052	780.32
648.249	718.32
648.446	754.55
648.642	726.07
648.839	745.83
649.036	759
649.233	711.73
649.43	717.35
649.627	714.44
649.824	739.82
650.021	722.19
650.217	724.91
650.414	728.2
650.611	761.14
650.808	773.92
651.004	763.85
651.201	768.5
651.398	784.97
651.595	770.24
651.791	745.25
651.988	765.59
652.185	723.94
652.381	783.61
652.578	680.34
652.775	750.29
652.971	710.18
653.168	735.76
653.364	739.44
653.561	668.33
653.757	724.32
653.954	745.05
654.15	699.14
654.347	764.62
654.543	749.7
654.74	697.01
654.936	686.74
655.133	727.04
655.329	724.13
655.525	719.09
655.722	739.05
655.918	682.09
656.115	695.84
656.311	617.96
656.507	609.63
656.704	558.28
656.9	621.44
657.096	624.54
657.292	640.63
657.489	668.33
657.685	702.43
657.881	635.39
658.077	635.98
658.273	683.64
658.47	770.44
658.666	668.72
658.862	705.92
659.058	684.41
659.254	729.17
659.45	664.26
659.646	714.83
659.842	689.45
660.038	743.5
660.234	670.85
660.43	713.67
660.626	785.94
660.822	728.39
661.018	743.12
661.214	687.32
661.41	629.78
661.606	721.61
661.802	713.67
661.998	715.22
662.194	644.89
662.39	703.01
662.586	719.29
662.781	721.61
662.977	711.54
663.173	755.71
663.369	692.36
663.564	710.18
663.76	737.11
663.956	685.57
664.152	756.49
664.347	646.83
664.543	690.22
664.739	667.75
664.934	625.9
665.13	626.29
665.326	694.68
665.521	698.75
665.717	664.65
665.912	621.64
666.108	617.96
666.304	668.91
666.499	674.14
666.695	615.44
666.89	672.01
667.086	686.93
667.281	721.42
667.477	750.09
667.672	680.54
667.867	701.85
668.063	691.19
668.258	657.67
668.454	677.82
668.649	739.63
668.844	677.63
669.04	687.71
669.235	670.66
669.43	656.32
669.626	635.2
669.821	649.34
670.016	625.71
670.211	682.47
670.407	647.6
670.602	684.99
670.797	627.45
670.992	689.84
671.187	641.98
671.382	700.49
671.578	639.46
671.773	696.04
671.968	587.93
672.163	639.46
672.358	656.32
672.553	633.84
672.748	642.76
672.943	727.62
673.138	649.15
673.333	678.99
673.528	623.38
673.723	672.59
673.918	669.69
674.113	603.23
674.308	741.96
674.503	677.63
674.698	672.4
674.892	645.47
675.087	680.73
675.282	663.68
675.477	636.94
675.672	662.71
675.867	655.93
676.061	622.41
676.256	602.26
676.451	628.81
676.646	644.11
676.84	622.03
677.035	604.98
677.23	573.39
677.424	675.89
677.619	673.56
677.814	702.04
678.008	673.95
678.203	580.37
678.397	605.56
678.592	643.53
678.787	732.46
678.981	638.3
679.176	641.21
679.37	631.13
679.565	625.13
679.759	626.09
679.954	668.14
680.148	678.79
680.342	673.95
680.537	643.53
680.731	673.37
680.926	673.37
681.12	667.94
681.314	635.59
681.509	642.56
681.703	641.21
681.897	645.47
682.092	655.54
682.286	615.63
682.48	711.92
682.674	671.43
682.869	620.09
683.063	632.49
683.257	711.54
683.451	628.03
683.645	660.39
683.839	661.36
684.034	633.46
684.228	680.15
684.422	586.38
684.616	594.51
684.81	669.3
685.004	610.59
685.198	632.49
685.392	701.66
685.586	618.93
685.78	642.56
685.974	672.59
686.168	669.3
686.362	696.42
686.556	601.29
686.75	581.34
686.944	615.63
687.138	599.94
687.331	511.78
687.525	540.65
687.719	487.56
687.913	589.67
688.107	553.83
688.301	519.92
688.494	605.94
688.688	510.81
688.882	505.78
689.076	507.13
689.269	563.13
689.463	648.96
689.657	535.23
689.85	524.38
690.044	585.41
690.238	546.27
690.431	535.81
690.625	548.21
690.818	598.97
691.012	597.81
691.205	624.35
691.399	549.18
691.593	599.55
691.786	636.36
691.98	659.03
692.173	647.79
692.366	626.87
692.56	656.9
692.753	685.38
692.947	589.28
693.14	691.39
693.333	712.89
693.527	641.21
693.72	649.93
693.914	635.59
694.107	635.39
694.3	677.24
694.493	651.48
694.687	707.66
694.88	652.06
695.073	672.21
695.266	728.78
695.46	673.95
695.653	765.4
695.846	725.87
696.039	629.58
696.232	689.45
696.425	712.31
696.618	707.66
696.812	745.25
697.005	807.83
697.198	865.95
697.391	797.37
697.584	811.7
697.777	863.24
697.97	880.68
698.163	878.55
698.356	831.85
698.549	945.2
698.742	895.79
698.935	881.26
699.127	870.99
699.32	868.08
699.513	849.87
699.706	902.18
699.899	952.56
700.092	902.96
700.285	966.9
700.477	889.98
700.67	973.29
700.863	988.6
701.056	1067.06
701.248	1052.14
701.441	1029.67
701.634	990.92
701.826	1125.96
702.019	992.28
702.212	1056.99
702.404	1034.71
702.597	1020.18
702.79	1062.61
702.982	1108.72
703.175	1140.49
703.367	1166.46
703.56	1146.31
703.752	1254.61
703.945	1155.61
704.137	1236.4
704.33	1255.77
704.522	1234.46
704.715	1267.2
704.907	1285.8
705.1	1339.08
705.292	1340.25
705.484	1330.75
705.677	1375.51
705.869	1376.09
706.061	1402.44
706.254	1451.65
706.446	1377.25
706.638	1398.56
706.831	1505.71
707.023	1452.04
707.215	1602.19
707.407	1537.29
707.599	1543.29
707.792	1570.81
707.984	1567.9
708.176	1594.83
708.368	1555.89
708.56	1623.12
708.752	1596.96
708.944	1651.99
709.136	1678.34
709.329	1604.52
709.521	1755.45
709.713	1710.3
709.905	1739.37
710.097	1798.07
710.289	1741.3
710.481	1755.45
710.672	1835.08
710.864	1844.38
711.056	1872.08
711.248	1858.71
711.44	1875.96
711.632	1874.41
711.824	1881.77
712.016	1947.84
712.207	1923.04
712.399	1969.15
712.591	2031.34
712.783	1988.33
712.975	2030.57
713.166	1944.74
713.358	2038.32
713.55	2097.6
713.741	2095.86
713.933	2094.5
714.125	2115.24
714.316	2062.92
714.508	2174.52
714.7	2229.74
714.891	2182.47
715.083	2245.43
715.274	2186.15
715.466	2236.13
715.657	2282.44
715.849	2186.92
716.04	2212.3
716.232	2189.44
716.423	2282.05
716.615	2205.72
716.806	2199.9
716.998	2181.69
717.189	2090.63
717.381	2030.57
717.572	2025.72
717.763	2090.44
717.955	2062.92
718.146	1988.52
718.337	1978.26
718.528	1955.2
718.72	1896.49
718.911	1929.43
719.102	1882.93
719.293	1942.41
719.485	1969.73
719.676	1936.79
719.867	1870.92
720.058	1917.23
720.249	1927.49
720.44	1964.89
720.632	2011.97
720.823	2034.64
721.014	2201.26
721.205	2169.1
721.396	2224.12
721.587	2360.52
721.778	2381.25
721.969	2422.71
722.16	2471.15
722.351	2470.96
722.542	2626.15
722.733	2612.39
722.924	2549.81
723.115	2636.8
723.305	2622.27
723.496	2643.2
723.687	2503.5
723.878	2541.87
724.069	2523.07
724.26	2565.7
724.45	2458.94
724.641	2466.11
724.832	2537.02
725.023	2507.96
725.213	2508.93
725.404	2519.97
725.595	2517.84
725.785	2477.93
725.976	2631.57
726.167	2576.55
726.357	2575.39
726.548	2680.78
726.739	2604.25
726.929	2684.27
727.12	2688.15
727.31	2738.91
727.501	2697.83
727.691	2725.54
727.882	2723.6
728.072	2780.76
728.263	2767
728.453	2788.12
728.644	2844.11
728.834	2810.4
729.024	2821.64
729.215	2782.69
729.405	2812.14
729.596	2873.17
729.786	2879.57
729.976	2926.65
730.167	2933.62
730.357	2865.23
730.547	2911.73
730.737	2958.04
730.928	3014.8
731.118	3049.87
731.308	3015.38
731.498	2998.14
731.688	3135.12
731.879	3098.5
732.069	3178.71
732.259	3171.16
732.449	3191.31
732.639	3315.5
732.829	3323.64
733.019	3363.74
733.209	3434.46
733.399	3371.3
733.589	3442.99
733.779	3498.59
733.969	3484.64
734.159	3553.42
734.349	3570.66
734.539	3704.35
734.729	3687.88
734.919	3692.34
735.109	3762.09
735.299	3661.53
735.488	3743.1
735.678	3670.25
735.868	3744.26
736.058	3739.81
736.248	3706.68
736.437	3677.23
736.627	3673.54
736.817	3788.44
737.007	3744.46
737.196	3798.51
737.386	3789.21
737.576	3720.62
737.765	3819.24
737.955	3795.99
738.144	3919.6
738.334	3901.2
738.524	3802
738.713	3882.6
738.903	3868.26
739.092	3921.35
739.282	3920.57
739.471	3911.66
739.661	3875.24
739.85	3968.23
740.04	3936.27
740.229	3905.27
740.419	3968.62
740.608	3996.13
740.797	3983.35
740.987	4070.92
741.176	4032.36
741.365	3940.92
741.555	3939.95
741.744	4018.41
741.933	3946.34
742.123	4065.3
742.312	4064.14
742.501	4102.11
742.69	4093.98
742.88	4054.45
743.069	4175.16
743.258	4117.03
743.447	4166.63
743.636	4144.16
743.825	4097.66
744.014	4169.34
744.204	4211.39
744.393	4056.78
744.582	4208.48
744.771	4212.16
744.96	4167.99
745.149	4203.06
745.338	4162.56
745.527	4232.7
745.716	4206.16
745.905	4168.57
746.094	4254.59
746.283	4252.07
746.471	4211.58
746.66	4295.28
746.849	4270.48
747.038	4311.94
747.227	4227.27
747.416	4302.84
747.604	4169.54
747.793	4215.07
747.982	4247.62
748.171	4263.89
748.359	4267.57
748.548	4267.57
748.737	4231.34
748.926	4224.76
749.114	4130.59
749.303	4233.28
749.491	4246.84
749.68	4129.82
749.869	4303.42
750.057	4182.32
750.246	4229.6
750.434	4224.56
750.623	4242.97
750.811	4171.28
751	4262.15
751.188	4166.24
751.377	4192.01
751.565	4182.32
751.754	4154.81
751.942	4134.66
752.131	4255.56
752.319	4116.84
752.507	4124.2
752.696	4145.13
752.884	4201.12
753.072	4150.16
753.261	4163.34
753.449	4207.71
753.637	4134.86
753.825	4247.62
754.014	4178.26
754.202	4142.41
754.39	4297.02
754.578	4194.72
754.766	4150.55
754.955	4097.08
755.143	4229.02
755.331	4124.78
755.519	4178.45
755.707	4110.06
755.895	4129.24
756.083	4163.53
756.271	4060.46
756.459	4124.78
756.647	4190.66
756.835	4111.61
757.023	4068.79
757.211	4072.47
757.399	4077.12
757.587	4118.58
757.775	3987.41
757.963	4053.68
758.151	4080.22
758.339	3991.68
758.526	4007.18
758.714	4038.18
758.902	3960.87
759.09	3874.07
759.278	3735.93
759.465	3446.09
759.653	3089.4
759.841	2913.47
760.028	2502.54
760.216	2247.95
760.404	2142.75
760.591	1833.72
760.779	1569.64
760.967	1425.5
761.154	1253.64
761.342	1259.26
761.529	1300.72
761.717	1394.69
761.905	1400.5
762.092	1517.91
762.28	1465.41
762.467	1548.33
762.655	1446.42
762.842	1484.2
763.029	1495.44
763.217	1548.52
763.404	1546.39
763.592	1602
763.779	1561.51
763.966	1598.9
764.154	1610.72
764.341	1731.42
764.528	1709.92
764.716	1796.33
764.903	1850
765.09	1900.56
765.277	1968.37
765.465	2082.3
765.652	2186.15
765.839	2252.8
766.026	2389.78
766.213	2385.9
766.4	2483.55
766.588	2751.7
766.775	2695.12
766.962	2812.53
767.149	2869.88
767.336	2996.59
767.523	2987.29
767.71	3093.27
767.897	3234.13
768.084	3269
768.271	3283.34
768.458	3368.97
768.645	3442.21
768.832	3398.23
769.019	3472.63
769.206	3441.24
769.392	3541.99
769.579	3617.75
769.766	3567.18
769.953	3561.36
770.14	3611.93
770.327	3600.31
770.513	3600.31
770.7	3741.55
770.887	3596.24
771.073	3616.39
771.26	3632.66
771.447	3588.88
771.634	3583.84
771.82	3675.48
772.007	3586.55
772.193	3593.53
772.38	3685.94
772.567	3605.93
772.753	3615.61
772.94	3646.42
773.126	3668.89
773.313	3673.93
773.499	3633.44
773.686	3646.03
773.872	3572.99
774.059	3607.86
774.245	3590.04
774.432	3595.27
774.618	3487.16
774.804	3596.05
774.991	3549.16
775.177	3572.41
775.363	3535.4
775.55	3597.01
775.736	3548.58
775.922	3532.88
776.109	3505.18
776.295	3536.95
776.481	3608.25
776.667	3611.74
776.853	3563.3
777.04	3497.04
777.226	3515.83
777.412	3575.51
777.598	3461.97
777.784	3498.2
777.97	3481.73
778.156	3559.04
778.342	3479.02
778.528	3441.05
778.715	3385.64
778.901	3414.31
779.087	3468.37
779.272	3399.78
779.458	3402.3
779.644	3447.25
779.83	3374.4
780.016	3530.17
780.202	3408.69
780.388	3393.97
780.574	3334.49
780.76	3380.4
780.946	3389.7
781.131	3394.35
781.317	3308.14
781.503	3352.7
781.689	3306.2
781.874	3458.1
782.06	3341.27
782.246	3335.65
782.432	3319.37
782.617	3344.37
782.803	3381.76
782.989	3285.08
783.174	3268.61
783.36	3235.29
783.545	3257.18
783.731	3300
783.916	3216.3
784.102	3260.28
784.288	3216.69
784.473	3196.15
784.659	3170.77
784.844	3262.99
785.029	3174.26
785.215	3209.33
785.4	3119.04
785.586	3273.26
785.771	3132.6
785.956	3185.5
786.142	3166.31
786.327	3133.57
786.512	3168.83
786.698	3138.22
786.883	3050.65
787.068	3082.23
787.254	3122.14
787.439	3113.03
787.624	3058.78
787.809	3078.16
787.994	3089.78
788.18	3156.43
788.365	3044.06
788.55	3045.22
788.735	3042.12
788.92	3024.88
789.105	3060.14
789.29	3052
789.475	2953.19
789.66	2995.43
789.845	2996.01
790.03	2948.93
790.215	3009.96
790.4	3028.37
790.585	3041.73
790.77	2985.74
790.955	2899.91
791.14	2995.82
791.325	3035.73
791.51	2880.92
791.695	2952.42
791.879	2957.45
792.064	2875.11
792.249	2989.42
792.434	2876.27
792.618	2914.64
792.803	2958.42
792.988	2920.26
793.173	2929.17
793.357	2968.3
793.542	2872.01
793.727	2921.61
793.911	2964.82
794.096	2890.61
794.281	3000.85
794.465	3001.24
794.65	2958.62
794.834	2964.04
795.019	2999.69
795.203	2999.3
795.388	2995.24
795.572	3025.85
795.757	2982.84
795.941	3025.46
796.126	2989.04
796.31	2929.55
796.494	3004.34
796.679	2942.15
796.863	2931.69
797.048	3071.77
797.232	2984.58
797.416	3002.79
797.601	3001.24
797.785	3036.89
797.969	3033.21
798.153	2984.39
798.338	3030.3
798.522	3028.56
798.706	3036.12
798.89	3062.27
799.074	3138.61
799.258	3096.37
799.443	3033.4
799.627	3007.44
799.811	3102.38
799.995	2982.45
800.179	3008.8
800.363	2979.15
800.547	2987.68
800.731	3044.45
800.915	2940.79
801.099	2983.61
801.283	2976.83
801.467	3002.02
801.651	2989.42
801.835	3069.63
802.019	3023.33
802.202	3037.67
802.386	2942.92
802.57	2962.69
802.754	2985.74
802.938	2952.03
803.121	2953.77
803.305	3024.49
803.489	3003.18
803.673	3006.28
803.856	3049.29
804.04	3002.02
804.224	2992.72
804.407	2988.65
804.591	2960.17
804.775	2951.06
804.958	2983.61
805.142	3112.45
805.326	3003.95
805.509	3013.06
805.693	3006.86
805.876	3023.72
806.06	2957.65
806.243	3024.49
806.427	3049.1
806.61	3032.24
806.794	3014.61
806.977	3053.17
807.16	2998.34
807.344	3004.54
807.527	2997.56
807.71	2991.55
807.894	2988.65
808.077	3021.58
808.26	2977.02
808.444	2974.89
808.627	3005.31
808.81	2993.1
808.993	2878.21
809.177	2879.76
809.36	2901.27
809.543	2930.52
809.726	2855.54
809.909	2889.06
810.092	2791.03
810.276	2840.82
810.459	2830.74
810.642	2821.44
810.825	2796.64
811.008	2826.09
811.191	2711.4
811.374	2734.45
811.557	2735.81
811.74	2800.52
811.923	2655.79
812.106	2700.35
812.289	2683.5
812.472	2670.32
812.654	2674
812.837	2643.97
813.02	2574.61
813.203	2544.58
813.386	2476.38
813.569	2457.01
813.751	2389
813.934	2438.6
814.117	2401.59
814.3	2352.38
814.482	2360.33
814.665	2299.88
814.848	2246.6
815.03	2192.35
815.213	2176.85
815.396	2171.62
815.578	2129.96
815.761	2093.92
815.943	2199.71
816.126	2064.67
816.309	2037.74
816.491	2017.01
816.674	1924.98
816.856	1952.1
817.039	1939.7
817.221	2048.59
817.403	1989.11
817.586	2008.87
817.768	2026.31
817.951	1950.36
818.133	1921.49
818.315	1905.41
818.498	1993.56
818.68	2039.09
818.862	2006.35
819.045	2048.39
819.227	2020.49
819.409	1968.96
819.591	2041.61
819.774	1966.05
819.956	1965.86
820.138	2048.39
820.32	1989.3
820.502	2070.48
820.684	2114.27
820.866	2090.82
821.048	2221.22
821.231	2191.96
821.413	2194.87
821.595	2153.02
821.777	2202.62
821.959	2190.41
822.141	2259.58
822.323	2119.89
822.505	2039.87
822.686	2004.99
822.868	1919.36
823.05	1813.18
823.232	1776.95
823.414	1686.09
823.596	1780.25
823.778	1757.38
823.96	1823.06
824.141	1801.95
824.323	1800.98
824.505	1897.85
824.687	1964.11
824.868	1995.5
825.05	2061.76
825.232	2117.75
825.413	2203.78
825.595	2136.55
825.777	2009.26
825.958	2111.17
826.14	2092.76
826.321	2138.29
826.503	2106.9
826.685	2131.9
826.866	2149.14
827.048	2132.67
827.229	2069.32
827.411	2063.31
827.592	2002.86
827.773	1973.22
827.955	1961.98
828.136	1951.71
828.318	1916.26
828.499	1990.85
828.68	1874.8
828.862	1931.18
829.043	1959.08
829.224	1918.58
829.406	1881.77
829.587	1884.68
829.768	1885.84
829.949	1918.39
830.131	1875.76
830.312	1959.08
830.493	1889.33
830.674	1926.53
830.855	1887.39
831.036	1906.96
831.218	1978.64
831.399	1995.69
831.58	1928.08
831.761	1919.16
831.942	1921.29
832.123	1902.11
832.304	1867.24
832.485	1886.42
832.666	1887.19
832.847	1908.89
833.028	1911.03
833.209	1891.26
833.389	1887.58
833.57	1871.5
833.751	1809.7
833.932	1924.01
834.113	1859.1
834.294	1867.63
834.475	1890.1
834.655	1929.24
834.836	1927.69
835.017	1924.01
835.198	1858.52
835.378	1875.96
835.559	1903.08
835.74	1898.43
835.92	1925.75
836.101	1888.94
836.281	1924.98
836.462	1894.36
836.643	1917.03
836.823	1936.79
837.004	1944.16
837.184	2001.89
837.365	1972.64
837.545	2011.77
837.726	1931.37
837.906	2012.55
838.087	1935.44
838.267	1909.67
838.448	1876.35
838.628	1953.65
838.808	1959.46
838.989	1979.42
839.169	1865.5
839.349	1941.06
839.53	1939.31
839.71	1991.24
839.89	1889.91
840.07	1966.24
840.251	1902.69
840.431	1977.67
840.611	1945.71
840.791	1894.56
840.971	1956.56
841.151	1888.16
841.332	1884.09
841.512	1967.79
841.692	1847.86
841.872	1916.45
842.052	1890.1
842.232	1943.19
842.412	1831.01
842.592	1846.31
842.772	1934.08
842.952	1924.2
843.132	1828.68
843.312	1864.33
843.492	1845.35
843.672	1930.21
843.851	1805.24
844.031	1860.46
844.211	1858.52
844.391	1809.31
844.571	1874.6
844.751	1866.85
844.93	1883.71
845.11	1797.68
845.29	1845.93
845.47	1836.63
845.649	1840.5
845.829	1878.67
846.009	1822.48
846.188	1849.8
846.368	1846.12
846.547	1823.45
846.727	1861.62
846.907	1764.75
847.086	1823.65
847.266	1868.4
847.445	1808.15
847.625	1784.32
847.804	1758.16
847.984	1820.74
848.163	1749.83
848.343	1772.88
848.522	1771.33
848.701	1793.42
848.881	1750.6
849.06	1791.87
849.239	1758.74
849.419	1768.23
849.598	1743.82
849.777	1695.39
849.957	1681.44
850.136	1613.43
850.315	1616.14
850.494	1615.17
850.674	1627.96
850.853	1666.9
851.032	1635.32
851.211	1708.95
851.39	1665.35
851.569	1590.37
851.748	1621.37
851.927	1686.86
852.107	1673.49
852.286	1636.68
852.465	1593.47
852.644	1689.57
852.823	1664.39
853.002	1677.75
853.181	1619.82
853.359	1682.99
853.538	1603.74
853.717	1670.97
853.896	1567.32
854.075	1493.11
854.254	1478.39
854.433	1407.28
854.611	1445.06
854.79	1364.27
854.969	1470.44
855.148	1506.87
855.327	1413.1
855.505	1463.08
855.684	1477.03
855.863	1507.06
856.041	1457.85
856.22	1522.95
856.399	1479.74
856.577	1573.32
856.756	1547.75
856.934	1686.47
857.113	1675.43
857.291	1577.39
857.47	1542.52
857.648	1571.58
857.827	1584.17
858.005	1627.96
858.184	1563.06
858.362	1683.18
858.541	1561.89
858.719	1549.3
858.898	1553.37
859.076	1541.55
859.254	1607.62
859.433	1549.49
859.611	1550.66
859.789	1497.38
859.967	1603.55
860.146	1612.07
860.324	1492.34
860.502	1518.11
860.68	1448.36
860.859	1512.88
861.037	1508.61
861.215	1523.73
861.393	1529.15
861.571	1488.66
861.749	1503.19
861.927	1486.14
862.105	1522.76
862.283	1532.64
862.461	1464.83
862.639	1476.45
862.817	1470.44
862.995	1499.7
863.173	1477.23
863.351	1476.64
863.529	1522.95
863.707	1523.34
863.885	1478.78
864.063	1395.46
864.241	1448.74
864.418	1498.54
864.596	1422.2
864.774	1393.72
864.952	1441.19
865.129	1417.55
865.307	1400.7
865.485	1379.19
865.663	1464.63
865.84	1348
866.018	1387.52
866.196	1216.64
866.373	1265.07
866.551	1252.09
866.728	1168.39
866.906	1228.26
867.084	1248.8
867.261	1277.08
867.439	1292.58
867.616	1313.51
867.794	1305.18
867.971	1341.02
868.149	1352.07
868.326	1384.42
868.503	1327.85
868.681	1346.83
868.858	1325.13
869.035	1299.95
869.213	1362.72
869.39	1330.56
869.567	1424.53
869.745	1308.08
869.922	1356.33
870.099	1365.82
870.276	1413.1
870.454	1373.38
870.631	1376.09
870.808	1333.66
870.985	1349.74
871.162	1421.43
871.339	1337.92
871.517	1298.4
871.694	1258.68
871.871	1339.08
872.048	1324.94
872.225	1329.2
872.402	1284.83
872.579	1278.83
872.756	1325.52
872.933	1278.25
873.11	1259.65
873.287	1301.11
873.463	1292.39
873.64	1271.27
873.817	1271.85
873.994	1266.04
874.171	1241.82
874.348	1308.08
874.524	1204.04
874.701	1252.67
874.878	1199.97
875.055	1266.62
875.231	1249.57
875.408	1284.64
875.585	1177.89
875.762	1234.46
875.938	1209.47
876.115	1223.61
876.291	1235.62
876.468	1218.19
876.645	1169.94
876.821	1177.5
876.998	1221.09
877.174	1181.37
877.351	1183.89
877.527	1178.27
877.704	1220.32
877.88	1217.02
878.057	1151.92
878.233	1218.38
878.409	1179.05
878.586	1194.16
878.762	1156.57
878.938	1137.78
879.115	1124.41
879.291	1165.29
879.467	1138.75
879.644	1125.57
879.82	1162.39
879.996	1140.69
880.172	1098.84
880.349	1180.4
880.525	1160.64
880.701	1082.95
880.877	1090.89
881.053	1152.89
881.229	1104.84
881.405	1171.49
881.581	1084.69
881.757	1114.14
881.933	1119.76
882.109	1177.11
882.285	1133.71
882.461	1099.22
882.637	1140.49
882.813	1093.22
882.989	1102.32
883.165	1162.19
883.341	1100.58
883.517	1175.56
883.693	1137.78
883.869	1136.42
884.044	1072.49
884.22	1165.68
884.396	1164.91
884.572	1131
884.747	1151.15
884.923	1149.21
885.099	1166.07
885.275	1156.96
885.45	1112.4
885.626	1144.17
885.801	1079.66
885.977	1115.69
886.153	1035.87
886.328	1152.31
886.504	1094.38
886.679	1131.19
886.855	1108.14
887.03	1146.5
887.206	1142.62
887.381	1136.81
887.557	1129.45
887.732	1116.47
887.908	1167.81
888.083	1157.35
888.258	1087.02
888.434	1094.19
888.609	1083.53
888.784	1161.03
888.96	1091.67
889.135	1079.46
889.31	1086.05
889.485	1116.08
889.661	1094.38
889.836	1159.87
890.011	1104.84
890.186	1081.21
890.361	1113.95
890.537	1101.55
890.712	1117.82
890.887	1165.29
891.062	1120.34
891.237	1159.29
891.412	1094.57
891.587	1126.93
891.762	1158.51
891.937	1188.74
892.112	1095.35
892.287	1100.39
892.462	1059.12
892.637	1070.55
892.812	1032.38
892.987	1042.07
893.161	1014.56
893.336	1027.54
893.511	1068.03
893.686	1068.81
893.861	1022.11
894.035	1048.46
894.21	1069.58
894.385	990.53
894.56	1026.96
894.734	961.08
894.909	987.05
895.084	1010.88
895.258	983.17
895.433	989.56
895.608	931.05
895.782	898.5
895.957	900.25
896.131	909.74
896.306	862.27
896.48	870.22
896.655	865.37
896.829	795.04
897.004	809.57
897.178	811.9
897.353	793.1
897.527	824.49
897.701	797.75
897.876	753.77
898.05	842.7
898.224	836.7
898.399	882.81
898.573	822.55
898.747	704.76
898.921	754.55
899.096	645.86
899.27	667.75
899.444	662.52
899.618	705.72
899.792	714.64
899.967	726.07
900.141	781.29
900.315	679.76
900.489	712.31
900.663	739.05
900.837	707.66
901.011	662.52
901.185	779.15
901.359	722
901.533	730.14
901.707	724.71
901.881	725.29
902.055	656.51
902.229	709.79
902.403	796.59
902.576	700.3
902.75	716.77
902.924	815.19
903.098	777.41
903.272	836.31
903.446	859.95
903.619	832.24
903.793	852.39
903.967	835.34
904.14	867.5
904.314	854.91
904.488	831.08
904.661	881.07
904.835	840.18
905.009	870.8
905.182	909.35
905.356	933.18
905.529	867.7
905.703	827.01
905.876	805.5
906.05	809.96
906.223	791.17
906.397	752.42
906.57	724.52
906.744	687.71
906.917	701.66
907.09	739.44
907.264	709.21
907.437	674.34
907.61	670.85
907.784	686.74
907.957	680.34
908.13	648.38
908.304	684.61
908.477	639.66
908.65	654.38
908.823	598
908.996	699.72
909.17	626.09
909.343	629.58
909.516	633.65
909.689	610.01
909.862	623.77
910.035	647.6
910.208	601.68
910.381	574.75
910.554	690.03
910.727	627.26
910.9	609.63
911.073	591.8
911.246	666.59
911.419	694.68
911.592	656.32
911.765	603.43
911.938	608.66
912.11	646.05
912.283	633.07
912.456	679.37
912.629	639.85
912.802	610.98
912.974	610.98
913.147	542.2
913.32	491.05
913.493	533.29
913.665	555.18
913.838	533.87
914.01	536
914.183	567.39
914.356	536.39
914.528	598.58
914.701	615.24
914.873	615.83
915.046	569.71
915.218	529.8
915.391	471.68
915.563	476.13
915.736	519.53
915.908	562.35
916.081	529.41
916.253	580.95
916.425	556.73
916.598	554.41
916.77	558.48
916.942	538.13
917.115	455.79
917.287	525.93
917.459	544.53
917.632	473.62
917.804	434.28
917.976	532.9
918.148	508.1
918.32	525.54
918.493	550.73
918.665	591.61
918.837	534.06
919.009	594.13
919.181	621.44
919.353	569.33
919.525	558.09
919.697	526.9
919.869	536
920.041	585.21
920.213	682.47
920.385	598
920.557	576.11
920.729	571.07
920.901	593.35
921.073	564.1
921.244	549.18
921.416	580.37
921.588	586.76
921.76	547.82
921.932	641.21
922.103	554.99
922.275	547.43
922.447	560.03
922.619	475.75
922.79	509.46
922.962	543.95
923.134	595.09
923.305	488.15
923.477	476.52
923.648	490.47
923.82	490.47
923.991	472.84
924.163	432.73
924.335	486.01
924.506	457.34
924.677	532.71
924.849	482.72
925.02	490.28
925.192	516.63
925.363	492.99
925.535	500.35
925.706	473.81
925.877	514.88
926.049	498.22
926.22	500.35
926.391	483.69
926.562	523.8
926.734	459.67
926.905	500.16
927.076	415.3
927.247	470.32
927.419	412.2
927.59	415.3
927.761	441.07
927.932	438.16
928.103	426.73
928.274	385.85
928.445	347.1
928.616	387.98
928.787	349.81
928.958	412.78
929.129	409.29
929.3	375.39
929.471	307.77
929.642	263.21
929.813	236.86
929.984	343.42
930.155	248.48
930.326	269.99
930.496	248.67
930.667	178.34
930.838	242.09
931.009	195.39
931.18	238.99
931.35	228.52
931.521	212.06
931.692	186.29
931.863	129.52
932.033	168.66
932.204	176.99
932.374	188.23
932.545	109.95
932.716	202.76
932.886	204.89
933.057	80.5
933.227	120.8
933.398	191.71
933.568	105.11
933.739	40.98
933.909	80.11
934.08	130.3
934.25	35.75
934.421	59.58
934.591	97.94
934.761	72.56
934.932	51.63
935.102	98.71
935.272	82.83
935.443	80.89
935.613	55.9
935.783	76.63
935.953	39.82
936.123	226.39
936.294	53.96
936.464	82.63
936.634	83.99
936.804	40.2
936.974	34.97
937.144	85.93
937.314	89.61
937.484	59.58
937.655	76.63
937.825	109.18
937.995	73.33
938.165	120.03
938.334	86.51
938.504	130.49
938.674	73.33
938.844	116.54
939.014	160.13
939.184	163.23
939.354	189.97
939.524	179.31
939.694	145.21
939.863	126.61
940.033	198.11
940.203	209.73
940.373	145.41
940.542	177.18
940.712	148.31
940.882	171.56
941.051	224.84
941.221	167.49
941.391	205.66
941.56	122.16
941.73	119.06
941.899	260.69
942.069	152.38
942.238	172.53
942.408	129.91
942.577	151.99
942.747	119.45
942.916	74.3
943.086	115.57
943.255	152.38
943.425	141.14
943.594	114.41
943.763	42.72
943.933	81.86
944.102	8.62
944.271	76.63
944.441	136.49
944.61	105.11
944.779	116.93
944.948	227.17
945.117	64.61
945.287	76.24
945.456	61.13
945.625	85.15
945.794	115.76
945.963	83.21
946.132	138.04
946.301	75.08
946.47	156.45
946.639	58.61
946.808	92.9
946.977	135.14
947.146	160.91
947.315	103.75
947.484	155.29
947.653	109.95
947.822	97.16
947.991	78.37
948.16	187.45
948.329	167.3
948.498	125.45
948.666	102.2
948.835	151.99
949.004	68.49
949.173	98.13
949.341	127.78
949.51	118.48
949.679	142.5
949.847	125.65
950.016	164.98
950.185	183.58
950.353	95.23
950.522	106.46
950.69	176.21
950.859	81.66
951.028	134.36
951.196	124.68
951.365	86.9
951.533	112.28
951.701	154.32
951.87	132.43
952.038	68.49
952.207	101.62
952.375	182.03
952.543	88.45
952.712	103.75
952.88	89.22
953.048	180.67
953.217	148.7
953.385	98.91
953.553	145.79
953.721	67.33
953.89	122.74
954.058	48.15
954.226	64.23
954.394	112.28
954.562	72.36
954.73	101.04
954.898	123.13
955.067	132.23
955.235	77.01
955.403	156.26
955.571	194.62
955.739	109.95
955.907	83.21
956.075	63.06
956.243	55.51
956.41	112.47
956.578	70.62
956.746	55.31
956.914	83.99
957.082	124.68
957.25	116.54
957.418	78.95
957.585	97.36
957.753	151.03
957.921	80.89
958.089	143.66
958.256	122.55
958.424	135.91
958.592	122.35
958.759	74.11
958.927	123.51
959.095	82.63
959.262	73.14
959.43	114.21
959.597	55.9
959.765	83.02
959.932	78.37
960.1	128.36
960.267	90.77
960.435	98.52
960.602	135.72
960.77	94.65
960.937	49.11
961.104	103.36
961.272	62.87
961.439	59.96
961.606	110.34
961.774	137.66
961.941	121
962.108	128.94
962.275	125.06
962.443	152.19
962.61	124.68
962.777	212.44
962.944	122.16
963.111	120.8
963.278	126.61
963.446	111.7
963.613	108.21
963.78	151.03
963.947	151.03
964.114	113.83
964.281	182.03
964.448	163.81
964.615	70.23
964.782	129.52
964.949	145.6
965.116	128.94
965.282	142.89
965.449	100.26
965.616	90
965.783	129.71
965.95	109.76
966.117	57.83
966.283	113.44
966.45	108.21
966.617	151.22
966.784	170.4
966.95	146.96
967.117	166.91
967.284	70.62
967.45	86.31
967.617	182.22
967.784	164.01
967.95	207.99
968.117	121.19
968.283	170.98
968.45	225.23
968.616	128.94
968.783	169.04
968.949	173.31
969.116	184.35
969.282	141.14
969.449	159.94
969.615	130.68
969.781	90.58
969.948	107.24
970.114	85.54
970.28	209.15
970.447	145.6
970.613	180.09
970.779	114.02
970.945	167.88
971.112	132.62
971.278	147.73
971.444	143.66
971.61	178.15
971.776	110.53
971.942	142.11
972.108	138.04
972.275	111.89
972.441	126.23
972.607	199.46
972.773	103.75
972.939	134.36
973.105	117.12
973.271	94.26
973.437	99.3
973.602	84.38
973.768	155.09
973.934	126.23
974.1	129.71
974.266	59.19
974.432	144.63
974.598	132.23
974.763	148.51
974.929	97.16
975.095	174.47
975.261	69.46
975.426	47.18
975.592	123.13
975.758	183.38
975.923	70.23
976.089	82.05
976.255	136.88
976.42	109.95
976.586	163.43
976.751	114.8
976.917	221.74
977.082	140.76
977.248	45.05
977.413	67.33
977.579	115.18
977.744	128.16
977.91	63.26
978.075	90
978.24	139.21
978.406	95.81
978.571	103.95
978.736	77.79
978.902	120.03
979.067	68.1
979.232	37.68
979.397	114.99
979.563	159.74
979.728	87.09
979.893	104.53
980.058	97.36
980.223	173.5
980.388	131.26
980.554	89.22
980.719	79.15
980.884	133.98
981.049	162.84
981.214	80.89
981.379	128.75
981.544	85.73
981.709	103.75
981.874	102.78
982.039	109.18
982.204	149.86
982.368	87.67
982.533	124.87
982.698	138.43
982.863	140.37
983.028	104.14
983.193	91.16
983.357	120.22
983.522	106.85
983.687	109.18
983.852	110.73
984.016	113.83
984.181	127.78
984.346	128.36
984.51	136.3
984.675	129.71
984.839	124.87
985.004	115.57
985.168	162.26
985.333	96
985.498	97.16
985.662	127.58
985.827	93.29
985.991	92.51
986.155	91.55
986.32	117.12
986.484	176.21
986.649	123.32
986.813	44.08
986.977	85.93
987.142	142.89
987.306	57.45
987.47	79.53
987.634	63.45
987.799	105.3
987.963	141.14
988.127	92.13
988.291	196.36
988.455	126.23
988.62	104.72
988.784	121.58
988.948	136.11
989.112	79.15
989.276	133.39
989.44	100.65
989.604	78.18
989.768	73.91
989.932	177.57
990.096	83.6
990.26	79.34
990.424	19.86
990.588	76.24
990.752	161.29
990.915	148.51
991.079	63.65
991.243	84.76
991.407	128.75
991.571	67.33
991.734	132.04
991.898	115.38
992.062	171.76
992.226	87.67
992.389	78.18
992.553	28
992.717	49.89
992.88	81.47
993.044	83.41
993.207	87.67
993.371	121
993.535	95.03
993.698	102.59
993.862	113.44
994.025	123.13
994.189	115.76
994.352	96.97
994.515	123.13
994.679	96.97
994.842	66.36
995.006	120.41
995.169	40.4
995.332	76.24
995.496	106.27
995.659	43.5
995.822	93.48
995.985	90.58
996.149	147.93
996.312	87.28
996.475	142.31
996.638	77.4
996.801	141.53
996.964	143.28
997.128	87.48
997.291	61.71
997.454	115.57
997.617	26.45
997.78	131.26
997.943	58.22
998.106	116.15
998.269	54.35
998.432	90.58
998.595	76.24
998.758	28.58
998.92	31.48
999.083	16.76
999.246	69.26
999.409	57.83
999.572	-15.79
999.735	69.07
999.897	83.99
1000.06	29.93
1000.223	58.8
1000.386	110.34
1000.548	104.72
1000.711	88.25
1000.874	76.24
1001.036	24.12
1001.199	100.07
1001.361	48.15
1001.524	83.99
1001.687	114.02
1001.849	53.57
1002.012	98.91
1002.174	58.03
1002.337	78.76
1002.499	45.43
1002.661	106.27
1002.824	22.77
1002.986	52.99
1003.149	67.33
1003.311	17.92
1003.473	90
1003.636	40.2
1003.798	64.81
1003.96	103.75
1004.123	97.16
1004.285	33.23
1004.447	47.56
1004.609	52.99
1004.771	112.47
1004.933	16.37
1005.096	19.08
1005.258	1.45
1005.42	11.92
1005.582	105.11
1005.744	69.07
1005.906	3.78
1006.068	79.73
1006.23	25.28
1006.392	3.58
1006.554	23.73
1006.716	105.11
1006.878	94.65
1007.04	6.68
1007.202	37.49
1007.363	65
1007.525	61.32
1007.687	65.39
1007.849	110.53
1008.011	30.9
1008.172	20.05
1008.334	48.92
1008.496	81.08
1008.658	-21.22
1008.819	25.67
1008.981	-12.69
1009.143	11.92
1009.304	22.96
1009.466	51.83
1009.627	100.46
1009.789	127.39
1009.95	74.88
1010.112	46.21
1010.273	71.2
1010.435	50.28
1010.596	65.39
1010.758	19.86
1010.919	43.88
1011.081	28.58
1011.242	17.73
1011.403	69.85
1011.565	45.05
1011.726	53.38
1011.887	3
1012.049	41.17
1012.21	72.17
1012.371	100.26
1012.532	-6.3
1012.693	43.5
1012.855	11.53
1013.016	26.45
1013.177	56.67
1013.338	17.53
1013.499	114.02
1013.66	102.2
1013.821	55.7
1013.982	44.66
1014.143	43.88
1014.304	7.07
1014.465	63.65
1014.626	76.24
1014.787	31.87
1014.948	130.1
1015.109	-54.93
1015.27	74.69
1015.431	14.05
1015.592	25.48
1015.752	88.45
1015.913	52.99
1016.074	48.92
1016.235	30.13
1016.395	31.68
1016.556	16.76
1016.717	41.75
1016.877	89.61
1017.038	28.58
1017.199	65.58
1017.359	53.18
1017.52	44.46
1017.681	6.3
1017.841	25.67
1018.002	18.89
1018.162	22.57
1018.323	108.79
1018.483	14.05
1018.644	15.98
1018.804	-11.53
1018.964	-22.38
1019.125	14.43
1019.285	54.73
1019.446	4.75
1019.606	18.7
1019.766	-10.37
1019.926	40.98
1020.087	23.93
1020.247	2.62
1020.407	56.67
1020.567	53.96
1020.728	29.55
1020.888	-1.65
1021.048	13.47
1021.208	-1.26
1021.368	13.85
1021.528	69.26
1021.688	54.54
1021.848	65.2
1022.008	40.78
1022.168	-0.1
1022.328	31.1
1022.488	60.35
1022.648	-7.07
1022.808	45.63
1022.968	72.75
1023.128	-0.48
1023.288	6.49
1023.448	27.61
1023.608	64.81
1023.767	47.76
1023.927	17.15
1024.087	-28.97
1024.247	-11.14
1024.406	13.66
1024.566	-16.95
1024.726	-10.75
1024.885	61.9
1025.045	41.37
1025.205	4.94
1025.364	31.48
1025.524	17.53
1025.683	12.69
1025.843	11.92
1026.003	7.46
1026.162	87.48
1026.321	58.22
1026.481	16.57
1026.64	15.79
1026.8	10.75
1026.959	29.55
1027.119	28
1027.278	-3.39
1027.437	5.33
1027.597	11.92
1027.756	40.59
1027.915	35.17
1028.074	33.23
1028.234	-4.75
1028.393	55.51
1028.552	0.1
1028.711	-68.1
1028.87	45.43
1029.03	-5.72
1029.189	17.73
1029.348	-57.64
1029.507	4.55
1029.666	9.59
1029.825	-25.09
1029.984	-10.75
1030.143	30.52
1030.302	8.62
1030.461	-30.13
1030.62	15.6
1030.779	71.01
1030.938	5.52
1031.097	-20.44
1031.255	44.27
1031.414	88.25
1031.573	61.51
1031.732	-48.92
1031.891	-11.92
1032.049	47.76
1032.208	12.11
1032.367	11.92
1032.525	6.49
1032.684	4.75
1032.843	12.3
1033.001	-48.34
1033.16	164.98
1033.319	73.14
1033.477	31.48
1033.636	-11.33
1033.794	-31.1
1033.953	51.44
1034.111	25.67
1034.27	-5.13
1034.428	36.33
1034.587	-17.92
1034.745	38.65
1034.903	16.76
1035.062	67.52
1035.22	-7.65
1035.378	48.15
1035.537	-2.23
1035.695	34.58
1035.853	15.21
1036.011	67.13
1036.17	40.59
1036.328	-57.83
1036.486	2.03
1036.644	7.85
1036.802	-96.97
1036.96	-23.73
1037.119	18.12
1037.277	-19.86
1037.435	-59.58
1037.593	-49.5
1037.751	-2.03
1037.909	51.83
1038.067	51.83
