Data from gum_old_FLMT105791__135__15-46-24-252.txt Node

Date: Mon Mar 20 15:46:24 GMT 2023
User: antho
Spectrometer: FLMT10579
Trigger mode: 0
Integration Time (sec): 1.000000E-1
Scans to average: 10
Electric dark correction enabled: true
Nonlinearity correction enabled: false
Boxcar width: 0
XAxis mode: Wavelengths
Number of Pixels in Spectrum: 3648
>>>>>Begin Spectral Data<<<<<
345.248	-172.77
345.464	-172.77
345.681	-172.77
345.898	-199.9
346.114	-168.12
346.331	-38.89
346.548	27.17
346.764	-2.28
346.981	-11.19
347.197	-20.68
347.414	-1.7
347.631	-35.02
347.847	63.79
348.064	10.32
348.28	29.11
348.497	-25.14
348.713	4.5
348.93	32.02
349.146	53.91
349.363	13.22
349.579	24.85
349.796	5.86
350.012	41.51
350.229	84.72
350.445	11.29
350.661	16.13
350.878	5.09
351.094	18.45
351.311	29.89
351.527	31.82
351.743	18.07
351.96	54.88
352.176	44.03
352.392	39.77
352.609	29.89
352.825	-6.15
353.041	21.94
353.257	32.79
353.474	35.31
353.69	23.1
353.906	22.52
354.122	-15.26
354.339	92.08
354.555	15.55
354.771	8.96
354.987	80.45
355.203	74.06
355.42	4.12
355.636	-14.1
355.852	13.42
356.068	41.32
356.284	-19.71
356.5	93.05
356.716	37.83
356.932	12.64
357.148	43.06
357.364	27.75
357.58	65.73
357.796	81.81
358.012	93.24
358.228	44.61
358.444	-4.99
358.66	73.87
358.876	23.49
359.092	-14.29
359.308	36.86
359.524	41.7
359.74	9.74
359.956	-9.25
360.172	26.98
360.388	57.4
360.604	8.38
360.819	100.02
361.035	38.22
361.251	48.29
361.467	-4.99
361.683	65.73
361.898	46.94
362.114	64.76
362.33	17.87
362.546	73.67
362.762	12.06
362.977	54.88
363.193	-16.61
363.409	44.61
363.624	13.42
363.84	14.39
364.056	45.97
364.271	54.69
364.487	36.86
364.703	0.44
364.918	3.15
365.134	10.9
365.35	37.05
365.565	142.45
365.781	33.57
365.996	69.02
366.212	108.93
366.427	71.35
366.643	28.53
366.858	38.8
367.074	16.9
367.289	73.28
367.505	135.67
367.72	-4.41
367.936	32.99
368.151	70.96
368.367	76.38
368.582	34.92
368.798	1.79
369.013	88.98
369.228	70.57
369.444	49.07
369.659	96.15
369.874	70.57
370.09	99.83
370.305	7.6
370.52	18.84
370.736	93.24
370.951	43.25
371.166	98.28
371.381	120.37
371.597	99.63
371.812	30.08
372.027	13.03
372.242	27.56
372.458	114.36
372.673	34.92
372.888	48.49
373.103	77.35
373.318	133.35
373.533	72.32
373.749	49.45
373.964	-5.76
374.179	97.7
374.394	26.2
374.609	100.8
374.824	2.76
375.039	95.95
375.254	23.88
375.469	117.07
375.684	49.26
375.899	110.1
376.114	64.76
376.329	70.38
376.544	84.13
376.759	84.13
376.974	22.14
377.189	23.88
377.404	54.49
377.619	100.8
377.834	4.12
378.049	4.7
378.264	27.75
378.478	76
378.693	39.19
378.908	89.37
379.123	39.96
379.338	105.45
379.553	81.03
379.767	91.88
379.982	80.84
380.197	115.52
380.412	47.13
380.626	94.4
380.841	134.51
381.056	116.1
381.271	128.7
381.485	51.2
381.7	35.5
381.915	91.69
382.129	42.09
382.344	62.44
382.559	55.46
382.773	89.37
382.988	24.27
383.202	78.13
383.417	52.75
383.632	156.6
383.846	44.22
384.061	62.82
384.275	63.79
384.49	85.68
384.704	92.47
384.919	82.2
385.133	80.84
385.348	78.71
385.562	33.37
385.777	109.71
385.991	72.7
386.206	48.1
386.42	72.12
386.634	115.33
386.849	97.12
387.063	56.82
387.277	58.37
387.492	91.11
387.706	37.05
387.92	41.32
388.135	100.6
388.349	78.13
388.563	89.75
388.778	91.88
388.992	84.72
389.206	105.45
389.42	153.3
389.635	81.62
389.849	114.94
390.063	166.48
390.277	90.72
390.491	170.74
390.706	111.07
390.92	126.37
391.134	103.51
391.348	109.32
391.562	44.8
391.776	80.84
391.99	76.77
392.205	137.03
392.419	73.67
392.633	96.53
392.847	139.35
393.061	70.96
393.275	141.87
393.489	93.63
393.703	99.63
393.917	129.28
394.131	55.27
394.345	112.81
394.559	143.62
394.773	47.32
394.986	129.28
395.2	113.2
395.414	156.98
395.628	93.82
395.842	139.35
396.056	101.38
396.27	61.47
396.484	133.15
396.697	126.76
396.911	141.1
397.125	130.44
397.339	105.45
397.553	98.08
397.766	143.42
397.98	130.25
398.194	143.03
398.408	104.28
398.621	140.13
398.835	158.92
399.049	144.58
399.262	180.62
399.476	182.36
399.69	204.45
399.903	259.48
400.117	155.05
400.331	186.24
400.544	157.18
400.758	268
400.971	183.91
401.185	188.37
401.398	130.83
401.612	202.51
401.826	194.18
402.039	229.45
402.253	161.25
402.466	193.6
402.68	180.23
402.893	197.67
403.106	178.68
403.32	190.11
403.533	186.05
403.747	172.1
403.96	208.71
404.174	224.21
404.387	145.17
404.6	210.26
404.814	237
405.027	211.62
405.24	202.32
405.454	168.03
405.667	241.46
405.88	143.23
406.094	237.58
406.307	213.17
406.52	209.68
406.733	162.21
406.947	110.29
407.16	246.69
407.373	232.93
407.586	160.86
407.799	172.68
408.012	223.05
408.226	201.55
408.439	286.79
408.652	174.81
408.865	237.78
409.078	252.11
409.291	230.22
409.504	175.58
409.717	249.4
409.93	243.59
410.143	210.85
410.357	164.73
410.57	141.68
410.783	189.73
410.996	240.68
411.209	186.24
411.421	262.96
411.634	226.93
411.847	223.83
412.06	251.34
412.273	220.73
412.486	250.37
412.699	321.09
412.912	237.2
413.125	259.48
413.338	257.54
413.55	238.16
413.763	231.19
413.976	242.62
414.189	212.2
414.402	234.1
414.615	298.61
414.827	200.77
415.04	288.54
415.253	258.89
415.466	285.83
415.678	308.11
415.891	225.57
416.104	246.11
416.316	238.16
416.529	263.54
416.742	254.24
416.954	302.68
417.167	271.1
417.38	279.43
417.592	309.85
417.805	245.91
418.017	215.88
418.23	262.58
418.442	248.43
418.655	223.44
418.868	255.79
419.08	295.13
419.293	285.05
419.505	276.91
419.718	276.91
419.93	283.89
420.142	277.69
420.355	304.81
420.567	328.64
420.78	276.14
420.992	290.48
421.205	343.37
421.417	216.66
421.629	271.1
421.842	240.49
422.054	222.47
422.266	325.35
422.479	323.61
422.691	259.28
422.903	304.23
423.115	230.41
423.328	269.94
423.54	255.21
423.752	269.94
423.964	251.53
424.177	278.46
424.389	250.37
424.601	399.56
424.813	265.48
425.025	318.57
425.238	315.28
425.45	272.84
425.662	280.21
425.874	586.33
426.086	283.5
426.298	298.42
426.51	292.03
426.722	300.74
426.934	277.49
427.146	340.46
427.358	261.22
427.57	301.33
427.782	279.63
427.994	278.08
428.206	250.18
428.418	251.92
428.63	325.74
428.842	321.28
429.054	302.1
429.266	310.43
429.478	254.44
429.69	299.19
429.902	221.89
430.114	280.21
430.325	282.53
430.537	244.36
430.749	262.58
430.961	197.67
431.173	230.8
431.384	277.3
431.596	180.62
431.808	242.23
432.02	289.51
432.231	347.44
432.443	373.98
432.655	334.65
432.867	313.14
433.078	330.39
433.29	384.44
433.502	352.47
433.713	370.3
433.925	352.86
434.136	400.14
434.348	300.94
434.56	274.2
434.771	415.64
434.983	279.43
435.194	279.04
435.406	316.44
435.617	398.01
435.829	393.36
436.04	373.59
436.252	352.67
436.463	412.92
436.675	392.39
436.886	349.37
437.098	384.44
437.309	436.95
437.521	391.22
437.732	376.89
437.943	371.85
438.155	366.81
438.366	322.06
438.578	430.75
438.789	370.11
439	398.01
439.211	368.56
439.423	350.34
439.634	383.86
439.845	385.8
440.057	418.15
440.268	425.52
440.479	370.88
440.69	378.82
440.902	380.96
441.113	378.44
441.324	352.09
441.535	428.04
441.746	419.51
441.957	394.52
442.168	409.63
442.38	428.81
442.591	428.23
442.802	355.77
443.013	407.89
443.224	466.59
443.435	396.65
443.646	414.67
443.857	407.5
444.068	385.99
444.279	394.32
444.49	494.3
444.701	413.12
444.912	551.65
445.123	446.25
445.334	417.96
445.545	435.98
445.756	452.45
445.967	375.53
446.178	451.29
446.388	464.65
446.599	438.89
446.81	431.91
447.021	436.75
447.232	467.37
447.443	504.95
447.653	440.24
447.864	506.5
448.075	458.26
448.286	493.14
448.496	483.45
448.707	498.17
448.918	463.69
449.129	542.15
449.339	452.64
449.55	499.53
449.761	455.35
449.971	522.97
450.182	452.06
450.393	483.25
450.603	451.29
450.814	516
451.024	516.38
451.235	577.61
451.446	562.3
451.656	543.7
451.867	486.16
452.077	487.32
452.288	580.9
452.498	534.79
452.709	474.15
452.919	510.18
453.13	471.05
453.34	509.22
453.55	437.92
453.761	510.57
453.971	486.94
454.182	529.17
454.392	482.87
454.602	562.5
454.813	547.38
455.023	537.89
455.233	453.8
455.444	499.14
455.654	409.82
455.864	478.6
456.075	475.31
456.285	478.02
456.495	501.85
456.705	503.98
456.916	543.7
457.126	555.13
457.336	523.17
457.546	438.5
457.756	488.87
457.967	552.42
458.177	507.08
458.387	511.93
458.597	471.05
458.807	526.07
459.017	490.42
459.227	484.42
459.437	515.42
459.647	516.19
459.857	570.63
460.068	472.6
460.278	569.08
460.488	516.58
460.698	562.5
460.908	494.88
461.117	479.38
461.327	480.93
461.537	524.52
461.747	542.73
461.957	555.52
462.167	642.71
462.377	567.34
462.587	541.96
462.797	593.3
463.007	555.91
463.216	573.54
463.426	611.13
463.636	587.3
463.846	480.74
464.056	538.08
464.265	599.7
464.475	531.11
464.685	568.31
464.895	562.5
465.104	555.52
465.314	622.36
465.524	535.37
465.733	547.97
465.943	646.58
466.153	657.05
466.362	617.52
466.572	587.68
466.782	555.33
466.991	570.63
467.201	608.8
467.41	545.83
467.62	576.06
467.829	561.33
468.039	590.2
468.249	605.7
468.458	586.13
468.668	602.02
468.877	616.94
469.086	651.04
469.296	657.63
469.505	577.8
469.715	668.09
469.924	649.68
470.134	666.54
470.343	644.65
470.552	603.57
470.762	588.27
470.971	599.7
471.18	600.28
471.39	627.6
471.599	583.23
471.808	632.63
472.018	600.86
472.227	680.49
472.436	680.68
472.645	663.63
472.855	614.03
473.064	719.63
473.273	691.14
473.482	674.68
473.691	726.79
473.901	708.58
474.11	656.85
474.319	759.15
474.528	683.39
474.737	774.65
474.946	718.66
475.155	692.11
475.364	797.12
475.573	726.99
475.783	721.76
475.992	749.27
476.201	772.13
476.41	708.19
476.619	687.85
476.828	728.54
477.037	685.91
477.245	710.33
477.454	751.21
477.663	718.27
477.872	749.85
478.081	840.33
478.29	746.17
478.499	851.76
478.708	792.86
478.917	834.13
479.125	772.71
479.334	793.64
479.543	784.92
479.752	806.62
479.961	795.96
480.169	825.99
480.378	800.03
480.587	948.05
480.796	841.88
481.004	835.87
481.213	869.78
481.422	856.99
481.63	839.17
481.839	871.14
482.048	901.55
482.256	848.08
482.465	917.64
482.674	891.67
482.882	890.51
483.091	963.36
483.299	903.1
483.508	934.69
483.716	931.97
483.925	895.16
484.134	875.79
484.342	894.58
484.551	947.47
484.759	917.25
484.967	937.79
485.176	950.38
485.384	972.66
485.593	949.22
485.801	938.17
486.01	918.8
486.218	875.98
486.426	806.23
486.635	796.35
486.843	823.47
487.051	808.75
487.26	814.76
487.468	852.73
487.676	911.44
487.885	879.08
488.093	888.57
488.301	942.82
488.509	970.14
488.717	972.27
488.926	945.73
489.134	965.68
489.342	974.21
489.55	928.68
489.758	976.73
489.967	971.11
490.175	1096.46
490.383	962
490.591	1083.48
490.799	965.3
491.007	1081.74
491.215	1029.62
491.423	1029.04
491.631	1017.03
491.839	1032.14
492.047	1037.95
492.255	965.3
492.463	955.61
492.671	986.03
492.879	1031.95
493.087	988.93
493.295	1016.83
493.503	1040.28
493.711	1078.25
493.919	1098.98
494.127	1085.81
494.334	1076.31
494.542	1021.1
494.75	1074.96
494.958	1061.01
495.166	1166.02
495.374	1080.96
495.581	1115.26
495.789	1114.48
495.997	1150.33
496.205	1078.83
496.412	1101.89
496.62	1097.05
496.828	1108.09
497.035	1118.16
497.243	1105.96
497.451	1099.76
497.658	1122.23
497.866	1101.89
498.074	1182.88
498.281	1108.48
498.489	1202.06
498.696	1106.15
498.904	1064.5
499.112	1092.01
499.319	1195.47
499.527	1120.88
499.734	1166.02
499.942	1056.16
500.149	1092.4
500.357	1160.98
500.564	1096.66
500.771	1142.77
500.979	1062.36
501.186	1088.33
501.394	1118.55
501.601	1099.37
501.808	1143.54
502.016	1130.95
502.223	1064.3
502.43	1100.34
502.638	1108.48
502.845	1061.2
503.052	1190.24
503.26	1102.08
503.467	1206.12
503.674	1133.86
503.881	1175.13
504.089	1276.26
504.296	1172.61
504.503	1126.69
504.71	1143.35
504.917	1116.42
505.125	1161.56
505.332	1184.23
505.539	1156.53
505.746	1235.96
505.953	1247.97
506.16	1209.22
506.367	1264.25
506.574	1256.69
506.781	1312.3
506.988	1201.09
507.195	1226.47
507.402	1193.14
507.609	1245.46
507.816	1207.67
508.023	1202.06
508.23	1139.86
508.437	1164.66
508.644	1222.98
508.851	1260.18
509.058	1250.88
509.265	1235.38
509.472	1266.77
509.679	1317.92
509.885	1218.14
510.092	1249.91
510.299	1247.39
510.506	1211.55
510.713	1258.24
510.92	1239.26
511.126	1264.25
511.333	1272.58
511.54	1286.92
511.746	1344.27
511.953	1313.46
512.16	1369.65
512.367	1273.94
512.573	1308.62
512.78	1291.37
512.987	1280.72
513.193	1277.62
513.4	1195.66
513.606	1295.64
513.813	1297.38
514.02	1279.94
514.226	1359.77
514.433	1326.25
514.639	1249.52
514.846	1269.87
515.052	1281.88
515.259	1313.85
515.465	1305.9
515.672	1295.44
515.878	1379.92
516.085	1318.3
516.291	1364.22
516.497	1300.29
516.704	1278.59
516.91	1271.61
517.117	1228.21
517.323	1150.91
517.529	1185.59
517.736	1181.52
517.942	1191.98
518.148	1204.57
518.354	1285.76
518.561	1256.5
518.767	1271.22
518.973	1304.94
519.179	1303.39
519.386	1283.82
519.592	1266.57
519.798	1284.98
520.004	1383.02
520.21	1343.88
520.417	1413.82
520.623	1434.94
520.829	1458.77
521.035	1425.06
521.241	1430.1
521.447	1441.14
521.653	1539.95
521.859	1466.91
522.065	1478.73
522.271	1575.79
522.477	1498.1
522.683	1545.38
522.889	1547.7
523.095	1510.31
523.301	1500.81
523.507	1483.96
523.713	1495.39
523.919	1423.12
524.125	1565.91
524.331	1512.25
524.537	1620.16
524.742	1618.03
524.948	1618.42
525.154	1618.23
525.36	1693.21
525.566	1563.59
525.772	1674.22
525.977	1581.22
526.183	1655.23
526.389	1645.74
526.595	1557.78
526.8	1607.96
527.006	1509.15
527.212	1485.31
527.417	1479.31
527.623	1453.73
527.829	1569.01
528.034	1576.18
528.24	1573.86
528.446	1562.23
528.651	1691.66
528.857	1684.29
529.062	1743.58
529.268	1688.17
529.473	1718.59
529.679	1720.91
529.884	1789.89
530.09	1787.75
530.295	1775.74
530.501	1742.22
530.706	1733.89
530.912	1711.03
531.117	1749.78
531.323	1794.54
531.528	1805.97
531.733	1849.17
531.939	1763.92
532.144	1822.43
532.35	1814.3
532.555	1849.56
532.76	1827.86
532.966	1803.25
533.171	1815.46
533.376	1758.89
533.581	1680.22
533.787	1747.65
533.992	1815.27
534.197	1833.48
534.402	1782.33
534.607	1811.39
534.813	1878.43
535.018	1815.46
535.223	1805.39
535.428	1828.25
535.633	1900.13
535.838	1914.85
536.043	1868.93
536.249	1999.33
536.454	1880.17
536.659	1900.9
536.864	1892.18
537.069	1879.78
537.274	1899.16
537.479	1908.65
537.684	1889.47
537.889	1831.35
538.094	1951.66
538.299	1873.97
538.504	1885.02
538.708	1927.64
538.913	1933.84
539.118	1903.42
539.323	1946.05
539.528	1888.5
539.733	1885.02
539.938	1917.18
540.142	1915.63
540.347	1864.48
540.552	1835.22
540.757	1848.78
540.962	1864.87
541.166	1783.88
541.371	1815.65
541.576	1848.78
541.781	1760.24
541.985	1884.63
542.19	1886.76
542.395	1988.67
542.599	1982.86
542.804	1961.16
543.008	1984.99
543.213	1932.87
543.418	1893.93
543.622	1941.98
543.827	1902.45
544.031	1971.23
544.236	1961.74
544.44	1977.63
544.645	2041.76
544.849	1952.25
545.054	1972.2
545.258	2044.28
545.463	2061.13
545.667	1943.14
545.872	2014.05
546.076	1976.46
546.281	1973.95
546.485	1935.97
546.689	1982.08
546.894	2037.3
547.098	2009.01
547.302	1941.01
547.507	1991.58
547.711	1975.11
547.915	2017.15
548.119	1960.38
548.324	1931.9
548.528	2019.09
548.732	1975.5
548.936	2021.22
549.141	2047.18
549.345	1958.64
549.549	2003.78
549.753	2008.63
549.957	2058.42
550.161	2081.28
550.366	2010.37
550.57	1950.5
550.774	2020.64
550.978	2000.49
551.182	2043.11
551.386	1998.94
551.59	1992.74
551.794	1994.87
551.998	2038.27
552.202	1980.73
552.406	1979.95
552.61	2056.29
552.814	2028
553.018	2101.04
553.222	1978.21
553.426	2002.04
553.63	2084.57
553.833	1981.89
554.037	1964.65
554.241	2047.38
554.445	2014.44
554.649	2027.81
554.853	1990.8
555.056	2059.78
555.26	2069.08
555.464	2039.63
555.668	2018.12
555.871	2024.71
556.075	2101.82
556.279	1981.5
556.483	1960.58
556.686	1973.95
556.89	2001.65
557.094	2009.4
557.297	1901.1
557.501	2004.36
557.704	1901.29
557.908	1994.09
558.112	1915.63
558.315	2021.41
558.519	1916.01
558.722	1955.35
558.926	1956.51
559.129	1864.67
559.333	1851.88
559.536	1861.18
559.74	1889.67
559.943	1844.91
560.147	1821.08
560.35	1865.64
560.553	1869.13
560.757	1816.43
560.96	1919.89
561.164	1835.61
561.367	1961.55
561.57	1879.4
561.774	1937.13
561.977	1841.42
562.18	1842.97
562.384	1978.21
562.587	1820.88
562.79	1861.57
562.993	1844.72
563.197	1886.57
563.4	1916.4
563.603	1921.05
563.806	1892.96
564.009	1822.43
564.212	1875.72
564.416	1795.7
564.619	1842.39
564.822	1778.26
565.025	1909.43
565.228	1789.11
565.431	1816.23
565.634	1696.69
565.837	1771.09
566.04	1781.94
566.243	1741.84
566.446	1662.79
566.649	1767.02
566.852	1684.1
567.055	1699.6
567.258	1759.27
567.461	1810.62
567.664	1836.58
567.867	1656.39
568.07	1712.77
568.273	1769.15
568.475	1739.7
568.678	1703.47
568.881	1695.72
569.084	1721.49
569.287	1618.03
569.489	1651.36
569.692	1723.82
569.895	1715.87
570.098	1638.37
570.3	1613.38
570.503	1572.69
570.706	1581.99
570.909	1563.39
571.111	1510.31
571.314	1553.13
571.516	1581.8
571.719	1611.64
571.922	1536.27
572.124	1559.52
572.327	1597.11
572.529	1510.7
572.732	1552.74
572.935	1556.61
573.137	1670.54
573.34	1540.53
573.542	1600.01
573.745	1587.81
573.947	1580.83
574.15	1532.59
574.352	1538.98
574.554	1635.47
574.757	1528.33
574.959	1498.68
575.162	1537.05
575.364	1505.08
575.566	1643.8
575.769	1492.48
575.971	1542.86
576.173	1385.53
576.376	1476.98
576.578	1535.88
576.78	1568.04
576.982	1453.93
577.185	1510.31
577.387	1401.03
577.589	1450.25
577.791	1494.42
577.993	1508.18
578.196	1487.06
578.398	1466.33
578.6	1502.36
578.802	1430.68
579.004	1451.6
579.206	1382.63
579.408	1443.85
579.61	1418.28
579.812	1463.23
580.014	1426.61
580.216	1433.78
580.418	1419.63
580.62	1387.08
580.822	1344.27
581.024	1437.27
581.226	1469.81
581.428	1411.88
581.63	1482.6
581.832	1400.84
582.034	1454.51
582.236	1445.79
582.438	1442.11
582.64	1476.01
582.841	1479.7
583.043	1515.15
583.245	1423.9
583.447	1443.85
583.649	1437.27
583.85	1406.27
584.052	1476.79
584.254	1407.82
584.456	1460.32
584.657	1354.34
584.859	1404.91
585.061	1403.94
585.262	1365.97
585.464	1349.11
585.666	1451.41
585.867	1377.4
586.069	1419.44
586.27	1384.18
586.472	1361.32
586.674	1350.85
586.875	1337.87
587.077	1323.15
587.278	1405.3
587.48	1346.01
587.681	1461.48
587.883	1369.26
588.084	1299.32
588.285	1322.37
588.487	1342.33
588.688	1326.05
588.89	1287.89
589.091	1275.29
589.292	1270.84
589.494	1206.9
589.695	1187.33
589.896	1150.52
590.098	1144.13
590.299	1204.19
590.5	1155.36
590.702	1180.16
590.903	1210
591.104	1296.6
591.305	1230.54
591.507	1293.7
591.708	1305.71
591.909	1244.29
592.11	1340.78
592.311	1273.36
592.512	1250.69
592.714	1198.57
592.915	1206.51
593.116	1223.76
593.317	1268.71
593.518	1269.48
593.719	1238.29
593.92	1246.23
594.121	1311.33
594.322	1240.61
594.523	1241.97
594.724	1195.28
594.925	1237.12
595.126	1247.01
595.327	1261.73
595.528	1216.97
595.729	1248.17
595.929	1246.62
596.13	1261.15
596.331	1241.39
596.532	1235.19
596.733	1284.01
596.934	1266.96
597.135	1272.58
597.335	1278.59
597.536	1220.07
597.737	1248.94
597.938	1192.18
598.138	1272
598.339	1222.21
598.54	1240.42
598.74	1241.97
598.941	1245.46
599.142	1272.39
599.342	1252.04
599.543	1207.48
599.744	1223.17
599.944	1219.88
600.145	1188.88
600.345	1279.17
600.546	1290.4
600.746	1305.32
600.947	1323.54
601.147	1262.89
601.348	1249.33
601.548	1193.34
601.749	1221.43
601.949	1174.16
602.15	1179.58
602.35	1184.23
602.551	1252.04
602.751	1181.91
602.951	1183.65
603.152	1137.93
603.352	1252.82
603.552	1176.29
603.753	1245.84
603.953	1233.83
604.153	1224.14
604.354	1187.33
604.554	1203.22
604.754	1194.11
604.954	1160.21
605.155	1214.26
605.355	1193.73
605.555	1207.09
605.755	1286.72
605.955	1216.78
606.155	1257.86
606.356	1172.61
606.556	1222.79
606.756	1219.88
606.956	1141.22
607.156	1277.62
607.356	1146.84
607.556	1187.53
607.756	1179.97
607.956	1242.74
608.156	1224.72
608.356	1174.16
608.556	1201.86
608.756	1182.29
608.956	1136.18
609.156	1188.69
609.356	1096.27
609.556	1133.66
609.755	1150.52
609.955	1129.21
610.155	1176.48
610.355	1158.85
610.555	1129.98
610.755	1165.05
610.954	1086.78
611.154	1153.23
611.354	1168.73
611.554	1130.95
611.753	1144.9
611.953	1074.38
612.153	1158.66
612.352	1139.48
612.552	1064.11
612.752	1034.66
612.951	1139.09
613.151	1130.56
613.351	1083.87
613.55	1063.33
613.75	1082.32
613.949	1108.48
614.149	1098.4
614.348	1103.25
614.548	1048.03
614.747	1049.96
614.947	1074.18
615.146	1006.57
615.346	1133.86
615.545	1117.58
615.745	1096.85
615.944	1126.11
616.144	1060.43
616.343	1125.53
616.542	1048.8
616.742	1052.87
616.941	1013.15
617.14	993.97
617.34	1056.36
617.539	1029.81
617.738	1018.77
617.938	1123.98
618.137	1046.09
618.336	1005.79
618.535	1072.83
618.734	1057.91
618.934	1061.4
619.133	1074.57
619.332	1074.18
619.531	1040.47
619.73	1039.89
619.929	1114.48
620.128	1078.45
620.328	1140.06
620.527	1027.49
620.726	1037.76
620.925	1036.01
621.124	1037.95
621.323	1042.41
621.522	965.49
621.721	1002.11
621.92	978.86
622.119	1028.46
622.318	979.05
622.517	1009.47
622.715	999.59
622.914	981.57
623.113	1006.95
623.312	950.38
623.511	1011.6
623.71	987.38
623.909	992.42
624.107	1073.6
624.306	952.12
624.505	969.17
624.704	942.24
624.902	949.6
625.101	1044.73
625.3	967.82
625.499	970.72
625.697	972.27
625.896	967.23
626.095	1018.19
626.293	933.14
626.492	949.6
626.69	993
626.889	974.6
627.088	1014.7
627.286	952.32
627.485	953.87
627.683	950.18
627.882	986.03
628.08	884.89
628.279	932.55
628.477	1003.66
628.676	937.4
628.874	965.3
629.073	942.82
629.271	927.52
629.469	979.63
629.668	914.15
629.866	947.28
630.065	912.6
630.263	957.74
630.461	890.7
630.66	928.87
630.858	951.93
631.056	985.45
631.254	978.86
631.453	892.45
631.651	952.9
631.849	961.62
632.047	946.89
632.245	928.49
632.444	912.6
632.642	910.85
632.84	959.68
633.038	892.64
633.236	853.5
633.434	894.39
633.632	868.23
633.83	891.29
634.028	943.21
634.227	920.74
634.425	968.4
634.623	932.94
634.821	896.32
635.019	902.52
635.216	888.96
635.414	946.89
635.612	943.21
635.81	901.17
636.008	976.53
636.206	918.22
636.404	925.19
636.602	879.27
636.8	898.45
636.997	911.82
637.195	950.38
637.393	904.65
637.591	978.86
637.789	927.9
637.986	897.87
638.184	935.27
638.382	954.45
638.58	933.72
638.777	968.78
638.975	899.23
639.173	935.85
639.37	896.32
639.568	896.9
639.765	920.93
639.963	901.36
640.161	929.84
640.358	936.04
640.556	866.68
640.753	850.21
640.951	860.29
641.148	887.8
641.346	849.24
641.543	868.62
641.741	891.67
641.938	834.32
642.136	853.7
642.333	846.92
642.531	899.62
642.728	955.42
642.925	883.34
643.123	855.44
643.32	871.33
643.517	842.66
643.715	868.81
643.912	847.5
644.109	906.98
644.306	859.9
644.504	787.05
644.701	850.21
644.898	875.2
645.095	820.57
645.293	846.14
645.49	864.35
645.687	827.93
645.884	862.03
646.081	772.71
646.278	805.84
646.475	789.96
646.672	798.48
646.87	841.49
647.067	830.26
647.264	841.3
647.461	788.6
647.658	775.81
647.855	821.54
648.052	795.77
648.249	708.58
648.446	790.54
648.642	778.91
648.839	770
649.036	788.02
649.233	735.32
649.43	748.88
649.627	710.52
649.824	773.87
650.021	748.69
650.217	764.96
650.414	739.19
650.611	773.1
650.808	776.97
651.004	793.83
651.201	795.57
651.398	848.66
651.595	780.66
651.791	781.04
651.988	813.98
652.185	765.35
652.381	782.59
652.578	740.74
652.775	783.17
652.971	762.06
653.168	775.23
653.364	794.22
653.561	700.83
653.757	755.08
653.954	755.66
654.15	736.48
654.347	817.08
654.543	754.31
654.74	748.88
654.936	704.13
655.133	757.99
655.329	754.5
655.525	737.45
655.722	757.21
655.918	723.89
656.115	737.26
656.311	668.67
656.507	664.02
656.704	604.54
656.9	645.23
657.096	647.16
657.292	621.59
657.489	693.28
657.685	702.38
657.881	659.95
658.077	658.4
658.273	689.21
658.47	790.92
658.666	711.1
658.862	745.39
659.058	690.95
659.254	767.48
659.45	715.94
659.646	745.78
659.842	710.33
660.038	755.66
660.234	713.81
660.43	707.03
660.626	808.17
660.822	755.86
661.018	778.72
661.214	719.04
661.41	677.19
661.606	765.74
661.802	772.32
661.998	715.94
662.194	703.74
662.39	722.73
662.586	752.95
662.781	744.04
662.977	744.04
663.173	749.46
663.369	733.58
663.564	731.44
663.76	764.19
663.956	698.12
664.152	790.34
664.347	672.55
664.543	727.57
664.739	736.09
664.934	657.43
665.13	664.41
665.326	751.79
665.521	717.3
665.717	701.03
665.912	698.12
666.108	649.3
666.304	691.34
666.499	665.38
666.695	637.48
666.89	703.16
667.086	765.35
667.281	720.79
667.477	763.8
667.672	727.76
667.867	672.93
668.063	722.34
668.258	673.71
668.454	679.71
668.649	797.32
668.844	729.7
669.04	750.24
669.235	682.04
669.43	678.55
669.626	644.26
669.821	677.19
670.016	674.1
670.211	703.54
670.407	668.67
670.602	704.9
670.797	665.18
670.992	734.16
671.187	662.86
671.382	738.23
671.578	685.14
671.773	705.87
671.968	659.56
672.163	696.57
672.358	731.64
672.553	667.9
672.748	676.42
672.943	773.68
673.138	668.67
673.333	725.83
673.528	661.31
673.723	685.14
673.918	726.79
674.113	641.93
674.308	774.84
674.503	697.15
674.698	711.88
674.892	680.29
675.087	743.65
675.282	675.06
675.477	646.2
675.672	707.03
675.867	677.58
676.061	625.85
676.256	638.25
676.451	665.18
676.646	670.22
676.84	643.87
677.035	627.01
677.23	624.5
677.424	703.35
677.619	675.65
677.814	713.43
678.008	687.27
678.203	611.71
678.397	614.61
678.592	665.96
678.787	685.72
678.981	666.35
679.176	680.49
679.37	679.71
679.565	612.68
679.759	617.71
679.954	679.91
680.148	726.41
680.342	720.21
680.537	700.83
680.731	650.26
680.926	683.78
681.12	704.32
681.314	642.32
681.509	671.19
681.703	667.12
681.897	686.88
682.092	671.77
682.286	655.5
682.48	749.08
682.674	682.43
682.869	679.33
683.063	666.93
683.257	757.41
683.451	641.16
683.645	670.22
683.839	676.03
684.034	656.85
684.228	703.54
684.422	632.63
684.616	629.92
684.81	689.4
685.004	633.8
685.198	656.46
685.392	690.18
685.586	619.07
685.78	677.97
685.974	658.01
686.168	698.7
686.362	715.56
686.556	647.55
686.75	609
686.944	644.26
687.138	645.03
687.331	547.19
687.525	596.21
687.719	493.91
687.913	570.25
688.107	574.7
688.301	512.51
688.494	601.44
688.688	554.55
688.882	532.66
689.076	519.48
689.269	549.9
689.463	646.97
689.657	597.95
689.85	572.38
690.044	563.27
690.238	553.78
690.431	553.2
690.625	573.93
690.818	601.05
691.012	590.4
691.205	602.21
691.399	562.11
691.593	627.21
691.786	646.39
691.98	663.44
692.173	652.01
692.366	634.57
692.56	633.21
692.753	712.07
692.947	604.54
693.14	690.18
693.333	673.32
693.527	608.03
693.72	663.44
693.914	650.46
694.107	651.43
694.3	680.88
694.493	661.89
694.687	688.82
694.88	617.13
695.073	724.66
695.266	704.51
695.46	682.81
695.653	744.62
695.846	713.04
696.039	639.41
696.232	710.52
696.425	723.5
696.618	734.54
696.812	717.69
697.005	795.19
697.198	889.15
697.391	776.97
697.584	809.14
697.777	887.41
697.97	830.06
698.163	849.44
698.356	838.59
698.549	911.44
698.742	858.15
698.935	812.04
699.127	863.97
699.32	813.01
699.513	832.19
699.706	877.14
699.899	903.88
700.092	907.95
700.285	939.34
700.477	828.12
700.67	921.9
700.863	972.47
701.056	1057.71
701.248	986.61
701.441	1025.75
701.634	945.15
701.826	1112.55
702.019	971.69
702.212	1063.33
702.404	1011.8
702.597	990.1
702.79	1020.71
702.982	1069.73
703.175	1088.33
703.367	1113.13
703.56	1116.61
703.752	1212.13
703.945	1143.16
704.137	1178.61
704.33	1214.65
704.522	1180.55
704.715	1216.2
704.907	1249.72
705.1	1318.89
705.292	1284.79
705.484	1274.13
705.677	1327.02
705.869	1335.16
706.061	1345.82
706.254	1401.42
706.446	1355.89
706.638	1340.39
706.831	1449.86
707.023	1410.53
707.215	1521.16
707.407	1502.95
707.599	1458.38
707.792	1562.04
707.984	1556.03
708.176	1530.85
708.368	1532.2
708.56	1545.96
708.752	1571.92
708.944	1550.41
709.136	1638.96
709.329	1606.99
709.521	1743.77
709.713	1667.05
709.905	1704.25
710.097	1749.97
710.289	1674.8
710.481	1727.11
710.672	1769.93
710.864	1757.72
711.056	1829.02
711.248	1830.57
711.44	1844.33
711.632	1778.26
711.824	1890.83
712.016	1952.05
712.207	1896.06
712.399	1919.7
712.591	2004.17
712.783	1965.81
712.975	1965.42
713.166	1943.72
713.358	2008.82
713.55	2056.68
713.741	2104.53
713.933	2075.66
714.125	2078.96
714.316	2052.99
714.508	2170.4
714.7	2185.52
714.891	2163.24
715.083	2229.69
715.274	2181.64
715.466	2227.56
715.657	2284.13
715.849	2171.57
716.04	2212.45
716.232	2165.75
716.423	2264.18
716.615	2173.7
716.806	2187.65
716.998	2166.14
717.189	2109.96
717.381	2042.14
717.572	1992.54
717.763	2064.43
717.955	2057.64
718.146	2009.79
718.337	1950.11
718.528	1947.6
718.72	1857.12
718.911	1952.63
719.102	1904.78
719.293	1965.81
719.485	1954.57
719.676	1939.85
719.867	1885.4
720.058	1937.52
720.249	1929.77
720.44	1992.74
720.632	2003.01
720.823	2063.84
721.014	2174.09
721.205	2198.3
721.396	2253.91
721.587	2335.28
721.778	2356.79
721.969	2423.25
722.16	2481.95
722.351	2498.42
722.542	2661.36
722.733	2628.81
722.924	2562.16
723.115	2632.49
723.305	2640.63
723.496	2631.33
723.687	2534.65
723.878	2582.89
724.069	2501.52
724.26	2602.85
724.45	2512.56
724.641	2487.38
724.832	2552.09
725.023	2526.12
725.213	2552.47
725.404	2526.12
725.595	2542.59
725.785	2502.49
725.976	2581.15
726.167	2602.85
726.357	2591.81
726.548	2717.35
726.739	2625.52
726.929	2739.63
727.12	2741.38
727.31	2781.29
727.501	2695.27
727.691	2753
727.882	2744.48
728.072	2764.05
728.263	2778
728.453	2854.33
728.644	2858.79
728.834	2820.81
729.024	2829.15
729.215	2827.6
729.405	2821.01
729.596	2919.43
729.786	2966.51
729.976	2968.26
730.167	2982.59
730.357	2962.64
730.547	3001.39
730.737	3017.27
730.928	3042.07
731.118	3125
731.308	3044.98
731.498	3053.12
731.688	3152.51
731.879	3136.82
732.069	3181.77
732.259	3239.31
732.449	3217.61
732.639	3380.36
732.829	3348.97
733.019	3423.76
733.209	3487.11
733.399	3488.85
733.589	3571
733.779	3565.77
733.969	3541.94
734.159	3658
734.349	3716.9
734.539	3719.22
734.729	3709.34
734.919	3745.76
735.109	3792.07
735.299	3732.78
735.488	3760.88
735.678	3795.75
735.868	3797.11
736.058	3795.56
736.248	3783.16
736.437	3818.81
736.627	3721.74
736.817	3874.41
737.007	3809.89
737.196	3854.46
737.386	3857.36
737.576	3823.07
737.765	3872.67
737.955	3914.52
738.144	4086.56
738.334	4008.48
738.524	3879.64
738.713	3947.65
738.903	3911.61
739.092	3973.61
739.282	3939.32
739.471	4004.61
739.661	3956.75
739.85	3979.42
740.04	4014.88
740.229	4020.11
740.419	4100.32
740.608	4115.63
740.797	4053.43
740.987	4187.51
741.176	4153.21
741.365	4094.9
741.555	4046.65
741.744	4131.9
741.933	4098.19
742.123	4139.07
742.312	4136.94
742.501	4186.34
742.69	4229.94
742.88	4137.13
743.069	4253.58
743.258	4177.43
743.447	4219.67
743.636	4241.56
743.825	4196.81
744.014	4278.18
744.204	4300.27
744.393	4208.04
744.582	4362.07
744.771	4315.19
744.96	4233.81
745.149	4320.22
745.338	4242.73
745.527	4349.67
745.716	4280.12
745.905	4229.16
746.094	4320.81
746.283	4358.78
746.471	4336.11
746.66	4385.52
746.849	4360.33
747.038	4411.09
747.227	4322.36
747.416	4402.18
747.604	4338.82
747.793	4323.71
747.982	4329.14
748.171	4350.84
748.359	4339.02
748.548	4353.55
748.737	4358.78
748.926	4346.38
749.114	4272.76
749.303	4296.97
749.491	4374.09
749.68	4264.42
749.869	4394.43
750.057	4286.12
750.246	4285.16
750.434	4302.4
750.623	4305.89
750.811	4295.81
751	4376.41
751.188	4279.73
751.377	4277.99
751.565	4287.29
751.754	4251.83
751.942	4228.19
752.131	4316.93
752.319	4246.21
752.507	4244.47
752.696	4293.49
752.884	4347.54
753.072	4285.35
753.261	4228.19
753.449	4285.54
753.637	4245.24
753.825	4346.38
754.014	4238.27
754.202	4262.49
754.39	4375.83
754.578	4315.38
754.766	4252.03
754.955	4226.26
755.143	4343.47
755.331	4191.77
755.519	4286.9
755.707	4219.48
755.895	4249.31
756.083	4250.67
756.271	4201.46
756.459	4212.31
756.647	4271.01
756.835	4205.72
757.023	4195.64
757.211	4169.3
757.399	4208.04
757.587	4190.8
757.775	4094.9
757.963	4159.8
758.151	4182.66
758.339	4084.05
758.526	4121.44
758.714	4169.1
758.902	4065.25
759.09	3969.93
759.278	3755.45
759.465	3593.87
759.653	3222.65
759.841	2986.86
760.028	2618.15
760.216	2313.2
760.404	2198.89
760.591	1869.13
760.779	1586.64
760.967	1438.04
761.154	1288.08
761.342	1338.26
761.529	1344.65
761.717	1421.96
761.905	1416.73
762.092	1507.98
762.28	1496.94
762.467	1569.01
762.655	1524.84
762.842	1515.54
763.029	1561.84
763.217	1594.98
763.404	1572.69
763.592	1625.78
763.779	1577.34
763.966	1635.86
764.154	1706.96
764.341	1742.61
764.528	1730.79
764.716	1826.7
764.903	1835.61
765.09	1945.85
765.277	1980.34
765.465	2211.09
765.652	2258.75
765.839	2301.57
766.026	2450.37
766.213	2467.42
766.4	2598.01
766.588	2765.98
766.775	2765.02
766.962	2892.69
767.149	2899.48
767.336	3096.13
767.523	3054.09
767.71	3209.67
767.897	3286.58
768.084	3384.43
768.271	3372.22
768.458	3440.42
768.645	3546.4
768.832	3490.21
769.019	3538.65
769.206	3559.19
769.392	3588.05
769.579	3698.3
769.766	3624.87
769.953	3630.48
770.14	3688.8
770.327	3681.44
770.513	3730.85
770.7	3795.36
770.887	3693.65
771.073	3776.38
771.26	3724.06
771.447	3693.06
771.634	3709.34
771.82	3793.04
772.007	3696.16
772.193	3743.05
772.38	3775.21
772.567	3725.42
772.753	3695.97
772.94	3794.59
773.126	3780.64
773.313	3736.66
773.499	3744.21
773.686	3784.32
773.872	3686.48
774.059	3659.35
774.245	3691.13
774.432	3680.86
774.618	3624.28
774.804	3695.2
774.991	3619.44
775.177	3681.44
775.363	3681.25
775.55	3676.4
775.736	3613.05
775.922	3654.9
776.109	3606.46
776.295	3643.27
776.481	3675.05
776.667	3634.94
776.853	3634.94
777.04	3570.03
777.226	3589.6
777.412	3693.26
777.598	3549.89
777.784	3587.28
777.97	3547.37
778.156	3615.76
778.342	3555.89
778.528	3581.08
778.715	3451.66
778.901	3536.13
779.087	3561.32
779.272	3512.49
779.458	3467.74
779.644	3545.24
779.83	3477.23
780.016	3588.25
780.202	3481.49
780.388	3442.94
780.574	3419.3
780.76	3463.67
780.946	3500.09
781.131	3464.25
781.317	3441.39
781.503	3434.22
781.689	3430.54
781.874	3528.96
782.06	3423.37
782.246	3405.35
782.432	3413.87
782.617	3429.76
782.803	3477.62
782.989	3365.44
783.174	3377.84
783.36	3327.85
783.545	3357.11
783.731	3332.69
783.916	3233.69
784.102	3349.94
784.288	3299.37
784.473	3286.97
784.659	3275.54
784.844	3392.95
785.029	3276.51
785.215	3257.71
785.4	3235.82
785.586	3327.08
785.771	3203.47
785.956	3297.24
786.142	3225.55
786.327	3235.24
786.512	3241.83
786.698	3233.11
786.883	3147.08
787.068	3238.34
787.254	3187.58
787.439	3180.8
787.624	3183.9
787.809	3149.02
787.994	3127.52
788.18	3241.63
788.365	3106.98
788.55	3120.35
788.735	3144.95
788.92	3123.06
789.105	3082.57
789.29	3128.29
789.475	3055.25
789.66	3090.12
789.845	3054.28
790.03	3035.49
790.215	3094.58
790.4	3103.88
790.585	3102.33
790.77	3069.59
790.955	2998.67
791.14	3046.53
791.325	3143.21
791.51	2901.61
791.695	3047.5
791.879	3020.76
792.064	2973.1
792.249	3126.35
792.434	2996.74
792.618	3015.72
792.803	3038.97
792.988	3035.49
793.173	3026.19
793.357	3032.97
793.542	2923.69
793.727	2969.61
793.911	3020.18
794.096	3007.78
794.281	3024.25
794.465	3112.4
794.65	3016.11
794.834	3042.46
795.019	3099.04
795.203	3058.93
795.388	3049.24
795.572	3134.68
795.757	3048.66
795.941	3052.34
796.126	3061.45
796.31	2981.62
796.494	3038.78
796.679	3062.8
796.863	3001
797.048	3091.48
797.232	3049.63
797.416	3062.22
797.601	3080.82
797.785	3093.8
797.969	3074.43
798.153	3024.83
798.338	3134.1
798.522	3116.67
798.706	3110.66
798.89	3120.54
799.074	3203.27
799.258	3154.45
799.443	3089.35
799.627	3119.38
799.811	3140.5
799.995	3106.98
800.179	3076.37
800.363	3086.83
800.547	3130.23
800.731	3162.58
800.915	3023.67
801.099	3057.38
801.283	3081.02
801.467	3029.48
801.651	3056.41
801.835	3120.54
802.019	3142.82
802.202	3109.5
802.386	3027.16
802.57	3019.79
802.754	3059.9
802.938	3047.3
803.121	3078.89
803.305	3108.14
803.489	3047.5
803.673	3093.22
803.856	3087.22
804.04	3049.05
804.224	3091.48
804.407	3018.82
804.591	3020.96
804.775	3062.22
804.958	3039.55
805.142	3148.83
805.326	3050.6
805.509	3051.95
805.693	3093.22
805.876	3086.44
806.06	3041.3
806.243	3055.44
806.427	3112.79
806.61	3135.85
806.794	3052.73
806.977	3106.98
807.16	3044.79
807.344	3099.04
807.527	3068.04
807.71	3073.27
807.894	3043.82
808.077	3126.35
808.26	3013.4
808.444	3045.56
808.627	3049.82
808.81	2996.74
808.993	2971.55
809.177	2954.69
809.36	3005.84
809.543	2980.27
809.726	2859.18
809.909	2926.6
810.092	2871.19
810.276	2849.49
810.459	2891.92
810.642	2885.72
810.825	2873.71
811.008	2838.83
811.191	2779.55
811.374	2776.25
811.557	2800.28
811.74	2884.36
811.923	2767.34
812.106	2759.98
812.289	2695.65
812.472	2746.03
812.654	2707.67
812.837	2703.6
813.02	2625.32
813.203	2610.79
813.386	2494.16
813.569	2530.19
813.751	2471.68
813.934	2506.17
814.117	2430.61
814.3	2414.91
814.482	2358.53
814.665	2341.87
814.848	2291.11
815.03	2254.49
815.213	2279.29
815.396	2213.22
815.578	2205.09
815.761	2128.75
815.943	2245.58
816.126	2102.59
816.309	2091.74
816.491	2020.44
816.674	1984.8
816.856	2038.46
817.039	1986.93
817.221	2055.71
817.403	2047.38
817.586	2068.69
817.768	2049.12
817.951	1939.46
818.133	1945.27
818.315	1977.63
818.498	2022.38
818.68	2089.81
818.862	2045.05
819.045	2087.29
819.227	2072.18
819.409	2065.78
819.591	2083.8
819.774	2060.94
819.956	2019.09
820.138	2110.15
820.32	2102.79
820.502	2117.71
820.684	2197.14
820.866	2155.49
821.048	2238.02
821.231	2245.58
821.413	2228.92
821.595	2225.04
821.777	2219.23
821.959	2189.59
822.141	2293.05
822.323	2190.75
822.505	2102.21
822.686	2066.56
822.868	1980.15
823.05	1852.47
823.232	1843.94
823.414	1728.47
823.596	1828.63
823.778	1814.68
823.96	1852.08
824.141	1806.94
824.323	1890.63
824.505	1954.76
824.687	1943.14
824.868	2022.38
825.05	2134.95
825.232	2111.51
825.413	2247.71
825.595	2150.45
825.777	2093.29
825.958	2165.56
826.14	2174.86
826.321	2205.47
826.503	2144.64
826.685	2193.07
826.866	2198.5
827.048	2196.95
827.229	2099.3
827.411	2073.73
827.592	2042.34
827.773	2050.48
827.955	1990.99
828.136	2003.39
828.318	1974.72
828.499	1989.06
828.68	1938.1
828.862	1994.87
829.043	1993.32
829.224	1969.1
829.406	1929.58
829.587	1944.88
829.768	1944.88
829.949	1970.85
830.131	1935.2
830.312	1998.94
830.493	1938.3
830.674	1996.42
830.855	1925.9
831.036	1950.31
831.218	2016.18
831.399	2055.32
831.58	1980.53
831.761	1980.53
831.942	1964.45
832.123	1966.78
832.304	1873.78
832.485	1924.35
832.666	1956.31
832.847	1938.3
833.028	1946.05
833.209	1973.95
833.389	1931.13
833.57	1876.3
833.751	1901.29
833.932	1966.39
834.113	1937.52
834.294	1902.84
834.475	1958.45
834.655	2001.07
834.836	1980.34
835.017	1956.51
835.198	1872.03
835.378	1941.01
835.559	1963.1
835.74	1965.42
835.92	1935
836.101	1934.61
836.281	1985.76
836.462	1993.13
836.643	2031.29
836.823	2045.83
837.004	2000.68
837.184	2026.84
837.365	2045.44
837.545	2028.19
837.726	1987.7
837.906	2026.26
838.087	2009.98
838.267	2023.93
838.448	1951.28
838.628	1994.87
838.808	1980.92
838.989	2069.27
839.169	1917.37
839.349	2022.96
839.53	2020.06
839.71	2050.67
839.89	1940.81
840.07	2008.63
840.251	1944.3
840.431	2004.94
840.611	1994.29
840.791	1942.95
840.971	2003.2
841.151	1963.68
841.332	1897.22
841.512	1977.05
841.692	1894.12
841.872	1988.86
842.052	1952.63
842.232	1967.94
842.412	1888.89
842.592	1925.12
842.772	1958.45
842.952	1967.94
843.132	1916.6
843.312	1914.46
843.492	1911.95
843.672	1957.67
843.851	1838.32
844.031	1898.19
844.211	1903.61
844.391	1864.87
844.571	1915.05
844.751	1895.48
844.93	1893.93
845.11	1856.53
845.29	1889.47
845.47	1921.44
845.649	1907.1
845.829	1893.93
846.009	1860.41
846.188	1880.37
846.368	1869.71
846.547	1864.67
846.727	1913.3
846.907	1836
847.086	1889.86
847.266	1920.66
847.445	1851.69
847.625	1827.08
847.804	1811.39
847.984	1833.87
848.163	1839.29
848.343	1825.34
848.522	1835.42
848.701	1868.16
848.881	1798.02
849.06	1861.18
849.239	1813.72
849.419	1821.66
849.598	1756.75
849.777	1766.83
849.957	1736.99
850.136	1653.49
850.315	1637.79
850.494	1624.04
850.674	1668.6
850.853	1725.17
851.032	1724.4
851.211	1755.01
851.39	1726.92
851.569	1691.85
851.748	1676.74
851.927	1718.2
852.107	1722.66
852.286	1668.6
852.465	1670.92
852.644	1717.23
852.823	1700.57
853.002	1693.98
853.181	1693.98
853.359	1706.96
853.538	1642.06
853.717	1702.7
853.896	1575.79
854.075	1518.83
854.254	1509.73
854.433	1421.18
854.611	1484.54
854.79	1398.32
854.969	1499.65
855.148	1515.54
855.327	1424.67
855.505	1543.44
855.684	1521.35
855.863	1528.13
856.041	1513.41
856.22	1567.08
856.399	1532.59
856.577	1641.86
856.756	1592.46
856.934	1735.44
857.113	1731.76
857.291	1620.36
857.47	1601.56
857.648	1646.32
857.827	1593.23
858.005	1666.27
858.184	1601.95
858.362	1666.66
858.541	1583.54
858.719	1604.08
858.898	1575.41
859.076	1595.75
859.254	1669.37
859.433	1608.54
859.611	1579.48
859.789	1535.69
859.967	1630.04
860.146	1632.18
860.324	1571.14
860.502	1594.01
860.68	1530.46
860.859	1537.82
861.037	1546.15
861.215	1574.83
861.393	1533.95
861.571	1544.41
861.749	1509.73
861.927	1591.49
862.105	1600.59
862.283	1533.95
862.461	1525.81
862.639	1496.75
862.817	1518.06
862.995	1547.9
863.173	1512.25
863.351	1516.51
863.529	1542.66
863.707	1558.55
863.885	1516.51
864.063	1453.54
864.241	1456.45
864.418	1566.3
864.596	1498.3
864.774	1426.42
864.952	1490.55
865.129	1504.5
865.307	1433
865.485	1380.5
865.663	1482.21
865.84	1397.16
866.018	1414.79
866.196	1251.85
866.373	1315.01
866.551	1266.77
866.728	1230.73
866.906	1244.68
867.084	1310.94
867.261	1324.5
867.439	1329.74
867.616	1371.2
867.794	1344.27
867.971	1350.85
868.149	1351.05
868.326	1386.7
868.503	1404.52
868.681	1378.56
868.858	1361.12
869.035	1322.95
869.213	1400.84
869.39	1395.03
869.567	1432.42
869.745	1352.21
869.922	1414.6
870.099	1399.1
870.276	1399.68
870.454	1397.35
870.631	1415.76
870.808	1338.65
870.985	1430.29
871.162	1402.39
871.339	1387.08
871.517	1318.5
871.694	1318.69
871.871	1357.64
872.048	1323.73
872.225	1309.2
872.402	1349.11
872.579	1286.14
872.756	1360.15
872.933	1290.6
873.11	1309.2
873.287	1337.1
873.463	1282.07
873.64	1270.45
873.817	1351.44
873.994	1300.09
874.171	1301.45
874.348	1294.47
874.524	1251.27
874.701	1276.65
874.878	1236.54
875.055	1290.99
875.231	1265.22
875.408	1315.79
875.585	1220.27
875.762	1261.73
875.938	1228.21
876.115	1268.51
876.291	1245.46
876.468	1245.46
876.645	1232.47
876.821	1226.08
876.998	1247.59
877.174	1244.87
877.351	1263.67
877.527	1216.01
877.704	1232.28
877.88	1197.99
878.057	1221.43
878.233	1260.57
878.409	1186.17
878.586	1227.63
878.762	1183.65
878.938	1235.96
879.115	1119.33
879.291	1207.29
879.467	1130.95
879.644	1187.33
879.82	1200.12
879.996	1157.3
880.172	1138.51
880.349	1175.9
880.525	1199.34
880.701	1112.93
880.877	1144.9
881.053	1190.43
881.229	1136.18
881.405	1201.86
881.581	1132.89
881.757	1142.19
881.933	1169.12
882.109	1207.48
882.285	1171.64
882.461	1112.93
882.637	1151.49
882.813	1135.21
882.989	1149.94
883.165	1193.14
883.341	1100.15
883.517	1185.98
883.693	1175.13
883.869	1157.88
884.044	1128.43
884.22	1197.99
884.396	1218.52
884.572	1173.38
884.747	1189.27
884.923	1191.59
885.099	1192.76
885.275	1167.96
885.45	1177.06
885.626	1139.48
885.801	1130.95
885.977	1160.4
886.153	1058.3
886.328	1166.79
886.504	1110.41
886.679	1153.62
886.855	1069.34
887.03	1175.9
887.206	1207.29
887.381	1124.94
887.557	1148
887.732	1191.21
887.908	1165.05
888.083	1197.02
888.258	1141.41
888.434	1113.71
888.609	1146.06
888.784	1169.7
888.96	1174.16
889.135	1108.67
889.31	1132.5
889.485	1120.49
889.661	1144.9
889.836	1218.72
890.011	1117.78
890.186	1148
890.361	1097.05
890.537	1144.71
890.712	1165.83
890.887	1148.97
891.062	1142.19
891.237	1203.41
891.412	1104.41
891.587	1132.11
891.762	1167.76
891.937	1232.09
892.112	1103.44
892.287	1116.23
892.462	1095.3
892.637	1075.35
892.812	1086.58
892.987	1092.98
893.161	1078.06
893.336	1060.04
893.511	1052.29
893.686	1102.66
893.861	1052.1
894.035	1088.13
894.21	1090.85
894.385	987.97
894.56	1077.28
894.734	990.1
894.909	996.49
895.084	1003.27
895.258	957.55
895.433	1027.68
895.608	975.76
895.782	916.28
895.957	940.5
896.131	964.13
896.306	885.47
896.48	859.32
896.655	893.03
896.829	806.42
897.004	841.69
897.178	836.84
897.353	826.19
897.527	854.28
897.701	848.47
897.876	785.31
898.05	882.95
898.224	856.99
898.399	892.84
898.573	837.04
898.747	725.83
898.921	807.2
899.096	737.06
899.27	668.67
899.444	702.96
899.618	727.57
899.792	733.96
899.967	738.23
900.141	763.61
900.315	695.79
900.489	711.68
900.663	749.08
900.837	723.31
901.011	674.68
901.185	799.06
901.359	743.84
901.533	767.29
901.707	772.13
901.881	706.45
902.055	702.96
902.229	741.13
902.403	780.27
902.576	741.52
902.75	733.19
902.924	870.75
903.098	788.41
903.272	826.96
903.446	906.2
903.619	835.68
903.793	880.05
903.967	854.86
904.14	917.83
904.314	940.69
904.488	890.32
904.661	889.35
904.835	859.7
905.009	912.99
905.182	935.85
905.356	887.41
905.529	893.42
905.703	856.99
905.876	855.25
906.05	854.09
906.223	848.86
906.397	769.03
906.57	766.71
906.744	718.27
906.917	741.71
907.09	726.6
907.264	735.32
907.437	674.29
907.61	677.78
907.784	694.24
907.957	702.96
908.13	654.33
908.304	722.92
908.477	654.33
908.65	679.33
908.823	607.45
908.996	720.4
909.17	646.97
909.343	632.25
909.516	637.28
909.689	667.7
909.862	633.8
910.035	651.04
910.208	608.61
910.381	619.85
910.554	726.6
910.727	636.51
910.9	642.71
911.073	643.29
911.246	729.7
911.419	710.71
911.592	665.76
911.765	623.91
911.938	631.86
912.11	641.35
912.283	633.41
912.456	684.94
912.629	650.65
912.802	593.88
912.974	648.52
913.147	574.7
913.32	497.79
913.493	543.9
913.665	547.58
913.838	545.45
914.01	595.43
914.183	575.09
914.356	590.2
914.528	632.83
914.701	675.45
914.873	644.45
915.046	549.32
915.218	533.82
915.391	477.83
915.563	490.23
915.736	533.43
915.908	549.9
916.081	563.66
916.253	554.17
916.425	555.33
916.598	578.97
916.77	587.1
916.942	551.84
917.115	469.69
917.287	572.38
917.459	537.89
917.632	489.84
917.804	444.5
917.976	534.02
918.148	535.37
918.32	533.43
918.493	569.67
918.665	597.18
918.837	576.45
919.009	646.58
919.181	618.88
919.353	615.2
919.525	557.65
919.697	571.99
919.869	571.02
920.041	640.77
920.213	687.85
920.385	589.23
920.557	604.93
920.729	603.76
920.901	590.59
921.073	558.43
921.244	574.7
921.416	623.91
921.588	592.53
921.76	544.09
921.932	617.52
922.103	573.35
922.275	577.8
922.447	585.75
922.619	494.49
922.79	543.9
922.962	550.29
923.134	602.6
923.305	506.7
923.477	498.75
923.648	526.65
923.82	540.02
923.991	461.55
924.163	476.67
924.335	502.82
924.506	496.82
924.677	561.33
924.849	466.2
925.02	484.42
925.192	549.13
925.363	501.47
925.535	490.62
925.706	491.2
925.877	558.23
926.049	480.54
926.22	508.44
926.391	478.02
926.562	498.56
926.734	460.2
926.905	531.3
927.076	465.43
927.247	472.4
927.419	416.99
927.59	416.6
927.761	434.04
927.932	425.52
928.103	430.94
928.274	381.73
928.445	363.32
928.616	391.61
928.787	391.42
928.958	398.59
929.129	374.37
929.3	349.18
929.471	342.79
929.642	308.3
929.813	260.06
929.984	351.31
930.155	277.49
930.326	326.51
930.496	276.53
930.667	226.93
930.838	269.55
931.009	213.36
931.18	240.68
931.35	214.72
931.521	243.39
931.692	183.72
931.863	168.61
932.033	181.78
932.204	162.21
932.374	188.18
932.545	138.38
932.716	196.9
932.886	202.9
933.057	105.06
933.227	121.33
933.398	197.09
933.568	113.2
933.739	93.05
933.909	85.49
934.08	129.28
934.25	44.22
934.421	72.32
934.591	104.28
934.761	74.45
934.932	44.03
935.102	121.14
935.272	89.75
935.443	73.67
935.613	46.16
935.783	112.42
935.953	43.25
936.123	237.78
936.294	69.02
936.464	85.1
936.634	76.77
936.804	53.91
936.974	31.05
937.144	85.3
937.314	99.25
937.484	63.99
937.655	45.39
937.825	121.14
937.995	82.58
938.165	109.71
938.334	88.98
938.504	114.36
938.674	91.88
938.844	113.78
939.014	145.55
939.184	141.68
939.354	228.86
939.524	172.68
939.694	145.17
939.863	128.12
940.033	225.18
940.203	215.11
940.373	168.8
940.542	196.12
940.712	150.59
940.882	192.25
941.051	189.15
941.221	159.7
941.391	180.62
941.56	132.77
941.73	114.75
941.899	246.49
942.069	148.46
942.238	177.13
942.408	125.98
942.577	136.45
942.747	139.35
942.916	84.72
943.086	129.08
943.255	182.56
943.425	132.57
943.594	113.2
943.763	52.94
943.933	79.29
944.102	58.17
944.271	94.98
944.441	136.64
944.61	85.88
944.779	104.67
944.948	216.85
945.117	76.38
945.287	74.25
945.456	59.72
945.625	86.85
945.794	116.1
945.963	112.42
946.132	129.47
946.301	98.47
946.47	128.5
946.639	57.2
946.808	87.62
946.977	138.97
947.146	148.65
947.315	95.37
947.484	135.09
947.653	113.39
947.822	94.21
947.991	90.53
948.16	206.97
948.329	153.69
948.498	128.7
948.666	85.3
948.835	152.53
949.004	68.44
949.173	51
949.341	94.98
949.51	113.97
949.679	177.52
949.847	143.42
950.016	185.08
950.185	175.39
950.353	98.67
950.522	117.46
950.69	176.75
950.859	111.65
951.028	178.68
951.196	150.01
951.365	79.48
951.533	123.66
951.701	151.95
951.87	127.34
952.038	72.32
952.207	116.49
952.375	173.65
952.543	98.08
952.712	100.22
952.88	108.35
953.048	178.49
953.217	124.63
953.385	122.69
953.553	174.81
953.721	76.97
953.89	121.53
954.058	53.33
954.226	78.52
954.394	126.57
954.562	36.67
954.73	110.87
954.898	91.11
955.067	131.8
955.235	120.17
955.403	137.61
955.571	175
955.739	135.48
955.907	84.33
956.075	59.92
956.243	85.88
956.41	155.05
956.578	64.95
956.746	68.44
956.914	107.38
957.082	141.87
957.25	136.64
957.418	96.53
957.585	110.1
957.753	156.79
957.921	63.99
958.089	109.71
958.256	118.62
958.424	117.65
958.592	148.27
958.759	87.43
958.927	154.27
959.095	67.86
959.262	109.13
959.43	127.34
959.597	85.88
959.765	123.66
959.932	89.56
960.1	159.89
960.267	109.32
960.435	97.31
960.602	132.18
960.77	79.29
960.937	67.47
961.104	120.95
961.272	46.94
961.439	80.65
961.606	120.17
961.774	113.97
961.941	114.55
962.108	130.05
962.275	128.5
962.443	158.34
962.61	126.57
962.777	177.33
962.944	164.35
963.111	129.67
963.278	121.14
963.446	133.54
963.613	118.04
963.78	127.92
963.947	119.4
964.114	120.56
964.281	223.05
964.448	150.2
964.615	108.55
964.782	148.85
964.949	163.76
965.116	151.56
965.282	180.62
965.449	122.88
965.616	88.98
965.783	138.19
965.95	128.12
966.117	84.52
966.283	123.27
966.45	115.91
966.617	133.54
966.784	187.6
966.95	154.27
967.117	163.76
967.284	68.25
967.45	117.27
967.617	193.21
967.784	137.42
967.95	209.88
968.117	138.58
968.283	175.97
968.45	248.24
968.616	166.67
968.783	177.91
968.949	174.81
969.116	176.55
969.282	140.13
969.449	156.79
969.615	131.99
969.781	64.18
969.948	120.75
970.114	78.52
970.28	209.49
970.447	146.91
970.613	189.53
970.779	139.16
970.945	158.92
971.112	147.49
971.278	143.42
971.444	126.18
971.61	164.35
971.776	117.46
971.942	135.87
972.108	183.72
972.275	145.17
972.441	151.17
972.607	197.09
972.773	109.52
972.939	159.5
973.105	110.68
973.271	115.91
973.437	124.82
973.602	113.58
973.768	158.53
973.934	107
974.1	163.76
974.266	52.17
974.432	137.42
974.598	103.9
974.763	179.65
974.929	119.78
975.095	218.79
975.261	95.95
975.426	107.38
975.592	141.1
975.758	203.48
975.923	101.38
976.089	114.55
976.255	152.14
976.42	119.78
976.586	152.53
976.751	139.93
976.917	202.13
977.082	158.34
977.248	91.3
977.413	45
977.579	124.05
977.744	124.24
977.91	82.39
978.075	88.2
978.24	157.56
978.406	123.27
978.571	124.24
978.736	82.39
978.902	163.18
979.067	118.23
979.232	50.62
979.397	126.18
979.563	184.3
979.728	77.35
979.893	106.8
980.058	110.68
980.223	146.91
980.388	119.2
980.554	135.48
980.719	105.06
980.884	103.7
981.049	167.25
981.214	79.29
981.379	153.5
981.544	107.58
981.709	117.27
981.874	80.65
982.039	104.87
982.204	134.12
982.368	100.41
982.533	93.05
982.698	145.94
982.863	153.88
983.028	114.94
983.193	145.17
983.357	121.33
983.522	93.05
983.687	96.92
983.852	68.44
984.016	102.35
984.181	111.65
984.346	121.72
984.51	134.9
984.675	106.22
984.839	107.19
985.004	121.53
985.168	161.63
985.333	129.08
985.498	63.21
985.662	124.05
985.827	126.18
985.991	105.83
986.155	96.73
986.32	137.8
986.484	184.11
986.649	123.08
986.813	60.5
986.977	134.9
987.142	150.2
987.306	66.12
987.47	82.39
987.634	93.43
987.799	107.77
987.963	107.19
988.127	113.2
988.291	181.78
988.455	130.44
988.62	109.13
988.784	116.68
988.948	144
989.112	84.33
989.276	98.47
989.44	101.38
989.604	72.9
989.768	116.88
989.932	161.25
990.096	69.02
990.26	72.9
990.424	72.7
990.588	96.15
990.752	182.95
990.915	128.5
991.079	90.92
991.243	113.39
991.407	157.95
991.571	81.03
991.734	131.02
991.898	143.81
992.062	156.98
992.226	115.33
992.389	76.38
992.553	46.94
992.717	69.41
992.88	74.06
993.044	93.43
993.207	97.5
993.371	123.08
993.535	119.98
993.698	100.02
993.862	136.25
994.025	152.14
994.189	120.17
994.352	92.27
994.515	82.97
994.679	154.08
994.842	68.44
995.006	143.42
995.169	63.02
995.332	66.89
995.496	139.35
995.659	31.44
995.822	85.1
995.985	95.76
996.149	152.72
996.312	106.42
996.475	187.21
996.638	77.16
996.801	145.55
996.964	166.09
997.128	101.77
997.291	94.79
997.454	101.18
997.617	39.19
997.78	115.13
997.943	53.72
998.106	106.42
998.269	54.49
998.432	59.53
998.595	90.33
998.758	19.04
998.92	59.72
999.083	0.63
999.246	54.49
999.409	58.95
999.572	-11.77
999.735	58.56
999.897	113.2
1000.06	33.37
1000.223	85.68
1000.386	99.25
1000.548	102.54
1000.711	98.67
1000.874	85.3
1001.036	15.74
1001.199	88.98
1001.361	29.3
1001.524	64.18
1001.687	109.9
1001.849	58.75
1002.012	55.07
1002.174	91.69
1002.337	115.72
1002.499	89.75
1002.661	128.12
1002.824	36.28
1002.986	44.22
1003.149	56.62
1003.311	66.12
1003.473	116.68
1003.636	37.05
1003.798	90.72
1003.96	97.7
1004.123	78.52
1004.285	50.23
1004.447	41.9
1004.609	55.07
1004.771	139.55
1004.933	25.82
1005.096	46.94
1005.258	3.54
1005.42	51.97
1005.582	94.02
1005.744	63.6
1005.906	22.91
1006.068	66.89
1006.23	-8.48
1006.392	-13.51
1006.554	28.92
1006.716	99.83
1006.878	75.61
1007.04	22.14
1007.202	49.84
1007.363	71.54
1007.525	67.86
1007.687	66.31
1007.849	103.32
1008.011	39.96
1008.172	-1.7
1008.334	48.68
1008.496	74.25
1008.658	10.12
1008.819	35.31
1008.981	21.17
1009.143	32.79
1009.304	49.65
1009.466	94.21
1009.627	110.1
1009.789	160.86
1009.95	51.97
1010.112	32.99
1010.273	61.47
1010.435	23.69
1010.596	45.19
1010.758	39.57
1010.919	72.32
1011.081	12.45
1011.242	36.28
1011.403	65.15
1011.565	28.72
1011.726	69.99
1011.887	18.26
1012.049	35.5
1012.21	65.34
1012.371	114.94
1012.532	-28.63
1012.693	63.02
1012.855	29.5
1013.016	68.05
1013.177	57.2
1013.338	36.47
1013.499	93.05
1013.66	64.76
1013.821	54.88
1013.982	75.61
1014.143	37.05
1014.304	37.83
1014.465	56.82
1014.626	60.3
1014.787	41.32
1014.948	141.29
1015.109	-28.24
1015.27	79.1
1015.431	35.7
1015.592	-0.53
1015.752	94.21
1015.913	41.7
1016.074	37.44
1016.235	44.22
1016.395	59.92
1016.556	36.28
1016.717	20.97
1016.877	94.98
1017.038	19.23
1017.199	47.13
1017.359	31.63
1017.52	48.1
1017.681	32.79
1017.841	35.31
1018.002	33.57
1018.162	38.02
1018.323	94.21
1018.483	11.67
1018.644	23.49
1018.804	-3.25
1018.964	-4.41
1019.125	3.73
1019.285	77.93
1019.446	22.72
1019.606	20.97
1019.766	-8.48
1019.926	44.22
1020.087	54.69
1020.247	6.64
1020.407	62.24
1020.567	65.15
1020.728	44.8
1020.888	-0.92
1021.048	14.97
1021.208	9.74
1021.368	9.15
1021.528	60.69
1021.688	74.25
1021.848	33.76
1022.008	51.78
1022.168	3.73
1022.328	30.47
1022.488	68.44
1022.648	7.02
1022.808	24.27
1022.968	36.47
1023.128	12.25
1023.288	2.37
1023.448	20.39
1023.608	57.01
1023.767	51.97
1023.927	10.7
1024.087	9.35
1024.247	-31.53
1024.406	4.7
1024.566	-24.94
1024.726	-20.3
1024.885	14
1025.045	76.38
1025.205	36.67
1025.364	12.64
1025.524	33.76
1025.683	8.19
1025.843	19.23
1026.003	20.59
1026.162	66.89
1026.321	57.79
1026.481	30.47
1026.64	5.28
1026.8	52.94
1026.959	42.87
1027.119	38.22
1027.278	16.71
1027.437	10.51
1027.597	40.35
1027.756	36.28
1027.915	41.7
1028.074	59.14
1028.234	15.16
1028.393	24.46
1028.552	13.8
1028.711	-57.69
1028.87	83.55
1029.03	-11.58
1029.189	8.38
1029.348	-51.1
1029.507	26.01
1029.666	17.68
1029.825	-12.93
1029.984	-13.32
1030.143	32.6
1030.302	4.12
1030.461	-30.56
1030.62	20.2
1030.779	49.84
1030.938	-28.04
1031.097	-24.56
1031.255	30.47
1031.414	87.04
1031.573	75.42
1031.732	-6.73
1031.891	28.53
1032.049	70.18
1032.208	44.61
1032.367	1.79
1032.525	-7.51
1032.684	4.5
1032.843	31.63
1033.001	-23.98
1033.16	161.63
1033.319	56.04
1033.477	23.49
1033.636	5.28
1033.794	-27.85
1033.953	36.28
1034.111	31.82
1034.27	-15.45
1034.428	68.05
1034.587	-3.63
1034.745	39.57
1034.903	9.35
1035.062	36.86
1035.22	-16.61
1035.378	31.44
1035.537	-30.37
1035.695	39.77
1035.853	15.94
1036.011	48.29
1036.17	60.3
1036.328	-34.83
1036.486	15.74
1036.644	28.92
1036.802	-72.8
1036.96	-9.45
1037.119	20.78
1037.277	-23.39
1037.435	-17.39
1037.593	-22.62
1037.751	24.46
1037.909	53.91
1038.067	53.91
