Data from gum_old_FLMT105791__123__15-46-12-253.txt Node

Date: Mon Mar 20 15:46:12 GMT 2023
User: antho
Spectrometer: FLMT10579
Trigger mode: 0
Integration Time (sec): 1.000000E-1
Scans to average: 10
Electric dark correction enabled: true
Nonlinearity correction enabled: false
Boxcar width: 0
XAxis mode: Wavelengths
Number of Pixels in Spectrum: 3648
>>>>>Begin Spectral Data<<<<<
345.248	-191.78
345.464	-191.78
345.681	-191.78
345.898	-197.59
346.114	-186.16
346.331	-30.97
346.548	29.68
346.764	13.21
346.981	1.78
347.197	-13.72
347.414	34.91
347.631	-33.68
347.847	49.05
348.064	-16.05
348.28	27.16
348.497	-52.09
348.713	-9.27
348.93	39.75
349.146	23.09
349.363	6.81
349.579	26.58
349.796	23.28
350.012	-5.78
350.229	14.56
350.445	0.03
350.661	6.23
350.878	5.26
351.094	34.71
351.311	23.28
351.527	47.31
351.743	-17.02
351.96	19.99
352.176	69.59
352.392	-3.84
352.609	25.8
352.825	-4.62
353.041	6.43
353.257	21.54
353.474	15.14
353.69	7.78
353.906	14.18
354.122	-28.25
354.339	76.95
354.555	-3.07
354.771	3.13
354.987	53.7
355.203	76.17
355.42	-12.95
355.636	-1.71
355.852	-23.22
356.068	30.84
356.284	-18.95
356.5	77.53
356.716	46.14
356.932	21.73
357.148	29.29
357.364	29.68
357.58	61.64
357.796	90.71
358.012	77.34
358.228	28.9
358.444	-53.83
358.66	76.17
358.876	64.94
359.092	9.72
359.308	51.96
359.524	41.69
359.74	18.83
359.956	1.58
360.172	33.36
360.388	48.66
360.604	3.91
360.819	94.77
361.035	6.23
361.251	59.51
361.467	-16.63
361.683	50.21
361.898	59.71
362.114	55.83
362.33	23.86
362.546	57.38
362.762	26.58
362.977	37.23
363.193	-3.26
363.409	49.44
363.624	-4.04
363.84	25.41
364.056	0.03
364.271	48.28
364.487	26.77
364.703	16.89
364.918	-0.74
365.134	32.78
365.35	14.95
365.565	122.87
365.781	29.87
365.996	62.03
366.212	103.88
366.427	59.71
366.643	19.02
366.858	22.7
367.074	10.3
367.289	93.61
367.505	121.32
367.72	5.07
367.936	39.94
368.151	74.62
368.367	61.64
368.582	41.69
368.798	38.39
369.013	99.81
369.228	41.88
369.444	74.04
369.659	89.16
369.874	46.92
370.09	101.36
370.305	-13.34
370.52	34.13
370.736	101.94
370.951	47.11
371.166	94
371.381	132.75
371.597	73.27
371.812	26.38
372.027	15.53
372.242	27.93
372.458	108.14
372.673	35.68
372.888	52.34
373.103	61.84
373.318	138.76
373.533	59.32
373.749	61.64
373.964	-20.89
374.179	60.29
374.394	4.68
374.609	82.76
374.824	2.36
375.039	100.01
375.254	30.84
375.469	87.99
375.684	63.39
375.899	93.03
376.114	32.58
376.329	51.96
376.544	85.67
376.759	75.59
376.974	27.74
377.189	41.69
377.404	51.76
377.619	108.72
377.834	1.97
378.049	1.78
378.264	59.51
378.478	71.72
378.693	40.53
378.908	95.74
379.123	76.17
379.338	116.67
379.553	66.68
379.767	65.33
379.982	79.66
380.197	77.34
380.412	45.37
380.626	91.09
380.841	142.44
381.056	82.18
381.271	137.79
381.485	51.76
381.7	32.97
381.915	76.76
382.129	50.41
382.344	70.36
382.559	64.74
382.773	84.31
382.988	22.7
383.202	62.61
383.417	35.49
383.632	125.19
383.846	44.21
384.061	59.32
384.275	51.76
384.49	95.55
384.704	86.44
384.919	77.53
385.133	62.03
385.348	100.01
385.562	38.2
385.777	108.72
385.991	68.23
386.206	74.24
386.42	37.43
386.634	120.16
386.849	87.22
387.063	78.69
387.277	26.58
387.492	46.14
387.706	40.14
387.92	34.13
388.135	99.81
388.349	68.62
388.563	87.99
388.778	91.48
388.992	91.87
389.206	101.94
389.42	179.64
389.635	66.68
389.849	112.02
390.063	121.51
390.277	100.01
390.491	183.7
390.706	123.84
390.92	136.62
391.134	120.35
391.348	108.72
391.562	72.88
391.776	102.33
391.99	86.06
392.205	134.3
392.419	89.54
392.633	84.12
392.847	160.07
393.061	81.41
393.275	141.66
393.489	53.51
393.703	66.1
393.917	109.89
394.131	20.57
394.345	103.3
394.559	110.66
394.773	70.75
394.986	130.81
395.2	104.07
395.414	110.27
395.628	52.34
395.842	130.62
396.056	108.72
396.27	83.34
396.484	134.11
396.697	116.28
396.911	163.55
397.125	114.54
397.339	137.01
397.553	83.73
397.766	158.32
397.98	170.14
398.194	140.11
398.408	111.63
398.621	134.69
398.835	174.99
399.049	141.27
399.262	179.64
399.476	185.25
399.69	176.15
399.903	245.12
400.117	170.34
400.331	175.57
400.544	136.43
400.758	286.97
400.971	190.87
401.185	222.65
401.398	135.27
401.612	231.56
401.826	231.37
402.039	204.24
402.253	151.74
402.466	205.99
402.68	175.57
402.893	187.58
403.106	184.09
403.32	174.02
403.533	216.84
403.747	194.94
403.96	192.42
404.174	197.65
404.387	142.44
404.6	222.65
404.814	239.89
405.027	186.8
405.24	184.09
405.454	182.35
405.667	220.52
405.88	143.79
406.094	215.48
406.307	243.19
406.52	198.82
406.733	156.77
406.947	148.25
407.16	267.4
407.373	267.98
407.586	159.68
407.799	181.38
408.012	229.24
408.226	229.82
408.439	268.37
408.652	161.62
408.865	245.7
409.078	280.58
409.291	224.2
409.504	193.97
409.717	256.55
409.93	282.13
410.143	236.02
410.357	178.86
410.57	165.69
410.783	185.25
410.996	224.39
411.209	225.36
411.421	257.72
411.634	236.99
411.847	212.19
412.06	246.67
412.273	229.82
412.486	234.27
412.699	304.41
412.912	249.77
413.125	269.34
413.338	243.77
413.55	276.9
413.763	263.14
413.976	272.44
414.189	230.98
414.402	235.82
414.615	314.29
414.827	242.22
415.04	262.75
415.253	273.6
415.466	293.95
415.678	307.32
415.891	257.13
416.104	255.2
416.316	245.7
416.529	243.57
416.742	281.74
416.954	321.27
417.167	276.51
417.38	268.37
417.592	277.87
417.805	231.75
418.017	226.72
418.23	292.4
418.442	244.74
418.655	251.71
418.868	244.54
419.08	291.82
419.293	305.96
419.505	308.28
419.718	262.37
419.93	293.95
420.142	249.19
420.355	294.33
420.567	320.1
420.78	275.73
420.992	247.45
421.205	360.6
421.417	240.67
421.629	276.51
421.842	243.96
422.054	256.94
422.266	325.72
422.479	344.51
422.691	267.4
422.903	293.75
423.115	246.87
423.328	270.89
423.54	284.07
423.752	268.95
423.964	264.5
424.177	302.67
424.389	279.61
424.601	398.96
424.813	312.74
425.025	325.14
425.238	350.71
425.45	286.78
425.662	295.11
425.874	609.95
426.086	300.34
426.298	309.06
426.51	312.55
426.722	288.52
426.934	280
427.146	321.27
427.358	280
427.57	345.68
427.782	307.12
427.994	286.2
428.206	272.25
428.418	247.83
428.63	351.1
428.842	370.28
429.054	334.05
429.266	311.77
429.478	257.13
429.69	279.03
429.902	238.34
430.114	331.92
430.325	281.74
430.537	256.75
430.749	281.55
430.961	178.09
431.173	273.6
431.384	275.54
431.596	200.56
431.808	257.72
432.02	316.42
432.231	344.13
432.443	363.89
432.655	334.25
432.867	300.34
433.078	322.62
433.29	403.03
433.502	367.96
433.713	380.55
433.925	351.1
434.136	401.67
434.348	311.38
434.56	271.67
434.771	417.56
434.983	300.53
435.194	306.54
435.406	339.67
435.617	406.51
435.829	446.81
436.04	381.33
436.252	392.76
436.463	414.85
436.675	403.8
436.886	388.3
437.098	409.81
437.309	476.07
437.521	394.7
437.732	403.03
437.943	389.46
438.155	397.6
438.366	328.63
438.578	428.02
438.789	365.25
439	397.99
439.211	376.87
439.423	376.87
439.634	395.08
439.845	428.41
440.057	420.66
440.268	425.89
440.479	386.56
440.69	451.08
440.902	390.24
441.113	384.43
441.324	391.6
441.535	445.65
441.746	436.93
441.957	378.61
442.168	428.99
442.38	462.7
442.591	467.74
442.802	400.7
443.013	404.38
443.224	456.11
443.435	418.14
443.646	438.09
443.857	402.45
444.068	409.03
444.279	394.11
444.49	502.42
444.701	417.95
444.912	561.51
445.123	516.76
445.334	502.61
445.545	457.86
445.756	455.73
445.967	429.38
446.178	464.44
446.388	470.84
446.599	459.21
446.81	472.58
447.021	445.65
447.232	489.63
447.443	512.49
447.653	446.81
447.864	495.83
448.075	466.38
448.286	532.26
448.496	482.85
448.707	546.79
448.918	446.81
449.129	576.43
449.339	453.21
449.55	492.73
449.761	493.89
449.971	537.1
450.182	488.28
450.393	496.8
450.603	499.32
450.814	537.29
451.024	522.18
451.235	555.89
451.446	600.84
451.656	595.42
451.867	513.07
452.077	521.41
452.288	588.06
452.498	573.72
452.709	512.88
452.919	505.71
453.13	464.25
453.34	522.76
453.55	453.4
453.761	554.92
453.971	548.72
454.182	544.85
454.392	547.76
454.602	609.95
454.813	545.62
455.023	561.12
455.233	461.93
455.444	533.61
455.654	439.84
455.864	524.51
456.075	506.68
456.285	495.44
456.495	524.7
456.705	540.78
456.916	585.73
457.126	594.84
457.336	542.72
457.546	463.48
457.756	506.49
457.967	590.57
458.177	534.19
458.387	555.89
458.597	496.22
458.807	531.87
459.017	532.06
459.227	552.41
459.437	522.96
459.647	561.51
459.857	558.22
460.068	494.67
460.278	577.98
460.488	579.72
460.698	610.72
460.908	547.95
461.117	507.26
461.327	544.27
461.537	583.79
461.747	564.42
461.957	605.88
462.167	682.41
462.377	603.55
462.587	594.45
462.797	596.39
463.007	572.75
463.216	622.35
463.426	641.14
463.636	602.59
463.846	521.79
464.056	578.76
464.265	623.32
464.475	574.88
464.685	596.58
464.895	608.79
465.104	585.54
465.314	637.85
465.524	573.91
465.733	528.77
465.943	657.61
466.153	652.19
466.362	623.51
466.572	630.68
466.782	571.2
466.991	598.13
467.201	647.92
467.41	515.59
467.62	611.89
467.829	562.09
468.039	609.95
468.249	620.99
468.458	612.27
468.668	660.13
468.877	644.05
469.086	628.35
469.296	676.4
469.505	630.87
469.715	722.32
469.924	643.66
470.134	706.63
470.343	689.77
470.552	633.39
470.762	624.48
470.971	608.79
471.18	634.75
471.39	638.43
471.599	595.22
471.808	678.92
472.018	594.06
472.227	689.77
472.436	726.97
472.645	670.79
472.855	628.94
473.064	737.82
473.273	731.23
473.482	731.62
473.691	767.27
473.901	735.69
474.11	687.25
474.319	772.31
474.528	718.45
474.737	771.53
474.946	759.33
475.155	762.62
475.364	776.76
475.573	770.95
475.783	761.85
475.992	789.55
476.201	794.2
476.41	743.83
476.619	720.77
476.828	788.39
477.037	724.07
477.245	762.82
477.454	809.31
477.663	762.43
477.872	797.3
478.081	889.14
478.29	744.22
478.499	913.74
478.708	842.06
478.917	929.44
479.125	859.49
479.334	845.93
479.543	849.03
479.752	898.44
479.961	845.55
480.169	847.68
480.378	868.21
480.587	992.21
480.796	899.6
481.004	886.62
481.213	887.78
481.422	906.96
481.63	914.33
481.839	924.98
482.048	966.64
482.256	910.06
482.465	935.25
482.674	950.75
482.882	961.21
483.091	1019.92
483.299	937.38
483.508	994.54
483.716	943.78
483.925	986.01
484.134	936.61
484.342	947.46
484.551	986.4
484.759	985.82
484.967	996.47
485.176	1005.58
485.384	994.15
485.593	1035.03
485.801	1013.33
486.01	961.21
486.218	928.86
486.426	839.15
486.635	843.41
486.843	829.08
487.051	854.07
487.26	883.33
487.468	915.1
487.676	954.43
487.885	918.78
488.093	975.55
488.301	1019.14
488.509	994.73
488.717	1042.39
488.926	1026.51
489.134	1001.51
489.342	1008.87
489.55	980.78
489.758	1002.09
489.967	1014.11
490.175	1117.57
490.383	1050.72
490.591	1160
490.799	1072.04
491.007	1132.29
491.215	1092.57
491.423	1069.9
491.631	1086.95
491.839	1099.55
492.047	1111.95
492.255	1053.05
492.463	989.31
492.671	1017.79
492.879	1094.12
493.087	1053.05
493.295	1108.65
493.503	1110.4
493.711	1145.47
493.919	1181.12
494.127	1170.07
494.334	1171.82
494.542	1085.02
494.75	1102.26
494.958	1126.87
495.166	1209.4
495.374	1172.59
495.581	1181.12
495.789	1151.47
495.997	1200.1
496.205	1120.86
496.412	1155.73
496.62	1155.93
496.828	1181.12
497.035	1155.93
497.243	1190.61
497.451	1177.05
497.658	1196.62
497.866	1179.57
498.074	1257.65
498.281	1194.68
498.489	1260.36
498.696	1172.78
498.904	1135.58
499.112	1149.53
499.319	1234.01
499.527	1182.86
499.734	1234.4
499.942	1170.65
500.149	1172.4
500.357	1220.64
500.564	1137.91
500.771	1210.18
500.979	1153.02
501.186	1134.03
501.394	1179.95
501.601	1177.63
501.808	1196.23
502.016	1167.17
502.223	1162.32
502.43	1168.72
502.638	1178.98
502.845	1126.67
503.052	1234.98
503.26	1166.2
503.467	1296.98
503.674	1214.63
503.881	1243.7
504.089	1320.03
504.296	1259.2
504.503	1171.82
504.71	1208.43
504.917	1168.72
505.125	1219.86
505.332	1240.01
505.539	1249.31
505.746	1329.72
505.953	1273.53
506.16	1288.45
506.367	1353.55
506.574	1324.68
506.781	1357.43
506.988	1264.62
507.195	1299.69
507.402	1280.51
507.609	1325.46
507.816	1242.92
508.023	1283.41
508.23	1275.66
508.437	1220.45
508.644	1290
508.851	1305.31
509.058	1313.25
509.265	1266.56
509.472	1329.14
509.679	1397.92
509.885	1299.3
510.092	1291.75
510.299	1310.15
510.506	1326.04
510.713	1306.86
510.92	1340.38
511.126	1332.04
511.333	1365.37
511.54	1305.89
511.746	1421.36
511.953	1386.87
512.16	1376.61
512.367	1372.93
512.573	1388.42
512.78	1372.15
512.987	1335.92
513.193	1349.09
513.4	1308.21
513.606	1336.89
513.813	1356.26
514.02	1369.83
514.226	1438.02
514.433	1371.38
514.639	1309.76
514.846	1332.63
515.052	1321.97
515.259	1350.64
515.465	1389.01
515.672	1362.46
515.878	1459.14
516.085	1384.36
516.291	1443.45
516.497	1375.25
516.704	1353.55
516.91	1292.52
517.117	1301.43
517.323	1224.13
517.529	1248.54
517.736	1252.41
517.942	1246.02
518.148	1267.91
518.354	1352.78
518.561	1353.74
518.767	1331.27
518.973	1369.24
519.179	1403.34
519.386	1357.62
519.592	1350.06
519.798	1382.23
520.004	1479.87
520.21	1409.74
520.417	1469.99
520.623	1510.68
520.829	1493.24
521.035	1514.75
521.241	1507.77
521.447	1537.22
521.653	1646.5
521.859	1504.87
522.065	1542.65
522.271	1628.28
522.477	1603.1
522.683	1588.57
522.889	1603.29
523.095	1600.58
523.301	1602.71
523.507	1522.11
523.713	1588.57
523.919	1509.52
524.125	1626.73
524.331	1587.98
524.537	1703.85
524.742	1679.24
524.948	1675.95
525.154	1693
525.36	1813.51
525.566	1682.15
525.772	1758.87
525.977	1627.9
526.183	1715.28
526.389	1770.49
526.595	1688.15
526.8	1666.84
527.006	1574.81
527.212	1569.77
527.417	1580.23
527.623	1538.77
527.829	1618.98
528.034	1640.68
528.24	1657.54
528.446	1635.26
528.651	1712.56
528.857	1778.24
529.062	1822.42
529.268	1775.14
529.473	1772.24
529.679	1787.74
529.884	1884.81
530.09	1804.01
530.295	1872.21
530.501	1878.41
530.706	1858.07
530.912	1818.35
531.117	1836.37
531.323	1870.66
531.528	1897.01
531.733	1919.29
531.939	1852.64
532.144	1913.67
532.35	1912.51
532.555	1945.06
532.76	1904.96
532.966	1903.6
533.171	1851.87
533.376	1815.06
533.581	1778.83
533.787	1855.74
533.992	1867.76
534.197	1932.85
534.402	1869.5
534.607	1878.02
534.813	2000.86
535.018	1866.21
535.223	1910.77
535.428	1907.09
535.633	1954.17
535.838	1982.84
536.043	1958.24
536.249	2043.48
536.454	1985.17
536.659	2006.28
536.864	1968.89
537.069	1932.47
537.274	1974.7
537.479	1964.44
537.684	1992.53
537.889	1940.8
538.094	2050.07
538.299	1960.56
538.504	1930.72
538.708	1990.59
538.913	2032.05
539.118	2028.95
539.323	2022.75
539.528	1967.73
539.733	1979.74
539.938	1997.37
540.142	1987.69
540.347	1987.3
540.552	1950.1
540.757	1946.42
540.962	1949.71
541.166	1899.72
541.371	1890.62
541.576	1914.84
541.781	1834.82
541.985	1969.28
542.19	1941.96
542.395	2028.57
542.599	2084.95
542.804	2043.68
543.008	2033.02
543.213	1956.49
543.418	1964.63
543.622	2034.38
543.827	1969.09
544.031	2089.21
544.236	2040
544.44	2021.98
544.645	2140.55
544.849	2048.33
545.054	2068.67
545.258	2150.63
545.463	2112.46
545.667	2054.33
545.872	2072.55
546.076	2090.37
546.281	2077.78
546.485	2020.62
546.689	2072.16
546.894	2089.98
547.098	2075.07
547.302	2002.6
547.507	2069.64
547.711	2108
547.915	2095.8
548.119	2058.79
548.324	2046.39
548.528	2089.01
548.732	2042.9
548.936	2137.45
549.141	2103.74
549.345	2062.28
549.549	2072.74
549.753	2076.81
549.957	2187.05
550.161	2189.57
550.366	2111.88
550.57	2092.31
550.774	2106.84
550.978	2063.25
551.182	2145.01
551.386	2069.25
551.59	2081.27
551.794	2057.24
551.998	2111.1
552.202	2090.37
552.406	2041.74
552.61	2094.63
552.814	2100.45
553.018	2189.76
553.222	2115.95
553.426	2104.71
553.63	2157.8
553.833	2065.57
554.037	2047.36
554.241	2133.19
554.445	2128.35
554.649	2111.1
554.853	2058.79
555.056	2103.74
555.26	2154.11
555.464	2122.34
555.668	2095.8
555.871	2150.43
556.075	2139
556.279	2087.85
556.483	2009.38
556.686	2098.31
556.89	2091.15
557.094	2081.27
557.297	2019.85
557.501	2112.46
557.704	1943.51
557.908	2097.73
558.112	1991.37
558.315	2126.8
558.519	2017.91
558.722	2041.74
558.926	1968.7
559.129	1947.19
559.333	1909.41
559.536	1970.44
559.74	1914.84
559.943	1947
560.147	1923.55
560.35	1932.85
560.553	1952.81
560.757	1847.61
560.96	1974.12
561.164	1970.25
561.367	2011.52
561.57	1948.74
561.774	1996.02
561.977	1933.82
562.18	1942.93
562.384	2019.07
562.587	1901.08
562.79	1948.55
562.993	1928.79
563.197	1962.11
563.4	1989.24
563.603	2004.15
563.806	2034.77
564.009	1920.07
564.212	1953
564.416	1839.27
564.619	1931.11
564.822	1853.03
565.025	1995.43
565.228	1896.24
565.431	1902.24
565.634	1799.36
565.837	1871.05
566.04	1837.92
566.243	1844.89
566.446	1711.6
566.649	1875.7
566.852	1799.56
567.055	1831.33
567.258	1836.37
567.461	1911.74
567.664	1877.44
567.867	1755.58
568.07	1809.63
568.273	1822.42
568.475	1878.99
568.678	1804.79
568.881	1775.92
569.084	1772.43
569.287	1686.99
569.489	1697.06
569.692	1794.33
569.895	1769.14
570.098	1712.56
570.3	1700.94
570.503	1652.5
570.706	1701.91
570.909	1693.38
571.111	1570.16
571.314	1620.34
571.516	1653.28
571.719	1679.82
571.922	1635.65
572.124	1654.05
572.327	1668.58
572.529	1619.37
572.732	1624.22
572.935	1656.57
573.137	1709.27
573.34	1623.44
573.542	1677.3
573.745	1682.73
573.947	1664.32
574.15	1658.12
574.352	1610.27
574.554	1725.35
574.757	1614.53
574.959	1607.17
575.162	1593.02
575.364	1598.45
575.566	1664.32
575.769	1584.5
575.971	1556.21
576.173	1480.84
576.376	1575.2
576.578	1585.08
576.78	1647.85
576.982	1491.69
577.185	1549.82
577.387	1485.49
577.589	1488.2
577.791	1609.1
577.993	1580.62
578.196	1554.27
578.398	1544.97
578.6	1576.36
578.802	1438.61
579.004	1476.77
579.206	1488.79
579.408	1537.8
579.61	1489.95
579.812	1532.19
580.014	1471.35
580.216	1503.32
580.418	1509.52
580.62	1427.17
580.822	1422.72
581.024	1493.05
581.226	1548.65
581.428	1487.24
581.63	1583.53
581.832	1471.93
582.034	1548.27
582.236	1488.98
582.438	1550.4
582.64	1548.85
582.841	1568.61
583.043	1596.7
583.245	1540.32
583.447	1549.43
583.649	1486.65
583.85	1506.8
584.052	1530.05
584.254	1443.26
584.456	1534.51
584.657	1424.07
584.859	1471.35
585.061	1451.78
585.262	1449.07
585.464	1427.17
585.666	1524.05
585.867	1427.56
586.069	1496.92
586.27	1469.99
586.472	1429.5
586.674	1401.79
586.875	1414.77
587.077	1415.55
587.278	1456.24
587.48	1414.39
587.681	1579.65
587.883	1436.09
588.084	1407.22
588.285	1432.6
588.487	1408.38
588.688	1412.64
588.89	1353.94
589.091	1316.74
589.292	1326.43
589.494	1285.74
589.695	1288.45
589.896	1182.86
590.098	1218.7
590.299	1290.78
590.5	1233.23
590.702	1262.88
590.903	1309.18
591.104	1376.03
591.305	1347.74
591.507	1411.48
591.708	1367.5
591.909	1343.28
592.11	1413.61
592.311	1377.77
592.512	1298.14
592.714	1291.16
592.915	1321.78
593.116	1306.86
593.317	1339.02
593.518	1318.29
593.719	1310.54
593.92	1359.17
594.121	1399.47
594.322	1367.89
594.523	1330.88
594.724	1284.38
594.925	1325.46
595.126	1306.08
595.327	1322.55
595.528	1311.31
595.729	1304.14
595.929	1308.41
596.13	1287.1
596.331	1314.8
596.532	1305.89
596.733	1386.87
596.934	1368.66
597.135	1361.49
597.335	1348.51
597.536	1315.58
597.737	1341.54
597.938	1260.75
598.138	1318.68
598.339	1323.91
598.54	1360.91
598.74	1297.94
598.941	1331.27
599.142	1366.53
599.342	1314.8
599.543	1267.72
599.744	1298.14
599.944	1255.9
600.145	1276.63
600.345	1303.18
600.546	1387.26
600.746	1323.33
600.947	1385.71
601.147	1279.93
601.348	1349.48
601.548	1265.2
601.749	1265.01
601.949	1228.58
602.15	1233.04
602.35	1249.31
602.551	1319.26
602.751	1256.68
602.951	1271.79
603.152	1170.65
603.352	1314.22
603.552	1254.74
603.753	1315.58
603.953	1300.27
604.153	1299.69
604.354	1258.81
604.554	1240.98
604.754	1279.73
604.954	1244.47
605.155	1287.29
605.355	1288.65
605.555	1295.62
605.755	1332.24
605.955	1262.68
606.155	1289.61
606.356	1285.55
606.556	1317.32
606.756	1286.13
606.956	1228.58
607.156	1304.92
607.356	1246.8
607.556	1275.28
607.756	1282.64
607.956	1328.56
608.156	1266.95
608.356	1204.95
608.556	1268.88
608.756	1236.91
608.956	1217.35
609.156	1267.53
609.356	1186.35
609.556	1191.19
609.755	1227.03
609.955	1168.13
610.155	1220.83
610.355	1208.05
610.555	1194.68
610.755	1203.59
610.954	1124.73
611.154	1192.93
611.354	1240.6
611.554	1160.38
611.753	1206.3
611.953	1140.82
612.153	1206.69
612.352	1188.67
612.552	1139.27
612.752	1110.2
612.951	1167.36
613.151	1182.67
613.351	1132.48
613.55	1169.1
613.75	1186.54
613.949	1151.67
614.149	1159.42
614.348	1166.58
614.548	1137.33
614.747	1062.74
614.947	1124.93
615.146	1065.25
615.346	1153.8
615.545	1143.92
615.745	1169.88
615.944	1172.4
616.144	1130.74
616.343	1155.93
616.542	1090.05
616.742	1099.74
616.941	1123.18
617.14	1053.44
617.34	1125.12
617.539	1133.26
617.738	1065.64
617.938	1164.45
618.137	1077.46
618.336	1069.9
618.535	1119.7
618.734	1118.73
618.934	1121.25
619.133	1123.77
619.332	1147.4
619.531	1084.05
619.73	1081.72
619.929	1136.36
620.128	1140.62
620.328	1162.32
620.527	1078.24
620.726	1096.06
620.925	1091.22
621.124	1098.39
621.323	1108.27
621.522	1092.77
621.721	1052.47
621.92	1060.02
622.119	1120.28
622.318	1051.69
622.517	1040.26
622.715	1054.21
622.914	1044.33
623.113	1060.22
623.312	1050.92
623.511	1082.3
623.71	1068.16
623.909	1032.51
624.107	1092.77
624.306	1022.63
624.505	1031.74
624.704	1036.77
624.902	1018.56
625.101	1103.04
625.3	1042.39
625.499	1012.75
625.697	1011.01
625.896	984.46
626.095	1026.12
626.293	962.96
626.492	982.91
626.69	1040.65
626.889	1006.16
627.088	1029.99
627.286	1000.74
627.485	995.12
627.683	992.02
627.882	1022.05
628.08	950.56
628.279	965.28
628.477	1062.74
628.676	973.03
628.874	1019.34
629.073	969.16
629.271	966.83
629.469	1012.36
629.668	959.47
629.866	979.04
630.065	923.82
630.263	1006.74
630.461	938.16
630.66	982.91
630.858	990.27
631.056	1017.59
631.254	1012.94
631.453	931.57
631.651	1021.66
631.849	983.88
632.047	991.82
632.245	953.46
632.444	974.39
632.642	983.69
632.84	1039.87
633.038	934.09
633.236	929.63
633.434	938.16
633.632	941.84
633.83	943.39
634.028	996.47
634.227	948.23
634.425	1034.25
634.623	980.97
634.821	958.31
635.019	966.06
635.216	921.49
635.414	983.69
635.612	930.79
635.81	949.01
636.008	1012.94
636.206	965.47
636.404	983.49
636.602	888.75
636.8	954.82
636.997	1008.49
637.195	974.39
637.393	951.14
637.591	1022.24
637.789	949.78
637.986	920.91
638.184	972.64
638.382	1008.68
638.58	978.84
638.777	1023.02
638.975	943.78
639.173	959.66
639.37	991.05
639.568	986.98
639.765	963.34
639.963	938.74
640.161	987.56
640.358	1001.32
640.556	939.71
640.753	882.16
640.951	886.23
641.148	909.87
641.346	906.38
641.543	900.76
641.741	935.44
641.938	913.74
642.136	902.51
642.333	888.36
642.531	964.7
642.728	1029.41
642.925	915.68
643.123	898.05
643.32	948.62
643.517	908.71
643.715	938.93
643.912	895.92
644.109	923.43
644.306	893.4
644.504	881.58
644.701	917.43
644.898	957.92
645.095	875.19
645.293	883.71
645.49	947.26
645.687	915.29
645.884	928.47
646.081	819.78
646.278	884.49
646.475	864.53
646.672	842.45
646.87	897.86
647.067	878.87
647.264	871.89
647.461	832.56
647.658	818.42
647.855	900.38
648.052	858.33
648.249	768.24
648.446	845.35
648.642	816.87
648.839	790.33
649.036	810.28
649.233	790.13
649.43	785.1
649.627	781.8
649.824	813
650.021	788.2
650.217	808.73
650.414	785.68
650.611	852.13
650.808	818.23
651.004	819.97
651.201	817.65
651.398	881.39
651.595	821.71
651.791	783.16
651.988	848.84
652.185	788.97
652.381	837.41
652.578	773.08
652.775	817.45
652.971	782.96
653.168	775.99
653.364	839.35
653.561	770.57
653.757	810.28
653.954	802.53
654.15	767.08
654.347	880.23
654.543	813
654.74	749.45
654.936	760.49
655.133	795.17
655.329	789.36
655.525	788.39
655.722	811.64
655.918	768.43
656.115	776.38
656.311	703.14
656.507	674.27
656.704	624.09
656.9	667.69
657.096	676.99
657.292	690.55
657.489	744.41
657.685	719.22
657.881	735.69
658.077	744.02
658.273	726.39
658.47	833.73
658.666	759.52
658.862	784.51
659.058	735.88
659.254	805.05
659.45	739.18
659.646	793.04
659.842	757.78
660.038	827.72
660.234	739.57
660.43	759.72
660.626	834.89
660.822	792.65
661.018	800.79
661.214	780.06
661.41	729.88
661.606	799.82
661.802	812.8
661.998	797.69
662.194	739.37
662.39	808.54
662.586	776.57
662.781	799.63
662.977	777.93
663.173	836.05
663.369	790.52
663.564	798.66
663.76	802.34
663.956	763.78
664.152	824.04
664.347	693.26
664.543	783.74
664.739	762.43
664.934	692.1
665.13	696.94
665.326	793.43
665.521	773.86
665.717	708.57
665.912	714.57
666.108	680.86
666.304	739.95
666.499	741.12
666.695	693.84
666.89	750.22
667.086	772.31
667.281	765.53
667.477	808.35
667.672	742.47
667.867	752.55
668.063	749.25
668.258	702.37
668.454	735.5
668.649	849.81
668.844	746.35
669.04	778.31
669.235	750.03
669.43	727.55
669.626	689.19
669.821	708.57
670.016	705.08
670.211	728.52
670.407	711.28
670.602	758.17
670.797	729.3
670.992	767.66
671.187	702.95
671.382	763.4
671.578	711.67
671.773	746.93
671.968	683.77
672.163	737.43
672.358	745.57
672.553	697.52
672.748	711.67
672.943	760.68
673.138	701.78
673.333	761.46
673.528	681.25
673.723	742.08
673.918	731.82
674.113	675.63
674.308	810.86
674.503	757.58
674.698	765.53
674.892	742.28
675.087	773.28
675.282	721.93
675.477	713.8
675.672	737.24
675.867	684.35
676.061	669.24
676.256	681.64
676.451	682.41
676.646	700.62
676.84	656.06
677.035	668.85
677.23	657.42
677.424	740.34
677.619	747.12
677.814	773.28
678.008	749.25
678.203	654.51
678.397	656.84
678.592	721.93
678.787	761.07
678.981	677.95
679.176	728.33
679.37	691.71
679.565	688.22
679.759	692.1
679.954	711.28
680.148	742.28
680.342	778.31
680.537	718.45
680.731	668.65
680.926	705.85
681.12	743.83
681.314	676.02
681.509	685.12
681.703	676.99
681.897	739.18
682.092	696.17
682.286	704.69
682.48	765.92
682.674	763.4
682.869	687.83
683.063	691.13
683.257	789.75
683.451	666.91
683.645	707.02
683.839	688.61
684.034	692.87
684.228	740.92
684.422	668.46
684.616	641.34
684.81	685.12
685.004	696.94
685.198	697.72
685.392	715.73
685.586	657.03
685.78	719.61
685.974	718.06
686.168	717.09
686.362	745.96
686.556	612.66
686.75	650.05
686.944	631.65
687.138	649.86
687.331	562.87
687.525	581.47
687.719	524.89
687.913	621.38
688.107	590.38
688.301	560.16
688.494	619.64
688.688	547.76
688.882	562.87
689.076	550.86
689.269	586.31
689.463	662.26
689.657	573.72
689.85	610.92
690.044	588.64
690.238	590.77
690.431	574.11
690.625	594.26
690.818	588.44
691.012	626.42
691.205	644.24
691.399	603.94
691.593	637.27
691.786	683.57
691.98	655.29
692.173	692.68
692.366	678.73
692.56	652.38
692.753	735.88
692.947	641.53
693.14	694.23
693.333	714.57
693.527	644.44
693.72	721.16
693.914	666.72
694.107	664.97
694.3	678.34
694.493	689.19
694.687	755.07
694.88	660.71
695.073	763.98
695.266	725.23
695.46	719.03
695.653	750.8
695.846	770.95
696.039	690.55
696.232	710.7
696.425	762.04
696.618	769.6
696.812	759.91
697.005	838.57
697.198	848.84
697.391	805.83
697.584	841.09
697.777	874.99
697.97	854.46
698.163	881.97
698.356	852.33
698.549	943.19
698.742	905.03
698.935	857.95
699.127	875.77
699.32	895.34
699.513	895.73
699.706	921.49
699.899	943.78
700.092	897.66
700.285	954.04
700.477	888.94
700.67	975.55
700.863	992.21
701.056	1068.94
701.248	1007.91
701.441	1048.98
701.634	1016.04
701.826	1117.95
702.019	972.64
702.212	1083.47
702.404	1009.84
702.597	1048.2
702.79	1068.16
702.982	1092.77
703.175	1129.19
703.367	1137.13
703.56	1153.41
703.752	1248.54
703.945	1161.55
704.137	1218.9
704.33	1250.28
704.522	1263.46
704.715	1290
704.907	1309.18
705.1	1315.19
705.292	1334.56
705.484	1343.86
705.677	1343.09
705.869	1349.29
706.061	1392.49
706.254	1413.81
706.446	1390.56
706.638	1401.79
706.831	1460.69
707.023	1423.69
707.215	1570.74
707.407	1514.17
707.599	1520.37
707.792	1581.78
707.984	1575.78
708.176	1629.64
708.368	1582.75
708.56	1612.4
708.752	1630.42
708.944	1623.25
709.136	1635.07
709.329	1652.31
709.521	1786.19
709.713	1723.61
709.905	1716.44
710.097	1800.14
710.289	1744.14
710.481	1752.67
710.672	1808.86
710.864	1802.46
711.056	1888.87
711.248	1899.14
711.44	1878.41
711.632	1840.44
711.824	1922
712.016	1970.44
712.207	1978
712.399	1992.72
712.591	2082.81
712.783	2024.69
712.975	2061.7
713.166	2014.62
713.358	2054.53
713.55	2141.71
713.741	2092.89
713.933	2133.19
714.125	2145.59
714.316	2093.86
714.508	2225.61
714.7	2221.15
714.891	2186.66
715.083	2281.6
715.274	2237.04
715.466	2258.54
715.657	2315.89
715.849	2178.72
716.04	2282.18
716.232	2218.83
716.423	2328.68
716.615	2249.05
716.806	2219.79
716.998	2187.05
717.189	2159.73
717.381	2086.11
717.572	2054.72
717.763	2095.6
717.955	2068.28
718.146	2039.22
718.337	2019.46
718.528	1983.62
718.72	1931.3
718.911	2017.91
719.102	1913.48
719.293	2007.64
719.485	1983.42
719.676	2038.25
719.867	1942.93
720.058	1957.65
720.249	1962.89
720.44	1979.35
720.632	2032.25
720.823	2113.43
721.014	2238.59
721.205	2199.45
721.396	2315.31
721.587	2387.97
721.778	2415.67
721.969	2462.56
722.16	2563.11
722.351	2548.39
722.542	2668.32
722.733	2667.54
722.924	2656.31
723.115	2700.29
723.305	2690.99
723.496	2708.81
723.687	2588.3
723.878	2597.21
724.069	2549.55
724.26	2619.11
724.45	2573.38
724.641	2554.98
724.832	2614.46
725.023	2588.11
725.213	2606.13
725.404	2542
725.595	2592.95
725.785	2557.88
725.976	2626.28
726.167	2678.2
726.357	2638.29
726.548	2781.08
726.739	2691.38
726.929	2785.34
727.12	2832.62
727.31	2841.92
727.501	2772.17
727.691	2809.37
727.882	2832.04
728.072	2863.42
728.263	2850.25
728.453	2932.59
728.644	2912.05
728.834	2868.85
729.024	2890.93
729.215	2881.63
729.405	2907.21
729.596	3014.93
729.786	2966.3
729.976	3050.39
730.167	3043.41
730.357	3018.81
730.547	3033.34
730.737	3087.2
730.928	3077.32
731.118	3186.79
731.308	3116.84
731.498	3126.73
731.688	3222.63
731.879	3204.42
732.069	3285.21
732.259	3284.82
732.449	3308.46
732.639	3369.68
732.829	3445.25
733.019	3532.63
733.209	3529.33
733.399	3531.66
733.589	3643.84
733.779	3674.45
733.969	3635.51
734.159	3732.77
734.349	3733.93
734.539	3761.83
734.729	3784.11
734.919	3785.66
735.109	3900.75
735.299	3809.3
735.488	3825.38
735.678	3849.01
735.868	3852.89
736.058	3868.2
736.248	3878.66
736.437	3820.73
736.627	3832.74
736.817	3939.88
737.007	3862
737.196	3932.71
737.386	3991.42
737.576	3950.34
737.765	3980.18
737.955	4017.96
738.144	4091.39
738.334	4043.92
738.524	3947.44
738.713	4017.38
738.903	4029.2
739.092	4052.84
739.282	4074.54
739.471	4092.17
739.661	4023.39
739.85	4123.75
740.04	4118.71
740.229	4173.74
740.419	4183.03
740.608	4177.8
740.797	4136.54
740.987	4214.62
741.176	4237.67
741.365	4185.17
741.555	4173.15
741.744	4240.19
741.933	4184.97
742.123	4256.27
742.312	4245.23
742.501	4260.15
742.69	4316.91
742.88	4225.08
743.069	4367.68
743.258	4277.78
743.447	4341.52
743.636	4358.57
743.825	4304.13
744.014	4357.21
744.204	4405.07
744.393	4256.85
744.582	4426.19
744.771	4462.03
744.96	4344.04
745.149	4368.26
745.338	4393.44
745.527	4423.28
745.716	4404.88
745.905	4389.18
746.094	4408.94
746.283	4417.08
746.471	4426.96
746.66	4444.79
746.849	4419.41
747.038	4483.15
747.227	4426.77
747.416	4502.52
747.604	4395.38
747.793	4398.87
747.982	4469.59
748.171	4483.34
748.359	4476.17
748.548	4479.27
748.737	4451.37
748.926	4440.91
749.114	4371.55
749.303	4427.54
749.491	4430.45
749.68	4358.57
749.869	4488.77
750.057	4423.48
750.246	4416.5
750.434	4413.59
750.623	4399.26
750.811	4367.48
751	4452.92
751.188	4386.28
751.377	4429.09
751.565	4379.11
751.754	4337.65
751.942	4329.31
752.131	4438.98
752.319	4371.55
752.507	4362.06
752.696	4393.25
752.884	4422.12
753.072	4363.03
753.261	4340.16
753.449	4327.96
753.637	4337.84
753.825	4452.34
754.014	4312.65
754.202	4347.91
754.39	4437.62
754.578	4429.29
754.766	4326.02
754.955	4338.81
755.143	4443.43
755.331	4372.13
755.519	4346.75
755.707	4309.36
755.895	4291.53
756.083	4348.11
756.271	4269.83
756.459	4312.07
756.647	4342.3
756.835	4313.04
757.023	4297.35
757.211	4284.56
757.399	4267.31
757.587	4240.97
757.775	4224.69
757.963	4248.91
758.151	4259.37
758.339	4209.97
758.526	4220.43
758.714	4247.94
758.902	4059.04
759.09	4093.33
759.278	3895.51
759.465	3676.77
759.653	3297.22
759.841	3030.05
760.028	2678.2
760.216	2356.77
760.404	2195.38
760.591	1854.39
760.779	1653.66
760.967	1502.35
761.154	1327.01
761.342	1309.96
761.529	1366.53
761.717	1429.5
761.905	1441.9
762.092	1571.71
762.28	1537.61
762.467	1569.97
762.655	1541.87
762.842	1548.85
763.029	1590.7
763.217	1630.42
763.404	1629.06
763.592	1622.86
763.779	1594.57
763.966	1668.2
764.154	1706.36
764.341	1800.14
764.528	1781.54
764.716	1838.89
764.903	1916.19
765.09	2003.38
765.277	2060.15
765.465	2201.58
765.652	2244.01
765.839	2340.89
766.026	2498.98
766.213	2533.86
766.4	2612.71
766.588	2829.13
766.775	2832.42
766.962	2971.15
767.149	3001.95
767.336	3167.02
767.523	3108.32
767.71	3218.37
767.897	3377.82
768.084	3464.04
768.271	3453.77
768.458	3539.02
768.645	3602.57
768.832	3570.21
769.019	3600.63
769.206	3599.08
769.392	3701.19
769.579	3767.25
769.766	3707.39
769.953	3773.07
770.14	3770.74
770.327	3780.23
770.513	3838.55
770.7	3865.48
770.887	3747.88
771.073	3815.5
771.26	3810.07
771.447	3753.69
771.634	3729.09
771.82	3860.64
772.007	3772.1
772.193	3791.08
772.38	3819.57
772.567	3813.95
772.753	3780.04
772.94	3823.05
773.126	3869.36
773.313	3847.27
773.499	3819.76
773.686	3839.91
773.872	3761.05
774.059	3857.15
774.245	3730.64
774.432	3769.77
774.618	3653.52
774.804	3751.75
774.991	3737.42
775.177	3780.43
775.363	3732.57
775.55	3729.47
775.736	3670.57
775.922	3668.44
776.109	3674.64
776.295	3727.54
776.481	3709.71
776.667	3750.78
776.853	3669.6
777.04	3695.37
777.226	3692.27
777.412	3797.87
777.598	3627.76
777.784	3628.34
777.97	3635.51
778.156	3693.63
778.342	3614
778.528	3601.02
778.715	3552.58
778.901	3562.66
779.087	3628.14
779.272	3555.29
779.458	3567.31
779.644	3589.78
779.83	3551.42
780.016	3653.33
780.202	3609.16
780.388	3563.24
780.574	3477.02
780.76	3527.39
780.946	3568.08
781.131	3524.1
781.317	3531.08
781.503	3452.03
781.689	3504.53
781.874	3626.79
782.06	3521.39
782.246	3477.6
782.432	3484.58
782.617	3549.29
782.803	3572.15
782.989	3431.68
783.174	3453.19
783.36	3431.49
783.545	3439.24
783.731	3416.76
783.916	3308.27
784.102	3359.42
784.288	3360.19
784.473	3388.67
784.659	3350.5
784.844	3402.81
785.029	3331.32
785.215	3338.3
785.4	3301.49
785.586	3408.43
785.771	3271.65
785.956	3355.93
786.142	3313.69
786.327	3308.85
786.512	3305.17
786.698	3275.72
786.883	3192.79
787.068	3273.97
787.254	3263.7
787.439	3241.62
787.624	3234.45
787.809	3197.83
787.994	3225.34
788.18	3322.99
788.365	3120.72
788.55	3186.79
788.735	3190.47
788.92	3192.41
789.105	3157.92
789.29	3180.59
789.475	3139.9
789.66	3137.38
789.845	3096.31
790.03	3126.34
790.215	3174.77
790.4	3190.08
790.585	3116.84
790.77	3094.76
790.955	3062.01
791.14	3124.4
791.325	3130.02
791.51	3004.08
791.695	3064.53
791.879	3090.11
792.064	3019.2
792.249	3099.99
792.434	3110.64
792.618	3049.23
792.803	3138.16
792.988	3045.93
793.173	3094.18
793.357	3098.83
793.542	2992.65
793.727	3040.51
793.911	3085.26
794.096	3030.82
794.281	3126.34
794.465	3135.44
794.65	3040.31
794.834	3123.24
795.019	3139.12
795.203	3137.57
795.388	3111.03
795.572	3165.47
795.757	3132.15
795.941	3145.52
796.126	3137.77
796.31	3064.34
796.494	3110.26
796.679	3087.2
796.863	3070.15
797.048	3188.14
797.232	3119.17
797.416	3127.11
797.601	3140.67
797.785	3173.22
797.969	3164.89
798.153	3108.13
798.338	3143.77
798.522	3193.37
798.706	3173.61
798.89	3178.07
799.074	3243.75
799.258	3222.24
799.443	3192.21
799.627	3154.82
799.811	3220.69
799.995	3140.48
800.179	3119.36
800.363	3138.93
800.547	3151.72
800.731	3174.39
800.915	3075.77
801.099	3110.64
801.283	3144.94
801.467	3152.11
801.651	3137.96
801.835	3220.5
802.019	3180.2
802.202	3184.66
802.386	3084.68
802.57	3097.28
802.754	3109.87
802.938	3095.73
803.121	3069.18
803.305	3158.89
803.489	3095.73
803.673	3157.34
803.856	3139.32
804.04	3146.49
804.224	3135.64
804.407	3091.27
804.591	3117.62
804.775	3062.59
804.958	3091.27
805.142	3230.77
805.326	3123.43
805.509	3126.53
805.693	3161.6
805.876	3150.94
806.06	3122.46
806.243	3155.4
806.427	3160.05
806.61	3194.73
806.794	3134.67
806.977	3199.57
807.16	3164.7
807.344	3167.8
807.527	3159.08
807.71	3125.18
807.894	3126.34
808.077	3154.82
808.26	3076.93
808.444	3063.76
808.627	3137.19
808.81	3109.68
808.993	2995.95
809.177	3000.6
809.36	3050.19
809.543	3070.34
809.726	2986.84
809.909	2999.43
810.092	2949.25
810.276	2946.35
810.459	2962.43
810.642	2929.1
810.825	2933.37
811.008	2943.63
811.191	2851.6
811.374	2851.22
811.557	2866.72
811.74	2936.27
811.923	2827.77
812.106	2824.67
812.289	2798.52
812.472	2803.94
812.654	2790.77
812.837	2738.84
813.02	2707.26
813.203	2678.39
813.386	2561.76
813.569	2605.74
813.751	2511
813.934	2555.75
814.117	2523.4
814.3	2474.57
814.482	2385.84
814.665	2386.8
814.848	2380.41
815.03	2287.41
815.213	2303.49
815.396	2296.13
815.578	2239.75
815.761	2188.21
815.943	2294
816.126	2121.18
816.309	2140.94
816.491	2092.11
816.674	2024.3
816.856	2063.25
817.039	2035.15
817.221	2130.28
817.403	2098.12
817.586	2090.37
817.768	2072.93
817.951	2040.97
818.133	2013.84
818.315	2037.28
818.498	2091.73
818.68	2134.74
818.862	2089.21
819.045	2169.42
819.227	2108.97
819.409	2089.4
819.591	2100.45
819.774	2071.58
819.956	2039.8
820.138	2139.2
820.32	2126.02
820.502	2191.89
820.684	2252.73
820.866	2233.94
821.048	2296.52
821.231	2323.84
821.413	2266.29
821.595	2269.2
821.777	2290.32
821.959	2264.55
822.141	2347.47
822.323	2222.89
822.505	2165.93
822.686	2135.32
822.868	2017.52
823.05	1896.82
823.232	1837.53
823.414	1774.76
823.596	1873.37
823.778	1844.12
823.96	1891.59
824.141	1871.44
824.323	1866.98
824.505	1981.29
824.687	1998.53
824.868	2064.99
825.05	2143.85
825.232	2222.31
825.413	2287.02
825.595	2240.53
825.777	2140.16
825.958	2203.33
826.14	2166.71
826.321	2253.12
826.503	2227.74
826.685	2226.58
826.866	2256.99
827.048	2201.39
827.229	2185.5
827.411	2166.9
827.592	2110.33
827.773	2103.93
827.955	2037.87
828.136	2024.11
828.318	2020.23
828.499	2013.84
828.68	1970.25
828.862	2042.32
829.043	2018.88
829.224	2030.12
829.406	1990.79
829.587	1970.44
829.768	1954.36
829.949	2003.96
830.131	1976.64
830.312	2056.08
830.493	2002.41
830.674	2009.97
830.855	1983.04
831.036	1967.54
831.218	2018.68
831.399	2076.23
831.58	1995.43
831.761	2019.27
831.942	2015.58
832.123	2036.32
832.304	1938.09
832.485	1942.35
832.666	1945.06
832.847	2022.56
833.028	1991.95
833.209	2018.1
833.389	1937.7
833.57	1917.94
833.751	1934.4
833.932	2001.63
834.113	1974.51
834.294	1931.69
834.475	2016.36
834.655	1990.4
834.836	2020.04
835.017	2033.41
835.198	1962.69
835.378	1995.63
835.559	2050.46
835.74	1978.97
835.92	2005.32
836.101	1962.69
836.281	2019.27
836.462	2011.71
836.643	2065.38
836.823	2039.61
837.004	2021.01
837.184	2086.69
837.365	2072.16
837.545	2069.06
837.726	1997.76
837.906	2085.33
838.087	2056.66
838.267	2002.02
838.448	1987.3
838.628	2007.83
838.808	2017.52
838.989	2038.45
839.169	1967.34
839.349	2046.58
839.53	2055.5
839.71	2028.37
839.89	1993.89
840.07	2063.83
840.251	1996.98
840.431	2054.92
840.611	2006.28
840.791	2025.08
840.971	2045.42
841.151	1995.43
841.332	1950.49
841.512	2017.52
841.692	1962.3
841.872	1991.56
842.052	1967.54
842.232	2036.12
842.412	1912.51
842.592	1916.39
842.772	1996.21
842.952	1974.9
843.132	1965.79
843.312	1956.3
843.492	1938.09
843.672	2004.15
843.851	1914.45
844.031	1937.89
844.211	1956.69
844.391	1925.88
844.571	1967.73
844.751	1918.9
844.93	1955.72
845.11	1917.55
845.29	1925.49
845.47	1947.77
845.649	1953.39
845.829	1948.55
846.009	1909.41
846.188	1931.3
846.368	1902.44
846.547	1898.56
846.727	1946.22
846.907	1862.14
847.086	1901.86
847.266	1923.75
847.445	1897.79
847.625	1864.07
847.804	1873.76
847.984	1881.71
848.163	1865.43
848.343	1885.97
848.522	1879.96
848.701	1911.54
848.881	1815.64
849.06	1870.08
849.239	1865.62
849.419	1847.61
849.598	1778.24
849.777	1784.44
849.957	1773.79
850.136	1683.89
850.315	1684.66
850.494	1673.81
850.674	1709.27
850.853	1794.33
851.032	1706.17
851.211	1812.15
851.39	1755.96
851.569	1681.37
851.748	1741.63
851.927	1784.83
852.107	1761.97
852.286	1685.63
852.465	1703.46
852.644	1773.01
852.823	1776.31
853.002	1736.78
853.181	1742.59
853.359	1738.72
853.538	1685.83
853.717	1761.58
853.896	1602.32
854.075	1588.76
854.254	1539.55
854.433	1449.46
854.611	1512.81
854.79	1396.37
854.969	1532.57
855.148	1543.81
855.327	1517.65
855.505	1566.09
855.684	1515.33
855.863	1583.72
856.041	1566.48
856.22	1553.11
856.399	1598.64
856.577	1654.63
856.756	1661.8
856.934	1762.16
857.113	1748.79
857.291	1681.95
857.47	1625.57
857.648	1631.58
857.827	1658.7
858.005	1724.77
858.184	1610.65
858.362	1720.9
858.541	1650.56
858.719	1654.63
858.898	1649.98
859.076	1627.7
859.254	1704.04
859.433	1633.71
859.611	1615.11
859.789	1577.52
859.967	1647.08
860.146	1677.88
860.324	1543.81
860.502	1590.7
860.68	1538
860.859	1573.07
861.037	1587.79
861.215	1598.25
861.393	1574.03
861.571	1583.72
861.749	1543.23
861.927	1573.84
862.105	1611.43
862.283	1586.43
862.461	1532.19
862.639	1509.32
862.817	1536.25
862.995	1548.65
863.173	1546.52
863.351	1544
863.529	1550.4
863.707	1565.12
863.885	1562.02
864.063	1476.19
864.241	1507.58
864.418	1593.41
864.596	1502.54
864.774	1467.86
864.952	1498.86
865.129	1506.61
865.307	1467.86
865.485	1439.57
865.663	1507.97
865.84	1426.79
866.018	1479.1
866.196	1329.91
866.373	1341.93
866.551	1271.01
866.728	1242.73
866.906	1265.59
867.084	1323.52
867.261	1337.86
867.439	1338.05
867.616	1392.49
867.794	1383.77
867.971	1396.17
868.149	1375.25
868.326	1414.58
868.503	1414.97
868.681	1441.51
868.858	1382.42
869.035	1377.19
869.213	1430.08
869.39	1409.54
869.567	1493.82
869.745	1408.38
869.922	1406.83
870.099	1420.97
870.276	1398.31
870.454	1414.58
870.631	1433.96
870.808	1407.99
870.985	1439.96
871.162	1479.49
871.339	1398.31
871.517	1367.31
871.694	1384.55
871.871	1389.39
872.048	1364.01
872.225	1339.99
872.402	1383.39
872.579	1305.31
872.756	1363.82
872.933	1325.26
873.11	1349.29
873.287	1366.92
873.463	1364.98
873.64	1326.62
873.817	1337.86
873.994	1364.98
874.171	1270.05
874.348	1333.21
874.524	1248.93
874.701	1338.63
874.878	1235.36
875.055	1312.48
875.231	1276.63
875.408	1295.43
875.585	1250.67
875.762	1281.28
875.938	1290
876.115	1284.38
876.291	1244.66
876.468	1285.74
876.645	1257.45
876.821	1246.41
876.998	1262.49
877.174	1292.13
877.351	1253.58
877.527	1217.15
877.704	1264.62
877.88	1278.18
878.057	1224.32
878.233	1309.96
878.409	1231.1
878.586	1252.22
878.762	1248.15
878.938	1236.72
879.115	1181.31
879.291	1238.66
879.467	1159.42
879.644	1182.86
879.82	1223.16
879.996	1209.98
880.172	1127.64
880.349	1206.88
880.525	1224.9
880.701	1159.8
880.877	1156.12
881.053	1202.82
881.229	1195.07
881.405	1255.71
881.581	1147.21
881.757	1169.1
881.933	1181.5
882.109	1204.95
882.285	1184.99
882.461	1128.22
882.637	1177.24
882.813	1117.95
882.989	1159.22
883.165	1230.33
883.341	1125.7
883.517	1235.95
883.693	1213.47
883.869	1240.4
884.044	1139.27
884.22	1205.33
884.396	1187.7
884.572	1192.55
884.747	1219.67
884.923	1183.63
885.099	1195.65
885.275	1216.57
885.45	1160.19
885.626	1162.32
885.801	1164.07
885.977	1143.72
886.153	1097.22
886.328	1181.89
886.504	1149.34
886.679	1194.1
886.855	1129.38
887.03	1158.45
887.206	1200.3
887.381	1166.58
887.557	1200.49
887.732	1168.13
887.908	1201.27
888.083	1194.87
888.258	1178.6
888.434	1155.54
888.609	1178.21
888.784	1208.63
888.96	1137.13
889.135	1151.08
889.31	1151.28
889.485	1157.28
889.661	1159.03
889.836	1202.43
890.011	1178.6
890.186	1140.23
890.361	1154.77
890.537	1179.37
890.712	1166.39
890.887	1180.73
891.062	1178.21
891.237	1222
891.412	1115.24
891.587	1199.13
891.762	1181.5
891.937	1217.54
892.112	1119.7
892.287	1165.42
892.462	1125.9
892.637	1108.65
892.812	1067.97
892.987	1094.9
893.161	1095.29
893.336	1118.54
893.511	1075.33
893.686	1084.44
893.861	1100.71
894.035	1091.99
894.21	1122.41
894.385	1014.3
894.56	1063.7
894.734	1010.04
894.909	1032.9
895.084	1020.69
895.258	984.85
895.433	1010.42
895.608	1004.42
895.782	962.76
895.957	926.73
896.131	956.37
896.306	907.16
896.48	864.14
896.655	905.61
896.829	829.85
897.004	845.16
897.178	864.53
897.353	814.55
897.527	875.19
897.701	864.34
897.876	786.45
898.05	915.1
898.224	886.43
898.399	919.36
898.573	831.4
898.747	744.6
898.921	809.7
899.096	703.14
899.27	699.27
899.444	659.74
899.618	711.67
899.792	757.78
899.967	762.43
900.141	788.97
900.315	704.5
900.489	741.89
900.663	763.78
900.837	753.13
901.011	691.9
901.185	799.82
901.359	769.21
901.533	753.32
901.707	751
901.881	767.47
902.055	708.57
902.229	743.05
902.403	805.44
902.576	744.99
902.75	762.43
902.924	879.06
903.098	825.2
903.272	880.23
903.446	898.44
903.619	889.53
903.793	886.04
903.967	878.09
904.14	921.88
904.314	916.65
904.488	898.05
904.661	921.11
904.835	884.1
905.009	934.09
905.182	968.77
905.356	962.96
905.529	903.09
905.703	870.34
905.876	872.67
906.05	856.4
906.223	816.68
906.397	784.51
906.57	744.6
906.744	719.8
906.917	756.23
907.09	728.72
907.264	751.58
907.437	700.82
907.61	684.93
907.784	674.66
907.957	713.8
908.13	667.49
908.304	699.85
908.477	653.54
908.65	673.69
908.823	623.32
908.996	752.74
909.17	636.69
909.343	605.49
909.516	697.33
909.689	664.78
909.862	637.46
910.035	670.79
910.208	609.95
910.381	599.1
910.554	750.8
910.727	619.05
910.9	666.33
911.073	665.94
911.246	716.32
911.419	685.32
911.592	698.3
911.765	629.71
911.938	634.55
912.11	660.52
912.283	675.82
912.456	681.05
912.629	648.31
912.802	630.29
912.974	622.35
913.147	556.67
913.32	501.64
913.493	544.85
913.665	558.02
913.838	555.7
914.01	566.55
914.183	596.97
914.356	566.16
914.528	618.47
914.701	673.89
914.873	603.55
915.046	561.32
915.218	550.47
915.391	496.8
915.563	487.5
915.736	562.09
915.908	579.72
916.081	552.79
916.253	548.92
916.425	573.91
916.598	600.26
916.77	577.79
916.942	551.44
917.115	506.68
917.287	567.91
917.459	540.97
917.632	509.97
917.804	457.47
917.976	521.6
918.148	532.26
918.32	527.99
918.493	604.52
918.665	621.96
918.837	555.7
919.009	642.11
919.181	616.54
919.353	580.89
919.525	579.92
919.697	577.98
919.869	570.81
920.041	643.08
920.213	698.1
920.385	635.14
920.557	594.84
920.729	604.33
920.901	582.82
921.073	603.36
921.244	570.23
921.416	617.31
921.588	580.31
921.76	577.59
921.932	608.79
922.103	588.83
922.275	583.79
922.447	594.06
922.619	501.06
922.79	559.38
922.962	546.21
923.134	571.39
923.305	504.55
923.477	497.19
923.648	530.71
923.82	545.82
923.991	452.43
924.163	459.41
924.335	519.66
924.506	486.53
924.677	551.24
924.849	479.56
925.02	500.48
925.192	546.21
925.363	510.75
925.535	522.18
925.706	493.89
925.877	541.17
926.049	494.28
926.22	499.32
926.391	525.09
926.562	523.34
926.734	473.94
926.905	556.47
927.076	437.9
927.247	456.11
927.419	443.13
927.59	431.31
927.761	435.96
927.932	419.5
928.103	456.11
928.274	382.68
928.445	407.87
928.616	417.75
928.787	387.33
928.958	410.97
929.129	394.11
929.3	370.28
929.471	337.35
929.642	281.74
929.813	221.1
929.984	357.88
930.155	273.22
930.326	298.6
930.496	264.69
930.667	200.56
930.838	282.13
931.009	208.31
931.18	249.58
931.35	214.12
931.521	250.93
931.692	218.77
931.863	107.56
932.033	197.65
932.204	187.39
932.374	202.11
932.545	124.61
932.716	217.22
932.886	188.16
933.057	93.61
933.227	89.35
933.398	204.05
933.568	134.3
933.739	69.98
933.909	91.29
934.08	133.14
934.25	42.66
934.421	63.19
934.591	123.64
934.761	66.68
934.932	30.26
935.102	98.07
935.272	80.44
935.443	75.59
935.613	82.76
935.783	117.06
935.953	54.09
936.123	216.45
936.294	37.23
936.464	63.78
936.634	73.07
936.804	32.39
936.974	2.55
937.144	113.76
937.314	83.92
937.484	65.71
937.655	37.04
937.825	109.11
937.995	35.29
938.165	114.34
938.334	67.46
938.504	107.56
938.674	91.29
938.844	118.02
939.014	161.62
939.184	155.61
939.354	208.5
939.524	191.84
939.694	164.72
939.863	143.99
940.033	205.21
940.203	209.86
940.373	149.8
940.542	221.68
940.712	143.21
940.882	196.69
941.051	183.9
941.221	182.74
941.391	170.72
941.56	162.2
941.73	118.22
941.899	264.69
942.069	131.78
942.238	186.42
942.408	117.44
942.577	172.08
942.747	131.39
942.916	66.1
943.086	112.02
943.255	166.85
943.425	171.69
943.594	94.19
943.763	51.18
943.933	71.33
944.102	52.93
944.271	92.26
944.441	115.7
944.61	103.69
944.779	111.63
944.948	194.36
945.117	83.15
945.287	103.3
945.456	61.26
945.625	65.13
945.794	130.23
945.963	75.01
946.132	131.2
946.301	91.29
946.47	138.17
946.639	35.29
946.808	92.84
946.977	123.64
947.146	148.44
947.315	115.7
947.484	155.42
947.653	87.41
947.822	72.11
947.991	65.33
948.16	208.12
948.329	166.07
948.498	85.09
948.666	137.4
948.835	131.2
949.004	82.18
949.173	87.61
949.341	122.48
949.51	132.94
949.679	170.14
949.847	142.24
950.016	183.32
950.185	164.91
950.353	107.37
950.522	105.24
950.69	179.44
950.859	109.89
951.028	166.85
951.196	150.57
951.365	79.08
951.533	113.18
951.701	127.52
951.87	141.47
952.038	69.01
952.207	114.92
952.375	158.91
952.543	81.6
952.712	115.12
952.88	96.52
953.048	163.55
953.217	134.69
953.385	114.92
953.553	167.62
953.721	68.04
953.89	112.41
954.058	59.9
954.226	79.86
954.394	106.21
954.562	43.43
954.73	121.12
954.898	107.37
955.067	133.33
955.235	107.76
955.403	136.43
955.571	174.21
955.739	121.12
955.907	72.49
956.075	84.31
956.243	83.34
956.41	119.38
956.578	52.93
956.746	75.21
956.914	93.42
957.082	111.63
957.25	141.08
957.418	79.27
957.585	111.24
957.753	137.4
957.921	76.76
958.089	100.59
958.256	124.81
958.424	100.39
958.592	130.81
958.759	91.67
958.927	100.39
959.095	71.53
959.262	86.44
959.43	90.71
959.597	75.79
959.765	132.75
959.932	71.72
960.1	136.62
960.267	114.92
960.435	110.27
960.602	173.82
960.77	69.39
960.937	94.77
961.104	117.06
961.272	66.88
961.439	86.06
961.606	120.93
961.774	155.03
961.941	100.01
962.108	112.99
962.275	119.19
962.443	165.1
962.61	151.74
962.777	179.25
962.944	156.19
963.111	124.61
963.278	152.9
963.446	141.08
963.613	118.8
963.78	120.35
963.947	143.6
964.114	106.59
964.281	193.97
964.448	139.53
964.615	113.76
964.782	112.79
964.949	153.48
965.116	198.82
965.282	181.57
965.449	103.88
965.616	63
965.783	162.78
965.95	115.51
966.117	78.89
966.283	92.06
966.45	143.99
966.617	143.21
966.784	137.01
966.95	159.49
967.117	159.49
967.284	78.89
967.45	113.37
967.617	170.53
967.784	153.48
967.95	188.94
968.117	133.33
968.283	172.85
968.45	213.93
968.616	166.46
968.783	176.73
968.949	157.36
969.116	172.66
969.282	154.64
969.449	155.81
969.615	123.06
969.781	87.8
969.948	119.38
970.114	80.24
970.28	190.1
970.447	133.91
970.613	165.69
970.779	135.07
970.945	152.12
971.112	163.36
971.278	153.09
971.444	120.16
971.61	159.49
971.776	112.6
971.942	152.51
972.108	174.02
972.275	112.79
972.441	135.85
972.607	212.19
972.773	124.61
972.939	131.97
973.105	125
973.271	82.37
973.437	98.07
973.602	81.21
973.768	149.61
973.934	129.26
974.1	133.33
974.266	68.62
974.432	106.01
974.598	125.77
974.763	168.4
974.929	112.02
975.095	178.67
975.261	90.51
975.426	94.58
975.592	139.53
975.758	168.59
975.923	63.58
976.089	95.94
976.255	163.17
976.42	135.66
976.586	147.86
976.751	144.37
976.917	232.34
977.082	140.31
977.248	90.51
977.413	39.56
977.579	105.04
977.744	107.37
977.91	78.5
978.075	97.87
978.24	151.16
978.406	115.12
978.571	96.91
978.736	86.44
978.902	128.1
979.067	76.17
979.232	54.09
979.397	119.77
979.563	166.46
979.728	75.59
979.893	88.19
980.058	77.72
980.223	158.32
980.388	129.07
980.554	107.37
980.719	100.39
980.884	124.61
981.049	156.58
981.214	67.26
981.379	149.61
981.544	79.86
981.709	96.52
981.874	113.76
982.039	108.53
982.204	122.48
982.368	130.04
982.533	88.38
982.698	146.12
982.863	168.98
983.028	109.31
983.193	131.2
983.357	126.36
983.522	110.86
983.687	99.81
983.852	108.14
984.016	101.94
984.181	122.87
984.346	141.08
984.51	120.93
984.675	115.31
984.839	124.42
985.004	132.56
985.168	124.61
985.333	99.23
985.498	116.67
985.662	145.15
985.827	109.89
985.991	133.14
986.155	95.16
986.32	144.37
986.484	143.79
986.649	135.85
986.813	63.19
986.977	118.8
987.142	131.2
987.306	57.19
987.47	49.83
987.634	100.59
987.799	95.36
987.963	91.29
988.127	120.74
988.291	177.5
988.455	103.3
988.62	104.46
988.784	131.2
988.948	130.81
989.112	67.26
989.276	137.01
989.44	95.36
989.604	69.78
989.768	84.31
989.932	195.52
990.096	80.63
990.26	59.13
990.424	86.06
990.588	68.62
990.752	160.26
990.915	135.66
991.079	71.53
991.243	52.15
991.407	104.27
991.571	105.24
991.734	128.49
991.898	125.39
992.062	200.95
992.226	106.79
992.389	48.47
992.553	68.04
992.717	80.82
992.88	75.79
993.044	97.68
993.207	98.84
993.371	76.17
993.535	123.26
993.698	73.85
993.862	133.52
994.025	149.99
994.189	109.5
994.352	96.71
994.515	103.3
994.679	113.57
994.842	84.7
995.006	131.2
995.169	80.82
995.332	71.53
995.496	114.34
995.659	45.95
995.822	86.64
995.985	77.14
996.149	137.79
996.312	70.36
996.475	163.94
996.638	75.98
996.801	152.32
996.964	152.51
997.128	71.14
997.291	76.37
997.454	105.24
997.617	40.14
997.78	148.64
997.943	69.59
998.106	84.12
998.269	74.43
998.432	75.01
998.595	83.54
998.758	15.92
998.92	67.65
999.083	36.46
999.246	66.1
999.409	50.21
999.572	18.83
999.735	59.13
999.897	109.5
1000.06	57.96
1000.223	80.63
1000.386	91.09
1000.548	86.44
1000.711	98.46
1000.874	68.43
1001.036	35.88
1001.199	117.64
1001.361	78.69
1001.524	55.64
1001.687	104.66
1001.849	39.94
1002.012	92.84
1002.174	65.13
1002.337	90.12
1002.499	59.9
1002.661	106.59
1002.824	26.77
1002.986	42.08
1003.149	67.07
1003.311	7.2
1003.473	102.52
1003.636	43.24
1003.798	84.89
1003.96	71.72
1004.123	79.86
1004.285	63
1004.447	41.49
1004.609	63.19
1004.771	119.38
1004.933	15.14
1005.096	48.28
1005.258	24.83
1005.42	40.91
1005.582	115.7
1005.744	59.9
1005.906	24.06
1006.068	78.89
1006.23	21.15
1006.392	19.41
1006.554	29.29
1006.716	64.94
1006.878	63.97
1007.04	12.63
1007.202	32.97
1007.363	49.24
1007.525	79.08
1007.687	70.17
1007.849	110.47
1008.011	-23.41
1008.172	24.25
1008.334	45.37
1008.496	41.3
1008.658	-16.63
1008.819	22.31
1008.981	28.71
1009.143	22.31
1009.304	51.57
1009.466	61.26
1009.627	133.52
1009.789	164.52
1009.95	61.84
1010.112	7.59
1010.273	58.74
1010.435	31.61
1010.596	30.84
1010.758	60.09
1010.919	48.28
1011.081	4.29
1011.242	46.34
1011.403	78.5
1011.565	37.62
1011.726	75.98
1011.887	9.91
1012.049	18.44
1012.21	63.97
1012.371	125.58
1012.532	-27.48
1012.693	51.57
1012.855	13.98
1013.016	52.93
1013.177	76.95
1013.338	60.87
1013.499	101.17
1013.66	66.1
1013.821	54.48
1013.982	44.01
1014.143	44.79
1014.304	9.72
1014.465	56.03
1014.626	84.51
1014.787	15.53
1014.948	148.25
1015.109	-48.99
1015.27	85.28
1015.431	23.09
1015.592	20.96
1015.752	96.71
1015.913	30.64
1016.074	53.12
1016.235	44.79
1016.395	11.08
1016.556	29.48
1016.717	11.27
1016.877	78.11
1017.038	14.76
1017.199	24.25
1017.359	30.26
1017.52	37.23
1017.681	19.6
1017.841	36.07
1018.002	49.83
1018.162	24.83
1018.323	80.05
1018.483	5.65
1018.644	4.29
1018.804	7.59
1018.964	-40.46
1019.125	22.51
1019.285	58.16
1019.446	-5.78
1019.606	-1.71
1019.766	-20.31
1019.926	56.99
1020.087	17.28
1020.247	-5.39
1020.407	49.05
1020.567	83.15
1020.728	34.52
1020.888	-7.33
1021.048	-10.62
1021.208	12.24
1021.368	2.94
1021.528	89.54
1021.688	84.12
1021.848	44.21
1022.008	19.99
1022.168	16.11
1022.328	41.69
1022.488	61.06
1022.648	8.75
1022.808	42.66
1022.968	63.58
1023.128	25.22
1023.288	10.49
1023.448	35.1
1023.608	37.04
1023.767	38.78
1023.927	2.74
1024.087	-9.85
1024.247	-34.65
1024.406	42.27
1024.566	-34.26
1024.726	-6.17
1024.885	25.22
1025.045	62.42
1025.205	38.39
1025.364	20.57
1025.524	27.16
1025.683	-5.01
1025.843	21.73
1026.003	17.66
1026.162	105.62
1026.321	52.34
1026.481	36.07
1026.64	10.88
1026.8	25.03
1026.959	19.41
1027.119	21.73
1027.278	11.85
1027.437	-2.29
1027.597	27.35
1027.756	25.99
1027.915	51.76
1028.074	37.81
1028.234	2.74
1028.393	10.3
1028.552	-7.33
1028.711	-41.62
1028.87	48.28
1029.03	9.14
1029.189	5.26
1029.348	-39.69
1029.507	25.61
1029.666	9.72
1029.825	-24.19
1029.984	2.74
1030.143	49.24
1030.302	-14.69
1030.461	-51.31
1030.62	32.78
1030.779	45.18
1030.938	21.54
1031.097	-8.49
1031.255	48.86
1031.414	73.27
1031.573	59.51
1031.732	-38.91
1031.891	13.79
1032.049	68.62
1032.208	36.07
1032.367	-9.46
1032.525	-0.36
1032.684	5.26
1032.843	32.78
1033.001	-41.04
1033.16	190.68
1033.319	63
1033.477	45.56
1033.636	3.33
1033.794	-11.59
1033.953	50.02
1034.111	46.53
1034.27	-1.91
1034.428	36.26
1034.587	-27.48
1034.745	43.82
1034.903	20.96
1035.062	40.72
1035.22	-38.33
1035.378	57.77
1035.537	9.33
1035.695	52.34
1035.853	-5.2
1036.011	49.83
1036.17	20.57
1036.328	-45.89
1036.486	46.73
1036.644	22.51
1036.802	-59.45
1036.96	-6.56
1037.119	6.23
1037.277	0.81
1037.435	-23.22
1037.593	-40.65
1037.751	33.16
1037.909	41.49
1038.067	41.49
