Data from gum_old_FLMT105791__37__15-42-59-259.txt Node

Date: Mon Mar 20 15:42:59 GMT 2023
User: antho
Spectrometer: FLMT10579
Trigger mode: 0
Integration Time (sec): 1.000000E-1
Scans to average: 10
Electric dark correction enabled: true
Nonlinearity correction enabled: false
Boxcar width: 0
XAxis mode: Wavelengths
Number of Pixels in Spectrum: 3648
>>>>>Begin Spectral Data<<<<<
345.248	-157.44
345.464	-157.44
345.681	-157.44
345.898	-169.25
346.114	-165.96
346.331	-39.25
346.548	27.59
346.764	-13.68
346.981	-9.99
347.197	-17.16
347.414	29.72
347.631	-6.7
347.847	62.47
348.064	-0.89
348.28	-2.05
348.497	-17.74
348.713	-12.32
348.93	32.63
349.146	59.56
349.363	24.3
349.579	30.89
349.796	0.08
350.012	30.89
350.229	39.22
350.445	53.75
350.661	6.86
350.878	49.1
351.094	65.18
351.311	62.08
351.527	47.36
351.743	-6.7
351.96	36.7
352.176	79.13
352.392	52.97
352.609	64.99
352.825	23.72
353.041	64.4
353.257	23.72
353.474	26.24
353.69	37.86
353.906	32.82
354.122	8.41
354.339	75.06
354.555	56.85
354.771	48.91
354.987	89.4
355.203	108.77
355.42	32.63
355.636	47.55
355.852	47.94
356.068	20.42
356.284	28.95
356.5	85.14
356.716	62.66
356.932	48.91
357.148	71.77
357.364	53.55
357.58	101.99
357.796	111.49
358.012	74.29
358.228	68.86
358.444	-5.93
358.66	106.84
358.876	51.23
359.092	22.56
359.308	46.19
359.524	75.06
359.74	45.03
359.956	33.41
360.172	46.19
360.388	96.18
360.604	64.4
360.819	128.54
361.035	82.23
361.251	60.14
361.467	39.99
361.683	106.06
361.898	68.47
362.114	76.22
362.33	80.29
362.546	88.62
362.762	68.09
362.977	83.2
363.193	20.62
363.409	102.38
363.624	39.02
363.84	55.3
364.056	30.5
364.271	72.35
364.487	68.67
364.703	54.33
364.918	57.24
365.134	72.54
365.35	44.26
365.565	184.33
365.781	98.5
365.996	110.52
366.212	156.82
366.427	106.45
366.643	72.74
366.858	83.97
367.074	82.81
367.289	139.58
367.505	193.83
367.72	49.1
367.936	83.97
368.151	111.49
368.367	143.45
368.582	105.29
368.798	64.6
369.013	143.84
369.228	92.11
369.444	120.01
369.659	146.17
369.874	117.49
370.09	165.15
370.305	11.71
370.52	108.19
370.736	166.7
370.951	115.55
371.166	142.48
371.381	171.55
371.597	120.98
371.812	53.55
372.027	68.09
372.242	90.56
372.458	169.8
372.673	68.09
372.888	96.37
373.103	130.09
373.318	187.63
373.533	139.97
373.749	82.23
373.964	65.18
374.179	124.47
374.394	83
374.609	147.52
374.824	71.19
375.039	148.88
375.254	57.04
375.469	147.33
375.684	95.79
375.899	149.46
376.114	94.05
376.329	141.9
376.544	138.61
376.759	128.34
376.974	98.7
377.189	121.75
377.404	112.45
377.619	157.02
377.834	91.72
378.049	98.31
378.264	96.76
378.478	172.32
378.693	127.57
378.908	145.39
379.123	141.52
379.338	171.93
379.553	150.62
379.767	164.77
379.982	164.96
380.197	152.56
380.412	137.64
380.626	155.27
380.841	230.06
381.056	167.87
381.271	210.88
381.485	144.81
381.7	109.94
381.915	158.37
382.129	111.68
382.344	142.87
382.559	131.25
382.773	188.21
382.988	51.04
383.202	127.18
383.417	80.49
383.632	216.5
383.846	102.19
384.061	139
384.275	80.1
384.49	160.89
384.704	165.54
384.919	166.32
385.133	154.3
385.348	190.73
385.562	112.45
385.777	187.63
385.991	132.8
386.206	160.89
386.42	143.26
386.634	187.43
386.849	201
387.063	161.28
387.277	140.74
387.492	138.22
387.706	135.32
387.92	140.93
388.135	171.74
388.349	186.47
388.563	154.5
388.778	204.29
388.992	184.53
389.206	180.07
389.42	261.06
389.635	171.93
389.849	217.08
390.063	254.66
390.277	216.69
390.491	278.69
390.706	230.45
390.92	227.54
391.134	216.5
391.348	236.45
391.562	185.88
391.776	247.88
391.99	219.21
392.205	275.2
392.419	197.7
392.633	212.62
392.847	275.78
393.061	191.12
393.275	248.08
393.489	148.1
393.703	141.52
393.917	174.07
394.131	141.71
394.345	181.62
394.559	206.42
394.773	190.92
394.986	262.22
395.2	231.8
395.414	282.37
395.628	234.9
395.842	275.4
396.056	276.56
396.27	202.93
396.484	273.26
396.697	240.52
396.911	256.41
397.125	222.7
397.339	179.49
397.553	194.02
397.766	269.39
397.98	268.42
398.194	306.4
398.408	275.98
398.621	337.98
398.835	341.27
399.049	345.53
399.262	363.36
399.476	406.56
399.69	360.84
399.903	442.79
400.117	365.88
400.331	405.98
400.544	364.52
400.758	488.71
400.971	383.89
401.185	429.62
401.398	325.19
401.612	463.14
401.826	419.54
402.039	438.14
402.253	364.33
402.466	466.04
402.68	397.46
402.893	449.19
403.106	397.65
403.32	438.14
403.533	451.51
403.747	429.62
403.96	429.62
404.174	454.03
404.387	410.63
404.6	424
404.814	476.31
405.027	428.07
405.24	410.05
405.454	413.15
405.667	478.64
405.88	405.01
406.094	461.97
406.307	476.12
406.52	456.55
406.733	395.52
406.947	389.9
407.16	494.14
407.373	462.36
407.586	436.01
407.799	443.18
408.012	486
408.226	474.37
408.439	510.6
408.652	463.91
408.865	504.79
409.078	561.17
409.291	509.83
409.504	483.09
409.717	512.35
409.93	544.9
410.143	471.66
410.357	431.17
410.57	416.64
410.783	448.41
410.996	467.59
411.209	504.99
411.421	558.65
411.634	532.69
411.847	515.84
412.06	526.88
412.273	549.55
412.486	548.97
412.699	648.36
412.912	558.85
413.125	569.31
413.338	547.22
413.55	556.72
413.763	535.4
413.976	559.82
414.189	512.35
414.402	549.94
414.615	645.84
414.827	536.57
415.04	610.19
415.253	579
415.466	615.81
415.678	640.22
415.891	588.3
416.104	560.59
416.316	564.66
416.529	562.72
416.742	616.58
416.954	653.59
417.167	610.58
417.38	591.59
417.592	628.21
417.805	541.22
418.017	522.81
418.23	605.54
418.442	543.54
418.655	574.93
418.868	575.7
419.08	630.73
419.293	628.21
419.505	595.85
419.718	581.52
419.93	652.04
420.142	589.27
420.355	627.63
420.567	646.81
420.78	636.15
420.992	609.61
421.205	674.71
421.417	596.24
421.629	620.27
421.842	636.54
422.054	591.59
422.266	676.84
422.479	678.2
422.691	608.25
422.903	619.49
423.115	573.19
423.328	566.79
423.54	582.48
423.752	606.12
423.964	615.23
424.177	622.01
424.389	626.66
424.601	714.04
424.813	663.86
425.025	693.7
425.238	665.21
425.45	640.61
425.662	615.62
425.874	961.07
426.086	641
426.298	659.79
426.51	669.48
426.722	643.71
426.934	634.02
427.146	665.6
427.358	637.12
427.57	699.12
427.782	606.12
427.994	636.35
428.206	609.42
428.418	614.65
428.63	703
428.842	690.6
429.054	692.53
429.266	668.12
429.478	634.41
429.69	681.68
429.902	580.16
430.114	645.65
430.325	632.67
430.537	574.93
430.749	561.17
430.961	504.99
431.173	528.82
431.384	534.82
431.596	491.62
431.808	594.5
432.02	672.38
432.231	750.66
432.443	788.44
432.655	771.58
432.867	727.21
433.078	747.56
433.29	788.24
433.502	772.94
433.713	830.09
433.925	809.56
434.136	808.01
434.348	721.21
434.56	655.33
434.771	812.27
434.983	669.86
435.194	745.04
435.406	779.33
435.617	855.09
435.829	890.16
436.04	857.99
436.252	834.16
436.463	874.85
436.675	902.17
436.886	928.71
437.098	893.45
437.309	930.07
437.521	897.32
437.732	897.32
437.943	857.61
438.155	861.09
438.366	800.64
438.578	906.82
438.789	820.99
439	845.98
439.211	791.73
439.423	828.93
439.634	834.55
439.845	881.82
440.057	872.33
440.268	928.9
440.479	888.8
440.69	908.37
440.902	874.66
441.113	899.26
441.324	862.26
441.535	942.08
441.746	977.34
441.957	923.09
442.168	948.67
442.38	999.82
442.591	1021.13
442.802	939.56
443.013	933.36
443.224	1016.48
443.435	956.61
443.646	981.6
443.857	964.55
444.068	958.94
444.279	939.56
444.49	1069.37
444.701	983.93
444.912	1118.2
445.123	1055.23
445.334	1004.85
445.545	1037.79
445.756	1031.59
445.967	980.44
446.178	974.63
446.388	1036.05
446.599	1012.22
446.81	990.52
447.021	965.33
447.232	1026.55
447.443	1086.81
447.653	1058.13
447.864	1098.63
448.075	1078.87
448.286	1102.31
448.496	1095.92
448.707	1113.35
448.918	1055.42
449.129	1124.01
449.339	1044.57
449.55	1078.87
449.761	1072.47
449.971	1112.19
450.182	1058.52
450.393	1129.24
450.603	1083.9
450.814	1155.59
451.024	1138.35
451.235	1216.04
451.446	1204.03
451.656	1232.12
451.867	1144.35
452.077	1153.46
452.288	1212.36
452.498	1197.05
452.709	1122.46
452.919	1124.59
453.13	1093.59
453.34	1131.56
453.55	1016.87
453.761	1131.37
453.971	1124.4
454.182	1121.68
454.392	1137.38
454.602	1232.12
454.813	1169.73
455.023	1146.87
455.233	1095.92
455.444	1167.8
455.654	1042.25
455.864	1135.05
456.075	1138.15
456.285	1157.14
456.495	1160.24
456.705	1172.45
456.916	1212.94
457.126	1277.26
457.336	1224.95
457.546	1125.56
457.756	1158.3
457.967	1237.16
458.177	1185.81
458.387	1187.17
458.597	1157.72
458.807	1218.94
459.017	1123.62
459.227	1163.73
459.437	1133.11
459.647	1222.82
459.857	1206.93
460.068	1178.06
460.278	1240.45
460.488	1196.66
460.698	1242.19
460.908	1195.69
461.117	1198.21
461.327	1215.84
461.537	1284.62
461.747	1234.64
461.957	1275.91
462.167	1375.88
462.377	1293.15
462.587	1261.18
462.797	1323.96
463.007	1279.78
463.216	1313.3
463.426	1390.22
463.636	1336.55
463.846	1196.08
464.056	1256.53
464.265	1316.4
464.475	1250.33
464.685	1261.76
464.895	1284.82
465.104	1235.99
465.314	1303.03
465.524	1236.77
465.733	1230.76
465.943	1375.3
466.153	1358.83
466.362	1363.29
466.572	1313.69
466.782	1289.86
466.991	1301.67
467.201	1348.17
467.41	1255.95
467.62	1315.04
467.829	1326.28
468.039	1360.19
468.249	1314.27
468.458	1364.64
468.668	1353.99
468.877	1394.67
469.086	1408.62
469.296	1474.3
469.505	1407.27
469.715	1462.48
469.924	1403.39
470.134	1434.2
470.343	1421.99
470.552	1394.48
470.762	1378.79
470.971	1360.96
471.18	1402.04
471.39	1429.94
471.599	1384.99
471.808	1433.04
472.018	1394.87
472.227	1526.23
472.436	1549.09
472.645	1538.43
472.855	1508.6
473.064	1618.26
473.273	1604.7
473.482	1552.58
473.691	1620.78
473.901	1561.49
474.11	1521.19
474.319	1667.08
474.528	1581.83
474.737	1692.08
474.946	1640.93
475.155	1668.24
475.364	1722.88
475.573	1707.58
475.783	1718.04
475.992	1703.12
476.201	1707.38
476.41	1698.08
476.619	1657.59
476.828	1683.94
477.037	1651.78
477.245	1673.86
477.454	1722.69
477.663	1704.86
477.872	1737.99
478.081	1847.85
478.29	1773.84
478.499	1916.05
478.708	1889.12
478.917	1900.16
479.125	1796.31
479.334	1848.82
479.543	1838.16
479.752	1893.38
479.961	1904.81
480.169	1949.57
480.378	1915.66
480.587	2054.19
480.796	1968.36
481.004	1973.4
481.213	1979.21
481.422	1975.33
481.63	2002.85
481.839	2046.83
482.048	2092.94
482.256	2053.41
482.465	2084.22
482.674	2069.69
482.882	2106.11
483.091	2171.41
483.299	2069.88
483.508	2155.32
483.716	2127.43
483.925	2127.43
484.134	2106.11
484.342	2066.39
484.551	2141.18
484.759	2093.13
484.967	2177.99
485.176	2159.01
485.384	2201.24
485.593	2173.54
485.801	2137.31
486.01	2072.79
486.218	1979.79
486.426	1852.11
486.635	1859.47
486.843	1819.56
487.051	1893.96
487.26	1896.48
487.468	1965.45
487.676	2017.38
487.885	2024.16
488.093	2106.11
488.301	2157.84
488.509	2197.76
488.717	2236.7
488.926	2251.62
489.134	2202.41
489.342	2233.79
489.55	2172.76
489.758	2250.26
489.967	2271.57
490.175	2364.38
490.383	2349.85
490.591	2475.59
490.799	2367.28
491.007	2402.55
491.215	2397.7
491.423	2359.34
491.631	2397.51
491.839	2366.7
492.047	2406.62
492.255	2289.2
492.463	2282.62
492.671	2266.92
492.879	2371.35
493.087	2308.39
493.295	2356.43
493.503	2402.55
493.711	2491.67
493.919	2477.14
494.127	2485.66
494.334	2512.79
494.542	2429.09
494.75	2501.94
494.958	2478.5
495.166	2594.94
495.374	2571.3
495.581	2573.43
495.789	2569.17
495.997	2615.09
496.205	2531.58
496.412	2576.53
496.62	2526.93
496.828	2582.15
497.035	2585.06
497.243	2612.76
497.451	2572.27
497.658	2598.42
497.866	2574.21
498.074	2676.31
498.281	2566.46
498.489	2663.52
498.696	2552.31
498.904	2509.69
499.112	2481.21
499.319	2621.48
499.527	2557.74
499.734	2657.52
499.942	2559.87
500.149	2580.02
500.357	2620.12
500.564	2527.32
500.771	2576.92
500.979	2500.58
501.186	2487.6
501.394	2586.8
501.601	2486.63
501.808	2538.36
502.016	2492.25
502.223	2503.49
502.43	2506.59
502.638	2555.03
502.845	2511.24
503.052	2635.62
503.26	2565.29
503.467	2641.82
503.674	2595.71
503.881	2643.76
504.089	2704.4
504.296	2620.32
504.503	2544.76
504.71	2556.19
504.917	2549.99
505.125	2619.54
505.332	2619.16
505.539	2667.79
505.746	2751.87
505.953	2721.26
506.16	2747.8
506.367	2777.25
506.574	2874.51
506.781	2815.81
506.988	2738.89
507.195	2790.82
507.402	2764.08
507.609	2722.62
507.816	2711.19
508.023	2722.23
508.23	2677.28
508.437	2606.17
508.644	2718.55
508.851	2738.7
509.058	2776.67
509.265	2781.71
509.472	2763.88
509.679	2880.71
509.885	2784.81
510.092	2794.3
510.299	2822.01
510.506	2776.67
510.713	2739.86
510.92	2798.76
511.126	2837.12
511.333	2871.22
511.54	2863.66
511.746	2882.65
511.953	2878.97
512.16	2938.84
512.367	2838.67
512.573	2848.16
512.78	2872.96
512.987	2812.13
513.193	2777.83
513.4	2744.12
513.606	2786.94
513.813	2818.33
514.02	2798.95
514.226	2853.01
514.433	2838.48
514.639	2747.22
514.846	2818.52
515.052	2769.5
515.259	2779.38
515.465	2808.25
515.672	2812.9
515.878	2862.89
516.085	2869.67
516.291	2897.57
516.497	2858.63
516.704	2802.83
516.91	2707.31
517.117	2597.65
517.323	2530.81
517.529	2534.49
517.736	2518.21
517.942	2563.94
518.148	2567.62
518.354	2666.62
518.561	2687.55
518.767	2630.59
518.973	2637.37
519.179	2720.49
519.386	2677.28
519.592	2663.72
519.798	2717.97
520.004	2882.85
520.21	2842.74
520.417	2894.08
520.623	2932.45
520.829	2920.43
521.035	2943.1
521.241	2892.92
521.447	2920.24
521.653	3073.49
521.859	2955.11
522.065	2968.68
522.271	3087.25
522.477	3024.28
522.683	3086.28
522.889	3018.66
523.095	3015.18
523.301	2985.53
523.507	2933.61
523.713	3004.33
523.919	2964.22
524.125	3065.55
524.331	3074.27
524.537	3141.3
524.742	3164.36
524.948	3188.58
525.154	3189.16
525.36	3209.5
525.566	3136.27
525.772	3188.39
525.977	3073.11
526.183	3158.74
526.389	3191.29
526.595	3069.04
526.8	3031.64
527.006	2944.84
527.212	2864.63
527.417	2847.78
527.623	2875.87
527.829	2927.21
528.034	3040.17
528.24	3013.24
528.446	3055.86
528.651	3171.14
528.857	3206.79
529.062	3208.92
529.268	3252.32
529.473	3284.48
529.679	3300.56
529.884	3388.14
530.09	3343.77
530.295	3255.03
530.501	3297.27
530.706	3289.52
530.912	3250.58
531.117	3316.06
531.323	3297.27
531.528	3428.24
531.733	3415.26
531.939	3302.89
532.144	3394.92
532.35	3356.36
532.555	3420.69
532.76	3285.84
532.966	3336.02
533.171	3265.11
533.376	3175.4
533.581	3186.84
533.787	3227.72
533.992	3313.35
534.197	3293.2
534.402	3293.2
534.607	3349.97
534.813	3439.68
535.018	3286.61
535.223	3378.64
535.428	3361.4
535.633	3410.23
535.838	3471.64
536.043	3452.08
536.249	3537.91
536.454	3411
536.659	3524.73
536.864	3450.72
537.069	3446.46
537.274	3401.7
537.479	3368.38
537.684	3428.05
537.889	3351.52
538.094	3491.41
538.299	3422.63
538.504	3398.02
538.708	3416.81
538.913	3521.63
539.118	3491.6
539.323	3486.37
539.528	3415.46
539.733	3426.69
539.938	3465.83
540.142	3433.67
540.347	3375.54
540.552	3307.35
540.757	3347.84
540.962	3340.09
541.166	3295.14
541.371	3282.93
541.576	3372.64
541.781	3244.38
541.985	3441.23
542.19	3393.56
542.395	3546.62
542.599	3521.44
542.804	3500.32
543.008	3535.19
543.213	3457.11
543.418	3438.13
543.622	3527.25
543.827	3400.93
544.031	3530.16
544.236	3542.75
544.44	3557.28
544.645	3604.17
544.849	3495.28
545.054	3525.89
545.258	3656.28
545.463	3594.67
545.667	3425.34
545.872	3574.52
546.076	3596.42
546.281	3563.09
546.485	3498.96
546.689	3540.23
546.894	3594.09
547.098	3528.99
547.302	3537.32
547.507	3498.96
547.711	3574.72
547.915	3579.56
548.119	3467.57
548.324	3471.64
548.528	3570.26
548.732	3482.88
548.936	3566.39
549.141	3543.33
549.345	3482.3
549.549	3493.34
549.753	3557.09
549.957	3607.07
550.161	3612.89
550.366	3544.49
550.57	3476.1
550.774	3517.17
550.978	3519.31
551.182	3516.98
551.386	3525.51
551.59	3538.49
551.794	3505.94
551.998	3561.35
552.202	3537.91
552.406	3488.31
552.61	3613.47
552.814	3600.68
553.018	3579.37
553.222	3503.22
553.426	3529.19
553.63	3594.29
553.833	3543.91
554.037	3433.09
554.241	3489.66
554.445	3550.69
554.649	3586.15
554.853	3496.64
555.056	3594.09
555.26	3580.92
555.464	3575.49
555.668	3605.52
555.871	3590.41
556.075	3611.34
556.279	3538.1
556.483	3476.87
556.686	3491.21
556.89	3529.96
557.094	3505.55
557.297	3446.84
557.501	3497.61
557.704	3367.99
557.908	3490.44
558.112	3434.64
558.315	3496.06
558.519	3430.96
558.722	3397.24
558.926	3380.78
559.129	3312
559.333	3307.35
559.536	3340.28
559.74	3281.97
559.943	3292.04
560.147	3271.89
560.35	3309.09
560.553	3319.94
560.757	3268.6
560.96	3403.06
561.164	3330.98
561.367	3459.63
561.57	3393.76
561.774	3393.95
561.977	3308.31
562.18	3340.67
562.384	3443.55
562.587	3331.95
562.79	3323.43
562.993	3324.59
563.197	3336.21
563.4	3380.78
563.603	3392.59
563.806	3438.71
564.009	3295.91
564.212	3333.5
564.416	3233.53
564.619	3297.08
564.822	3219
565.025	3337.18
565.228	3237.02
565.431	3311.41
565.634	3159.13
565.837	3220.93
566.04	3175.99
566.243	3180.83
566.446	3093.64
566.649	3206.98
566.852	3092.29
567.055	3118.25
567.258	3180.83
567.461	3255.03
567.664	3181.41
567.867	3134.91
568.07	3132.39
568.273	3144.4
568.475	3229.85
568.678	3120.77
568.881	3107.59
569.084	3091.9
569.287	2994.83
569.489	3045.98
569.692	3100.81
569.895	3096.36
570.098	3035.13
570.3	2997.16
570.503	2947.94
570.706	2995.03
570.909	2951.43
571.111	2917.91
571.314	2885.17
571.516	2975.46
571.719	2944.07
571.922	2924.11
572.124	2917.14
572.327	3002.58
572.529	2932.45
572.732	2933.22
572.935	3022.54
573.137	3046.56
573.34	2986.5
573.542	3014.01
573.745	3044.62
573.947	3002
574.15	2997.74
574.352	3001.61
574.554	3061.67
574.757	2929.35
574.959	2941.94
575.162	2966.16
575.364	2914.81
575.566	3030.87
575.769	2930.9
575.971	2955.5
576.173	2826.66
576.376	2877.42
576.578	2940.97
576.78	2968.68
576.982	2811.55
577.185	2908.42
577.387	2849.91
577.589	2841
577.791	2915.78
577.993	2961.7
578.196	2904.35
578.398	2897.38
578.6	2853.59
578.802	2829.95
579.004	2791.98
579.206	2803.41
579.408	2887.69
579.61	2806.9
579.812	2894.47
580.014	2834.02
580.216	2808.64
580.418	2851.26
580.62	2850.88
580.822	2840.42
581.024	2878.97
581.226	2907.26
581.428	2868.7
581.63	2941.55
581.832	2801.86
582.034	2918.69
582.236	2793.14
582.438	2901.06
582.64	2915.78
582.841	2921.6
583.043	2968.68
583.245	2898.54
583.447	2901.25
583.649	2886.72
583.85	2864.05
584.052	2875.1
584.254	2842.35
584.456	2880.13
584.657	2831.7
584.859	2908.03
585.061	2782.1
585.262	2811.35
585.464	2730.17
585.666	2828.21
585.867	2774.15
586.069	2809.22
586.27	2796.24
586.472	2785.78
586.674	2724.55
586.875	2762.53
587.077	2744.9
587.278	2769.7
587.48	2755.75
587.681	2862.31
587.883	2818.52
588.084	2714.29
588.285	2767.95
588.487	2698.01
588.688	2715.45
588.89	2627.87
589.091	2575.37
589.292	2586.8
589.494	2515.31
589.695	2415.91
589.896	2391.31
590.098	2393.63
590.299	2463.77
590.5	2453.7
590.702	2471.33
590.903	2515.69
591.104	2586.41
591.305	2608.31
591.507	2658.87
591.708	2689.1
591.909	2599.2
592.11	2694.33
592.311	2671.86
592.512	2634.27
592.714	2565.88
592.915	2613.73
593.116	2605.21
593.317	2672.44
593.518	2648.8
593.719	2621.87
593.92	2646.09
594.121	2657.32
594.322	2627.49
594.523	2623.81
594.724	2594.55
594.925	2644.34
595.126	2614.31
595.327	2613.73
595.528	2676.7
595.729	2630.59
595.929	2595.71
596.13	2625.36
596.331	2680.96
596.532	2631.36
596.733	2732.11
596.934	2673.6
597.135	2661.2
597.335	2624.58
597.536	2564.13
597.737	2651.32
597.938	2586.8
598.138	2605.59
598.339	2628.07
598.54	2672.24
598.74	2594.94
598.941	2605.4
599.142	2674.18
599.342	2623.61
599.543	2565.1
599.744	2589.12
599.944	2606.17
600.145	2625.36
600.345	2563.16
600.546	2641.05
600.746	2613.34
600.947	2708.67
601.147	2610.44
601.348	2672.24
601.548	2586.99
601.749	2586.8
601.949	2548.05
602.15	2536.43
602.35	2507.36
602.551	2611.41
602.751	2549.79
602.951	2553.48
603.152	2464.74
603.352	2609.66
603.552	2593.97
603.753	2588.93
603.953	2595.52
604.153	2606.17
604.354	2612.96
604.554	2601.14
604.754	2618.38
604.954	2556.38
605.155	2644.34
605.355	2576.34
605.555	2642.41
605.755	2642.79
605.955	2609.86
606.155	2597.07
606.356	2563.94
606.556	2584.48
606.756	2619.93
606.956	2528.68
607.156	2688.32
607.356	2542.04
607.556	2566.26
607.756	2572.85
607.956	2606.95
608.156	2596.1
608.356	2498.45
608.556	2603.46
608.756	2529.64
608.956	2514.34
609.156	2546.11
609.356	2512.98
609.556	2454.28
609.755	2523.25
609.955	2462.22
610.155	2473.46
610.355	2502.71
610.555	2488.96
610.755	2434.51
610.954	2396.54
611.154	2478.11
611.354	2514.53
611.554	2423.86
611.753	2471.52
611.953	2420.37
612.153	2454.08
612.352	2450.79
612.552	2359.15
612.752	2370
612.951	2453.7
613.151	2412.81
613.351	2365.73
613.55	2427.35
613.75	2419.98
613.949	2366.9
614.149	2397.9
614.348	2354.88
614.548	2338.42
614.747	2299.09
614.947	2368.45
615.146	2273.7
615.346	2423.08
615.545	2372.71
615.745	2337.64
615.944	2357.79
616.144	2314.59
616.343	2356.05
616.542	2294.05
616.742	2266.73
616.941	2299.47
617.14	2207.64
617.34	2324.47
617.539	2300.83
617.738	2247.55
617.938	2372.71
618.137	2314.78
618.336	2282.04
618.535	2331.63
618.734	2332.41
618.934	2307.03
619.133	2291.72
619.332	2293.66
619.531	2240.57
619.73	2305.29
619.929	2390.15
620.128	2349.46
620.328	2388.4
620.527	2273.12
620.726	2320.59
620.925	2360.5
621.124	2344.23
621.323	2308.39
621.522	2218.87
621.721	2285.14
621.92	2246.97
622.119	2317.69
622.318	2246.19
622.517	2246.77
622.715	2278.94
622.914	2218.1
623.113	2303.54
623.312	2193.11
623.511	2248.32
623.71	2224.3
623.909	2189.62
624.107	2315.75
624.306	2203.37
624.505	2177.41
624.704	2189.23
624.902	2174.7
625.101	2275.25
625.3	2196.79
625.499	2164.82
625.697	2188.84
625.896	2150.87
626.095	2186.52
626.293	2091.58
626.492	2125.1
626.69	2181.48
626.889	2133.04
627.088	2218.87
627.286	2157.07
627.485	2152.03
627.683	2117.16
627.882	2182.06
628.08	2083.83
628.279	2138.66
628.477	2152.22
628.676	2072.4
628.874	2105.14
629.073	2110.96
629.271	2094.1
629.469	2107.86
629.668	2077.24
629.866	2057.48
630.065	2055.74
630.263	2082.67
630.461	2023.19
630.66	2119.29
630.858	2092.36
631.056	2141.38
631.254	2133.24
631.453	2050.7
631.651	2127.04
631.849	2076.66
632.047	2094.29
632.245	2043.92
632.444	2070.85
632.642	2047.41
632.84	2104.18
633.038	2094.68
633.236	2010.21
633.434	2037.33
633.632	2034.04
633.83	2012.34
634.028	2125.88
634.227	2029.2
634.425	2156.29
634.623	2027.45
634.821	2094.29
635.019	2056.51
635.216	2056.9
635.414	2076.28
635.612	2069.3
635.81	2075.69
636.008	2103.01
636.206	2035.98
636.404	2102.04
636.602	2001.68
636.8	2032.1
636.997	2066.2
637.195	2081.51
637.393	2031.13
637.591	2126.26
637.789	2064.46
637.986	2056.32
638.184	2050.51
638.382	2093.91
638.58	2081.51
638.777	2089.26
638.975	2053.8
639.173	2035.59
639.37	2055.55
639.568	2033.26
639.765	2043.92
639.963	2022.8
640.161	2028.81
640.358	2027.45
640.556	1956.93
640.753	1934.07
640.951	1953.25
641.148	2035.59
641.346	1983.86
641.543	1970.88
641.741	1990.83
641.938	1925.54
642.136	1952.28
642.333	1908.49
642.531	2031.91
642.728	2028.23
642.925	1984.05
643.123	1932.9
643.32	1986.57
643.517	1944.33
643.715	1971.27
643.912	1939.49
644.109	1959.06
644.306	1954.41
644.504	1931.93
644.701	1981.53
644.898	1975.91
645.095	1934.26
645.293	1966.81
645.49	2004.59
645.687	1984.63
645.884	1949.76
646.081	1857.54
646.278	1913.33
646.475	1887.57
646.672	1896.67
646.87	1914.11
647.067	1898.03
647.264	1935.23
647.461	1834.67
647.658	1817.24
647.855	1864.9
648.052	1819.37
648.249	1774.61
648.446	1852.69
648.642	1830.8
648.839	1794.37
649.036	1787.21
649.233	1811.81
649.43	1814.33
649.627	1767.83
649.824	1765.51
650.021	1769.77
650.217	1782.17
650.414	1788.95
650.611	1847.27
650.808	1835.84
651.004	1842.23
651.201	1857.73
651.398	1935.23
651.595	1856.76
651.791	1824.02
651.988	1862.96
652.185	1797.09
652.381	1846.3
652.578	1779.46
652.775	1822.66
652.971	1821.5
653.168	1822.08
653.364	1853.08
653.561	1759.69
653.757	1815.3
653.954	1850.75
654.15	1823.05
654.347	1892.6
654.543	1805.42
654.74	1755.24
654.936	1780.62
655.133	1802.51
655.329	1773.45
655.525	1745.74
655.722	1759.5
655.918	1713.39
656.115	1701.57
656.311	1606.05
656.507	1509.76
656.704	1490.19
656.9	1551.41
657.096	1531.46
657.292	1534.95
657.489	1603.15
657.685	1635.11
657.881	1625.04
658.077	1638.21
658.273	1665.92
658.47	1742.84
658.666	1673.09
658.862	1728.69
659.058	1691.11
659.254	1738.77
659.45	1716.49
659.646	1732.57
659.842	1746.13
660.038	1764.34
660.234	1746.91
660.43	1713.97
660.626	1822.47
660.822	1752.91
661.018	1781.2
661.214	1752.72
661.41	1708.16
661.606	1797.09
661.802	1838.55
661.998	1750.59
662.194	1746.32
662.39	1785.07
662.586	1738.96
662.781	1760.08
662.977	1761.63
663.173	1750.01
663.369	1732.76
663.564	1742.84
663.76	1738.19
663.956	1744.97
664.152	1728.31
664.347	1683.16
664.543	1693.82
664.739	1710.09
664.934	1669.41
665.13	1637.44
665.326	1702.54
665.521	1700.79
665.717	1644.8
665.912	1666.69
666.108	1605.66
666.304	1687.04
666.499	1656.23
666.695	1591.13
666.89	1655.84
667.086	1693.63
667.281	1702.15
667.477	1741.29
667.672	1675.03
667.867	1673.09
668.063	1675.8
668.258	1626.98
668.454	1655.26
668.649	1723.27
668.844	1669.02
669.04	1675.61
669.235	1652.55
669.43	1644.8
669.626	1621.94
669.821	1612.45
670.016	1613.61
670.211	1680.45
670.407	1591.71
670.602	1620.97
670.797	1601.21
670.992	1688.98
671.187	1624.65
671.382	1697.5
671.578	1584.35
671.773	1636.28
671.968	1542.7
672.163	1637.24
672.358	1650.42
672.553	1594.23
672.748	1584.16
672.943	1690.14
673.138	1601.79
673.333	1649.45
673.528	1557.23
673.723	1644.03
673.918	1609.15
674.113	1566.53
674.308	1695.18
674.503	1625.62
674.698	1660.3
674.892	1615.16
675.087	1653.71
675.282	1629.88
675.477	1583.96
675.672	1645.19
675.867	1637.63
676.061	1556.26
676.256	1528.94
676.451	1594.04
676.646	1615.74
676.84	1551.61
677.035	1550.83
677.23	1568.85
677.424	1601.4
677.619	1608.76
677.814	1644.99
678.008	1652.74
678.203	1513.25
678.397	1592.3
678.592	1588.81
678.787	1658.36
678.981	1581.06
679.176	1612.25
679.37	1602.95
679.565	1583.96
679.759	1552.96
679.954	1585.71
680.148	1647.71
680.342	1643.64
680.537	1596.17
680.731	1577.76
680.926	1575.83
681.12	1602.18
681.314	1571.56
681.509	1580.67
681.703	1567.3
681.897	1590.55
682.092	1573.11
682.286	1540.56
682.48	1610.7
682.674	1595.01
682.869	1578.35
683.063	1586.68
683.257	1612.83
683.451	1547.93
683.645	1560.52
683.839	1566.53
684.034	1543.86
684.228	1592.1
684.422	1491.74
684.616	1513.25
684.81	1557.81
685.004	1534.37
685.198	1547.35
685.392	1527
685.586	1467.52
685.78	1561.88
685.974	1530.3
686.168	1524.48
686.362	1596.36
686.556	1451.25
686.75	1392.35
686.944	1402.62
687.138	1357.28
687.331	1230.38
687.525	1259.83
687.719	1222.43
687.913	1249.17
688.107	1256.14
688.301	1251.11
688.494	1273.19
688.688	1220.69
688.882	1213.71
689.076	1191.43
689.269	1237.35
689.463	1328.41
689.657	1247.62
689.85	1287.92
690.044	1311.94
690.238	1322.41
690.431	1285.01
690.625	1277.26
690.818	1311.75
691.012	1351.27
691.205	1365.22
691.399	1311.56
691.593	1330.35
691.786	1394.48
691.98	1377.24
692.173	1410.37
692.366	1385.18
692.56	1428.39
692.753	1480.31
692.947	1392.93
693.14	1416.57
693.333	1442.72
693.527	1365.61
693.72	1447.37
693.914	1393.51
694.107	1353.79
694.3	1399.52
694.493	1361.35
694.687	1457.25
694.88	1364.25
695.073	1460.74
695.266	1451.63
695.46	1380.34
695.653	1452.6
695.846	1459.77
696.039	1382.85
696.232	1390.99
696.425	1466.17
696.618	1488.45
696.812	1465.2
697.005	1521.58
697.198	1610.51
697.391	1514.22
697.584	1554.71
697.777	1596.75
697.97	1544.05
698.163	1576.8
698.356	1583.96
698.549	1673.48
698.742	1643.06
698.935	1569.82
699.127	1591.13
699.32	1542.89
699.513	1542.89
699.706	1611.09
699.899	1610.12
700.092	1557.42
700.285	1595.2
700.477	1556.65
700.67	1631.63
700.863	1639.76
701.056	1719.2
701.248	1701.18
701.441	1688.39
701.634	1655.65
701.826	1756.79
702.019	1647.9
702.212	1748.46
702.404	1707.77
702.597	1675.99
702.79	1712.03
702.982	1741.09
703.175	1752.14
703.367	1815.69
703.56	1793.99
703.752	1905.2
703.945	1819.56
704.137	1830.02
704.33	1859.47
704.522	1894.54
704.715	1887.18
704.907	1918.76
705.1	1944.14
705.292	1981.92
705.484	1961.38
705.677	2012.92
705.869	2008.46
706.061	2052.06
706.254	2072.59
706.446	2012.92
706.638	2032.68
706.831	2105.14
707.023	2066.2
707.215	2173.54
707.407	2178.77
707.599	2132.27
707.792	2189.62
707.984	2209.19
708.176	2256.85
708.368	2191.36
708.56	2254.14
708.752	2246.19
708.944	2214.81
709.136	2264.6
709.329	2297.54
709.521	2403.13
709.713	2342.87
709.905	2367.87
710.097	2353.14
710.289	2345.97
710.481	2389.37
710.672	2439.94
710.864	2401.77
711.056	2463.77
711.248	2490.7
711.44	2494.96
711.632	2476.95
711.824	2553.86
712.016	2501.55
712.207	2543.4
712.399	2599.59
712.591	2669.72
712.783	2609.86
712.975	2639.5
713.166	2560.06
713.358	2667.21
713.55	2708.86
713.741	2647.83
713.933	2685.42
714.125	2745.67
714.316	2693.55
714.508	2733.85
714.7	2779
714.891	2754.78
715.083	2834.22
715.274	2809.42
715.466	2821.43
715.657	2851.85
715.849	2774.54
716.04	2829.95
716.232	2786.17
716.423	2848.36
716.615	2794.69
716.806	2737.73
716.998	2722.04
717.189	2640.86
717.381	2537.39
717.572	2527.32
717.763	2554.44
717.955	2522.86
718.146	2499.42
718.337	2442.85
718.528	2433.55
718.72	2347.91
718.911	2418.43
719.102	2339.77
719.293	2416.5
719.485	2424.44
719.676	2413.78
719.867	2382.98
720.058	2386.66
720.249	2397.12
720.44	2417.85
720.632	2489.93
720.823	2506.39
721.014	2662.17
721.205	2669.53
721.396	2765.63
721.587	2880.71
721.778	2907.26
721.969	2974.1
722.16	3058.38
722.351	3050.05
722.542	3179.47
722.733	3224.62
722.924	3128.32
723.115	3208.92
723.305	3142.66
723.496	3191.49
723.687	3062.26
723.878	3051.99
724.069	3051.41
724.26	3066.52
724.45	3007.81
724.641	3036.49
724.832	3055.28
725.023	3044.62
725.213	3063.03
725.404	3014.21
725.595	3012.08
725.785	3043.07
725.976	3098.29
726.167	3069.04
726.357	3105.27
726.548	3213.77
726.739	3120.19
726.929	3251.93
727.12	3253.48
727.31	3299.21
727.501	3233.92
727.691	3247.67
727.882	3232.37
728.072	3322.46
728.263	3299.79
728.453	3381.36
728.644	3381.36
728.834	3372.25
729.024	3325.56
729.215	3344.16
729.405	3389.3
729.596	3447.23
729.786	3445.29
729.976	3508.65
730.167	3487.92
730.357	3455.76
730.547	3495.09
730.737	3542.56
730.928	3581.3
731.118	3639.62
731.308	3566.39
731.498	3619.67
731.688	3682.63
731.879	3749.09
732.069	3769.05
732.259	3785.32
732.449	3836.08
732.639	3911.64
732.829	3919.59
733.019	3957.17
733.209	4054.44
733.399	4041.26
733.589	4093.18
733.779	4120.7
733.969	4135.03
734.159	4269.11
734.349	4272.98
734.539	4338.86
734.729	4325.29
734.919	4334.21
735.109	4467.89
735.299	4338.08
735.488	4346.41
735.678	4381.87
735.868	4371.02
736.058	4390.59
736.248	4408.02
736.437	4314.44
736.627	4340.21
736.817	4486.49
737.007	4401.05
737.196	4502.96
737.386	4480.1
737.576	4407.44
737.765	4501.6
737.955	4507.42
738.144	4678.3
738.334	4579.1
738.524	4498.89
738.713	4589.18
738.903	4543.07
739.092	4565.15
739.282	4581.82
739.471	4610.49
739.661	4590.92
739.85	4621.73
740.04	4648.08
740.229	4630.25
740.419	4708.33
740.608	4667.06
740.797	4675.98
740.987	4754.83
741.176	4745.92
741.365	4700.78
741.555	4626.57
741.744	4801.72
741.933	4741.66
742.123	4754.83
742.312	4825.55
742.501	4830.59
742.69	4834.85
742.88	4737.2
743.069	4868.56
743.258	4835.24
743.447	4905.76
743.636	4864.69
743.825	4889.29
744.014	4875.92
744.204	4880.96
744.393	4817.61
744.582	4901.3
744.771	4960.01
744.96	4961.56
745.149	4921.65
745.338	4895.88
745.527	5009.22
745.716	4947.61
745.905	4935.21
746.094	4998.57
746.283	5044.48
746.471	4962.14
746.66	5021.82
746.849	4980.74
747.038	5005.35
747.227	4965.05
747.416	5002.25
747.604	4964.66
747.793	4978.22
747.982	4994.69
748.171	5041.77
748.359	5033.63
748.548	5036.35
748.737	5026.47
748.926	4989.85
749.114	4824.19
749.303	4964.08
749.491	4995.08
749.68	4913.9
749.869	4955.75
750.057	4924.17
750.246	4929.2
750.434	4972.41
750.623	4966.02
750.811	4917.39
751	4982.29
751.188	4886.19
751.377	4886.97
751.565	4880.38
751.754	4906.15
751.942	4842.21
752.131	4928.04
752.319	4889.87
752.507	4824
752.696	4918.35
752.884	4936.57
753.072	4877.09
753.261	4898.59
753.449	4913.12
753.637	4842.79
753.825	4955.55
754.014	4893.94
754.202	4898.4
754.39	4994.3
754.578	4921.26
754.766	4846.09
754.955	4831.94
755.143	4892
755.331	4805.01
755.519	4884.64
755.707	4820.51
755.895	4810.63
756.083	4824.19
756.271	4785.25
756.459	4818.57
756.647	4845.31
756.835	4773.62
757.023	4820.71
757.211	4747.28
757.399	4703.88
757.587	4813.34
757.775	4693.61
757.963	4713.95
758.151	4752.12
758.339	4709.88
758.526	4712.79
758.714	4715.69
758.902	4629.48
759.09	4529.89
759.278	4301.85
759.465	4030.41
759.653	3644.85
759.841	3308.31
760.028	2984.76
760.216	2597.46
760.404	2463.77
760.591	2127.62
760.779	1830.41
760.967	1660.11
761.154	1482.44
761.342	1531.85
761.529	1534.95
761.717	1603.92
761.905	1606.83
762.092	1773.26
762.28	1721.33
762.467	1752.33
762.655	1693.43
762.842	1729.86
763.029	1761.82
763.217	1824.02
763.404	1800.38
763.592	1864.7
763.779	1837.19
763.966	1897.64
764.154	1926.12
764.341	1970.49
764.528	2011.37
764.716	2104.18
764.903	2204.34
765.09	2247.94
765.277	2284.75
765.465	2489.54
765.652	2562.58
765.839	2655.39
766.026	2799.92
766.213	2834.22
766.4	2916.36
766.588	3153.7
766.775	3210.08
766.962	3278.67
767.149	3365.66
767.336	3529.77
767.523	3506.52
767.71	3607.85
767.897	3733.59
768.084	3804.5
768.271	3866.31
768.458	3915.71
768.645	4018.59
768.832	3922.11
769.019	4032.93
769.206	4017.82
769.392	4110.62
769.579	4159.45
769.766	4178.82
769.953	4147.24
770.14	4210.6
770.327	4194.32
770.513	4247.21
770.7	4328.78
770.887	4206.33
771.073	4290.03
771.26	4258.26
771.447	4184.25
771.634	4159.06
771.82	4287.71
772.007	4178.82
772.193	4242.37
772.38	4235.01
772.567	4207.11
772.753	4168.16
772.94	4236.95
773.126	4274.34
773.313	4295.46
773.499	4190.25
773.686	4227.06
773.872	4156.93
774.059	4189.48
774.245	4144.33
774.432	4156.35
774.618	4081.56
774.804	4153.63
774.991	4110.23
775.177	4189.86
775.363	4143.95
775.55	4139.3
775.736	4085.82
775.922	4138.52
776.109	4090.47
776.295	4112.17
776.481	4142.78
776.667	4142.78
776.853	4112.37
777.04	4049.4
777.226	4077.49
777.412	4139.49
777.598	4032.15
777.784	4043.59
777.97	4036.42
778.156	4048.24
778.342	4068.58
778.528	3984.49
778.715	3941.48
778.901	3953.69
779.087	4007.94
779.272	3981.78
779.458	3952.52
779.644	3971.12
779.83	3967.44
780.016	4028.09
780.202	3973.06
780.388	3954.85
780.574	3848.68
780.76	3884.33
780.946	3960.47
781.131	3907.57
781.317	3889.17
781.503	3859.14
781.689	3913.58
781.874	4020.53
782.06	3835.89
782.246	3908.54
782.432	3885.29
782.617	3888.59
782.803	3906.99
782.989	3776.41
783.174	3795.78
783.36	3764.98
783.545	3809.54
783.731	3776.6
783.916	3665.39
784.102	3752.58
784.288	3709.95
784.473	3786.1
784.659	3675.85
784.844	3789
785.029	3731.46
785.215	3655.32
785.4	3696.2
785.586	3781.45
785.771	3615.21
785.956	3721.19
786.142	3647.57
786.327	3669.65
786.512	3628.58
786.698	3604.17
786.883	3574.72
787.068	3597.58
787.254	3627.22
787.439	3599.32
787.624	3636.52
787.809	3578.4
787.994	3506.91
788.18	3627.42
788.365	3505.74
788.55	3531.51
788.735	3561.93
788.92	3508.46
789.105	3492.18
789.29	3587.12
789.475	3443.55
789.66	3487.14
789.845	3456.34
790.03	3428.44
790.215	3468.74
790.4	3493.54
790.585	3515.43
790.77	3401.12
790.955	3381.36
791.14	3444.91
791.325	3502.45
791.51	3343.19
791.695	3386.2
791.879	3419.72
792.064	3315.29
792.249	3492.37
792.434	3408.68
792.618	3350.16
792.803	3482.88
792.988	3369.73
793.173	3397.05
793.357	3426.31
793.542	3315.68
793.727	3367.41
793.911	3439.29
794.096	3348.03
794.281	3367.6
794.465	3516.98
794.65	3380.78
794.834	3416.81
795.019	3447.81
795.203	3451.88
795.388	3438.9
795.572	3471.06
795.757	3473
795.941	3440.45
796.126	3411.19
796.31	3409.64
796.494	3411
796.679	3392.98
796.863	3379.61
797.048	3466.41
797.232	3403.44
797.416	3411.97
797.601	3442
797.785	3503.61
797.969	3492.76
798.153	3384.26
798.338	3473
798.522	3448.59
798.706	3515.62
798.89	3515.04
799.074	3595.45
799.258	3548.95
799.443	3471.64
799.627	3483.66
799.811	3530.35
799.995	3445.68
800.179	3460.21
800.363	3447.81
800.547	3482.88
800.731	3537.13
800.915	3430.38
801.099	3423.59
801.283	3440.26
801.467	3417.98
801.651	3434.83
801.835	3489.66
802.019	3481.52
802.202	3461.18
802.386	3365.08
802.57	3394.53
802.754	3444.52
802.938	3379.61
803.121	3392.59
803.305	3513.11
803.489	3423.59
803.673	3441.61
803.856	3437.54
804.04	3419.72
804.224	3465.25
804.407	3376.32
804.591	3422.43
804.775	3442
804.958	3408.87
805.142	3551.47
805.326	3411.97
805.509	3408.87
805.693	3424.76
805.876	3453.63
806.06	3475.91
806.243	3470.09
806.427	3438.51
806.61	3498.57
806.794	3421.66
806.977	3489.66
807.16	3458.08
807.344	3443.74
807.527	3428.44
807.71	3402.09
807.894	3386.78
808.077	3467.38
808.26	3371.28
808.444	3372.44
808.627	3440.64
808.81	3413.52
808.993	3371.67
809.177	3317.81
809.36	3330.01
809.543	3331.76
809.726	3272.86
809.909	3266.47
810.092	3251.93
810.276	3260.46
810.459	3235.66
810.642	3235.85
810.825	3172.11
811.008	3191.87
811.191	3121.15
811.374	3148.47
811.557	3130.65
811.74	3221.13
811.923	3092.29
812.106	3056.83
812.289	3053.34
812.472	3093.45
812.654	3042.3
812.837	3058.19
813.02	2951.63
813.203	2948.53
813.386	2827.43
813.569	2822.2
813.751	2767.18
813.934	2788.49
814.117	2740.44
814.3	2709.83
814.482	2662.36
814.665	2632.91
814.848	2561.81
815.03	2519.18
815.213	2487.02
815.396	2497.1
815.578	2457.96
815.761	2449.05
815.943	2473.85
816.126	2330.28
816.309	2338.61
816.491	2277
816.674	2250.07
816.856	2298.12
817.039	2259.56
817.221	2316.14
817.403	2276.8
817.586	2263.05
817.768	2303.35
817.951	2217.91
818.133	2221.59
818.315	2251.04
818.498	2275.64
818.68	2345
818.862	2313.04
819.045	2350.43
819.227	2298.5
819.409	2268.47
819.591	2270.02
819.774	2275.45
819.956	2249.87
820.138	2327.95
820.32	2299.86
820.502	2392.86
820.684	2438.58
820.866	2437.61
821.048	2508.72
821.231	2472.88
821.413	2479.27
821.595	2495.93
821.777	2488.57
821.959	2502.13
822.141	2578.86
822.323	2420.76
822.505	2347.91
822.686	2268.67
822.868	2213.84
823.05	2117.35
823.232	2048.38
823.414	1972.04
823.596	2022.22
823.778	2001.3
823.96	2053.03
824.141	2081.89
824.323	2102.63
824.505	2163.85
824.687	2242.32
824.868	2277.19
825.05	2375.03
825.232	2429.09
825.413	2491.48
825.595	2433.55
825.777	2373.68
825.958	2413.78
826.14	2385.11
826.321	2452.92
826.503	2361.08
826.685	2436.45
826.866	2459.9
827.048	2462.61
827.229	2389.18
827.411	2370
827.592	2311.29
827.773	2298.89
827.955	2225.07
828.136	2268.09
828.318	2197.76
828.499	2240.57
828.68	2157.65
828.862	2202.02
829.043	2252.2
829.224	2166.17
829.406	2169.27
829.587	2146.8
829.768	2170.05
829.949	2217.13
830.131	2180.9
830.312	2237.28
830.493	2188.65
830.674	2194.27
830.855	2166.56
831.036	2192.91
831.218	2196.01
831.399	2255.3
831.58	2208.61
831.761	2166.95
831.942	2204.15
832.123	2190.78
832.304	2108.44
832.485	2142.54
832.666	2160.36
832.847	2194.85
833.028	2159.59
833.209	2182.06
833.389	2195.04
833.57	2131.69
833.751	2103.4
833.932	2188.46
834.113	2192.52
834.294	2112.89
834.475	2174.89
834.655	2190.01
834.836	2236.89
835.017	2171.21
835.198	2146.61
835.378	2179.35
835.559	2233.02
835.74	2157.26
835.92	2185.55
836.101	2131.3
836.281	2232.82
836.462	2209.57
836.643	2216.36
836.823	2274.67
837.004	2241.35
837.184	2285.52
837.365	2239.6
837.545	2256.46
837.726	2233.21
837.906	2289.4
838.087	2229.72
838.267	2204.34
838.448	2226.24
838.628	2216.36
838.808	2251.04
838.989	2270.99
839.169	2187.1
839.349	2277.58
839.53	2260.14
839.71	2260.53
839.89	2186.32
840.07	2272.54
840.251	2215.77
840.431	2252.59
840.611	2209.38
840.791	2159.2
840.971	2219.65
841.151	2216.74
841.332	2158.62
841.512	2285.52
841.692	2146.8
841.872	2214.03
842.052	2166.56
842.232	2207.83
842.412	2126.65
842.592	2176.83
842.772	2182.64
842.952	2186.13
843.132	2172.96
843.312	2161.33
843.492	2120.06
843.672	2175.67
843.851	2070.27
844.031	2130.53
844.211	2140.41
844.391	2121.23
844.571	2136.73
844.751	2158.42
844.93	2101.85
845.11	2082.48
845.29	2103.98
845.47	2139.44
845.649	2128.39
845.829	2128.59
846.009	2077.05
846.188	2150.09
846.368	2127.23
846.547	2110.57
846.727	2119.68
846.907	2051.67
847.086	2069.69
847.266	2140.21
847.445	2110.18
847.625	2049.93
847.804	2066.98
847.984	2115.03
848.163	2075.89
848.343	2057.87
848.522	2064.26
848.701	2057.48
848.881	2004.98
849.06	2055.35
849.239	2027.26
849.419	2071.63
849.598	1959.83
849.777	1939.3
849.957	1907.72
850.136	1880.2
850.315	1867.61
850.494	1861.02
850.674	1875.75
850.853	1917.4
851.032	1880.01
851.211	1959.64
851.39	1935.62
851.569	1861.6
851.748	1854.24
851.927	1934.26
852.107	1891.05
852.286	1895.12
852.465	1825.95
852.644	1906.36
852.823	1905.2
853.002	1930.58
853.181	1903.45
853.359	1882.92
853.538	1812.2
853.717	1910.04
853.896	1772.87
854.075	1725.4
854.254	1670.57
854.433	1609.15
854.611	1642.48
854.79	1565.36
854.969	1690.33
855.148	1682
855.327	1604.7
855.505	1700.99
855.684	1702.73
855.863	1717.26
856.041	1683.74
856.22	1742.06
856.399	1714.16
856.577	1819.95
856.756	1792.63
856.934	1930.58
857.113	1912.95
857.291	1793.99
857.47	1754.07
857.648	1796.89
857.827	1788.76
858.005	1844.17
858.184	1798.06
858.362	1894.73
858.541	1795.34
858.719	1804.45
858.898	1784.3
859.076	1809.68
859.254	1856.37
859.433	1781.59
859.611	1781.2
859.789	1745.94
859.967	1827.7
860.146	1829.64
860.324	1700.41
860.502	1737.41
860.68	1701.76
860.859	1729.66
861.037	1753.49
861.215	1764.15
861.393	1737.8
861.571	1718.04
861.749	1708.35
861.927	1759.11
862.105	1753.88
862.283	1726.95
862.461	1720.17
862.639	1675.41
862.817	1748.84
862.995	1694.98
863.173	1687.62
863.351	1668.24
863.529	1692.46
863.707	1740.71
863.885	1700.02
864.063	1627.17
864.241	1620
864.418	1722.49
864.596	1679.09
864.774	1604.11
864.952	1645.96
865.129	1691.49
865.307	1627.56
865.485	1582.8
865.663	1662.43
865.84	1548.12
866.018	1599.46
866.196	1393.51
866.373	1457.25
866.551	1410.75
866.728	1387.12
866.906	1406.3
867.084	1464.62
867.261	1483.02
867.439	1510.34
867.616	1550.83
867.794	1523.71
867.971	1549.86
868.149	1507.24
868.326	1585.71
868.503	1590.75
868.681	1542.31
868.858	1521.97
869.035	1524.1
869.213	1578.93
869.39	1498.13
869.567	1607.8
869.745	1497.36
869.922	1552
870.099	1531.46
870.276	1556.45
870.454	1541.15
870.631	1542.5
870.808	1544.83
870.985	1565.17
871.162	1606.83
871.339	1545.99
871.517	1499.49
871.694	1484.18
871.871	1488.06
872.048	1488.25
872.225	1503.56
872.402	1518.09
872.579	1475.08
872.756	1514.99
872.933	1448.15
873.11	1471.59
873.287	1496
873.463	1459.77
873.64	1462.68
873.817	1452.8
873.994	1464.42
874.171	1400.68
874.348	1444.27
874.524	1377.82
874.701	1465.2
874.878	1375.3
875.055	1425.29
875.231	1401.65
875.408	1441.75
875.585	1381.69
875.762	1434.78
875.938	1392.35
876.115	1452.02
876.291	1371.23
876.468	1367.55
876.645	1370.07
876.821	1378.98
876.998	1403.59
877.174	1398.55
877.351	1396.61
877.527	1358.64
877.704	1399.52
877.88	1379.17
878.057	1357.09
878.233	1386.92
878.409	1345.27
878.586	1405.72
878.762	1373.36
878.938	1387.5
879.115	1268.74
879.291	1328.22
879.467	1302.26
879.644	1297.61
879.82	1394.48
879.996	1313.88
880.172	1253.24
880.349	1355.15
880.525	1340.62
880.701	1266.8
880.877	1290.44
881.053	1284.82
881.229	1297.61
881.405	1336.16
881.581	1279.78
881.757	1293.54
881.933	1332.29
882.109	1318.92
882.285	1287.14
882.461	1251.88
882.637	1280.36
882.813	1269.13
882.989	1274.36
883.165	1366.97
883.341	1240.45
883.517	1340.23
883.693	1347.01
883.869	1309.42
884.044	1260.41
884.22	1330.54
884.396	1321.44
884.572	1288.11
884.747	1325.31
884.923	1317.95
885.099	1309.62
885.275	1343.52
885.45	1245.1
885.626	1296.44
885.801	1286.17
885.977	1288.11
886.153	1216.23
886.328	1324.73
886.504	1253.43
886.679	1275.91
886.855	1274.55
887.03	1292.18
887.206	1319.5
887.381	1285.4
887.557	1310.78
887.732	1282.3
887.908	1300.12
888.083	1355.73
888.258	1264.86
888.434	1258.08
888.609	1278.62
888.784	1317.95
888.96	1292.18
889.135	1260.6
889.31	1238.51
889.485	1266.8
889.661	1275.32
889.836	1321.44
890.011	1321.05
890.186	1277.84
890.361	1237.54
890.537	1264.86
890.712	1322.41
890.887	1279.59
891.062	1257.31
891.237	1350.5
891.412	1220.3
891.587	1270.29
891.762	1302.45
891.937	1343.14
892.112	1214.88
892.287	1271.64
892.462	1215.65
892.637	1189.3
892.812	1207.9
892.987	1176.71
893.161	1181.94
893.336	1170.9
893.511	1211
893.686	1230.38
893.861	1181.16
894.035	1227.47
894.21	1205.77
894.385	1150.94
894.56	1168.38
894.734	1127.88
894.909	1100.76
895.084	1117.81
895.258	1100.56
895.433	1125.17
895.608	1069.18
895.782	1019.19
895.957	1011.05
896.131	1051.93
896.306	952.15
896.48	964.94
896.655	975.99
896.829	905.07
897.004	914.57
897.178	916.7
897.353	882.99
897.527	947.89
897.701	917.86
897.876	881.82
898.05	993.42
898.224	948.67
898.399	996.52
898.573	871.94
898.747	807.81
898.921	836.1
899.096	759.38
899.27	773.52
899.444	774.49
899.618	778.94
899.792	839.2
899.967	828.74
900.141	855.28
900.315	775.07
900.489	798.71
900.663	817.11
900.837	827.38
901.011	764.61
901.185	887.06
901.359	825.44
901.533	829.71
901.707	824.28
901.881	832.23
902.055	779.14
902.229	804.91
902.403	855.47
902.576	823.7
902.75	820.41
902.924	940.72
903.098	864
903.272	916.89
903.446	1010.09
903.619	912.82
903.793	981.22
903.967	945.18
904.14	988.77
904.314	965.52
904.488	993.81
904.661	975.02
904.835	963.78
905.009	1013.57
905.182	1030.43
905.356	1026.17
905.529	1000.59
905.703	946.92
905.876	965.91
906.05	919.99
906.223	865.36
906.397	828.16
906.57	824.28
906.744	823.51
906.917	816.14
907.09	819.63
907.264	820.02
907.437	770.42
907.61	752.21
907.784	774.88
907.957	782.82
908.13	734.96
908.304	791.15
908.477	710.16
908.65	740.39
908.823	704.55
908.996	800.64
909.17	712.68
909.343	729.15
909.516	724.89
909.689	709.78
909.862	697.96
910.035	708.61
910.208	683.43
910.381	708.03
910.554	802.19
910.727	708.42
910.9	715.01
911.073	711.13
911.246	761.12
911.419	777.78
911.592	738.06
911.765	711.13
911.938	716.36
912.11	682.07
912.283	742.33
912.456	762.67
912.629	722.56
912.802	685.36
912.974	648.55
913.147	619.88
913.32	569.12
913.493	593.92
913.665	628.4
913.838	608.45
914.01	625.5
914.183	648.36
914.356	635.77
914.528	682.65
914.701	741.75
914.873	673.55
915.046	631.7
915.218	613.48
915.391	533.85
915.563	551.1
915.736	598.57
915.908	643.9
916.081	615.23
916.253	610.97
916.425	602.05
916.598	657.66
916.77	640.8
916.942	639.45
917.115	523.97
917.287	597.21
917.459	584.42
917.632	566.02
917.804	510.6
917.976	573.38
918.148	596.24
918.32	600.89
918.493	625.11
918.665	679.94
918.837	644.29
919.009	668.12
919.181	696.21
919.353	652.62
919.525	633.83
919.697	639.45
919.869	653.59
920.041	695.63
920.213	751.43
920.385	700.48
920.557	664.25
920.729	696.21
920.901	689.43
921.073	664.44
921.244	601.86
921.416	666.76
921.588	631.89
921.76	612.13
921.932	653.4
922.103	622.78
922.275	640.03
922.447	656.88
922.619	546.06
922.79	631.31
922.962	590.23
923.134	643.13
923.305	582.29
923.477	530.37
923.648	536.57
923.82	579.58
923.991	548.39
924.163	534.44
924.335	558.85
924.506	536.95
924.677	621.82
924.849	523.39
925.02	554.78
925.192	591.98
925.363	542.19
925.535	572.99
925.706	515.25
925.877	600.12
926.049	546.84
926.22	559.24
926.391	558.07
926.562	586.94
926.734	539.47
926.905	583.45
927.076	511.77
927.247	531.92
927.419	504.99
927.59	477.86
927.761	517.97
927.932	483.87
928.103	475.73
928.274	424.97
928.445	393.58
928.616	442.41
928.787	422.06
928.958	460.04
929.129	441.63
929.3	425.55
929.471	373.24
929.642	308.72
929.813	293.61
929.984	368.39
930.155	259.12
930.326	335.46
930.496	303.49
930.667	236.65
930.838	298.45
931.009	243.62
931.18	275.01
931.35	259.9
931.521	260.86
931.692	208.36
931.863	169.61
932.033	204.68
932.204	226.38
932.374	217.47
932.545	167.28
932.716	222.7
932.886	222.5
933.057	111.68
933.227	135.32
933.398	210.49
933.568	110.32
933.739	83.97
933.909	94.63
934.08	127.95
934.25	59.17
934.421	99.67
934.591	146.75
934.761	86.69
934.932	82.62
935.102	131.25
935.272	105.29
935.443	87.65
935.613	89.59
935.783	131.83
935.953	92.89
936.123	245.17
936.294	77
936.464	88.62
936.634	93.85
936.804	64.6
936.974	56.46
937.144	119.43
937.314	99.09
937.484	102.57
937.655	82.62
937.825	131.64
937.995	78.35
938.165	134.93
938.334	87.07
938.504	122.92
938.674	126.02
938.844	122.53
939.014	202.74
939.184	181.04
939.354	237.03
939.524	211.85
939.694	162.63
939.863	165.73
940.033	219.6
940.203	213.98
940.373	205.26
940.542	247.3
940.712	174.07
940.882	201.58
941.051	225.22
941.221	196.15
941.391	222.89
941.56	157.02
941.73	164.57
941.899	260.48
942.069	165.54
942.238	195.77
942.408	159.34
942.577	178.52
942.747	177.17
942.916	122.53
943.086	135.9
943.255	163.02
943.425	164.57
943.594	117.1
943.763	95.4
943.933	97.92
944.102	69.05
944.271	135.12
944.441	127.95
944.61	130.86
944.779	120.2
944.948	219.79
945.117	106.25
945.287	100.05
945.456	73.9
945.625	114.78
945.794	141.13
945.963	90.56
946.132	148.88
946.301	101.8
946.47	147.72
946.639	60.53
946.808	83.78
946.977	151.01
947.146	193.63
947.315	122.72
947.484	121.56
947.653	149.27
947.822	103.93
947.991	110.32
948.16	208.36
948.329	183.17
948.498	121.95
948.666	111.29
948.835	159.92
949.004	81.84
949.173	98.31
949.341	132.22
949.51	132.6
949.679	157.4
949.847	159.73
950.016	178.52
950.185	201.38
950.353	126.79
950.522	135.51
950.69	172.32
950.859	121.95
951.028	172.32
951.196	154.69
951.365	129.31
951.533	114.59
951.701	148.88
951.87	162.25
952.038	82.81
952.207	139.97
952.375	189.76
952.543	108.19
952.712	132.41
952.88	101.8
953.048	168.06
953.217	144.62
953.385	109.55
953.553	182.59
953.721	92.11
953.89	123.5
954.058	59.37
954.226	101.99
954.394	128.34
954.562	89.4
954.73	115.55
954.898	94.05
955.067	157.4
955.235	119.04
955.403	141.13
955.571	162.83
955.739	151.98
955.907	77.97
956.075	111.29
956.243	77.77
956.41	136.29
956.578	79.52
956.746	84.75
956.914	121.17
957.082	159.73
957.25	145.58
957.418	122.72
957.585	136.09
957.753	158.95
957.921	88.62
958.089	129.7
958.256	161.86
958.424	170.97
958.592	145.97
958.759	99.47
958.927	150.04
959.095	87.07
959.262	140.74
959.43	148.88
959.597	77.19
959.765	120.59
959.932	92.11
960.1	143.65
960.267	143.07
960.435	142.29
960.602	177.55
960.77	111.29
960.937	82.62
961.104	128.34
961.272	83
961.439	124.27
961.606	120.98
961.774	175.03
961.941	124.27
962.108	155.66
962.275	131.44
962.443	177.55
962.61	147.72
962.777	239.16
962.944	159.92
963.111	137.64
963.278	171.16
963.446	135.7
963.613	135.9
963.78	173.48
963.947	153.53
964.114	138.22
964.281	242.07
964.448	169.03
964.615	139.19
964.782	152.37
964.949	177.17
965.116	151.78
965.282	182.2
965.449	142.87
965.616	113.62
965.783	198.28
965.95	154.11
966.117	109.94
966.283	154.5
966.45	146.55
966.617	160.7
966.784	198.09
966.95	190.92
967.117	168.45
967.284	110.32
967.45	120.59
967.617	211.65
967.784	172.52
967.95	212.43
968.117	147.33
968.283	203.71
968.45	268.03
968.616	165.93
968.783	193.25
968.949	181.82
969.116	199.06
969.282	149.07
969.449	155.66
969.615	176.39
969.781	111.49
969.948	149.65
970.114	142.87
970.28	210.1
970.447	140.16
970.613	214.17
970.779	159.73
970.945	182.01
971.112	178.13
971.278	142.87
971.444	163.8
971.61	205.07
971.776	127.18
971.942	205.26
972.108	180.46
972.275	149.27
972.441	177.94
972.607	230.45
972.773	134.74
972.939	169.03
973.105	154.11
973.271	119.24
973.437	135.7
973.602	143.26
973.768	166.51
973.934	141.32
974.1	161.86
974.266	80.29
974.432	160.89
974.598	121.75
974.763	183.37
974.929	142.87
975.095	209.33
975.261	112.65
975.426	104.12
975.592	141.9
975.758	206.42
975.923	99.28
976.089	94.44
976.255	176.78
976.42	180.85
976.586	152.37
976.751	150.43
976.917	209.72
977.082	158.57
977.248	117.1
977.413	75.25
977.579	131.25
977.744	168.64
977.91	89.01
978.075	104.9
978.24	164.96
978.406	130.28
978.571	141.32
978.736	94.63
978.902	138.61
979.067	110.9
979.232	64.02
979.397	129.12
979.563	188.98
979.728	103.74
979.893	135.12
980.058	126.6
980.223	153.33
980.388	141.13
980.554	145.58
980.719	100.44
980.884	134.54
981.049	171.74
981.214	99.86
981.379	158.95
981.544	109.94
981.709	124.85
981.874	128.15
982.039	125.44
982.204	133.77
982.368	131.64
982.533	107.61
982.698	142.48
982.863	134.15
983.028	107.22
983.193	141.32
983.357	152.17
983.522	155.27
983.687	129.12
983.852	108.58
984.016	132.41
984.181	117.88
984.346	171.16
984.51	128.34
984.675	131.64
984.839	139
985.004	136.09
985.168	161.47
985.333	139.38
985.498	133.96
985.662	164.77
985.827	167.09
985.991	117.88
986.155	119.82
986.32	180.85
986.484	176.97
986.649	132.6
986.813	90.75
986.977	161.47
987.142	122.14
987.306	102.96
987.47	103.35
987.634	110.52
987.799	125.63
987.963	130.47
988.127	148.3
988.291	207.58
988.455	133.38
988.62	135.7
988.784	163.6
988.948	153.53
989.112	102.96
989.276	129.31
989.44	119.62
989.604	106.06
989.768	93.47
989.932	169.22
990.096	92.89
990.26	70.22
990.424	83.2
990.588	119.43
990.752	189.95
990.915	152.56
991.079	100.05
991.243	100.83
991.407	150.23
991.571	103.15
991.734	133.19
991.898	151.78
992.062	195.96
992.226	119.62
992.389	68.86
992.553	53.94
992.717	79.32
992.88	88.62
993.044	104.12
993.207	99.67
993.371	132.41
993.535	107.8
993.698	104.7
993.862	142.29
994.025	151.98
994.189	122.72
994.352	123.3
994.515	117.1
994.679	128.34
994.842	113.62
995.006	147.72
995.169	89.2
995.332	89.01
995.496	122.53
995.659	57.62
995.822	85.33
995.985	108.97
996.149	161.08
996.312	119.04
996.475	159.34
996.638	104.12
996.801	134.35
996.964	162.05
997.128	78.55
997.291	104.7
997.454	123.89
997.617	84.94
997.78	128.15
997.943	88.43
998.106	135.32
998.269	74.29
998.432	91.92
998.595	73.32
998.758	38.06
998.92	64.21
999.083	47.74
999.246	65.76
999.409	56.46
999.572	43.09
999.735	58.59
999.897	110.9
1000.06	76.8
1000.223	78.74
1000.386	106.06
1000.548	115.94
1000.711	137.64
1000.874	93.66
1001.036	44.06
1001.199	127.76
1001.361	49.49
1001.524	75.84
1001.687	95.02
1001.849	43.48
1002.012	85.72
1002.174	105.87
1002.337	116.52
1002.499	82.04
1002.661	145.78
1002.824	46
1002.986	69.05
1003.149	108.19
1003.311	38.64
1003.473	170.77
1003.636	53.94
1003.798	96.18
1003.96	102.96
1004.123	67.5
1004.285	62.47
1004.447	57.82
1004.609	66.54
1004.771	131.25
1004.933	33.79
1005.096	42.32
1005.258	30.11
1005.42	55.69
1005.582	94.82
1005.744	85.33
1005.906	32.82
1006.068	63.05
1006.23	49.68
1006.392	45.81
1006.554	45.61
1006.716	127.95
1006.878	83
1007.04	7.64
1007.202	59.37
1007.363	64.21
1007.525	102.38
1007.687	78.35
1007.849	101.22
1008.011	1.82
1008.172	28.95
1008.334	64.99
1008.496	76.8
1008.658	23.14
1008.819	48.91
1008.981	26.24
1009.143	42.12
1009.304	42.12
1009.466	61.69
1009.627	124.47
1009.789	158.95
1009.95	94.82
1010.112	54.72
1010.273	72.54
1010.435	48.52
1010.596	33.41
1010.758	58.98
1010.919	49.49
1011.081	17.71
1011.242	65.95
1011.403	81.65
1011.565	50.26
1011.726	73.12
1011.887	7.64
1012.049	46
1012.21	56.65
1012.371	114.59
1012.532	-12.51
1012.693	57.43
1012.855	47.94
1013.016	53.75
1013.177	112.26
1013.338	27.79
1013.499	101.41
1013.66	94.24
1013.821	108.58
1013.982	55.3
1014.143	74.48
1014.304	27.59
1014.465	52.97
1014.626	90.17
1014.787	34.96
1014.948	125.63
1015.109	-3.79
1015.27	85.52
1015.431	30.31
1015.592	50.07
1015.752	105.29
1015.913	61.69
1016.074	64.79
1016.235	58.98
1016.395	34.18
1016.556	46.19
1016.717	39.8
1016.877	86.88
1017.038	28.37
1017.199	40.19
1017.359	65.76
1017.52	43.48
1017.681	51.23
1017.841	58.59
1018.002	40.38
1018.162	-3.6
1018.323	86.49
1018.483	42.51
1018.644	23.52
1018.804	8.41
1018.964	-9.22
1019.125	13.26
1019.285	32.24
1019.446	43.48
1019.606	14.03
1019.766	11.12
1019.926	69.83
1020.087	53.94
1020.247	-5.54
1020.407	62.85
1020.567	62.47
1020.728	38.83
1020.888	20.04
1021.048	23.33
1021.208	15.39
1021.368	36.7
1021.528	102.77
1021.688	74.29
1021.848	59.75
1022.008	71.96
1022.168	37.67
1022.328	56.85
1022.488	66.15
1022.648	24.69
1022.808	28.56
1022.968	45.81
1023.128	4.73
1023.288	14.22
1023.448	42.71
1023.608	46.19
1023.767	57.82
1023.927	36.12
1024.087	25.66
1024.247	-5.15
1024.406	16.55
1024.566	-11.93
1024.726	-11.74
1024.885	41.93
1025.045	56.27
1025.205	36.89
1025.364	27.4
1025.524	31.27
1025.683	13.45
1025.843	54.91
1026.003	43.87
1026.162	72.74
1026.321	54.33
1026.481	45.22
1026.64	23.52
1026.8	33.79
1026.959	33.79
1027.119	37.67
1027.278	1.05
1027.437	17.13
1027.597	34.96
1027.756	45.22
1027.915	44.06
1028.074	27.59
1028.234	16.74
1028.393	33.21
1028.552	4.34
1028.711	-29.95
1028.87	71.96
1029.03	-6.7
1029.189	51.81
1029.348	-37.12
1029.507	31.27
1029.666	36.51
1029.825	2.99
1029.984	12.67
1030.143	31.86
1030.302	-10.77
1030.461	-34.6
1030.62	17.71
1030.779	53.36
1030.938	2.41
1031.097	6.67
1031.255	35.34
1031.414	78.94
1031.573	32.63
1031.732	-35.76
1031.891	40.38
1032.049	64.02
1032.208	40.19
1032.367	5.89
1032.525	30.5
1032.684	15.19
1032.843	22.36
1033.001	-21.62
1033.16	171.93
1033.319	90.17
1033.477	48.52
1033.636	-2.63
1033.794	-22.59
1033.953	62.08
1034.111	28.95
1034.27	2.99
1034.428	36.31
1034.587	6.86
1034.745	24.69
1034.903	20.81
1035.062	49.29
1035.22	-21.04
1035.378	49.49
1035.537	-12.32
1035.695	48.91
1035.853	20.23
1036.011	76.61
1036.17	41.35
1036.328	-38.47
1036.486	14.22
1036.644	48.32
1036.802	-64.63
1036.96	-4.57
1037.119	28.56
1037.277	-1.86
1037.435	-18.52
1037.593	-19.1
1037.751	16.74
1037.909	21.59
1038.067	21.59
