Data from gum_old_FLMT105791__57__15-43-45-257.txt Node

Date: Mon Mar 20 15:43:45 GMT 2023
User: antho
Spectrometer: FLMT10579
Trigger mode: 0
Integration Time (sec): 1.000000E-1
Scans to average: 10
Electric dark correction enabled: true
Nonlinearity correction enabled: false
Boxcar width: 0
XAxis mode: Wavelengths
Number of Pixels in Spectrum: 3648
>>>>>Begin Spectral Data<<<<<
345.248	-155.69
345.464	-155.69
345.681	-155.69
345.898	-201.03
346.114	-167.9
346.331	-18.52
346.548	32.63
346.764	-20.26
346.981	-27.82
347.197	-1.47
347.414	15.97
347.631	-16.78
347.847	56.07
348.064	1.44
348.28	19.65
348.497	-24.14
348.713	-16.78
348.93	27.98
349.146	24.49
349.363	8.02
349.579	32.24
349.796	14.42
350.012	-4.57
350.229	18.1
350.445	16.74
350.661	10.35
350.878	-4.57
351.094	32.44
351.311	4.54
351.527	28.56
351.743	-7.86
351.96	49.87
352.176	55.88
352.392	38.83
352.609	41.54
352.825	-14.26
353.041	22.36
353.257	13.45
353.474	14.61
353.69	31.08
353.906	39.99
354.122	-5.54
354.339	73.9
354.555	-0.5
354.771	10.54
354.987	81.45
355.203	60.34
355.42	-1.08
355.636	7.06
355.852	-4.96
356.068	23.91
356.284	-14.26
356.5	44.45
356.716	51.42
356.932	17.91
357.148	40.77
357.364	5.89
357.58	66.54
357.796	79.13
358.012	79.9
358.228	33.79
358.444	-36.34
358.66	77.97
358.876	44.06
359.092	7.06
359.308	17.91
359.524	49.68
359.74	-0.31
359.956	9.96
360.172	34.76
360.388	81.26
360.604	-1.86
360.819	115.94
361.035	40.19
361.251	51.62
361.467	9.57
361.683	61.5
361.898	17.91
362.114	60.14
362.33	52.39
362.546	49.49
362.762	48.71
362.977	62.08
363.193	10.74
363.409	52.2
363.624	-3.79
363.84	-1.28
364.056	15
364.271	64.79
364.487	58.01
364.703	10.16
364.918	-15.42
365.134	21.01
365.35	44.64
365.565	132.22
365.781	47.16
365.996	52.97
366.212	85.33
366.427	57.24
366.643	35.15
366.858	44.26
367.074	32.24
367.289	72.15
367.505	139.19
367.72	32.82
367.936	51.81
368.151	75.45
368.367	52.2
368.582	46
368.798	31.27
369.013	89.01
369.228	39.02
369.444	67.12
369.659	113.81
369.874	48.52
370.09	108.77
370.305	-6.7
370.52	49.29
370.736	115.94
370.951	54.91
371.166	117.3
371.381	137.06
371.597	92.89
371.812	47.36
372.027	19.46
372.242	56.46
372.458	116.72
372.673	38.44
372.888	40.77
373.103	90.17
373.318	139.77
373.533	80.87
373.749	65.76
373.964	-3.99
374.179	86.1
374.394	31.66
374.609	85.33
374.824	6.28
375.039	115.36
375.254	31.27
375.469	113.62
375.684	54.14
375.899	110.9
376.114	77.58
376.329	79.71
376.544	73.7
376.759	53.17
376.974	18.87
377.189	64.99
377.404	31.27
377.619	74.48
377.834	5.89
378.049	43.48
378.264	31.47
378.478	92.89
378.693	44.84
378.908	115.55
379.123	64.99
379.338	114.78
379.553	65.76
379.767	97.54
379.982	88.43
380.197	93.27
380.412	70.02
380.626	88.82
380.841	156.82
381.056	91.72
381.271	151.78
381.485	80.87
381.7	52.2
381.915	103.93
382.129	30.31
382.344	101.99
382.559	56.65
382.773	124.47
382.988	35.92
383.202	47.74
383.417	50.07
383.632	161.08
383.846	60.72
384.061	95.79
384.275	50.84
384.49	80.87
384.704	72.74
384.919	107.22
385.133	71.19
385.348	117.3
385.562	47.16
385.777	126.6
385.991	72.54
386.206	71.57
386.42	51.42
386.634	134.15
386.849	110.13
387.063	101.99
387.277	60.34
387.492	75.84
387.706	42.32
387.92	46
388.135	107.61
388.349	86.69
388.563	90.37
388.778	123.89
388.992	110.9
389.206	107.61
389.42	180.65
389.635	93.47
389.849	131.25
390.063	132.02
390.277	128.15
390.491	188.98
390.706	145.39
390.92	167.67
391.134	116.52
391.348	165.35
391.562	85.33
391.776	127.95
391.99	102.77
392.205	152.75
392.419	108
392.633	112.65
392.847	163.02
393.061	72.54
393.275	162.83
393.489	114.2
393.703	110.9
393.917	119.82
394.131	60.14
394.345	95.99
394.559	113.81
394.773	88.43
394.986	136.09
395.2	135.12
395.414	169.42
395.628	104.12
395.842	174.26
396.056	127.95
396.27	113.62
396.484	137.25
396.697	163.99
396.911	173.1
397.125	132.6
397.339	126.02
397.553	106.25
397.766	193.44
397.98	152.37
398.194	190.92
398.408	175.42
398.621	211.85
398.835	217.08
399.049	205.45
399.262	260.48
399.476	226.96
399.69	262.41
399.903	276.17
400.117	185.5
400.331	244.98
400.544	206.81
400.758	348.63
400.971	251.95
401.185	272.1
401.398	197.12
401.612	246.14
401.826	248.66
402.039	246.33
402.253	208.17
402.466	296.71
402.68	250.6
402.893	273.26
403.106	248.85
403.32	265.51
403.533	243.04
403.747	254.28
403.96	292.64
404.174	287.21
404.387	219.21
404.6	264.74
404.814	309.5
405.027	272.68
405.24	245.95
405.454	235.87
405.667	302.13
405.88	208.55
406.094	311.43
406.307	305.62
406.52	269
406.733	250.98
406.947	208.75
407.16	342.82
407.373	289.73
407.586	287.02
407.799	250.4
408.012	289.15
408.226	259.51
408.439	339.33
408.652	246.72
408.865	323.06
409.078	351.93
409.291	348.24
409.504	276.75
409.717	346.69
409.93	325.58
410.143	311.05
410.357	248.66
410.57	215.53
410.783	268.03
410.996	314.92
411.209	288.18
411.421	337.39
411.634	326.54
411.847	305.43
412.06	336.23
412.273	324.61
412.486	312.4
412.699	434.07
412.912	322.28
413.125	353.09
413.338	325.58
413.55	345.14
413.763	322.86
413.976	328.87
414.189	289.54
414.402	343.4
414.615	405.79
414.827	326.35
415.04	354.44
415.253	351.34
415.466	377.31
415.678	402.49
415.891	339.53
416.104	354.06
416.316	343.98
416.529	343.79
416.742	382.73
416.954	417.99
417.167	371.88
417.38	343.01
417.592	375.76
417.805	352.12
418.017	318.02
418.23	373.82
418.442	338.94
418.655	335.26
418.868	333.71
419.08	394.36
419.293	405.79
419.505	379.63
419.718	382.15
419.93	401.14
420.142	369.75
420.355	389.71
420.567	403.07
420.78	382.73
420.992	358.71
421.205	430.01
421.417	338.94
421.629	387.77
421.842	356.96
422.054	342.63
422.266	431.94
422.479	433.49
422.691	355.41
422.903	434.66
423.115	352.51
423.328	379.44
423.54	364.33
423.752	392.42
423.964	356.77
424.177	384.48
424.389	394.16
424.601	513.7
424.813	433.3
425.025	455
425.238	421.09
425.45	386.03
425.662	384.67
425.874	713.07
426.086	394.74
426.298	419.54
426.51	434.07
426.722	406.95
426.934	396.29
427.146	450.35
427.358	388.16
427.57	427.68
427.782	390.48
427.994	410.63
428.206	360.45
428.418	388.16
428.63	442.6
428.842	469.53
429.054	435.24
429.266	426.13
429.478	383.12
429.69	374.98
429.902	349.79
430.114	426.52
430.325	379.83
430.537	344.95
430.749	377.5
430.961	279.27
431.173	326.93
431.384	365.88
431.596	288.96
431.808	369.56
432.02	441.44
432.231	492.78
432.443	531.72
432.655	478.44
432.867	444.15
433.078	485.03
433.29	542.19
433.502	477.09
433.713	518.94
433.925	525.14
434.136	528.04
434.348	417.02
434.56	387.77
434.771	547.03
434.983	407.72
435.194	441.05
435.406	496.07
435.617	507.7
435.829	556.91
436.04	536.95
436.252	523
436.463	573.77
436.675	574.93
436.886	540.83
437.098	558.07
437.309	605.73
437.521	534.44
437.732	540.64
437.943	517.39
438.155	517.97
438.366	476.7
438.578	576.87
438.789	504.99
439	526.1
439.211	503.82
439.423	518.74
439.634	533.85
439.845	555.75
440.057	575.9
440.268	596.63
440.479	537.73
440.69	588.3
440.902	529.01
441.113	521.26
441.324	557.88
441.535	578.42
441.746	624.72
441.957	558.85
442.168	556.52
442.38	626.85
442.591	629.95
442.802	557.69
443.013	605.54
443.224	625.5
443.435	618.13
443.646	587.91
443.857	608.45
444.068	594.11
444.279	579.19
444.49	711.33
444.701	617.36
444.912	724.5
445.123	669.67
445.334	650.88
445.545	634.41
445.756	628.21
445.967	597.21
446.178	625.11
446.388	634.22
446.599	626.66
446.81	639.06
447.021	604.96
447.232	676.65
447.443	691.95
447.653	638.09
447.864	693.31
448.075	678
448.286	714.23
448.496	672.19
448.707	655.53
448.918	627.05
449.129	766.16
449.339	655.53
449.55	691.18
449.761	660.76
449.971	711.52
450.182	667.73
450.393	690.79
450.603	639.83
450.814	737.29
451.024	739.81
451.235	783.01
451.446	782.24
451.656	783.59
451.867	712.88
452.077	732.45
452.288	794.44
452.498	760.93
452.709	709
452.919	709.58
453.13	668.9
453.34	716.75
453.55	657.47
453.761	675.87
453.971	700.09
454.182	729.35
454.392	709.39
454.602	784.76
454.813	742.91
455.023	751.43
455.233	681.49
455.444	713.85
455.654	596.05
455.864	699.12
456.075	708.61
456.285	721.79
456.495	715.98
456.705	713.46
456.916	781.85
457.126	786.11
457.336	738.26
457.546	678
457.756	713.46
457.967	796.96
458.177	712.68
458.387	769.06
458.597	712.88
458.807	750.27
459.017	699.9
459.227	731.28
459.437	705.9
459.647	774.68
459.857	744.07
460.068	710.55
460.278	809.36
460.488	765.38
460.698	820.02
460.908	741.75
461.117	710.75
461.327	749.5
461.537	775.65
461.747	766.35
461.957	784.56
462.167	906.62
462.377	793.28
462.587	804.91
462.797	857.61
463.007	800.64
463.216	851.99
463.426	865.55
463.636	852.57
463.846	744.46
464.056	777.39
464.265	841.52
464.475	776.81
464.685	787.28
464.895	813.43
465.104	795.8
465.314	842.49
465.524	783.98
465.733	769.45
465.943	902.75
466.153	894.42
466.362	857.99
466.572	850.24
466.782	805.49
466.991	860.32
467.201	867.68
467.41	754.14
467.62	862.45
467.829	832.03
468.039	848.31
468.249	820.99
468.458	866.91
468.668	875.82
468.877	859.16
469.086	914.57
469.296	925.03
469.505	871.94
469.715	959.71
469.924	885.51
470.134	910.11
470.343	909.34
470.552	865.74
470.762	876.4
470.971	865.36
471.18	882.79
471.39	905.66
471.599	861.29
471.808	933.75
472.018	901.01
472.227	959.52
472.436	981.02
472.645	953.51
472.855	935.69
473.064	1018.61
473.273	981.02
473.482	1004.08
473.691	982.96
473.901	970.17
474.11	955.06
474.319	1063.75
474.528	989.55
474.737	1079.25
474.946	1026.36
475.155	1051.55
475.364	1101.92
475.573	1056.78
475.783	1041.47
475.992	1078.48
476.201	1105.6
476.41	1050.58
476.619	1046.51
476.828	1071.12
477.037	1046.12
477.245	1062.59
477.454	1110.64
477.663	1092.62
477.872	1101.92
478.081	1201.31
478.29	1084.48
478.499	1195.69
478.708	1173.41
478.917	1228.83
479.125	1141.83
479.334	1135.05
479.543	1169.54
479.752	1168.18
479.961	1207.13
480.169	1200.15
480.378	1204.99
480.587	1346.62
480.796	1223.59
481.004	1238.13
481.213	1271.06
481.422	1253.04
481.63	1254.4
481.839	1259.05
482.048	1331.32
482.256	1291.79
482.465	1348.17
482.674	1329.77
482.882	1351.86
483.091	1418.12
483.299	1317.37
483.508	1371.81
483.716	1354.57
483.925	1375.1
484.134	1314.66
484.342	1335.58
484.551	1356.89
484.759	1369.68
484.967	1390.99
485.176	1406.49
485.384	1402.04
485.593	1384.99
485.801	1385.57
486.01	1320.08
486.218	1231.73
486.426	1154.23
486.635	1166.25
486.843	1173.03
487.051	1246.46
487.26	1205.38
487.468	1279.39
487.676	1339.26
487.885	1296.06
488.093	1361.35
488.301	1375.1
488.509	1400.29
488.717	1414.44
488.926	1416.95
489.134	1389.05
489.342	1381.3
489.55	1370.07
489.758	1431.68
489.967	1441.56
490.175	1569.05
490.383	1479.73
490.591	1557.42
490.799	1486.9
491.007	1523.9
491.215	1506.08
491.423	1498.52
491.631	1483.6
491.839	1509.18
492.047	1542.31
492.255	1458.22
492.463	1408.04
492.671	1450.08
492.879	1514.8
493.087	1502.2
493.295	1516.54
493.503	1542.11
493.711	1586.29
493.919	1596.95
494.127	1568.08
494.334	1592.1
494.542	1494.65
494.75	1552
494.958	1576.6
495.166	1613.41
495.374	1604.11
495.581	1628.91
495.789	1614
495.997	1678.51
496.205	1603.34
496.412	1566.14
496.62	1621.55
496.828	1626.39
497.035	1611.09
497.243	1647.9
497.451	1606.44
497.658	1643.64
497.866	1608.18
498.074	1689.94
498.281	1586.68
498.489	1679.48
498.696	1614.19
498.904	1565.36
499.112	1529.72
499.319	1705.44
499.527	1607.6
499.734	1673.67
499.942	1577.18
500.149	1613.03
500.357	1657.39
500.564	1603.34
500.771	1661.85
500.979	1607.8
501.186	1590.16
501.394	1622.52
501.601	1553.74
501.808	1625.04
502.016	1572.53
502.223	1587.84
502.43	1626.39
502.638	1597.33
502.845	1595.2
503.052	1717.65
503.26	1629.11
503.467	1730.44
503.674	1646.93
503.881	1658.17
504.089	1773.06
504.296	1682.19
504.503	1597.91
504.71	1626.2
504.917	1621.55
505.125	1634.14
505.332	1675.03
505.539	1679.29
505.746	1751.36
505.953	1762.79
506.16	1747.29
506.367	1773.84
506.574	1837.39
506.781	1806.77
506.988	1720.94
507.195	1749.42
507.402	1719.59
507.609	1782.17
507.816	1728.11
508.023	1727.34
508.23	1687.62
508.437	1682.78
508.644	1716.87
508.851	1776.55
509.058	1769.38
509.265	1741.29
509.472	1810.07
509.679	1872.45
509.885	1783.14
510.092	1787.01
510.299	1791.47
510.506	1777.13
510.713	1770.16
510.92	1795.92
511.126	1798.83
511.333	1826.73
511.54	1835.25
511.746	1878.46
511.953	1829.64
512.16	1892.02
512.367	1805.61
512.573	1799.8
512.78	1810.26
512.987	1795.92
513.193	1765.7
513.4	1713.19
513.606	1786.04
513.813	1827.7
514.02	1776.74
514.226	1852.89
514.433	1847.07
514.639	1718.62
514.846	1793.21
515.052	1798.83
515.259	1814.72
515.465	1826.34
515.672	1805.22
515.878	1880.4
516.085	1834.09
516.291	1861.6
516.497	1808.52
516.704	1828.28
516.91	1769.19
517.117	1662.63
517.323	1599.46
517.529	1649.45
517.736	1623.49
517.942	1605.47
518.148	1674.06
518.354	1729.27
518.561	1719.2
518.767	1734.51
518.973	1778.87
519.179	1740.12
519.386	1761.82
519.592	1708.54
519.798	1779.26
520.004	1899.58
520.21	1810.07
520.417	1882.53
520.623	1903.65
520.829	1920.12
521.035	1910.43
521.241	1899
521.447	1941.43
521.653	2037.91
521.859	1937.55
522.065	1956.35
522.271	2083.44
522.477	1992.19
522.683	2059.23
522.889	1979.21
523.095	1961.58
523.301	1934.65
523.507	1964.87
523.713	1964.87
523.919	1926.32
524.125	2031.33
524.331	2029.2
524.537	2144.86
524.742	2146.99
524.948	2091.78
525.154	2136.34
525.36	2217.13
525.566	2069.11
525.772	2155.13
525.977	2052.45
526.183	2134.21
526.389	2168.5
526.595	2101.46
526.8	2037.14
527.006	1960.61
527.212	1950.73
527.417	1897.83
527.623	1894.73
527.829	2001.1
528.034	2076.86
528.24	2025.51
528.446	2042.56
528.651	2209.57
528.857	2173.34
529.062	2208.99
529.268	2181.29
529.473	2204.15
529.679	2230.69
529.884	2322.53
530.09	2275.45
530.295	2288.62
530.501	2281.84
530.706	2248.9
530.912	2179.74
531.117	2249.87
531.323	2291.72
531.528	2296.76
531.733	2326.79
531.939	2287.07
532.144	2314
532.35	2285.33
532.555	2296.57
532.76	2279.32
532.966	2312.45
533.171	2238.25
533.376	2196.79
533.581	2184.39
533.787	2228.37
533.992	2297.15
534.197	2303.93
534.402	2252.97
534.607	2295.4
534.813	2369.22
535.018	2265.95
535.223	2288.24
535.428	2314.78
535.633	2354.11
535.838	2342.48
536.043	2368.25
536.249	2452.92
536.454	2333.77
536.659	2390.53
536.864	2358.95
537.069	2335.9
537.274	2323.5
537.479	2337.25
537.684	2313.04
537.889	2267.89
538.094	2419.21
538.299	2333.57
538.504	2356.63
538.708	2358.76
538.913	2420.37
539.118	2384.72
539.323	2390.92
539.528	2347.13
539.733	2354.5
539.938	2333.57
540.142	2365.35
540.347	2326.79
540.552	2281.84
540.757	2298.5
540.962	2306.84
541.166	2224.69
541.371	2212.29
541.576	2286.69
541.781	2222.94
541.985	2317.1
542.19	2291.53
542.395	2414.95
542.599	2442.85
542.804	2370.19
543.008	2395.77
543.213	2351.2
543.418	2280.68
543.622	2407.2
543.827	2316.72
544.031	2408.94
544.236	2405.45
544.44	2388.4
544.645	2488.76
544.849	2408.36
545.054	2464.55
545.258	2516.08
545.463	2456.41
545.667	2413.78
545.872	2455.25
546.076	2453.5
546.281	2433.16
546.485	2397.51
546.689	2428.9
546.894	2475.01
547.098	2462.22
547.302	2390.73
547.507	2456.02
547.711	2445.95
547.915	2451.18
548.119	2362.63
548.324	2379.49
548.528	2491.09
548.732	2393.63
548.936	2490.31
549.141	2460.48
549.345	2408.75
549.549	2419.21
549.753	2459.51
549.957	2524.41
550.161	2480.63
550.366	2469.78
550.57	2440.91
550.774	2448.46
550.978	2436.84
551.182	2478.88
551.386	2407.78
551.59	2389.57
551.794	2434.32
551.998	2481.01
552.202	2425.21
552.406	2407.39
552.61	2482.56
552.814	2481.6
553.018	2476.75
553.222	2422.5
553.426	2444.2
553.63	2541.08
553.833	2394.6
554.037	2420.37
554.241	2439.75
554.445	2447.5
554.649	2418.43
554.853	2416.11
555.056	2460.28
555.26	2463.19
555.464	2452.73
555.668	2475.2
555.871	2462.41
556.075	2501.16
556.279	2394.6
556.483	2373.68
556.686	2402.74
556.89	2403.71
557.094	2393.05
557.297	2336.28
557.501	2401.97
557.704	2301.99
557.908	2387.43
558.112	2342.29
558.315	2444.59
558.519	2374.65
558.722	2361.86
558.926	2333.96
559.129	2272.15
559.333	2251.62
559.536	2325.63
559.74	2250.65
559.943	2202.6
560.147	2237.09
560.35	2298.89
560.553	2295.79
560.757	2233.02
560.96	2338.42
561.164	2270.99
561.367	2354.11
561.57	2296.95
561.774	2343.65
561.977	2308.39
562.18	2281.45
562.384	2374.84
562.587	2265.18
562.79	2243.87
562.993	2307.03
563.197	2308
563.4	2361.08
563.603	2328.92
563.806	2390.53
564.009	2261.89
564.212	2309.94
564.416	2196.4
564.619	2294.05
564.822	2218.49
565.025	2308
565.228	2238.64
565.431	2279.52
565.634	2176.83
565.837	2226.62
566.04	2197.76
566.243	2194.07
566.446	2095.46
566.649	2198.14
566.852	2122.78
567.055	2154.94
567.258	2193.88
567.461	2233.79
567.664	2228.17
567.867	2164.24
568.07	2194.85
568.273	2208.99
568.475	2189.62
568.678	2111.73
568.881	2110.18
569.084	2136.14
569.287	2025.32
569.489	2057.48
569.692	2103.98
569.895	2153.39
570.098	2037.91
570.3	2054
570.503	2011.76
570.706	2047.21
570.909	2030.16
571.111	1971.85
571.314	1956.35
571.516	1966.23
571.719	1993.16
571.922	1962.74
572.124	1966.42
572.327	1980.18
572.529	1929.03
572.732	1935.62
572.935	2020.09
573.137	2072.4
573.34	2008.27
573.542	2012.15
573.745	2023.77
573.947	1998.2
574.15	2000.52
574.352	1959.25
574.554	2026.68
574.757	1966.81
574.959	1935.62
575.162	1943.17
575.364	1924.77
575.566	2044.7
575.769	1919.73
575.971	1954.02
576.173	1831.96
576.376	1915.85
576.578	1953.44
576.78	1998.78
576.982	1872.26
577.185	1922.05
577.387	1874.59
577.589	1903.26
577.791	1937.94
577.993	1943.75
578.196	1903.07
578.398	1898.22
578.6	1891.63
578.802	1843.39
579.004	1855.02
579.206	1871.49
579.408	1879.24
579.61	1841.07
579.812	1906.94
580.014	1828.67
580.216	1823.24
580.418	1851.53
580.62	1851.34
580.822	1799.41
581.024	1881.75
581.226	1927.87
581.428	1855.79
581.63	1935.81
581.832	1844.55
582.034	1932.32
582.236	1882.72
582.438	1936.78
582.64	1932.52
582.841	1956.54
583.043	2001.49
583.245	1877.69
583.447	1908.49
583.649	1853.27
583.85	1868.58
584.052	1924.96
584.254	1874.78
584.456	1896.09
584.657	1852.89
584.859	1879.24
585.061	1858.89
585.262	1858.5
585.464	1818.01
585.666	1865.48
585.867	1794.18
586.069	1866.64
586.27	1841.26
586.472	1846.49
586.674	1781.59
586.875	1796.31
587.077	1799.99
587.278	1809.68
587.48	1755.62
587.681	1911.98
587.883	1847.85
588.084	1737.22
588.285	1756.98
588.487	1787.59
588.688	1758.53
588.89	1700.99
589.091	1698.28
589.292	1673.28
589.494	1612.64
589.695	1602.37
589.896	1517.32
590.098	1530.88
590.299	1633.56
590.5	1569.82
590.702	1621.75
590.903	1624.26
591.104	1678.71
591.305	1661.46
591.507	1739.74
591.708	1691.11
591.909	1701.76
592.11	1744
592.311	1739.93
592.512	1660.49
592.714	1620.39
592.915	1639.96
593.116	1643.25
593.317	1698.86
593.518	1668.24
593.719	1656.43
593.92	1714.55
594.121	1721.72
594.322	1686.07
594.523	1728.11
594.724	1669.79
594.925	1681.03
595.126	1665.53
595.327	1665.34
595.528	1688.59
595.729	1682.97
595.929	1658.36
596.13	1676.58
596.331	1681.61
596.532	1703.7
596.733	1746.32
596.934	1701.18
597.135	1694.01
597.335	1684.71
597.536	1668.63
597.737	1663.98
597.938	1643.64
598.138	1702.93
598.339	1681.03
598.54	1692.08
598.74	1651.97
598.941	1687.04
599.142	1734.31
599.342	1700.99
599.543	1639.96
599.744	1648.87
599.944	1677.54
600.145	1646.74
600.345	1657.59
600.546	1763.76
600.746	1719.01
600.947	1725.4
601.147	1668.44
601.348	1660.49
601.548	1630.46
601.749	1688.98
601.949	1623.49
602.15	1637.63
602.35	1640.93
602.551	1677.93
602.751	1619.61
602.951	1652.55
603.152	1579.51
603.352	1686.46
603.552	1666.89
603.753	1668.24
603.953	1654.68
604.153	1698.86
604.354	1677.54
604.554	1646.16
604.754	1664.76
604.954	1636.47
605.155	1663.98
605.355	1666.5
605.555	1685.88
605.755	1691.69
605.955	1669.99
606.155	1687.43
606.356	1635.69
606.556	1688.39
606.756	1675.41
606.956	1626.78
607.156	1661.27
607.356	1618.45
607.556	1654.1
607.756	1663.59
607.956	1705.25
608.156	1677.35
608.356	1624.65
608.556	1664.76
608.756	1618.06
608.956	1576.21
609.156	1634.34
609.356	1577.38
609.556	1618.45
609.755	1583.38
609.955	1577.57
610.155	1583
610.355	1584.35
610.555	1554.13
610.755	1601.98
610.954	1507.05
611.154	1558.78
611.354	1610.7
611.554	1532.04
611.753	1539.01
611.953	1470.62
612.153	1563.81
612.352	1563.43
612.552	1473.14
612.752	1496.58
612.951	1537.27
613.151	1549.48
613.351	1515.77
613.55	1502.01
613.75	1590.94
613.949	1501.04
614.149	1520.61
614.348	1537.27
614.548	1472.56
614.747	1446.21
614.947	1464.42
615.146	1409.2
615.346	1525.65
615.545	1486.7
615.745	1486.9
615.944	1521
616.144	1470.04
616.343	1505.5
616.542	1452.22
616.742	1475.47
616.941	1462.1
617.14	1419.09
617.34	1459
617.539	1462.29
617.738	1414.05
617.938	1496
618.137	1440.98
618.336	1411.92
618.535	1442.92
618.734	1444.66
618.934	1455.51
619.133	1427.42
619.332	1469.27
619.531	1429.55
619.73	1465.39
619.929	1483.41
620.128	1476.05
620.328	1504.14
620.527	1423.93
620.726	1448.73
620.925	1445.44
621.124	1443.69
621.323	1461.52
621.522	1398.94
621.721	1411.72
621.92	1361.74
622.119	1432.84
622.318	1424.9
622.517	1418.12
622.715	1421.02
622.914	1394.09
623.113	1378.01
623.312	1351.27
623.511	1438.65
623.71	1413.66
623.909	1395.64
624.107	1444.47
624.306	1349.34
624.505	1361.54
624.704	1380.92
624.902	1360.19
625.101	1424.12
625.3	1361.35
625.499	1347.98
625.697	1361.54
625.896	1336.36
626.095	1407.07
626.293	1316.01
626.492	1333.06
626.69	1368.13
626.889	1347.79
627.088	1398.55
627.286	1341.2
627.485	1326.86
627.683	1329.38
627.882	1357.28
628.08	1302.64
628.279	1312.91
628.477	1386.34
628.676	1285.98
628.874	1365.03
629.073	1309.23
629.271	1315.43
629.469	1338.1
629.668	1311.75
629.866	1314.85
630.065	1307.87
630.263	1330.35
630.461	1267.19
630.66	1308.26
630.858	1332.29
631.056	1359.02
631.254	1369.68
631.453	1276.68
631.651	1326.09
631.849	1283.66
632.047	1314.46
632.245	1281.14
632.444	1287.72
632.642	1279.2
632.84	1345.66
633.038	1249.94
633.236	1249.36
633.434	1243.74
633.632	1266.99
633.83	1260.6
634.028	1315.24
634.227	1296.25
634.425	1361.54
634.623	1323.57
634.821	1318.92
635.019	1268.54
635.216	1288.69
635.414	1301.09
635.612	1281.52
635.81	1273
636.008	1319.31
636.206	1275.52
636.404	1280.75
636.602	1217.39
636.8	1290.05
636.997	1283.27
637.195	1299.74
637.393	1266.03
637.591	1331.71
637.789	1292.18
637.986	1287.53
638.184	1294.12
638.382	1284.24
638.58	1333.06
638.777	1341.2
638.975	1275.71
639.173	1314.07
639.37	1308.46
639.568	1291.79
639.765	1326.67
639.963	1231.93
640.161	1294.31
640.358	1296.83
640.556	1228.83
640.753	1208.48
640.951	1194.92
641.148	1234.64
641.346	1216.04
641.543	1228.05
641.741	1255.76
641.938	1186.4
642.136	1248.2
642.333	1178.45
642.531	1290.63
642.728	1283.85
642.925	1240.06
643.123	1224.56
643.32	1220.11
643.517	1209.26
643.715	1198.99
643.912	1222.24
644.109	1220.69
644.306	1203.64
644.504	1173.41
644.701	1215.46
644.898	1250.33
645.095	1162.95
645.293	1201.89
645.49	1228.63
645.687	1209.45
645.884	1243.55
646.081	1136.21
646.278	1161.79
646.475	1139.51
646.672	1151.33
646.87	1207.32
647.067	1180.58
647.264	1183.3
647.461	1143.96
647.658	1108.7
647.855	1178.06
648.052	1105.8
648.249	1052.9
648.446	1100.95
648.642	1108.9
648.839	1056.58
649.036	1050.97
649.233	1067.24
649.43	1054.26
649.627	1043.02
649.824	1088.36
650.021	1063.17
650.217	1069.95
650.414	1068.79
650.611	1085.65
650.808	1090.88
651.004	1080.22
651.201	1118.39
651.398	1179.42
651.595	1108.7
651.791	1084.68
651.988	1135.05
652.185	1080.8
652.381	1123.43
652.578	1077.9
652.775	1115.87
652.971	1086.81
653.168	1080.03
653.364	1150.75
653.561	1049.03
653.757	1081.38
653.954	1128.46
654.15	1103.28
654.347	1181.75
654.543	1126.53
654.74	1069.95
654.936	1039.53
655.133	1080.22
655.329	1082.35
655.525	1065.3
655.722	1093.2
655.918	1021.9
656.115	1041.08
656.311	950.99
656.507	908.56
656.704	885.31
656.9	892.09
657.096	924.64
657.292	944.4
657.489	1034.3
657.685	978.31
657.881	952.15
658.077	967.27
658.273	1021.52
658.47	1047.67
658.666	998.85
658.862	1019.77
659.058	1017.45
659.254	1068.21
659.45	1018.8
659.646	1066.27
659.842	1023.45
660.038	1071.89
660.234	1012.02
660.43	1045.93
660.626	1117.03
660.822	1087.78
661.018	1104.63
661.214	1065.11
661.41	988.58
661.606	1069.18
661.802	1065.11
661.998	1052.52
662.194	1015.12
662.39	1051.55
662.586	1054.84
662.781	1066.85
662.977	1081.19
663.173	1076.93
663.369	1043.8
663.564	1057.75
663.76	1065.3
663.956	1021.32
664.152	1082.35
664.347	984.51
664.543	1039.15
664.739	996.91
664.934	934.72
665.13	974.24
665.326	1043.22
665.521	1032.95
665.717	975.99
665.912	969.2
666.108	938.79
666.304	1001.17
666.499	985.48
666.695	901.97
666.89	1000.79
667.086	1005.63
667.281	1012.99
667.477	1060.46
667.672	999.43
667.867	985.09
668.063	1000.01
668.258	969.4
668.454	1018.42
668.649	1035.08
668.844	1003.5
669.04	1040.5
669.235	1010.28
669.43	985.87
669.626	918.83
669.821	981.99
670.016	953.32
670.211	995.75
670.407	946.15
670.602	1043.8
670.797	988
670.992	1017.83
671.187	964.36
671.382	992.65
671.578	955.25
671.773	1005.44
671.968	953.9
672.163	994.97
672.358	1021.32
672.553	968.04
672.748	965.91
672.943	1034.69
673.138	1001.95
673.333	994.59
673.528	944.6
673.723	1003.3
673.918	982.96
674.113	938.79
674.308	1049.22
674.503	1004.85
674.698	1020.35
674.892	992.84
675.087	989.94
675.282	1011.25
675.477	950.02
675.672	1011.25
675.867	942.47
676.061	936.07
676.256	927.94
676.451	950.22
676.646	954.29
676.84	916.51
677.035	931.04
677.23	935.49
677.424	966.49
677.619	988.77
677.814	1001.37
678.008	997.1
678.203	919.41
678.397	937.62
678.592	965.33
678.787	1053.68
678.981	935.49
679.176	972.3
679.37	975.4
679.565	925.8
679.759	956.42
679.954	976.37
680.148	1018.42
680.342	1006.99
680.537	969.4
680.731	962.42
680.926	969.4
681.12	994
681.314	945.18
681.509	960.68
681.703	968.24
681.897	1003.5
682.092	968.24
682.286	936.85
682.48	1023.65
682.674	998.65
682.869	939.17
683.063	959.52
683.257	1030.82
683.451	932.2
683.645	960.49
683.839	953.51
684.034	960.1
684.228	1013.38
684.422	889.19
684.616	921.54
684.81	961.65
685.004	951.77
685.198	922.12
685.392	994.39
685.586	919.22
685.78	943.63
685.974	961.84
686.168	991.68
686.362	962.23
686.556	874.07
686.75	888.02
686.944	884.73
687.138	850.82
687.331	750.27
687.525	778.75
687.719	727.99
687.913	817.31
688.107	803.74
688.301	770.61
688.494	783.21
688.688	783.4
688.882	741.75
689.076	727.8
689.269	774.29
689.463	821.18
689.657	793.28
689.85	774.1
690.044	787.08
690.238	778.75
690.431	785.73
690.625	792.31
690.818	847.92
691.012	826.22
691.205	845.79
691.399	796.19
691.593	849.08
691.786	860.71
691.98	864
692.173	903.91
692.366	906.04
692.56	870.2
692.753	937.24
692.947	828.54
693.14	924.26
693.333	904.69
693.527	851.02
693.72	881.44
693.914	867.49
694.107	851.41
694.3	865.55
694.493	865.36
694.687	913.99
694.88	832.42
695.073	901.39
695.266	896.74
695.46	891.12
695.653	957.97
695.846	895.39
696.039	843.66
696.232	882.99
696.425	971.53
696.618	935.69
696.812	944.99
697.005	1003.11
697.198	1070.15
697.391	984.32
697.584	981.8
697.777	1010.86
697.97	1010.67
698.163	1027.91
698.356	1023.26
698.549	1090.3
698.742	1042.83
698.935	997.88
699.127	1029.27
699.32	1008.54
699.513	1025.78
699.706	1055.62
699.899	1066.66
700.092	1058.33
700.285	1120.33
700.477	992.07
700.67	1068.4
700.863	1109.09
701.056	1177.48
701.248	1124.98
701.441	1158.11
701.634	1095.53
701.826	1206.93
702.019	1125.17
702.212	1172.45
702.404	1093.01
702.597	1134.08
702.79	1154.04
702.982	1192.4
703.175	1206.35
703.367	1240.84
703.56	1221.85
703.752	1335.58
703.945	1272.03
704.137	1270.87
704.33	1272.81
704.522	1305.74
704.715	1298.57
704.907	1355.73
705.1	1348.37
705.292	1376.85
705.484	1370.84
705.677	1378.4
705.869	1393.12
706.061	1454.35
706.254	1478.57
706.446	1428
706.638	1425.09
706.831	1528.17
707.023	1441.56
707.215	1558.2
707.407	1521
707.599	1547.54
707.792	1581.25
707.984	1538.82
708.176	1570.21
708.368	1569.05
708.56	1650.61
708.752	1611.09
708.944	1614.38
709.136	1678.51
709.329	1634.34
709.521	1773.06
709.713	1730.82
709.905	1739.93
710.097	1767.25
710.289	1716.29
710.481	1752.72
710.672	1759.11
710.864	1783.72
711.056	1873.42
711.248	1836.22
711.44	1806.58
711.632	1821.69
711.824	1855.4
712.016	1922.05
712.207	1912.56
712.399	1912.37
712.591	2039.08
712.783	1956.93
712.975	1952.67
713.166	1974.95
713.358	1978.82
713.55	2048.18
713.741	2037.91
713.933	2077.24
714.125	2057.29
714.316	2033.85
714.508	2134.4
714.7	2096.23
714.891	2125.68
715.083	2187.68
715.274	2111.54
715.466	2164.82
715.657	2206.28
715.849	2128.59
716.04	2194.07
716.232	2117.16
716.423	2203.37
716.615	2142.73
716.806	2122.19
716.998	2114.64
717.189	2014.47
717.381	1984.44
717.572	1958.48
717.763	1996.45
717.955	1956.54
718.146	1945.88
718.337	1874.39
718.528	1901.52
718.72	1818.98
718.911	1896.48
719.102	1839.32
719.293	1892.22
719.485	1900.74
719.676	1889.31
719.867	1845.14
720.058	1859.47
720.249	1858.12
720.44	1885.44
720.632	1936.97
720.823	2003.81
721.014	2094.29
721.205	2109.79
721.396	2176.83
721.587	2309.16
721.778	2291.14
721.969	2377.36
722.16	2452.73
722.351	2392.47
722.542	2536.04
722.733	2564.33
722.924	2482.37
723.115	2557.35
723.305	2510.66
723.496	2551.54
723.687	2413.59
723.878	2441.1
724.069	2444.78
724.26	2515.69
724.45	2407.2
724.641	2410.49
724.832	2449.63
725.023	2416.3
725.213	2446.14
725.404	2448.08
725.595	2428.9
725.785	2427.35
725.976	2500.39
726.167	2529.64
726.357	2479.27
726.548	2594.74
726.739	2538.17
726.929	2608.89
727.12	2594.16
727.31	2696.07
727.501	2605.59
727.691	2616.83
727.882	2680.19
728.072	2690.45
728.263	2705.57
728.453	2743.54
728.644	2770.67
728.834	2728.04
729.024	2760.59
729.215	2669.92
729.405	2767.37
729.596	2803.8
729.786	2807.87
729.976	2881.49
730.167	2879.75
730.357	2849.91
730.547	2853.78
730.737	2916.75
730.928	2916.56
731.118	2989.6
731.308	2934.96
731.498	2938.84
731.688	3065.16
731.879	3038.42
732.069	3095.19
732.259	3100.23
732.449	3133.17
732.639	3231.78
732.829	3255.62
733.019	3272.28
733.209	3367.6
733.399	3360.63
733.589	3470.87
733.779	3437.93
733.969	3393.56
734.159	3522.79
734.349	3554.76
734.539	3611.92
734.729	3591.38
734.919	3651.83
735.109	3669.85
735.299	3593.7
735.488	3618.7
735.678	3613.85
735.868	3660.16
736.058	3665.2
736.248	3615.79
736.437	3623.54
736.627	3599.13
736.817	3763.43
737.007	3702.78
737.196	3751.61
737.386	3728.16
737.576	3667.13
737.765	3738.24
737.955	3741.73
738.144	3859.33
738.334	3809.34
738.524	3768.85
738.713	3788.61
738.903	3770.21
739.092	3883.16
739.282	3832.79
739.471	3862.43
739.661	3827.75
739.85	3885.49
740.04	3905.25
740.229	3894.98
740.419	3951.17
740.608	3974.61
740.797	3916.87
740.987	3986.43
741.176	3947.49
741.365	3937.41
741.555	3871.34
741.744	4052.69
741.933	3969.96
742.123	4027.12
742.312	4054.63
742.501	4067.22
742.69	4099.97
742.88	3966.86
743.069	4123.99
743.258	4057.73
743.447	4131.35
743.636	4082.92
743.825	4073.62
744.014	4107.72
744.204	4115.27
744.393	4080.01
744.582	4186.57
744.771	4183.66
744.96	4146.66
745.149	4192.58
745.338	4098.42
745.527	4174.75
745.716	4167.78
745.905	4121.86
746.094	4180.18
746.283	4217.38
746.471	4199.55
746.66	4249.15
746.849	4206.53
747.038	4239.66
747.227	4138.52
747.416	4204.2
747.604	4158.67
747.793	4166.23
747.982	4211.18
748.171	4251.09
748.359	4251.28
748.548	4206.33
748.737	4197.03
748.926	4176.5
749.114	4064.7
749.303	4175.72
749.491	4192.19
749.68	4131.16
749.869	4241.4
750.057	4169.91
750.246	4154.22
750.434	4171.65
750.623	4147.82
750.811	4108.1
751	4195.29
751.188	4100.16
751.377	4142.78
751.565	4094.93
751.754	4121.28
751.942	4090.47
752.131	4153.83
752.319	4083.5
752.507	4098.61
752.696	4125.35
752.884	4141.23
753.072	4092.99
753.261	4136.58
753.449	4179.79
753.637	4127.28
753.825	4171.85
754.014	4125.35
754.202	4165.26
754.39	4139.3
754.578	4165.84
754.766	4105.78
754.955	4078.65
755.143	4170.49
755.331	4121.67
755.519	4123.02
755.707	4063.54
755.895	4075.75
756.083	4087.57
756.271	4056.18
756.459	4092.41
756.647	4111.98
756.835	4080.01
757.023	4093.77
757.211	4040.87
757.399	4037.19
757.587	4066.45
757.775	4028.86
757.963	4019.75
758.151	4019.17
758.339	3969.38
758.526	3986.82
758.714	4006.39
758.902	3891.3
759.09	3883.55
759.278	3673.33
759.465	3447.81
759.653	3088.41
759.841	2850.3
760.028	2452.53
760.216	2202.21
760.404	2071.04
760.591	1815.69
760.779	1556.84
760.967	1386.92
761.154	1229.99
761.342	1290.82
761.529	1296.64
761.717	1376.46
761.905	1374.33
762.092	1475.85
762.28	1454.93
762.467	1495.03
762.655	1397.58
762.842	1447.95
763.029	1489.61
763.217	1535.72
763.404	1506.66
763.592	1564.4
763.779	1519.25
763.966	1571.56
764.154	1634.14
764.341	1680.06
764.528	1668.05
764.716	1776.36
764.903	1824.4
765.09	1863.54
765.277	1951.12
765.465	2085.19
765.652	2153.97
765.839	2243.09
766.026	2366.12
766.213	2393.25
766.4	2502.52
766.588	2691.62
766.775	2684.84
766.962	2789.07
767.149	2848.36
767.336	2993.09
767.523	2971.39
767.71	3072.72
767.897	3188.77
768.084	3241.47
768.271	3237.79
768.458	3361.79
768.645	3404.8
768.832	3347.45
769.019	3397.63
769.206	3431.73
769.392	3524.15
769.579	3584.21
769.766	3537.52
769.953	3520.08
770.14	3571.42
770.327	3561.15
770.513	3598.35
770.7	3648.53
770.887	3544.11
771.073	3590.99
771.26	3596.8
771.447	3568.13
771.634	3556.12
771.82	3703.56
772.007	3583.82
772.193	3602.04
772.38	3631.87
772.567	3591.38
772.753	3598.35
772.94	3640.01
773.126	3665.78
773.313	3606.49
773.499	3610.95
773.686	3597.19
773.872	3553.21
774.059	3667.72
774.245	3560.96
774.432	3569.49
774.618	3449.75
774.804	3577.62
774.991	3471.45
775.177	3541.97
775.363	3478.23
775.55	3601.26
775.736	3473.77
775.922	3546.82
776.109	3523.57
776.295	3512.72
776.481	3478.04
776.667	3532.48
776.853	3433.67
777.04	3498.19
777.226	3462.54
777.412	3530.74
777.598	3433.48
777.784	3438.13
777.97	3426.69
778.156	3473.19
778.342	3451.88
778.528	3439.29
778.715	3395.69
778.901	3386.59
779.087	3400.93
779.272	3373.8
779.458	3404.22
779.644	3394.34
779.83	3349.39
780.016	3463.7
780.202	3355.78
780.388	3360.43
780.574	3281.77
780.76	3312.19
780.946	3388.14
781.131	3322.65
781.317	3324.78
781.503	3281
781.689	3286.23
781.874	3438.9
782.06	3249.22
782.246	3325.56
782.432	3243.8
782.617	3300.37
782.803	3370.31
782.989	3227.13
783.174	3221.13
783.36	3198.07
783.545	3199.62
783.731	3212.22
783.916	3125.03
784.102	3223.65
784.288	3164.75
784.473	3245.73
784.659	3160.1
784.844	3221.71
785.029	3191.87
785.215	3151.19
785.4	3117.09
785.586	3214.73
785.771	3091.32
785.956	3175.99
786.142	3138.98
786.327	3108.56
786.512	3147.31
786.698	3097.91
786.883	3045.79
787.068	3073.49
787.254	3098.49
787.439	3029.51
787.624	3083.96
787.809	3026.61
787.994	3046.17
788.18	3129.29
788.365	2972.55
788.55	3019.44
788.735	3011.49
788.92	2999.48
789.105	3019.24
789.29	3019.24
789.475	2961.89
789.66	2979.72
789.845	2940.39
790.03	2905.32
790.215	2993.48
790.4	2986.5
790.585	2992.51
790.77	2927.41
790.955	2848.36
791.14	2949.3
791.325	3007.43
791.51	2786.75
791.695	2888.66
791.879	2909.39
792.064	2850.68
792.249	2935.16
792.434	2871.8
792.618	2890.98
792.803	2952.59
792.988	2899.7
793.173	2925.28
793.357	2945.62
793.542	2842.55
793.727	2888.27
793.911	2949.3
794.096	2908.81
794.281	2929.93
794.465	2988.24
794.65	2867.35
794.834	2929.15
795.019	2962.09
795.203	2947.36
795.388	2974.88
795.572	2964.99
795.757	2951.24
795.941	2973.52
796.126	2947.56
796.31	2876.65
796.494	2944.84
796.679	2968.87
796.863	2886.33
797.048	2996.77
797.232	2973.33
797.416	2993.28
797.601	2924.89
797.785	2994.25
797.969	3013.63
798.153	2931.28
798.338	2986.11
798.522	3046.17
798.706	2982.82
798.89	2978.94
799.074	3083.76
799.258	3036.1
799.443	2977.01
799.627	2986.11
799.811	3025.06
799.995	2967.51
800.179	2926.63
800.363	2927.6
800.547	2963.06
800.731	3037.07
800.915	2906.1
801.099	2913.07
801.283	2884.98
801.467	2951.04
801.651	2946.2
801.835	3053.73
802.019	2958.99
802.202	2969.45
802.386	2926.63
802.57	2906.48
802.754	2940.58
802.938	2871.03
803.121	2889.05
803.305	2986.11
803.489	2951.43
803.673	2990.18
803.856	2946.98
804.04	2935.74
804.224	3000.06
804.407	2960.54
804.591	2945.43
804.775	2962.67
804.958	2926.83
805.142	3026.61
805.326	2931.86
805.509	2971.58
805.693	3007.04
805.876	2972.55
806.06	2941.94
806.243	2978.56
806.427	3024.28
806.61	3028.74
806.794	2969.06
806.977	3001.23
807.16	2969.26
807.344	2989.6
807.527	2965.96
807.71	2925.08
807.894	2943.29
808.077	2964.41
808.26	2909.39
808.444	2910.36
808.627	2962.67
808.81	2916.75
808.993	2850.68
809.177	2843.52
809.36	2863.28
809.543	2901.64
809.726	2780.74
809.909	2819.3
810.092	2752.07
810.276	2788.88
810.459	2778.03
810.642	2785.2
810.825	2723.78
811.008	2772.22
811.191	2654.81
811.374	2727.07
811.557	2658.87
811.74	2749.16
811.923	2611.79
812.106	2605.79
812.289	2615.67
812.472	2630.59
812.654	2649.38
812.837	2591.06
813.02	2550.38
813.203	2547.47
813.386	2451.18
813.569	2406.81
813.751	2359.73
813.934	2375.03
814.117	2370.97
814.3	2322.14
814.482	2289.01
814.665	2266.92
814.848	2190.01
815.03	2153.97
815.213	2166.56
815.396	2135.95
815.578	2089.45
815.761	2083.25
815.943	2165.01
816.126	2032.3
816.309	1988.7
816.491	1941.43
816.674	1887.57
816.856	1934.45
817.039	1890.47
817.221	2016.41
817.403	1945.5
817.586	1978.63
817.768	2028.61
817.951	1906.94
818.133	1865.87
818.315	1891.25
818.498	1976.88
818.68	2004.98
818.862	2003.23
819.045	2010.01
819.227	1986.57
819.409	1930.19
819.591	1960.8
819.774	1950.92
819.956	1927.28
820.138	2035.2
820.32	1978.43
820.502	2081.89
820.684	2110.76
820.866	2095.07
821.048	2180.12
821.231	2161.91
821.413	2138.28
821.595	2146.03
821.777	2145.64
821.959	2147.19
822.141	2154.36
822.323	2094.1
822.505	2026.68
822.686	1962.93
822.868	1878.46
823.05	1773.64
823.232	1753.88
823.414	1681.81
823.596	1727.72
823.778	1720.75
823.96	1779.84
824.141	1804.06
824.323	1774.22
824.505	1876.91
824.687	1904.03
824.868	1950.53
825.05	2045.28
825.232	2031.91
825.413	2121.23
825.595	2078.41
825.777	2033.46
825.958	2086.16
826.14	2060.78
826.321	2070.27
826.503	2026.87
826.685	2078.02
826.866	2125.88
827.048	2078.79
827.229	2016.6
827.411	2010.4
827.592	1961.97
827.773	1951.12
827.955	1929.22
828.136	1893.57
828.318	1863.74
828.499	1923.6
828.68	1838.16
828.862	1904.42
829.043	1928.25
829.224	1896.67
829.406	1839.52
829.587	1868.19
829.768	1862.19
829.949	1879.04
830.131	1865.48
830.312	1914.11
830.493	1875.75
830.674	1894.93
830.855	1852.3
831.036	1854.44
831.218	1911.59
831.399	1952.86
831.58	1912.75
831.761	1894.73
831.942	1890.28
832.123	1896.09
832.304	1807.35
832.485	1826.73
832.666	1847.85
832.847	1850.95
833.028	1856.37
833.209	1873.42
833.389	1804.25
833.57	1800.57
833.751	1783.14
833.932	1876.52
834.113	1841.26
834.294	1835.84
834.475	1880.59
834.655	1900.16
834.836	1907.72
835.017	1868
835.198	1811.04
835.378	1849.2
835.559	1901.9
835.74	1883.3
835.92	1876.72
836.101	1876.52
836.281	1908.1
836.462	1898.61
836.643	1955.77
836.823	1900.74
837.004	1938.33
837.184	1966.42
837.365	1947.24
837.545	1950.15
837.726	1847.07
837.906	1974.36
838.087	1950.53
838.267	1893.18
838.448	1875.17
838.628	1897.45
838.808	1894.15
838.989	1954.22
839.169	1850.56
839.349	1900.55
839.53	1956.15
839.71	1926.7
839.89	1843.59
840.07	1977.08
840.251	1862.19
840.431	1947.24
840.611	1880.2
840.791	1882.72
840.971	1894.93
841.151	1865.87
841.332	1846.69
841.512	1947.63
841.692	1838.16
841.872	1875.75
842.052	1844.36
842.232	1916.43
842.412	1783.52
842.592	1873.81
842.772	1860.44
842.952	1857.15
843.132	1850.95
843.312	1805.8
843.492	1817.62
843.672	1861.6
843.851	1762.6
844.031	1819.17
844.211	1804.64
844.391	1784.49
844.571	1801.74
844.751	1807.55
844.93	1845.14
845.11	1809.49
845.29	1801.74
845.47	1859.09
845.649	1818.2
845.829	1822.66
846.009	1779.46
846.188	1831.57
846.368	1828.09
846.547	1810.26
846.727	1844.17
846.907	1729.27
847.086	1776.55
847.266	1810.26
847.445	1794.76
847.625	1759.69
847.804	1764.73
847.984	1761.05
848.163	1723.07
848.343	1736.83
848.522	1766.09
848.701	1751.17
848.881	1729.86
849.06	1752.52
849.239	1750.2
849.419	1761.44
849.598	1658.94
849.777	1666.11
849.957	1680.64
850.136	1608.57
850.315	1559.16
850.494	1573.7
850.674	1579.12
850.853	1649.06
851.032	1607.21
851.211	1696.92
851.39	1644.41
851.569	1565.56
851.748	1563.23
851.927	1677.74
852.107	1647.32
852.286	1561.88
852.465	1563.81
852.644	1673.28
852.823	1604.89
853.002	1607.99
853.181	1606.25
853.359	1614.38
853.538	1559.75
853.717	1631.24
853.896	1504.72
854.075	1447.18
854.254	1415.79
854.433	1370.45
854.611	1393.32
854.79	1338.68
854.969	1406.3
855.148	1448.34
855.327	1411.14
855.505	1436.91
855.684	1413.08
855.863	1470.43
856.041	1440.59
856.22	1485.73
856.399	1472.75
856.577	1568.08
856.756	1522.74
856.934	1667.28
857.113	1661.08
857.291	1546.96
857.47	1515.18
857.648	1512.08
857.827	1545.99
858.005	1579.12
858.184	1499.88
858.362	1615.16
858.541	1532.43
858.719	1561.1
858.898	1533.4
859.076	1491.74
859.254	1589.39
859.433	1527.39
859.611	1488.25
859.789	1448.73
859.967	1565.56
860.146	1565.95
860.324	1457.25
860.502	1486.7
860.68	1442.72
860.859	1470.04
861.037	1494.84
861.215	1494.65
861.393	1479.53
861.571	1482.63
861.749	1485.73
861.927	1513.44
862.105	1488.83
862.283	1440.4
862.461	1416.76
862.639	1405.72
862.817	1436.72
862.995	1440.98
863.173	1449.89
863.351	1456.67
863.529	1443.3
863.707	1522.35
863.885	1462.48
864.063	1348.56
864.241	1430.52
864.418	1505.11
864.596	1402.62
864.774	1368.9
864.952	1404.94
865.129	1423.15
865.307	1403.59
865.485	1327.64
865.663	1426.64
865.84	1322.21
866.018	1365.03
866.196	1262.73
866.373	1221.08
866.551	1203.25
866.728	1151.33
866.906	1217.59
867.084	1259.63
867.261	1273.39
867.439	1265.44
867.616	1325.89
867.794	1256.53
867.971	1332.67
868.149	1289.47
868.326	1341.01
868.503	1326.09
868.681	1358.44
868.858	1296.64
869.035	1282.49
869.213	1348.56
869.39	1309.81
869.567	1381.69
869.745	1298.38
869.922	1312.52
870.099	1352.63
870.276	1324.73
870.454	1338.1
870.631	1366.39
870.808	1276.68
870.985	1356.31
871.162	1386.73
871.339	1319.5
871.517	1256.14
871.694	1236.58
871.871	1287.34
872.048	1232.12
872.225	1263.51
872.402	1305.36
872.579	1218.56
872.756	1298.96
872.933	1229.21
873.11	1242.39
873.287	1280.56
873.463	1218.17
873.64	1253.24
873.817	1280.94
873.994	1255.37
874.171	1232.12
874.348	1237.93
874.524	1164.89
874.701	1249.17
874.878	1170.51
875.055	1239.29
875.231	1213.71
875.408	1282.69
875.585	1148.61
875.762	1179.03
875.938	1157.33
876.115	1186.2
876.291	1188.14
876.468	1200.34
876.645	1158.3
876.821	1190.08
876.998	1168.76
877.174	1188.53
877.351	1138.93
877.527	1129.82
877.704	1188.33
877.88	1169.35
878.057	1141.25
878.233	1199.57
878.409	1168.76
878.586	1187.94
878.762	1172.83
878.938	1172.83
879.115	1073.05
879.291	1124.2
879.467	1083.32
879.644	1126.14
879.82	1150.16
879.996	1111.61
880.172	1073.83
880.349	1157.33
880.525	1155.78
880.701	1077.51
880.877	1059.88
881.053	1092.62
881.229	1086.42
881.405	1152.88
881.581	1054.84
881.757	1079.64
881.933	1106.76
882.109	1156.95
882.285	1117.61
882.461	1066.08
882.637	1053.87
882.813	1043.99
882.989	1092.82
883.165	1187.75
883.341	1060.85
883.517	1126.33
883.693	1152.68
883.869	1102.31
884.044	1101.53
884.22	1107.15
884.396	1136.8
884.572	1126.53
884.747	1118
884.923	1119.75
885.099	1136.02
885.275	1139.9
885.45	1073.44
885.626	1068.02
885.801	1065.11
885.977	1095.53
886.153	1061.62
886.328	1140.28
886.504	1080.61
886.679	1077.9
886.855	1086.03
887.03	1081.19
887.206	1135.83
887.381	1117.23
887.557	1153.65
887.732	1095.33
887.908	1132.15
888.083	1121.88
888.258	1098.05
888.434	1042.83
888.609	1069.37
888.784	1161.21
888.96	1079.25
889.135	1072.67
889.31	1066.47
889.485	1084.68
889.661	1083.32
889.836	1115.1
890.011	1108.31
890.186	1079.06
890.361	1078.09
890.537	1117.03
890.712	1087.2
890.887	1110.64
891.062	1103.28
891.237	1166.05
891.412	1034.88
891.587	1085.84
891.762	1138.93
891.937	1119.36
892.112	1040.7
892.287	1062.59
892.462	1017.64
892.637	1013.57
892.812	997.3
892.987	1029.65
893.161	1003.3
893.336	988.39
893.511	1024.23
893.686	1032.75
893.861	987.22
894.035	1009.7
894.21	1019.58
894.385	939.75
894.56	1003.11
894.734	925.22
894.909	925.42
895.084	964.94
895.258	954.87
895.433	956.61
895.608	935.69
895.782	877.95
895.957	876.59
896.131	887.64
896.306	838.23
896.48	838.81
896.655	831.64
896.829	767.13
897.004	790.57
897.178	785.73
897.353	771.78
897.527	831.06
897.701	805.88
897.876	733.22
898.05	868.26
898.224	813.43
898.399	820.6
898.573	797.16
898.747	681.49
898.921	745.23
899.096	647.97
899.27	644.87
899.444	656.11
899.618	688.66
899.792	687.11
899.967	684.2
900.141	707.65
900.315	696.02
900.489	695.25
900.663	703.77
900.837	698.73
901.011	651.07
901.185	729.93
901.359	696.02
901.533	710.94
901.707	714.23
901.881	694.66
902.055	668.12
902.229	649.13
902.403	769.64
902.576	698.35
902.75	732.45
902.924	817.89
903.098	745.62
903.272	769.45
903.446	838.42
903.619	810.91
903.793	829.71
903.967	818.28
904.14	817.5
904.314	853.34
904.488	826.41
904.661	886.09
904.835	860.12
905.009	902.17
905.182	902.36
905.356	858.38
905.529	848.31
905.703	837.07
905.876	813.82
906.05	802.78
906.223	752.98
906.397	726.83
906.57	715.98
906.744	666.96
906.917	679.94
907.09	675.48
907.264	689.63
907.437	650.3
907.61	630.92
907.784	633.05
907.957	649.72
908.13	606.32
908.304	682.26
908.477	642.35
908.65	646.42
908.823	587.52
908.996	679.55
909.17	646.03
909.343	645.07
909.516	614.65
909.689	604.77
909.862	597.6
910.035	618.72
910.208	572.41
910.381	597.4
910.554	684.2
910.727	599.34
910.9	583.65
911.073	594.11
911.246	656.5
911.419	667.54
911.592	661.73
911.765	579
911.938	588.3
912.11	579.58
912.283	585
912.456	692.53
912.629	616.97
912.802	595.08
912.974	554.78
913.147	529.4
913.32	464.3
913.493	503.82
913.665	511.19
913.838	551.87
914.01	541.41
914.183	548.39
914.356	571.05
914.528	590.23
914.701	603.02
914.873	598.37
915.046	520.87
915.218	505.76
915.391	451.9
915.563	450.93
915.736	512.74
915.908	514.48
916.081	515.84
916.253	531.14
916.425	544.51
916.598	550.52
916.77	518.55
916.942	495.49
917.115	447.25
917.287	547.61
917.459	509.05
917.632	455.97
917.804	415.67
917.976	484.26
918.148	503.05
918.32	520.29
918.493	530.37
918.665	561.17
918.837	500.92
919.009	567.95
919.181	561.37
919.353	546.06
919.525	561.37
919.697	527.07
919.869	520.87
920.041	574.35
920.213	668.9
920.385	568.54
920.557	519.32
920.729	591.4
920.901	556.52
921.073	534.63
921.244	539.28
921.416	586.36
921.588	530.56
921.76	511.38
921.932	597.98
922.103	537.73
922.275	533.08
922.447	533.08
922.619	486.58
922.79	536.18
922.962	516.22
923.134	547.22
923.305	476.12
923.477	460.81
923.648	481.16
923.82	489.49
923.991	410.63
924.163	451.71
924.335	478.83
924.506	429.23
924.677	496.27
924.849	471.66
925.02	488.71
925.192	507.89
925.363	491.42
925.535	489.68
925.706	438.14
925.877	522.81
926.049	442.41
926.22	491.81
926.391	452.48
926.562	501.69
926.734	446.47
926.905	511.19
927.076	390.09
927.247	428.07
927.419	394.55
927.59	396.49
927.761	413.92
927.932	375.37
928.103	393.78
928.274	357.93
928.445	369.94
928.616	354.25
928.787	368.59
928.958	369.17
929.129	330.03
929.3	329.45
929.471	276.17
929.642	256.02
929.813	238.58
929.984	287.6
930.155	220.57
930.326	289.73
930.496	228.51
930.667	186.85
930.838	236.65
931.009	213.2
931.18	206.81
931.35	205.84
931.521	204.29
931.692	170.19
931.863	103.74
932.033	153.92
932.204	180.46
932.374	157.98
932.545	129.5
932.716	184.72
932.886	187.24
933.057	92.5
933.227	138.22
933.398	186.66
933.568	97.73
933.739	50.84
933.909	76.8
934.08	153.72
934.25	36.12
934.421	78.94
934.591	87.46
934.761	53.55
934.932	24.11
935.102	92.3
935.272	72.35
935.443	81.45
935.613	50.84
935.783	60.34
935.953	24.11
936.123	216.5
936.294	59.17
936.464	67.7
936.634	98.89
936.804	19.07
936.974	15
937.144	83.39
937.314	63.63
937.484	60.53
937.655	49.29
937.825	115.55
937.995	38.64
938.165	124.08
938.334	80.1
938.504	101.02
938.674	79.13
938.844	69.05
939.014	158.95
939.184	162.63
939.354	207.97
939.524	164.96
939.694	124.27
939.863	129.89
940.033	187.43
940.203	192.67
940.373	177.55
940.542	204.29
940.712	105.67
940.882	163.02
941.051	193.63
941.221	165.93
941.391	156.05
941.56	149.85
941.73	111.29
941.899	217.66
942.069	120.59
942.238	162.25
942.408	117.3
942.577	131.05
942.747	105.09
942.916	67.89
943.086	84.17
943.255	148.1
943.425	129.31
943.594	98.89
943.763	34.37
943.933	65.18
944.102	17.71
944.271	89.2
944.441	116.33
944.61	77.58
944.779	93.85
944.948	181.43
945.117	40.96
945.287	70.02
945.456	12.29
945.625	82.42
945.794	101.22
945.963	69.05
946.132	92.5
946.301	59.56
946.47	116.33
946.639	49.29
946.808	80.49
946.977	118.85
947.146	137.64
947.315	73.9
947.484	112.84
947.653	105.09
947.822	63.24
947.991	60.53
948.16	172.71
948.329	121.75
948.498	85.91
948.666	94.05
948.835	127.95
949.004	57.04
949.173	86.88
949.341	103.35
949.51	106.64
949.679	141.52
949.847	110.71
950.016	169.8
950.185	174.65
950.353	81.84
950.522	75.84
950.69	167.09
950.859	82.04
951.028	123.5
951.196	118.27
951.365	89.4
951.533	101.6
951.701	122.34
951.87	143.07
952.038	66.15
952.207	88.04
952.375	159.15
952.543	99.86
952.712	70.22
952.88	65.95
953.048	172.9
953.217	86.69
953.385	111.49
953.553	140.16
953.721	66.15
953.89	81.45
954.058	32.24
954.226	81.07
954.394	86.49
954.562	40.77
954.73	77
954.898	106.45
955.067	117.3
955.235	80.29
955.403	122.53
955.571	143.07
955.739	141.9
955.907	66.34
956.075	114.78
956.243	70.8
956.41	137.45
956.578	29.92
956.746	53.55
956.914	74.48
957.082	110.9
957.25	122.53
957.418	66.15
957.585	87.65
957.753	153.14
957.921	49.29
958.089	76.22
958.256	119.62
958.424	120.2
958.592	100.05
958.759	67.12
958.927	137.64
959.095	64.79
959.262	93.08
959.43	77
959.597	92.11
959.765	110.71
959.932	48.91
960.1	136.48
960.267	104.12
960.435	86.1
960.602	112.07
960.77	68.86
960.937	36.7
961.104	115.55
961.272	91.72
961.439	59.17
961.606	127.18
961.774	123.3
961.941	86.49
962.108	102.57
962.275	110.13
962.443	146.94
962.61	112.65
962.777	144.42
962.944	134.35
963.111	126.02
963.278	122.53
963.446	105.48
963.613	103.93
963.78	95.4
963.947	109.55
964.114	133.19
964.281	200.61
964.448	126.21
964.615	86.1
964.782	124.66
964.949	133.19
965.116	106.06
965.282	160.7
965.449	107.8
965.616	88.82
965.783	135.32
965.95	128.15
966.117	59.56
966.283	115.36
966.45	120.2
966.617	96.57
966.784	145.78
966.95	131.83
967.117	147.33
967.284	85.14
967.45	73.51
967.617	190.34
967.784	122.53
967.95	184.14
968.117	97.15
968.283	165.54
968.45	186.27
968.616	142.48
968.783	166.32
968.949	135.9
969.116	162.83
969.282	127.95
969.449	140.74
969.615	131.44
969.781	66.34
969.948	112.07
970.114	72.54
970.28	169.03
970.447	136.87
970.613	161.08
970.779	146.36
970.945	142.29
971.112	126.4
971.278	120.4
971.444	148.1
971.61	165.15
971.776	88.82
971.942	153.33
972.108	144.62
972.275	145.97
972.441	142.48
972.607	199.83
972.773	93.08
972.939	117.69
973.105	127.18
973.271	63.05
973.437	100.25
973.602	116.52
973.768	118.85
973.934	90.95
974.1	143.26
974.266	35.34
974.432	131.44
974.598	90.56
974.763	122.53
974.929	105.67
975.095	159.53
975.261	77.77
975.426	61.3
975.592	92.3
975.758	154.5
975.923	62.85
976.089	73.12
976.255	126.02
976.42	126.02
976.586	130.09
976.751	103.54
976.917	220.57
977.082	137.06
977.248	74.87
977.413	71.96
977.579	95.99
977.744	122.34
977.91	67.5
978.075	71.38
978.24	136.67
978.406	113.42
978.571	83.78
978.736	83.97
978.902	121.37
979.067	82.62
979.232	30.69
979.397	106.06
979.563	168.83
979.728	89.59
979.893	96.57
980.058	94.05
980.223	139.38
980.388	110.32
980.554	96.76
980.719	66.54
980.884	101.41
981.049	135.7
981.214	51.04
981.379	139.58
981.544	75.25
981.709	86.88
981.874	74.29
982.039	106.25
982.204	125.82
982.368	124.27
982.533	88.82
982.698	96.76
982.863	153.92
983.028	110.9
983.193	121.75
983.357	109.16
983.522	101.99
983.687	97.15
983.852	71.38
984.016	62.47
984.181	94.44
984.346	125.44
984.51	102.19
984.675	107.03
984.839	122.34
985.004	105.48
985.168	137.84
985.333	112.07
985.498	85.33
985.662	113.42
985.827	139.19
985.991	79.32
986.155	88.24
986.32	126.21
986.484	161.28
986.649	112.65
986.813	53.94
986.977	115.94
987.142	101.8
987.306	54.33
987.47	57.43
987.634	69.64
987.799	123.11
987.963	100.44
988.127	112.07
988.291	167.87
988.455	114.2
988.62	85.72
988.784	115.94
988.948	132.22
989.112	74.67
989.276	104.9
989.44	86.3
989.604	67.5
989.768	68.86
989.932	161.28
990.096	50.46
990.26	27.4
990.424	37.28
990.588	99.09
990.752	162.25
990.915	142.1
991.079	95.99
991.243	42.12
991.407	123.3
991.571	92.11
991.734	94.63
991.898	124.47
992.062	166.7
992.226	118.46
992.389	58.4
992.553	69.44
992.717	68.28
992.88	66.73
993.044	94.24
993.207	61.3
993.371	121.17
993.535	103.93
993.698	103.35
993.862	91.72
994.025	124.66
994.189	80.29
994.352	105.29
994.515	84.17
994.679	134.74
994.842	75.06
995.006	122.14
995.169	71.96
995.332	72.15
995.496	111.49
995.659	21.39
995.822	72.54
995.985	72.15
996.149	120.01
996.312	91.14
996.475	139.97
996.638	53.36
996.801	119.62
996.964	126.02
997.128	76.22
997.291	57.43
997.454	83.2
997.617	16.36
997.78	128.34
997.943	52.97
998.106	108.97
998.269	53.94
998.432	41.35
998.595	65.76
998.758	32.05
998.92	24.11
999.083	6.67
999.246	43.09
999.409	8.41
999.572	4.73
999.735	64.02
999.897	86.69
1000.06	51.81
1000.223	71.57
1000.386	90.75
1000.548	82.81
1000.711	94.05
1000.874	85.72
1001.036	14.42
1001.199	88.43
1001.361	60.34
1001.524	52.59
1001.687	98.7
1001.849	18.1
1002.012	73.9
1002.174	82.62
1002.337	85.33
1002.499	53.55
1002.661	83.78
1002.824	25.66
1002.986	29.14
1003.149	52.2
1003.311	31.66
1003.473	119.24
1003.636	37.28
1003.798	77.19
1003.96	87.27
1004.123	54.52
1004.285	45.22
1004.447	39.41
1004.609	20.62
1004.771	114.78
1004.933	7.06
1005.096	42.32
1005.258	11.32
1005.42	15.39
1005.582	68.09
1005.744	65.18
1005.906	28.76
1006.068	62.85
1006.23	-2.83
1006.392	-1.66
1006.554	-12.13
1006.716	94.24
1006.878	63.24
1007.04	-3.79
1007.202	29.92
1007.363	41.16
1007.525	84.17
1007.687	72.54
1007.849	82.23
1008.011	-9.99
1008.172	15.19
1008.334	45.81
1008.496	52.39
1008.658	-5.15
1008.819	11.12
1008.981	-7.67
1009.143	10.54
1009.304	34.76
1009.466	81.84
1009.627	109.74
1009.789	137.25
1009.95	56.27
1010.112	33.79
1010.273	76.8
1010.435	12.87
1010.596	41.93
1010.758	22.75
1010.919	25.46
1011.081	0.27
1011.242	23.91
1011.403	88.62
1011.565	21.97
1011.726	46
1011.887	-12.51
1012.049	13.84
1012.21	69.44
1012.371	77.58
1012.532	-48.94
1012.693	33.41
1012.855	22.36
1013.016	33.21
1013.177	94.44
1013.338	48.13
1013.499	92.11
1013.66	37.47
1013.821	54.52
1013.982	44.45
1014.143	27.79
1014.304	36.51
1014.465	50.07
1014.626	57.43
1014.787	20.81
1014.948	113.81
1015.109	-65.99
1015.27	90.95
1015.431	16.94
1015.592	11.9
1015.752	84.55
1015.913	55.49
1016.074	47.55
1016.235	46.77
1016.395	44.64
1016.556	-1.28
1016.717	13.64
1016.877	92.3
1017.038	-9.03
1017.199	53.75
1017.359	17.52
1017.52	49.87
1017.681	24.3
1017.841	15.58
1018.002	20.23
1018.162	10.16
1018.323	70.99
1018.483	22.94
1018.644	10.93
1018.804	-19.88
1018.964	-10.96
1019.125	20.04
1019.285	29.92
1019.446	-5.34
1019.606	-9.8
1019.766	-22.01
1019.926	37.09
1020.087	40.57
1020.247	-20.84
1020.407	39.41
1020.567	76.61
1020.728	7.06
1020.888	-4.38
1021.048	-21.81
1021.208	-8.25
1021.368	10.35
1021.528	63.24
1021.688	59.75
1021.848	60.34
1022.008	20.42
1022.168	6.47
1022.328	14.42
1022.488	31.08
1022.648	13.64
1022.808	13.64
1022.968	27.98
1023.128	11.12
1023.288	20.04
1023.448	37.28
1023.608	52.59
1023.767	28.56
1023.927	-16.39
1024.087	-3.99
1024.247	-5.15
1024.406	-26.46
1024.566	-26.85
1024.726	-8.06
1024.885	13.45
1025.045	45.03
1025.205	-8.83
1025.364	40.96
1025.524	21.01
1025.683	5.12
1025.843	17.91
1026.003	27.98
1026.162	64.02
1026.321	57.24
1026.481	4.54
1026.64	-0.31
1026.8	18.29
1026.959	16.94
1027.119	11.9
1027.278	5.7
1027.437	3.18
1027.597	18.49
1027.756	40.57
1027.915	5.7
1028.074	30.11
1028.234	-34.02
1028.393	2.6
1028.552	-18.52
1028.711	-50.1
1028.87	46.39
1029.03	-20.65
1029.189	0.27
1029.348	-45.64
1029.507	-22.59
1029.666	4.54
1029.825	-26.27
1029.984	8.22
1030.143	27.79
1030.302	-6.51
1030.461	-60.56
1030.62	27.21
1030.779	55.1
1030.938	-49.91
1031.097	-33.05
1031.255	30.11
1031.414	74.48
1031.573	49.1
1031.732	-46.03
1031.891	-3.99
1032.049	57.82
1032.208	40.38
1032.367	8.8
1032.525	-9.61
1032.684	-3.6
1032.843	5.51
1033.001	-46.22
1033.16	140.55
1033.319	59.17
1033.477	29.53
1033.636	-8.64
1033.794	-26.85
1033.953	29.14
1034.111	19.07
1034.27	-24.53
1034.428	23.72
1034.587	-16.58
1034.745	22.56
1034.903	1.44
1035.062	44.84
1035.22	-31.69
1035.378	20.62
1035.537	-16.58
1035.695	38.25
1035.853	25.85
1036.011	18.87
1036.17	46.58
1036.328	-60.37
1036.486	8.99
1036.644	26.24
1036.802	-68.51
1036.96	-37.51
1037.119	6.09
1037.277	-46.22
1037.435	-40.02
1037.593	-29.37
1037.751	6.47
1037.909	42.12
1038.067	42.12
