Data from gum_old_FLMT105791__45__15-43-07-258.txt Node

Date: Mon Mar 20 15:43:07 GMT 2023
User: antho
Spectrometer: FLMT10579
Trigger mode: 0
Integration Time (sec): 1.000000E-1
Scans to average: 10
Electric dark correction enabled: true
Nonlinearity correction enabled: false
Boxcar width: 0
XAxis mode: Wavelengths
Number of Pixels in Spectrum: 3648
>>>>>Begin Spectral Data<<<<<
345.248	-159.03
345.464	-159.03
345.681	-159.03
345.898	-165.23
346.114	-186.16
346.331	-30.39
346.548	37.62
346.764	7.39
346.981	12.43
347.197	-30.58
347.414	13.79
347.631	-22.44
347.847	39.56
348.064	-9.27
348.28	33.36
348.497	-37.17
348.713	-14.31
348.93	40.91
349.146	37.81
349.363	37.81
349.579	52.93
349.796	31.81
350.012	8.56
350.229	49.24
350.445	35.49
350.661	30.64
350.878	45.95
351.094	50.6
351.311	50.79
351.527	79.47
351.743	27.16
351.96	60.29
352.176	66.29
352.392	55.64
352.609	68.43
352.825	8.94
353.041	45.95
353.257	21.54
353.474	40.91
353.69	50.79
353.906	40.33
354.122	22.89
354.339	106.01
354.555	53.51
354.771	25.61
354.987	71.72
355.203	105.43
355.42	30.06
355.636	47.69
355.852	23.48
356.068	64.55
356.284	8.94
356.5	87.99
356.716	75.59
356.932	44.01
357.148	46.92
357.364	59.9
357.58	81.99
357.796	83.54
358.012	79.66
358.228	82.96
358.444	13.98
358.66	69.39
358.876	79.08
359.092	4.68
359.308	39.75
359.524	70.36
359.74	13.98
359.956	44.01
360.172	50.79
360.388	109.5
360.604	51.96
360.819	139.72
361.035	61.84
361.251	98.07
361.467	33.36
361.683	94.19
361.898	81.21
362.114	89.16
362.33	99.81
362.546	105.43
362.762	77.34
362.977	81.41
363.193	50.02
363.409	93.81
363.624	42.46
363.84	31.61
364.056	77.92
364.271	85.67
364.487	76.17
364.703	74.24
364.918	42.27
365.134	56.61
365.35	66.29
365.565	175.57
365.781	89.35
365.996	96.71
366.212	142.63
366.427	139.92
366.643	77.53
366.858	85.47
367.074	54.67
367.289	121.32
367.505	214.32
367.72	59.71
367.936	88.57
368.151	122.87
368.367	121.32
368.582	119.77
368.798	63
369.013	141.08
369.228	126.55
369.444	114.73
369.659	159.1
369.874	124.03
370.09	152.71
370.305	36.65
370.52	76.37
370.736	179.44
370.951	97.49
371.166	157.36
371.381	161.23
371.597	128.29
371.812	84.7
372.027	71.91
372.242	109.69
372.458	170.72
372.673	112.41
372.888	112.21
373.103	114.92
373.318	187.97
373.533	103.88
373.749	95.16
373.964	28.32
374.179	124.81
374.394	92.64
374.609	144.18
374.824	74.62
375.039	144.76
375.254	95.16
375.469	147.47
375.684	94.39
375.899	169.95
376.114	112.6
376.329	113.57
376.544	165.1
376.759	122.48
376.974	95.94
377.189	125.39
377.404	107.76
377.619	168.98
377.834	70.36
378.049	91.29
378.264	111.24
378.478	154.84
378.693	127.32
378.908	189.71
379.123	154.64
379.338	180.02
379.553	128.68
379.767	151.16
379.982	193
380.197	170.72
380.412	145.54
380.626	168.01
380.841	219.94
381.056	160.07
381.271	200.37
381.485	115.12
381.7	93.81
381.915	168.2
382.129	109.11
382.344	115.51
382.559	135.07
382.773	168.2
382.988	56.8
383.202	126.55
383.417	76.56
383.632	203.85
383.846	128.29
384.061	145.54
384.275	88.38
384.49	142.82
384.704	144.96
384.919	143.79
385.133	149.61
385.348	187.19
385.562	134.3
385.777	205.02
385.991	159.29
386.206	137.21
386.42	145.92
386.634	216.45
386.849	175.18
387.063	165.3
387.277	173.63
387.492	133.72
387.706	139.53
387.92	126.55
388.135	188.74
388.349	176.34
388.563	166.65
388.778	190.87
388.992	221.87
389.206	218.58
389.42	237.95
389.635	196.3
389.849	230.2
390.063	269.15
390.277	212.77
390.491	296.66
390.706	236.21
390.92	258.1
391.134	229.82
391.348	263.53
391.562	200.56
391.776	230.79
391.99	246.48
392.205	267.98
392.419	236.02
392.633	238.34
392.847	270.7
393.061	164.52
393.275	228.27
393.489	160.45
393.703	156.19
393.917	189.32
394.131	115.89
394.345	180.8
394.559	218.39
394.773	201.92
394.986	218.97
395.2	251.9
395.414	285.81
395.628	247.06
395.842	305.38
396.056	273.22
396.27	225.55
396.484	267.4
396.697	242.41
396.911	254.03
397.125	221.68
397.339	219.94
397.553	190.87
397.766	251.13
397.98	232.34
398.194	310.03
398.408	313.9
398.621	313.13
398.835	351.3
399.049	358.08
399.262	381.91
399.476	391.6
399.69	425.11
399.903	432.86
400.117	382.1
400.331	430.54
400.544	391.98
400.758	507.65
400.971	385.98
401.185	440.81
401.398	388.3
401.612	466.19
401.826	447.78
402.039	490.79
402.253	425.31
402.466	466.38
402.68	448.56
402.893	465.41
403.106	429.18
403.32	452.24
403.533	459.6
403.747	426.86
403.96	466.19
404.174	475.29
404.387	427.24
404.6	431.7
404.814	495.25
405.027	474.13
405.24	431.7
405.454	425.69
405.667	500.48
405.88	405.16
406.094	472.19
406.307	492.34
406.52	479.17
406.733	428.6
406.947	430.54
407.16	521.41
407.373	496.99
407.586	437.51
407.799	440.03
408.012	486.34
408.226	488.47
408.439	551.24
408.652	476.84
408.865	525.09
409.078	583.02
409.291	531.87
409.504	515.4
409.717	536.52
409.93	555.51
410.143	516.95
410.357	438.87
410.57	431.31
410.783	474.52
410.996	478.78
411.209	500.09
411.421	572.75
411.634	547.56
411.847	517.14
412.06	568.1
412.273	535.36
412.486	600.84
412.699	635.91
412.912	554.92
413.125	603.94
413.338	588.25
413.55	604.91
413.763	559.38
413.976	569.84
414.189	533.81
414.402	576.43
414.615	629.9
414.827	570.62
415.04	590.38
415.253	607.24
415.466	625.45
415.678	630.29
415.891	599.1
416.104	602.2
416.316	579.34
416.529	587.67
416.742	634.94
416.954	644.82
417.167	617.89
417.38	597.74
417.592	632.81
417.805	561.32
418.017	535.74
418.23	610.92
418.442	568.29
418.655	579.72
418.868	614.99
419.08	646.57
419.293	642.3
419.505	650.05
419.718	611.3
419.93	693.26
420.142	621.19
420.355	668.65
420.567	657.8
420.78	643.47
420.992	630.1
421.205	706.43
421.417	609.17
421.629	662.45
421.842	638.04
422.054	631.84
422.266	687.64
422.479	720.58
422.691	634.94
422.903	667.69
423.115	606.65
423.328	606.07
423.54	635.14
423.752	650.83
423.964	645.99
424.177	684.35
424.389	651.22
424.601	768.43
424.813	702.56
425.025	708.95
425.238	719.61
425.45	677.76
425.662	673.5
425.874	981.17
426.086	676.99
426.298	689.77
426.51	696.75
426.722	669.62
426.934	665.94
427.146	726
427.358	682.6
427.57	683.57
427.782	669.04
427.994	666.52
428.206	645.4
428.418	662.07
428.63	712.05
428.842	749.64
429.054	729.88
429.266	728.33
429.478	660.13
429.69	649.67
429.902	615.57
430.114	681.44
430.325	665.75
430.537	586.12
430.749	589.22
430.961	484.59
431.173	541.17
431.384	559.38
431.596	522.76
431.808	628.55
432.02	713.02
432.231	765.72
432.443	860.85
432.655	803.7
432.867	780.45
433.078	789.55
433.29	838.57
433.502	843.03
433.713	869.76
433.925	849.23
434.136	873.64
434.348	783.74
434.56	705.47
434.771	885.26
434.983	720.38
435.194	776.38
435.406	830.24
435.617	894.76
435.829	917.81
436.04	896.5
436.252	887.01
436.463	932.34
436.675	961.02
436.886	962.76
437.098	970.71
437.309	995.7
437.521	941.45
437.732	925.56
437.943	933.7
438.155	934.28
438.366	843.8
438.578	937.77
438.789	874.8
439	861.24
439.211	851.16
439.423	876.74
439.634	923.82
439.845	941.45
440.057	941.45
440.268	978.26
440.479	934.09
440.69	966.64
440.902	936.03
441.113	958.31
441.324	940.09
441.535	1012.17
441.746	1025.92
441.957	961.41
442.168	1038.32
442.38	1040.45
442.591	1074.75
442.802	971.09
443.013	1046.46
443.224	1082.3
443.435	1054.4
443.646	1034.84
443.857	1044.72
444.068	1023.99
444.279	975.36
444.49	1149.15
444.701	1058.09
444.912	1186.54
445.123	1114.27
445.334	1094.12
445.545	1103.04
445.756	1065.25
445.967	1018.76
446.178	1044.33
446.388	1064.48
446.599	1031.74
446.81	1069.52
447.021	1013.33
447.232	1122.6
447.443	1145.85
447.653	1045.49
447.864	1171.04
448.075	1128.22
448.286	1148.37
448.496	1086.37
448.707	1172.59
448.918	1074.94
449.129	1206.3
449.339	1079.79
449.55	1158.83
449.761	1104.97
449.971	1187.12
450.182	1142.75
450.393	1207.08
450.603	1131.9
450.814	1213.66
451.024	1215.41
451.235	1277.6
451.446	1276.25
451.656	1256.87
451.867	1190.03
452.077	1197.2
452.288	1262.3
452.498	1270.82
452.709	1151.67
452.919	1186.93
453.13	1135.78
453.34	1161.35
453.55	1091.22
453.761	1176.47
453.971	1150.5
454.182	1172.98
454.392	1183.83
454.602	1248.35
454.813	1214.05
455.023	1236.91
455.233	1134.62
455.444	1214.25
455.654	1118.73
455.864	1199.13
456.075	1203.2
456.285	1169.3
456.495	1197.58
456.705	1214.25
456.916	1287.87
457.126	1318.68
457.336	1243.89
457.546	1166.39
457.756	1233.04
457.967	1268.11
458.177	1259.58
458.387	1279.35
458.597	1182.86
458.807	1244.47
459.017	1195.26
459.227	1216.38
459.437	1228.58
459.647	1261.52
459.857	1261.71
460.068	1236.91
460.278	1310.73
460.488	1258.23
460.698	1354.71
460.908	1287.29
461.117	1261.91
461.327	1310.93
461.537	1330.49
461.747	1343.48
461.957	1309.76
462.167	1442.67
462.377	1358.39
462.587	1336.89
462.797	1413.61
463.007	1351.23
463.216	1430.08
463.426	1482.78
463.636	1431.24
463.846	1302.79
464.056	1355.68
464.265	1342.51
464.475	1316.93
464.685	1373.7
464.895	1390.94
465.104	1327.78
465.314	1409.54
465.524	1370.21
465.733	1353.55
465.943	1421.56
466.153	1457.4
466.362	1452.75
466.572	1417.29
466.782	1402.76
466.991	1398.5
467.201	1425.43
467.41	1313.83
467.62	1380.68
467.829	1422.91
468.039	1449.26
468.249	1413.22
468.458	1439.96
468.668	1492.85
468.877	1492.08
469.086	1498.09
469.296	1513.59
469.505	1528.5
469.715	1572.68
469.924	1503.9
470.134	1572.87
470.343	1565.12
470.552	1486.65
470.762	1491.3
470.971	1454.49
471.18	1452.17
471.39	1522.3
471.599	1458.76
471.808	1535.09
472.018	1502.35
472.227	1612.59
472.436	1625.96
472.645	1645.72
472.855	1601.35
473.064	1730.78
473.273	1669.36
473.482	1687.57
473.691	1664.51
473.901	1637.2
474.11	1595.93
474.319	1770.49
474.528	1657.54
474.737	1777.86
474.946	1734.46
475.155	1752.28
475.364	1831.72
475.573	1775.92
475.783	1805.95
475.992	1808.66
476.201	1818.35
476.41	1793.16
476.619	1749.96
476.828	1760.61
477.037	1758.09
477.245	1789.29
477.454	1831.91
477.663	1828.62
477.872	1864.07
478.081	1964.24
478.29	1864.07
478.499	1973.74
478.708	1961.92
478.917	2048.33
479.125	1925.88
479.334	1930.92
479.543	1914.45
479.752	1952.23
479.961	1971.8
480.169	2058.6
480.378	2018.1
480.587	2201
480.796	2080.1
481.004	2067.12
481.213	2072.35
481.422	2105.87
481.63	2114.59
481.839	2169.61
482.048	2174.84
482.256	2157.02
482.465	2205.07
482.674	2194.8
482.882	2213.01
483.091	2275.21
483.299	2196.93
483.508	2228.51
483.716	2234.33
483.925	2255.44
484.134	2197.51
484.342	2237.62
484.551	2232.78
484.759	2244.59
484.967	2288.77
485.176	2265.32
485.384	2307.95
485.593	2281.99
485.801	2274.43
486.01	2201.39
486.218	2096.38
486.426	1995.82
486.635	1957.07
486.843	1942.15
487.051	2010.74
487.26	2015.78
487.468	2094.44
487.676	2148.11
487.885	2181.24
488.093	2241.49
488.301	2288.96
488.509	2352.7
488.717	2384.48
488.926	2372.66
489.134	2337.79
489.342	2369.56
489.55	2306.59
489.758	2370.92
489.967	2413.74
490.175	2511
490.383	2502.08
490.591	2618.53
490.799	2497.63
491.007	2575.51
491.215	2593.15
491.423	2490.65
491.631	2517.58
491.839	2515.65
492.047	2544.51
492.255	2451.32
492.463	2433.69
492.671	2402.89
492.879	2504.41
493.087	2503.63
493.295	2531.34
493.503	2570.09
493.711	2686.92
493.919	2678.78
494.127	2629.96
494.334	2662.89
494.542	2587.53
494.75	2666.38
494.958	2636.93
495.166	2798.13
495.374	2776.82
495.581	2719.86
495.789	2756.28
495.997	2816.15
496.205	2710.17
496.412	2682.46
496.62	2725.09
496.828	2764.61
497.035	2790.38
497.243	2794.64
497.451	2831.65
497.658	2834.94
497.866	2759.77
498.074	2841.53
498.281	2752.21
498.489	2851.99
498.696	2735.36
498.904	2721.21
499.112	2667.16
499.319	2778.56
499.527	2747.95
499.734	2834.17
499.942	2739.04
500.149	2831.65
500.357	2827.77
500.564	2740.39
500.771	2758.41
500.979	2693.12
501.186	2692.15
501.394	2703.97
501.601	2650.11
501.808	2699.71
502.016	2665.41
502.223	2671.61
502.43	2720.05
502.638	2716.76
502.845	2695.83
503.052	2834.75
503.26	2758.02
503.467	2811.11
503.674	2848.31
503.881	2796.97
504.089	2856.84
504.296	2817.7
504.503	2672.78
504.71	2735.94
504.917	2725.67
505.125	2814.4
505.332	2787.86
505.539	2798.52
505.746	2927.94
505.953	2908.57
506.16	2929.3
506.367	2985.29
506.574	2988.78
506.781	3038.38
506.988	2971.73
507.195	2943.05
507.402	2905.47
507.609	2936.66
507.816	2868.65
508.023	2878.34
508.23	2839.79
508.437	2788.83
508.644	2867.3
508.851	2938.6
509.058	2895.39
509.265	2947.9
509.472	2985.29
509.679	3053.49
509.885	3007.18
510.092	2987.03
510.299	2988.58
510.506	2942.67
510.713	2960.49
510.92	2925.81
511.126	2989.36
511.333	3008.15
511.54	2985.87
511.746	3055.23
511.953	3092.43
512.16	3112.78
512.367	3038.57
512.573	3066.47
512.78	3054.46
512.987	3026.56
513.193	2988.39
513.4	2885.12
513.606	2976.57
513.813	3005.63
514.02	2962.04
514.226	3032.76
514.433	3012.61
514.639	2929.88
514.846	2986.06
515.052	2963.2
515.259	2983.74
515.465	2999.05
515.672	3041.48
515.878	3074.61
516.085	3049.03
516.291	3092.04
516.497	3059.3
516.704	2967.85
516.91	2940.15
517.117	2794.45
517.323	2656.31
517.529	2677.04
517.736	2704.36
517.942	2675.49
518.148	2775.46
518.354	2848.5
518.561	2865.17
518.767	2818.09
518.973	2848.7
519.179	2894.03
519.386	2881.05
519.592	2894.62
519.798	2893.26
520.004	3074.8
520.21	2980.06
520.417	3093.4
520.623	3136.99
520.829	3160.82
521.035	3128.66
521.241	3124.4
521.447	3124.59
521.653	3269.32
521.859	3126.14
522.065	3224.18
522.271	3281.72
522.477	3279.4
522.683	3320.28
522.889	3208.29
523.095	3170.9
523.301	3169.93
523.507	3147.65
523.713	3156.56
523.919	3134.09
524.125	3279.4
524.331	3291.6
524.537	3401.26
524.742	3382.47
524.948	3400.3
525.154	3427.03
525.36	3500.66
525.566	3360.58
525.772	3434.4
525.977	3372.4
526.183	3393.13
526.389	3408.82
526.595	3318.34
526.8	3268.74
527.006	3146.49
527.212	3043.61
527.417	3037.6
527.623	3041.28
527.829	3116.46
528.034	3175.94
528.24	3209.46
528.446	3271.26
528.651	3364.45
528.857	3411.92
529.062	3443.31
529.268	3445.05
529.473	3499.49
529.679	3517.71
529.884	3568.66
530.09	3547.93
530.295	3510.15
530.501	3546.19
530.706	3512.09
530.912	3496.59
531.117	3498.33
531.323	3543.48
531.528	3642.29
531.733	3649.65
531.939	3579.32
532.144	3592.11
532.35	3592.69
532.555	3619.04
532.76	3535.34
532.966	3512.67
533.171	3461.52
533.376	3388.28
533.581	3332.68
533.787	3466.75
533.992	3497.75
534.197	3485.35
534.402	3531.85
534.607	3515.96
534.813	3628.53
535.018	3522.94
535.223	3602.57
535.428	3599.66
535.633	3631.63
535.838	3671.74
536.043	3682.97
536.249	3822.67
536.454	3685.88
536.659	3759.12
536.864	3717.46
537.069	3673.87
537.274	3721.14
537.479	3609.93
537.684	3634.34
537.889	3539.02
538.094	3786.24
538.299	3664.95
538.504	3660.69
538.708	3679.1
538.913	3755.43
539.118	3716.3
539.323	3761.83
539.528	3650.42
539.733	3657.98
539.938	3634.34
540.142	3685.1
540.347	3642.48
540.552	3626.79
540.757	3571.37
540.962	3584.36
541.166	3536.31
541.371	3574.28
541.576	3588.81
541.781	3512.09
541.985	3707.97
542.19	3648.87
542.395	3762.02
542.599	3806.2
542.804	3706.61
543.008	3736.45
543.213	3658.37
543.418	3621.56
543.622	3737.03
543.827	3668.44
544.031	3757.37
544.236	3755.63
544.44	3802.71
544.645	3816.08
544.849	3713.2
545.054	3797.87
545.258	3864.9
545.463	3837.97
545.667	3674.25
545.872	3787.4
546.076	3802.52
546.281	3755.63
546.485	3750.01
546.689	3752.72
546.894	3792.25
547.098	3773.84
547.302	3696.15
547.507	3775.2
547.711	3782.37
547.915	3775.78
548.119	3641.32
548.324	3682.59
548.528	3744
548.732	3684.52
548.936	3793.22
549.141	3743.23
549.345	3705.64
549.549	3735.09
549.753	3736.84
549.957	3807.75
550.161	3806.2
550.366	3759.31
550.57	3711.84
550.774	3698.09
550.978	3740.13
551.182	3725.4
551.386	3645.97
551.59	3723.47
551.794	3669.41
551.998	3748.85
552.202	3703.12
552.406	3697.5
552.61	3811.43
552.814	3799.8
553.018	3799.61
553.222	3698.67
553.426	3706.03
553.63	3820.15
553.833	3703.32
554.037	3584.16
554.241	3669.6
554.445	3694.02
554.649	3702.93
554.853	3645.39
555.056	3738.58
555.26	3761.63
555.464	3772.29
555.668	3779.46
555.871	3730.83
556.075	3728.31
556.279	3686.65
556.483	3649.46
556.686	3638.22
556.89	3627.37
557.094	3669.22
557.297	3582.03
557.501	3652.17
557.704	3553.94
557.908	3647.32
558.112	3606.64
558.315	3697.31
558.519	3613.03
558.722	3562.27
558.926	3560.53
559.129	3443.7
559.333	3461.52
559.536	3406.3
559.74	3415.41
559.943	3394.87
560.147	3442.92
560.35	3468.5
560.553	3511.12
560.757	3430.52
560.96	3547.35
561.164	3475.08
561.367	3639.57
561.57	3556.26
561.774	3534.95
561.977	3465.59
562.18	3496.01
562.384	3568.86
562.587	3478.18
562.79	3459.39
562.993	3479.73
563.197	3439.82
563.4	3567.5
563.603	3578.35
563.806	3589.2
564.009	3471.01
564.212	3511.31
564.416	3386.15
564.619	3495.23
564.822	3417.93
565.025	3479.93
565.228	3397.39
565.431	3448.73
565.634	3295.09
565.837	3370.85
566.04	3321.44
566.243	3334.42
566.446	3232.7
566.649	3347.21
566.852	3218.95
567.055	3275.91
567.258	3298.39
567.461	3395.84
567.664	3408.63
567.867	3302.45
568.07	3342.95
568.273	3389.83
568.475	3429.55
568.678	3254.02
568.881	3277.27
569.084	3239.1
569.287	3143.58
569.489	3222.63
569.692	3281.34
569.895	3252.27
570.098	3200.16
570.3	3206.55
570.503	3120.53
570.706	3151.14
570.909	3137.96
571.111	3062.01
571.314	3088.94
571.516	3120.91
571.719	3076.93
571.922	3098.44
572.124	3107.35
572.327	3144.55
572.529	3090.3
572.732	3090.3
572.935	3153.66
573.137	3264.29
573.34	3127.11
573.542	3186.4
573.745	3173.03
573.947	3145.52
574.15	3141.64
574.352	3092.24
574.554	3199.38
574.757	3113.74
574.959	3087.39
575.162	3113.16
575.364	3092.43
575.566	3178.07
575.769	3062.4
575.971	3034.7
576.173	2895.39
576.376	3040.7
576.578	3063.37
576.78	3072.48
576.982	2964.95
577.185	3030.05
577.387	3014.35
577.589	3015.71
577.791	3028.88
577.993	3105.41
578.196	3015.13
578.398	3031.4
578.6	3041.48
578.802	2948.87
579.004	2942.47
579.206	2948.67
579.408	3001.18
579.61	2936.85
579.812	3033.92
580.014	2963.4
580.216	2933.17
580.418	2994.78
580.62	2993.43
580.822	2979.67
581.024	2995.56
581.226	3047.09
581.428	2997.3
581.63	3062.59
581.832	2968.43
582.034	3045.93
582.236	3024.62
582.438	3042.06
582.64	3072.86
582.841	3102.7
583.043	3155.21
583.245	3025.4
583.447	3072.09
583.649	3019.78
583.85	3053.29
584.052	3105.03
584.254	2953.32
584.456	3053.88
584.657	2992.26
584.859	3061.43
585.061	3017.06
585.262	3016.87
585.464	2960.68
585.666	3016.68
585.867	2965.91
586.069	3004.08
586.27	2997.5
586.472	2967.46
586.674	2916.51
586.875	2955.65
587.077	2943.44
587.278	2984.9
587.48	2947.9
587.681	3079.84
587.883	2952.93
588.084	2882.22
588.285	2915.35
588.487	2841.34
588.688	2904.3
588.89	2831.45
589.091	2713.46
589.292	2716.95
589.494	2649.91
589.695	2608.64
589.896	2545.68
590.098	2558.85
590.299	2588.5
590.5	2589.85
590.702	2650.11
590.903	2701.45
591.104	2775.46
591.305	2795.61
591.507	2797.16
591.708	2787.28
591.909	2758.8
592.11	2812.27
592.311	2808.59
592.512	2757.83
592.714	2738.07
592.915	2758.41
593.116	2672.39
593.317	2789.22
593.518	2759.57
593.719	2718.69
593.92	2833
594.121	2848.12
594.322	2782.44
594.523	2761.51
594.724	2704.55
594.925	2747.17
595.126	2729.16
595.327	2727.99
595.528	2733.61
595.729	2717.14
595.929	2710.75
596.13	2740.39
596.331	2743.3
596.532	2748.72
596.733	2759.57
596.934	2754.73
597.135	2774.88
597.335	2765.97
597.536	2693.12
597.737	2730.9
597.938	2689.83
598.138	2759.38
598.339	2741.75
598.54	2720.63
598.74	2666.38
598.941	2693.12
599.142	2738.46
599.342	2709.97
599.543	2630.34
599.744	2688.86
599.944	2654.18
600.145	2670.45
600.345	2671.81
600.546	2749.31
600.746	2724.12
600.947	2754.92
601.147	2710.56
601.348	2737.29
601.548	2674.91
601.749	2669.09
601.949	2644.88
602.15	2662.89
602.35	2619.88
602.551	2659.99
602.751	2634.8
602.951	2699.32
603.152	2607.29
603.352	2714.82
603.552	2694.47
603.753	2735.36
603.953	2754.54
604.153	2726.64
604.354	2706.1
604.554	2722.18
604.754	2745.62
604.954	2653.21
605.155	2718.31
605.355	2702.03
605.555	2743.69
605.755	2756.09
605.955	2692.34
606.155	2770.42
606.356	2688.86
606.556	2734
606.756	2673.94
606.956	2640.23
607.156	2769.84
607.356	2623.18
607.556	2709.59
607.756	2674.52
607.956	2736.52
608.156	2661.73
608.356	2652.04
608.556	2694.86
608.756	2620.27
608.956	2614.07
609.156	2634.03
609.356	2614.46
609.556	2579.78
609.755	2619.88
609.955	2606.32
610.155	2617.56
610.355	2590.63
610.555	2543.35
610.755	2581.13
610.954	2497.43
611.154	2612.33
611.354	2620.27
611.554	2560.6
611.753	2559.63
611.953	2528.24
612.153	2620.85
612.352	2581.52
612.552	2525.33
612.752	2493.75
612.951	2543.16
613.151	2528.63
613.351	2540.25
613.55	2517.39
613.75	2492.59
613.949	2466.82
614.149	2492.4
614.348	2497.63
614.548	2449.38
614.747	2418.77
614.947	2508.67
615.146	2359.68
615.346	2480.38
615.545	2490.27
615.745	2441.83
615.944	2468.18
616.144	2423.23
616.343	2450.55
616.542	2388.16
616.742	2445.51
616.941	2392.04
617.14	2339.92
617.34	2403.47
617.539	2434.66
617.738	2382.54
617.938	2481.55
618.137	2418.19
618.336	2380.02
618.535	2467.6
618.734	2443.38
618.934	2454.23
619.133	2437.95
619.332	2454.03
619.531	2345.54
619.73	2399.2
619.929	2475.73
620.128	2437.57
620.328	2512.55
620.527	2399.59
620.726	2416.45
620.925	2373.82
621.124	2388.55
621.323	2390.68
621.522	2348.25
621.721	2369.95
621.92	2332.17
622.119	2413.15
622.318	2360.26
622.517	2340.11
622.715	2321.51
622.914	2281.79
623.113	2345.73
623.312	2241.3
623.511	2343.21
623.71	2294.39
623.909	2278.89
624.107	2389.13
624.306	2262.81
624.505	2246.73
624.704	2270.36
624.902	2231.23
625.101	2331.2
625.3	2245.76
625.499	2214.95
625.697	2245.95
625.896	2225.22
626.095	2255.06
626.293	2217.08
626.492	2214.18
626.69	2251.96
626.889	2199.45
627.088	2276.56
627.286	2235.1
627.485	2207.2
627.683	2191.51
627.882	2233.55
628.08	2153.73
628.279	2165.16
628.477	2257.19
628.676	2124.28
628.874	2163.22
629.073	2147.91
629.271	2101.41
629.469	2170.97
629.668	2182.4
629.866	2148.11
630.065	2110.91
630.263	2168.26
630.461	2111.49
630.66	2165.74
630.858	2139
631.056	2154.7
631.254	2195.19
631.453	2103.93
631.651	2154.11
631.849	2115.17
632.047	2119.63
632.245	2104.71
632.444	2114.01
632.642	2127.96
632.84	2194.22
633.038	2119.05
633.236	2097.35
633.434	2132.22
633.632	2122.92
633.83	2110.52
634.028	2202.74
634.227	2130.86
634.425	2230.64
634.623	2110.71
634.821	2166.13
635.019	2121.18
635.216	2149.85
635.414	2138.61
635.612	2140.36
635.81	2109.55
636.008	2171.94
636.206	2112.26
636.404	2181.63
636.602	2101.03
636.8	2076.42
636.997	2157.6
637.195	2170.58
637.393	2096.96
637.591	2197.32
637.789	2168.26
637.986	2124.08
638.184	2139.97
638.382	2173.68
638.58	2172.33
638.777	2227.93
638.975	2147.53
639.173	2143.85
639.37	2155.28
639.568	2174.84
639.765	2136.87
639.963	2090.18
640.161	2131.45
640.358	2124.47
640.556	2033.99
640.753	2045.42
640.951	2039.61
641.148	2078.55
641.346	2063.25
641.543	2066.15
641.741	2090.76
641.938	1998.34
642.136	2030.31
642.333	1993.89
642.531	2106.65
642.728	2105.87
642.925	2075.84
643.123	2069.45
643.32	2052.98
643.517	2054.14
643.715	2034.77
643.912	2021.98
644.109	2060.92
644.306	2023.33
644.504	1992.72
644.701	2029.92
644.898	2042.32
645.095	2013.26
645.293	2032.63
645.49	2018.68
645.687	2020.23
645.884	2021.2
646.081	1975.09
646.278	2021.98
646.475	1959.59
646.672	1967.92
646.87	1984.39
647.067	1962.5
647.264	1959.2
647.461	1940.8
647.658	1928.59
647.855	1965.21
648.052	1926.27
648.249	1831.14
648.446	1906.51
648.642	1905.73
648.839	1886.74
649.036	1856.71
649.233	1891.2
649.43	1888.87
649.627	1792
649.824	1833.46
650.021	1811.38
650.217	1789.87
650.414	1817.38
650.611	1875.89
650.808	1864.07
651.004	1901.08
651.201	1906.31
651.398	1965.02
651.595	1906.89
651.791	1841.02
651.988	1916.58
652.185	1824.74
652.381	1892.17
652.578	1828.62
652.775	1858.07
652.971	1863.69
653.168	1820.48
653.364	1896.82
653.561	1794.91
653.757	1852.64
653.954	1869.5
654.15	1833.07
654.347	1936.15
654.543	1886.74
654.74	1788.32
654.936	1770.11
655.133	1822.03
655.329	1792.39
655.525	1807.69
655.722	1830.56
655.918	1739.69
656.115	1732.91
656.311	1616.85
656.507	1595.15
656.704	1553.69
656.9	1570.74
657.096	1554.08
657.292	1576.75
657.489	1669.16
657.685	1654.44
657.881	1654.63
658.077	1693.96
658.273	1706.17
658.47	1810.79
658.666	1741.82
658.862	1812.34
659.058	1760.42
659.254	1851.48
659.45	1781.93
659.646	1751.89
659.842	1774.95
660.038	1836.95
660.234	1774.95
660.43	1775.34
660.626	1867.37
660.822	1823.39
661.018	1843.34
661.214	1843.92
661.41	1770.3
661.606	1844.89
661.802	1876.09
661.998	1801.69
662.194	1785.8
662.39	1834.62
662.586	1838.69
662.781	1826.87
662.977	1867.37
663.173	1856.32
663.369	1813.7
663.564	1855.16
663.76	1837.14
663.956	1814.09
664.152	1811.96
664.347	1757.9
664.543	1788.71
664.739	1788.13
664.934	1760.03
665.13	1753.25
665.326	1821.64
665.521	1818.93
665.717	1751.7
665.912	1781.93
666.108	1707.14
666.304	1754.03
666.499	1791.42
666.695	1692.8
666.89	1803.04
667.086	1783.86
667.281	1785.61
667.477	1879.77
667.672	1787.35
667.867	1751.51
668.063	1783.67
668.258	1755.96
668.454	1823.97
668.649	1869.31
668.844	1787.93
669.04	1811.18
669.235	1801.88
669.43	1798.01
669.626	1732.91
669.821	1742.01
670.016	1713.34
670.211	1731.36
670.407	1713.15
670.602	1783.09
670.797	1721.67
670.992	1776.89
671.187	1732.13
671.382	1810.02
671.578	1700.36
671.773	1771.08
671.968	1702.88
672.163	1738.91
672.358	1735.43
672.553	1699
672.748	1731.94
672.943	1814.48
673.138	1759.64
673.333	1744.73
673.528	1698.23
673.723	1738.14
673.918	1727.68
674.113	1697.26
674.308	1780.18
674.503	1723.8
674.698	1751.89
674.892	1731.16
675.087	1763.33
675.282	1717.8
675.477	1686.8
675.672	1738.53
675.867	1730.2
676.061	1688.35
676.256	1647.66
676.451	1660.83
676.646	1756.35
676.84	1673.81
677.035	1701.33
677.23	1712.95
677.424	1721.67
677.619	1732.33
677.814	1764.88
678.008	1729.42
678.203	1650.56
678.397	1663.16
678.592	1695.71
678.787	1778.05
678.981	1671.49
679.176	1713.15
679.37	1694.35
679.565	1703.65
679.759	1695.71
679.954	1692.41
680.148	1746.28
680.342	1762.55
680.537	1711.6
680.731	1698.61
680.926	1716.25
681.12	1698.03
681.314	1659.28
681.509	1668.39
681.703	1652.7
681.897	1682.34
682.092	1659.86
682.286	1648.63
682.48	1738.91
682.674	1697.65
682.869	1662.96
683.063	1657.93
683.257	1708.5
683.451	1584.69
683.645	1674.2
683.839	1611.82
684.034	1621.5
684.228	1671.49
684.422	1560.28
684.616	1580.62
684.81	1618.21
685.004	1583.14
685.198	1605.81
685.392	1628.48
685.586	1566.28
685.78	1603.1
685.974	1601.74
686.168	1594.57
686.362	1660.25
686.556	1481.04
686.75	1477.35
686.944	1426.01
687.138	1434.34
687.331	1300.27
687.525	1284.77
687.719	1239.43
687.913	1294.85
688.107	1298.53
688.301	1303.76
688.494	1300.27
688.688	1288.65
688.882	1243.11
689.076	1304.34
689.269	1280.51
689.463	1376.99
689.657	1317.51
689.85	1337.66
690.044	1333.98
690.238	1323.13
690.431	1335.92
690.625	1374.48
690.818	1389.97
691.012	1385.32
691.205	1446.94
691.399	1342.7
691.593	1430.47
691.786	1440.35
691.98	1461.08
692.173	1472.7
692.366	1467.09
692.56	1463.02
692.753	1507.97
692.947	1390.36
693.14	1489.95
693.333	1475.22
693.527	1401.79
693.72	1452.75
693.914	1432.02
694.107	1437.25
694.3	1444.42
694.493	1416.71
694.687	1485.3
694.88	1408.57
695.073	1503.9
695.266	1498.86
695.46	1470.38
695.653	1485.49
695.846	1513.97
696.039	1428.53
696.232	1474.84
696.425	1542.07
696.618	1532.38
696.812	1545.17
697.005	1581.98
697.198	1695.51
697.391	1587.21
697.584	1605.03
697.777	1693.77
697.97	1638.55
698.163	1633.32
698.356	1599.22
698.549	1682.53
698.742	1656.96
698.935	1621.5
699.127	1646.88
699.32	1626.93
699.513	1614.14
699.706	1674.78
699.899	1687.18
700.092	1633.13
700.285	1681.18
700.477	1641.07
700.67	1689.51
700.863	1701.71
701.056	1760.03
701.248	1743.18
701.441	1780.38
701.634	1717.02
701.826	1830.94
702.019	1724
702.212	1795.68
702.404	1714.89
702.597	1730.78
702.79	1766.62
702.982	1797.43
703.175	1873.57
703.367	1816.41
703.56	1862.72
703.752	1971.02
703.945	1894.69
704.137	1931.3
704.33	1970.64
704.522	1945.64
704.715	1974.12
704.907	1985.17
705.1	2057.82
705.292	2045.42
705.484	2038.25
705.677	2079.91
705.869	2069.45
706.061	2105.29
706.254	2147.14
706.446	2136.48
706.638	2133.58
706.831	2176.59
707.023	2143.46
707.215	2297.29
707.407	2250.21
707.599	2218.44
707.792	2301.75
707.984	2266.49
708.176	2317.83
708.368	2276.76
708.56	2335.66
708.752	2336.62
708.944	2326.55
709.136	2364.91
709.329	2317.25
709.521	2451.52
709.713	2408.89
709.905	2399.59
710.097	2482.13
710.289	2436.02
710.481	2479.22
710.672	2509.64
710.864	2498.79
711.056	2590.63
711.248	2563.11
711.44	2570.28
711.632	2538.31
711.824	2598.96
712.016	2645.46
712.207	2659.6
712.399	2645.07
712.591	2738.84
712.783	2708.23
712.975	2739.23
713.166	2707.07
713.358	2752.79
713.55	2798.71
713.741	2788.05
713.933	2786.5
714.125	2784.18
714.316	2751.05
714.508	2855.29
714.7	2878.34
714.891	2854.12
715.083	2922.71
715.274	2884.93
715.466	2917.67
715.657	2951.58
715.849	2892.48
716.04	2921.35
716.232	2861.87
716.423	2976.57
716.615	2849.09
716.806	2803.36
716.998	2796.19
717.189	2689.05
717.381	2663.86
717.572	2632.48
717.763	2678.39
717.955	2608.84
718.146	2568.15
718.337	2488.13
718.528	2491.23
718.72	2447.45
718.911	2445.7
719.102	2416.64
719.293	2476.32
719.485	2470.89
719.676	2409.67
719.867	2436.98
720.058	2417.61
720.249	2424.97
720.44	2444.35
720.632	2517.78
720.823	2556.33
721.014	2703.77
721.205	2750.47
721.396	2813.82
721.587	2901.4
721.778	2940.34
721.969	3069.38
722.16	3074.61
722.351	3174.58
722.542	3222.24
722.733	3282.89
722.924	3173.61
723.115	3256.92
723.305	3246.07
723.496	3232.12
723.687	3120.33
723.878	3152.11
724.069	3116.26
724.26	3157.72
724.45	3061.24
724.641	3036.63
724.832	3129.44
725.023	3081.19
725.213	3084.88
725.404	3081.39
725.595	3079.45
725.785	3064.92
725.976	3140.48
726.167	3191.44
726.357	3167.61
726.548	3342.95
726.739	3198.41
726.929	3303.04
727.12	3321.25
727.31	3449.9
727.501	3318.73
727.691	3329.19
727.882	3354.57
728.072	3358.06
728.263	3347.4
728.453	3468.11
728.644	3453.77
728.834	3397.2
729.024	3433.04
729.215	3372.01
729.405	3424.71
729.596	3516.35
729.786	3497.94
729.976	3567.31
730.167	3589.01
730.357	3569.44
730.547	3568.27
730.737	3617.68
730.928	3626.4
731.118	3699.44
731.308	3621.75
731.498	3669.02
731.688	3787.02
731.879	3786.24
732.069	3803.1
732.259	3876.53
732.449	3885.63
732.639	3980.18
732.829	4049.54
733.019	4091.59
733.209	4128.01
733.399	4149.9
733.589	4204.93
733.779	4245.23
733.969	4277
734.159	4360.7
734.349	4351.98
734.539	4492.26
734.729	4453.89
734.919	4445.56
735.109	4520.35
735.299	4425.61
735.488	4505.04
735.678	4489.74
735.868	4550.19
736.058	4511.24
736.248	4463
736.437	4456.41
736.627	4443.43
736.817	4589.32
737.007	4537.59
737.196	4613.15
737.386	4529.07
737.576	4555.22
737.765	4630.2
737.955	4566.27
738.144	4778.81
738.334	4646.28
738.524	4622.07
738.713	4659.65
738.903	4640.28
739.092	4657.72
739.282	4667.4
739.471	4695.5
739.661	4654.62
739.85	4739.28
740.04	4752.65
740.229	4791.98
740.419	4782.68
740.608	4757.11
740.797	4763.31
740.987	4858.24
741.176	4792.95
741.365	4776.48
741.555	4753.81
741.744	4813.49
741.933	4774.16
742.123	4807.87
742.312	4852.43
742.501	4903
742.69	4909.39
742.88	4810.78
743.069	4993.67
743.258	4969.07
743.447	4949.69
743.636	4988.64
743.825	4914.82
744.014	4923.92
744.204	5026.61
744.393	4899.51
744.582	5069.43
744.771	5014.99
744.96	5012.85
745.149	5033.39
745.338	4949.5
745.527	5041.92
745.716	4991.74
745.905	4954.73
746.094	5087.25
746.283	5092.87
746.471	5056.45
746.66	5076.98
746.849	5070.2
747.038	5094.81
747.227	5022.15
747.416	5117.09
747.604	5031.65
747.793	5026.8
747.982	5051.99
748.171	5101.4
748.359	5060.9
748.548	5074.66
748.737	5044.44
748.926	5050.44
749.114	4954.54
749.303	5076.4
749.491	5027.19
749.68	4921.02
749.869	5060.32
750.057	5018.09
750.246	5015.95
750.434	4947.76
750.623	5021.57
750.811	4925.86
751	5064.2
751.188	4981.08
751.377	4958.02
751.565	4969.84
751.754	4966.74
751.942	4934.19
752.131	5035.33
752.319	4953.18
752.507	4883.04
752.696	4963.84
752.884	4973.72
753.072	4919.47
753.261	5018.67
753.449	5004.91
753.637	4932.26
753.825	5066.13
754.014	4958.02
754.202	4964.22
754.39	5019.05
754.578	5007.62
754.766	4933.81
754.955	4891.76
755.143	4992.12
755.331	4933.61
755.519	4984.57
755.707	4939.81
755.895	4913.27
756.083	4928.96
756.271	4843.13
756.459	4911.33
756.647	4968.68
756.835	4915.4
757.023	4919.47
757.211	4871.42
757.399	4825.11
757.587	4854.95
757.775	4757.11
757.963	4842.16
758.151	4822.59
758.339	4744.51
758.526	4733.66
758.714	4776.1
758.902	4694.14
759.09	4596.1
759.278	4350.63
759.465	4096.62
759.653	3686.27
759.841	3390.8
760.028	2987.61
760.216	2629.96
760.404	2483.87
760.591	2157.8
760.779	1868.14
760.967	1689.51
761.154	1485.88
761.342	1517.65
761.529	1536.25
761.717	1634.48
761.905	1690.86
762.092	1806.34
762.28	1770.11
762.467	1792.97
762.655	1742.01
762.842	1792
763.029	1807.5
763.217	1840.82
763.404	1839.27
763.592	1882.29
763.779	1859.42
763.966	1903.6
764.154	1947.39
764.341	2020.23
764.528	2043.68
764.716	2109.16
764.903	2200.42
765.09	2275.21
765.277	2351.54
765.465	2524.17
765.652	2573.77
765.839	2680.72
766.026	2847.15
766.213	2882.8
766.4	2966.88
766.588	3178.65
766.775	3242.78
766.962	3320.47
767.149	3399.13
767.336	3602.76
767.523	3562.08
767.71	3654.3
767.897	3818.21
768.084	3919.34
768.271	3889.51
768.458	4012.73
768.645	4037.72
768.832	4037.72
769.019	4092.17
769.206	4048.19
769.392	4170.64
769.579	4249.68
769.766	4192.33
769.953	4197.37
770.14	4254.72
770.327	4222.56
770.513	4299.28
770.7	4327.96
770.887	4259.95
771.073	4298.9
771.26	4256.08
771.447	4285.53
771.634	4240
771.82	4391.89
772.007	4237.87
772.193	4301.8
772.38	4332.8
772.567	4295.99
772.753	4233.02
772.94	4317.11
773.126	4305.29
773.313	4368.06
773.499	4268.09
773.686	4351.98
773.872	4255.3
774.059	4304.9
774.245	4204.93
774.432	4291.34
774.618	4161.92
774.804	4243.68
774.991	4165.6
775.177	4211.13
775.363	4227.98
775.55	4219.65
775.736	4125.88
775.922	4233.02
776.109	4175.87
776.295	4218.3
776.481	4218.68
776.667	4209.58
776.853	4158.62
777.04	4085
777.226	4161.53
777.412	4205.51
777.598	4108.25
777.784	4115.61
777.97	4114.64
778.156	4139.83
778.342	4094.69
778.528	4096.04
778.715	3994.91
778.901	4047.22
779.087	4063.69
779.272	4046.83
779.458	4022.61
779.644	4042.37
779.83	4007.31
780.016	4094.49
780.202	4002.27
780.388	4040.82
780.574	3894.93
780.76	3951.12
780.946	3985.22
781.131	4001.11
781.317	3934.84
781.503	3943.76
781.689	3906.95
781.874	4082.67
782.06	3886.99
782.246	3966.43
782.432	3903.07
782.617	3911.6
782.803	3985.61
782.989	3890.48
783.174	3883.11
783.36	3811.23
783.545	3853.66
783.731	3885.25
783.916	3748.85
784.102	3828.87
784.288	3759.89
784.473	3830.03
784.659	3775.2
784.844	3798.45
785.029	3787.4
785.215	3748.07
785.4	3693.05
785.586	3803.48
785.771	3710.87
785.956	3790.5
786.142	3694.4
786.327	3706.8
786.512	3715.72
786.698	3722.3
786.883	3618.84
787.068	3702.54
787.254	3653.72
787.439	3626.79
787.624	3647.71
787.809	3604.89
787.994	3632.99
788.18	3696.54
788.365	3580.48
788.55	3624.66
788.735	3622.72
788.92	3578.16
789.105	3575.25
789.29	3608.19
789.475	3468.69
789.66	3530.49
789.845	3532.63
790.03	3496.01
790.215	3558.78
790.4	3512.67
790.585	3542.31
790.77	3497.75
790.955	3446.21
791.14	3495.81
791.325	3533.79
791.51	3353.8
791.695	3426.26
791.879	3447.38
792.064	3366
792.249	3505.11
792.434	3432.65
792.618	3445.63
792.803	3508.79
792.988	3412.11
793.173	3418.12
793.357	3485.93
793.542	3394.1
793.727	3422.38
793.911	3478.76
794.096	3412.7
794.281	3463.26
794.465	3535.92
794.65	3448.35
794.834	3513.44
795.019	3503.37
795.203	3470.63
795.388	3525.65
795.572	3539.79
795.757	3502.59
795.941	3460.55
796.126	3463.07
796.31	3409.98
796.494	3503.18
796.679	3415.41
796.863	3435.95
797.048	3574.09
797.232	3459.78
797.416	3527.98
797.601	3485.16
797.785	3485.35
797.969	3566.53
798.153	3486.51
798.338	3498.72
798.522	3583.58
798.706	3539.99
798.89	3568.08
799.074	3667.09
799.258	3584.36
799.443	3573.12
799.627	3566.34
799.811	3602.57
799.995	3500.08
800.179	3494.26
800.363	3484.96
800.547	3552.78
800.731	3579.9
800.915	3476.83
801.099	3504.34
801.283	3534.37
801.467	3541.34
801.651	3497.94
801.835	3543.86
802.019	3463.85
802.202	3557.23
802.386	3505.69
802.57	3422.96
802.754	3486.13
802.938	3476.83
803.121	3453
803.305	3563.82
803.489	3513.64
803.673	3495.04
803.856	3507.83
804.04	3428.97
804.224	3498.91
804.407	3490.58
804.591	3460.55
804.775	3437.3
804.958	3510.15
805.142	3605.09
805.326	3461.91
805.509	3469.66
805.693	3500.27
805.876	3528.56
806.06	3507.44
806.243	3565.56
806.427	3543.67
806.61	3585.91
806.794	3494.07
806.977	3590.17
807.16	3556.07
807.344	3537.08
807.527	3510.54
807.71	3500.66
807.894	3436.33
808.077	3482.06
808.26	3427.23
808.444	3430.91
808.627	3480.89
808.81	3416.38
808.993	3335.97
809.177	3364.07
809.36	3397.97
809.543	3412.31
809.726	3292.19
809.909	3281.53
810.092	3298.39
810.276	3282.89
810.459	3297.8
810.642	3272.42
810.825	3235.22
811.008	3282.69
811.191	3156.37
811.374	3216.43
811.557	3211.59
811.74	3219.14
811.923	3170.32
812.106	3120.53
812.289	3099.6
812.472	3106.77
812.654	3087.78
812.837	3086.23
813.02	3017.26
813.203	2958.55
813.386	2881.44
813.569	2890.55
813.751	2756.28
813.934	2841.14
814.117	2729.35
814.3	2741.75
814.482	2704.94
814.665	2649.14
814.848	2616.59
815.03	2510.8
815.213	2544.32
815.396	2554.4
815.578	2505.96
815.761	2427.1
815.943	2560.01
816.126	2403.85
816.309	2404.44
816.491	2328.68
816.674	2253.7
816.856	2255.64
817.039	2279.47
817.221	2329.26
817.403	2321.9
817.586	2307.76
817.768	2359.29
817.951	2264.36
818.133	2223.28
818.315	2266.49
818.498	2319.19
818.68	2382.54
818.862	2325.58
819.045	2357.35
819.227	2323.06
819.409	2319.96
819.591	2330.42
819.774	2297.49
819.956	2315.31
820.138	2326.16
820.32	2343.6
820.502	2392.23
820.684	2451.71
820.866	2445.7
821.048	2540.64
821.231	2544.9
821.413	2572.03
821.595	2505.77
821.777	2589.27
821.959	2533.08
822.141	2614.65
822.323	2487.36
822.505	2402.89
822.686	2338.76
822.868	2221.15
823.05	2120.4
823.232	2066.15
823.414	1982.45
823.596	2078.94
823.778	2043.48
823.96	2080.3
824.141	2098.51
824.323	2110.52
824.505	2232
824.687	2267.84
824.868	2317.64
825.05	2404.24
825.232	2487.75
825.413	2497.63
825.595	2480.97
825.777	2409.86
825.958	2472.63
826.14	2421.29
826.321	2487.55
826.503	2455.78
826.685	2459.27
826.866	2510.8
827.048	2477.48
827.229	2421.1
827.411	2391.84
827.592	2346.89
827.773	2311.82
827.955	2262.22
828.136	2244.4
828.318	2241.88
828.499	2265.32
828.68	2229.87
828.862	2223.09
829.043	2282.76
829.224	2219.99
829.406	2167.68
829.587	2186.08
829.768	2190.34
829.949	2227.35
830.131	2225.99
830.312	2259.9
830.493	2221.15
830.674	2216.69
830.855	2207.01
831.036	2211.66
831.218	2295.16
831.399	2312.02
831.58	2225.99
831.761	2242.27
831.942	2245.18
832.123	2240.14
832.304	2189.38
832.485	2189.57
832.666	2200.61
832.847	2220.76
833.028	2221.73
833.209	2185.5
833.389	2198.48
833.57	2142.88
833.751	2129.7
833.932	2212.82
834.113	2179.49
834.294	2140.16
834.475	2256.99
834.655	2220.57
834.836	2234.71
835.017	2214.95
835.198	2201
835.378	2213.59
835.559	2257.38
835.74	2233.94
835.92	2204.1
836.101	2194.41
836.281	2276.17
836.462	2252.54
836.643	2280.63
836.823	2268.23
837.004	2272.11
837.184	2310.86
837.365	2285.86
837.545	2282.37
837.726	2264.74
837.906	2310.47
838.087	2273.46
838.267	2286.83
838.448	2219.79
838.628	2274.04
838.808	2242.66
838.989	2284.31
839.169	2213.4
839.349	2269.2
839.53	2243.24
839.71	2277.53
839.89	2233.94
840.07	2297.1
840.251	2200.03
840.431	2308.92
840.611	2214.56
840.791	2256.41
840.971	2257.96
841.151	2235.29
841.332	2211.46
841.512	2271.91
841.692	2142.3
841.872	2249.05
842.052	2224.06
842.232	2224.06
842.412	2154.31
842.592	2182.01
842.772	2223.67
842.952	2213.01
843.132	2193.64
843.312	2137.84
843.492	2135.71
843.672	2233.94
843.851	2132.22
844.031	2135.71
844.211	2167.1
844.391	2115.75
844.571	2163.22
844.751	2142.49
844.93	2124.28
845.11	2135.9
845.29	2153.53
845.47	2185.31
845.649	2166.71
845.829	2182.59
846.009	2100.64
846.188	2147.72
846.368	2124.28
846.547	2135.51
846.727	2144.62
846.907	2048.33
847.086	2133.38
847.266	2151.4
847.445	2151.01
847.625	2088.43
847.804	2075.45
847.984	2059.37
848.163	2087.08
848.343	2081.27
848.522	2063.25
848.701	2068.09
848.881	2061.31
849.06	2093.66
849.239	2084.75
849.419	2086.3
849.598	1991.37
849.777	1957.46
849.957	1948.35
850.136	1900.5
850.315	1892.94
850.494	1917.16
850.674	1875.7
850.853	1990.79
851.032	1938.28
851.211	1979.35
851.39	1924.52
851.569	1893.14
851.748	1891.59
851.927	1949.9
852.107	1903.79
852.286	1887.71
852.465	1883.06
852.644	1974.51
852.823	1966.95
853.002	1910.38
853.181	1948.16
853.359	1952.62
853.538	1848.57
853.717	1925.1
853.896	1818.74
854.075	1744.14
854.254	1669.75
854.433	1641.46
854.611	1656.38
854.79	1595.73
854.969	1659.28
855.148	1691.83
855.327	1657.93
855.505	1694.93
855.684	1686.41
855.863	1759.64
856.041	1712.76
856.22	1757.51
856.399	1759.64
856.577	1875.89
856.756	1831.72
856.934	1947.97
857.113	1955.14
857.291	1842.76
857.47	1822.81
857.648	1868.92
857.827	1875.89
858.005	1870.86
858.184	1820.67
858.362	1921.23
858.541	1825.91
858.719	1843.92
858.898	1799.75
859.076	1824.74
859.254	1868.92
859.433	1803.24
859.611	1810.99
859.789	1765.46
859.967	1854.39
860.146	1873.18
860.324	1752.48
860.502	1760.23
860.68	1734.07
860.859	1731.16
861.037	1751.12
861.215	1763.91
861.393	1775.34
861.571	1779.41
861.749	1765.46
861.927	1765.65
862.105	1771.66
862.283	1728.45
862.461	1744.34
862.639	1674.2
862.817	1717.8
862.995	1766.43
863.173	1718.96
863.351	1728.84
863.529	1753.06
863.707	1736.59
863.885	1737.36
864.063	1624.8
864.241	1640.68
864.418	1738.91
864.596	1673.81
864.774	1606.78
864.952	1677.88
865.129	1663.74
865.307	1624.6
865.485	1627.32
865.663	1705.98
865.84	1583.53
866.018	1608.33
866.196	1458.95
866.373	1490.53
866.551	1451.97
866.728	1383.77
866.906	1411.48
867.084	1469.41
867.261	1487.62
867.439	1496.54
867.616	1508.16
867.794	1526.57
867.971	1546.33
868.149	1563.57
868.326	1596.32
868.503	1608.13
868.681	1538.39
868.858	1534.12
869.035	1529.28
869.213	1605.23
869.39	1535.29
869.567	1628.48
869.745	1539.35
869.922	1531.22
870.099	1573.65
870.276	1603.68
870.454	1559.7
870.631	1536.25
870.808	1556.4
870.985	1578.88
871.162	1607.17
871.339	1574.42
871.517	1506.03
871.694	1514.36
871.871	1531.41
872.048	1514.55
872.225	1494.4
872.402	1544.97
872.579	1474.25
872.756	1535.67
872.933	1461.27
873.11	1516.3
873.287	1476.97
873.463	1452.56
873.64	1435.89
873.817	1468.25
873.994	1498.47
874.171	1447.91
874.348	1456.62
874.524	1426.01
874.701	1452.56
874.878	1386.87
875.055	1446.36
875.231	1428.34
875.408	1482.78
875.585	1410.12
875.762	1431.24
875.938	1410.71
876.115	1373.31
876.291	1423.88
876.468	1407.61
876.645	1343.48
876.821	1378.16
876.998	1411.67
877.174	1422.91
877.351	1396.95
877.527	1359.36
877.704	1420.2
877.88	1355.49
878.057	1375.06
878.233	1452.17
878.409	1378.54
878.586	1397.14
878.762	1360.72
878.938	1372.93
879.115	1301.63
879.291	1365.56
879.467	1266.75
879.644	1307.44
879.82	1358.39
879.996	1332.04
880.172	1259.2
880.349	1318.09
880.525	1345.99
880.701	1304.14
880.877	1297.75
881.053	1314.99
881.229	1302.01
881.405	1353.36
881.581	1263.46
881.757	1300.66
881.933	1366.34
882.109	1334.18
882.285	1305.11
882.461	1256.48
882.637	1311.51
882.813	1267.91
882.989	1320.23
883.165	1362.85
883.341	1279.35
883.517	1341.34
883.693	1334.95
883.869	1333.79
884.044	1282.25
884.22	1320.42
884.396	1348.32
884.572	1316.54
884.747	1353.16
884.923	1308.79
885.099	1344.25
885.275	1352.78
885.45	1299.11
885.626	1282.64
885.801	1256.29
885.977	1319.84
886.153	1248.15
886.328	1287.29
886.504	1245.05
886.679	1303.76
886.855	1281.48
887.03	1334.95
887.206	1303.18
887.381	1304.34
887.557	1312.67
887.732	1322.16
887.908	1338.83
888.083	1309.38
888.258	1295.81
888.434	1255.51
888.609	1308.99
888.784	1324.29
888.96	1248.93
889.135	1294.46
889.31	1287.1
889.485	1293.68
889.661	1281.28
889.836	1316.74
890.011	1318.09
890.186	1277.8
890.361	1244.47
890.537	1261.33
890.712	1317.32
890.887	1315.77
891.062	1262.49
891.237	1362.66
891.412	1233.04
891.587	1289.81
891.762	1330.88
891.937	1339.21
892.112	1248.73
892.287	1275.86
892.462	1262.68
892.637	1220.25
892.812	1215.41
892.987	1233.81
893.161	1218.9
893.336	1235.36
893.511	1198.36
893.686	1217.54
893.861	1206.88
894.035	1191.77
894.21	1205.53
894.385	1155.54
894.56	1178.6
894.734	1132.48
894.909	1127.45
895.084	1143.72
895.258	1110.2
895.433	1150.89
895.608	1062.35
895.782	1036.39
895.957	1078.62
896.131	1050.34
896.306	992.41
896.48	991.24
896.655	1019.34
896.829	919.56
897.004	935.83
897.178	939.32
897.353	901.73
897.527	986.21
897.701	983.11
897.876	892.63
898.05	975.94
898.224	974.58
898.399	995.7
898.573	917.23
898.747	825.01
898.921	870.93
899.096	776.96
899.27	781.22
899.444	797.3
899.618	820.36
899.792	846.32
899.967	830.24
900.141	887.78
900.315	803.7
900.489	845.74
900.663	842.25
900.837	825.59
901.011	794.4
901.185	885.26
901.359	816.29
901.533	819.78
901.707	820.75
901.881	829.66
902.055	748.09
902.229	798.08
902.403	888.56
902.576	836.83
902.75	815.51
902.924	926.73
903.098	900.38
903.272	941.84
903.446	946.87
903.619	949.97
903.793	998.8
903.967	998.02
904.14	1016.62
904.314	1010.04
904.488	981.17
904.661	1035.8
904.835	1035.03
905.009	1048.4
905.182	1047.62
905.356	1009.46
905.529	1019.14
905.703	961.02
905.876	964.31
906.05	962.18
906.223	918.2
906.397	863.95
906.57	849.23
906.744	847.1
906.917	827.91
907.09	850.78
907.264	815.9
907.437	788
907.61	721.35
907.784	781.8
907.957	771.34
908.13	728.72
908.304	758.36
908.477	723.1
908.65	749.06
908.823	697.91
908.996	814.93
909.17	754.68
909.343	725.81
909.516	767.66
909.689	725.42
909.862	704.69
910.035	764.17
910.208	711.67
910.381	694.81
910.554	837.41
910.727	745.77
910.9	697.72
911.073	702.95
911.246	792.65
911.419	792.65
911.592	763.2
911.765	718.64
911.938	742.28
912.11	730.85
912.283	736.27
912.456	799.82
912.629	733.37
912.802	693.84
912.974	642.5
913.147	617.89
913.32	598.52
913.493	625.06
913.665	632.42
913.838	633
914.01	630.49
914.183	661.49
914.356	648.5
914.528	699.27
914.701	701.78
914.873	701.98
915.046	661.68
915.218	633.39
915.391	528.19
915.563	544.66
915.736	615.57
915.908	625.45
916.081	636.3
916.253	613.44
916.425	621.96
916.598	661.1
916.77	660.13
916.942	609.37
917.115	554.34
917.287	635.72
917.459	581.27
917.632	561.32
917.804	523.34
917.976	619.83
918.148	602
918.32	642.89
918.493	658.19
918.665	639.98
918.837	605.1
919.009	678.92
919.181	695.97
919.353	646.95
919.525	622.93
919.697	655.09
919.869	634.36
920.041	713.41
920.213	743.05
920.385	705.47
920.557	668.85
920.729	686.67
920.901	654.9
921.073	637.65
921.244	643.27
921.416	695.78
921.588	650.05
921.76	613.05
921.932	704.3
922.103	630.1
922.275	617.12
922.447	663.62
922.619	572.75
922.79	625.45
922.962	596.39
923.134	636.88
923.305	600.65
923.477	582.05
923.648	556.86
923.82	598.32
923.991	509.78
924.163	520.44
924.335	583.41
924.506	530.9
924.677	611.89
924.849	520.44
925.02	552.79
925.192	611.11
925.363	543.88
925.535	570.62
925.706	535.74
925.877	602.59
926.049	509.2
926.22	564.81
926.391	552.79
926.562	594.06
926.734	522.76
926.905	604.52
927.076	521.02
927.247	534.58
927.419	489.83
927.59	490.79
927.761	497.19
927.932	467.93
928.103	485.56
928.274	446.81
928.445	429.57
928.616	420.08
928.787	413.88
928.958	465.61
929.129	436.35
929.3	438.87
929.471	371.25
929.642	325.92
929.813	276.32
929.984	383.07
930.155	276.7
930.326	348.58
930.496	289.1
930.667	231.37
930.838	284.07
931.009	242.99
931.18	239.31
931.35	235.44
931.521	280.97
931.692	208.5
931.863	165.88
932.033	216.84
932.204	205.99
932.374	213.74
932.545	164.52
932.716	212.57
932.886	202.11
933.057	111.63
933.227	149.22
933.398	221.49
933.568	136.04
933.739	85.67
933.909	77.34
934.08	143.41
934.25	87.61
934.421	78.11
934.591	145.34
934.761	79.27
934.932	80.24
935.102	120.16
935.272	101.75
935.443	101.56
935.613	100.78
935.783	105.43
935.953	103.49
936.123	279.8
936.294	75.79
936.464	87.41
936.634	99.42
936.804	59.32
936.974	42.27
937.144	112.21
937.314	143.6
937.484	86.64
937.655	61.06
937.825	151.35
937.995	63
938.165	123.84
938.334	95.94
938.504	125.19
938.674	101.56
938.844	132.75
939.014	183.12
939.184	156.77
939.354	212.96
939.524	192.62
939.694	169.56
939.863	159.49
940.033	215.48
940.203	246.87
940.373	203.08
940.542	220.52
940.712	140.31
940.882	190.87
941.051	231.37
941.221	201.53
941.391	220.71
941.56	150.57
941.73	142.82
941.899	270.7
942.069	162.59
942.238	198.04
942.408	128.29
942.577	204.05
942.747	134.49
942.916	109.69
943.086	116.09
943.255	179.44
943.425	166.46
943.594	127.32
943.763	77.34
943.933	94.58
944.102	58.54
944.271	114.54
944.441	170.72
944.61	121.71
944.779	144.76
944.948	218.77
945.117	93.22
945.287	117.83
945.456	94.58
945.625	125.39
945.794	125.77
945.963	90.71
946.132	139.14
946.301	121.51
946.47	158.32
946.639	65.33
946.808	92.45
946.977	173.82
947.146	177.12
947.315	101.36
947.484	136.82
947.653	125.58
947.822	112.41
947.991	100.97
948.16	225.55
948.329	153.67
948.498	157.94
948.666	144.37
948.835	155.81
949.004	88.38
949.173	115.51
949.341	119.19
949.51	141.47
949.679	171.89
949.847	159.29
950.016	192.81
950.185	195.33
950.353	134.11
950.522	137.4
950.69	183.51
950.859	111.24
951.028	164.52
951.196	136.82
951.365	112.99
951.533	106.21
951.701	175.95
951.87	152.12
952.038	83.34
952.207	132.36
952.375	187.97
952.543	154.26
952.712	128.29
952.88	71.72
953.048	180.22
953.217	115.7
953.385	130.23
953.553	181.38
953.721	106.59
953.89	136.82
954.058	79.27
954.226	77.34
954.394	137.21
954.562	88.19
954.73	134.69
954.898	118.99
955.067	170.14
955.235	91.87
955.403	138.17
955.571	192.42
955.739	140.89
955.907	96.52
956.075	78.69
956.243	100.59
956.41	132.56
956.578	91.67
956.746	106.4
956.914	103.11
957.082	140.11
957.25	150.19
957.418	114.34
957.585	147.86
957.753	170.53
957.921	97.68
958.089	127.71
958.256	124.61
958.424	124.61
958.592	125
958.759	113.96
958.927	152.71
959.095	80.24
959.262	113.96
959.43	135.66
959.597	87.99
959.765	132.56
959.932	85.09
960.1	156.77
960.267	154.64
960.435	143.6
960.602	147.09
960.77	117.64
960.937	83.54
961.104	129.65
961.272	78.5
961.439	119.77
961.606	150.57
961.774	185.06
961.941	110.08
962.108	148.83
962.275	117.64
962.443	158.13
962.61	156.97
962.777	193.39
962.944	174.6
963.111	154.84
963.278	154.06
963.446	161.81
963.613	127.52
963.78	156.19
963.947	156.39
964.114	110.66
964.281	202.89
964.448	142.24
964.615	123.06
964.782	131.59
964.949	180.02
965.116	174.79
965.282	217.61
965.449	157.55
965.616	100.59
965.783	157.74
965.95	118.02
966.117	90.12
966.283	140.89
966.45	173.24
966.617	156.19
966.784	188.74
966.95	172.47
967.117	208.7
967.284	139.53
967.45	133.33
967.617	183.12
967.784	166.65
967.95	191.84
968.117	165.49
968.283	195.91
968.45	242.02
968.616	177.89
968.783	218.97
968.949	188.55
969.116	214.12
969.282	187.19
969.449	167.82
969.615	167.24
969.781	132.75
969.948	164.72
970.114	144.96
970.28	236.4
970.447	195.33
970.613	218.39
970.779	164.72
970.945	168.79
971.112	179.25
971.278	188.16
971.444	151.35
971.61	219.94
971.776	152.32
971.942	210.83
972.108	177.12
972.275	171.11
972.441	156.19
972.607	228.07
972.773	129.07
972.939	189.32
973.105	118.22
973.271	108.34
973.437	137.98
973.602	122.67
973.768	155.42
973.934	147.28
974.1	149.41
974.266	65.13
974.432	154.45
974.598	117.44
974.763	166.07
974.929	124.03
975.095	195.91
975.261	122.67
975.426	108.92
975.592	154.64
975.758	192.23
975.923	86.83
976.089	107.95
976.255	179.05
976.42	146.12
976.586	145.34
976.751	160.45
976.917	227.49
977.082	159.68
977.248	116.28
977.413	65.91
977.579	105.24
977.744	177.7
977.91	101.75
978.075	106.98
978.24	138.76
978.406	139.14
978.571	120.93
978.736	106.21
978.902	146.7
979.067	97.87
979.232	84.89
979.397	153.48
979.563	182.35
979.728	106.98
979.893	154.45
980.058	115.7
980.223	166.27
980.388	139.34
980.554	138.95
980.719	97.87
980.884	144.76
981.049	157.94
981.214	130.62
981.379	149.99
981.544	137.21
981.709	133.72
981.874	121.71
982.039	139.92
982.204	154.45
982.368	150.96
982.533	120.54
982.698	138.37
982.863	187
983.028	102.33
983.193	131.2
983.357	130.42
983.522	121.71
983.687	128.49
983.852	119.96
984.016	127.71
984.181	144.37
984.346	136.43
984.51	158.32
984.675	116.47
984.839	153.87
985.004	153.48
985.168	172.85
985.333	134.3
985.498	139.72
985.662	153.29
985.827	134.88
985.991	120.93
986.155	111.44
986.32	164.33
986.484	194.36
986.649	173.44
986.813	98.84
986.977	138.95
987.142	149.8
987.306	94.77
987.47	114.15
987.634	109.69
987.799	119.19
987.963	139.14
988.127	152.9
988.291	183.51
988.455	119.57
988.62	127.52
988.784	126.74
988.948	147.67
989.112	86.83
989.276	141.47
989.44	100.78
989.604	117.83
989.768	109.5
989.932	206.76
990.096	94.19
990.26	76.17
990.424	66.88
990.588	105.62
990.752	167.62
990.915	147.67
991.079	88.19
991.243	95.36
991.407	150.57
991.571	88.77
991.734	133.33
991.898	143.99
992.062	220.52
992.226	103.49
992.389	68.62
992.553	58.54
992.717	88.19
992.88	114.15
993.044	109.5
993.207	119.19
993.371	151.93
993.535	144.57
993.698	100.59
993.862	123.45
994.025	146.31
994.189	115.51
994.352	132.75
994.515	113.96
994.679	166.85
994.842	73.27
995.006	123.64
995.169	82.96
995.332	68.81
995.496	149.41
995.659	52.54
995.822	83.15
995.985	126.36
996.149	141.66
996.312	88.77
996.475	169.37
996.638	75.21
996.801	167.24
996.964	146.89
997.128	100.39
997.291	81.99
997.454	100.39
997.617	20.18
997.78	148.83
997.943	69.59
998.106	131.01
998.269	74.43
998.432	77.92
998.595	88.96
998.758	48.47
998.92	73.27
999.083	23.67
999.246	79.47
999.409	46.34
999.572	41.88
999.735	83.15
999.897	103.49
1000.06	81.6
1000.223	79.08
1000.386	115.51
1000.548	100.2
1000.711	85.09
1000.874	77.34
1001.036	58.74
1001.199	125.77
1001.361	73.27
1001.524	88.38
1001.687	123.45
1001.849	44.4
1002.012	110.86
1002.174	91.87
1002.337	107.95
1002.499	77.72
1002.661	122.09
1002.824	29.29
1002.986	67.84
1003.149	69.2
1003.311	38.78
1003.473	129.84
1003.636	52.34
1003.798	99.23
1003.96	66.88
1004.123	66.88
1004.285	44.59
1004.447	82.18
1004.609	81.99
1004.771	128.49
1004.933	38.39
1005.096	42.27
1005.258	55.64
1005.42	65.13
1005.582	110.66
1005.744	95.74
1005.906	18.44
1006.068	67.07
1006.23	19.99
1006.392	-0.16
1006.554	46.53
1006.716	84.12
1006.878	80.63
1007.04	10.3
1007.202	43.04
1007.363	98.26
1007.525	79.86
1007.687	77.53
1007.849	123.45
1008.011	29.48
1008.172	17.28
1008.334	50.02
1008.496	88.57
1008.658	0.03
1008.819	43.63
1008.981	26.19
1009.143	38.39
1009.304	48.86
1009.466	84.89
1009.627	104.27
1009.789	168.2
1009.95	58.74
1010.112	34.33
1010.273	81.41
1010.435	55.06
1010.596	69.78
1010.758	35.49
1010.919	62.03
1011.081	46.14
1011.242	43.63
1011.403	69.98
1011.565	33.16
1011.726	65.52
1011.887	3.91
1012.049	28.71
1012.21	94.97
1012.371	121.71
1012.532	-21.86
1012.693	53.31
1012.855	14.76
1013.016	38.39
1013.177	81.6
1013.338	41.69
1013.499	113.96
1013.66	48.08
1013.821	81.21
1013.982	83.34
1014.143	67.84
1014.304	46.53
1014.465	62.23
1014.626	97.87
1014.787	39.36
1014.948	119.77
1015.109	2.74
1015.27	87.22
1015.431	28.32
1015.592	46.92
1015.752	66.88
1015.913	54.48
1016.074	70.94
1016.235	51.96
1016.395	40.53
1016.556	23.28
1016.717	30.06
1016.877	99.62
1017.038	4.88
1017.199	59.71
1017.359	49.44
1017.52	83.54
1017.681	26.19
1017.841	32.97
1018.002	27.93
1018.162	32.19
1018.323	134.88
1018.483	32.97
1018.644	50.02
1018.804	-2.68
1018.964	3.71
1019.125	35.88
1019.285	51.18
1019.446	23.67
1019.606	9.53
1019.766	4.29
1019.926	82.37
1020.087	35.1
1020.247	12.04
1020.407	77.92
1020.567	75.59
1020.728	38.01
1020.888	1.19
1021.048	17.28
1021.208	20.18
1021.368	31.03
1021.528	69.78
1021.688	83.34
1021.848	66.88
1022.008	43.24
1022.168	19.99
1022.328	18.44
1022.488	61.64
1022.648	13.98
1022.808	15.34
1022.968	55.44
1023.128	-0.55
1023.288	20.38
1023.448	31.42
1023.608	58.35
1023.767	38.98
1023.927	0.42
1024.087	-17.02
1024.247	-7.52
1024.406	30.06
1024.566	-11.98
1024.726	6.43
1024.885	35.49
1025.045	62.81
1025.205	41.3
1025.364	32.97
1025.524	19.79
1025.683	6.62
1025.843	53.31
1026.003	20.18
1026.162	73.66
1026.321	80.82
1026.481	16.89
1026.64	10.88
1026.8	53.7
1026.959	38.2
1027.119	32
1027.278	22.7
1027.437	17.66
1027.597	40.33
1027.756	27.35
1027.915	47.69
1028.074	64.16
1028.234	26.58
1028.393	57.19
1028.552	10.3
1028.711	-56.35
1028.87	53.12
1029.03	-33.87
1029.189	31.81
1029.348	-36.78
1029.507	9.91
1029.666	12.63
1029.825	5.26
1029.984	0.42
1030.143	25.03
1030.302	44.79
1030.461	-17.99
1030.62	34.13
1030.779	57.19
1030.938	-10.62
1031.097	-27.09
1031.255	60.29
1031.414	79.86
1031.573	56.99
1031.732	-13.34
1031.891	12.82
1032.049	83.15
1032.208	37.81
1032.367	-2.68
1032.525	17.66
1032.684	-6.56
1032.843	36.26
1033.001	-15.27
1033.16	165.88
1033.319	72.49
1033.477	29.48
1033.636	19.6
1033.794	-31.55
1033.953	37.23
1034.111	57.38
1034.27	-6.36
1034.428	19.6
1034.587	-11.01
1034.745	26.58
1034.903	21.34
1035.062	32
1035.22	-44.72
1035.378	59.51
1035.537	-37.94
1035.695	27.74
1035.853	14.56
1036.011	31.23
1036.17	38.39
1036.328	-44.92
1036.486	22.7
1036.644	36.65
1036.802	-49.18
1036.96	0.81
1037.119	13.98
1037.277	3.91
1037.435	-19.54
1037.593	-18.57
1037.751	4.88
1037.909	70.56
1038.067	70.56
