Data from gum_old_FLMT105791__3__15-42-25-260.txt Node

Date: Mon Mar 20 15:42:25 GMT 2023
User: antho
Spectrometer: FLMT10579
Trigger mode: 0
Integration Time (sec): 1.000000E-1
Scans to average: 10
Electric dark correction enabled: true
Nonlinearity correction enabled: false
Boxcar width: 0
XAxis mode: Wavelengths
Number of Pixels in Spectrum: 3648
>>>>>Begin Spectral Data<<<<<
345.248	-180.43
345.464	-180.43
345.681	-180.43
345.898	-169.77
346.114	-154.08
346.331	-21.36
346.548	23.59
346.764	-10.32
346.981	-27.56
347.197	-21.75
347.414	45.68
347.631	-22.91
347.847	61.76
348.064	-4.7
348.28	42.38
348.497	-36.67
348.713	-28.14
348.93	35.21
349.146	25.14
349.363	27.27
349.579	26.11
349.796	30.18
350.012	33.86
350.229	47.61
350.445	9.06
350.661	14.68
350.878	39.67
351.094	37.54
351.311	41.22
351.527	36.18
351.743	22.23
351.96	57.11
352.176	53.43
352.392	46.64
352.609	51.88
352.825	3.63
353.041	23.98
353.257	37.34
353.474	33.66
353.69	0.73
353.906	42.19
354.122	0.92
354.339	95.66
354.555	12.93
354.771	23.01
354.987	84.43
355.203	108.06
355.42	13.13
355.636	56.14
355.852	4.21
356.068	17.39
356.284	5.96
356.5	92.18
356.716	65.24
356.932	48
357.148	53.23
357.364	40.25
357.58	61.95
357.796	77.84
358.012	67.76
358.228	48.78
358.444	-26.98
358.66	87.53
358.876	59.63
359.092	9.45
359.308	15.06
359.524	59.04
359.74	43.16
359.956	26.69
360.172	64.28
360.388	81.91
360.604	36.18
360.819	110.19
361.035	59.63
361.251	91.98
361.467	4.21
361.683	86.75
361.898	65.83
362.114	75.13
362.33	40.06
362.546	83.26
362.762	60.98
362.977	67.18
363.193	-3.15
363.409	97.02
363.624	28.04
363.84	34.24
364.056	35.41
364.271	57.3
364.487	86.56
364.703	55.17
364.918	35.99
365.134	59.04
365.35	40.25
365.565	129.37
365.781	64.28
365.996	79.97
366.212	142.55
366.427	91.98
366.643	48
366.858	70.28
367.074	57.3
367.289	144.29
367.505	173.55
367.72	27.66
367.936	75.71
368.151	74.93
368.367	92.37
368.582	81.71
368.798	55.56
369.013	111.94
369.228	64.86
369.444	95.86
369.659	119.11
369.874	89.27
370.09	142.94
370.305	13.71
370.52	61.95
370.736	139.84
370.951	83.07
371.166	111.94
371.381	169.29
371.597	107.68
371.812	55.36
372.027	66.99
372.242	72.41
372.458	168.51
372.673	78.81
372.888	84.43
373.103	96.24
373.318	149.52
373.533	108.64
373.749	82.49
373.964	45.29
374.179	112.13
374.394	42.19
374.609	122.98
374.824	55.75
375.039	122.98
375.254	51.88
375.469	127.24
375.684	76.87
375.899	138.87
376.114	106.32
376.329	127.44
376.544	127.24
376.759	121.43
376.974	63.69
377.189	99.34
377.404	85.2
377.619	138.48
377.834	65.44
378.049	81.71
378.264	84.04
378.478	107.29
378.693	101.28
378.908	137.71
379.123	73.38
379.338	154.56
379.553	133.25
379.767	111.16
379.982	130.54
380.197	129.37
380.412	93.53
380.626	111.55
380.841	190.41
381.056	139.84
381.271	205.52
381.485	92.37
381.7	62.34
381.915	124.53
382.129	98.76
382.344	85.39
382.559	114.26
382.773	129.18
382.988	55.36
383.202	91.21
383.417	49.16
383.632	175.49
383.846	91.79
384.061	103.41
384.275	118.52
384.49	132.09
384.704	148.17
384.919	91.59
385.133	112.71
385.348	181.11
385.562	103.8
385.777	151.85
385.991	116.59
386.206	127.63
386.42	91.21
386.634	157.08
386.849	160.76
387.063	145.26
387.277	129.76
387.492	111.16
387.706	78.23
387.92	67.76
388.135	167.35
388.349	127.63
388.563	124.72
388.778	164.06
388.992	148.94
389.206	177.62
389.42	199.9
389.635	150.3
389.849	169.09
390.063	201.64
390.277	187.89
390.491	239.23
390.706	189.82
390.92	204.94
391.134	176.26
391.348	211.91
391.562	145.65
391.776	180.52
391.99	147.59
392.205	203.58
392.419	154.76
392.633	190.41
392.847	176.07
393.061	140.61
393.275	207.84
393.489	141
393.703	105.16
393.917	138.29
394.131	79
394.345	150.69
394.559	188.86
394.773	121.62
394.986	190.02
395.2	186.92
395.414	195.64
395.628	188.86
395.842	208.04
396.056	183.04
396.27	159.79
396.484	181.88
396.697	194.28
396.911	218.89
397.125	142.94
397.339	180.91
397.553	178.01
397.766	206.87
397.98	204.74
398.194	253.37
398.408	201.06
398.621	258.02
398.835	284.18
399.049	292.9
399.262	337.07
399.476	295.42
399.69	316.92
399.903	372.53
400.117	290.77
400.331	317.12
400.544	270.42
400.758	411.86
400.971	327.58
401.185	330.1
401.398	271.78
401.612	335.91
401.826	338.23
402.039	330.48
402.253	325.83
402.466	336.88
402.68	316.92
402.893	372.33
403.106	342.3
403.32	329.71
403.533	354.9
403.747	330.29
403.96	385.31
404.174	343.85
404.387	329.52
404.6	367.3
404.814	383.76
405.027	337.07
405.24	344.82
405.454	333.58
405.667	381.83
405.88	315.95
406.094	364.58
406.307	381.25
406.52	359.74
406.733	332.42
406.947	286.89
407.16	405.66
407.373	386.09
407.586	327.19
407.799	328.74
408.012	417.09
408.226	339.59
408.439	433.36
408.652	324.67
408.865	402.95
409.078	441.11
409.291	420.77
409.504	370.59
409.717	423.87
409.93	422.51
410.143	394.42
410.357	316.15
410.57	313.82
410.783	371.75
410.996	370.4
411.209	363.62
411.421	437.24
411.634	396.75
411.847	418.06
412.06	412.63
412.273	429.1
412.486	426.58
412.699	501.18
412.912	439.95
413.125	463.98
413.338	428.91
413.55	441.7
413.763	414.38
413.976	463.98
414.189	407.21
414.402	427.75
414.615	483.16
414.827	438.98
415.04	475.99
415.253	462.62
415.466	469.98
415.678	543.03
415.891	450.22
416.104	469.01
416.316	461.26
416.529	418.83
416.742	511.83
416.954	503.69
417.167	474.83
417.38	471.92
417.592	494.98
417.805	439.76
418.017	394.03
418.23	488.19
418.442	463.59
418.655	438.21
418.868	483.74
419.08	505.63
419.293	495.17
419.505	502.34
419.718	485.48
419.93	522.1
420.142	471.73
420.355	529.46
420.567	508.15
420.78	511.83
420.992	486.06
421.205	561.24
421.417	485.48
421.629	534.31
421.842	505.63
422.054	492.26
422.266	578.09
422.479	554.46
422.691	503.11
422.903	531.21
423.115	469.21
423.328	496.91
423.54	501.76
423.752	502.14
423.964	479.48
424.177	539.15
424.389	528.69
424.601	619.17
424.813	528.69
425.025	582.36
425.238	545.74
425.45	492.07
425.662	498.85
425.874	798.77
426.086	523.65
426.298	558.72
426.51	556.39
426.722	542.44
426.934	514.35
427.146	564.72
427.358	528.3
427.57	541.09
427.782	515.51
427.994	505.44
428.206	486.45
428.418	511.64
428.63	548.06
428.842	601.34
429.054	543.22
429.266	556.01
429.478	489.55
429.69	545.93
429.902	465.33
430.114	507.96
430.325	495.17
430.537	452.74
430.749	421.16
430.961	365.75
431.173	440.92
431.384	449.45
431.596	365.75
431.808	473.47
432.02	548.64
432.231	604.25
432.443	642.22
432.655	621.69
432.867	565.5
433.078	627.5
433.29	680.2
433.502	635.83
433.713	673.03
433.925	671.48
434.136	650.17
434.348	565.89
434.56	554.65
434.771	704.8
434.983	553.49
435.194	606.38
435.406	632.54
435.617	714.3
435.829	728.44
436.04	675.16
436.252	670.12
436.463	747.23
436.675	727.47
436.886	736.97
437.098	747.04
437.309	766.03
437.521	734.45
437.732	686.4
437.943	694.54
438.155	688.92
438.366	643.19
438.578	741.62
438.789	677.49
439	697.05
439.211	639.7
439.423	659.66
439.634	688.34
439.845	714.88
440.057	729.6
440.268	773.97
440.479	698.02
440.69	740.26
440.902	713.14
441.113	708.29
441.324	687.17
441.535	731.15
441.746	801.29
441.957	737.74
442.168	760.6
442.38	813.3
442.591	816.79
442.802	739.68
443.013	758.28
443.224	819.11
443.435	778.82
443.646	818.15
443.857	768.93
444.068	768.93
444.279	766.8
444.49	892.16
444.701	814.46
444.912	936.33
445.123	869.49
445.334	825.7
445.545	821.63
445.756	819.5
445.967	763.12
446.178	830.35
446.388	853.02
446.599	813.3
446.81	822.41
447.021	789.47
447.232	847.98
447.443	868.13
447.653	831.32
447.864	889.83
448.075	874.33
448.286	886.54
448.496	897.78
448.707	902.81
448.918	836.55
449.129	946.02
449.339	867.94
449.55	899.71
449.761	852.05
449.971	928.58
450.182	868.52
450.393	937.11
450.603	874.53
450.814	934.2
451.024	950.09
451.235	980.31
451.446	973.73
451.656	979.73
451.867	936.14
452.077	916.96
452.288	988.26
452.498	994.46
452.709	920.06
452.919	912.89
453.13	887.7
453.34	943.11
453.55	820.47
453.761	895.45
453.971	872.4
454.182	942.14
454.392	941.95
454.602	1013.64
454.813	942.34
455.023	942.73
455.233	884.6
455.444	931.49
455.654	864.06
455.864	927.42
456.075	916.18
456.285	919.09
456.495	945.63
456.705	921.41
456.916	985.16
457.126	999.69
457.336	976.63
457.546	904.36
457.756	953.19
457.967	979.15
458.177	948.54
458.387	985.93
458.597	927.23
458.807	966.94
459.017	921.22
459.227	939.24
459.437	949.31
459.647	990.97
459.857	947.18
460.068	966.94
460.278	1025.46
460.488	959
460.698	1020.22
460.908	964.62
461.117	992.52
461.327	998.91
461.537	985.74
461.747	1010.92
461.957	1019.45
462.167	1125.62
462.377	1032.43
462.587	1013.25
462.797	1071.95
463.007	1042.7
463.216	1100.63
463.426	1078.35
463.636	1097.14
463.846	981.28
464.056	1026.42
464.265	1046.38
464.475	986.51
464.685	1051.22
464.895	1064.59
465.104	1007.44
465.314	1056.65
465.524	1022.74
465.733	994.26
465.943	1122.33
466.153	1136.86
466.362	1114.77
466.572	1071.57
466.782	1072.73
466.991	1076.41
467.201	1099.85
467.41	1006.27
467.62	1067.11
467.829	1069.44
468.039	1085.32
468.249	1063.24
468.458	1109.93
468.668	1121.94
468.877	1145.19
469.086	1153.14
469.296	1192.85
469.505	1151.78
469.715	1188.98
469.924	1151
470.134	1189.37
470.343	1182.78
470.552	1165.15
470.762	1145.39
470.971	1092.88
471.18	1178.9
471.39	1154.3
471.599	1140.93
471.808	1204.87
472.018	1191.5
472.227	1247.88
472.436	1306.58
472.645	1242.45
472.855	1214.17
473.064	1307.75
473.273	1315.5
473.482	1276.36
473.691	1296.9
473.901	1280.43
474.11	1250.2
474.319	1386.02
474.528	1299.8
474.737	1405.59
474.946	1393.19
475.155	1360.83
475.364	1409.66
475.573	1336.23
475.783	1391.06
475.992	1396.68
476.201	1419.15
476.41	1371.88
476.619	1306
476.828	1392.8
477.037	1340.29
477.245	1352.31
477.454	1385.05
477.663	1412.18
477.872	1434.46
478.081	1526.29
478.29	1438.52
478.499	1535.2
478.708	1513.5
478.917	1539.27
479.125	1479.99
479.334	1508.27
479.543	1486.38
479.752	1529
479.961	1522.42
480.169	1593.14
480.378	1557.87
480.587	1691.75
480.796	1566.4
481.004	1591
481.213	1577.64
481.422	1585.39
481.63	1656.88
481.839	1627.82
482.048	1705.9
482.256	1668.12
482.465	1709.38
482.674	1687.49
482.882	1709.77
483.091	1758.98
483.299	1668.7
483.508	1761.31
483.716	1767.7
483.925	1750.65
484.134	1673.54
484.342	1718.88
484.551	1778.16
484.759	1735.54
484.967	1785.91
485.176	1776.03
485.384	1809.74
485.593	1781.65
485.801	1781.65
486.01	1700.86
486.218	1621.03
486.426	1530.17
486.635	1521.06
486.843	1476.89
487.051	1582.48
487.26	1577.44
487.468	1597.59
487.676	1683.03
487.885	1678.97
488.093	1740
488.301	1753.36
488.509	1799.48
488.717	1839.78
488.926	1826.02
489.134	1814.01
489.342	1799.67
489.55	1801.61
489.758	1830.48
489.967	1827.38
490.175	1941.88
490.383	1888.99
490.591	2018.99
490.799	1895.57
491.007	1982.57
491.215	1962.8
491.423	1963.58
491.631	1941.88
491.839	1936.65
492.047	1950.99
492.255	1892.09
492.463	1818.66
492.671	1832.8
492.879	1909.14
493.087	1913.98
493.295	1938.97
493.503	1994
493.711	2043.6
493.919	2027.71
494.127	2027.13
494.334	2043.6
494.542	1995.55
494.75	2057.35
494.958	2006.98
495.166	2080.02
495.374	2098.23
495.581	2140.86
495.789	2085.64
495.997	2173.8
496.205	2036.43
496.412	2062.58
496.62	2083.12
496.828	2080.41
497.035	2076.92
497.243	2089.13
497.451	2133.69
497.658	2123.23
497.866	2101.92
498.074	2184.45
498.281	2061.81
498.489	2175.54
498.696	2050.18
498.904	2045.73
499.112	2043.4
499.319	2156.94
499.527	2118.38
499.734	2203.83
499.942	2047.86
500.149	2113.35
500.357	2107.92
500.564	2071.69
500.771	2112.57
500.979	2058.32
501.186	2048.05
501.394	2105.98
501.601	2029.07
501.808	2083.9
502.016	2068.78
502.223	1994.77
502.43	2074.02
502.638	2074.02
502.845	2085.06
503.052	2191.04
503.26	2113.35
503.467	2173.8
503.674	2189.49
503.881	2171.47
504.089	2235.41
504.296	2160.81
504.503	2099.78
504.71	2106.95
504.917	2081.57
505.125	2126.13
505.332	2175.54
505.539	2182.9
505.746	2279.78
505.953	2276.68
506.16	2233.08
506.367	2314.84
506.574	2368.12
506.781	2341.97
506.988	2252.84
507.195	2259.82
507.402	2284.81
507.609	2276.68
507.816	2230.76
508.023	2246.45
508.23	2187.55
508.437	2159.65
508.644	2189.1
508.851	2280.16
509.058	2304.19
509.265	2262.53
509.472	2276.48
509.679	2377.81
509.885	2290.63
510.092	2315.23
510.299	2298.96
510.506	2273.96
510.713	2303.99
510.92	2295.08
511.126	2347.97
511.333	2348.75
511.54	2377.81
511.746	2400.48
511.953	2400.48
512.16	2418.69
512.367	2368.12
512.573	2361.15
512.78	2340.22
512.987	2330.73
513.193	2303.8
513.4	2209.64
513.606	2341.39
513.813	2356.31
514.02	2324.53
514.226	2346.04
514.433	2364.83
514.639	2249.94
514.846	2302.83
515.052	2286.36
515.259	2358.44
515.465	2329.76
515.672	2331.7
515.878	2442.33
516.085	2382.65
516.291	2399.7
516.497	2372.97
516.704	2309.03
516.91	2228.82
517.117	2158.3
517.323	2115.67
517.529	2081.57
517.736	2099.98
517.942	2105.02
518.148	2155.58
518.354	2214.09
518.561	2201.7
518.767	2215.84
518.973	2232.11
519.179	2233.86
519.386	2232.69
519.592	2224.56
519.798	2251.49
520.004	2435.74
520.21	2354.17
520.417	2443.88
520.623	2438.07
520.829	2479.14
521.035	2473.13
521.241	2459.96
521.447	2493.67
521.653	2584.73
521.859	2477.4
522.065	2513.43
522.271	2617.09
522.477	2563.61
522.683	2620.38
522.889	2579.89
523.095	2551.6
523.301	2492.32
523.507	2463.25
523.713	2547.92
523.919	2453.95
524.125	2572.53
524.331	2600.04
524.537	2689.74
524.742	2648.86
524.948	2698.46
525.154	2694.78
525.36	2795.72
525.566	2649.64
525.772	2729.08
525.977	2658.94
526.183	2706.41
526.389	2704.08
526.595	2594.81
526.8	2627.16
527.006	2527.58
527.212	2448.72
527.417	2434
527.623	2424.7
527.829	2527.58
528.034	2575.05
528.24	2547.73
528.446	2582.8
528.651	2754.84
528.857	2706.6
529.062	2757.36
529.268	2740.51
529.473	2787.01
529.679	2805.99
529.884	2863.34
530.09	2834.28
530.295	2855.01
530.501	2819.94
530.706	2824.01
530.912	2813.16
531.117	2856.17
531.323	2858.11
531.528	2886.4
531.733	2892.79
531.939	2872.45
532.144	2946.46
532.35	2865.09
532.555	2891.24
532.76	2862.37
532.966	2894.15
533.171	2742.83
533.376	2771.89
533.581	2738.76
533.787	2753.29
533.992	2880.2
534.197	2884.85
534.402	2831.18
534.607	2880.78
534.813	2968.93
535.018	2869.93
535.223	2863.54
535.428	2935.03
535.633	2921.27
535.838	3011.36
536.043	2961.38
536.249	3060
536.454	2969.13
536.659	3031.9
536.864	3003.42
537.069	2951.11
537.274	2971.84
537.479	2936.19
537.684	2906.74
537.889	2897.25
538.094	3087.31
538.299	2937.35
538.504	2961.96
538.708	3004.39
538.913	3005.94
539.118	2995.28
539.323	3022.6
539.528	2936.97
539.733	2942.97
539.938	2955.37
540.142	2951.11
540.347	2965.83
540.552	2911
540.757	2890.85
540.962	2918.37
541.166	2823.43
541.371	2818.78
541.576	2854.62
541.781	2793.59
541.985	2933.28
542.19	2884.46
542.395	3087.12
542.599	3082.28
542.804	3009.81
543.008	3016.79
543.213	2991.6
543.418	2926.12
543.622	3031.13
543.827	2927.67
544.031	3033.84
544.236	3017.56
544.44	3032.48
544.645	3071.23
544.849	3023.76
545.054	3097.97
545.258	3135.94
545.463	3071.62
545.667	3007.1
545.872	3094.29
546.076	3079.37
546.281	3045.46
546.485	3029.77
546.689	3095.06
546.894	3092.16
547.098	3076.66
547.302	2997.61
547.507	3061.16
547.711	3065.23
547.915	3072.98
548.119	3005.55
548.324	2990.05
548.528	3059.8
548.732	2998.19
548.936	3091.77
549.141	3103.39
549.345	3056.7
549.549	3048.95
549.753	3069.1
549.957	3141.37
550.161	3151.44
550.366	3087.51
550.57	3029.58
550.774	3045.85
550.978	3057.67
551.182	3032.48
551.386	3046.82
551.59	3052.05
551.794	3023.96
551.998	3075.3
552.202	3035.58
552.406	3004.58
552.61	3080.53
552.814	3064.84
553.018	3124.9
553.222	3026.48
553.426	3037.13
553.63	3127.42
553.833	3086.15
554.037	2984.82
554.241	3049.53
554.445	3054.57
554.649	3034.81
554.853	3016.21
555.056	3097.58
555.26	3090.99
555.464	3099.71
555.668	3121.99
555.871	3112.31
556.075	3068.13
556.279	3022.6
556.483	3003.42
556.686	3059.61
556.89	3051.28
557.094	3048.37
557.297	2934.06
557.501	3034.42
557.704	2930.57
557.908	3047.21
558.112	2956.53
558.315	3048.95
558.519	2957.5
558.722	2967.97
558.926	2957.7
559.129	2868.38
559.333	2855.98
559.536	2845.13
559.74	2827.69
559.943	2803.86
560.147	2793.21
560.35	2809.48
560.553	2855.79
560.757	2822.85
560.96	2926.89
561.164	2842.42
561.367	2926.5
561.57	2868.38
561.774	2903.25
561.977	2902.29
562.18	2835.05
562.384	2947.04
562.587	2843.19
562.79	2887.56
562.993	2846.1
563.197	2864.7
563.4	2915.46
563.603	2898.6
563.806	2913.72
564.009	2844.94
564.212	2890.08
564.416	2771.7
564.619	2833.12
564.822	2757.17
565.025	2867.6
565.228	2802.7
565.431	2839.32
565.634	2749.61
565.837	2735.27
566.04	2756.01
566.243	2700.98
566.446	2625.61
566.649	2737.02
566.852	2628.52
567.055	2702.73
567.258	2729.08
567.461	2832.92
567.664	2785.26
567.867	2649.83
568.07	2730.62
568.273	2694.2
568.475	2765.69
568.678	2647.51
568.881	2676.38
569.084	2668.63
569.287	2540.56
569.489	2555.48
569.692	2651.96
569.895	2632.78
570.098	2573.3
570.3	2605.66
570.503	2535.13
570.706	2563.23
570.909	2523.51
571.111	2495.22
571.314	2470.03
571.516	2465
571.719	2526.8
571.922	2487.28
572.124	2486.31
572.327	2507.43
572.529	2481.27
572.732	2487.08
572.935	2545.98
573.137	2607.79
573.34	2517.7
573.542	2526.8
573.745	2535.52
573.947	2492.9
574.15	2544.05
574.352	2501.03
574.554	2611.86
574.757	2494.25
574.959	2459.57
575.162	2497.93
575.364	2430.12
575.566	2544.43
575.769	2393.5
575.971	2489.41
576.173	2354.76
576.376	2410.17
576.578	2471.2
576.78	2487.08
576.982	2372.97
577.185	2408.81
577.387	2414.04
577.589	2392.73
577.791	2418.5
577.993	2450.08
578.196	2380.72
578.398	2380.91
578.6	2400.09
578.802	2310
579.004	2293.72
579.206	2348.56
579.408	2365.02
579.61	2323.56
579.812	2395.83
580.014	2345.65
580.216	2355.92
580.418	2372.77
580.62	2316.78
580.822	2310.77
581.024	2396.8
581.226	2358.63
581.428	2345.26
581.63	2452.6
581.832	2356.31
582.034	2422.76
582.236	2340.22
582.438	2428.96
582.64	2438.65
582.841	2451.05
583.043	2471.97
583.245	2397.38
583.447	2427.8
583.649	2350.69
583.85	2380.14
584.052	2428.57
584.254	2337.51
584.456	2427.8
584.657	2336.54
584.859	2373.36
585.061	2364.83
585.262	2369.09
585.464	2323.17
585.666	2355.72
585.867	2291.79
586.069	2390.21
586.27	2300.7
586.472	2331.31
586.674	2289.46
586.875	2300.51
587.077	2279.39
587.278	2272.03
587.48	2294.5
587.681	2417.14
587.883	2333.64
588.084	2229.79
588.285	2269.89
588.487	2230.95
588.688	2282.49
588.89	2184.84
589.091	2105.6
589.292	2138.53
589.494	2058.32
589.695	2037.2
589.896	1969.59
590.098	1991.29
590.299	2052.12
590.5	2030.23
590.702	2032.17
590.903	2067.43
591.104	2143.76
591.305	2148.22
591.507	2206.93
591.708	2174.76
591.909	2107.15
592.11	2201.31
592.311	2161.59
592.512	2115.09
592.714	2094.94
592.915	2125.94
593.116	2095.72
593.317	2185.03
593.518	2147.06
593.719	2126.13
593.92	2159.46
594.121	2170.7
594.322	2121.29
594.523	2129.04
594.724	2068.78
594.925	2126.91
595.126	2155.97
595.327	2176.9
595.528	2158.1
595.729	2147.06
595.929	2098.04
596.13	2096.49
596.331	2151.9
596.532	2141.25
596.733	2198.79
596.934	2181.93
597.135	2181.55
597.335	2179.03
597.536	2113.93
597.737	2169.53
597.938	2132.33
598.138	2149
598.339	2108.89
598.54	2176.7
598.74	2090.1
598.941	2119.93
599.142	2191.04
599.342	2121.87
599.543	2085.45
599.744	2129.04
599.944	2087.77
600.145	2111.22
600.345	2082.73
600.546	2163.14
600.746	2207.89
600.947	2212.16
601.147	2086.8
601.348	2123.03
601.548	2079.83
601.749	2113.54
601.949	2065.68
602.15	2087.19
602.35	2042.82
602.551	2130.4
602.751	2039.72
602.951	2071.88
603.152	1989.54
603.352	2130.4
603.552	2079.05
603.753	2125.55
603.953	2155.39
604.153	2155
604.354	2127.49
604.554	2135.82
604.754	2128.46
604.954	2086.22
605.155	2120.32
605.355	2094.17
605.555	2104.63
605.755	2131.36
605.955	2108.31
606.155	2139.11
606.356	2096.1
606.556	2100.37
606.756	2108.7
606.956	2029.45
607.156	2157.13
607.356	2026.74
607.556	2078.08
607.756	2083.7
607.956	2119.93
608.156	2077.5
608.356	2029.65
608.556	2118.58
608.756	2079.05
608.956	2011.05
609.156	2043.21
609.356	2018.41
609.556	2014.73
609.755	2047.47
609.955	1978.89
610.155	1995.94
610.355	2016.09
610.555	1976.75
610.755	2024.03
610.954	1930.06
611.154	2018.8
611.354	2039.53
611.554	1969.59
611.753	1980.05
611.953	1971.52
612.153	1973.46
612.352	1987.02
612.552	1934.71
612.752	1928.9
612.951	1972.3
613.151	1963.58
613.351	1939.56
613.55	1951.76
613.75	1961.45
613.949	1949.05
614.149	1945.37
614.348	1917.86
614.548	1917.66
614.747	1880.27
614.947	1896.35
615.146	1842.1
615.346	1985.67
615.545	1956.02
615.745	1927.54
615.944	1958.54
616.144	1952.73
616.343	1932.39
616.542	1861.28
616.742	1888.79
616.941	1884.53
617.14	1776.81
617.34	1868.26
617.539	1860.31
617.738	1810.33
617.938	1946.92
618.137	1885.11
618.336	1849.08
618.535	1884.72
618.734	1869.61
618.934	1880.27
619.133	1886.08
619.332	1910.3
619.531	1856.24
619.73	1865.93
619.929	1913.21
620.128	1900.61
620.328	1944.59
620.527	1867.67
620.726	1873.1
620.925	1870.58
621.124	1838.42
621.323	1848.69
621.522	1817.49
621.721	1817.11
621.92	1774.68
622.119	1880.46
622.318	1822.14
622.517	1813.62
622.715	1842.68
622.914	1748.71
623.113	1814.39
623.312	1758.4
623.511	1815.36
623.71	1816.33
623.909	1799.28
624.107	1914.37
624.306	1740.58
624.505	1754.53
624.704	1736.9
624.902	1708.41
625.101	1843.84
625.3	1762.47
625.499	1715
625.697	1769.06
625.896	1727.6
626.095	1761.7
626.293	1700.86
626.492	1699.89
626.69	1779.91
626.889	1722.36
627.088	1846.75
627.286	1742.13
627.485	1689.23
627.683	1723.91
627.882	1702.41
628.08	1657.07
628.279	1663.08
628.477	1786.3
628.676	1653
628.874	1708.8
629.073	1694.27
629.271	1674.51
629.469	1735.15
629.668	1684.97
629.866	1713.65
630.065	1665.98
630.263	1715.97
630.461	1667.34
630.66	1692.33
630.858	1689.81
631.056	1733.41
631.254	1730.11
631.453	1664.05
631.651	1688.65
631.849	1697.95
632.047	1706.67
632.245	1656.88
632.444	1681.87
632.642	1694.66
632.84	1706.48
633.038	1643.7
633.236	1636.92
633.434	1659.98
633.632	1649.9
633.83	1621.03
634.028	1696.98
634.227	1657.07
634.425	1744.45
634.623	1663.66
634.821	1668.5
635.019	1715.2
635.216	1675.48
635.414	1684.39
635.612	1650.68
635.81	1657.27
636.008	1694.85
636.206	1666.76
636.404	1688.07
636.602	1619.87
636.8	1653
636.997	1668.7
637.195	1721.01
637.393	1679.35
637.591	1703.18
637.789	1650.1
637.986	1688.85
638.184	1665.98
638.382	1692.91
638.58	1690.2
638.777	1725.46
638.975	1660.17
639.173	1668.12
639.37	1670.44
639.568	1642.54
639.765	1683.81
639.963	1647.19
640.161	1663.66
640.358	1683.81
640.556	1619.29
640.753	1562.72
640.951	1590.62
641.148	1618.52
641.346	1558.26
641.543	1598.56
641.741	1623.36
641.938	1564.07
642.136	1608.63
642.333	1581.32
642.531	1656.68
642.728	1662.3
642.925	1592.55
643.123	1611.54
643.32	1631.3
643.517	1572.6
643.715	1569.5
643.912	1549.93
644.109	1622.78
644.306	1594.3
644.504	1519.7
644.701	1579.57
644.898	1632.27
645.095	1547.6
645.293	1585.19
645.49	1593.91
645.687	1575.12
645.884	1614.25
646.081	1498.78
646.278	1536.56
646.475	1531.14
646.672	1548.38
646.87	1545.09
647.067	1544.12
647.264	1536.17
647.461	1499.94
647.658	1423.8
647.855	1553.42
648.052	1467.39
648.249	1427.29
648.446	1473.98
648.642	1465.26
648.839	1446.66
649.036	1452.67
649.233	1471.85
649.43	1431.55
649.627	1433.29
649.824	1415.28
650.021	1433.87
650.217	1393.58
650.414	1426.71
650.611	1458.09
650.808	1478.24
651.004	1504.01
651.201	1480.76
651.398	1539.47
651.595	1465.07
651.791	1437.94
651.988	1506.92
652.185	1428.26
652.381	1480.37
652.578	1407.91
652.775	1468.75
652.971	1479.41
653.168	1440.46
653.364	1465.26
653.561	1390.48
653.757	1430.77
653.954	1464.49
654.15	1397.45
654.347	1501.69
654.543	1442.21
654.74	1424.77
654.936	1373.23
655.133	1391.06
655.329	1392.61
655.525	1396.09
655.722	1417.6
655.918	1337.19
656.115	1368.58
656.311	1240.13
656.507	1211.84
656.704	1180.65
656.9	1217.46
657.096	1212.81
657.292	1241.1
657.489	1299.8
657.685	1329.64
657.881	1280.23
658.077	1304.84
658.273	1342.43
658.47	1409.08
658.666	1332.35
658.862	1382.53
659.058	1344.94
659.254	1404.23
659.45	1333.13
659.646	1370.71
659.842	1355.6
660.038	1413.92
660.234	1358.7
660.43	1375.36
660.626	1474.95
660.822	1407.72
661.018	1406.75
661.214	1387.57
661.41	1334.09
661.606	1424.96
661.802	1416.24
661.998	1386.41
662.194	1369.94
662.39	1412.56
662.586	1432.71
662.781	1397.64
662.977	1435.04
663.173	1422.83
663.369	1412.37
663.564	1427.87
663.76	1429.42
663.956	1363.16
664.152	1406.56
664.347	1320.53
664.543	1386.6
664.739	1355.21
664.934	1296.9
665.13	1349.21
665.326	1397.84
665.521	1386.41
665.717	1336.23
665.912	1346.69
666.108	1288.95
666.304	1362.96
666.499	1354.44
666.695	1284.11
666.89	1352.69
667.086	1400.74
667.281	1342.81
667.477	1417.79
667.672	1384.28
667.867	1367.03
668.063	1378.08
668.258	1309.49
668.454	1369.55
668.649	1420.7
668.844	1350.76
669.04	1392.22
669.235	1362.58
669.43	1337.97
669.626	1294.76
669.821	1319.95
670.016	1264.35
670.211	1316.46
670.407	1312.01
670.602	1372.26
670.797	1311.43
670.992	1357.34
671.187	1273.26
671.382	1356.18
671.578	1276.75
671.773	1320.73
671.968	1258.15
672.163	1320.53
672.358	1334.48
672.553	1283.14
672.748	1281.4
672.943	1386.21
673.138	1278.68
673.333	1338.74
673.528	1266.86
673.723	1348.24
673.918	1281.01
674.113	1246.33
674.308	1352.5
674.503	1314.14
674.698	1316.27
674.892	1294.57
675.087	1351.73
675.282	1313.75
675.477	1287.6
675.672	1305.42
675.867	1288.95
676.061	1272.1
676.256	1237.03
676.451	1248.65
676.646	1255.05
676.84	1247.68
677.035	1240.52
677.23	1244.97
677.424	1255.43
677.619	1323.44
677.814	1309.1
678.008	1296.51
678.203	1243.62
678.397	1233.15
678.592	1261.83
678.787	1303.87
678.981	1295.35
679.176	1280.62
679.37	1254.85
679.565	1229.08
679.759	1251.36
679.954	1267.06
680.148	1307.55
680.342	1306.39
680.537	1293.8
680.731	1252.14
680.926	1284.3
681.12	1262.41
681.314	1248.26
681.509	1253.3
681.703	1250.98
681.897	1250.59
682.092	1241.48
682.286	1243.62
682.48	1314.91
682.674	1257.95
682.869	1245.36
683.063	1241.1
683.257	1270.55
683.451	1210.87
683.645	1257.37
683.839	1228.5
684.034	1224.82
684.228	1239.93
684.422	1180.65
684.616	1203.32
684.81	1246.71
685.004	1223.47
685.198	1210.68
685.392	1234.7
685.586	1202.54
685.78	1180.84
685.974	1243.03
686.168	1220.37
686.362	1299.61
686.556	1129.69
686.75	1159.92
686.944	1111.29
687.138	1104.7
687.331	991.16
687.525	1049.29
687.719	928.58
687.913	1016.16
688.107	990.39
688.301	959.58
688.494	1051.81
688.688	1012.47
688.882	957.84
689.076	969.08
689.269	990
689.463	1075.05
689.657	1008.41
689.85	1027.01
690.044	1037.47
690.238	1029.91
690.431	1030.49
690.625	1049.29
690.818	1068.66
691.012	1051.42
691.205	1099.85
691.399	1033.4
691.593	1072.92
691.786	1122.33
691.98	1152.36
692.173	1148.1
692.366	1108.77
692.56	1154.88
692.753	1165.34
692.947	1092.88
693.14	1172.51
693.333	1143.45
693.527	1107.99
693.72	1153.91
693.914	1131.05
694.107	1093.46
694.3	1135.89
694.493	1115.16
694.687	1173.09
694.88	1095.4
695.073	1161.47
695.266	1157.98
695.46	1143.06
695.653	1208.35
695.846	1195.37
696.039	1106.44
696.232	1140.15
696.425	1216.1
696.618	1225.02
696.812	1220.17
697.005	1264.35
697.198	1326.54
697.391	1266.67
697.584	1295.73
697.777	1338.16
697.97	1292.44
698.163	1307.55
698.356	1305.81
698.549	1375.94
698.742	1353.28
698.935	1324.41
699.127	1348.43
699.32	1289.15
699.513	1288.56
699.706	1343.98
699.899	1376.91
700.092	1373.23
700.285	1386.02
700.477	1296.31
700.67	1376.33
700.863	1431.16
701.056	1503.82
701.248	1416.24
701.441	1489.67
701.634	1407.53
701.826	1520.29
702.019	1415.28
702.212	1502.66
702.404	1425.54
702.597	1445.69
702.79	1470.49
702.982	1483.86
703.175	1527.65
703.367	1569.89
703.56	1554.58
703.752	1664.63
703.945	1586.74
704.137	1591
704.33	1641.77
704.522	1648.74
704.715	1669.08
704.907	1689.62
705.1	1724.69
705.292	1743.68
705.484	1716.75
705.677	1741.55
705.869	1753.36
706.061	1769.64
706.254	1836.87
706.446	1816.91
706.638	1786.69
706.831	1878.14
707.023	1831.06
707.215	1923.86
707.407	1933.55
707.599	1932.39
707.792	2011.05
707.984	1985.86
708.176	1971.91
708.368	1969.39
708.56	1974.82
708.752	2002.33
708.944	1971.91
709.136	2063.36
709.329	2001.94
709.521	2153.26
709.713	2131.75
709.905	2157.91
710.097	2170.11
710.289	2127.3
710.481	2161.2
710.672	2193.75
710.864	2181.74
711.056	2242.38
711.248	2204.41
711.44	2254.98
711.632	2235.6
711.824	2288.11
712.016	2356.89
712.207	2365.41
712.399	2309.22
712.591	2435.74
712.783	2372.97
712.975	2463.25
713.166	2376.46
713.358	2410.94
713.55	2469.65
713.741	2476.23
713.933	2511.69
714.125	2505.49
714.316	2473.33
714.508	2584.93
714.7	2564.39
714.891	2545.21
715.083	2598.88
715.274	2564
715.466	2658.94
715.657	2718.81
715.849	2569.81
716.04	2638.6
716.232	2551.8
716.423	2626.97
716.615	2582.6
716.806	2519.83
716.998	2524.48
717.189	2474.1
717.381	2423.54
717.572	2373.16
717.763	2389.63
717.955	2374.13
718.146	2320.46
718.337	2279.58
718.528	2275.71
718.72	2156.16
718.911	2243.35
719.102	2204.8
719.293	2279
719.485	2260.79
719.676	2250.52
719.867	2198.6
720.058	2208.86
720.249	2198.21
720.44	2232.5
720.632	2293.92
720.823	2342.74
721.014	2487.28
721.205	2517.89
721.396	2596.75
721.587	2716.68
721.778	2762.79
721.969	2766.08
722.16	2827.89
722.351	2865.67
722.542	2978.82
722.733	3007.88
722.924	2926.89
723.115	3018.53
723.305	2946.27
723.496	3014.46
723.687	2875.74
723.878	2879.23
724.069	2863.15
724.26	2909.84
724.45	2825.75
724.641	2806.19
724.832	2880.59
725.023	2874.97
725.213	2869.74
725.404	2914.88
725.595	2848.81
725.785	2847.45
725.976	2958.67
726.167	2936.19
726.357	2947.43
726.548	3071.62
726.739	2985.79
726.929	3070.46
727.12	3101.26
727.31	3099.91
727.501	3056.7
727.691	3097.39
727.882	3075.88
728.072	3134.59
728.263	3133.23
728.453	3209.76
728.644	3181.47
728.834	3174.5
729.024	3151.44
729.215	3172.56
729.405	3188.84
729.596	3247.93
729.786	3290.17
729.976	3320.78
730.167	3345
730.357	3316.52
730.547	3286.87
730.737	3344.8
730.928	3381.81
731.118	3453.3
731.308	3413.39
731.498	3411.45
731.688	3512.59
731.879	3558.12
732.069	3606.17
732.259	3636.01
732.449	3599.78
732.639	3704.4
732.829	3728.23
733.019	3848.93
733.209	3853.58
733.399	3803.79
733.589	3927.01
733.779	3976.23
733.969	3972.93
734.159	4037.26
734.349	4111.66
734.539	4156.41
734.729	4144.2
734.919	4155.83
735.109	4241.85
735.299	4156.99
735.488	4195.16
735.678	4193.8
735.868	4197.1
736.058	4187.99
736.248	4206.98
736.437	4168.62
736.627	4099.64
736.817	4299.98
737.007	4222.28
737.196	4282.35
737.386	4244.76
737.576	4238.17
737.765	4349.96
737.955	4296.49
738.144	4454.98
738.334	4397.24
738.524	4333.69
738.713	4402.28
738.903	4374.18
739.092	4414.48
739.282	4359.26
739.471	4441.22
739.661	4460.79
739.85	4486.56
740.04	4475.9
740.229	4475.13
740.419	4514.84
740.608	4547.59
740.797	4486.56
740.987	4594.67
741.176	4515.81
741.365	4506.51
741.555	4471.64
741.744	4586.14
741.933	4502.25
742.123	4627.8
742.312	4556.11
742.501	4651.63
742.69	4666.74
742.88	4516.78
743.069	4675.85
743.258	4634
743.447	4691.54
743.636	4696.97
743.825	4657.63
744.014	4729.32
744.204	4745.21
744.393	4612.1
744.582	4745.79
744.771	4774.85
744.96	4697.93
745.149	4738.82
745.338	4721.77
745.527	4792.1
745.716	4760.32
745.905	4754.12
746.094	4802.36
746.283	4783.38
746.471	4785.51
746.66	4871.53
746.849	4831.23
747.038	4825.03
747.227	4784.73
747.416	4821.55
747.604	4732.62
747.793	4784.35
747.982	4827.55
748.171	4852.16
748.359	4818.83
748.548	4837.82
748.737	4809.92
748.926	4808.37
749.114	4711.11
749.303	4776.4
749.491	4787.25
749.68	4687.28
749.869	4822.71
750.057	4767.3
750.246	4790.55
750.434	4744.43
750.623	4745.4
750.811	4691.73
751	4790.93
751.188	4715.18
751.377	4755.86
751.565	4688.05
751.754	4722.73
751.942	4702.78
752.131	4791.71
752.319	4677.4
752.507	4682.24
752.696	4720.02
752.884	4793.45
753.072	4716.34
753.261	4712.08
753.449	4682.43
753.637	4649.89
753.825	4768.85
754.014	4697.16
754.202	4714.21
754.39	4740.56
754.578	4747.73
754.766	4671.58
754.955	4626.44
755.143	4697.74
755.331	4655.5
755.519	4693.67
755.707	4703.36
755.895	4654.53
756.083	4654.73
756.271	4615.79
756.459	4644.27
756.647	4645.04
756.835	4598.54
757.023	4550.69
757.211	4565.22
757.399	4576.26
757.587	4609.2
757.775	4534.8
757.963	4541
758.151	4564.06
758.339	4506.32
758.526	4522.98
758.714	4559.99
758.902	4419.52
759.09	4313.93
759.278	4159.51
759.465	3872.18
759.653	3513.75
759.841	3191.74
760.028	2860.05
760.216	2497.74
760.404	2377.81
760.591	2030.81
760.779	1797.73
760.967	1620.84
761.154	1406.56
761.342	1514.86
761.529	1480.18
761.717	1562.14
761.905	1612.7
762.092	1707.06
762.28	1647.97
762.467	1703.76
762.655	1621.62
762.842	1662.69
763.029	1719.07
763.217	1764.21
763.404	1746.78
763.592	1762.66
763.779	1774.09
763.966	1821.56
764.154	1865.16
764.341	1928.32
764.528	1920.76
764.716	2027.9
764.903	2116.06
765.09	2165.27
765.277	2216.61
765.465	2409.2
765.652	2483.6
765.839	2529.13
766.026	2663.59
766.213	2719.39
766.4	2818.2
766.588	3027.25
766.775	3054.96
766.962	3165.2
767.149	3206.86
767.336	3401.18
767.523	3389.56
767.71	3446.71
767.897	3599.39
768.084	3644.53
768.271	3702.85
768.458	3778.6
768.645	3842.15
768.832	3859.2
769.019	3836.15
769.206	3889.43
769.392	3989.79
769.579	4057.41
769.766	4012.07
769.953	3989.59
770.14	4027.96
770.327	4021.76
770.513	4036.68
770.7	4181.02
770.887	4059.54
771.073	4086.47
771.26	4062.44
771.447	4077.94
771.634	3989.4
771.82	4118.05
772.007	4019.04
772.193	4063.02
772.38	4068.45
772.567	4041.13
772.753	4030.86
772.94	4098.48
773.126	4071.74
773.313	4106.81
773.499	4044.42
773.686	4081.24
773.872	4005.87
774.059	4065.54
774.245	3969.25
774.432	4047.14
774.618	3935.73
774.804	4027.38
774.991	3920.23
775.177	3990.76
775.363	3976.23
775.55	3989.98
775.736	3965.57
775.922	3961.69
776.109	3993.28
776.295	3948.71
776.481	3998.31
776.667	3956.85
776.853	3967.7
777.04	3934.96
777.226	3923.91
777.412	3968.09
777.598	3860.17
777.784	3923.72
777.97	3880.71
778.156	3884.97
778.342	3869.66
778.528	3853.2
778.715	3794.49
778.901	3845.64
779.087	3839.25
779.272	3792.94
779.458	3813.87
779.644	3858.04
779.83	3767.37
780.016	3886.52
780.202	3803.98
780.388	3807.08
780.574	3734.24
780.76	3763.49
780.946	3815.42
781.131	3798.56
781.317	3766.2
781.503	3713.12
781.689	3742.18
781.874	3836.53
782.06	3673.01
782.246	3732.88
782.432	3721.84
782.617	3722.03
782.803	3754.77
782.989	3625.93
783.174	3706.92
783.36	3586.02
783.545	3661.19
783.731	3684.25
783.916	3563.93
784.102	3657.12
784.288	3570.33
784.473	3605.2
784.659	3555.79
784.844	3606.36
785.029	3562.96
785.215	3556.57
785.4	3556.57
785.586	3658.48
785.771	3489.73
785.956	3581.18
786.142	3549.4
786.327	3517.43
786.512	3516.27
786.698	3524.99
786.883	3413.39
787.068	3456.4
787.254	3489.92
787.439	3452.91
787.624	3411.65
787.809	3425.4
787.994	3432.18
788.18	3525.76
788.365	3355.46
788.55	3395.57
788.735	3409.13
788.92	3384.52
789.105	3410.87
789.29	3451.56
789.475	3336.67
789.66	3375.03
789.845	3278.15
790.03	3316.52
790.215	3334.34
790.4	3364.18
790.585	3402.15
790.77	3310.9
790.955	3266.14
791.14	3268.47
791.325	3359.53
791.51	3196.59
791.695	3272.34
791.879	3256.45
792.064	3221.58
792.249	3301.4
792.434	3288.62
792.618	3276.6
792.803	3320.59
792.988	3255.1
793.173	3301.4
793.357	3308.38
793.542	3197.94
793.727	3263.04
793.911	3276.6
794.096	3210.54
794.281	3290.75
794.465	3355.07
794.65	3238.05
794.834	3323.1
795.019	3365.53
795.203	3310.12
795.388	3316.9
795.572	3357.59
795.757	3294.24
795.941	3325.62
796.126	3321.94
796.31	3258.97
796.494	3314.39
796.679	3281.45
796.863	3196.01
797.048	3347.52
797.232	3313.61
797.416	3306.83
797.601	3320.39
797.785	3357.78
797.969	3368.25
798.153	3316.13
798.338	3371.54
798.522	3398.67
798.706	3404.67
798.89	3355.27
799.074	3480.62
799.258	3435.28
799.443	3346.93
799.627	3385.88
799.811	3430.25
799.995	3355.27
800.179	3345
800.363	3312.45
800.547	3375.22
800.731	3403.32
800.915	3260.72
801.099	3315.74
801.283	3316.71
801.467	3336.09
801.651	3297.34
801.835	3373.67
802.019	3345.19
802.202	3376.77
802.386	3263.82
802.57	3318.84
802.754	3287.84
802.938	3281.84
803.121	3286.29
803.305	3348.87
803.489	3281.64
803.673	3338.6
803.856	3302.37
804.04	3309.93
804.224	3290.94
804.407	3276.8
804.591	3293.65
804.775	3327.37
804.958	3321.55
805.142	3405.25
805.326	3273.12
805.509	3293.27
805.693	3346.35
805.876	3345.38
806.06	3330.08
806.243	3348.1
806.427	3337.05
806.61	3386.85
806.794	3296.37
806.977	3326.2
807.16	3322.91
807.344	3333.95
807.527	3310.32
807.71	3323.69
807.894	3327.17
808.077	3350.03
808.26	3266.72
808.444	3250.45
808.627	3339.19
808.81	3231.07
808.993	3206.47
809.177	3238.05
809.36	3250.84
809.543	3201.62
809.726	3134.98
809.909	3105.33
810.092	3128.78
810.276	3153.77
810.459	3162.29
810.642	3120.06
810.825	3073.17
811.008	3122.19
811.191	3029.58
811.374	3039.26
811.557	3026.09
811.74	3108.63
811.923	2961.96
812.106	2915.07
812.289	2950.92
812.472	2979.2
812.654	2967.58
812.837	2955.95
813.02	2891.44
813.203	2823.04
813.386	2704.08
813.569	2734.11
813.751	2649.44
813.934	2732.56
814.117	2634.33
814.3	2598.1
814.482	2554.12
814.665	2526.8
814.848	2503.75
815.03	2445.43
815.213	2430.7
815.396	2382.27
815.578	2350.3
815.761	2317.75
815.943	2431.87
816.126	2277.64
816.309	2232.11
816.491	2200.15
816.674	2135.82
816.856	2177.48
817.039	2140.47
817.221	2228.24
817.403	2193.75
817.586	2191.04
817.768	2217.39
817.951	2184.26
818.133	2120.32
818.315	2146.67
818.498	2192.4
818.68	2247.42
818.862	2220.68
819.045	2266.02
819.227	2189.49
819.409	2198.6
819.591	2221.46
819.774	2210.99
819.956	2152.68
820.138	2274.93
820.32	2201.11
820.502	2246.84
820.684	2343.32
820.866	2330.92
821.048	2407.65
821.231	2402.03
821.413	2424.31
821.595	2396.6
821.777	2429.74
821.959	2391.95
822.141	2476.82
822.323	2326.47
822.505	2274.74
822.686	2171.66
822.868	2141.83
823.05	2018.99
823.232	1976.17
823.414	1884.53
823.596	1958.15
823.778	1934.71
823.96	1976.17
824.141	1973.27
824.323	2047.86
824.505	2081.77
824.687	2124.58
824.868	2189.1
825.05	2284.04
825.232	2311.36
825.413	2413.46
825.595	2363.67
825.777	2275.71
825.958	2350.49
826.14	2334.02
826.321	2349.72
826.503	2320.27
826.685	2328.79
826.866	2371.03
827.048	2315.04
827.229	2306.71
827.411	2233.28
827.592	2221.65
827.773	2211.19
827.955	2178.83
828.136	2168.18
828.318	2109.28
828.499	2158.3
828.68	2103.66
828.862	2117.61
829.043	2132.53
829.224	2125.94
829.406	2076.73
829.587	2089.71
829.768	2110.44
829.949	2108.7
830.131	2097.46
830.312	2167.01
830.493	2080.22
830.674	2139.7
830.855	2076.34
831.036	2068.01
831.218	2161.59
831.399	2143.18
831.58	2134.85
831.761	2134.27
831.942	2130.01
832.123	2099.59
832.304	2075.18
832.485	2061.62
832.666	2073.82
832.847	2119.16
833.028	2081.57
833.209	2105.21
833.389	2111.02
833.57	2037.78
833.751	2042.24
833.932	2108.7
834.113	2069.37
834.294	2061.23
834.475	2110.63
834.655	2172.05
834.836	2152.29
835.017	2116.45
835.198	2070.33
835.378	2108.7
835.559	2189.68
835.74	2075.37
835.92	2092.62
836.101	2041.47
836.281	2147.06
836.462	2121.87
836.643	2149.38
836.823	2154.03
837.004	2184.65
837.184	2199.18
837.365	2146.86
837.545	2168.18
837.726	2102.11
837.906	2180.96
838.087	2127.68
838.267	2136.01
838.448	2117.8
838.628	2124.78
838.808	2144.54
838.989	2143.76
839.169	2119.16
839.349	2143.96
839.53	2125.94
839.71	2148.03
839.89	2122.65
840.07	2210.22
840.251	2103.47
840.431	2166.05
840.611	2116.45
840.791	2111.22
840.971	2122.45
841.151	2094.36
841.332	2088.93
841.512	2126.91
841.692	2064.52
841.872	2103.47
842.052	2073.82
842.232	2136.6
842.412	2031.78
842.592	2112.57
842.772	2136.4
842.952	2084.48
843.132	2041.27
843.312	2043.98
843.492	2043.02
843.672	2053.67
843.851	2012.79
844.031	2081.18
844.211	2005.43
844.391	2012.79
844.571	2058.13
844.751	2031.39
844.93	2033.13
845.11	2007.75
845.29	2060.26
845.47	2051.35
845.649	2043.79
845.829	2059.1
846.009	2005.43
846.188	2055.42
846.368	2057.74
846.547	1987.22
846.727	2053.28
846.907	2006.2
847.086	2018.6
847.266	2021.9
847.445	2006.2
847.625	1994.97
847.804	1987.41
847.984	1980.82
848.163	1956.8
848.343	2001.55
848.522	1982.76
848.701	2003.88
848.881	1959.12
849.06	1993.03
849.239	1991.67
849.419	1982.57
849.598	1899.26
849.777	1901.97
849.957	1866.12
850.136	1793.86
850.315	1787.85
850.494	1771.38
850.674	1813.43
850.853	1863.22
851.032	1848.88
851.211	1871.74
851.39	1874.84
851.569	1801.99
851.748	1783.78
851.927	1842.88
852.107	1846.75
852.286	1805.68
852.465	1776.81
852.644	1849.08
852.823	1851.79
853.002	1847.91
853.181	1839
853.359	1834.74
853.538	1743.1
853.717	1818.46
853.896	1697.56
854.075	1667.92
854.254	1609.6
854.433	1554.19
854.611	1552.25
854.79	1536.75
854.969	1576.09
855.148	1615.8
855.327	1590.04
855.505	1661.33
855.684	1624.91
855.863	1655.33
856.041	1642.15
856.22	1708.8
856.399	1642.15
856.577	1763.63
856.756	1730.31
856.934	1881.62
857.113	1855.47
857.291	1743.87
857.47	1713.45
857.648	1751.23
857.827	1756.66
858.005	1770.99
858.184	1717.13
858.362	1832.61
858.541	1734.76
858.719	1748.91
858.898	1735.15
859.076	1712.87
859.254	1800.25
859.433	1720.62
859.611	1683.61
859.789	1653.39
859.967	1745.61
860.146	1775.84
860.324	1672.96
860.502	1716.55
860.68	1657.27
860.859	1641.96
861.037	1653.2
861.215	1680.32
861.393	1679.93
861.571	1679.93
861.749	1652.03
861.927	1656.1
862.105	1694.27
862.283	1671.41
862.461	1652.62
862.639	1581.12
862.817	1583.25
862.995	1653.78
863.173	1601.08
863.351	1633.24
863.529	1643.7
863.707	1662.88
863.885	1632.47
864.063	1561.75
864.241	1608.83
864.418	1655.91
864.596	1630.72
864.774	1551.67
864.952	1608.83
865.129	1607.28
865.307	1563.69
865.485	1535.79
865.663	1602.43
865.84	1449.96
866.018	1537.34
866.196	1385.05
866.373	1405.59
866.551	1357.15
866.728	1310.07
866.906	1344.75
867.084	1397.64
867.261	1461.77
867.439	1438.14
867.616	1498.01
867.794	1448.6
867.971	1473.98
868.149	1460.81
868.326	1504.21
868.503	1507.5
868.681	1479.41
868.858	1502.66
869.035	1480.57
869.213	1453.25
869.39	1460.03
869.567	1561.55
869.745	1428.26
869.922	1497.42
870.099	1491.22
870.276	1478.63
870.454	1499.36
870.631	1490.26
870.808	1466.81
870.985	1518.15
871.162	1535.2
871.339	1504.79
871.517	1442.79
871.694	1453.64
871.871	1448.41
872.048	1454.41
872.225	1438.72
872.402	1433.68
872.579	1390.48
872.756	1430.77
872.933	1412.76
873.11	1394.16
873.287	1458.67
873.463	1398.23
873.64	1369.36
873.817	1419.34
873.994	1389.89
874.171	1369.94
874.348	1402.1
874.524	1356.18
874.701	1381.37
874.878	1312.78
875.055	1373.81
875.231	1359.09
875.408	1384.08
875.585	1323.63
875.762	1404.23
875.938	1318.01
876.115	1327.12
876.291	1344.75
876.468	1353.66
876.645	1284.88
876.821	1314.91
876.998	1330.22
877.174	1352.11
877.351	1328.67
877.527	1278.88
877.704	1328.67
877.88	1316.66
878.057	1317.43
878.233	1358.89
878.409	1326.54
878.586	1303.87
878.762	1293.02
878.938	1303.1
879.115	1240.71
879.291	1291.66
879.467	1233.35
879.644	1257.76
879.82	1300.77
879.996	1239.35
880.172	1217.85
880.349	1232.77
880.525	1272.29
880.701	1207.97
880.877	1226.37
881.053	1231.41
881.229	1247.3
881.405	1265.12
881.581	1203.51
881.757	1229.67
881.933	1279.07
882.109	1287.01
882.285	1269
882.461	1189.37
882.637	1216.88
882.813	1197.7
882.989	1230.83
883.165	1289.92
883.341	1221.14
883.517	1255.24
883.693	1238.77
883.869	1275.2
884.044	1163.79
884.22	1272.1
884.396	1290.5
884.572	1243.42
884.747	1274.42
884.923	1259.31
885.099	1300.77
885.275	1295.15
885.45	1211.07
885.626	1213.97
885.801	1230.05
885.977	1221.33
886.153	1195.76
886.328	1238.77
886.504	1215.33
886.679	1220.75
886.855	1181.23
887.03	1255.43
887.206	1236.45
887.381	1244
887.557	1230.05
887.732	1229.47
887.908	1298.64
888.083	1254.46
888.258	1187.23
888.434	1215.91
888.609	1252.14
888.784	1273.65
888.96	1228.89
889.135	1200.41
889.31	1217.85
889.485	1244.39
889.661	1187.43
889.836	1259.7
890.011	1235.09
890.186	1227.92
890.361	1203.12
890.537	1246.91
890.712	1223.66
890.887	1234.51
891.062	1240.32
891.237	1271.13
891.412	1189.17
891.587	1237.42
891.762	1255.63
891.937	1270.35
892.112	1166.89
892.287	1193.43
892.462	1171.15
892.637	1178.13
892.812	1140.74
892.987	1170.18
893.161	1161.85
893.336	1136.67
893.511	1117.87
893.686	1164.18
893.861	1151.39
894.035	1141.51
894.21	1162.24
894.385	1097.34
894.56	1127.75
894.734	1113.42
894.909	1065.37
895.084	1049.29
895.258	1063.04
895.433	1055.49
895.608	1032.43
895.782	989.61
895.957	1011.89
896.131	987.29
896.306	951.06
896.48	925.87
896.655	937.88
896.829	885.76
897.004	851.86
897.178	894.68
897.353	866.58
897.527	893.32
897.701	872.78
897.876	818.92
898.05	912.69
898.224	898.94
898.399	950.09
898.573	856.51
898.747	766.8
898.921	812.53
899.096	736
899.27	727.28
899.444	717.98
899.618	808.27
899.792	758.28
899.967	778.04
900.141	830.74
900.315	774.36
900.489	790.44
900.663	786.18
900.837	772.03
901.011	729.99
901.185	850.5
901.359	780.17
901.533	802.07
901.707	774.75
901.881	799.55
902.055	735.42
902.229	777.27
902.403	852.25
902.576	768.93
902.75	799.93
902.924	928.97
903.098	850.31
903.272	889.83
903.446	933.43
903.619	888.28
903.793	926.26
903.967	918.89
904.14	984.57
904.314	942.14
904.488	938.66
904.661	948.34
904.835	923.16
905.009	970.04
905.182	1034.76
905.356	949.89
905.529	937.69
905.703	893.71
905.876	883.63
906.05	908.24
906.223	863.1
906.397	819.89
906.57	817.95
906.744	814.27
906.917	815.05
907.09	766.61
907.264	786.57
907.437	749.56
907.61	709.65
907.784	742.39
907.957	729.22
908.13	712.75
908.304	751.88
908.477	694.34
908.65	724.37
908.823	675.16
908.996	757.7
909.17	684.07
909.343	671.48
909.516	681.36
909.689	684.85
909.862	663.15
910.035	691.05
910.208	671.48
910.381	661.21
910.554	740.26
910.727	684.27
910.9	676.9
911.073	681.55
911.246	729.8
911.419	727.47
911.592	711.59
911.765	702.48
911.938	670.9
912.11	665.28
912.283	686.79
912.456	733.67
912.629	698.41
912.802	677.29
912.974	590.3
913.147	612.19
913.32	528.3
913.493	572.09
913.665	598.24
913.838	623.24
914.01	606.38
914.183	628.66
914.356	592.24
914.528	643
914.701	728.05
914.873	661.4
915.046	585.07
915.218	538.57
915.391	500.21
915.563	547.09
915.736	590.3
915.908	609.09
916.081	572.28
916.253	603.47
916.425	604.06
916.598	616.84
916.77	619.75
916.942	594.76
917.115	508.34
917.287	589.14
917.459	559.69
917.632	546.9
917.804	442.08
917.976	560.27
918.148	587.2
918.32	575.38
918.493	617.62
918.665	648.23
918.837	578.87
919.009	649.59
919.181	637.57
919.353	621.3
919.525	592.82
919.697	600.37
919.869	606.19
920.041	649.97
920.213	714.3
920.385	666.64
920.557	610.06
920.729	666.25
920.901	632.54
921.073	593.01
921.244	602.89
921.416	665.67
921.588	594.76
921.76	607.16
921.932	653.85
922.103	596.5
922.275	609.67
922.447	604.06
922.619	545.35
922.79	600.96
922.962	566.08
923.134	596.31
923.305	533.92
923.477	521.71
923.648	532.95
923.82	588.94
923.991	517.45
924.163	515.13
924.335	531.4
924.506	497.3
924.677	563.56
924.849	534.11
925.02	532.76
925.192	576.54
925.363	538.18
925.535	530.63
925.706	508.34
925.877	565.31
926.049	519.19
926.22	535.47
926.391	539.54
926.562	562.98
926.734	523.65
926.905	587.39
927.076	458.94
927.247	486.26
927.419	452.16
927.59	482.58
927.761	439.18
927.932	443.44
928.103	479.28
928.274	422.51
928.445	387.64
928.616	420.58
928.787	402.17
928.958	437.43
929.129	418.45
929.3	376.6
929.471	342.69
929.642	321.38
929.813	273.14
929.984	366.33
930.155	261.9
930.326	325.64
930.496	298.32
930.667	226.25
930.838	284.76
931.009	209.2
931.18	232.64
931.35	237.29
931.521	249.11
931.692	191.76
931.863	172.39
932.033	205.52
932.204	198.54
932.374	182.85
932.545	126.27
932.716	203
932.886	202.22
933.057	131.51
933.227	144.49
933.398	214.62
933.568	111.74
933.739	91.59
933.909	59.63
934.08	154.95
934.25	65.44
934.421	91.98
934.591	110.39
934.761	66.79
934.932	43.35
935.102	143.71
935.272	89.66
935.443	92.95
935.613	84.43
935.783	123.56
935.953	75.9
936.123	215.98
936.294	81.71
936.464	67.38
936.634	94.31
936.804	63.5
936.974	19.13
937.144	117.56
937.314	110.58
937.484	64.66
937.655	65.63
937.825	150.3
937.995	74.35
938.165	112.71
938.334	92.37
938.504	107.29
938.674	96.44
938.844	114.07
939.014	206.68
939.184	160.96
939.354	212.49
939.524	224.31
939.694	166.38
939.863	156.11
940.033	218.69
940.203	227.6
940.373	198.54
940.542	204.35
940.712	166.19
940.882	202.03
941.051	190.6
941.221	184.01
941.391	232.25
941.56	146.42
941.73	136.16
941.899	259.19
942.069	172
942.238	157.08
942.408	132.28
942.577	186.14
942.747	165.02
942.916	76.29
943.086	124.92
943.255	160.76
943.425	163.28
943.594	98.38
943.763	66.6
943.933	79.19
944.102	31.34
944.271	101.67
944.441	163.09
944.61	112.13
944.779	118.52
944.948	222.18
945.117	105.54
945.287	107.87
945.456	51.88
945.625	85.2
945.794	123.37
945.963	95.47
946.132	136.74
946.301	105.74
946.47	152.62
946.639	87.91
946.808	84.23
946.977	134.22
947.146	185.56
947.315	117.75
947.484	146.62
947.653	109.81
947.822	105.93
947.991	97.6
948.16	184.4
948.329	165.8
948.498	109.61
948.666	112.32
948.835	146.23
949.004	81.71
949.173	70.09
949.341	115.81
949.51	139.26
949.679	157.66
949.847	126.86
950.016	191.37
950.185	170.06
950.353	113.68
950.522	121.24
950.69	161.54
950.859	107.09
951.028	168.9
951.196	113.29
951.365	111.94
951.533	117.75
951.701	167.35
951.87	136.74
952.038	68.15
952.207	112.91
952.375	157.86
952.543	108.84
952.712	105.54
952.88	104.38
953.048	189.05
953.217	116.59
953.385	143.91
953.553	188.27
953.721	88.69
953.89	118.72
954.058	80.36
954.226	83.07
954.394	155.14
954.562	62.92
954.73	131.12
954.898	120.46
955.067	149.14
955.235	98.96
955.403	149.52
955.571	186.14
955.739	115.23
955.907	100.7
956.075	106.51
956.243	102.83
956.41	136.93
956.578	74.93
956.746	71.83
956.914	105.35
957.082	143.91
957.25	145.46
957.418	116.39
957.585	145.84
957.753	177.42
957.921	96.83
958.089	110.97
958.256	128.79
958.424	115.62
958.592	145.26
958.759	108.84
958.927	131.89
959.095	90.04
959.262	96.83
959.43	109.81
959.597	78.03
959.765	107.29
959.932	91.21
960.1	119.3
960.267	86.75
960.435	122.98
960.602	160.37
960.77	100.12
960.937	65.63
961.104	118.14
961.272	79.19
961.439	82.88
961.606	138.67
961.774	162.89
961.941	115.42
962.108	142.94
962.275	113.87
962.443	158.44
962.61	150.11
962.777	204.94
962.944	167.54
963.111	137.32
963.278	128.79
963.446	149.72
963.613	126.86
963.78	134.02
963.947	159.79
964.114	96.63
964.281	195.83
964.448	146.04
964.615	124.53
964.782	147.39
964.949	167.54
965.116	167.74
965.282	158.63
965.449	138.48
965.616	90.43
965.783	136.16
965.95	134.41
966.117	115.23
966.283	135.96
966.45	158.24
966.617	112.32
966.784	181.11
966.95	180.91
967.117	150.11
967.284	104.77
967.45	113.1
967.617	167.54
967.784	148.94
967.95	190.21
968.117	146.42
968.283	173.74
968.45	252.79
968.616	141
968.783	187.5
968.949	156.31
969.116	207.84
969.282	158.44
969.449	156.69
969.615	164.25
969.781	108.64
969.948	137.12
970.114	97.6
970.28	201.84
970.447	177.42
970.613	218.89
970.779	149.14
970.945	168.71
971.112	182.27
971.278	129.18
971.444	141.19
971.61	177.62
971.776	144.87
971.942	179.17
972.108	157.27
972.275	147.01
972.441	156.5
972.607	230.7
972.773	122.79
972.939	169.48
973.105	127.63
973.271	79.78
973.437	93.34
973.602	109.61
973.768	150.49
973.934	125.11
974.1	134.99
974.266	71.44
974.432	148.94
974.598	122.79
974.763	140.22
974.929	116.2
975.095	205.9
975.261	108.26
975.426	108.06
975.592	145.46
975.758	187.89
975.923	92.18
976.089	98.38
976.255	150.69
976.42	156.11
976.586	138.67
976.751	126.08
976.917	207.84
977.082	153.79
977.248	72.8
977.413	67.76
977.579	109.42
977.744	138.29
977.91	106.32
978.075	121.24
978.24	149.14
978.406	131.31
978.571	121.24
978.736	98.38
978.902	142.16
979.067	97.41
979.232	32.69
979.397	140.61
979.563	198.54
979.728	90.24
979.893	119.11
980.058	88.49
980.223	155.53
980.388	123.17
980.554	139.06
980.719	88.88
980.884	120.07
981.049	127.05
981.214	96.44
981.379	112.13
981.544	96.05
981.709	108.84
981.874	76.87
982.039	130.54
982.204	145.84
982.368	109.03
982.533	118.72
982.698	136.35
982.863	147.97
983.028	138.09
983.193	116.39
983.357	118.91
983.522	135.19
983.687	89.66
983.852	86.75
984.016	117.75
984.181	103.8
984.346	131.89
984.51	143.91
984.675	123.76
984.839	140.22
985.004	122.79
985.168	134.99
985.333	122.59
985.498	103.22
985.662	152.82
985.827	142.55
985.991	101.67
986.155	106.13
986.32	155.34
986.484	167.74
986.649	157.86
986.813	70.09
986.977	111.74
987.142	120.46
987.306	89.27
987.47	87.72
987.634	126.08
987.799	126.66
987.963	126.66
988.127	129.76
988.291	201.06
988.455	151.46
988.62	94.89
988.784	124.14
988.948	134.41
989.112	84.04
989.276	112.91
989.44	93.34
989.604	71.83
989.768	111.16
989.932	149.72
990.096	77.45
990.26	72.8
990.424	71.06
990.588	107.68
990.752	162.7
990.915	150.69
991.079	85.78
991.243	113.1
991.407	134.41
991.571	79.39
991.734	100.7
991.898	141.58
992.062	193.12
992.226	103.61
992.389	81.71
992.553	56.72
992.717	76.48
992.88	107.48
993.044	110.19
993.207	80.55
993.371	105.74
993.535	102.64
993.698	75.51
993.862	117.94
994.025	144.68
994.189	110.19
994.352	103.61
994.515	130.15
994.679	137.9
994.842	63.69
995.006	133.44
995.169	58.85
995.332	55.94
995.496	125.89
995.659	62.34
995.822	77.06
995.985	80.55
996.149	121.82
996.312	113.29
996.475	144.87
996.638	82.68
996.801	127.05
996.964	186.34
997.128	74.35
997.291	79.97
997.454	106.51
997.617	48.39
997.78	143.71
997.943	57.11
998.106	116.2
998.269	78.23
998.432	91.98
998.595	81.33
998.758	41.99
998.92	57.11
999.083	35.99
999.246	51.68
999.409	62.73
999.572	50.52
999.735	52.65
999.897	88.3
1000.06	76.48
1000.223	62.53
1000.386	115.42
1000.548	103.61
1000.711	99.54
1000.874	81.71
1001.036	48.97
1001.199	109.42
1001.361	66.6
1001.524	82.49
1001.687	92.37
1001.849	56.72
1002.012	79.97
1002.174	62.92
1002.337	113.1
1002.499	72.61
1002.661	127.63
1002.824	48.58
1002.986	49.94
1003.149	75.51
1003.311	33.66
1003.473	147.78
1003.636	60.21
1003.798	119.3
1003.96	91.98
1004.123	66.02
1004.285	43.74
1004.447	56.33
1004.609	68.73
1004.771	123.95
1004.933	13.71
1005.096	28.24
1005.258	39.28
1005.42	54.2
1005.582	103.8
1005.744	78.81
1005.906	23.2
1006.068	72.22
1006.23	6.73
1006.392	12.35
1006.554	38.7
1006.716	111.55
1006.878	80.16
1007.04	15.84
1007.202	24.75
1007.363	62.53
1007.525	70.67
1007.687	80.36
1007.849	84.62
1008.011	29.98
1008.172	29.98
1008.334	35.02
1008.496	87.33
1008.658	4.99
1008.819	40.25
1008.981	-6.25
1009.143	26.11
1009.304	50.52
1009.466	72.61
1009.627	94.11
1009.789	165.22
1009.95	80.74
1010.112	49.94
1010.273	80.94
1010.435	21.07
1010.596	40.44
1010.758	12.55
1010.919	43.35
1011.081	10.8
1011.242	37.93
1011.403	71.44
1011.565	18.75
1011.726	74.54
1011.887	19.52
1012.049	48.97
1012.21	86.36
1012.371	109.61
1012.532	-33.76
1012.693	47.23
1012.855	33.66
1013.016	44.9
1013.177	84.81
1013.338	34.24
1013.499	79.97
1013.66	57.11
1013.821	103.41
1013.982	71.06
1014.143	37.93
1014.304	27.85
1014.465	56.91
1014.626	73.96
1014.787	24.36
1014.948	112.32
1015.109	-23.69
1015.27	102.64
1015.431	13.32
1015.592	16.81
1015.752	97.21
1015.913	55.75
1016.074	76.68
1016.235	57.88
1016.395	53.23
1016.556	48.19
1016.717	23.01
1016.877	87.14
1017.038	23.59
1017.199	56.53
1017.359	42.58
1017.52	72.99
1017.681	27.85
1017.841	36.96
1018.002	34.44
1018.162	25.72
1018.323	93.14
1018.483	58.66
1018.644	20.68
1018.804	11
1018.964	14.68
1019.125	25.14
1019.285	62.14
1019.446	-0.82
1019.606	15.84
1019.766	10.8
1019.926	60.79
1020.087	33.66
1020.247	-3.73
1020.407	52.26
1020.567	56.53
1020.728	27.46
1020.888	5.18
1021.048	-1.21
1021.208	15.26
1021.368	12.74
1021.528	87.14
1021.688	58.08
1021.848	42.38
1022.008	48
1022.168	18.36
1022.328	15.65
1022.488	63.5
1022.648	48.78
1022.808	37.34
1022.968	32.31
1023.128	31.14
1023.288	13.13
1023.448	13.32
1023.608	60.98
1023.767	51.88
1023.927	3.63
1024.087	-4.89
1024.247	-3.15
1024.406	27.08
1024.566	7.12
1024.726	-1.6
1024.885	29.4
1025.045	60.21
1025.205	21.65
1025.364	1.11
1025.524	36.18
1025.683	34.44
1025.843	57.88
1026.003	4.41
1026.162	66.21
1026.321	40.44
1026.481	22.04
1026.64	42.19
1026.8	38.31
1026.959	21.85
1027.119	64.86
1027.278	-3.73
1027.437	6.73
1027.597	33.47
1027.756	49.74
1027.915	37.93
1028.074	21.07
1028.234	18.75
1028.393	45.87
1028.552	4.02
1028.711	-54.1
1028.87	41.22
1029.03	-29.3
1029.189	14.48
1029.348	-39.57
1029.507	9.45
1029.666	17.2
1029.825	3.63
1029.984	8.48
1030.143	23.39
1030.302	11.58
1030.461	-16.32
1030.62	34.83
1030.779	38.31
1030.938	-21.17
1031.097	-56.43
1031.255	33.47
1031.414	72.03
1031.573	62.53
1031.732	-43.25
1031.891	10.8
1032.049	80.74
1032.208	48.97
1032.367	7.12
1032.525	7.9
1032.684	11.77
1032.843	34.83
1033.001	-26.98
1033.16	178.01
1033.319	66.99
1033.477	51.88
1033.636	-2.57
1033.794	-24.07
1033.953	66.41
1034.111	66.99
1034.27	-21.17
1034.428	27.85
1034.587	11.58
1034.745	30.95
1034.903	3.83
1035.062	31.92
1035.22	-11.09
1035.378	31.14
1035.537	-1.79
1035.695	46.64
1035.853	20.88
1036.011	28.04
1036.17	23.39
1036.328	-59.72
1036.486	34.24
1036.644	26.88
1036.802	-65.73
1036.96	-24.46
1037.119	-12.25
1037.277	-14.58
1037.435	-47.71
1037.593	-7.41
1037.751	14.29
1037.909	56.14
1038.067	56.14
