Data from gum_old_FLMT105791__80__15-44-08-256.txt Node

Date: Mon Mar 20 15:44:08 GMT 2023
User: antho
Spectrometer: FLMT10579
Trigger mode: 0
Integration Time (sec): 1.000000E-1
Scans to average: 10
Electric dark correction enabled: true
Nonlinearity correction enabled: false
Boxcar width: 0
XAxis mode: Wavelengths
Number of Pixels in Spectrum: 3648
>>>>>Begin Spectral Data<<<<<
345.248	-183.69
345.464	-183.69
345.681	-183.69
345.898	-174
346.114	-161.41
346.331	-32.57
346.548	23.04
346.764	-9.32
346.981	-17.07
347.197	-14.74
347.414	19.94
347.631	-5.05
347.847	79.42
348.064	12.19
348.28	34.08
348.497	-49.03
348.713	-40.9
348.93	46.1
349.146	32.15
349.363	10.06
349.579	23.81
349.796	-11.06
350.012	0.95
350.229	58.5
350.445	18.58
350.661	10.83
350.878	16.06
351.094	30.6
351.311	50.94
351.527	78.45
351.743	8.9
351.96	71.48
352.176	57.53
352.392	56.95
352.609	79.03
352.825	10.06
353.041	48.81
353.257	1.34
353.474	13.16
353.69	63.15
353.906	41.64
354.122	-9.51
354.339	88.53
354.555	54.81
354.771	30.79
354.987	92.4
355.203	89.3
355.42	26.91
355.636	30.4
355.852	11.22
356.068	32.73
356.284	-19.78
356.5	82.52
356.716	63.15
356.932	43.77
357.148	29.43
357.364	56.36
357.58	76.9
357.796	48.03
358.012	59.08
358.228	50.75
358.444	-9.32
358.66	81.36
358.876	60.63
359.092	14.9
359.308	51.52
359.524	46.1
359.74	29.82
359.956	20.52
360.172	33.7
360.388	94.15
360.604	40.09
360.819	104.99
361.035	45.9
361.251	71.67
361.467	14.51
361.683	93.37
361.898	39.51
362.114	95.89
362.33	69.15
362.546	105.38
362.762	30.6
362.977	53.26
363.193	27.88
363.409	88.53
363.624	11.8
363.84	34.28
364.056	38.73
364.271	91.24
364.487	73.03
364.703	34.86
364.918	1.53
365.134	32.92
365.35	51.33
365.565	138.71
365.781	56.75
365.996	98.99
366.212	106.35
366.427	104.03
366.643	54.23
366.858	53.85
367.074	50.16
367.289	121.66
367.505	193.15
367.72	28.27
367.936	46.48
368.151	83.49
368.367	55.78
368.582	69.15
368.798	70.7
369.013	108.87
369.228	45.32
369.444	80.2
369.659	121.46
369.874	76.9
370.09	131.93
370.305	15.87
370.52	81.16
370.736	108.48
370.951	93.18
371.166	133.67
371.381	138.51
371.597	114.1
371.812	38.73
372.027	56.56
372.242	81.55
372.458	164.09
372.673	48.03
372.888	34.08
373.103	82.91
373.318	157.11
373.533	98.79
373.749	104.61
373.964	15.29
374.179	118.36
374.394	42.8
374.609	111.78
374.824	3.67
375.039	101.31
375.254	61.21
375.469	151.3
375.684	114.1
375.899	112.16
376.114	68.38
376.329	106.54
376.544	130.57
376.759	107.51
376.974	52.3
377.189	65.28
377.404	56.95
377.619	117.98
377.834	49.39
378.049	44.35
378.264	58.11
378.478	117.39
378.693	77.1
378.908	93.18
379.123	77.68
379.338	96.47
379.553	97.24
379.767	119.72
379.982	93.95
380.197	105.77
380.412	86.4
380.626	85.43
380.841	163.51
381.056	124.95
381.271	163.31
381.485	72.83
381.7	67.41
381.915	101.31
382.129	75.35
382.344	85.43
382.559	89.11
382.773	126.89
382.988	21.1
383.202	100.54
383.417	22.26
383.632	160.21
383.846	85.04
384.061	91.05
384.275	88.53
384.49	89.3
384.704	107.9
384.919	110.81
385.133	89.5
385.348	110.81
385.562	55.78
385.777	132.7
385.991	103.44
386.206	85.62
386.42	108.29
386.634	160.41
386.849	133.48
387.063	99.38
387.277	75.74
387.492	83.3
387.706	72.06
387.92	67.6
388.135	135.22
388.349	149.56
388.563	99.96
388.778	92.01
388.992	145.29
389.206	134.44
389.42	179.2
389.635	139.29
389.849	164.09
390.063	178.81
390.277	132.89
390.491	185.4
390.706	158.47
390.92	153.43
391.134	139.48
391.348	184.43
391.562	109.45
391.776	170.09
391.99	132.31
392.205	194.31
392.419	114.1
392.633	160.79
392.847	201.09
393.061	115.84
393.275	194.31
393.489	122.24
393.703	105.38
393.917	130.18
394.131	83.68
394.345	127.66
394.559	162.93
394.773	105.77
394.986	152.08
395.2	166.99
395.414	209.42
395.628	128.24
395.842	168.74
396.056	161.18
396.27	113.71
396.484	182.11
396.697	181.14
396.911	170.87
397.125	99.76
397.339	172.61
397.553	116.04
397.766	182.3
397.98	174.16
398.194	194.7
398.408	173.58
398.621	214.85
398.835	250.5
399.049	210.97
399.262	261.35
399.476	268.13
399.69	263.09
399.903	317.92
400.117	237.32
400.331	244.3
400.544	238.87
400.758	367.13
400.971	280.72
401.185	270.65
401.398	195.09
401.612	267.16
401.826	283.44
402.039	287.12
402.253	285.37
402.466	318.89
402.68	268.52
402.893	276.65
403.106	269.87
403.32	270.07
403.533	288.28
403.747	265.22
403.96	279.37
404.174	294.29
404.387	250.5
404.6	287.12
404.814	313.27
405.027	267.55
405.24	295.25
405.454	280.14
405.667	337.1
405.88	223.18
406.094	303
406.307	337.49
406.52	292.54
406.733	241.97
406.947	230.54
407.16	328.39
407.373	304.17
407.586	311.34
407.799	253.6
408.012	340.59
408.226	287.89
408.439	346.02
408.652	272.78
408.865	318.31
409.078	359.58
409.291	334.39
409.504	277.04
409.717	344.47
409.93	325.87
410.143	346.21
410.357	291.96
410.57	243.33
410.783	294.87
410.996	319.67
411.209	282.08
411.421	357.06
411.634	335.17
411.847	362.1
412.06	343.11
412.273	350.09
412.486	353.38
412.699	431.27
412.912	345.44
413.125	388.83
413.338	365.78
413.55	342.72
413.763	337.88
413.976	383.22
414.189	317.92
414.402	353.77
414.615	429.33
414.827	317.15
415.04	392.32
415.253	375.47
415.466	404.33
415.678	438.43
415.891	360.35
416.104	326.45
416.316	379.34
416.529	385.35
416.742	424.29
416.954	427.58
417.167	410.92
417.38	392.32
417.592	401.82
417.805	355.9
418.017	336.33
418.23	389.42
418.442	337.69
418.655	379.34
418.868	378.57
419.08	427.39
419.293	428.94
419.505	425.84
419.718	428.75
419.93	427.39
420.142	372.75
420.355	438.24
420.567	406.47
420.78	405.3
420.992	403.56
421.205	443.47
421.417	384.18
421.629	421.77
421.842	395.62
422.054	393.48
422.266	437.66
422.479	436.3
422.691	379.53
422.903	453.74
423.115	356.09
423.328	390.19
423.54	404.14
423.752	382.25
423.964	383.22
424.177	439.79
424.389	417.12
424.601	536.66
424.813	437.08
425.025	476.02
425.238	487.45
425.45	402.98
425.662	417.51
425.874	755.4
426.086	453.16
426.298	435.53
426.51	419.45
426.722	460.33
426.934	419.25
427.146	481.64
427.358	386.7
427.57	467.88
427.782	433.2
427.994	419.06
428.206	410.73
428.418	407.43
428.63	464.2
428.842	478.93
429.054	458
429.266	461.49
429.478	420.03
429.69	435.14
429.902	355.32
430.114	463.43
430.325	408.4
430.537	353.19
430.749	366.36
430.961	309.4
431.173	347.95
431.384	390
431.596	290.99
431.808	345.82
432.02	443.67
432.231	505.08
432.443	544.03
432.655	480.67
432.867	465.95
433.078	493.46
433.29	561.66
433.502	527.75
433.713	550.81
433.925	507.21
434.136	566.11
434.348	456.06
434.56	443.67
434.771	586.26
434.983	444.83
435.194	488.03
435.406	501.98
435.617	565.92
435.829	579.09
436.04	563.79
436.252	586.84
436.463	579.09
436.675	613.97
436.886	603.89
437.098	603.51
437.309	655.04
437.521	596.34
437.732	552.36
437.943	554.1
438.155	570.57
438.366	528.53
438.578	590.72
438.789	566.5
439	547.71
439.211	525.43
439.423	558.75
439.634	574.25
439.845	597.69
440.057	586.84
440.268	628.69
440.479	565.34
440.69	605.44
440.902	582.78
441.113	553.71
441.324	533.76
441.535	616.1
441.746	667.25
441.957	594.01
442.168	620.56
442.38	647.87
442.591	651.94
442.802	582.58
443.013	633.34
443.224	651.94
443.435	644.58
443.646	627.14
443.857	620.94
444.068	611.84
444.279	598.08
444.49	696.51
444.701	639.16
444.912	778.65
445.123	749.98
445.334	669.19
445.545	686.04
445.756	641.29
445.967	635.47
446.178	651.75
446.388	674.61
446.599	703.87
446.81	681.01
447.021	629.27
447.232	681.39
447.443	713.36
447.653	641.09
447.864	736.22
448.075	693.6
448.286	716.07
448.496	688.56
448.707	734.09
448.918	652.52
449.129	754.44
449.339	662.41
449.55	723.05
449.761	693.6
449.971	772.07
450.182	693.99
450.393	720.14
450.603	681.2
450.814	768.58
451.024	756.37
451.235	812.75
451.446	820.5
451.656	836.2
451.867	729.25
452.077	788.73
452.288	817.4
452.498	796.48
452.709	735.84
452.919	743
453.13	685.85
453.34	777.88
453.55	680.04
453.761	745.52
453.971	739.71
454.182	766.45
454.392	722.27
454.602	833.48
454.813	758.31
455.023	787.57
455.233	678.29
455.444	744.17
455.654	675.19
455.864	737.19
456.075	766.06
456.285	700.57
456.495	759.28
456.705	763.74
456.916	805.39
457.126	841.43
457.336	765.09
457.546	684.3
457.756	733.7
457.967	833.29
458.177	746.88
458.387	751.72
458.597	722.85
458.807	748.62
459.017	752.5
459.227	730.02
459.437	741.65
459.647	788.73
459.857	782.53
460.068	743.39
460.278	832.71
460.488	798.61
460.698	833.68
460.908	795.7
461.117	761.41
461.327	793.96
461.537	802.68
461.747	841.62
461.957	800.74
462.167	910.79
462.377	865.26
462.587	830.77
462.797	868.94
463.007	810.04
463.216	858.67
463.426	883.66
463.636	867.97
463.846	768.58
464.056	780.01
464.265	856.15
464.475	802.29
464.685	843.37
464.895	833.68
465.104	825.93
465.314	845.5
465.524	808.88
465.733	772.26
465.943	911.18
466.153	924.55
466.362	885.41
466.572	885.99
466.782	842.78
466.991	878.05
467.201	886.76
467.41	783.11
467.62	861.97
467.829	853.25
468.039	894.71
468.249	867.78
468.458	889.48
468.668	903.81
468.877	916.21
469.086	943.53
469.296	958.06
469.505	901.68
469.715	962.91
469.924	939.85
470.134	959.81
470.343	972.79
470.552	895.68
470.762	906.53
470.971	888.51
471.18	928.03
471.39	952.45
471.599	894.71
471.808	957.48
472.018	931.52
472.227	1009.21
472.436	1036.34
472.645	997.39
472.855	966.01
473.064	1053.39
473.273	1058.42
473.482	1026.07
473.691	1076.64
473.901	1037.31
474.11	969.69
474.319	1139.99
474.528	1027.23
474.737	1112.87
474.946	1078.57
475.155	1102.79
475.364	1120.42
475.573	1078.57
475.783	1118.49
475.992	1115
476.201	1142.71
476.41	1087.29
476.619	1081.48
476.828	1108.8
477.037	1073.15
477.245	1086.91
477.454	1111.51
477.663	1087.29
477.872	1142.12
478.081	1213.23
478.29	1128.76
478.499	1249.46
478.708	1203.74
478.917	1250.23
479.125	1169.83
479.334	1186.69
479.543	1205.29
479.752	1236.48
479.961	1233.18
480.169	1240.74
480.378	1211.49
480.587	1353.5
480.796	1276.97
481.004	1268.83
481.213	1294.8
481.422	1279.68
481.63	1304.1
481.839	1355.05
482.048	1375.2
482.256	1286.27
482.465	1345.95
482.674	1364.55
482.882	1336.84
483.091	1418.21
483.299	1346.72
483.508	1357.96
483.716	1379.27
483.925	1384.5
484.134	1320.56
484.342	1355.05
484.551	1397.29
484.759	1386.63
484.967	1430.03
485.176	1394.77
485.384	1444.76
485.593	1460.45
485.801	1397.48
486.01	1348.08
486.218	1299.64
486.426	1219.24
486.635	1203.35
486.843	1196.95
487.051	1232.8
487.26	1236.28
487.468	1320.76
487.676	1318.82
487.885	1356.21
488.093	1336.65
488.301	1405.23
488.509	1402.13
488.717	1466.07
488.926	1485.83
489.134	1405.81
489.342	1451.34
489.55	1388.96
489.758	1430.81
489.967	1439.91
490.175	1604.79
490.383	1540.27
490.591	1635.02
490.799	1520.9
491.007	1597.62
491.215	1584.25
491.423	1560.42
491.631	1552.67
491.839	1536.4
492.047	1571.86
492.255	1477.5
492.463	1506.37
492.671	1459.29
492.879	1570.11
493.087	1506.76
493.295	1558.1
493.503	1581.74
493.711	1634.63
493.919	1637.15
494.127	1592.97
494.334	1621.07
494.542	1539.69
494.75	1613.12
494.958	1599.37
495.166	1685.39
495.374	1681.9
495.581	1701.08
495.789	1693.72
495.997	1705.35
496.205	1615.84
496.412	1622.23
496.62	1618.74
496.828	1672.02
497.035	1679.58
497.243	1710.58
497.451	1668.15
497.658	1719.68
497.866	1696.05
498.074	1725.5
498.281	1652.26
498.489	1716.58
498.696	1679.38
498.904	1629.01
499.112	1615.64
499.319	1715.81
499.527	1703.8
499.734	1702.25
499.942	1653.62
500.149	1664.08
500.357	1705.93
500.564	1657.1
500.771	1711.16
500.979	1645.48
501.186	1634.24
501.394	1684.81
501.601	1647.61
501.808	1696.43
502.016	1673.96
502.223	1615.64
502.43	1661.37
502.638	1665.05
502.845	1651.1
503.052	1761.15
503.26	1713.48
503.467	1799.9
503.674	1727.63
503.881	1769.28
504.089	1796.8
504.296	1759.4
504.503	1690.43
504.71	1691.59
504.917	1687.33
505.125	1748.36
505.332	1724.14
505.539	1762.31
505.746	1864.99
505.953	1841.36
506.16	1840
506.367	1860.54
506.574	1881.66
506.781	1910.91
506.988	1789.24
507.195	1873.52
507.402	1829.54
507.609	1843.88
507.816	1804.55
508.023	1817.33
508.23	1783.43
508.437	1718.13
508.644	1812.68
508.851	1851.82
509.058	1845.43
509.265	1840.78
509.472	1895.61
509.679	1915.18
509.885	1854.92
510.092	1863.64
510.299	1895.61
510.506	1850.85
510.713	1831.09
510.92	1824.11
511.126	1870.03
511.333	1915.37
511.54	1895.22
511.746	1916.92
511.953	1893.67
512.16	2013.79
512.367	1883.98
512.573	1894.64
512.78	1944.43
512.987	1861.89
513.193	1879.33
513.4	1806.29
513.606	1865.58
513.813	1886.5
514.02	1851.43
514.226	1917.31
514.433	1892.31
514.639	1812.88
514.846	1861.31
515.052	1839.23
515.259	1866.54
515.465	1870.23
515.672	1898.13
515.878	1984.15
516.085	1933
516.291	1977.37
516.497	1893.67
516.704	1924.67
516.91	1818.11
517.117	1787.3
517.323	1704.96
517.529	1717.75
517.736	1738.09
517.942	1743.13
518.148	1767.15
518.354	1823.34
518.561	1801.25
518.767	1821.4
518.973	1838.65
519.179	1891.93
519.386	1805.9
519.592	1866.54
519.798	1865.58
520.004	1987.83
520.21	1898.32
520.417	1940.36
520.623	2014.96
520.829	2054.67
521.035	1984.15
521.241	2018.25
521.447	2018.05
521.653	2130.23
521.859	2016.89
522.065	2050.99
522.271	2154.84
522.477	2074.05
522.683	2151.93
522.889	2143.6
523.095	2119.19
523.301	2013.02
523.507	2020.19
523.713	2066.1
523.919	2025.42
524.125	2110.28
524.331	2136.24
524.537	2198.05
524.742	2196.3
524.948	2167.24
525.154	2180.03
525.36	2280.97
525.566	2208.31
525.772	2258.5
525.977	2132.17
526.183	2194.75
526.389	2241.83
526.595	2186.62
526.8	2154.65
527.006	2058.16
527.212	1958.96
527.417	1985.51
527.623	1988.41
527.829	2060.87
528.034	2113.18
528.24	2116.48
528.446	2139.73
528.651	2239.12
528.857	2221.1
529.062	2287.56
529.268	2242.41
529.473	2316.81
529.679	2335.22
529.884	2420.08
530.09	2296.66
530.295	2313.52
530.501	2351.69
530.706	2302.09
530.912	2314.49
531.117	2319.72
531.323	2335.99
531.528	2402.06
531.733	2398.77
531.939	2344.52
532.144	2385.01
532.35	2368.35
532.555	2411.17
532.76	2365.83
532.966	2365.44
533.171	2313.71
533.376	2242.41
533.581	2240.28
533.787	2274.38
533.992	2349.36
534.197	2384.24
534.402	2376.29
534.607	2364.48
534.813	2478.79
535.018	2321.66
535.223	2388.89
535.428	2420.08
535.633	2453.02
535.838	2446.04
536.043	2479.17
536.249	2522.96
536.454	2468.71
536.659	2505.14
536.864	2452.24
537.069	2416.01
537.274	2430.54
537.479	2454.95
537.684	2432.09
537.889	2359.24
538.094	2508.62
538.299	2465.03
538.504	2419.5
538.708	2439.84
538.913	2515.99
539.118	2485.37
539.323	2494.29
539.528	2433.06
539.733	2456.7
539.938	2449.53
540.142	2484.99
540.347	2440.23
540.552	2381.72
540.757	2384.43
540.962	2387.53
541.166	2343.94
541.371	2328.24
541.576	2393.54
541.781	2314.68
541.985	2443.52
542.19	2447.98
542.395	2540.4
542.599	2546.02
542.804	2453.6
543.008	2530.52
543.213	2492.15
543.418	2458.44
543.622	2511.72
543.827	2428.99
544.031	2509.79
544.236	2504.36
544.44	2479.75
544.645	2607.05
544.849	2492.15
545.054	2590
545.258	2632.43
545.463	2572.17
545.667	2437.52
545.872	2544.27
546.076	2520.83
546.281	2512.3
546.485	2482.08
546.689	2519.67
546.894	2555.7
547.098	2550.28
547.302	2472.39
547.507	2501.84
547.711	2474.91
547.915	2549.12
548.119	2474.33
548.324	2496.22
548.528	2552.99
548.732	2493.9
548.936	2536.14
549.141	2558.22
549.345	2499.52
549.549	2536.33
549.753	2527.42
549.957	2586.32
550.161	2565.39
550.366	2521.6
550.57	2484.4
550.774	2514.44
550.978	2485.95
551.182	2563.26
551.386	2497
551.59	2471.04
551.794	2496.22
551.998	2519.09
552.202	2497.97
552.406	2470.65
552.61	2533.04
552.814	2509.01
553.018	2614.02
553.222	2515.79
553.426	2534.59
553.63	2590.97
553.833	2527.8
554.037	2436.74
554.241	2513.08
554.445	2477.24
554.649	2513.27
554.853	2475.3
555.056	2565.97
555.26	2572.75
555.464	2534.59
555.668	2532.07
555.871	2545.82
556.075	2586.32
556.279	2521.8
556.483	2475.69
556.686	2469.29
556.89	2546.21
557.094	2531.49
557.297	2445.66
557.501	2531.87
557.704	2435.19
557.908	2507.46
558.112	2438.68
558.315	2552.02
558.519	2480.14
558.722	2462.9
558.926	2427.06
559.129	2364.28
559.333	2372.03
559.536	2401.67
559.74	2337.93
559.943	2305.19
560.147	2313.13
560.35	2382.88
560.553	2401.09
560.757	2328.63
560.96	2410.2
561.164	2386.95
561.367	2499.32
561.57	2405.55
561.774	2414.85
561.977	2412.14
562.18	2391.02
562.384	2477.82
562.587	2377.07
562.79	2384.43
562.993	2345.29
563.197	2388.69
563.4	2432.48
563.603	2440.04
563.806	2507.27
564.009	2352.27
564.212	2382.3
564.416	2325.14
564.619	2391.02
564.822	2320.3
565.025	2406.91
565.228	2360.99
565.431	2336.38
565.634	2282.52
565.837	2278.26
566.04	2242.8
566.243	2278.06
566.446	2187
566.649	2295.31
566.852	2215.87
567.055	2298.02
567.258	2285.81
567.461	2350.14
567.664	2348.2
567.867	2199.79
568.07	2270.9
568.273	2333.48
568.475	2313.71
568.678	2195.53
568.881	2260.63
569.084	2244.35
569.287	2116.48
569.489	2181.58
569.692	2221.68
569.895	2213.55
570.098	2198.24
570.3	2157.36
570.503	2096.91
570.706	2156.2
570.909	2148.45
571.111	2098.07
571.314	2066.3
571.516	2106.6
571.719	2136.05
571.922	2094.59
572.124	2078.7
572.327	2148.25
572.529	2048.09
572.732	2056.42
572.935	2121.52
573.137	2203.86
573.34	2101.37
573.542	2145.54
573.745	2126.17
573.947	2087.8
574.15	2077.92
574.352	2093.81
574.554	2181.97
574.757	2062.62
574.959	2069.59
575.162	2077.92
575.364	2042.47
575.566	2144.77
575.769	1995.97
575.971	2056.42
576.173	1951.41
576.376	2027.74
576.578	2095.55
576.78	2094.2
576.982	1966.52
577.185	2061.65
577.387	2005.27
577.589	2011.86
577.791	2046.34
577.993	2046.73
578.196	2013.99
578.398	2005.27
578.6	2017.86
578.802	1915.95
579.004	1922.73
579.206	1966.32
579.408	1993.45
579.61	1932.22
579.812	2031.23
580.014	1941.72
580.216	1941.52
580.418	1935.13
580.62	1995.19
580.822	1926.22
581.024	1960.71
581.226	2009.72
581.428	1968.46
581.63	2022.51
581.832	1939.59
582.034	2013.41
582.236	1971.75
582.438	1943.66
582.64	2021.74
582.841	2040.53
583.043	2073.66
583.245	1977.37
583.447	1997.13
583.649	2003.72
583.85	1970.39
584.052	2009.34
584.254	1948.11
584.456	1991.12
584.657	1900.26
584.859	1976.21
585.061	1942.88
585.262	1925.64
585.464	1898.32
585.666	1968.26
585.867	1895.99
586.069	1950.82
586.27	1930.87
586.472	1883.21
586.674	1898.32
586.875	1893.48
587.077	1913.63
587.278	1909.75
587.48	1886.89
587.681	2000.42
587.883	1897.16
588.084	1803.96
588.285	1891.34
588.487	1856.28
588.688	1874.1
588.89	1792.73
589.091	1730.34
589.292	1800.48
589.494	1728.4
589.695	1680.74
589.896	1601.11
590.098	1629.2
590.299	1706.7
590.5	1630.75
590.702	1651.29
590.903	1718.13
591.104	1784.98
591.305	1768.7
591.507	1823.73
591.708	1793.5
591.909	1748.36
592.11	1830.9
592.311	1825.66
592.512	1778.2
592.714	1693.92
592.915	1730.73
593.116	1759.21
593.317	1730.34
593.518	1742.55
593.719	1780.52
593.92	1767.73
594.121	1797.18
594.322	1765.6
594.523	1779.36
594.724	1730.15
594.925	1759.79
595.126	1770.83
595.327	1760.56
595.528	1770.45
595.729	1730.92
595.929	1735.38
596.13	1778.97
596.331	1791.18
596.532	1772.58
596.733	1805.32
596.934	1834.38
597.135	1830.7
597.335	1794.08
597.536	1723.17
597.737	1765.8
597.938	1725.3
598.138	1785.95
598.339	1774.51
598.54	1774.32
598.74	1745.45
598.941	1716.58
599.142	1781.68
599.342	1740.22
599.543	1706.51
599.744	1738.87
599.944	1712.13
600.145	1717.75
600.345	1739.83
600.546	1803
600.746	1791.56
600.947	1801.45
601.147	1753.4
601.348	1809.39
601.548	1718.52
601.749	1761.15
601.949	1710.38
602.15	1715.62
602.35	1718.33
602.551	1755.33
602.751	1691.59
602.951	1722.59
603.152	1657.88
603.352	1793.11
603.552	1699.53
603.753	1783.43
603.953	1770.83
604.153	1748.94
604.354	1765.21
604.554	1721.62
604.754	1760.18
604.954	1700.12
605.155	1742.35
605.355	1724.33
605.555	1760.37
605.755	1804.16
605.955	1741.77
606.155	1806.1
606.356	1745.45
606.556	1737.32
606.756	1738.09
606.956	1679
607.156	1765.8
607.356	1724.72
607.556	1727.24
607.756	1723.95
607.956	1767.93
608.156	1736.35
608.356	1685
608.556	1733.44
608.756	1705.73
608.956	1695.27
609.156	1669.31
609.356	1650.32
609.556	1615.25
609.755	1665.63
609.955	1629.98
610.155	1664.85
610.355	1629.79
610.555	1609.25
610.755	1629.98
610.954	1596.65
611.154	1650.52
611.354	1693.14
611.554	1604.79
611.753	1625.72
611.953	1572.24
612.153	1610.02
612.352	1621.84
612.552	1559.84
612.752	1549.38
612.951	1594.52
613.151	1588.32
613.351	1584.64
613.55	1604.02
613.75	1632.5
613.949	1605.57
614.149	1609.83
614.348	1561.78
614.548	1543.37
614.747	1499.39
614.947	1580.77
615.146	1483.31
615.346	1612.93
615.545	1540.86
615.745	1538.72
615.944	1608.09
616.144	1570.5
616.343	1575.54
616.542	1505.98
616.742	1529.81
616.941	1509.27
617.14	1475.37
617.34	1533.11
617.539	1527.29
617.738	1468.98
617.938	1610.6
618.137	1557.71
618.336	1490.68
618.535	1530.2
618.734	1526.52
618.934	1571.47
619.133	1560.42
619.332	1554.22
619.531	1498.42
619.73	1542.21
619.929	1582.9
620.128	1562.36
620.328	1590.84
620.527	1510.63
620.726	1564.69
620.925	1536.98
621.124	1533.69
621.323	1568.56
621.522	1503.85
621.721	1511.79
621.92	1475.37
622.119	1531.94
622.318	1466.65
622.517	1496.68
622.715	1493.39
622.914	1421.12
623.113	1502.49
623.312	1423.44
623.511	1491.84
623.71	1472.27
623.909	1455.22
624.107	1511.21
624.306	1436.43
624.505	1421.31
624.704	1450.18
624.902	1434.68
625.101	1521.29
625.3	1476.73
625.499	1414.53
625.697	1416.28
625.896	1416.08
626.095	1438.17
626.293	1427.32
626.492	1418.79
626.69	1449.02
626.889	1413.56
627.088	1518.38
627.286	1396.32
627.485	1381.01
627.683	1388.57
627.882	1445.92
628.08	1334.9
628.279	1398.84
628.477	1477.89
628.676	1353.7
628.874	1431.58
629.073	1380.82
629.271	1353.7
629.469	1431
629.668	1379.27
629.866	1386.44
630.065	1366.68
630.263	1400.97
630.461	1387.21
630.66	1375.01
630.858	1404.65
631.056	1437.2
631.254	1431.58
631.453	1338.39
631.651	1419.76
631.849	1382.56
632.047	1382.95
632.245	1372.49
632.444	1420.93
632.642	1378.88
632.84	1395.55
633.038	1357.18
633.236	1333.55
633.434	1344.78
633.632	1333.35
633.83	1327.73
634.028	1351.95
634.227	1347.11
634.425	1415.89
634.623	1372.88
634.821	1379.46
635.019	1373.85
635.216	1365.71
635.414	1390.7
635.612	1348.08
635.81	1333.35
636.008	1407.36
636.206	1360.28
636.404	1373.65
636.602	1315.92
636.8	1384.5
636.997	1389.35
637.195	1382.37
637.393	1344.78
637.591	1380.24
637.789	1381.01
637.986	1340.13
638.184	1403.1
638.382	1384.7
638.58	1389.73
638.777	1404.07
638.975	1362.41
639.173	1356.02
639.37	1378.5
639.568	1352.53
639.765	1391.86
639.963	1307.2
640.161	1361.06
640.358	1349.63
640.556	1305.65
640.753	1294.22
640.951	1304.29
641.148	1311.46
641.346	1318.43
641.543	1319.21
641.741	1300.61
641.938	1274.65
642.136	1304.48
642.333	1281.43
642.531	1339.55
642.728	1358.35
642.925	1337.23
643.123	1271.93
643.32	1296.73
643.517	1274.84
643.715	1318.24
643.912	1266.9
644.109	1302.55
644.306	1289.95
644.504	1231.83
644.701	1291.89
644.898	1302.35
645.095	1238.22
645.293	1276
645.49	1252.75
645.687	1268.45
645.884	1275.03
646.081	1224.08
646.278	1237.64
646.475	1225.24
646.672	1218.07
646.87	1266.12
647.067	1251.2
647.264	1248.49
647.461	1164.21
647.658	1162.85
647.855	1234.15
648.052	1194.05
648.249	1121.01
648.446	1201.02
648.642	1180.29
648.839	1169.64
649.036	1170.8
649.233	1118.68
649.43	1168.86
649.627	1140.38
649.824	1155.88
650.021	1128.76
650.217	1136.7
650.414	1125.27
650.611	1178.94
650.808	1182.81
651.004	1164.99
651.201	1201.02
651.398	1226.4
651.595	1135.15
651.791	1163.24
651.988	1200.44
652.185	1105.51
652.381	1162.08
652.578	1100.08
652.775	1142.12
652.971	1145.22
653.168	1164.21
653.364	1240.74
653.561	1084.58
653.757	1130.69
653.954	1159.17
654.15	1103.57
654.347	1205.67
654.543	1154.52
654.74	1109.77
654.936	1101.82
655.133	1131.86
655.329	1135.54
655.525	1106.28
655.722	1175.84
655.918	1101.24
656.115	1115.39
656.311	983.83
656.507	975.89
656.704	941.98
656.9	962.13
657.096	928.61
657.292	942.18
657.489	1026.65
657.685	1030.14
657.881	1018.13
658.077	1030.53
658.273	1057.65
658.47	1139.61
658.666	1044.48
658.862	1094.27
659.058	1073.73
659.254	1119.84
659.45	1080.51
659.646	1104.15
659.842	1090.59
660.038	1136.7
660.234	1081.67
660.43	1097.17
660.626	1144.84
660.822	1125.46
661.018	1112.67
661.214	1102.02
661.41	1072.57
661.606	1128.56
661.802	1126.24
661.998	1106.28
662.194	1087.29
662.39	1137.28
662.586	1145.42
662.781	1118.87
662.977	1118.68
663.173	1121.2
663.369	1110.54
663.564	1104.54
663.76	1133.99
663.956	1131.66
664.152	1194.82
664.347	1086.13
664.543	1108.99
664.739	1055.13
664.934	1031.49
665.13	1019.09
665.326	1106.28
665.521	1114.22
665.717	1041.38
665.912	1050.48
666.108	1004.18
666.304	1061.33
666.499	1053.78
666.695	1004.56
666.89	1078.77
667.086	1105.7
667.281	1064.04
667.477	1133.99
667.672	1077.8
667.867	1072.76
668.063	1076.06
668.258	1022.39
668.454	1076.44
668.649	1158.01
668.844	1058.42
669.04	1072.76
669.235	1057.46
669.43	1029.94
669.626	1012.12
669.821	1031.69
670.016	1015.03
670.211	1023.74
670.407	1005.14
670.602	1037.5
670.797	1049.51
670.992	1071.79
671.187	1036.14
671.382	1086.13
671.578	1016.58
671.773	1054.94
671.968	982.67
672.163	1059.2
672.358	1060.36
672.553	981.89
672.748	1022.78
672.943	1088.26
673.138	1029.56
673.333	1040.21
673.528	1009.6
673.723	1010.76
673.918	1017.74
674.113	988.68
674.308	1102.21
674.503	1032.66
674.698	1063.46
674.892	998.17
675.087	1054.94
675.282	1024.91
675.477	1009.6
675.672	1041.76
675.867	1029.36
676.061	1004.18
676.256	971.04
676.451	991.19
676.646	1033.04
676.84	982.67
677.035	974.92
677.23	966.4
677.424	1035.37
677.619	1031.49
677.814	1049.71
678.008	1036.73
678.203	943.92
678.397	981.89
678.592	1000.11
678.787	1060.75
678.981	979.96
679.176	1034.01
679.37	1010.38
679.565	970.08
679.759	996.04
679.954	1046.61
680.148	1052.61
680.342	1067.53
680.537	1017.35
680.731	977.83
680.926	1054.16
681.12	1043.89
681.314	996.23
681.509	979.57
681.703	1000.49
681.897	1009.79
682.092	962.91
682.286	975.5
682.48	1048.54
682.674	1021.81
682.869	975.89
683.063	989.84
683.257	1081.48
683.451	945.28
683.645	996.62
683.839	960.39
684.034	956.71
684.228	1023.55
684.422	935.78
684.616	953.8
684.81	996.81
685.004	948.18
685.198	966.2
685.392	982.86
685.586	958.06
685.78	985.19
685.974	990.42
686.168	991.58
686.362	1033.04
686.556	921.25
686.75	880.76
686.944	893.55
687.138	899.75
687.331	803.45
687.525	804.03
687.719	704.45
687.913	817.4
688.107	812.37
688.301	790.28
688.494	836
688.688	755.4
688.882	778.65
689.076	759.09
689.269	813.72
689.463	919.51
689.657	820.7
689.85	820.89
690.044	817.21
690.238	828.25
690.431	850.73
690.625	809.65
690.818	871.65
691.012	868.36
691.205	921.83
691.399	820.89
691.593	890.64
691.786	917.96
691.98	909.82
692.173	940.82
692.366	937.53
692.56	942.56
692.753	986.93
692.947	885.41
693.14	983.83
693.333	965.43
693.527	869.72
693.72	930.16
693.914	922.61
694.107	927.45
694.3	923.38
694.493	903.04
694.687	947.8
694.88	908.08
695.073	985.77
695.266	964.26
695.46	949.93
695.653	1036.14
695.846	1002.63
696.039	916.41
696.232	930.16
696.425	1032.85
696.618	978.99
696.812	975.89
697.005	1030.72
697.198	1118.87
697.391	1049.9
697.584	1079.74
697.777	1106.47
697.97	1074.7
698.163	1075.86
698.356	1084.19
698.549	1168.86
698.742	1151.04
698.935	1104.15
699.127	1128.56
699.32	1117.32
699.513	1097.56
699.706	1145.42
699.899	1160.14
700.092	1120.23
700.285	1174.67
700.477	1103.37
700.67	1168.67
700.863	1216.91
701.056	1286.85
701.248	1216.14
701.441	1241.9
701.634	1183
701.826	1301.38
702.019	1200.44
702.212	1288.02
702.404	1223.69
702.597	1234.73
702.79	1226.79
702.982	1265.93
703.175	1324.63
703.367	1307.39
703.56	1340.33
703.752	1415.89
703.945	1372.3
704.137	1381.98
704.33	1432.36
704.522	1383.53
704.715	1427.32
704.907	1467.81
705.1	1468.59
705.292	1468.78
705.484	1452.89
705.677	1511.02
705.869	1494.55
706.061	1560.42
706.254	1542.21
706.446	1530.97
706.638	1550.93
706.831	1615.25
707.023	1542.6
707.215	1695.66
707.407	1654.97
707.599	1666.99
707.792	1679.38
707.984	1694.69
708.176	1722.59
708.368	1689.27
708.56	1726.08
708.752	1717.36
708.944	1699.53
709.136	1756.3
709.329	1734.6
709.521	1899.09
709.713	1822.95
709.905	1829.54
710.097	1863.25
710.289	1824.89
710.481	1868.68
710.672	1899.09
710.864	1908.59
711.056	1981.05
711.248	1954.89
711.44	1941.91
711.632	1975.24
711.824	1993.26
712.016	2038.59
712.207	2032.2
712.399	2008.56
712.591	2122.87
712.783	2107.95
712.975	2125.58
713.166	2067.85
713.358	2105.63
713.55	2131.4
713.741	2169.18
713.933	2161.82
714.125	2141.28
714.316	2129.85
714.508	2237.76
714.7	2262.18
714.891	2227.88
715.083	2317.2
715.274	2257.14
715.466	2266.44
715.657	2353.63
715.849	2233.11
716.04	2285.81
716.232	2236.41
716.423	2302.86
716.615	2286.78
716.806	2246.48
716.998	2229.05
717.189	2149.03
717.381	2059.9
717.572	2049.83
717.763	2092.84
717.955	2088
718.146	2042.47
718.337	1987.25
718.528	1979.11
718.72	1908.01
718.911	1964.97
719.102	1900.64
719.293	2006.04
719.485	1981.63
719.676	1972.14
719.867	1894.06
720.058	1970.39
720.249	1919.63
720.44	1944.62
720.632	2042.08
720.823	2081.02
721.014	2188.55
721.205	2200.37
721.396	2261.98
721.587	2378.23
721.778	2415.04
721.969	2468.32
722.16	2472.39
722.351	2526.06
722.542	2632.43
722.733	2648.51
722.924	2584.96
723.115	2622.74
723.305	2611.89
723.496	2653.16
723.687	2546.6
723.878	2530.13
724.069	2505.52
724.26	2541.17
724.45	2462.32
724.641	2497.19
724.832	2561.32
725.023	2496.03
725.213	2532.07
725.404	2485.18
725.595	2507.85
725.785	2491.38
725.976	2591.93
726.167	2599.49
726.357	2577.6
726.548	2723.1
726.739	2564.62
726.929	2675.05
727.12	2692.68
727.31	2755.46
727.501	2680.48
727.691	2684.16
727.882	2730.46
728.072	2763.21
728.263	2746.54
728.453	2794.59
728.644	2777.93
728.834	2763.79
729.024	2761.27
729.215	2777.93
729.405	2808.16
729.596	2890.5
729.786	2893.6
729.976	2951.53
730.167	2921.11
730.357	2899.41
730.547	2923.82
730.737	2930.41
730.928	2934.48
731.118	3033.48
731.308	3033.87
731.498	3034.26
731.688	3087.54
731.879	3108.85
732.069	3152.45
732.259	3165.23
732.449	3188.68
732.639	3289.62
732.829	3305.7
733.019	3313.64
733.209	3333.99
733.399	3412.26
733.589	3477.17
733.779	3470.19
733.969	3420.59
734.159	3529.28
734.349	3589.35
734.539	3626.16
734.729	3632.55
734.919	3647.08
735.109	3690.67
735.299	3636.23
735.488	3654.44
735.678	3685.25
735.868	3656.96
736.058	3664.71
736.248	3643.59
736.437	3643.4
736.627	3593.22
736.817	3778.05
737.007	3698.04
737.196	3753.45
737.386	3730.97
737.576	3701.33
737.765	3782.32
737.955	3749.19
738.144	3848.39
738.334	3831.72
738.524	3795.3
738.713	3798.01
738.903	3825.91
739.092	3840.05
739.282	3834.82
739.471	3875.9
739.661	3816.42
739.85	3912.9
740.04	3876.28
740.229	3920.07
740.419	3945.65
740.608	3982.26
740.797	3945.65
740.987	4029.54
741.176	4019.85
741.365	3946.03
741.555	3909.22
741.744	4017.33
741.933	3939.45
742.123	4001.25
742.312	4043.68
742.501	4044.46
742.69	4128.74
742.88	3983.04
743.069	4110.14
743.258	4051.82
743.447	4149.27
743.636	4144.62
743.825	4068.68
744.014	4114.59
744.204	4143.46
744.393	4102.97
744.582	4222.7
744.771	4174.66
744.96	4147.34
745.149	4204.49
745.338	4133.39
745.527	4208.17
745.716	4140.94
745.905	4143.66
746.094	4207.4
746.283	4183.18
746.471	4189.19
746.66	4263.97
746.849	4262.81
747.038	4270.75
747.227	4177.37
747.416	4189.38
747.604	4165.16
747.793	4205.46
747.982	4244.02
748.171	4234.33
748.359	4251.19
748.548	4219.22
748.737	4209.72
748.926	4235.1
749.114	4087.86
749.303	4211.66
749.491	4237.43
749.68	4117.5
749.869	4253.12
750.057	4181.24
750.246	4122.54
750.434	4153.92
750.623	4203.33
750.811	4154.7
751	4273.08
751.188	4192.87
751.377	4226.58
751.565	4117.31
751.754	4110.33
751.942	4097.16
752.131	4217.86
752.319	4129.71
752.507	4103.16
752.696	4151.6
752.884	4194.42
753.072	4123.89
753.261	4140.36
753.449	4177.95
753.637	4130.67
753.825	4210.3
754.014	4148.5
754.202	4152.76
754.39	4185.7
754.578	4192.67
754.766	4131.06
754.955	4053.95
755.143	4221.15
755.331	4129.9
755.519	4131.26
755.707	4102.78
755.895	4101.23
756.083	4098.9
756.271	4087.47
756.459	4106.26
756.647	4113.82
756.835	4094.25
757.023	4067.13
757.211	4085.14
757.399	4086.5
757.587	4038.64
757.775	4008.81
757.963	3982.07
758.151	4075.26
758.339	3972.58
758.526	3971.22
758.714	4013.26
758.902	3983.04
759.09	3869.12
759.278	3670.53
759.465	3462.63
759.653	3117.57
759.841	2860.27
760.028	2484.99
760.216	2220.13
760.404	2128.68
760.591	1791.76
760.779	1561.39
760.967	1397.48
761.154	1259.34
761.342	1302.74
761.529	1302.74
761.717	1380.43
761.905	1402.33
762.092	1478.86
762.28	1477.69
762.467	1516.83
762.655	1426.35
762.842	1492.23
763.029	1505.4
763.217	1540.47
763.404	1536.21
763.592	1563.91
763.779	1549.38
763.966	1606.54
764.154	1631.72
764.341	1718.91
764.528	1696.43
764.716	1787.11
764.903	1818.88
765.09	1906.07
765.277	1922.34
765.465	2131.4
765.652	2143.8
765.839	2206.57
766.026	2337.35
766.213	2430.93
766.4	2526.06
766.588	2667.69
766.775	2678.15
766.962	2812.61
767.149	2871.12
767.336	3037.36
767.523	2997.83
767.71	3048.02
767.897	3198.75
768.084	3283.81
768.271	3277.8
768.458	3331.47
768.645	3401.8
768.832	3367.31
769.019	3349.1
769.206	3449.46
769.392	3457.6
769.579	3561.25
769.766	3520.95
769.953	3542.65
770.14	3591.86
770.327	3523.08
770.513	3628.29
770.7	3650.38
770.887	3526.57
771.073	3566.29
771.26	3587.8
771.447	3571.91
771.634	3537.03
771.82	3658.9
772.007	3562.41
772.193	3574.23
772.38	3609.88
772.567	3600.39
772.753	3531.8
772.94	3620.73
773.126	3610.85
773.313	3638.94
773.499	3568.03
773.686	3637.59
773.872	3511.26
774.059	3627.51
774.245	3543.23
774.432	3618.21
774.618	3453.33
774.804	3540.91
774.991	3485.5
775.177	3568.81
775.363	3542.65
775.55	3547.11
775.736	3479.49
775.922	3553.11
776.109	3494.99
776.295	3554.47
776.481	3526.38
776.667	3545.56
776.853	3509.33
777.04	3449.85
777.226	3432.8
777.412	3549.63
777.598	3475.03
777.784	3454.11
777.97	3418.27
778.156	3453.53
778.342	3458.95
778.528	3442.87
778.715	3366.34
778.901	3397.54
779.087	3427.18
779.272	3359.17
779.458	3358.98
779.644	3380.49
779.83	3352.78
780.016	3505.65
780.202	3337.67
780.388	3389.2
780.574	3258.04
780.76	3312.87
780.946	3367.89
781.131	3372.54
781.317	3350.26
781.503	3294.46
781.689	3286.32
781.874	3419.23
782.06	3321.97
782.246	3307.06
782.432	3278.77
782.617	3334.18
782.803	3308.8
782.989	3253.19
783.174	3281.09
783.36	3222.97
783.545	3274.51
783.731	3204.76
783.916	3110.21
784.102	3214.06
784.288	3189.26
784.473	3201.85
784.659	3144.11
784.844	3236.34
785.029	3197.2
785.215	3140.43
785.4	3121.06
785.586	3212.51
785.771	3091.61
785.956	3228.59
786.142	3118.15
786.327	3105.17
786.512	3119.12
786.698	3142.37
786.883	3092.77
787.068	3057.7
787.254	3095.29
787.439	3089.67
787.624	3062.74
787.809	3060.42
787.994	3007.33
788.18	3166.2
788.365	3014.3
788.55	3009.46
788.735	3032.71
788.92	3002.1
789.105	3013.92
789.29	3011.01
789.475	2970.32
789.66	3002.1
789.845	2980.98
790.03	2920.72
790.215	2933.9
790.4	3010.43
790.585	2969.94
790.77	2972.65
790.955	2819.39
791.14	2900.19
791.325	3005.58
791.51	2841.87
791.695	2930.6
791.879	2889.53
792.064	2834.7
792.249	2942.23
792.434	2884.11
792.618	2893.21
792.803	2888.56
792.988	2891.66
793.173	2949.4
793.357	2957.34
793.542	2868.61
793.727	2890.5
793.911	2900.19
794.096	2883.33
794.281	2914.33
794.465	3017.4
794.65	2873.26
794.834	2964.32
795.019	2960.05
795.203	2956.57
795.388	2960.83
795.572	2981.75
795.757	2916.46
795.941	2966.06
796.126	2955.99
796.31	2891.47
796.494	2955.79
796.679	2918.2
796.863	2902.51
797.048	3002.1
797.232	2911.62
797.416	2986.98
797.601	2957.92
797.785	3002.68
797.969	3000.93
798.153	2926.34
798.338	2985.05
798.522	3036.58
798.706	3007.33
798.89	2985.24
799.074	3074.75
799.258	3037.94
799.443	3017.79
799.627	2974.39
799.811	3040.85
799.995	2997.45
800.179	2957.54
800.363	2919.56
800.547	3048.98
800.731	3011.01
800.915	2895.54
801.099	2940.87
801.283	2942.62
801.467	2943.39
801.651	2928.28
801.835	2995.32
802.019	2975.94
802.202	2988.92
802.386	2926.15
802.57	2894.95
802.754	2980.98
802.938	2908.71
803.121	2921.5
803.305	2992.22
803.489	2961.6
803.673	2993.77
803.856	2967.61
804.04	2963.35
804.224	2937
804.407	2934.48
804.591	2927.89
804.775	2951.92
804.958	2953.08
805.142	3017.79
805.326	2971.87
805.509	2932.74
805.693	2974.2
805.876	2979.43
806.06	2944.55
806.243	2981.95
806.427	3006.36
806.61	2987.95
806.794	2906.39
806.977	3020.89
807.16	2948.62
807.344	3017.79
807.527	2945.91
807.71	2963.74
807.894	2932.74
808.077	2954.05
808.26	2908.71
808.444	2915.69
808.627	2988.92
808.81	2902.9
808.993	2879.07
809.177	2831.02
809.36	2899.8
809.543	2876.94
809.726	2839.35
809.909	2804.86
810.092	2784.33
810.276	2782.97
810.459	2770.76
810.642	2769.41
810.825	2740.34
811.008	2746.74
811.191	2656.45
811.374	2702.56
811.557	2720
811.74	2769.79
811.923	2655.68
812.106	2634.17
812.289	2625.26
812.472	2618.67
812.654	2638.43
812.837	2599.3
813.02	2578.18
813.203	2520.05
813.386	2435.77
813.569	2380.56
813.751	2334.44
813.934	2426.47
814.117	2355.18
814.3	2272.45
814.482	2276.51
814.665	2215.48
814.848	2204.83
815.03	2177.32
815.213	2160.07
815.396	2151.93
815.578	2126.94
815.761	2082.19
815.943	2099.43
816.126	2050.02
816.309	2030.84
816.491	1945.4
816.674	1856.08
816.856	1961.48
817.039	1926.41
817.221	2022.9
817.403	1985.12
817.586	1977.76
817.768	1979.31
817.951	1922.34
818.133	1876.81
818.315	1929.32
818.498	1962.64
818.68	2001.2
818.862	1974.46
819.045	2025.03
819.227	2007.98
819.409	1939.2
819.591	1987.06
819.774	1948.31
819.956	1926.41
820.138	1981.44
820.32	1999.65
820.502	2031.81
820.684	2108.53
820.866	2093.62
821.048	2169.18
821.231	2174.8
821.413	2159.1
821.595	2115.51
821.777	2125.97
821.959	2107.57
822.141	2238.35
822.323	2104.85
822.505	1992.09
822.686	1973.49
822.868	1919.05
823.05	1790.21
823.232	1765.6
823.414	1683.26
823.596	1734.02
823.778	1748.36
823.96	1787.11
824.141	1763.28
824.323	1795.05
824.505	1896.77
824.687	1891.34
824.868	1982.99
825.05	2034.91
825.232	2068.04
825.413	2159.88
825.595	2097.69
825.777	1994.81
825.958	2038.59
826.14	2046.73
826.321	2087.61
826.503	2067.27
826.685	2113.18
826.866	2109.7
827.048	2121.9
827.229	2082.96
827.411	2005.46
827.592	1951.41
827.773	2001.2
827.955	1936.68
828.136	1895.8
828.318	1902.78
828.499	1961.09
828.68	1872.16
828.862	1895.22
829.043	1955.47
829.224	1897.16
829.406	1863.25
829.587	1862.28
829.768	1874.29
829.949	1891.34
830.131	1866.74
830.312	1932.22
830.493	1886.31
830.674	1891.54
830.855	1896.77
831.036	1866.16
831.218	1904.91
831.399	1916.14
831.58	1926.22
831.761	1944.43
831.942	1938.42
832.123	1894.64
832.304	1832.06
832.485	1853.76
832.666	1887.47
832.847	1894.25
833.028	1896.96
833.209	1868.29
833.389	1876.81
833.57	1821.4
833.751	1845.62
833.932	1910.14
834.113	1874.1
834.294	1821.4
834.475	1851.04
834.655	1882.43
834.836	1866.74
835.017	1886.69
835.198	1828.76
835.378	1891.73
835.559	1948.31
835.74	1860.73
835.92	1920.21
836.101	1858.21
836.281	1895.61
836.462	1891.93
836.643	1946.17
836.823	1960.9
837.004	1912.08
837.184	1957.02
837.365	1980.47
837.545	1929.71
837.726	1911.69
837.906	1958.77
838.087	1901.81
838.267	1900.84
838.448	1883.79
838.628	1877.2
838.808	1908.78
838.989	1975.43
839.169	1874.1
839.349	1908.59
839.53	1959.93
839.71	1957.02
839.89	1882.24
840.07	1964.39
840.251	1894.06
840.431	1933.19
840.611	1874.29
840.791	1867.51
840.971	1937.46
841.151	1890.96
841.332	1845.04
841.512	1908.2
841.692	1837.1
841.872	1902.58
842.052	1863.44
842.232	1908.78
842.412	1785.75
842.592	1843.88
842.772	1896.19
842.952	1893.86
843.132	1835.93
843.312	1845.04
843.492	1821.6
843.672	1862.28
843.851	1785.17
844.031	1863.25
844.211	1815.98
844.391	1820.63
844.571	1838.06
844.751	1819.08
844.93	1852.21
845.11	1801.45
845.29	1818.88
845.47	1836.51
845.649	1796.02
845.829	1861.7
846.009	1793.11
846.188	1809.58
846.368	1818.3
846.547	1798.15
846.727	1866.74
846.907	1770.45
847.086	1788.46
847.266	1839.81
847.445	1774.9
847.625	1802.22
847.804	1760.56
847.984	1777.23
848.163	1795.05
848.343	1756.3
848.522	1762.31
848.701	1793.7
848.881	1723.37
849.06	1762.89
849.239	1781.88
849.419	1792.34
849.598	1673.57
849.777	1695.08
849.957	1665.44
850.136	1604.6
850.315	1604.99
850.494	1586.39
850.674	1602.85
850.853	1656.33
851.032	1640.25
851.211	1690.82
851.39	1691.2
851.569	1602.08
851.748	1605.57
851.927	1689.46
852.107	1638.5
852.286	1596.07
852.465	1596.65
852.644	1638.12
852.823	1658.85
853.002	1625.72
853.181	1617.19
853.359	1646.06
853.538	1593.17
853.717	1654.2
853.896	1538.53
854.075	1499.59
854.254	1432.74
854.433	1380.63
854.611	1432.36
854.79	1382.37
854.969	1422.48
855.148	1434.88
855.327	1418.21
855.505	1474.59
855.684	1438.36
855.863	1452.51
856.041	1479.44
856.22	1498.23
856.399	1489.71
856.577	1568.95
856.756	1585.61
856.934	1662.72
857.113	1659.24
857.291	1529.04
857.47	1539.89
857.648	1554.81
857.827	1586.58
858.005	1589.68
858.184	1523.81
858.362	1643.93
858.541	1563.72
858.719	1566.24
858.898	1513.92
859.076	1546.67
859.254	1574.18
859.433	1519.93
859.611	1512.37
859.789	1476.53
859.967	1556.74
860.146	1589.29
860.324	1505.01
860.502	1504.24
860.68	1447.47
860.859	1478.08
861.037	1488.74
861.215	1512.76
861.393	1496.1
861.571	1489.32
861.749	1454.44
861.927	1512.96
862.105	1492.61
862.283	1507.34
862.461	1445.73
862.639	1435.84
862.817	1426.16
862.995	1470.53
863.173	1426.93
863.351	1449.41
863.529	1490.87
863.707	1525.55
863.885	1499.2
864.063	1368.81
864.241	1423.06
864.418	1474.21
864.596	1451.93
864.774	1379.27
864.952	1395.74
865.129	1437.01
865.307	1383.92
865.485	1369.97
865.663	1467.62
865.84	1369.58
866.018	1390.12
866.196	1222.34
866.373	1255.66
866.551	1213.04
866.728	1166.15
866.906	1187.65
867.084	1263.6
867.261	1270.58
867.439	1303.32
867.616	1275.03
867.794	1309.13
867.971	1310.1
868.149	1335.48
868.326	1373.85
868.503	1355.25
868.681	1334.13
868.858	1333.55
869.035	1296.73
869.213	1370.55
869.39	1309.52
869.567	1369
869.745	1308.17
869.922	1329.48
870.099	1359.31
870.276	1321.73
870.454	1322.11
870.631	1317.85
870.808	1329.28
870.985	1330.45
871.162	1395.93
871.339	1328.12
871.517	1262.63
871.694	1266.51
871.871	1300.22
872.048	1325.21
872.225	1269.42
872.402	1305.26
872.579	1246.75
872.756	1305.07
872.933	1259.34
873.11	1273.29
873.287	1282.59
873.463	1269.61
873.64	1216.33
873.817	1274.26
873.994	1241.9
874.171	1231.05
874.348	1248.49
874.524	1205.48
874.701	1247.52
874.878	1177.39
875.055	1249.85
875.231	1241.13
875.408	1237.64
875.585	1172.54
875.762	1220.59
875.938	1177.77
876.115	1202.57
876.291	1190.37
876.468	1193.66
876.645	1162.47
876.821	1184.36
876.998	1186.3
877.174	1210.9
877.351	1195.21
877.527	1145.8
877.704	1177.77
877.88	1182.04
878.057	1131.47
878.233	1224.66
878.409	1177.19
878.586	1180.87
878.762	1171.19
878.938	1184.75
879.115	1062.3
879.291	1152.2
879.467	1085.16
879.644	1138.83
879.82	1179.71
879.996	1124.3
880.172	1097.76
880.349	1136.12
880.525	1146.39
880.701	1083.22
880.877	1084.58
881.053	1103.96
881.229	1104.73
881.405	1152.97
881.581	1075.47
881.757	1094.66
881.933	1105.89
882.109	1191.53
882.285	1144.45
882.461	1055.71
882.637	1107.06
882.813	1082.06
882.989	1102.41
883.165	1182.62
883.341	1093.88
883.517	1120.81
883.693	1120.62
883.869	1119.84
884.044	1077.99
884.22	1123.91
884.396	1136.89
884.572	1121.59
884.747	1139.61
884.923	1139.02
885.099	1151.42
885.275	1135.54
885.45	1085.94
885.626	1092.72
885.801	1061.14
885.977	1113.84
886.153	1067.72
886.328	1111.12
886.504	1074.12
886.679	1127.21
886.855	1077.02
887.03	1142.32
887.206	1113.84
887.381	1105.7
887.557	1104.34
887.732	1143.87
887.908	1109.96
888.083	1128.95
888.258	1107.06
888.434	1094.85
888.609	1123.52
888.784	1136.7
888.96	1091.17
889.135	1075.09
889.31	1074.51
889.485	1083.22
889.661	1093.88
889.836	1165.95
890.011	1122.75
890.186	1092.72
890.361	1094.46
890.537	1113.45
890.712	1130.69
890.887	1130.31
891.062	1091.75
891.237	1137.28
891.412	1075.28
891.587	1112.29
891.762	1119.07
891.937	1138.64
892.112	1065.21
892.287	1077.22
892.462	1065.59
892.637	1066.56
892.812	1040.21
892.987	1026.46
893.161	1004.18
893.336	1034.79
893.511	1054.16
893.686	1038.08
893.861	1043.12
894.035	1026.07
894.21	1042.15
894.385	954.77
894.56	999.33
894.734	935.2
894.909	964.07
895.084	976.86
895.258	940.43
895.433	963.3
895.608	914.08
895.782	876.69
895.957	903.43
896.131	945.47
896.306	843.37
896.48	834.45
896.655	861.58
896.829	791.25
897.004	778.85
897.178	808.3
897.353	780.2
897.527	828.25
897.701	800.35
897.876	720.14
898.05	862.35
898.224	814.5
898.399	875.72
898.573	786.99
898.747	722.27
898.921	751.72
899.096	662.41
899.27	684.69
899.444	641.67
899.618	665.12
899.792	737.19
899.967	722.27
900.141	750.17
900.315	678.49
900.489	695.73
900.663	736.42
900.837	713.17
901.011	653.49
901.185	768.19
901.359	682.94
901.533	748.82
901.707	699.8
901.881	682.75
902.055	665.89
902.229	670.93
902.403	754.63
902.576	750.56
902.75	740.1
902.924	826.7
903.098	737
903.272	812.17
903.446	823.41
903.619	807.33
903.793	838.91
903.967	819.73
904.14	865.45
904.314	867.39
904.488	831.35
904.661	855.38
904.835	858.28
905.009	902.07
905.182	923.38
905.356	897.81
905.529	863.52
905.703	843.37
905.876	800.55
906.05	821.28
906.223	767.42
906.397	748.04
906.57	718.98
906.744	712.2
906.917	723.44
907.09	711.04
907.264	700.38
907.437	662.02
907.61	615.33
907.784	672.48
907.957	675
908.13	646.13
908.304	695.92
908.477	607.19
908.65	655.04
908.823	603.12
908.996	712.39
909.17	621.14
909.343	641.87
909.516	669.77
909.689	593.63
909.862	608.74
910.035	595.18
910.208	584.13
910.381	589.36
910.554	709.29
910.727	619.78
910.9	619.39
911.073	592.66
911.246	672.87
911.419	691.27
911.592	649.81
911.765	606.99
911.938	597.31
912.11	639.93
912.283	596.34
912.456	664.54
912.629	635.28
912.802	602.73
912.974	557.78
913.147	526.2
913.32	494.04
913.493	497.91
913.665	537.24
913.838	548.87
914.01	528.33
914.183	561.08
914.356	559.33
914.528	611.45
914.701	645.36
914.873	625.79
915.046	590.53
915.218	569.41
915.391	458.2
915.563	467.3
915.736	526.78
915.908	570.57
916.081	538.79
916.253	510.51
916.425	523.49
916.598	569.02
916.77	551.58
916.942	506.25
917.115	457.03
917.287	532.98
917.459	479.9
917.632	466.72
917.804	429.91
917.976	512.45
918.148	521.55
918.32	508.57
918.493	544.22
918.665	575.61
918.837	537.44
919.009	588.59
919.181	572.12
919.353	566.5
919.525	558.75
919.697	559.91
919.869	558.94
920.041	584.33
920.213	681.78
920.385	596.34
920.557	571.93
920.729	597.69
920.901	590.53
921.073	559.53
921.244	566.5
921.416	605.25
921.588	540.93
921.76	528.91
921.932	598.47
922.103	540.15
922.275	556.43
922.447	550.42
922.619	485.32
922.79	527.95
922.962	538.99
923.134	560.69
923.305	515.35
923.477	479.12
923.648	483
923.82	538.6
923.991	453.93
924.163	446.96
924.335	484.74
924.506	420.8
924.677	511.48
924.849	441.73
925.02	478.73
925.192	516.9
925.363	471.18
925.535	467.69
925.706	461.3
925.877	534.73
926.049	461.1
926.22	520.78
926.391	490.36
926.562	499.66
926.734	443.86
926.905	504.31
927.076	435.72
927.247	477.96
927.419	410.53
927.59	423.9
927.761	421.97
927.932	390.97
928.103	421.19
928.274	353.96
928.445	352.41
928.616	387.48
928.787	374.11
928.958	375.85
929.129	383.6
929.3	358.61
929.471	334.59
929.642	285.18
929.813	245.27
929.984	340.79
930.155	249.34
930.326	302.42
930.496	265.61
930.667	189.08
930.838	286.34
931.009	196.83
931.18	226.28
931.35	245.85
931.521	220.66
931.692	190.44
931.863	137.93
932.033	190.05
932.204	199.74
932.374	169.71
932.545	107.71
932.716	186.56
932.886	191.79
933.057	101.12
933.227	122.63
933.398	202.64
933.568	138.13
933.739	70.12
933.909	72.64
934.08	144.71
934.25	51.13
934.421	76.51
934.591	95.11
934.761	82.71
934.932	63.92
935.102	110.61
935.272	104.8
935.443	99.38
935.613	74.96
935.783	118.94
935.953	71.28
936.123	228.22
936.294	72.25
936.464	71.67
936.634	108.87
936.804	60.43
936.974	20.91
937.144	99.96
937.314	74.96
937.484	84.26
937.655	57.53
937.825	126.69
937.995	57.72
938.165	113.13
938.334	105.77
938.504	112.94
938.674	97.44
938.844	93.76
939.014	153.43
939.184	152.46
939.354	208.07
939.524	179.2
939.694	187.34
939.863	148.2
940.033	210.59
940.203	188.31
940.373	169.71
940.542	204
940.712	166.99
940.882	201.09
941.051	198.96
941.221	193.15
941.391	181.14
941.56	135.8
941.73	141.61
941.899	276.07
942.069	151.49
942.238	134.64
942.408	148.98
942.577	168.16
942.747	115.65
942.916	81.36
943.086	130.57
943.255	166.41
943.425	129.41
943.594	106.74
943.763	67.8
943.933	100.93
944.102	26.53
944.271	98.79
944.441	130.18
944.61	83.3
944.779	117.01
944.948	194.31
945.117	92.01
945.287	112.74
945.456	53.85
945.625	61.98
945.794	137.74
945.963	121.66
946.132	133.67
946.301	103.06
946.47	134.44
946.639	58.3
946.808	107.32
946.977	120.49
947.146	133.28
947.315	99.76
947.484	132.31
947.653	86.2
947.822	108.48
947.991	79.03
948.16	202.84
948.329	146.65
948.498	110.81
948.666	106.35
948.835	111.39
949.004	70.9
949.173	32.73
949.341	117.2
949.51	135.41
949.679	152.27
949.847	152.27
950.016	169.51
950.185	172.03
950.353	83.88
950.522	140.64
950.69	137.93
950.859	100.54
951.028	147.43
951.196	114.49
951.365	83.49
951.533	120.3
951.701	168.74
951.87	140.26
952.038	86.98
952.207	126.69
952.375	159.63
952.543	92.21
952.712	94.15
952.88	100.34
953.048	158.08
953.217	128.05
953.385	104.8
953.553	162.54
953.721	61.6
953.89	104.61
954.058	48.23
954.226	76.51
954.394	111.58
954.562	77.48
954.73	93.56
954.898	111.39
955.067	137.54
955.235	81.36
955.403	133.28
955.571	174.94
955.739	123.59
955.907	78.06
956.075	87.95
956.243	63.34
956.41	108.87
956.578	60.82
956.746	52.68
956.914	97.05
957.082	130.76
957.25	123.4
957.418	59.08
957.585	113.71
957.753	141.81
957.921	59.46
958.089	91.05
958.256	111.39
958.424	98.79
958.592	114.88
958.759	82.52
958.927	119.53
959.095	69.15
959.262	129.99
959.43	109.26
959.597	92.4
959.765	90.46
959.932	80.39
960.1	128.05
960.267	106.93
960.435	107.13
960.602	129.21
960.77	95.11
960.937	70.31
961.104	103.83
961.272	60.43
961.439	75.74
961.606	98.02
961.774	125.73
961.941	81.55
962.108	141.23
962.275	106.74
962.443	123.79
962.61	143.94
962.777	180.17
962.944	141.61
963.111	123.01
963.278	145.29
963.446	123.59
963.613	101.7
963.78	135.61
963.947	135.03
964.114	115.84
964.281	180.94
964.448	120.69
964.615	93.37
964.782	134.64
964.949	143.16
965.116	149.56
965.282	189.86
965.449	149.75
965.616	122.82
965.783	128.44
965.95	149.56
966.117	65.47
966.283	98.41
966.45	123.4
966.617	126.31
966.784	164.28
966.95	149.17
967.117	160.99
967.284	92.98
967.45	115.46
967.617	153.24
967.784	163.31
967.95	192.57
968.117	139.48
968.283	163.51
968.45	223.76
968.616	143.36
968.783	196.83
968.949	166.41
969.116	192.96
969.282	103.06
969.449	141.61
969.615	147.04
969.781	94.15
969.948	144.33
970.114	81.55
970.28	178.62
970.447	134.06
970.613	205.55
970.779	126.5
970.945	154.59
971.112	139.48
971.278	133.67
971.444	124.95
971.61	184.43
971.776	133.09
971.942	164.86
972.108	155.95
972.275	152.66
972.441	155.37
972.607	208.46
972.773	133.28
972.939	141.81
973.105	127.86
973.271	92.4
973.437	113.52
973.602	105.38
973.768	144.52
973.934	124.37
974.1	150.91
974.266	80.97
974.432	120.3
974.598	82.52
974.763	149.75
974.929	88.14
975.095	182.3
975.261	94.92
975.426	80.39
975.592	134.83
975.758	178.04
975.923	77.29
976.089	90.85
976.255	160.6
976.42	131.73
976.586	115.84
976.751	144.13
976.917	204.39
977.082	140.26
977.248	63.53
977.413	57.91
977.579	96.47
977.744	127.28
977.91	89.5
978.075	98.6
978.24	167.96
978.406	105.19
978.571	87.56
978.736	104.41
978.902	141.61
979.067	62.76
979.232	49.39
979.397	151.3
979.563	163.12
979.728	83.49
979.893	103.06
980.058	78.06
980.223	138.51
980.388	119.14
980.554	109.06
980.719	84.46
980.884	105.77
981.049	157.31
981.214	67.41
981.379	144.33
981.544	98.21
981.709	91.24
981.874	105.38
982.039	90.08
982.204	138.9
982.368	109.26
982.533	98.02
982.698	125.92
982.863	130.18
983.028	70.51
983.193	113.13
983.357	105.77
983.522	123.4
983.687	108.29
983.852	97.63
984.016	97.44
984.181	134.06
984.346	129.21
984.51	131.54
984.675	98.6
984.839	131.73
985.004	124.18
985.168	160.21
985.333	126.5
985.498	94.34
985.662	121.66
985.827	130.18
985.991	118.94
986.155	97.05
986.32	121.08
986.484	165.44
986.649	115.46
986.813	47.65
986.977	115.84
987.142	142
987.306	66.83
987.47	88.33
987.634	91.05
987.799	131.54
987.963	116.04
988.127	145.29
988.291	171.06
988.455	107.51
988.62	91.05
988.784	109.26
988.948	127.66
989.112	85.62
989.276	132.7
989.44	106.35
989.604	74.96
989.768	86.2
989.932	154.01
990.096	81.75
990.26	43.58
990.424	77.68
990.588	87.95
990.752	168.74
990.915	123.4
991.079	79.42
991.243	51.71
991.407	111.97
991.571	111.39
991.734	131.34
991.898	130.96
992.062	183.27
992.226	88.33
992.389	51.33
992.553	46.1
992.717	66.25
992.88	75.35
993.044	99.57
993.207	81.94
993.371	135.22
993.535	115.46
993.698	103.64
993.862	123.21
994.025	122.82
994.189	115.46
994.352	101.89
994.515	88.33
994.679	119.33
994.842	110.81
995.006	122.24
995.169	55.59
995.332	66.44
995.496	118.94
995.659	37.76
995.822	70.9
995.985	80
996.149	130.57
996.312	71.67
996.475	175.13
996.638	80.58
996.801	147.81
996.964	152.85
997.128	91.05
997.291	57.33
997.454	78.65
997.617	34.86
997.78	128.44
997.943	48.42
998.106	116.62
998.269	53.46
998.432	84.85
998.595	94.34
998.758	58.69
998.92	38.15
999.083	19.55
999.246	75.55
999.409	37.76
999.572	32.73
999.735	43.96
999.897	78.26
1000.06	58.69
1000.223	65.47
1000.386	99.38
1000.548	125.73
1000.711	109.26
1000.874	85.04
1001.036	27.69
1001.199	84.07
1001.361	24.98
1001.524	58.5
1001.687	139.48
1001.849	42.8
1002.012	87.17
1002.174	80.39
1002.337	78.06
1002.499	77.68
1002.661	124.37
1002.824	18.78
1002.986	55.4
1003.149	65.47
1003.311	38.93
1003.473	123.79
1003.636	51.13
1003.798	94.73
1003.96	81.16
1004.123	68.18
1004.285	73.61
1004.447	44.16
1004.609	56.95
1004.771	139.09
1004.933	7.73
1005.096	17.23
1005.258	54.62
1005.42	48.42
1005.582	85.62
1005.744	74.96
1005.906	37.18
1006.068	75.35
1006.23	35.44
1006.392	36.8
1006.554	14.51
1006.716	110.42
1006.878	80.97
1007.04	13.35
1007.202	26.72
1007.363	50.36
1007.525	98.02
1007.687	73.61
1007.849	122.24
1008.011	8.31
1008.172	26.33
1008.334	37.96
1008.496	62.76
1008.658	7.54
1008.819	33.31
1008.981	17.03
1009.143	7.54
1009.304	52.1
1009.466	66.63
1009.627	115.26
1009.789	180.17
1009.95	42.61
1010.112	27.88
1010.273	36.99
1010.435	35.25
1010.596	44.16
1010.758	26.72
1010.919	55.78
1011.081	32.34
1011.242	37.18
1011.403	95.11
1011.565	58.3
1011.726	44.16
1011.887	4.83
1012.049	15.68
1012.21	82.33
1012.371	115.07
1012.532	-29.47
1012.693	57.33
1012.855	38.54
1013.016	32.92
1013.177	84.46
1013.338	44.74
1013.499	90.66
1013.66	76.9
1013.821	84.26
1013.982	38.73
1014.143	53.46
1014.304	29.24
1014.465	71.67
1014.626	60.63
1014.787	31.37
1014.948	122.24
1015.109	-0.02
1015.27	63.92
1015.431	29.82
1015.592	22.85
1015.752	93.56
1015.913	71.09
1016.074	52.49
1016.235	68.38
1016.395	44.74
1016.556	39.51
1016.717	14.71
1016.877	66.63
1017.038	11.22
1017.199	64.5
1017.359	58.5
1017.52	41.45
1017.681	48.23
1017.841	34.86
1018.002	43.38
1018.162	5.99
1018.323	70.7
1018.483	39.31
1018.644	33.11
1018.804	-5.83
1018.964	-0.21
1019.125	17.42
1019.285	50.16
1019.446	35.44
1019.606	5.6
1019.766	-43.8
1019.926	36.02
1020.087	61.4
1020.247	6.77
1020.407	47.06
1020.567	82.13
1020.728	37.38
1020.888	-2.73
1021.048	3.47
1021.208	-2.34
1021.368	13.55
1021.528	79.03
1021.688	86.01
1021.848	63.34
1022.008	64.5
1022.168	13.16
1022.328	47.84
1022.488	62.76
1022.648	16.06
1022.808	42.41
1022.968	53.07
1023.128	3.67
1023.288	5.6
1023.448	46.68
1023.608	44.93
1023.767	38.54
1023.927	28.08
1024.087	2.89
1024.247	-16.68
1024.406	30.79
1024.566	8.51
1024.726	17.61
1024.885	13.16
1025.045	55.78
1025.205	31.37
1025.364	11.8
1025.524	40.86
1025.683	20.52
1025.843	10.45
1026.003	31.95
1026.162	98.21
1026.321	57.33
1026.481	37.96
1026.64	17.03
1026.8	43.77
1026.959	50.16
1027.119	28.08
1027.278	20.13
1027.437	-11.25
1027.597	40.09
1027.756	55.98
1027.915	48.03
1028.074	60.63
1028.234	12.19
1028.393	43.58
1028.552	1.92
1028.711	-68.02
1028.87	43.58
1029.03	-3.7
1029.189	1.53
1029.348	-54.46
1029.507	13.55
1029.666	29.24
1029.825	-6.22
1029.984	3.28
1030.143	40.09
1030.302	25.56
1030.461	-53.3
1030.62	24.2
1030.779	33.31
1030.938	-24.23
1031.097	-15.13
1031.255	44.74
1031.414	104.61
1031.573	70.9
1031.732	-32.18
1031.891	14.13
1032.049	82.33
1032.208	44.16
1032.367	-4.67
1032.525	23.04
1032.684	33.89
1032.843	22.46
1033.001	-37.8
1033.16	173.78
1033.319	72.64
1033.477	33.11
1033.636	-5.44
1033.794	-48.45
1033.953	63.92
1034.111	49.97
1034.27	25.95
1034.428	18.97
1034.587	-2.92
1034.745	24.59
1034.903	48.23
1035.062	32.53
1035.22	-13.77
1035.378	44.74
1035.537	-15.71
1035.695	53.85
1035.853	14.13
1036.011	39.51
1036.17	29.63
1036.328	-25.98
1036.486	24.01
1036.644	59.66
1036.802	-69.96
1036.96	-41.09
1037.119	7.93
1037.277	-3.7
1037.435	-24.62
1037.593	6.18
1037.751	-11.64
1037.909	33.7
1038.067	33.7
