Data from gum_old_FLMT105791__168__15-47-55-249.txt Node

Date: Mon Mar 20 15:47:55 GMT 2023
User: antho
Spectrometer: FLMT10579
Trigger mode: 0
Integration Time (sec): 1.000000E-1
Scans to average: 10
Electric dark correction enabled: true
Nonlinearity correction enabled: false
Boxcar width: 0
XAxis mode: Wavelengths
Number of Pixels in Spectrum: 3648
>>>>>Begin Spectral Data<<<<<
345.248	-211.31
345.464	-211.31
345.681	-211.31
345.898	-199.69
346.114	-204.53
346.331	-30.35
346.548	29.9
346.764	-3.23
346.981	-15.63
347.197	-2.26
347.414	7.62
347.631	-17.57
347.847	84.93
348.064	8.4
348.28	12.66
348.497	-48.76
348.713	-25.7
348.93	53.73
349.146	17.11
349.363	-13.3
349.579	19.25
349.796	-7.3
350.012	0.45
350.229	34.16
350.445	5.1
350.661	-29.38
350.878	3.75
351.094	2.78
351.311	18.86
351.527	20.8
351.743	-18.92
351.96	58.19
352.176	56.25
352.392	29.51
352.609	27.19
352.825	-14.27
353.041	21.38
353.257	-18.54
353.474	21.38
353.69	34.94
353.906	38.81
354.122	-2.65
354.339	84.93
354.555	23.31
354.771	9.95
354.987	69.23
355.203	87.64
355.42	3.55
355.636	27.77
355.852	-3.04
356.068	17.7
356.284	-32.1
356.5	64.78
356.716	30.87
356.932	14.6
357.148	42.3
357.364	10.14
357.58	46.56
357.796	58.96
358.012	67.49
358.228	27.19
358.444	-23.96
358.66	79.89
358.876	45.01
359.092	9.36
359.308	23.7
359.524	47.92
359.74	25.83
359.956	-1.87
360.172	30.87
360.388	57.03
360.604	-1.1
360.819	107.21
361.035	43.66
361.251	48.11
361.467	-2.65
361.683	69.62
361.898	37.26
362.114	78.92
362.33	27
362.546	67.49
362.762	27.19
362.977	62.06
363.193	0.45
363.409	57.8
363.624	11.69
363.84	11.3
364.056	28.74
364.271	59.54
364.487	37.85
364.703	32.61
364.918	0.06
365.134	15.37
365.35	38.43
365.565	133.36
365.781	18.08
365.996	51.21
366.212	112.63
366.427	48.89
366.643	33
366.858	36.68
367.074	-8.07
367.289	85.7
367.505	151.77
367.72	-0.52
367.936	20.21
368.151	84.15
368.367	59.35
368.582	44.63
368.798	41.14
369.013	112.24
369.228	45.21
369.444	43.85
369.659	117.28
369.874	64
370.09	112.83
370.305	-14.27
370.52	22.93
370.736	114.76
370.951	57.22
371.166	64.58
371.381	93.45
371.597	88.8
371.812	35.33
372.027	4.33
372.242	35.71
372.458	114.57
372.673	41.91
372.888	28.55
373.103	48.31
373.318	153.12
373.533	70.2
373.749	68.84
373.964	-7.1
374.179	96.16
374.394	20.21
374.609	96.74
374.824	4.33
375.039	84.34
375.254	29.9
375.469	93.06
375.684	67.68
375.899	93.64
376.114	40.36
376.329	61.09
376.544	89.38
376.759	77.95
376.974	57.03
377.189	47.92
377.404	60.51
377.619	107.59
377.834	0.45
378.049	27.58
378.264	58.38
378.478	77.18
378.693	51.41
378.908	100.43
379.123	75.43
379.338	106.63
379.553	88.8
379.767	66.52
379.982	97.91
380.197	86.48
380.412	81.05
380.626	52.18
380.841	165.52
381.056	69.81
381.271	140.73
381.485	60.51
381.7	61.09
381.915	90.35
382.129	35.71
382.344	40.95
382.559	57.22
382.773	91.13
382.988	-1.49
383.202	51.6
383.417	19.63
383.632	145.96
383.846	67.68
384.061	46.37
384.275	26.8
384.49	81.05
384.704	98.29
384.919	93.06
385.133	75.82
385.348	94.61
385.562	33.78
385.777	115.15
385.991	105.27
386.206	75.24
386.42	70.01
386.634	131.43
386.849	105.08
387.063	119.41
387.277	59.16
387.492	67.49
387.706	33.58
387.92	43.66
388.135	126.58
388.349	96.74
388.563	94.03
388.778	79.11
388.992	122.32
389.206	100.23
389.42	155.06
389.635	112.44
389.849	127.74
390.063	144.79
390.277	129.49
390.491	167.27
390.706	121.16
390.92	141.89
391.134	118.83
391.348	154.09
391.562	61.29
391.776	101.78
391.99	91.71
392.205	146.15
392.419	81.24
392.633	78.34
392.847	165.33
393.061	91.51
393.275	150.41
393.489	94.03
393.703	78.34
393.917	113.21
394.131	47.34
394.345	100.23
394.559	130.65
394.773	67.68
394.986	130.26
395.2	131.43
395.414	163.59
395.628	86.09
395.842	136.08
396.056	134.14
396.27	86.48
396.484	136.85
396.697	125.61
396.911	155.06
397.125	138.01
397.339	119.99
397.553	118.83
397.766	152.16
397.98	146.54
398.194	185.67
398.408	149.64
398.621	175.21
398.835	207.18
399.049	175.41
399.262	229.46
399.476	209.12
399.69	238.95
399.903	253.49
400.117	199.43
400.331	219.39
400.544	189.94
400.758	324.4
400.971	219.39
401.185	259.3
401.398	173.27
401.612	251.55
401.826	211.25
402.039	252.13
402.253	189.36
402.466	228.49
402.68	181.22
402.893	247.48
403.106	232.37
403.32	241.47
403.533	250.58
403.747	203.69
403.96	243.02
404.174	252.71
404.387	189.55
404.6	257.36
404.814	276.74
405.027	240.89
405.24	234.89
405.454	230.43
405.667	277.9
405.88	194.59
406.094	245.74
406.307	278.29
406.52	255.42
406.733	210.28
406.947	195.17
407.16	332.34
407.373	296.5
407.586	213.57
407.799	203.89
408.012	273.83
408.226	241.09
408.439	303.47
408.652	217.84
408.865	277.32
409.078	324.2
409.291	292.62
409.504	215.51
409.717	299.79
409.93	298.05
410.143	274.99
410.357	192.07
410.57	193.42
410.783	242.05
410.996	262.79
411.209	277.9
411.421	320.72
411.634	288.94
411.847	284.68
412.06	271.12
412.273	281.58
412.486	308.7
412.699	414.1
412.912	287.2
413.125	320.14
413.338	309.09
413.55	335.05
413.763	315.68
413.976	284.1
414.189	280.8
414.402	279.84
414.615	376.71
414.827	282.35
415.04	366.25
415.253	340.28
415.466	342.22
415.678	396.67
415.891	298.44
416.104	298.05
416.316	313.35
416.529	253.68
416.742	333.7
416.954	369.35
417.167	367.02
417.38	337.96
417.592	334.67
417.805	290.88
418.017	276.35
418.23	342.8
418.442	296.3
418.655	313.74
418.868	341.45
419.08	355.59
419.293	356.17
419.505	361.6
419.718	330.6
419.93	375.16
420.142	305.6
420.355	385.04
420.567	374
420.78	361.21
420.992	331.37
421.205	400.93
421.417	292.24
421.629	354.04
421.842	333.5
422.054	303.09
422.266	394.73
422.479	414.1
422.691	327.88
422.903	371.28
423.115	295.72
423.328	345.52
423.54	349.39
423.752	367.41
423.964	339.32
424.177	364.7
424.389	342.03
424.601	464.67
424.813	364.12
425.025	422.63
425.238	415.07
425.45	371.09
425.662	350.94
425.874	669.46
426.086	389.11
426.298	378.84
426.51	395.31
426.722	385.62
426.934	346.48
427.146	409.26
427.358	343.38
427.57	429.99
427.782	364.5
427.994	364.5
428.206	340.48
428.418	330.21
428.63	411.2
428.842	399.38
429.054	394.34
429.266	412.94
429.478	363.34
429.69	387.17
429.902	339.9
430.114	399.57
430.325	343.77
430.537	316.07
430.749	312.19
430.961	258.91
431.173	293.2
431.384	343
431.596	249.8
431.808	341.83
432.02	375.93
432.231	409.45
432.443	488.89
432.655	426.11
432.867	414.68
433.078	460.6
433.29	501.68
433.502	456.53
433.713	497.03
433.925	493.54
434.136	506.91
434.348	397.05
434.56	381.94
434.771	515.24
434.983	372.83
435.194	412.55
435.406	423.79
435.617	502.64
435.829	531.32
436.04	511.36
436.252	490.44
436.463	536.16
436.675	528.99
436.886	503.42
437.098	525.7
437.309	574.14
437.521	516.79
437.732	511.94
437.943	494.51
438.155	519.31
438.366	423.21
438.578	552.63
438.789	502.64
439	492.96
439.211	475.52
439.423	484.24
439.634	503.23
439.845	541.01
440.057	509.23
440.268	581.69
440.479	520.28
440.69	526.67
440.902	526.48
441.113	514.85
441.324	513.69
441.535	555.93
441.746	608.82
441.957	530.35
442.168	536.94
442.38	605.52
442.591	606.3
442.802	522.99
443.013	572.01
443.224	604.94
443.435	580.53
443.646	572.39
443.857	566.19
444.068	522.6
444.279	553.21
444.49	677.4
444.701	606.3
444.912	696.59
445.123	632.26
445.334	629.74
445.545	593.12
445.756	590.22
445.967	559.41
446.178	574.72
446.388	605.91
446.599	603.01
446.81	613.86
447.021	554.38
447.232	629.74
447.443	651.83
447.653	590.02
447.864	644.27
448.075	643.5
448.286	643.31
448.496	651.83
448.707	665.97
448.918	585.37
449.129	740.57
449.339	616.96
449.55	676.24
449.761	631.49
449.971	727.97
450.182	658.03
450.393	692.32
450.603	618.7
450.814	707.82
451.024	691.94
451.235	722.94
451.446	755.29
451.656	725.07
451.867	681.28
452.077	708.4
452.288	745.99
452.498	752.77
452.709	719.45
452.919	691.55
453.13	640.79
453.34	704.53
453.55	615.21
453.761	678.18
453.971	666.75
454.182	700.85
454.392	702.79
454.602	777.96
454.813	707.63
455.023	728.17
455.233	667.33
455.444	683.8
455.654	608.04
455.864	670.04
456.075	671.79
456.285	669.07
456.495	708.21
456.705	690.97
456.916	776.99
457.126	777.18
457.336	720.22
457.546	641.95
457.756	687.87
457.967	790.36
458.177	699.1
458.387	713.25
458.597	676.44
458.807	701.82
459.017	703.95
459.227	701.43
459.437	685.35
459.647	745.02
459.857	760.13
460.068	690.77
460.278	774.67
460.488	748.32
460.698	802.18
460.908	723.32
461.117	700.85
461.327	708.6
461.537	753.55
461.747	740.57
461.957	726.04
462.167	872.9
462.377	819.81
462.587	768.47
462.797	826.78
463.007	760.13
463.216	805.28
463.426	817.29
463.636	802.95
463.846	743.86
464.056	714.41
464.265	782.8
464.475	726.42
464.685	782.42
464.895	802.37
465.104	781.45
465.314	831.43
465.524	744.64
465.733	753.16
465.943	865.15
466.153	854.1
466.362	853.52
466.572	791.33
466.782	788.62
466.991	825.23
467.201	850.42
467.41	740.57
467.62	789.78
467.829	812.64
468.039	867.47
468.249	815.16
468.458	858.17
468.668	840.73
468.877	853.33
469.086	926.95
469.296	889.56
469.505	831.43
469.715	933.54
469.924	872.51
470.134	888.59
470.343	940.51
470.552	868.44
470.762	855.46
470.971	804.5
471.18	841.51
471.39	859.91
471.599	849.84
471.808	914.75
472.018	863.79
472.227	944.19
472.436	960.08
472.645	922.5
472.855	899.63
473.064	998.83
473.273	971.13
473.482	962.41
473.691	987.21
473.901	979.26
474.11	928.31
474.319	1058.31
474.528	947.88
474.737	1058.12
474.946	1011.43
475.155	1015.11
475.364	1072.07
475.573	1012.2
475.783	1017.04
475.992	1071.68
476.201	1068.39
476.41	1023.82
476.619	997.48
476.828	1022.08
477.037	1006.39
477.245	994.96
477.454	1061.8
477.663	1043.59
477.872	1057.73
478.081	1129.61
478.29	1084.66
478.499	1186.57
478.708	1164.49
478.917	1209.63
479.125	1134.26
479.334	1164.49
479.543	1126.51
479.752	1183.28
479.961	1135.81
480.169	1224.55
480.378	1154.41
480.587	1321.81
480.796	1218.73
481.004	1211.95
481.213	1231.33
481.422	1223.97
481.63	1251.28
481.839	1249.15
482.048	1312.31
482.256	1223
482.465	1304.37
482.674	1315.22
482.882	1285
483.091	1351.06
483.299	1278.8
483.508	1308.83
483.716	1317.93
483.925	1330.33
484.134	1284.03
484.342	1296.04
484.551	1364.05
484.759	1321.42
484.967	1364.24
485.176	1363.27
485.384	1385.74
485.593	1361.91
485.801	1367.73
486.01	1292.94
486.218	1228.23
486.426	1155.19
486.635	1161.77
486.843	1157.51
487.051	1175.14
487.26	1188.32
487.468	1226.48
487.676	1282.09
487.885	1263.68
488.093	1329.36
488.301	1345.25
488.509	1368.7
488.717	1386.13
488.926	1370.83
489.134	1361.33
489.342	1399.5
489.55	1335.76
489.758	1360.56
489.967	1397.76
490.175	1508.19
490.383	1421.59
490.591	1540.55
490.799	1429.92
491.007	1539.39
491.215	1470.02
491.423	1482.04
491.631	1470.8
491.839	1487.46
492.047	1542.68
492.255	1447.74
492.463	1412.68
492.671	1404.54
492.879	1486.11
493.087	1486.11
493.295	1486.69
493.503	1537.64
493.711	1549.65
493.919	1554.5
494.127	1586.66
494.334	1555.85
494.542	1513.04
494.75	1569.03
494.958	1564.57
495.166	1647.88
495.374	1586.85
495.581	1598.09
495.789	1590.34
495.997	1699.81
496.205	1578.33
496.412	1553.14
496.62	1591.31
496.828	1593.64
497.035	1643.43
497.243	1659.51
497.451	1627.93
497.658	1596.35
497.866	1651.95
498.074	1699.23
498.281	1607.78
498.489	1711.63
498.696	1580.07
498.904	1581.43
499.112	1600.42
499.319	1655.63
499.527	1638.2
499.734	1677.53
499.942	1617.08
500.149	1624.25
500.357	1637.81
500.564	1556.82
500.771	1644.2
500.979	1588.4
501.186	1577.17
501.394	1645.95
501.601	1606.23
501.808	1651.18
502.016	1611.85
502.223	1573.87
502.43	1617.27
502.638	1578.72
502.845	1592.86
503.052	1715.89
503.26	1621.92
503.467	1731
503.674	1658.54
503.881	1669.78
504.089	1751.35
504.296	1705.82
504.503	1616.5
504.71	1646.92
504.917	1612.24
505.125	1678.11
505.332	1680.43
505.539	1709.11
505.746	1808.69
505.953	1756.38
506.16	1774.79
506.367	1826.33
506.574	1867.01
506.781	1850.16
506.988	1754.06
507.195	1770.72
507.402	1759.68
507.609	1813.73
507.816	1721.9
508.023	1752.9
508.23	1755.8
508.437	1693.22
508.644	1764.91
508.851	1801.14
509.058	1794.75
509.265	1775.37
509.472	1812.96
509.679	1898.4
509.885	1803.27
510.092	1796.1
510.299	1813.15
510.506	1814.7
510.713	1854.42
510.92	1785.45
511.126	1816.83
511.333	1897.43
511.54	1866.43
511.746	1912.54
511.953	1907.89
512.16	1931.72
512.367	1877.09
512.573	1846.67
512.78	1883.48
512.987	1875.54
513.193	1858.49
513.4	1791.06
513.606	1824.78
513.813	1853.84
514.02	1862.17
514.226	1917.19
514.433	1915.84
514.639	1783.12
514.846	1854.23
515.052	1790.1
515.259	1858.68
515.465	1861.01
515.672	1865.66
515.878	1972.8
516.085	1901.11
516.291	1932.11
516.497	1878.64
516.704	1912.16
516.91	1811.41
517.117	1750.38
517.323	1672.3
517.529	1672.1
517.736	1677.72
517.942	1670.75
518.148	1743.01
518.354	1812.38
518.561	1783.9
518.767	1804.82
518.973	1827.1
519.179	1854.23
519.386	1810.24
519.592	1831.17
519.798	1834.85
520.004	1960.59
520.21	1900.72
520.417	1985.39
520.623	2013.29
520.829	2026.08
521.035	2007.67
521.241	2015.62
521.447	2016.78
521.653	2111.13
521.859	2053.79
522.065	2039.25
522.271	2155.12
522.477	2101.06
522.683	2159.96
522.889	2084.59
523.095	2115.4
523.301	2094.28
523.507	2034.8
523.713	2064.44
523.919	2037.9
524.125	2152.4
524.331	2149.5
524.537	2242.11
524.742	2246.18
524.948	2227.96
525.154	2244.82
525.36	2317.48
525.566	2201.61
525.772	2301.39
525.977	2182.05
526.183	2236.68
526.389	2284.54
526.595	2156.86
526.8	2164.03
527.006	2057.27
527.212	2040.8
527.417	2016.97
527.623	1985.59
527.829	2081.49
528.034	2121.79
528.24	2161.31
528.446	2141.94
528.651	2265.55
528.857	2256.64
529.062	2314.18
529.268	2306.04
529.473	2322.9
529.679	2313.79
529.884	2426.55
530.09	2388.19
530.295	2356.81
530.501	2360.49
530.706	2369.4
530.912	2322.13
531.117	2357.97
531.323	2341.11
531.528	2443.02
531.733	2434.5
531.939	2379.47
532.144	2402.14
532.35	2396.33
532.555	2458.52
532.76	2425.97
532.966	2410.67
533.171	2376.18
533.376	2325.03
533.581	2301.98
533.787	2375.6
533.992	2402.53
534.197	2438.95
534.402	2398.66
534.607	2428.69
534.813	2487
535.018	2389.16
535.223	2419.77
535.428	2456.59
535.633	2502.31
535.838	2549.39
536.043	2476.54
536.249	2611.2
536.454	2490.49
536.659	2520.52
536.864	2506.96
537.069	2469.95
537.274	2502.31
537.479	2500.57
537.684	2470.15
537.889	2412.02
538.094	2603.06
538.299	2488.75
538.504	2519.17
538.708	2529.43
538.913	2538.73
539.118	2520.91
539.323	2528.08
539.528	2506.57
539.733	2483.9
539.938	2509.67
540.142	2521.88
540.347	2518.97
540.552	2436.82
540.757	2416.48
540.962	2452.9
541.166	2436.82
541.371	2398.66
541.576	2415.32
541.781	2346.73
541.985	2496.89
542.19	2480.61
542.395	2604.8
542.599	2582.52
542.804	2541.64
543.008	2617.78
543.213	2517.23
543.418	2489.72
543.622	2584.07
543.827	2499.6
544.031	2582.33
544.236	2599.18
544.44	2551.91
544.645	2681.33
544.849	2520.91
545.054	2612.55
545.258	2677.65
545.463	2647.23
545.667	2568.77
545.872	2632.7
546.076	2623.79
546.281	2582.52
546.485	2579.81
546.689	2617.4
546.894	2632.7
547.098	2581.94
547.302	2526.33
547.507	2565.08
547.711	2637.93
547.915	2654.4
548.119	2516.84
548.324	2555.4
548.528	2632.7
548.732	2576.13
548.936	2637.35
549.141	2626.7
549.345	2566.44
549.549	2636.77
549.753	2610.81
549.957	2688.89
550.161	2709.04
550.366	2633.86
550.57	2576.32
550.774	2606.16
550.978	2604.22
551.182	2663.9
551.386	2556.95
551.59	2606.93
551.794	2585.82
551.998	2619.33
552.202	2596.86
552.406	2598.41
552.61	2667
552.814	2630.76
553.018	2701.68
553.222	2612.16
553.426	2641.42
553.63	2668.93
553.833	2599.76
554.037	2547.26
554.241	2681.91
554.445	2628.44
554.649	2629.8
554.853	2568.18
555.056	2669.71
555.26	2680.94
555.464	2658.86
555.668	2612.55
555.871	2694.31
556.075	2649.75
556.279	2587.56
556.483	2546.68
556.686	2616.04
556.89	2580.2
557.094	2605.19
557.297	2511.61
557.501	2635.22
557.704	2489.52
557.908	2599.96
558.112	2517.42
558.315	2599.76
558.519	2549.78
558.722	2515.87
558.926	2496.3
559.129	2430.82
559.333	2476.35
559.536	2450.77
559.74	2387.42
559.943	2445.93
560.147	2394.2
560.35	2458.14
560.553	2440.7
560.757	2444.19
560.96	2519.17
561.164	2453.29
561.367	2565.67
561.57	2512.97
561.774	2494.17
561.977	2480.03
562.18	2449.61
562.384	2536.99
562.587	2495.53
562.79	2445.35
562.993	2437.21
563.197	2493.98
563.4	2537.38
563.603	2519.55
563.806	2556.75
564.009	2449.61
564.212	2473.83
564.416	2393.04
564.619	2427.33
564.822	2371.34
565.025	2478.29
565.228	2425.39
565.431	2458.14
565.634	2332.59
565.837	2379.47
566.04	2354.48
566.243	2351.19
566.446	2243.27
566.649	2393.81
566.852	2286.09
567.055	2308.37
567.258	2388.19
567.461	2405.44
567.664	2440.89
567.867	2308.56
568.07	2385.67
568.273	2357.97
568.475	2425.2
568.678	2313.41
568.881	2324.45
569.084	2309.34
569.287	2226.03
569.489	2236.3
569.692	2293.64
569.895	2307.98
570.098	2199.48
570.3	2195.8
570.503	2171
570.706	2168.48
570.909	2203.55
571.111	2149.3
571.314	2150.27
571.516	2156.47
571.719	2177.59
571.922	2161.9
572.124	2131.67
572.327	2195.8
572.529	2148.33
572.732	2141.36
572.935	2195.22
573.137	2266.33
573.34	2148.14
573.542	2194.83
573.745	2224.48
573.947	2207.04
574.15	2208.98
574.352	2140
574.554	2231.65
574.757	2130.7
574.959	2091.18
575.162	2120.05
575.364	2114.23
575.566	2217.31
575.769	2091.37
575.971	2126.05
576.173	1989.07
576.376	2082.46
576.578	2121.6
576.78	2190.18
576.982	2010
577.185	2065.41
577.387	2033.44
577.589	2030.34
577.791	2098.54
577.993	2144.07
578.196	2044.87
578.398	2083.62
578.6	2100.87
578.802	2001.86
579.004	2022.59
579.206	1986.75
579.408	2024.34
579.61	1987.52
579.812	2114.04
580.014	2026.47
580.216	1982.49
580.418	2024.92
580.62	2011.94
580.822	1997.99
581.024	2013.29
581.226	2062.7
581.428	2013.49
581.63	2116.95
581.832	2002.44
582.034	2035.77
582.236	2034.99
582.438	2038.48
582.64	2081.49
582.841	2122.95
583.043	2108.62
583.245	2027.05
583.447	2084.59
583.649	2045.84
583.85	2055.72
584.052	2079.94
584.254	1992.37
584.456	2072.97
584.657	2003.8
584.859	2025.89
585.061	2018.72
585.262	1953.42
585.464	1994.11
585.666	2045.65
585.867	1946.84
586.069	2006.32
586.27	1991.2
586.472	1991.59
586.674	1943.93
586.875	1941.8
587.077	1899.56
587.278	1953.81
587.48	1951.1
587.681	2109.39
587.883	1962.34
588.084	1901.5
588.285	1935.6
588.487	1934.05
588.688	1956.91
588.89	1850.54
589.091	1832.33
589.292	1843.57
589.494	1774.4
589.695	1749.6
589.896	1682.95
590.098	1661.83
590.299	1728.68
590.5	1676.56
590.702	1724.22
590.903	1805.21
591.104	1834.85
591.305	1844.34
591.507	1881.93
591.708	1832.72
591.909	1836.01
592.11	1878.06
592.311	1863.91
592.512	1819.74
592.714	1783.12
592.915	1795.33
593.116	1775.18
593.317	1822.26
593.518	1817.22
593.719	1810.24
593.92	1841.24
594.121	1890.46
594.322	1816.83
594.523	1816.83
594.724	1785.64
594.925	1835.04
595.126	1805.4
595.327	1833.11
595.528	1827.29
595.729	1819.74
595.929	1784.09
596.13	1814.51
596.331	1842.41
596.532	1805.4
596.733	1854.03
596.934	1848.03
597.135	1874.76
597.335	1814.31
597.536	1804.24
597.737	1821.29
597.938	1786.61
598.138	1812.18
598.339	1820.9
598.54	1830.2
598.74	1745.34
598.941	1831.36
599.142	1836.21
599.342	1860.04
599.543	1755.61
599.744	1775.76
599.944	1782.93
600.145	1768.2
600.345	1797.85
600.546	1879.03
600.746	1833.49
600.947	1859.65
601.147	1810.83
601.348	1848.61
601.548	1757.74
601.749	1763.75
601.949	1693.03
602.15	1775.56
602.35	1739.72
602.551	1786.61
602.751	1746.11
602.951	1747.08
603.152	1684.7
603.352	1809.28
603.552	1788.55
603.753	1806.18
603.953	1820.71
604.153	1823.23
604.354	1763.94
604.554	1795.13
604.754	1785.25
604.954	1740.69
605.155	1756.38
605.355	1755.22
605.555	1792.23
605.755	1815.09
605.955	1733.33
606.155	1768.4
606.356	1769.56
606.556	1799.59
606.756	1772.46
606.956	1734.68
607.156	1794.16
607.356	1728.29
607.556	1774.01
607.756	1732.16
607.956	1772.85
608.156	1772.66
608.356	1712.6
608.556	1785.06
608.756	1743.01
608.956	1696.52
609.156	1720.54
609.356	1674.82
609.556	1661.64
609.755	1737.78
609.955	1700.78
610.155	1718.02
610.355	1695.93
610.555	1637.42
610.755	1707.17
610.954	1607
611.154	1650.21
611.354	1704.65
611.554	1634.9
611.753	1672.1
611.953	1615.72
612.153	1700
612.352	1657.77
612.552	1590.15
612.752	1533.96
612.951	1630.45
613.151	1647.5
613.351	1570.39
613.55	1592.09
613.75	1681.02
613.949	1636.07
614.149	1619.21
614.348	1617.47
614.548	1605.65
614.747	1527.96
614.947	1601
615.146	1502.77
615.346	1641.68
615.545	1613.59
615.745	1609.91
615.944	1634.9
616.144	1577.75
616.343	1598.29
616.542	1552.37
616.742	1548.88
616.941	1511.68
617.14	1502.96
617.34	1547.91
617.539	1547.33
617.738	1494.63
617.938	1616.69
618.137	1541.71
618.336	1522.72
618.535	1600.03
618.734	1539.97
618.934	1573.49
619.133	1545.97
619.332	1556.05
619.531	1509.94
619.73	1542.87
619.929	1606.04
620.128	1591.31
620.328	1606.42
620.527	1506.45
620.726	1527.57
620.925	1584.14
621.124	1546.75
621.323	1553.72
621.522	1473.51
621.721	1520.79
621.92	1518.27
622.119	1546.75
622.318	1501.02
622.517	1500.25
622.715	1485.52
622.914	1449.68
623.113	1464.99
623.312	1415.58
623.511	1500.25
623.71	1456.85
623.909	1447.36
624.107	1559.73
624.306	1406.28
624.505	1449.68
624.704	1421.78
624.902	1429.14
625.101	1491.34
625.3	1460.34
625.499	1428.37
625.697	1412.68
625.896	1388.26
626.095	1462.08
626.293	1370.83
626.492	1401.24
626.69	1417.52
626.889	1416.16
627.088	1473.71
627.286	1407.25
627.485	1440.38
627.683	1404.93
627.882	1466.92
628.08	1344.67
628.279	1433.02
628.477	1454.14
628.676	1373.15
628.874	1414.81
629.073	1378.38
629.271	1360.56
629.469	1428.95
629.668	1415.78
629.866	1374.89
630.065	1340.41
630.263	1424.49
630.461	1347.77
630.66	1393.88
630.858	1401.44
631.056	1387.68
631.254	1406.67
631.453	1317.55
631.651	1398.73
631.849	1356.1
632.047	1364.24
632.245	1364.05
632.444	1364.43
632.642	1379.74
632.84	1419.07
633.038	1352.23
633.236	1297.78
633.434	1366.56
633.632	1323.16
633.83	1335.18
634.028	1389.81
634.227	1326.85
634.425	1442.13
634.623	1370.44
634.821	1374.89
635.019	1364.05
635.216	1340.99
635.414	1395.43
635.612	1382.64
635.81	1323.16
636.008	1411.13
636.206	1326.65
636.404	1387.49
636.602	1289.06
636.8	1358.04
636.997	1382.64
637.195	1384.19
637.393	1367.73
637.591	1428.18
637.789	1380.13
637.986	1347.38
638.184	1398.73
638.382	1433.79
638.58	1405.7
638.777	1413.64
638.975	1379.54
639.173	1360.17
639.37	1386.33
639.568	1364.82
639.765	1372.18
639.963	1322.2
640.161	1389.62
640.358	1365.79
640.556	1302.63
640.753	1301.27
640.951	1314.83
641.148	1365.6
641.346	1289.06
641.543	1297.98
641.741	1314.06
641.938	1278.22
642.136	1306.11
642.333	1271.63
642.531	1335.37
642.728	1347.58
642.925	1319.29
643.123	1285.96
643.32	1288.87
643.517	1272.02
643.715	1339.05
643.912	1304.76
644.109	1302.05
644.306	1314.64
644.504	1247.02
644.701	1280.15
644.898	1319.68
645.095	1226.87
645.293	1296.04
645.49	1278.6
645.687	1275.89
645.884	1319.68
646.081	1184.64
646.278	1241.98
646.475	1231.91
646.672	1213.5
646.87	1254.97
647.067	1237.33
647.264	1236.56
647.461	1202.27
647.658	1149.95
647.855	1244.31
648.052	1201.3
648.249	1127.67
648.446	1193.74
648.642	1204.4
648.839	1143.95
649.036	1154.6
649.233	1111.01
649.43	1129.61
649.627	1107.14
649.824	1133.49
650.021	1135.62
650.217	1124.96
650.414	1167.39
650.611	1180.18
650.808	1177.85
651.004	1177.47
651.201	1167.78
651.398	1217.96
651.595	1194.52
651.791	1119.15
651.988	1217.38
652.185	1109.07
652.381	1216.99
652.578	1101.52
652.775	1165.45
652.971	1135.81
653.168	1122.25
653.364	1189.29
653.561	1090.09
653.757	1159.84
653.954	1157.32
654.15	1137.36
654.347	1231.33
654.543	1152.47
654.74	1068.58
654.936	1095.9
655.133	1126.32
655.329	1135.04
655.525	1109.07
655.722	1112.75
655.918	1078.07
656.115	1116.24
656.311	991.47
656.507	961.24
656.704	917.85
656.9	958.34
657.096	959.69
657.292	955.04
657.489	1032.93
657.685	1039.52
657.881	1006.39
658.077	1029.64
658.273	1022.86
658.47	1130
658.666	1026.73
658.862	1069.74
659.058	1066.26
659.254	1109.65
659.45	1053.47
659.646	1051.53
659.842	1090.86
660.038	1140.85
660.234	1068.39
660.43	1079.43
660.626	1145.11
660.822	1118.57
661.018	1122.25
661.214	1081.76
661.41	1054.44
661.606	1114.11
661.802	1130.19
661.998	1099
662.194	1046.49
662.39	1061.99
662.586	1135.42
662.781	1107.14
662.977	1098.81
663.173	1107.14
663.369	1069.36
663.564	1093.57
663.76	1102.1
663.956	1047.85
664.152	1129.03
664.347	1041.07
664.543	1072.07
664.739	1057.73
664.934	975
665.13	996.89
665.326	1078.27
665.521	1036.81
665.717	1035.26
665.912	1025.76
666.108	990.5
666.304	1050.95
666.499	1008.13
666.695	930.05
666.89	1006.39
667.086	1043.39
667.281	1024.6
667.477	1084.66
667.672	1025.57
667.867	1043.39
668.063	1014.91
668.258	991.08
668.454	1013.56
668.649	1109.65
668.844	1036.81
669.04	1065.29
669.235	989.53
669.43	1008.33
669.626	974.61
669.821	1009.29
670.016	963.38
670.211	1013.17
670.407	950.39
670.602	994.57
670.797	1018.59
670.992	1045.91
671.187	999.41
671.382	1058.7
671.578	996.7
671.773	1001.74
671.968	962.99
672.163	982.56
672.358	1018.4
672.553	951.75
672.748	992.83
672.943	1039.91
673.138	965.31
673.333	1029.44
673.528	913.39
673.723	990.31
673.918	951.36
674.113	940.13
674.308	1066.06
674.503	1006.58
674.698	1018.79
674.892	1010.84
675.087	1003.68
675.282	977.91
675.477	946.13
675.672	1012.01
675.867	953.69
676.061	935.48
676.256	918.81
676.451	953.49
676.646	957.56
676.84	918.81
677.035	925.21
677.23	935.67
677.424	984.3
677.619	987.21
677.814	971.32
678.008	956.21
678.203	916.3
678.397	931.99
678.592	977.13
678.787	1022.08
678.981	959.5
679.176	969.77
679.37	986.43
679.565	913.2
679.759	927.73
679.954	963.18
680.148	1013.17
680.342	995.73
680.537	977.52
680.731	928.31
680.926	971.51
681.12	1004.45
681.314	918.04
681.509	931.8
681.703	966.86
681.897	947.88
682.092	929.66
682.286	937.22
682.48	1002.13
682.674	978.29
682.869	951.75
683.063	961.44
683.257	1011.04
683.451	896.34
683.645	964.54
683.839	934.12
684.034	922.11
684.228	972.68
684.422	901.38
684.616	908.55
684.81	956.4
685.004	903.7
685.198	960.86
685.392	979.46
685.586	900.02
685.78	946.91
685.974	963.76
686.168	945.16
686.362	988.76
686.556	881.03
686.75	868.05
686.944	843.06
687.138	878.32
687.331	787.07
687.525	768.66
687.719	753.74
687.913	824.27
688.107	777.96
688.301	790.36
688.494	814.58
688.688	767.88
688.882	739.4
689.076	751.8
689.269	790.94
689.463	847.9
689.657	808.96
689.85	782.61
690.044	814.97
690.238	787.26
690.431	812.06
690.625	823.49
690.818	824.85
691.012	844.42
691.205	880.84
691.399	813.03
691.593	859.14
691.786	915.33
691.98	940.32
692.173	960.66
692.366	907.19
692.56	880.65
692.753	973.06
692.947	861.85
693.14	995.34
693.333	930.05
693.527	862.43
693.72	928.5
693.914	901.57
694.107	903.12
694.3	911.06
694.493	902.54
694.687	933.15
694.88	875.41
695.073	995.93
695.266	936.44
695.46	927.34
695.653	1003.87
695.846	976.94
696.039	912.61
696.232	927.92
696.425	999.03
696.618	1006.39
696.812	988.95
697.005	1084.27
697.198	1126.51
697.391	1069.94
697.584	1105.97
697.777	1113.92
697.97	1110.04
698.163	1107.72
698.356	1062.57
698.549	1194.71
698.742	1144.92
698.935	1103.46
699.127	1154.8
699.32	1084.27
699.513	1085.63
699.706	1126.9
699.899	1181.34
700.092	1129.42
700.285	1189.67
700.477	1075.36
700.67	1174.17
700.863	1169.52
701.056	1268.92
701.248	1245.08
701.441	1260.2
701.634	1192
701.826	1324.91
702.019	1184.05
702.212	1262.33
702.404	1231.72
702.597	1230.94
702.79	1229.39
702.982	1279.18
703.175	1350.29
703.367	1327.23
703.56	1322.39
703.752	1434.18
703.945	1392.33
704.137	1420.04
704.33	1429.92
704.522	1428.76
704.715	1427.4
704.907	1428.95
705.1	1518.27
705.292	1489.4
705.484	1486.49
705.677	1521.76
705.869	1527.76
706.061	1575.62
706.254	1588.21
706.446	1570.77
706.638	1569.61
706.831	1625.6
707.023	1593.83
707.215	1710.66
707.407	1723.25
707.599	1647.88
707.792	1729.26
707.984	1711.05
708.176	1737.59
708.368	1736.81
708.56	1748.05
708.752	1796.49
708.944	1768.2
709.136	1832.33
709.329	1782.15
709.521	1935.21
709.713	1869.14
709.905	1914.67
710.097	1946.45
710.289	1896.46
710.481	1933.47
710.672	1973.19
710.864	1976.09
711.056	2048.94
711.248	2042.74
711.44	2014.65
711.632	2026.27
711.824	2079.55
712.016	2115.01
712.207	2116.37
712.399	2109.78
712.591	2205.1
712.783	2151.24
712.975	2165
713.166	2147.17
713.358	2179.91
713.55	2227.77
713.741	2271.94
713.933	2273.49
714.125	2298.68
714.316	2237.07
714.508	2368.62
714.7	2325.61
714.891	2317.67
715.083	2402.34
715.274	2334.33
715.466	2352.35
715.657	2442.64
715.849	2286.48
716.04	2395.94
716.232	2345.18
716.423	2417.06
716.615	2347.51
716.806	2340.34
716.998	2279.31
717.189	2236.49
717.381	2165.19
717.572	2141.36
717.763	2202.2
717.955	2173.91
718.146	2132.64
718.337	2090.21
718.528	2068.12
718.72	1989.65
718.911	2042.35
719.102	2040.22
719.293	2089.05
719.485	2069.48
719.676	2089.24
719.867	2047.97
720.058	2039.25
720.249	2052.82
720.44	2086.92
720.632	2138.65
720.823	2207.23
721.014	2310.5
721.205	2294.61
721.396	2440.31
721.587	2505.6
721.778	2512.97
721.969	2609.26
722.16	2620.5
722.351	2662.35
722.542	2789.25
722.733	2803.97
722.924	2725.7
723.115	2809.98
723.305	2814.82
723.496	2791.77
723.687	2676.88
723.878	2686.76
724.069	2723.38
724.26	2707.1
724.45	2612.94
724.641	2618.95
724.832	2688.31
725.023	2667.38
725.213	2646.26
725.404	2677.07
725.595	2653.82
725.785	2657.7
725.976	2738.68
726.167	2769.49
726.357	2751.08
726.548	2875.47
726.739	2764.26
726.929	2849.89
727.12	2897.55
727.31	2939.4
727.501	2880.7
727.691	2921.58
727.882	2872.37
728.072	2916.15
728.263	2886.32
728.453	2972.15
728.644	3014.58
728.834	2977.77
729.024	2958.39
729.215	2965.37
729.405	2975.05
729.596	3108.93
729.786	3078.71
729.976	3125.4
730.167	3158.53
730.357	3092.85
730.547	3091.11
730.737	3156.98
730.928	3208.32
731.118	3245.72
731.308	3182.94
731.498	3212.01
731.688	3338.52
731.879	3322.05
732.069	3334.84
732.259	3384.25
732.449	3416.6
732.639	3502.05
732.829	3521.23
733.019	3552.61
733.209	3671.38
733.399	3604.93
733.589	3725.44
733.779	3684.94
733.969	3754.69
734.159	3823.47
734.349	3899.81
734.539	3923.25
734.729	3867.84
734.919	3933.91
735.109	3979.63
735.299	3906.4
735.488	3960.26
735.678	4003.08
735.868	3972.08
736.058	3951.35
736.248	3968.78
736.437	3947.47
736.627	3876.17
736.817	4106.54
737.007	4012.76
737.196	4063.72
737.386	4046.28
737.576	4030.01
737.765	4093.17
737.955	4007.53
738.144	4165.05
738.334	4102.47
738.524	4100.34
738.713	4150.91
738.903	4154.2
739.092	4155.17
739.282	4131.34
739.471	4156.91
739.661	4174.54
739.85	4219.69
740.04	4185.2
740.229	4231.89
740.419	4288.66
740.608	4241.77
740.797	4270.25
740.987	4332.83
741.176	4318.88
741.365	4266.77
741.555	4150.32
741.744	4366.93
741.933	4286.53
742.123	4317.53
742.312	4320.05
742.501	4389.21
742.69	4397.16
742.88	4258.82
743.069	4464.19
743.258	4375.07
743.447	4446.37
743.636	4407.43
743.825	4408.98
744.014	4427.96
744.204	4485.31
744.393	4410.91
744.582	4493.45
744.771	4524.06
744.96	4470.2
745.149	4486.86
745.338	4435.71
745.527	4526
745.716	4469.43
745.905	4488.41
746.094	4545.76
746.283	4517.28
746.471	4481.83
746.66	4570.56
746.849	4514.96
747.038	4550.02
747.227	4535.11
747.416	4564.36
747.604	4495.39
747.793	4483.18
747.982	4485.12
748.171	4594.78
748.359	4559.71
748.548	4581.8
748.737	4527.55
748.926	4595.75
749.114	4360.15
749.303	4527.94
749.491	4503.91
749.68	4430.29
749.869	4545.37
750.057	4440.75
750.246	4457.41
750.434	4486.28
750.623	4464.78
750.811	4461.29
751	4520.57
751.188	4453.15
751.377	4518.06
751.565	4413.05
751.754	4434.94
751.942	4377.2
752.131	4483.57
752.319	4462.64
752.507	4390.18
752.696	4469.23
752.884	4510.69
753.072	4413.24
753.261	4483.76
753.449	4424.09
753.637	4391.93
753.825	4471.75
754.014	4412.46
754.202	4426.8
754.39	4498.88
754.578	4455.28
754.766	4390.38
754.955	4388.44
755.143	4473.11
755.331	4379.53
755.519	4384.76
755.707	4411.5
755.895	4405.1
756.083	4409.17
756.271	4359.38
756.459	4370.81
756.647	4406.46
756.835	4355.5
757.023	4407.81
757.211	4320.43
757.399	4308.03
757.587	4351.82
757.775	4305.9
757.963	4348.53
758.151	4329.15
758.339	4257.08
758.526	4265.99
758.714	4266.57
758.902	4208.25
759.09	4111.77
759.278	3900.97
759.465	3725.44
759.653	3274.2
759.841	3025.23
760.028	2659.44
760.216	2352.54
760.404	2238.81
760.591	1906.34
760.779	1653.5
760.967	1520.21
761.154	1297.2
761.342	1352.42
761.529	1365.4
761.717	1479.71
761.905	1446.78
762.092	1564.57
762.28	1541.32
762.467	1574.07
762.655	1495.41
762.842	1614.56
763.029	1591.89
763.217	1612.04
763.404	1613.01
763.592	1665.52
763.779	1623.09
763.966	1651.18
764.154	1722.09
764.341	1780.02
764.528	1783.9
764.716	1862.17
764.903	1950.71
765.09	1994.69
765.277	2039.06
765.465	2226.22
765.652	2269.81
765.839	2400.98
766.026	2526.72
766.213	2533.5
766.4	2685.01
766.588	2844.86
766.775	2889.42
766.962	2962.85
767.149	3054.68
767.336	3182.56
767.523	3132.96
767.71	3257.34
767.897	3443.53
768.084	3440.05
768.271	3473.18
768.458	3550.68
768.645	3626.43
768.832	3596.21
769.019	3636.51
769.206	3658.4
769.392	3751.98
769.579	3830.45
769.766	3739.77
769.953	3720.01
770.14	3827.54
770.327	3737.64
770.513	3846.33
770.7	3917.63
770.887	3820.95
771.073	3861.45
771.26	3863.58
771.447	3815.92
771.634	3790.54
771.82	3928.1
772.007	3823.28
772.193	3892.64
772.38	3849.43
772.567	3817.08
772.753	3823.08
772.94	3837.62
773.126	3891.09
773.313	3895.74
773.499	3874.23
773.686	3879.85
773.872	3768.45
774.059	3881.4
774.245	3820.95
774.432	3803.13
774.618	3716.52
774.804	3781.04
774.991	3730.09
775.177	3788.99
775.363	3761.67
775.55	3801.77
775.736	3743.65
775.922	3743.07
776.109	3750.62
776.295	3737.25
776.481	3753.72
776.667	3789.76
776.853	3707.81
777.04	3710.91
777.226	3726.99
777.412	3795.77
777.598	3699.67
777.784	3648.32
777.97	3633.79
778.156	3693.86
778.342	3642.9
778.528	3651.62
778.715	3589.62
778.901	3602.99
779.087	3686.49
779.272	3624.3
779.458	3605.7
779.644	3638.25
779.83	3585.55
780.016	3702.96
780.202	3600.66
780.388	3588.84
780.574	3488.1
780.76	3548.74
780.946	3641.74
781.131	3562.49
781.317	3590.98
781.503	3508.05
781.689	3554.55
781.874	3651.04
782.06	3528.98
782.246	3564.63
782.432	3518.13
782.617	3540.6
782.803	3574.31
782.989	3439.47
783.174	3484.03
783.36	3414.47
783.545	3468.91
783.731	3448.18
783.916	3338.72
784.102	3463.88
784.288	3410.79
784.473	3395.48
784.659	3377.66
784.844	3416.99
785.029	3331.55
785.215	3404.98
785.4	3306.55
785.586	3442.95
785.771	3300.94
785.956	3378.24
786.142	3351.5
786.327	3334.84
786.512	3340.65
786.698	3292.99
786.883	3294.93
787.068	3281.37
787.254	3313.14
787.439	3274.2
787.624	3309.65
787.809	3238.94
787.994	3247.85
788.18	3294.15
788.365	3164.93
788.55	3183.14
788.735	3230.02
788.92	3213.17
789.105	3187.21
789.29	3240.87
789.475	3146.52
789.66	3126.56
789.845	3159.5
790.03	3124.43
790.215	3179.07
790.4	3192.44
790.585	3204.64
790.77	3178.68
790.955	3061.27
791.14	3114.36
791.325	3236.81
791.51	3065.34
791.695	3141.87
791.879	3110.68
792.064	3047.32
792.249	3170.93
792.434	3064.37
792.618	3094.6
792.803	3146.71
792.988	3104.86
793.173	3104.48
793.357	3141.09
793.542	3071.35
793.727	3082
793.911	3132.18
794.096	3101.18
794.281	3106.41
794.465	3171.71
794.65	3085.68
794.834	3143.81
795.019	3172.29
795.203	3172.09
795.388	3168.99
795.572	3218.01
795.757	3186.82
795.941	3176.94
796.126	3128.5
796.31	3098.08
796.494	3128.5
796.679	3136.06
796.863	3121.53
797.048	3198.25
797.232	3137.03
797.416	3211.42
797.601	3157.56
797.785	3210.07
797.969	3236.81
798.153	3138.77
798.338	3236.03
798.522	3258.89
798.706	3202.32
798.89	3252.5
799.074	3302.87
799.258	3224.41
799.443	3201.16
799.627	3216.66
799.811	3215.11
799.995	3161.83
800.179	3148.84
800.363	3158.14
800.547	3208.91
800.731	3223.44
800.915	3087.04
801.099	3149.23
801.283	3159.11
801.467	3204.64
801.651	3196.12
801.835	3225.37
802.019	3193.21
802.202	3170.74
802.386	3164.73
802.57	3135.28
802.754	3165.89
802.938	3097.11
803.121	3114.94
803.305	3203.48
803.489	3132.38
803.673	3145.16
803.856	3211.23
804.04	3166.09
804.224	3167.06
804.407	3129.47
804.591	3119.98
804.775	3142.84
804.958	3146.71
805.142	3264.71
805.326	3147.29
805.509	3164.15
805.693	3191.86
805.876	3175.58
806.06	3192.05
806.243	3218.01
806.427	3157.95
806.61	3182.75
806.794	3163.38
806.977	3233.51
807.16	3135.86
807.344	3144.58
807.527	3181.01
807.71	3128.69
807.894	3160.47
808.077	3175.58
808.26	3121.53
808.444	3058.95
808.627	3201.16
808.81	3121.53
808.993	3077.74
809.177	3096.73
809.36	3069.99
809.543	3070.96
809.726	2938.05
809.909	2989.97
810.092	2958.97
810.276	2990.17
810.459	2980.09
810.642	2960.13
810.825	2883.8
811.008	2959.75
811.191	2873.34
811.374	2868.49
811.557	2875.85
811.74	2958.78
811.923	2892.71
812.106	2837.69
812.289	2792.16
812.472	2807.07
812.654	2844.27
812.837	2752.44
813.02	2702.64
813.203	2685.98
813.386	2567.6
813.569	2593.76
813.751	2492.24
813.934	2556.95
814.117	2515.68
814.3	2492.62
814.482	2424.42
814.665	2416.87
814.848	2354.67
815.03	2324.84
815.213	2333.56
815.396	2253.93
815.578	2252.76
815.761	2191.93
815.943	2296.55
816.126	2157.05
816.309	2142.52
816.491	2099.12
816.674	2010
816.856	2090.4
817.039	2063.28
817.221	2157.83
817.403	2107.26
817.586	2103.77
817.768	2120.82
817.951	2063.28
818.133	2012.52
818.315	2062.31
818.498	2122.37
818.68	2129.35
818.862	2135.16
819.045	2192.51
819.227	2118.88
819.409	2102.22
819.591	2155.7
819.774	2080.33
819.956	2102.61
820.138	2198.71
820.32	2129.15
820.502	2207.04
820.684	2250.83
820.866	2220.99
821.048	2307.01
821.231	2330.65
821.413	2319.41
821.595	2315.54
821.777	2323.68
821.959	2291.51
822.141	2386.45
822.323	2185.53
822.505	2146.59
822.686	2069.87
822.868	2011.55
823.05	1898.01
823.232	1876.31
823.414	1779.44
823.596	1884.06
823.778	1864.88
823.96	1875.54
824.141	1897.62
824.323	1924.75
824.505	1981.9
824.687	2064.05
824.868	2132.83
825.05	2222.35
825.232	2211.88
825.413	2297.13
825.595	2242.88
825.777	2179.72
825.958	2228.16
826.14	2223.12
826.321	2212.46
826.503	2211.88
826.685	2201.81
826.866	2285.89
827.048	2246.95
827.229	2214.01
827.411	2173.52
827.592	2126.25
827.773	2105.9
827.955	2078.58
828.136	2048.75
828.318	2007.87
828.499	2063.28
828.68	1982.29
828.862	2038.67
829.043	2078.78
829.224	2013.29
829.406	1986.75
829.587	1984.42
829.768	2001.86
829.949	2043.32
830.131	2010.39
830.312	2106.68
830.493	2008.45
830.674	2009.22
830.855	1999.73
831.036	2010.97
831.218	2010.58
831.399	2080.52
831.58	2007.87
831.761	2009.61
831.942	2009.22
832.123	2025.11
832.304	1970.86
832.485	1948.97
832.666	1999.73
832.847	2038.87
833.028	2004.19
833.209	2034.41
833.389	1986.36
833.57	1928.43
833.751	1976.87
833.932	2016.97
834.113	2015.42
834.294	1959.43
834.475	1967.76
834.655	2073.93
834.836	2051.85
835.017	2020.27
835.198	1957.49
835.378	2015.62
835.559	2056.11
835.74	1975.71
835.92	2010
836.101	1955.56
836.281	2023.95
836.462	2022.2
836.643	2118.3
836.823	2060.95
837.004	2030.34
837.184	2094.28
837.365	2079.17
837.545	2088.85
837.726	2051.27
837.906	2114.62
838.087	2048.94
838.267	2065.8
838.448	2020.85
838.628	2037.12
838.808	2012.52
838.989	2108.62
839.169	1993.14
839.349	2072.19
839.53	2079.94
839.71	2062.7
839.89	2003.22
840.07	2091.95
840.251	1973.38
840.431	2093.12
840.611	2037.9
840.791	1997.02
840.971	2039.45
841.151	1986.75
841.332	2006.9
841.512	2069.28
841.692	1945.29
841.872	2036.15
842.052	1994.11
842.232	2023.75
842.412	1942.96
842.592	2018.33
842.772	1999.73
842.952	1982.29
843.132	1986.94
843.312	1965.05
843.492	1935.21
843.672	2001.28
843.851	1930.95
844.031	1927.46
844.211	1948.97
844.391	1965.82
844.571	1936.57
844.751	1972.41
844.93	1959.04
845.11	1920.1
845.29	1933.08
845.47	1964.66
845.649	1961.17
845.829	1979.58
846.009	1952.65
846.188	1953.23
846.368	1937.34
846.547	1931.14
846.727	1967.37
846.907	1855.97
847.086	1960.4
847.266	1943.93
847.445	1907.51
847.625	1902.66
847.804	1912.74
847.984	1909.25
848.163	1910.41
848.343	1896.46
848.522	1887.74
848.701	1887.74
848.881	1870.31
849.06	1876.12
849.239	1874.96
849.419	1897.43
849.598	1804.63
849.777	1822.45
849.957	1818.19
850.136	1727.32
850.315	1722.48
850.494	1699.03
850.674	1734.68
850.853	1824
851.032	1739.72
851.211	1838.92
851.39	1780.6
851.569	1712.02
851.748	1740.5
851.927	1763.75
852.107	1761.61
852.286	1710.08
852.465	1710.27
852.644	1742.82
852.823	1781.96
853.002	1729.06
853.181	1748.44
853.359	1767.81
853.538	1661.83
853.717	1769.95
853.896	1631.22
854.075	1582.4
854.254	1563.99
854.433	1455.3
854.611	1503.93
854.79	1457.82
854.969	1537.64
855.148	1597.32
855.327	1502.38
855.505	1567.67
855.684	1555.47
855.863	1597.9
856.041	1548.1
856.22	1596.35
856.399	1600.03
856.577	1692.06
856.756	1684.7
856.934	1787.38
857.113	1779.63
857.291	1665.32
857.47	1643.62
857.648	1706.4
857.827	1716.47
858.005	1732.16
858.184	1619.99
858.362	1782.15
858.541	1682.76
858.719	1681.02
858.898	1647.5
859.076	1614.75
859.254	1724.8
859.433	1636.26
859.611	1606.62
859.789	1570.39
859.967	1687.02
860.146	1709.5
860.324	1594.8
860.502	1601
860.68	1535.32
860.859	1583.17
861.037	1622.89
861.215	1642.65
861.393	1627.54
861.571	1568.64
861.749	1553.53
861.927	1619.6
862.105	1577.17
862.283	1570.77
862.461	1567.67
862.639	1576.2
862.817	1565.74
862.995	1572.71
863.173	1536.87
863.351	1588.4
863.529	1610.88
863.707	1614.56
863.885	1565.15
864.063	1488.24
864.241	1542.68
864.418	1577.94
864.596	1511.87
864.774	1478.36
864.952	1555.27
865.129	1559.73
865.307	1504.9
865.485	1503.93
865.663	1548.49
865.84	1470.41
866.018	1448.91
866.196	1310.38
866.373	1354.36
866.551	1321.23
866.728	1239.27
866.906	1285
867.084	1336.34
867.261	1357.26
867.439	1374.7
867.616	1408.41
867.794	1386.91
867.971	1408.41
868.149	1408.41
868.326	1458.98
868.503	1430.31
868.681	1433.41
868.858	1397.95
869.035	1348.74
869.213	1429.34
869.39	1389.04
869.567	1480.68
869.745	1395.04
869.922	1458.59
870.099	1436.7
870.276	1421.59
870.454	1427.01
870.631	1454.14
870.808	1390.78
870.985	1406.28
871.162	1473.51
871.339	1462.27
871.517	1389.62
871.694	1402.21
871.871	1389.23
872.048	1402.79
872.225	1356.68
872.402	1377.41
872.579	1311.15
872.756	1394.85
872.933	1331.3
873.11	1327.81
873.287	1368.31
873.463	1367.73
873.64	1334.4
873.817	1371.99
873.994	1345.25
874.171	1302.24
874.348	1351.06
874.524	1248.18
874.701	1315.03
874.878	1266.59
875.055	1321.81
875.231	1329.36
875.408	1329.95
875.585	1246.25
875.762	1325.49
875.938	1271.82
876.115	1287.13
876.291	1259.23
876.468	1278.22
876.645	1217.77
876.821	1251.28
876.998	1254.77
877.174	1284.8
877.351	1278.8
877.527	1246.25
877.704	1299.91
877.88	1254
878.057	1229.2
878.233	1279.18
878.409	1242.95
878.586	1268.33
878.762	1257.48
878.938	1235.01
879.115	1158.67
879.291	1254.19
879.467	1157.51
879.644	1216.41
879.82	1238.11
879.996	1193.74
880.172	1154.8
880.349	1232.49
880.525	1223.77
880.701	1146.08
880.877	1137.55
881.053	1186.57
881.229	1173.01
881.405	1246.63
881.581	1174.56
881.757	1200.13
881.933	1189.67
882.109	1256.13
882.285	1155.77
882.461	1142.79
882.637	1173.79
882.813	1183.67
882.989	1186.19
883.165	1229
883.341	1125.74
883.517	1198.58
883.693	1208.47
883.869	1234.04
884.044	1169.91
884.22	1189.48
884.396	1263.1
884.572	1211.57
884.747	1223
884.923	1227.65
885.099	1227.07
885.275	1242.95
885.45	1154.41
885.626	1148.21
885.801	1158.67
885.977	1183.67
886.153	1096.09
886.328	1196.26
886.504	1133.29
886.679	1164.49
886.855	1150.15
887.03	1199.17
887.206	1202.27
887.381	1195.87
887.557	1205.56
887.732	1182.89
887.908	1241.98
888.083	1233.07
888.258	1145.5
888.434	1151.89
888.609	1185.6
888.784	1227.07
888.96	1155.19
889.135	1159.64
889.31	1157.51
889.485	1146.85
889.661	1158.09
889.836	1241.02
890.011	1211.95
890.186	1184.64
890.361	1148.21
890.537	1190.25
890.712	1172.62
890.887	1178.82
891.062	1161.97
891.237	1242.37
891.412	1148.79
891.587	1164.1
891.762	1210.98
891.937	1216.8
892.112	1162.74
892.287	1167.78
892.462	1141.43
892.637	1099.97
892.812	1081.37
892.987	1123.41
893.161	1082.53
893.336	1095.71
893.511	1100.55
893.686	1115.85
893.861	1112.17
894.035	1116.24
894.21	1087.96
894.385	1046.3
894.56	1061.41
894.734	1009.1
894.909	1020.72
895.084	1039.71
895.258	1037.19
895.433	1069.74
895.608	992.83
895.782	919.78
895.957	966.67
896.131	946.52
896.306	889.17
896.48	904.48
896.655	922.69
896.829	818.26
897.004	855.26
897.178	852.55
897.353	839.38
897.527	904.09
897.701	866.7
897.876	811.67
898.05	938.58
898.224	853.33
898.399	897.31
898.573	845
898.747	749.48
898.921	804.89
899.096	719.06
899.27	699.3
899.444	707.24
899.618	723.13
899.792	750.64
899.967	759.36
900.141	819.23
900.315	744.64
900.489	779.9
900.663	766.53
900.837	755.68
901.011	699.49
901.185	813.61
901.359	747.54
901.533	763.62
901.707	761.3
901.881	786.29
902.055	727.59
902.229	765.37
902.403	838.02
902.576	764.59
902.75	748.12
902.924	899.83
903.098	802.37
903.272	860.3
903.446	901.57
903.619	884.52
903.793	919.01
903.967	875.03
904.14	934.89
904.314	941.68
904.488	858.75
904.661	929.08
904.835	898.86
905.009	925.6
905.182	988.95
905.356	939.93
905.529	928.89
905.703	869.99
905.876	870.76
906.05	858.95
906.223	842.67
906.397	773.7
906.57	752
906.744	726.81
906.917	742.31
907.09	791.52
907.264	731.46
907.437	706.47
907.61	682.25
907.784	691.94
907.957	734.37
908.13	640.79
908.304	730.88
908.477	679.73
908.65	706.27
908.823	620.25
908.996	727.97
909.17	635.94
909.343	662.49
909.516	687.87
909.689	661.32
909.862	638.85
910.035	667.14
910.208	629.94
910.381	628.97
910.554	733.2
910.727	673.14
910.9	642.53
911.073	638.27
911.246	727.59
911.419	741.34
911.592	708.79
911.765	640.21
911.938	644.47
912.11	667.52
912.283	680.5
912.456	706.08
912.629	648.54
912.802	650.09
912.974	633.04
913.147	562.71
913.32	523.38
913.493	553.21
913.665	571.62
913.838	631.1
914.01	565.81
914.183	596.61
914.356	602.42
914.528	650.09
914.701	686.32
914.873	639.04
915.046	561.35
915.218	546.43
915.391	473.97
915.563	469.9
915.736	552.63
915.908	587.7
916.081	564.26
916.253	592.93
916.425	584.02
916.598	578.01
916.77	597.39
916.942	548.56
917.115	479.78
917.287	589.06
917.459	551.08
917.632	482.88
917.804	466.41
917.976	536.16
918.148	525.12
918.32	571.43
918.493	566
918.665	617.92
918.837	556.51
919.009	628.97
919.181	591.38
919.353	582.08
919.525	590.99
919.697	616.37
919.869	560.96
920.041	660.74
920.213	712.86
920.385	637.69
920.557	590.41
920.729	620.25
920.901	597.77
921.073	572.2
921.244	565.61
921.416	618.12
921.588	572.2
921.76	561.35
921.932	628.97
922.103	578.59
922.275	612.31
922.447	600.49
922.619	530.74
922.79	588.09
922.962	553.21
923.134	584.79
923.305	532.09
923.477	493.93
923.648	533.06
923.82	529.77
923.991	497.61
924.163	460.02
924.335	517.95
924.506	500.71
924.677	575.11
924.849	476.3
925.02	510.39
925.192	566
925.363	536.36
925.535	511.56
925.706	480.56
925.877	535
926.049	483.08
926.22	534.61
926.391	491.21
926.562	524.93
926.734	491.8
926.905	550.11
927.076	448.98
927.247	494.9
927.419	450.53
927.59	444.13
927.761	406.74
927.932	448.98
928.103	419.14
928.274	414.68
928.445	393.76
928.616	384.27
928.787	364.31
928.958	419.91
929.129	406.16
929.3	360.43
929.471	334.67
929.642	293.59
929.813	249.8
929.984	350.55
930.155	251.55
930.326	293.4
930.496	270.34
930.667	200.79
930.838	288.36
931.009	231.01
931.18	223.26
931.35	216.87
931.521	225.01
931.692	174.05
931.863	108.37
932.033	185.87
932.204	185.09
932.374	205.44
932.545	138.4
932.716	216.48
932.886	194.39
933.057	104.69
933.227	127.94
933.398	206.41
933.568	92.87
933.739	66.71
933.909	74.27
934.08	152.54
934.25	57.41
934.421	86.09
934.591	106.24
934.761	70.01
934.932	54.31
935.102	124.26
935.272	85.12
935.443	102.36
935.613	67.88
935.783	97.71
935.953	58
936.123	205.63
936.294	52.96
936.464	110.11
936.634	89.77
936.804	51.21
936.974	19.63
937.144	87.64
937.314	106.82
937.484	45.4
937.655	31.84
937.825	112.83
937.995	64.78
938.165	125.42
938.334	76.21
938.504	101.39
938.674	96.16
938.844	112.63
939.014	159.71
939.184	162.81
939.354	215.32
939.524	194.39
939.694	147.51
939.863	120.77
940.033	223.46
940.203	209.89
940.373	181.02
940.542	181.99
940.712	125.81
940.882	184.32
941.051	196.33
941.221	194.39
941.391	186.06
941.56	131.23
941.73	138.01
941.899	268.4
942.069	110.69
942.238	177.73
942.408	129.29
942.577	189.94
942.747	135.49
942.916	92.29
943.086	92.68
943.255	150.22
943.425	136.66
943.594	120.58
943.763	36.49
943.933	59.74
944.102	38.23
944.271	92.29
944.441	147.31
944.61	87.06
944.779	104.69
944.948	208.54
945.117	70.39
945.287	104.69
945.456	48.7
945.625	99.07
945.794	131.43
945.963	82.02
946.132	122.9
946.301	54.51
946.47	149.25
946.639	44.43
946.808	74.46
946.977	127.55
947.146	168.43
947.315	86.48
947.484	114.96
947.653	90.54
947.822	91.32
947.991	81.05
948.16	193.81
948.329	152.35
948.498	94.61
948.666	96.94
948.835	136.46
949.004	67.49
949.173	74.27
949.341	121.74
949.51	129.88
949.679	148.86
949.847	111.47
950.016	194.01
950.185	163.01
950.353	83.57
950.522	96.74
950.69	171.72
950.859	104.3
951.028	155.84
951.196	116.51
951.365	92.29
951.533	88.99
951.701	133.94
951.87	145.96
952.038	54.51
952.207	96.55
952.375	173.27
952.543	99.26
952.712	126
952.88	91.71
953.048	171.34
953.217	127.55
953.385	84.34
953.553	164.56
953.721	88.22
953.89	111.08
954.058	29.13
954.226	76.79
954.394	109.92
954.562	79.69
954.73	67.29
954.898	110.31
955.067	145.76
955.235	107.21
955.403	141.11
955.571	175.02
955.739	119.8
955.907	69.62
956.075	67.29
956.243	76.98
956.41	125.61
956.578	57.61
956.746	26.03
956.914	86.86
957.082	115.93
957.25	123.09
957.418	84.34
957.585	90.35
957.753	177.73
957.921	67.29
958.089	99.26
958.256	104.11
958.424	127.36
958.592	119.03
958.759	45.98
958.927	148.47
959.095	99.07
959.262	95.58
959.43	114.57
959.597	73.11
959.765	95.78
959.932	85.89
960.1	161.46
960.267	100.81
960.435	99.07
960.602	164.36
960.77	76.59
960.937	53.73
961.104	122.32
961.272	60.51
961.439	75.24
961.606	148.86
961.774	162.81
961.941	83.38
962.108	136.85
962.275	115.54
962.443	152.35
962.61	119.61
962.777	200.98
962.944	159.71
963.111	126.58
963.278	115.15
963.446	118.83
963.613	92.29
963.78	112.83
963.947	139.18
964.114	138.01
964.281	213.38
964.448	133.56
964.615	107.01
964.782	139.76
964.949	138.21
965.116	152.16
965.282	161.46
965.449	112.83
965.616	80.28
965.783	161.65
965.95	130.26
966.117	77.56
966.283	116.51
966.45	125.03
966.617	154.29
966.784	144.6
966.95	163.01
967.117	174.63
967.284	86.28
967.45	97.33
967.617	176.57
967.784	140.73
967.95	206.02
968.117	125.81
968.283	171.72
968.45	239.15
968.616	143.05
968.783	174.24
968.949	147.7
969.116	203.69
969.282	127.74
969.449	145.96
969.615	135.69
969.781	88.8
969.948	117.28
970.114	90.16
970.28	195.75
970.447	123.87
970.613	196.14
970.779	135.11
970.945	137.04
971.112	147.51
971.278	125.23
971.444	146.73
971.61	155.64
971.776	119.8
971.942	155.84
972.108	160.29
972.275	121.93
972.441	168.04
972.607	190.32
972.773	122.71
972.939	134.53
973.105	125.03
973.271	91.32
973.437	132.01
973.602	95.39
973.768	147.89
973.934	102.75
974.1	142.28
974.266	60.71
974.432	144.41
974.598	127.94
974.763	178.12
974.929	121.54
975.095	189.94
975.261	95.78
975.426	95.39
975.592	142.47
975.758	186.84
975.923	56.06
976.089	96.36
976.255	149.83
976.42	137.24
976.586	130.07
976.751	117.67
976.917	229.07
977.082	146.34
977.248	69.62
977.413	55.86
977.579	94.42
977.744	112.83
977.91	62.06
978.075	104.88
978.24	131.43
978.406	128.71
978.571	98.49
978.736	102.36
978.902	131.23
979.067	58.38
979.232	43.66
979.397	116.7
979.563	157.97
979.728	58.96
979.893	119.22
980.058	74.66
980.223	153.12
980.388	104.69
980.554	92.29
980.719	90.35
980.884	122.13
981.049	161.26
981.214	105.08
981.379	121.16
981.544	99.26
981.709	91.9
981.874	98.88
982.039	115.93
982.204	152.16
982.368	121.35
982.533	94.03
982.698	145.18
982.863	142.08
983.028	94.81
983.193	138.79
983.357	115.34
983.522	116.12
983.687	90.35
983.852	75.63
984.016	105.27
984.181	108.76
984.346	131.81
984.51	149.64
984.675	114.38
984.839	148.86
985.004	124.26
985.168	139.95
985.333	124.06
985.498	124.26
985.662	155.84
985.827	131.23
985.991	98.49
986.155	105.66
986.32	127.94
986.484	136.66
986.649	138.79
986.813	64.97
986.977	121.35
987.142	141.11
987.306	65.94
987.47	85.89
987.634	105.46
987.799	132.01
987.963	114.38
988.127	149.06
988.291	176.96
988.455	106.63
988.62	90.93
988.784	137.24
988.948	122.51
989.112	62.84
989.276	132.2
989.44	86.67
989.604	73.49
989.768	80.86
989.932	178.51
990.096	87.44
990.26	58.38
990.424	40.95
990.588	78.53
990.752	169.4
990.915	137.82
991.079	92.48
991.243	58.58
991.407	130.46
991.571	87.83
991.734	113.79
991.898	117.86
992.062	165.14
992.226	92.29
992.389	72.33
992.553	32.23
992.717	77.37
992.88	102.36
993.044	74.27
993.207	103.72
993.371	136.27
993.535	131.04
993.698	91.9
993.862	115.93
994.025	155.06
994.189	91.13
994.352	96.74
994.515	74.08
994.679	100.81
994.842	56.64
995.006	139.56
995.169	35.71
995.332	73.11
995.496	156.42
995.659	20.8
995.822	66.52
995.985	79.31
996.149	110.5
996.312	105.66
996.475	147.12
996.638	66.13
996.801	125.61
996.964	141.31
997.128	78.14
997.291	68.46
997.454	106.43
997.617	29.9
997.78	119.41
997.943	67.68
998.106	120.96
998.269	36.49
998.432	81.63
998.595	74.46
998.758	30.29
998.92	49.08
999.083	16.92
999.246	63.42
999.409	31.84
999.572	0.84
999.735	57.22
999.897	91.51
1000.06	53.93
1000.223	25.83
1000.386	92.87
1000.548	85.31
1000.711	81.05
1000.874	83.57
1001.036	42.3
1001.199	104.88
1001.361	23.51
1001.524	76.01
1001.687	95.39
1001.849	39.98
1002.012	72.53
1002.174	60.51
1002.337	58.96
1002.499	57.8
1002.661	83.18
1002.824	21.18
1002.986	18.86
1003.149	69.62
1003.311	55.09
1003.473	130.26
1003.636	28.35
1003.798	63.61
1003.96	103.72
1004.123	70.98
1004.285	0.26
1004.447	71.36
1004.609	56.64
1004.771	125.42
1004.933	17.89
1005.096	18.28
1005.258	-9.82
1005.42	52.96
1005.582	86.48
1005.744	49.66
1005.906	1.23
1006.068	87.25
1006.23	2.97
1006.392	10.72
1006.554	10.33
1006.716	101.98
1006.878	82.79
1007.04	6.46
1007.202	37.85
1007.363	56.64
1007.525	74.66
1007.687	82.21
1007.849	109.14
1008.011	6.85
1008.172	20.21
1008.334	34.94
1008.496	76.79
1008.658	-23.96
1008.819	42.3
1008.981	-14.47
1009.143	0.06
1009.304	59.54
1009.466	85.51
1009.627	112.05
1009.789	130.07
1009.95	63.03
1010.112	26.61
1010.273	59.16
1010.435	28.35
1010.596	25.25
1010.758	23.12
1010.919	69.23
1011.081	8.98
1011.242	47.92
1011.403	80.86
1011.565	42.3
1011.726	77.18
1011.887	14.21
1012.049	21.96
1012.21	72.14
1012.371	89.19
1012.532	-54.38
1012.693	27.96
1012.855	25.45
1013.016	39.2
1013.177	96.16
1013.338	50.05
1013.499	88.03
1013.66	86.67
1013.821	81.83
1013.982	52.96
1014.143	66.13
1014.304	32.23
1014.465	52.96
1014.626	57.8
1014.787	22.93
1014.948	113.99
1015.109	-15.82
1015.27	101.01
1015.431	37.26
1015.592	16.92
1015.752	86.09
1015.913	14.98
1016.074	69.43
1016.235	54.31
1016.395	36.3
1016.556	31.26
1016.717	52.76
1016.877	60.71
1017.038	-15.05
1017.199	32.42
1017.359	45.4
1017.52	27.77
1017.681	21.76
1017.841	18.66
1018.002	22.54
1018.162	37.07
1018.323	88.41
1018.483	7.62
1018.644	17.89
1018.804	-5.55
1018.964	-0.71
1019.125	-4
1019.285	28.93
1019.446	-14.08
1019.606	-13.69
1019.766	-29
1019.926	46.95
1020.087	35.13
1020.247	-11.56
1020.407	29.9
1020.567	64.97
1020.728	17.7
1020.888	-16.02
1021.048	0.26
1021.208	-7.49
1021.368	-1.1
1021.528	54.9
1021.688	60.71
1021.848	41.91
1022.008	35.13
1022.168	19.63
1022.328	30.48
1022.488	10.72
1022.648	11.88
1022.808	20.6
1022.968	46.37
1023.128	5.88
1023.288	10.72
1023.448	34.75
1023.608	51.6
1023.767	24.09
1023.927	-12.72
1024.087	-23.57
1024.247	-32.68
1024.406	-10.98
1024.566	-41.78
1024.726	-11.17
1024.885	46.37
1025.045	44.24
1025.205	15.56
1025.364	23.7
1025.524	55.86
1025.683	0.84
1025.843	19.25
1026.003	24.86
1026.162	90.74
1026.321	27.77
1026.481	31.06
1026.64	25.45
1026.8	23.12
1026.959	30.68
1027.119	29.51
1027.278	-21.83
1027.437	-5.17
1027.597	19.05
1027.756	29.32
1027.915	44.05
1028.074	37.26
1028.234	2.2
1028.393	5.1
1028.552	25.25
1028.711	-58.83
1028.87	57.61
1029.03	-33.65
1029.189	8.59
1029.348	-51.28
1029.507	-17.76
1029.666	-6.91
1029.825	-31.71
1029.984	-14.66
1030.143	30.87
1030.302	1.61
1030.461	-48.37
1030.62	29.71
1030.779	34.16
1030.938	-17.18
1031.097	-11.17
1031.255	36.49
1031.414	85.7
1031.573	45.4
1031.732	-49.92
1031.891	-5.17
1032.049	56.64
1032.208	35.52
1032.367	-24.54
1032.525	-16.6
1032.684	10.14
1032.843	1.23
1033.001	-58.06
1033.16	179.09
1033.319	44.82
1033.477	44.24
1033.636	18.08
1033.794	-25.9
1033.953	48.5
1034.111	45.79
1034.27	-23.96
1034.428	23.51
1034.587	-23.77
1034.745	22.54
1034.903	-7.49
1035.062	33
1035.22	-14.66
1035.378	35.52
1035.537	-25.9
1035.695	35.91
1035.853	-0.32
1036.011	32.61
1036.17	10.72
1036.328	-35.78
1036.486	14.79
1036.644	25.25
1036.802	-66.39
1036.96	-4.2
1037.119	-20.28
1037.277	-16.4
1037.435	-38.3
1037.593	-25.7
1037.751	10.14
1037.909	32.42
1038.067	32.42
