Data from gum_old_FLMT105791__169__15-47-56-249.txt Node

Date: Mon Mar 20 15:47:56 GMT 2023
User: antho
Spectrometer: FLMT10579
Trigger mode: 0
Integration Time (sec): 1.000000E-1
Scans to average: 10
Electric dark correction enabled: true
Nonlinearity correction enabled: false
Boxcar width: 0
XAxis mode: Wavelengths
Number of Pixels in Spectrum: 3648
>>>>>Begin Spectral Data<<<<<
345.248	-173.11
345.464	-173.11
345.681	-173.11
345.898	-208.38
346.114	-187.84
346.331	-47.95
346.548	40.2
346.764	13.66
346.981	-5.33
347.197	-31.1
347.414	21.6
347.631	-17.73
347.847	65.58
348.064	16.95
348.28	16.37
348.497	-52.02
348.713	-20.25
348.93	33.42
349.146	1.45
349.363	9.98
349.579	37.1
349.796	15.4
350.012	20.05
350.229	78.95
350.445	18.89
350.661	-9.78
350.878	19.47
351.094	32.65
351.311	26.64
351.527	44.66
351.743	-14.63
351.96	41.95
352.176	65.78
352.392	67.91
352.609	47.56
352.825	-10.75
353.041	26.06
353.257	11.14
353.474	24.9
353.69	33.81
353.906	27.22
354.122	-17.73
354.339	65.78
354.555	22.96
354.771	8.62
354.987	87.67
355.203	69.07
355.42	31.48
355.636	0.29
355.852	-3.58
356.068	21.02
356.284	-12.3
356.5	78.76
356.716	17.73
356.932	27.8
357.148	60.16
357.364	13.47
357.58	67.33
357.796	65.58
358.012	51.63
358.228	40.01
358.444	-39.04
358.66	81.28
358.876	59
359.092	-15.98
359.308	64.42
359.524	45.43
359.74	29.74
359.956	31.87
360.172	5.52
360.388	65
360.604	-7.46
360.819	117.51
361.035	47.56
361.251	45.63
361.467	37.49
361.683	53.38
361.898	50.47
362.114	58.22
362.33	45.05
362.546	67.13
362.762	11.92
362.977	39.04
363.193	-6.1
363.409	69.26
363.624	15.6
363.84	2.62
364.056	8.43
364.271	62.1
364.487	48.15
364.703	33.42
364.918	22.96
365.134	34.58
365.35	46.4
365.565	128.75
365.781	59.77
365.996	65.58
366.212	104.14
366.427	38.85
366.643	31.29
366.858	52.21
367.074	14.63
367.289	109.76
367.505	155.68
367.72	18.5
367.936	23.35
368.151	78.76
368.367	71.2
368.582	51.05
368.798	40.4
369.013	112.86
369.228	59.19
369.444	54.54
369.659	110.53
369.874	62.87
370.09	129.33
370.305	-0.68
370.52	49.7
370.736	95.61
370.951	64.23
371.166	117.51
371.381	133.2
371.597	94.26
371.812	46.01
372.027	26.25
372.242	69.07
372.458	136.49
372.673	46.98
372.888	34
373.103	72.56
373.318	157.61
373.533	67.13
373.749	66.94
373.964	45.05
374.179	121.19
374.394	30.71
374.609	99.49
374.824	6.3
375.039	94.65
375.254	41.95
375.469	107.82
375.684	75.46
375.899	91.93
376.114	56.67
376.329	73.91
376.544	68.88
376.759	68.3
376.974	22.96
377.189	40.98
377.404	70.04
377.619	98.71
377.834	0.87
378.049	36.33
378.264	47.95
378.478	88.64
378.693	60.74
378.908	98.71
379.123	52.21
379.338	127.78
379.553	80.89
379.767	81.86
379.982	85.15
380.197	103.56
380.412	54.15
380.626	75.66
380.841	169.82
381.056	87.67
381.271	164.59
381.485	48.92
381.7	52.21
381.915	103.95
382.129	61.9
382.344	65.39
382.559	90.19
382.773	133.01
382.988	19.08
383.202	76.24
383.417	19.47
383.632	152.77
383.846	46.6
384.061	78.76
384.275	38.07
384.49	77.79
384.704	99.68
384.919	80.5
385.133	87.09
385.348	115.76
385.562	49.31
385.777	118.48
385.991	94.45
386.206	70.23
386.42	61.51
386.634	128.94
386.849	108.01
387.063	93.87
387.277	54.15
387.492	77.01
387.706	48.73
387.92	64.03
388.135	129.52
388.349	109.37
388.563	101.81
388.778	133.01
388.992	103.17
389.206	131.26
389.42	165.17
389.635	92.9
389.849	117.9
390.063	152.58
390.277	132.43
390.491	174.86
390.706	124.48
390.92	134.94
391.134	126.42
391.348	151.22
391.562	61.51
391.776	91.35
391.99	99.68
392.205	182.22
392.419	111.11
392.633	107.63
392.847	173.11
393.061	82.44
393.275	167.69
393.489	108.21
393.703	95.81
393.917	122.16
394.131	72.95
394.345	111.11
394.559	133.59
394.773	88.25
394.986	109.37
395.2	107.82
395.414	166.53
395.628	107.24
395.842	167.11
396.056	134.56
396.27	68.49
396.484	159.55
396.697	138.82
396.911	166.53
397.125	107.82
397.339	138.24
397.553	113.44
397.766	189.58
397.98	169.43
398.194	188.61
398.408	139.79
398.621	196.75
398.835	217.87
399.049	178.54
399.262	207.99
399.476	233.56
399.69	211.86
399.903	261.46
400.117	209.34
400.331	221.94
400.544	191.52
400.758	318.04
400.971	244.22
401.185	285.49
401.398	162.46
401.612	255.46
401.826	259.91
402.039	257.2
402.253	196.94
402.466	270.96
402.68	228.91
402.893	242.28
403.106	251
403.32	217.29
403.533	258.75
403.747	230.66
403.96	226.39
404.174	252.94
404.387	205.47
404.6	252.36
404.814	274.25
405.027	232.21
405.24	242.86
405.454	258.36
405.667	276.19
405.88	183.19
406.094	245.57
406.307	282.19
406.52	257.78
406.733	206.05
406.947	213.22
407.16	305.64
407.373	288.39
407.586	213.61
407.799	203.34
408.012	289.94
408.226	278.12
408.439	321.91
408.652	209.54
408.865	287.62
409.078	310.48
409.291	307.38
409.504	232.21
409.717	308.54
409.93	312.61
410.143	251.19
410.357	206.44
410.57	206.63
410.783	248.87
410.996	261.46
411.209	275.02
411.421	331.4
411.634	295.37
411.847	261.07
412.06	301.37
412.273	296.14
412.486	301.96
412.699	399.22
412.912	321.14
413.125	328.3
413.338	318.04
413.55	329.66
413.763	303.31
413.976	328.5
414.189	289.17
414.402	298.47
414.615	359.11
414.827	286.84
415.04	349.04
415.253	320.75
415.466	365.12
415.678	368.6
415.891	314.94
416.104	339.54
416.316	316.1
416.529	296.14
416.742	331.99
416.954	365.5
417.167	339.35
417.38	307.19
417.592	359.89
417.805	306.22
418.017	262.24
418.23	342.64
418.442	307.57
418.655	329.47
418.868	326.17
419.08	381.59
419.293	367.44
419.505	378.29
419.718	341.67
419.93	405.8
420.142	326.75
420.355	421.88
420.567	403.09
420.78	365.5
420.992	343.61
421.205	411.03
421.417	307.96
421.629	333.92
421.842	317.65
422.054	323.65
422.266	385.46
422.479	405.61
422.691	353.88
422.903	393.98
423.115	319.97
423.328	356.79
423.54	328.5
423.752	344.19
423.964	348.45
424.177	395.53
424.389	357.75
424.601	492.6
424.813	389.14
425.025	429.83
425.238	404.25
425.45	368.22
425.662	357.75
425.874	692.74
426.086	378.1
426.298	401.54
426.51	418.59
426.722	369.57
426.934	386.04
427.146	439.13
427.358	324.43
427.57	406.58
427.782	381.78
427.994	352.52
428.206	348.07
428.418	354.46
428.63	423.43
428.842	432.54
429.054	378.29
429.266	408.13
429.478	331.99
429.69	375.97
429.902	307.77
430.114	382.55
430.325	374.8
430.537	350.59
430.749	328.5
430.961	232.59
431.173	296.34
431.384	341.87
431.596	253.52
431.808	350.78
432.02	396.31
432.231	463.93
432.443	503.45
432.655	440.48
432.867	406.19
433.078	438.55
433.29	508.88
433.502	492.21
433.713	484.27
433.925	456.76
434.136	483.88
434.348	405.8
434.56	351.94
434.771	518.37
434.983	375.97
435.194	413.75
435.406	459.08
435.617	503.45
435.829	541.04
436.04	467.22
436.252	510.43
436.463	540.85
436.675	534.65
436.886	529.8
437.098	513.14
437.309	572.04
437.521	497.25
437.732	527.28
437.943	494.35
438.155	505.78
438.366	418.98
438.578	558.67
438.789	470.32
439	523.8
439.211	470.32
439.423	503.06
439.634	553.05
439.845	538.91
440.057	550.73
440.268	593.74
440.479	499
440.69	556.93
440.902	525.15
441.113	522.63
441.324	502.29
441.535	563.51
441.746	608.27
441.957	508.68
442.168	577.08
442.38	603.62
442.591	612.92
442.802	541.04
443.013	575.72
443.224	606.14
443.435	562.16
443.646	564.48
443.857	556.54
444.068	532.32
444.279	548.98
444.49	667.36
444.701	570.49
444.912	749.9
445.123	649.93
445.334	647.6
445.545	647.6
445.756	614.66
445.967	588.31
446.178	603.81
446.388	625.13
446.599	636.56
446.81	622.03
447.021	587.93
447.232	655.35
447.443	676.27
447.653	635.2
447.864	666.78
448.075	650.12
448.286	687.12
448.496	681.7
448.707	705.34
448.918	627.06
449.129	739.05
449.339	621.83
449.55	672.59
449.761	650.31
449.971	689.06
450.182	664.65
450.393	702.62
450.603	640.24
450.814	702.62
451.024	681.31
451.235	746.6
451.446	760.75
451.656	765.79
451.867	671.82
452.077	724.71
452.288	755.32
452.498	724.52
452.709	673.76
452.919	715.02
453.13	644.31
453.34	678.41
453.55	647.99
453.761	710.76
453.971	702.43
454.182	691.58
454.392	691.39
454.602	773.34
454.813	729.17
455.023	744.47
455.233	685.57
455.444	710.76
455.654	607.3
455.864	674.92
456.075	686.74
456.285	667.75
456.495	668.91
456.705	719.67
456.916	760.75
457.126	769.27
457.336	729.56
457.546	665.42
457.756	693.32
457.967	802.21
458.177	733.24
458.387	734.21
458.597	710.76
458.807	751.64
459.017	717.74
459.227	716.19
459.437	704.95
459.647	770.44
459.857	753.19
460.068	709.79
460.278	769.66
460.488	759
460.698	807.64
460.908	746.41
461.117	707.08
461.327	711.92
461.537	766.95
461.747	802.21
461.957	764.82
462.167	902.96
462.377	821.97
462.587	782.25
462.797	827.79
463.007	793.88
463.216	822.36
463.426	858.98
463.636	816.35
463.846	737.5
464.056	772.57
464.265	811.12
464.475	748.54
464.685	809.38
464.895	823.14
465.104	800.27
465.314	841.15
465.524	768.5
465.733	772.76
465.943	871.57
466.153	895.6
466.362	867.12
466.572	847.35
466.782	796.79
466.991	806.47
467.201	884.36
467.41	730.91
467.62	834.95
467.829	808.6
468.039	841.54
468.249	802.99
468.458	834.76
468.668	878.16
468.877	877.97
469.086	922.53
469.296	912.65
469.505	868.08
469.715	955.08
469.924	890.95
470.134	929.7
470.343	904.51
470.552	880.68
470.762	848.71
470.971	854.72
471.18	889.2
471.39	877.77
471.599	864.79
471.808	912.07
472.018	893.66
472.227	935.7
472.436	997.31
472.645	921.36
472.855	929.5
473.064	1020.95
473.273	971.35
473.482	988.79
473.691	1023.28
473.901	1001.77
474.11	934.54
474.319	1088.96
474.528	992.47
474.737	1086.24
474.946	1034.13
475.155	1032.96
475.364	1075.78
475.573	1050.79
475.783	1053.69
475.992	1087.02
476.201	1074.23
476.41	1059.12
476.619	1021.92
476.828	1054.86
477.037	1032.77
477.245	1064.74
477.454	1091.67
477.663	1085.08
477.872	1080.04
478.081	1192.03
478.29	1072.29
478.499	1184.09
478.708	1153.67
478.917	1197.65
479.125	1133.91
479.334	1162
479.543	1145.34
479.752	1192.61
479.961	1170.33
480.169	1232.33
480.378	1159.67
480.587	1320.29
480.796	1264.3
481.004	1230
481.213	1259.84
481.422	1222.64
481.63	1247.83
481.839	1272.05
482.048	1306.34
482.256	1281.15
482.465	1322.42
482.674	1302.47
482.882	1322.23
483.091	1381.32
483.299	1302.47
483.508	1342.57
483.716	1320.87
483.925	1368.92
484.134	1268.75
484.342	1319.32
484.551	1339.47
484.759	1331.33
484.967	1374.54
485.176	1357.88
485.384	1361.17
485.593	1385.58
485.801	1338.5
486.01	1310.02
486.218	1261
486.426	1146.11
486.635	1182.34
486.843	1150.18
487.051	1207.92
487.26	1201.72
487.468	1280.38
487.676	1298.98
487.885	1284.25
488.093	1357.3
488.301	1356.71
488.509	1348.38
488.717	1403.8
488.926	1421.04
489.134	1386.55
489.342	1394.11
489.55	1344.12
489.758	1406.12
489.967	1421.04
490.175	1521.59
490.383	1479.94
490.591	1536.9
490.799	1456.49
491.007	1533.22
491.215	1502.22
491.423	1478.39
491.631	1495.63
491.839	1508.23
492.047	1524.89
492.255	1428.79
492.463	1432.28
492.671	1442.16
492.879	1509.78
493.087	1509.97
493.295	1486.14
493.503	1572.16
493.711	1593.67
493.919	1556.27
494.127	1607.23
494.334	1570.03
494.542	1521.59
494.75	1607.81
494.958	1576.62
495.166	1648.5
495.374	1605.49
495.581	1671.94
495.789	1640.55
495.997	1691.32
496.205	1620.21
496.412	1594.83
496.62	1600.84
496.828	1645.98
497.035	1634.16
497.243	1687.44
497.451	1700.04
497.658	1677.37
497.866	1640.94
498.074	1747.7
498.281	1646.17
498.489	1743.82
498.696	1634.35
498.904	1591.54
499.112	1629.32
499.319	1678.14
499.527	1672.91
499.734	1731.62
499.942	1633.39
500.149	1638.81
500.357	1708.37
500.564	1623.5
500.771	1654.5
500.979	1592.7
501.186	1610.72
501.394	1670.39
501.601	1625.05
501.808	1669.23
502.016	1643.27
502.223	1648.69
502.43	1686.86
502.638	1601.61
502.845	1651.02
503.052	1733.94
503.26	1666.9
503.467	1777.15
503.674	1748.67
503.881	1744.98
504.089	1805.82
504.296	1744.6
504.503	1668.07
504.71	1666.32
504.917	1678.72
505.125	1708.75
505.332	1745.95
505.539	1754.48
505.746	1819.38
505.953	1823.65
506.16	1783.15
506.367	1853.1
506.574	1858.91
506.781	1885.26
506.988	1769.59
507.195	1847.48
507.402	1782.18
507.609	1837.4
507.816	1766.49
508.023	1791.68
508.23	1765.52
508.437	1750.22
508.644	1801.56
508.851	1835.08
509.058	1843.6
509.265	1839.92
509.472	1833.33
509.679	1920.91
509.885	1856.78
510.092	1863.75
510.299	1837.79
510.506	1828.88
510.713	1852.71
510.92	1812.41
511.126	1907.73
511.333	1914.9
511.54	1876.15
511.746	1939.7
511.953	1938.34
512.16	1948.81
512.367	1901.53
512.573	1900.95
512.78	1908.7
512.987	1908.12
513.193	1887.78
513.4	1801.75
513.606	1867.43
513.813	1914.32
514.02	1882.74
514.226	1952.88
514.433	1935.83
514.639	1817.64
514.846	1890.88
515.052	1843.02
515.259	1919.55
515.465	1910.25
515.672	1922.26
515.878	1990.07
516.085	1938.93
516.291	1951.71
516.497	1906.76
516.704	1902.89
516.91	1876.93
517.117	1768.04
517.323	1728.13
517.529	1749.25
517.736	1721.35
517.942	1730.65
518.148	1757.77
518.354	1849.8
518.561	1846.51
518.767	1818.8
518.973	1856.78
519.179	1869.76
519.386	1862.01
519.592	1856
519.798	1887.19
520.004	2008.87
520.21	1933.11
520.417	2031.73
520.623	2023.21
520.829	2043.36
521.035	2036.38
521.241	2059.24
521.447	2077.84
521.653	2194.09
521.859	2081.72
522.065	2091.99
522.271	2203.58
522.477	2128.8
522.683	2168.52
522.889	2160.96
523.095	2130.93
523.301	2111.75
523.507	2056.53
523.713	2119.3
523.919	2071.84
524.125	2204.94
524.331	2141.39
524.537	2263.06
524.742	2268.1
524.948	2292.9
525.154	2292.51
525.36	2324.48
525.566	2222.38
525.772	2339.79
525.977	2193.7
526.183	2249.89
526.389	2333.59
526.595	2203.58
526.8	2218.7
527.006	2138.87
527.212	2059.82
527.417	2047.23
527.623	2029.99
527.829	2145.85
528.034	2166.38
528.24	2215.79
528.446	2195.25
528.651	2321.19
528.857	2295.61
529.062	2355.48
529.268	2351.8
529.473	2352.58
529.679	2401.4
529.884	2475.22
530.09	2443.64
530.295	2421.55
530.501	2447.32
530.706	2452.55
530.912	2363.81
531.117	2413.99
531.323	2425.62
531.528	2502.34
531.733	2511.84
531.939	2446.54
532.144	2479.29
532.35	2502.54
532.555	2493.82
532.76	2492.65
532.966	2436.86
533.171	2395.39
533.376	2327.39
533.581	2307.43
533.787	2383.58
533.992	2429.69
534.197	2457.78
534.402	2470.57
534.607	2459.14
534.813	2569.57
535.018	2455.26
535.223	2481.22
535.428	2485.87
535.633	2555.62
535.838	2531.79
536.043	2588.37
536.249	2657.34
536.454	2534.7
536.659	2605.03
536.864	2556.4
537.069	2548.26
537.274	2570.54
537.479	2504.67
537.684	2551.75
537.889	2436.86
538.094	2614.52
538.299	2573.25
538.504	2560.66
538.708	2590.88
538.913	2624.79
539.118	2595.15
539.323	2584.49
539.528	2561.63
539.733	2535.47
539.938	2566.47
540.142	2543.61
540.347	2527.92
540.552	2483.36
540.757	2510.09
540.962	2474.83
541.166	2442.86
541.371	2434.14
541.576	2480.45
541.781	2390.16
541.985	2532.95
542.19	2548.65
542.395	2609.48
542.599	2656.18
542.804	2616.27
543.008	2645.33
543.213	2537.02
543.418	2514.55
543.622	2590.11
543.827	2539.93
544.031	2664.51
544.236	2646.3
544.44	2626.34
544.645	2754.99
544.849	2623.24
545.054	2669.35
545.258	2747.63
545.463	2692.02
545.667	2616.65
545.872	2689.7
546.076	2673.61
546.281	2652.88
546.485	2638.16
546.689	2656.76
546.894	2691.63
547.098	2657.15
547.302	2579.07
547.507	2688.73
547.711	2651.53
547.915	2744.91
548.119	2606.97
548.324	2602.7
548.528	2707.52
548.732	2639.32
548.936	2718.37
549.141	2706.94
549.345	2624.79
549.549	2676.13
549.753	2710.23
549.957	2779.01
550.161	2762.54
550.366	2706.16
550.57	2636.8
550.774	2705.78
550.978	2683.88
551.182	2675.16
551.386	2659.08
551.59	2657.53
551.794	2665.86
551.998	2698.8
552.202	2669.74
552.406	2643.58
552.61	2725.73
552.814	2663.73
553.018	2730.58
553.222	2677.88
553.426	2670.9
553.63	2721.28
553.833	2734.84
554.037	2647.46
554.241	2729.03
554.445	2697.45
554.649	2678.85
554.853	2691.44
555.056	2725.35
555.26	2765.84
555.464	2729.8
555.668	2723.41
555.871	2729.41
556.075	2735.81
556.279	2672.26
556.483	2648.82
556.686	2658.89
556.89	2649.98
557.094	2718.95
557.297	2615.1
557.501	2660.83
557.704	2563.57
557.908	2641.07
558.112	2603.28
558.315	2700.55
558.519	2643
558.722	2618.01
558.926	2596.5
559.129	2487.42
559.333	2507.19
559.536	2481.61
559.74	2480.26
559.943	2511.84
560.147	2468.05
560.35	2495.95
560.553	2540.7
560.757	2464.17
560.96	2597.86
561.164	2519
561.367	2627.5
561.57	2561.05
561.774	2567.64
561.977	2521.52
562.18	2519.2
562.384	2599.8
562.587	2510.09
562.79	2516.68
562.993	2513
563.197	2582.75
563.4	2620.53
563.603	2622.85
563.806	2623.43
564.009	2526.37
564.212	2551.17
564.416	2446.35
564.619	2551.75
564.822	2446.93
565.025	2551.55
565.228	2497.5
565.431	2520.75
565.634	2392.1
565.837	2451.19
566.04	2437.82
566.243	2410.12
566.446	2290.38
566.649	2438.99
566.852	2339.01
567.055	2417.48
567.258	2425.62
567.461	2510.29
567.664	2490.33
567.867	2373.89
568.07	2420.58
568.273	2459.14
568.475	2515.71
568.678	2356.06
568.881	2387.84
569.084	2344.24
569.287	2276.24
569.489	2307.43
569.692	2368.85
569.895	2349.67
570.098	2280.31
570.3	2267.91
570.503	2212.69
570.706	2236.13
570.909	2243.69
571.111	2197.19
571.314	2204.75
571.516	2220.83
571.719	2234.2
571.922	2252.99
572.124	2235.16
572.327	2272.56
572.529	2182.66
572.732	2217.53
572.935	2288.64
573.137	2312.47
573.34	2238.65
573.542	2286.51
573.745	2264.23
573.947	2284.96
574.15	2197
574.352	2185.37
574.554	2316.15
574.757	2203.58
574.959	2192.73
575.162	2227.8
575.364	2171.81
575.566	2264.61
575.769	2160.38
575.971	2203.39
576.173	2066.02
576.376	2140.81
576.578	2179.37
576.78	2235.94
576.982	2072.22
577.185	2123.37
577.387	2083.46
577.589	2121.63
577.791	2154.37
577.993	2156.7
578.196	2084.24
578.398	2131.12
578.6	2190.99
578.802	2063.7
579.004	2050.14
579.206	2050.33
579.408	2118.14
579.61	2077.07
579.812	2130.54
580.014	2079.2
580.216	2044.52
580.418	2080.36
580.62	2048.59
580.822	2062.54
581.024	2104.97
581.226	2143.13
581.428	2047.62
581.63	2156.7
581.832	2053.62
582.034	2131.51
582.236	2096.05
582.438	2107.68
582.64	2173.36
582.841	2170.45
583.043	2221.8
583.245	2097.6
583.447	2119.3
583.649	2063.12
583.85	2114.85
584.052	2141.58
584.254	2075.52
584.456	2164.06
584.657	2041.42
584.859	2091.99
585.061	2058.85
585.262	2041.61
585.464	1976.12
585.666	2072.03
585.867	2037.35
586.069	2088.89
586.27	2019.72
586.472	2038.51
586.674	2017.97
586.875	2022.24
587.077	2017.01
587.278	2063.12
587.48	1978.06
587.681	2155.15
587.883	2044.91
588.084	1977.29
588.285	1985.42
588.487	1999.37
588.688	2018.17
588.89	1906.18
589.091	1850.58
589.292	1887
589.494	1814.54
589.695	1768.43
589.896	1717.47
590.098	1708.17
590.299	1768.23
590.5	1770.56
590.702	1788.77
590.903	1821.32
591.104	1919.74
591.305	1884.29
591.507	1930.01
591.708	1912.58
591.909	1872.47
592.11	1950.16
592.311	1936.79
592.512	1847.67
592.714	1797.68
592.915	1836.24
593.116	1877.31
593.317	1879.64
593.518	1907.34
593.719	1899.4
593.92	1916.06
594.121	1945.32
594.322	1922.65
594.523	1866.08
594.724	1854.45
594.925	1869.37
595.126	1910.44
595.327	1892.23
595.528	1833.33
595.729	1875.76
595.929	1865.69
596.13	1857.16
596.331	1902.5
596.532	1918.19
596.733	1937.38
596.934	1905.79
597.135	1908.31
597.335	1894.75
597.536	1871.11
597.737	1891.26
597.938	1860.65
598.138	1876.35
598.339	1868.98
598.54	1931.76
598.74	1871.7
598.941	1883.32
599.142	1951.33
599.342	1874.6
599.543	1840.89
599.744	1858.71
599.944	1838.37
600.145	1866.46
600.345	1880.8
600.546	1952.49
600.746	1946.87
600.947	1941.25
601.147	1885.26
601.348	1895.91
601.548	1842.05
601.749	1876.73
601.949	1796.71
602.15	1847.67
602.35	1834.5
602.551	1873.83
602.751	1797.88
602.951	1816.09
603.152	1732.2
603.352	1893.78
603.552	1830.81
603.753	1858.33
603.953	1856.39
604.153	1849.22
604.354	1824.23
604.554	1838.37
604.754	1869.37
604.954	1784.32
605.155	1866.08
605.355	1842.63
605.555	1874.99
605.755	1912.19
605.955	1855.42
606.155	1908.89
606.356	1817.83
606.556	1829.26
606.756	1835.66
606.956	1793.42
607.156	1897.85
607.356	1795.55
607.556	1813.38
607.756	1835.46
607.956	1898.04
608.156	1833.91
608.356	1803.3
608.556	1862.2
608.756	1802.33
608.956	1769.59
609.156	1779.86
609.356	1753.51
609.556	1719.22
609.755	1792.65
609.955	1717.86
610.155	1743.05
610.355	1758.93
610.555	1737.04
610.755	1749.44
610.954	1677.75
611.154	1748.47
611.354	1769.78
611.554	1721.35
611.753	1712.63
611.953	1700.62
612.153	1764.75
612.352	1716.5
612.552	1694.22
612.752	1619.44
612.951	1688.6
613.151	1688.99
613.351	1682.21
613.55	1714.57
613.75	1699.26
613.949	1698.49
614.149	1665.16
614.348	1646.17
614.548	1647.92
614.747	1612.46
614.947	1614.98
615.146	1572.36
615.346	1669.62
615.545	1691.7
615.745	1685.12
615.944	1664.58
616.144	1627.77
616.343	1672.33
616.542	1619.44
616.742	1618.66
616.941	1605.68
617.14	1558.99
617.34	1649.27
617.539	1583.59
617.738	1575.26
617.938	1690.35
618.137	1592.89
618.336	1580.69
618.535	1639.78
618.734	1620.21
618.934	1644.04
619.133	1605.49
619.332	1625.44
619.531	1564.02
619.73	1628.93
619.929	1713.98
620.128	1631.06
620.328	1668.65
620.527	1583.79
620.726	1594.64
620.925	1642.88
621.124	1602.58
621.323	1607.04
621.522	1559.76
621.721	1557.82
621.92	1556.66
622.119	1624.86
622.318	1570.22
622.517	1591.92
622.715	1568.29
622.914	1528.57
623.113	1555.31
623.312	1489.04
623.511	1561.12
623.71	1526.63
623.909	1532.44
624.107	1645.98
624.306	1496.41
624.505	1500.48
624.704	1496.79
624.902	1496.99
625.101	1553.56
625.3	1527.02
625.499	1484.78
625.697	1480.33
625.896	1499.12
626.095	1516.17
626.293	1456.3
626.492	1479.94
626.69	1521.01
626.889	1505.9
627.088	1503.19
627.286	1489.04
627.485	1485.56
627.683	1465.41
627.882	1491.56
628.08	1392.36
628.279	1462.5
628.477	1535.35
628.676	1419.49
628.874	1488.27
629.073	1423.75
629.271	1431.31
629.469	1496.99
629.668	1463.66
629.866	1418.13
630.065	1449.71
630.263	1481.88
630.461	1397.4
630.66	1453.98
630.858	1465.41
631.056	1521.98
631.254	1478.39
631.453	1410.58
631.651	1458.43
631.849	1423.95
632.047	1495.24
632.245	1444.09
632.444	1424.72
632.642	1464.24
632.84	1465.21
633.038	1409.41
633.236	1365.05
633.434	1413.29
633.632	1407.67
633.83	1408.83
634.028	1442.74
634.227	1398.95
634.425	1506.68
634.623	1419.88
634.821	1434.8
635.019	1431.11
635.216	1383.65
635.414	1455.72
635.612	1428.4
635.81	1432.08
636.008	1498.15
636.206	1420.46
636.404	1440.61
636.602	1388.49
636.8	1391.98
636.997	1441.96
637.195	1452.62
637.393	1412.71
637.591	1477.23
637.789	1424.14
637.986	1422.78
638.184	1421.43
638.382	1432.66
638.58	1450.68
638.777	1490.98
638.975	1442.74
639.173	1422.01
639.37	1415.23
639.568	1403.41
639.765	1410.19
639.963	1405.93
640.161	1426.46
640.358	1444.87
640.556	1333.27
640.753	1320.68
640.951	1324.55
641.148	1391.4
641.346	1353.42
641.543	1365.05
641.741	1400.31
641.938	1327.27
642.136	1356.52
642.333	1317.58
642.531	1386.55
642.728	1426.85
642.925	1363.3
643.123	1338.7
643.32	1376.09
643.517	1308.28
643.715	1348.38
643.912	1313.51
644.109	1326.68
644.306	1328.04
644.504	1343.73
644.701	1343.73
644.898	1334.43
645.095	1268.75
645.293	1312.35
645.49	1326.88
645.687	1329.78
645.884	1352.26
646.081	1233.1
646.278	1303.05
646.475	1248.22
646.672	1268.17
646.87	1319.9
647.067	1289.87
647.264	1303.24
647.461	1231.75
647.658	1221.48
647.855	1265.27
648.052	1260.23
648.249	1199.2
648.446	1240.27
648.642	1256.55
648.839	1186.99
649.036	1218.38
649.233	1173.24
649.43	1195.71
649.627	1153.67
649.824	1191.06
650.021	1164.71
650.217	1177.31
650.414	1175.76
650.611	1185.44
650.808	1229.81
651.004	1197.65
651.201	1217.8
651.398	1275.53
651.595	1211.99
651.791	1196.1
651.988	1252.67
652.185	1166.84
652.381	1227.1
652.578	1151.15
652.775	1213.92
652.971	1210.82
653.168	1188.35
653.364	1234.85
653.561	1130.81
653.757	1201.91
653.954	1200.94
654.15	1160.64
654.347	1273.79
654.543	1188.54
654.74	1108.52
654.936	1112.01
655.133	1170.14
655.329	1148.05
655.525	1135.65
655.722	1214.89
655.918	1098.64
656.115	1102.13
656.311	1046.72
656.507	1002.74
656.704	987.05
656.9	997.9
657.096	1024.44
657.292	995.57
657.489	1073.84
657.685	1099.03
657.881	1060.48
658.077	1071.91
658.273	1074.04
658.47	1155.22
658.666	1088.38
658.862	1151.34
659.058	1077.53
659.254	1161.61
659.45	1081.79
659.646	1131.19
659.842	1094.38
660.038	1161.22
660.234	1068.61
660.43	1103.49
660.626	1176.53
660.822	1175.17
661.018	1174.98
661.214	1132.74
661.41	1050.21
661.606	1145.14
661.802	1162.58
661.998	1127.51
662.194	1106.97
662.39	1130.03
662.586	1134.87
662.781	1145.34
662.977	1145.34
663.173	1147.27
663.369	1076.36
663.564	1134.68
663.76	1126.74
663.956	1095.35
664.152	1174.01
664.347	1055.63
664.543	1094.57
664.739	1050.01
664.934	1014.75
665.13	1045.94
665.326	1106.2
665.521	1100.58
665.717	1049.24
665.912	1059.12
666.108	1006.81
666.304	1075.2
666.499	1061.64
666.695	974.26
666.89	1064.16
667.086	1104.07
667.281	1117.05
667.477	1129.64
667.672	1069.97
667.867	1066.68
668.063	1083.14
668.258	1037.81
668.454	1049.63
668.649	1124.02
668.844	1051.76
669.04	1064.54
669.235	1041.88
669.43	1041.88
669.626	984.72
669.821	1008.16
670.016	957.4
670.211	1031.41
670.407	996.35
670.602	1080.04
670.797	1015.91
670.992	1077.33
671.187	1015.53
671.382	1081.79
671.578	1010.88
671.773	1038.58
671.968	958.37
672.163	1020.37
672.358	1033.93
672.553	982.4
672.748	1006.03
672.943	1070.94
673.138	1015.72
673.333	1054.66
673.528	982.01
673.723	1028.7
673.918	1025.79
674.113	970.38
674.308	1103.68
674.503	1034.13
674.698	1017.46
674.892	1071.33
675.087	1027.34
675.282	1040.91
675.477	986.85
675.672	1002.16
675.867	964.38
676.061	963.21
676.256	929.5
676.451	985.69
676.646	1001.38
676.84	971.16
677.035	966.9
677.23	948.88
677.424	1024.24
677.619	1044.2
677.814	1027.54
678.008	1021.73
678.203	929.89
678.397	968.83
678.592	986.46
678.787	1050.79
678.981	974.84
679.176	1009.71
679.37	990.73
679.565	950.04
679.759	992.08
679.954	1006.03
680.148	1030.64
680.342	1042.46
680.537	983.75
680.731	971.93
680.926	1008.55
681.12	996.93
681.314	935.7
681.509	927.56
681.703	982.4
681.897	1003.13
682.092	977.75
682.286	965.15
682.48	1035.09
682.674	993.44
682.869	966.51
683.063	1002.93
683.257	1051.18
683.451	959.92
683.645	1001
683.839	990.15
684.034	977.55
684.228	997.7
684.422	885.52
684.616	932.41
684.81	946.16
685.004	952.36
685.198	947.71
685.392	992.08
685.586	963.6
685.78	993.25
685.974	997.31
686.168	1006.03
686.362	1033.74
686.556	931.44
686.75	874.48
686.944	850.45
687.138	904.32
687.331	809.96
687.525	813.84
687.719	714.64
687.913	832.05
688.107	833.02
688.301	794.65
688.494	841.15
688.688	804.92
688.882	768.69
689.076	766.56
689.269	837.67
689.463	917.88
689.657	830.69
689.85	826.24
690.044	826.82
690.238	821
690.431	839.6
690.625	839.22
690.818	875.83
691.012	848.9
691.205	923.88
691.399	853.36
691.593	898.5
691.786	955.85
691.98	951.59
692.173	990.53
692.366	944.61
692.56	950.81
692.753	1006.23
692.947	920.98
693.14	988.6
693.333	988.79
693.527	923.3
693.72	982.78
693.914	941.9
694.107	932.99
694.3	985.5
694.493	942.1
694.687	968.25
694.88	940.16
695.073	1037.23
695.266	997.51
695.46	968.25
695.653	1028.89
695.846	1052.92
696.039	917.1
696.232	980.26
696.425	1038.39
696.618	1044.39
696.812	1045.94
697.005	1099.22
697.198	1178.47
697.391	1091.86
697.584	1121.89
697.777	1168.39
697.97	1150.18
698.163	1164.52
698.356	1123.44
698.549	1209.47
698.742	1164.71
698.935	1164.52
699.127	1168.01
699.32	1154.25
699.513	1194.55
699.706	1199.2
699.899	1222.84
700.092	1156.77
700.285	1196.68
700.477	1168.97
700.67	1213.15
700.863	1240.27
701.056	1309.25
701.248	1287.74
701.441	1294.33
701.634	1196.1
701.826	1362.72
702.019	1263.33
702.212	1323.2
702.404	1308.28
702.597	1272.24
702.79	1277.28
702.982	1354.97
703.175	1395.46
703.367	1360.98
703.56	1428.79
703.752	1504.16
703.945	1444.87
704.137	1440.8
704.33	1483.62
704.522	1466.18
704.715	1485.36
704.907	1533.22
705.1	1556.86
705.292	1567.51
705.484	1529.34
705.677	1582.43
705.869	1631.06
706.061	1675.43
706.254	1664.39
706.446	1641.91
706.638	1643.65
706.831	1692.67
707.023	1665.35
707.215	1795.94
707.407	1739.95
707.599	1725.61
707.792	1790.13
707.984	1787.8
708.176	1825.39
708.368	1764.75
708.56	1825.2
708.752	1813.57
708.944	1833.33
709.136	1865.11
709.329	1814.35
709.521	1965.08
709.713	1948.81
709.905	1943.77
710.097	2018.94
710.289	1968.18
710.481	2010.22
710.672	2013.13
710.864	2004.99
711.056	2091.4
711.248	2047.42
711.44	2066.99
711.632	2145.65
711.824	2114.07
712.016	2197.58
712.207	2183.05
712.399	2161.35
712.591	2237.3
712.783	2240.78
712.975	2236.91
713.166	2218.89
713.358	2233.61
713.55	2330.88
713.741	2281.28
713.933	2286.7
714.125	2303.75
714.316	2301.81
714.508	2418.45
714.7	2389.58
714.891	2393.65
715.083	2448.67
715.274	2410.51
715.466	2450.03
715.657	2464.95
715.849	2387.06
716.04	2451
716.232	2393.65
716.423	2460.11
716.615	2390.16
716.806	2390.74
716.998	2375.83
717.189	2321.58
717.381	2222.57
717.572	2186.53
717.763	2257.06
717.955	2207.65
718.146	2194.87
718.337	2127.05
718.528	2065.83
718.72	2008.87
718.911	2138.1
719.102	2025.14
719.293	2153.79
719.485	2091.79
719.676	2083.85
719.867	2055.37
720.058	2079.2
720.249	2145.46
720.44	2086.75
720.632	2150.11
720.823	2242.14
721.014	2307.05
721.205	2363.62
721.396	2438.6
721.587	2575.77
721.778	2592.63
721.969	2617.43
722.16	2695.31
722.351	2677.49
722.542	2830.16
722.733	2829.58
722.924	2767.19
723.115	2827.45
723.305	2812.14
723.496	2851.28
723.687	2672.84
723.878	2722.44
724.069	2727.67
724.26	2747.63
724.45	2635.83
724.641	2718.76
724.832	2727.28
725.023	2705.39
725.213	2681.36
725.404	2700.93
725.595	2700.55
725.785	2665.86
725.976	2783.08
726.167	2739.49
726.357	2792.19
726.548	2888.48
726.739	2781.53
726.929	2859.22
727.12	2924.71
727.31	2976.83
727.501	2902.82
727.691	2923.36
727.882	2923.74
728.072	2934.79
728.263	2953.19
728.453	3040.38
728.644	3026.23
728.834	3024.49
729.024	3013.45
729.215	2998.34
729.405	3075.06
729.596	3107.41
729.786	3125.05
729.976	3151.2
730.167	3148.1
730.357	3132.8
730.547	3136.09
730.737	3209.71
730.928	3235.87
731.118	3319.37
731.308	3231.22
731.498	3243.04
731.688	3345.92
731.879	3374.59
732.069	3378.27
732.259	3425.35
732.449	3386.02
732.639	3553.42
732.829	3535.6
733.019	3618.52
733.209	3689.63
733.399	3656.49
733.589	3739.22
733.779	3766.35
733.969	3739.03
734.159	3853.15
734.349	3852.18
734.539	3943.63
734.729	3903.72
734.919	3959.9
735.109	4072.66
735.299	3944.02
735.488	3949.63
735.678	3991.1
735.868	3985.28
736.058	4012.6
736.248	3956.8
736.437	3944.79
736.627	3913.6
736.817	4128.85
737.007	3959.32
737.196	4080.41
737.386	4055.42
737.576	4021.13
737.765	4098.43
737.955	4049.03
738.144	4216.81
738.334	4149.78
738.524	4080.99
738.713	4101.34
738.903	4115.09
739.092	4145.9
739.282	4149.39
739.471	4207.9
739.661	4163.92
739.85	4200.34
740.04	4205.38
740.229	4251.49
740.419	4262.34
740.608	4318.14
740.797	4228.63
740.987	4308.65
741.176	4282.1
741.365	4257.69
741.555	4201.51
741.744	4318.53
741.933	4246.07
742.123	4318.14
742.312	4363.67
742.501	4361.15
742.69	4365.42
742.88	4312.14
743.069	4397.97
743.258	4321.63
743.447	4420.63
743.636	4425.48
743.825	4380.14
744.014	4416.56
744.204	4431.68
744.393	4352.82
744.582	4452.02
744.771	4515.57
744.96	4453.18
745.149	4442.53
745.338	4417.92
745.527	4454.73
745.716	4497.94
745.905	4436.13
746.094	4483.8
746.283	4533.01
746.471	4455.31
746.66	4535.72
746.849	4526.03
747.038	4566.33
747.227	4479.53
747.416	4538.43
747.604	4421.02
747.793	4484.18
747.982	4505.11
748.171	4499.88
748.359	4527.58
748.548	4544.05
748.737	4482.44
748.926	4459.58
749.114	4387.31
749.303	4492.9
749.491	4414.82
749.68	4381.11
749.869	4529.91
750.057	4440.01
750.246	4457.45
750.434	4468.49
750.623	4441.36
750.811	4428.77
751	4505.88
751.188	4417.73
751.377	4483.41
751.565	4378.01
751.754	4398.16
751.942	4410.95
752.131	4431.87
752.319	4320.08
752.507	4374.13
752.696	4416.18
752.884	4480.31
753.072	4396.42
753.261	4429.74
753.449	4410.56
753.637	4338.29
753.825	4518.28
754.014	4442.14
754.202	4396.61
754.39	4467.13
754.578	4419.28
754.766	4375.1
754.955	4290.44
755.143	4498.33
755.331	4345.85
755.519	4396.22
755.707	4347.01
755.895	4320.08
756.083	4371.81
756.271	4326.08
756.459	4330.15
756.647	4367.55
756.835	4337.52
757.023	4296.44
757.211	4318.14
757.399	4286.56
757.587	4317.17
757.775	4295.86
757.963	4231.34
758.151	4313.88
758.339	4232.89
758.526	4220.3
758.714	4239.29
758.902	4151.13
759.09	4074.99
759.278	3903.72
759.465	3660.56
759.653	3298.84
759.841	3028.17
760.028	2643.78
760.216	2324.68
760.404	2208.04
760.591	1884.09
760.779	1644.62
760.967	1503.38
761.154	1307.12
761.342	1335.6
761.529	1346.45
761.717	1458.82
761.905	1456.88
762.092	1577.78
762.28	1547.94
762.467	1589.02
762.655	1515.39
762.842	1580.88
763.029	1598.9
763.217	1617.89
763.404	1600.84
763.592	1684.92
763.779	1626.8
763.966	1664.19
764.154	1709.33
764.341	1815.12
764.528	1759.13
764.716	1871.11
764.903	1945.71
765.09	2014.49
765.277	2008.09
765.465	2204.75
765.652	2309.95
765.839	2346.57
766.026	2495.56
766.213	2555.24
766.4	2647.46
766.588	2818.73
766.775	2877.63
766.962	2967.92
767.149	3016.93
767.336	3185.5
767.523	3109.93
767.71	3288.37
767.897	3395.71
768.084	3433.88
768.271	3443.76
768.458	3549.16
768.645	3614.26
768.832	3596.63
769.019	3598.37
769.206	3689.04
769.392	3721.01
769.579	3798.9
769.766	3726.44
769.953	3709.78
770.14	3797.74
770.327	3750.66
770.513	3817.89
770.7	3888.99
770.887	3775.07
771.073	3841.33
771.26	3815.17
771.447	3790.76
771.634	3764.41
771.82	3881.05
772.007	3750.85
772.193	3826.6
772.38	3854.12
772.567	3783.21
772.753	3826.8
772.94	3908.17
773.126	3882.02
773.313	3838.23
773.499	3848.3
773.686	3873.3
773.872	3731.86
774.059	3821.95
774.245	3699.89
774.432	3784.95
774.618	3684.39
774.804	3777.59
774.991	3720.82
775.177	3776.81
775.363	3708.23
775.55	3789.99
775.736	3694.66
775.922	3716.94
776.109	3716.94
776.295	3731.47
776.481	3703.58
776.667	3717.52
776.853	3644.29
777.04	3690.4
777.226	3704.93
777.412	3755.89
777.598	3638.09
777.784	3657.85
777.97	3567.56
778.156	3670.44
778.342	3714.04
778.528	3658.43
778.715	3560.4
778.901	3590.04
779.087	3620.65
779.272	3584.23
779.458	3561.56
779.644	3600.5
779.83	3535.6
780.016	3669.86
780.202	3566.4
780.388	3574.73
780.574	3484.25
780.76	3489.68
780.946	3560.4
781.131	3524.75
781.317	3536.18
781.503	3484.06
781.689	3511.57
781.874	3626.85
782.06	3467.4
782.246	3533.47
782.432	3441.44
782.617	3498.98
782.803	3577.45
782.989	3415.47
783.174	3466.04
783.36	3375.37
783.545	3475.73
783.731	3431.75
783.916	3344.76
784.102	3453.64
784.288	3387.19
784.473	3396.49
784.659	3353.47
784.844	3402.3
785.029	3310.07
785.215	3314.14
785.4	3310.46
785.586	3442.6
785.771	3312.79
785.956	3378.66
786.142	3329.06
786.327	3367.23
786.512	3316.08
786.698	3313.76
786.883	3216.88
787.068	3264.74
787.254	3279.85
787.439	3276.56
787.624	3239.74
787.809	3201.77
787.994	3225.6
788.18	3317.05
788.365	3166.31
788.55	3192.08
788.735	3217.66
788.92	3181.04
789.105	3183.36
789.29	3214.94
789.475	3129.11
789.66	3163.21
789.845	3141.71
790.03	3097.34
790.215	3219.79
790.4	3204.09
790.585	3178.13
790.77	3124.27
790.955	3043.87
791.14	3094.43
791.325	3167.67
791.51	3038.83
791.695	3086.3
791.879	3069.63
792.064	2998.72
792.249	3139.77
792.434	3104.51
792.618	3091.33
792.803	3144.03
792.988	3039.22
793.173	3109.16
793.357	3130.28
793.542	3021.39
793.727	3043.87
793.911	3086.49
794.096	3017.9
794.281	3077.19
794.465	3196.54
794.65	3081.26
794.834	3111.48
795.019	3149.07
795.203	3162.83
795.388	3106.64
795.572	3176
795.757	3120.98
795.941	3131.83
796.126	3111.1
796.31	3053.94
796.494	3092.69
796.679	3131.44
796.863	3036.12
797.048	3213.01
797.232	3112.06
797.416	3137.83
797.601	3136.86
797.785	3171.55
797.969	3176.39
798.153	3065.57
798.338	3162.44
798.522	3182.2
798.706	3194.02
798.89	3183.17
799.074	3261.44
799.258	3204.48
799.443	3218.82
799.627	3132.02
799.811	3261.25
799.995	3196.15
800.179	3114.97
800.363	3131.05
800.547	3162.44
800.731	3184.72
800.915	3119.81
801.099	3133.96
801.283	3141.51
801.467	3147.91
801.651	3133.18
801.835	3209.91
802.019	3190.14
802.202	3167.09
802.386	3152.17
802.57	3065.57
802.754	3118.07
802.938	3087.85
803.121	3132.02
803.305	3181.43
803.489	3102.38
803.673	3133.76
803.856	3150.23
804.04	3122.72
804.224	3167.48
804.407	3100.44
804.591	3115.55
804.775	3136.86
804.958	3105.86
805.142	3218.04
805.326	3080.1
805.509	3139.77
805.693	3141.51
805.876	3194.02
806.06	3148.1
806.243	3176.58
806.427	3177.16
806.61	3256.02
806.794	3110.32
806.977	3184.53
807.16	3161.47
807.344	3160.31
807.527	3151.01
807.71	3114.97
807.894	3104.9
808.077	3157.98
808.26	3100.05
808.444	3113.81
808.627	3149.46
808.81	3106.64
808.993	3017.9
809.177	3007.64
809.36	3049.48
809.543	3050.65
809.726	2930.52
809.909	2998.14
810.092	2996.4
810.276	2956.87
810.459	2994.46
810.642	2976.64
810.825	2927.62
811.008	2955.9
811.191	2847.79
811.374	2829.97
811.557	2880.92
811.74	2938.85
811.923	2836.56
812.106	2762.54
812.289	2810.01
812.472	2791.61
812.654	2844.31
812.837	2752.86
813.02	2756.93
813.203	2664.51
813.386	2611.62
813.569	2597.28
813.751	2490.52
813.934	2574.42
814.117	2538.96
814.3	2492.85
814.482	2441.51
814.665	2404.89
814.848	2364.01
815.03	2278.37
815.213	2314.02
815.396	2272.36
815.578	2256.67
815.761	2215.4
815.943	2296.39
816.126	2157.08
816.309	2173.75
816.491	2092.18
816.674	2019.33
816.856	2076.1
817.039	2048.2
817.221	2126.67
817.403	2103.22
817.586	2084.82
817.768	2133.25
817.951	2057.69
818.133	2039.67
818.315	2049.94
818.498	2076.68
818.68	2147.59
818.862	2112.91
819.045	2150.3
819.227	2123.37
819.409	2076.87
819.591	2137.9
819.774	2090.82
819.956	2049.94
820.138	2123.18
820.32	2117.56
820.502	2192.93
820.684	2213.27
820.866	2236.33
821.048	2340.76
821.231	2304.91
821.413	2296.39
821.595	2267.91
821.777	2310.73
821.959	2255.12
822.141	2368.66
822.323	2212.3
822.505	2156.5
822.686	2105.55
822.868	2038.51
823.05	1895.72
823.232	1879.25
823.414	1793.81
823.596	1872.86
823.778	1841.86
823.96	1896.69
824.141	1889.52
824.323	1902.69
824.505	1981.74
824.687	2054.79
824.868	2081.14
825.05	2236.52
825.232	2206.68
825.413	2245.63
825.595	2215.79
825.777	2154.57
825.958	2209.01
826.14	2205.33
826.321	2204.94
826.503	2214.82
826.685	2239.81
826.866	2245.05
827.048	2221.6
827.229	2201.07
827.411	2170.65
827.592	2087.14
827.773	2115.62
827.955	2053.62
828.136	2035.22
828.318	2010.42
828.499	2069.9
828.68	1969.92
828.862	2003.64
829.043	2053.62
829.224	1989.88
829.406	1992.79
829.587	1950.55
829.768	2003.64
829.949	2007.9
830.131	1987.17
830.312	2090.24
830.493	2022.82
830.674	2038.32
830.855	1978.84
831.036	1991.24
831.218	2051.11
831.399	2075.9
831.58	2012.74
831.761	1998.99
831.942	2054.98
832.123	1986.78
832.304	1967.99
832.485	1961.59
832.666	1972.64
832.847	2054.79
833.028	1999.96
833.209	2028.44
833.389	2006.16
833.57	1941.83
833.751	1952.88
833.932	2030.96
834.113	2010.22
834.294	1981.16
834.475	2031.54
834.655	2015.07
834.836	2033.09
835.017	2052.46
835.198	1991.82
835.378	2006.74
835.559	2073.39
835.74	1985.04
835.92	1987.56
836.101	1988.33
836.281	2044.91
836.462	2014.29
836.643	2087.72
836.823	2051.88
837.004	2077.45
837.184	2088.3
837.365	2054.4
837.545	2062.73
837.726	2012.74
837.906	2104.97
838.087	2062.92
838.267	2032.12
838.448	2007.9
838.628	2054.79
838.808	2025.53
838.989	2085.2
839.169	1994.53
839.349	2046.46
839.53	2050.33
839.71	2071.84
839.89	2010.22
840.07	2057.89
840.251	1988.91
840.431	2092.95
840.611	2023.4
840.791	1971.28
840.971	2038.71
841.151	2000.92
841.332	2002.09
841.512	2063.12
841.692	1929.82
841.872	2037.35
842.052	1983.87
842.232	2067.77
842.412	1937.38
842.592	1987.56
842.772	2033.28
842.952	1987.75
843.132	1957.53
843.312	1934.86
843.492	1965.47
843.672	2024.17
843.851	1913.35
844.031	1941.64
844.211	1949.19
844.391	1909.86
844.571	1922.84
844.751	1956.36
844.93	1963.53
845.11	1876.35
845.29	1923.43
845.47	1968.18
845.649	1928.08
845.829	1972.44
846.009	1911.8
846.188	1945.71
846.368	1920.52
846.547	1918
846.727	1959.27
846.907	1848.83
847.086	1920.33
847.266	1929.04
847.445	1908.7
847.625	1899.21
847.804	1861.04
847.984	1885.84
848.163	1876.54
848.343	1858.52
848.522	1896.69
848.701	1861.04
848.881	1885.84
849.06	1909.67
849.239	1892.62
849.419	1894.17
849.598	1760.29
849.777	1777.34
849.957	1790.13
850.136	1695.97
850.315	1691.51
850.494	1697.32
850.674	1717.86
850.853	1775.98
851.032	1763.97
851.211	1787.61
851.39	1763
851.569	1730.07
851.748	1721.54
851.927	1796.52
852.107	1756.03
852.286	1723.09
852.465	1706.23
852.644	1786.45
852.823	1735.1
853.002	1721.54
853.181	1759.9
853.359	1776.18
853.538	1692.87
853.717	1762.62
853.896	1634.74
854.075	1559.76
854.254	1545.62
854.433	1459.21
854.611	1531.28
854.79	1438.86
854.969	1518.3
855.148	1580.3
855.327	1508.42
855.505	1591.73
855.684	1541.36
855.863	1589.41
856.041	1524.5
856.22	1612.07
856.399	1566.35
856.577	1669.23
856.756	1651.6
856.934	1788.58
857.113	1779.28
857.291	1681.44
857.47	1648.5
857.648	1677.56
857.827	1714.37
858.005	1713.4
858.184	1634.55
858.362	1732.58
858.541	1657.6
858.719	1692.87
858.898	1654.5
859.076	1659.93
859.254	1731.62
859.433	1641.33
859.611	1598.32
859.789	1585.72
859.967	1672.72
860.146	1715.73
860.324	1594.06
860.502	1578.17
860.68	1543.1
860.859	1598.32
861.037	1601.22
861.215	1617.11
861.393	1601.03
861.571	1604.13
861.749	1594.64
861.927	1616.14
862.105	1601.22
862.283	1549.3
862.461	1560.92
862.639	1525.86
862.817	1530.12
862.995	1595.41
863.173	1547.36
863.351	1564.02
863.529	1563.64
863.707	1606.07
863.885	1585.72
864.063	1461.73
864.241	1513.46
864.418	1582.62
864.596	1517.72
864.774	1469.48
864.952	1525.47
865.129	1541.16
865.307	1521.79
865.485	1468.51
865.663	1542.32
865.84	1448.16
866.018	1451.07
866.196	1294.72
866.373	1376.67
866.551	1292.97
866.728	1219.35
866.906	1286.97
867.084	1345.28
867.261	1387.52
867.439	1388.88
867.616	1402.25
867.794	1383.06
867.971	1412.9
868.149	1396.24
868.326	1448.94
868.503	1453.39
868.681	1408.83
868.858	1375.12
869.035	1370.08
869.213	1450.88
869.39	1401.66
869.567	1495.05
869.745	1432.66
869.922	1429.56
870.099	1455.91
870.276	1446.81
870.454	1422.98
870.631	1463.47
870.808	1452.23
870.985	1443.13
871.162	1475.29
871.339	1419.88
871.517	1324.17
871.694	1362.72
871.871	1372.99
872.048	1339.08
872.225	1384.61
872.402	1403.8
872.579	1330.95
872.756	1409.22
872.933	1305.18
873.11	1362.72
873.287	1388.3
873.463	1350.71
873.64	1337.34
873.817	1399.34
873.994	1359.04
874.171	1298.78
874.348	1330.37
874.524	1279.8
874.701	1328.82
874.878	1250.93
875.055	1346.83
875.231	1323.97
875.408	1346.64
875.585	1260.04
875.762	1317.19
875.938	1288.32
876.115	1264.3
876.291	1279.41
876.468	1265.27
876.645	1262.75
876.821	1266.62
876.998	1272.63
877.174	1301.69
877.351	1262.75
877.527	1258.1
877.704	1280.57
877.88	1278.25
878.057	1252.29
878.233	1269.92
878.409	1224.77
878.586	1263.14
878.762	1242.4
878.938	1264.1
879.115	1191.06
879.291	1241.24
879.467	1183.12
879.644	1184.47
879.82	1262.36
879.996	1192.03
880.172	1177.11
880.349	1206.56
880.525	1193.58
880.701	1173.04
880.877	1141.66
881.053	1201.91
881.229	1172.66
881.405	1217.02
881.581	1149.21
881.757	1192.8
881.933	1176.53
882.109	1213.92
882.285	1195.9
882.461	1143.98
882.637	1197.84
882.813	1148.05
882.989	1192.42
883.165	1245.89
883.341	1128.87
883.517	1234.65
883.693	1194.16
883.869	1209.85
884.044	1149.02
884.22	1215.28
884.396	1232.33
884.572	1210.05
884.747	1258.49
884.923	1197.65
885.099	1215.67
885.275	1232.14
885.45	1200.94
885.626	1190.48
885.801	1148.05
885.977	1154.83
886.153	1136.23
886.328	1184.67
886.504	1147.27
886.679	1186.02
886.855	1133.13
887.03	1194.74
887.206	1225.16
887.381	1216.44
887.557	1184.86
887.732	1204.82
887.908	1188.54
888.083	1210.82
888.258	1159.87
888.434	1183.31
888.609	1160.84
888.784	1201.14
888.96	1164.32
889.135	1157.16
889.31	1150.76
889.485	1201.72
889.661	1140.88
889.836	1250.54
890.011	1179.24
890.186	1141.46
890.361	1106.59
890.537	1175.56
890.712	1185.05
890.887	1173.62
891.062	1180.4
891.237	1229.62
891.412	1130.61
891.587	1157.74
891.762	1227.68
891.937	1213.73
892.112	1141.27
892.287	1175.95
892.462	1118.02
892.637	1118.6
892.812	1120.73
892.987	1088.38
893.161	1069.97
893.336	1087.99
893.511	1102.52
893.686	1098.84
893.861	1064.16
894.035	1087.99
894.21	1074.43
894.385	1069.39
894.56	1117.82
894.734	999.06
894.909	993.05
895.084	1049.82
895.258	1032.77
895.433	1023.28
895.608	984.33
895.782	927.56
895.957	965.54
896.131	957.4
896.306	889.78
896.48	879.9
896.655	929.11
896.829	862.47
897.004	862.08
897.178	851.23
897.353	817.13
897.527	908.19
897.701	860.14
897.876	796.2
898.05	933.57
898.224	876.8
898.399	915.75
898.573	836.89
898.747	752.22
898.921	795.04
899.096	695.26
899.27	693.71
899.444	699.91
899.618	754.35
899.792	771.21
899.967	753.97
900.141	794.65
900.315	712.31
900.489	747.57
900.663	781.87
900.837	761.52
901.011	694.49
901.185	819.65
901.359	780.12
901.533	747.19
901.707	747.57
901.881	778.77
902.055	679.37
902.229	743.5
902.403	814.8
902.576	773.34
902.75	740.02
902.924	891.14
903.098	815
903.272	857.82
903.446	906.64
903.619	875.45
903.793	916.33
903.967	872.73
904.14	947.52
904.314	943.06
904.488	887.46
904.661	919.62
904.835	914.97
905.009	936.86
905.182	970.77
905.356	950.62
905.529	908.77
905.703	863.24
905.876	864.6
906.05	864.79
906.223	856.46
906.397	768.69
906.57	763.07
906.744	757.26
906.917	758.23
907.09	763.46
907.264	756.87
907.437	687.51
907.61	662.71
907.784	716.38
907.957	724.71
908.13	700.3
908.304	728.2
908.477	681.7
908.65	697.78
908.823	644.31
908.996	757.26
909.17	656.12
909.343	678.79
909.516	687.32
909.689	658.45
909.862	629.58
910.035	678.02
910.208	630.36
910.381	641.21
910.554	715.02
910.727	682.09
910.9	658.84
911.073	628.23
911.246	723.74
911.419	730.52
911.592	721.03
911.765	666.97
911.938	644.5
912.11	683.83
912.283	662.32
912.456	711.73
912.629	666.78
912.802	616.99
912.974	663.68
913.147	549.95
913.32	512.17
913.493	551.5
913.665	576.69
913.838	596.84
914.01	574.56
914.183	608.08
914.356	586.18
914.528	637.72
914.701	681.89
914.873	668.52
915.046	611.37
915.218	579.4
915.391	495.12
915.563	520.31
915.736	593.35
915.908	597.61
916.081	569.33
916.253	536.58
916.425	575.53
916.598	614.28
916.77	585.99
916.942	546.27
917.115	486.6
917.287	576.88
917.459	523.21
917.632	521.08
917.804	473.81
917.976	515.46
918.148	574.17
918.32	515.46
918.493	591.99
918.665	620.67
918.837	567.78
919.009	632.29
919.181	647.79
919.353	574.36
919.525	610.01
919.697	584.63
919.869	595.09
920.041	639.27
920.213	708.05
920.385	611.95
920.557	615.63
920.729	617.57
920.901	625.32
921.073	607.11
921.244	589.28
921.416	647.21
921.588	577.08
921.76	563.51
921.932	639.08
922.103	581.14
922.275	586.18
922.447	584.44
922.619	525.15
922.79	579.79
922.962	543.36
923.134	586.76
923.305	538.52
923.477	508.88
923.648	523.41
923.82	528.45
923.991	480.01
924.163	473.03
924.335	520.5
924.506	478.46
924.677	558.28
924.849	467.8
925.02	553.83
925.192	563.71
925.363	507.13
925.535	504.03
925.706	491.83
925.877	558.67
926.049	481.95
926.22	532.51
926.391	519.92
926.562	567.58
926.734	463.54
926.905	554.21
927.076	481.56
927.247	457.34
927.419	446.68
927.59	429.05
927.761	446.3
927.932	404.64
928.103	450.95
928.274	387.2
928.445	403.09
928.616	394.95
928.787	387.01
928.958	421.3
929.129	398.63
929.3	388.95
929.471	331.6
929.642	288.39
929.813	259.33
929.984	385.27
930.155	274.44
930.326	303.51
930.496	266.31
930.667	199.85
930.838	258.17
931.009	231.04
931.18	238.99
931.35	230.46
931.521	272.31
931.692	164.59
931.863	155.29
932.033	197.53
932.204	192.68
932.374	196.36
932.545	149.86
932.716	204.31
932.886	185.13
933.057	103.95
933.227	146.38
933.398	192.49
933.568	97.55
933.739	79.34
933.909	74.11
934.08	150.83
934.25	47.37
934.421	61.13
934.591	120.61
934.761	83.8
934.932	74.5
935.102	119.64
935.272	75.85
935.443	108.6
935.613	97.36
935.783	127.2
935.953	52.21
936.123	235.31
936.294	63.26
936.464	93.87
936.634	76.05
936.804	28.58
936.974	30.9
937.144	112.47
937.314	114.21
937.484	77.6
937.655	20.05
937.825	124.29
937.995	62.68
938.165	129.71
938.334	89.22
938.504	118.28
938.674	89.8
938.844	115.38
939.014	172.73
939.184	168.66
939.354	224.65
939.524	183.58
939.694	163.81
939.863	155.09
940.033	216.71
940.203	212.25
940.373	194.23
940.542	210.31
940.712	129.71
940.882	176.79
941.051	209.34
941.221	192.88
941.391	182.41
941.56	146.57
941.73	130.49
941.899	274.44
942.069	154.9
942.238	168.85
942.408	127.97
942.577	170.79
942.747	132.81
942.916	64.23
943.086	100.07
943.255	169.82
943.425	124.68
943.594	93.29
943.763	61.13
943.933	81.86
944.102	50.47
944.271	128.16
944.441	110.15
944.61	76.82
944.779	113.83
944.948	223.29
945.117	73.53
945.287	103.17
945.456	37.3
945.625	71.59
945.794	94.84
945.963	86.51
946.132	130.68
946.301	87.67
946.47	152.77
946.639	68.49
946.808	97.55
946.977	163.43
947.146	180.28
947.315	75.85
947.484	172.34
947.653	97.16
947.822	109.56
947.991	76.43
948.16	188.42
948.329	170.98
948.498	126.42
948.666	124.1
948.835	165.36
949.004	58.8
949.173	93.87
949.341	110.15
949.51	127.78
949.679	184.54
949.847	147.93
950.016	199.85
950.185	191.13
950.353	106.08
950.522	114.6
950.69	164.2
950.859	98.33
951.028	167.11
951.196	124.1
951.365	106.85
951.533	104.33
951.701	157.23
951.87	155.29
952.038	61.51
952.207	93.87
952.375	170.21
952.543	92.13
952.712	96
952.88	90.38
953.048	171.56
953.217	126.42
953.385	116.35
953.553	183.58
953.721	77.6
953.89	124.87
954.058	66.75
954.226	81.47
954.394	135.14
954.562	80.7
954.73	103.36
954.898	87.48
955.067	140.37
955.235	112.86
955.403	136.3
955.571	134.56
955.739	111.11
955.907	118.09
956.075	100.26
956.243	88.45
956.41	122.74
956.578	69.46
956.746	83.41
956.914	106.08
957.082	119.06
957.25	133.01
957.418	84.57
957.585	141.92
957.753	149.86
957.921	105.5
958.089	116.15
958.256	121
958.424	145.6
958.592	138.04
958.759	74.11
958.927	143.28
959.095	95.81
959.262	110.92
959.43	105.3
959.597	92.71
959.765	96.39
959.932	94.84
960.1	135.72
960.267	127.39
960.435	87.67
960.602	145.41
960.77	121.77
960.937	64.42
961.104	106.08
961.272	53.18
961.439	80.5
961.606	136.88
961.774	140.18
961.941	75.85
962.108	163.43
962.275	109.18
962.443	165.56
962.61	108.21
962.777	173.69
962.944	162.84
963.111	124.48
963.278	156.26
963.446	149.86
963.613	127.2
963.78	142.69
963.947	129.91
964.114	120.41
964.281	217.87
964.448	134.75
964.615	103.56
964.782	151.03
964.949	182.61
965.116	156.84
965.282	188.61
965.449	118.86
965.616	108.98
965.783	126.61
965.95	158.58
966.117	67.71
966.283	141.34
966.45	135.91
966.617	136.88
966.784	183.38
966.95	155.87
967.117	146.76
967.284	89.22
967.45	105.5
967.617	202.95
967.784	145.6
967.95	211.28
968.117	126.23
968.283	205.66
968.45	229.3
968.616	172.34
968.783	191.71
968.949	154.71
969.116	187.06
969.282	132.81
969.449	182.22
969.615	170.79
969.781	93.68
969.948	112.47
970.114	105.69
970.28	197.91
970.447	153.74
970.613	214.58
970.779	137.85
970.945	178.73
971.112	160.13
971.278	122.16
971.444	128.94
971.61	183.77
971.776	120.22
971.942	173.31
972.108	187.84
972.275	139.98
972.441	172.14
972.607	209.93
972.773	111.31
972.939	170.59
973.105	116.73
973.271	96.2
973.437	118.28
973.602	124.1
973.768	142.69
973.934	133.39
974.1	160.33
974.266	78.37
974.432	158.97
974.598	112.66
974.763	182.03
974.929	125.06
975.095	159.94
975.261	105.5
975.426	105.11
975.592	107.24
975.758	201.79
975.923	54.35
976.089	79.92
976.255	128.75
976.42	137.27
976.586	155.09
976.751	143.28
976.917	210.51
977.082	177.57
977.248	74.5
977.413	50.86
977.579	95.03
977.744	133.2
977.91	87.67
978.075	116.35
978.24	148.89
978.406	108.4
978.571	108.79
978.736	110.92
978.902	141.34
979.067	80.89
979.232	55.9
979.397	114.21
979.563	171.37
979.728	68.1
979.893	128.55
980.058	89.22
980.223	167.49
980.388	131.65
980.554	138.43
980.719	73.33
980.884	125.84
981.049	165.17
981.214	104.33
981.379	118.48
981.544	87.67
981.709	101.62
981.874	106.85
982.039	102.2
982.204	159.55
982.368	111.31
982.533	96.2
982.698	159.36
982.863	138.82
983.028	98.52
983.193	132.04
983.357	157.23
983.522	157.42
983.687	85.35
983.852	83.6
984.016	96.58
984.181	104.33
984.346	131.84
984.51	132.62
984.675	140.76
984.839	128.75
985.004	121
985.168	165.56
985.333	107.43
985.498	129.13
985.662	129.71
985.827	135.53
985.991	101.43
986.155	70.04
986.32	165.36
986.484	183.77
986.649	130.68
986.813	57.64
986.977	131.65
987.142	129.91
987.306	78.95
987.47	96.2
987.634	109.37
987.799	129.91
987.963	123.51
988.127	129.91
988.291	176.41
988.455	138.43
988.62	106.27
988.784	130.3
988.948	163.23
989.112	60.93
989.276	103.75
989.44	113.44
989.604	50.28
989.768	97.75
989.932	186.48
990.096	66.55
990.26	77.4
990.424	57.45
990.588	111.89
990.752	176.79
990.915	189.97
991.079	108.4
991.243	72.95
991.407	127.78
991.571	109.18
991.734	103.17
991.898	130.3
992.062	175.05
992.226	110.92
992.389	79.92
992.553	44.27
992.717	73.33
992.88	101.43
993.044	95.61
993.207	82.44
993.371	120.03
993.535	94.45
993.698	98.52
993.862	144.05
994.025	140.76
994.189	104.33
994.352	101.81
994.515	106.66
994.679	109.37
994.842	85.35
995.006	139.01
995.169	90
995.332	66.36
995.496	111.89
995.659	40.4
995.822	91.93
995.985	57.83
996.149	135.91
996.312	107.43
996.475	172.34
996.638	52.99
996.801	151.03
996.964	130.3
997.128	70.62
997.291	67.71
997.454	133.01
997.617	48.73
997.78	147.73
997.943	68.68
998.106	107.05
998.269	51.25
998.432	50.28
998.595	70.81
998.758	48.15
998.92	62.1
999.083	21.41
999.246	77.21
999.409	50.86
999.572	6.1
999.735	42.14
999.897	103.17
1000.06	58.8
1000.223	74.11
1000.386	106.85
1000.548	137.08
1000.711	109.95
1000.874	115.57
1001.036	43.5
1001.199	89.41
1001.361	59.96
1001.524	97.36
1001.687	125.84
1001.849	51.63
1002.012	83.6
1002.174	76.63
1002.337	113.25
1002.499	65.39
1002.661	133.98
1002.824	43.11
1002.986	55.51
1003.149	90.96
1003.311	36.33
1003.473	154.32
1003.636	39.62
1003.798	109.18
1003.96	105.69
1004.123	88.06
1004.285	59.58
1004.447	71.2
1004.609	52.21
1004.771	125.65
1004.933	16.18
1005.096	38.46
1005.258	19.86
1005.42	41.37
1005.582	90.96
1005.744	55.51
1005.906	-3.78
1006.068	58.61
1006.23	8.62
1006.392	4.36
1006.554	17.34
1006.716	104.72
1006.878	109.56
1007.04	20.63
1007.202	56.86
1007.363	71.01
1007.525	85.93
1007.687	79.15
1007.849	109.76
1008.011	21.41
1008.172	14.24
1008.334	58.41
1008.496	74.11
1008.658	-10.95
1008.819	33.03
1008.981	28.38
1009.143	15.02
1009.304	53.57
1009.466	74.3
1009.627	109.18
1009.789	184.93
1009.95	81.47
1010.112	52.21
1010.273	81.86
1010.435	50.66
1010.596	25.09
1010.758	36.33
1010.919	39.82
1011.081	21.99
1011.242	29.35
1011.403	69.07
1011.565	22.38
1011.726	77.79
1011.887	4.55
1012.049	52.8
1012.21	79.92
1012.371	95.61
1012.532	-49.89
1012.693	55.12
1012.855	39.23
1013.016	70.04
1013.177	62.87
1013.338	26.45
1013.499	128.94
1013.66	68.68
1013.821	60.93
1013.982	65
1014.143	38.46
1014.304	35.94
1014.465	29.93
1014.626	69.46
1014.787	44.27
1014.948	127.39
1015.109	-25.87
1015.27	82.25
1015.431	19.28
1015.592	7.27
1015.752	95.23
1015.913	55.9
1016.074	57.45
1016.235	40.01
1016.395	24.32
1016.556	52.6
1016.717	45.82
1016.877	94.26
1017.038	22.57
1017.199	47.76
1017.359	36.52
1017.52	64.03
1017.681	22.18
1017.841	37.49
1018.002	-5.13
1018.162	43.11
1018.323	100.26
1018.483	36.33
1018.644	9.4
1018.804	-9.98
1018.964	2.81
1019.125	26.64
1019.285	63.84
1019.446	-21.02
1019.606	-19.47
1019.766	-34.2
1019.926	76.24
1020.087	60.74
1020.247	-18.5
1020.407	71.2
1020.567	62.68
1020.728	31.48
1020.888	-12.3
1021.048	3.2
1021.208	9.4
1021.368	-2.81
1021.528	92.13
1021.688	60.55
1021.848	58.61
1022.008	25.67
1022.168	17.92
1022.328	40.98
1022.488	50.28
1022.648	24.32
1022.808	38.65
1022.968	39.43
1023.128	9.4
1023.288	17.92
1023.448	35.36
1023.608	57.45
1023.767	68.1
1023.927	11.33
1024.087	-11.92
1024.247	-25.87
1024.406	28.58
1024.566	-19.08
1024.726	6.3
1024.885	23.93
1025.045	58.41
1025.205	0.87
1025.364	1.84
1025.524	42.53
1025.683	36.91
1025.843	50.28
1026.003	6.49
1026.162	85.93
1026.321	74.11
1026.481	29.55
1026.64	13.47
1026.8	31.68
1026.959	22.38
1027.119	29.55
1027.278	-25.28
1027.437	15.98
1027.597	25.28
1027.756	47.18
1027.915	28.97
1028.074	34.39
1028.234	-6.1
1028.393	36.13
1028.552	8.23
1028.711	-40.98
1028.87	79.92
1029.03	-26.25
1029.189	27.22
1029.348	-27.8
1029.507	-7.27
1029.666	11.53
1029.825	-23.73
1029.984	-18.31
1030.143	17.92
1030.302	20.44
1030.461	-50.86
1030.62	10.75
1030.779	37.3
1030.938	-0.48
1031.097	-7.27
1031.255	60.55
1031.414	81.28
1031.573	75.85
1031.732	-43.88
1031.891	-7.07
1032.049	71.2
1032.208	46.21
1032.367	-8.04
1032.525	5.52
1032.684	27.61
1032.843	21.41
1033.001	-37.88
1033.16	184.74
1033.319	88.25
1033.477	32.45
1033.636	-5.91
1033.794	-15.79
1033.953	38.46
1034.111	62.68
1034.27	8.43
1034.428	30.71
1034.587	1.45
1034.745	-0.29
1034.903	40.78
1035.062	31.68
1035.22	-38.46
1035.378	52.41
1035.537	-39.04
1035.695	51.05
1035.853	23.93
1036.011	39.82
1036.17	29.93
1036.328	-52.6
1036.486	13.27
1036.644	39.43
1036.802	-80.7
1036.96	-9.4
1037.119	7.85
1037.277	-8.23
1037.435	-39.23
1037.593	-16.18
1037.751	28.58
1037.909	42.72
1038.067	42.72
