Data from gum_old_FLMT105791__58__15-43-46-257.txt Node

Date: Mon Mar 20 15:43:46 GMT 2023
User: antho
Spectrometer: FLMT10579
Trigger mode: 0
Integration Time (sec): 1.000000E-1
Scans to average: 10
Electric dark correction enabled: true
Nonlinearity correction enabled: false
Boxcar width: 0
XAxis mode: Wavelengths
Number of Pixels in Spectrum: 3648
>>>>>Begin Spectral Data<<<<<
345.248	-166.17
345.464	-166.17
345.681	-166.17
345.898	-192.33
346.114	-160.94
346.331	-28.03
346.548	23.9
346.764	-2.65
346.981	-30.55
347.197	-3.23
347.414	-0.13
347.631	-7.1
347.847	61.09
348.064	17.31
348.28	35.33
348.497	-44.11
348.713	-21.83
348.93	22.73
349.146	41.33
349.363	14.21
349.579	58.96
349.796	28.93
350.012	0.45
350.229	34.55
350.445	12.46
350.661	17.31
350.878	24.28
351.094	53.93
351.311	45.98
351.527	60.51
351.743	3.16
351.96	54.12
352.176	70.2
352.392	30.68
352.609	60.71
352.825	-10.59
353.041	37.65
353.257	14.01
353.474	27
353.69	46.95
353.906	28.35
354.122	-16.79
354.339	68.26
354.555	6.07
354.771	22.93
354.987	79.69
355.203	83.38
355.42	43.08
355.636	39.59
355.852	-3.62
356.068	36.68
356.284	-1.49
356.5	89.38
356.716	40.95
356.932	39.4
357.148	70.39
357.364	33.58
357.58	72.53
357.796	77.76
358.012	67.49
358.228	33.97
358.444	-47.79
358.66	85.51
358.876	51.02
359.092	9.17
359.308	31.06
359.524	51.6
359.74	22.93
359.956	40.36
360.172	27.77
360.388	64
360.604	12.08
360.819	125.23
361.035	59.54
361.251	68.84
361.467	25.45
361.683	81.44
361.898	68.84
362.114	43.66
362.33	35.33
362.546	72.72
362.762	55.09
362.977	70.2
363.193	4.13
363.409	88.41
363.624	11.5
363.84	28.16
364.056	44.24
364.271	74.08
364.487	68.65
364.703	19.63
364.918	21.38
365.134	37.07
365.35	43.27
365.565	159.71
365.781	90.74
365.996	82.6
366.212	84.15
366.427	73.3
366.643	29.71
366.858	24.67
367.074	30.87
367.289	125.03
367.505	184.9
367.72	10.33
367.936	48.31
368.151	83.57
368.367	90.35
368.582	82.02
368.798	39.01
369.013	93.84
369.228	71.75
369.444	44.63
369.659	144.41
369.874	86.09
370.09	106.43
370.305	-10.2
370.52	70.2
370.736	125.61
370.951	70.39
371.166	127.74
371.381	129.88
371.597	90.35
371.812	53.15
372.027	51.8
372.242	70.98
372.458	156.42
372.673	39.4
372.888	40.36
373.103	71.36
373.318	152.16
373.533	115.73
373.749	78.92
373.964	15.18
374.179	81.44
374.394	28.35
374.609	114.18
374.824	19.44
375.039	97.52
375.254	26.22
375.469	110.89
375.684	75.04
375.899	96.94
376.114	56.45
376.329	82.21
376.544	113.99
376.759	110.89
376.974	57.61
377.189	70.2
377.404	49.08
377.619	119.61
377.834	36.88
378.049	32.81
378.264	22.93
378.478	88.41
378.693	81.83
378.908	128.33
379.123	67.1
379.338	100.43
379.553	101.78
379.767	100.43
379.982	101.01
380.197	111.86
380.412	65.74
380.626	100.43
380.841	149.25
381.056	95.78
381.271	142.08
381.485	55.48
381.7	62.45
381.915	94.03
382.129	76.01
382.344	71.94
382.559	61.87
382.773	110.69
382.988	43.08
383.202	55.67
383.417	42.3
383.632	149.83
383.846	44.05
384.061	86.28
384.275	64.39
384.49	97.91
384.704	110.5
384.919	90.16
385.133	95
385.348	107.01
385.562	65.55
385.777	125.23
385.991	91.9
386.206	83.96
386.42	90.54
386.634	126.97
386.849	110.31
387.063	129.1
387.277	80.08
387.492	77.95
387.706	66.33
387.92	70.78
388.135	126
388.349	105.08
388.563	127.74
388.778	111.28
388.992	138.4
389.206	125.03
389.42	178.31
389.635	98.88
389.849	144.6
390.063	168.43
390.277	135.3
390.491	215.32
390.706	135.49
390.92	161.26
391.134	127.94
391.348	178.7
391.562	95.58
391.776	122.9
391.99	125.42
392.205	167.07
392.419	127.36
392.633	122.32
392.847	164.17
393.061	95.58
393.275	179.28
393.489	103.33
393.703	95.58
393.917	128.52
394.131	66.91
394.345	128.91
394.559	154.29
394.773	97.33
394.986	157.58
395.2	133.36
395.414	184.32
395.628	114.57
395.842	161.26
396.056	151.57
396.27	103.53
396.484	163.01
396.697	144.6
396.911	192.65
397.125	109.73
397.339	143.24
397.553	137.24
397.766	183.54
397.98	158.36
398.194	187.03
398.408	150.61
398.621	200.59
398.835	218.81
399.049	215.71
399.262	255.42
399.476	251.94
399.69	242.83
399.903	280.03
400.117	217.84
400.331	262.2
400.544	188.19
400.758	325.17
400.971	259.3
401.185	272.86
401.398	204.08
401.612	300.95
401.826	274.41
402.039	296.11
402.253	216.87
402.466	264.34
402.68	240.12
402.893	296.5
403.106	269.57
403.32	249.42
403.533	278.09
403.747	251.74
403.96	278.29
404.174	315.87
404.387	206.41
404.6	291.85
404.814	321.88
405.027	267.63
405.24	273.05
405.454	291.27
405.667	311.61
405.88	225.59
406.094	267.44
406.307	336.02
406.52	308.32
406.733	245.74
406.947	238.18
407.16	311.8
407.373	334.47
407.586	275.57
407.799	225.2
408.012	292.43
408.226	283.32
408.439	319.55
408.652	231.01
408.865	332.92
409.078	391.24
409.291	338.15
409.504	268.21
409.717	315.68
409.93	344.93
410.143	325.75
410.357	261.62
410.57	263.95
410.783	283.32
410.996	301.73
411.209	292.62
411.421	384.65
411.634	310.84
411.847	299.02
412.06	338.93
412.273	339.9
412.486	356.95
412.699	423.98
412.912	340.09
413.125	355.4
413.338	341.83
413.55	367.6
413.763	327.69
413.976	357.72
414.189	331.57
414.402	319.94
414.615	408.48
414.827	326.72
415.04	379.42
415.253	379.62
415.466	427.08
415.678	425.15
415.891	361.4
416.104	356.17
416.316	339.12
416.529	316.65
416.742	409.45
416.954	421.46
417.167	386.78
417.38	370.12
417.592	413.13
417.805	334.67
418.017	332.34
418.23	409.06
418.442	352.68
418.655	362.18
418.868	381.55
419.08	410.23
419.293	410.23
419.505	415.46
419.718	388.33
419.93	396.08
420.142	374.58
420.355	414.49
420.567	421.08
420.78	409.06
420.992	358.69
421.205	439.87
421.417	341.06
421.629	399.57
421.842	380.78
422.054	349.2
422.266	437.55
422.479	459.25
422.691	387.17
422.903	412.36
423.115	392.6
423.328	365.67
423.54	387.75
423.752	375.16
423.964	389.3
424.177	400.35
424.389	393.37
424.601	529.77
424.813	411.97
425.025	423.98
425.238	451.11
425.45	393.57
425.662	399.38
425.874	693.29
426.086	411.2
426.298	439.1
426.51	429.41
426.722	417.59
426.934	395.12
427.146	415.85
427.358	398.6
427.57	445.49
427.782	385.43
427.994	386.01
428.206	361.6
428.418	382.72
428.63	467.58
428.842	456.92
429.054	451.69
429.266	459.63
429.478	393.18
429.69	397.83
429.902	361.4
430.114	418.95
430.325	404.22
430.537	371.09
430.749	364.7
430.961	273.64
431.173	336.22
431.384	372.83
431.596	315.49
431.808	373.42
432.02	444.33
432.231	489.28
432.443	503.81
432.655	496.44
432.867	477.07
433.078	492.76
433.29	535.19
433.502	498.58
433.713	518.73
433.925	491.02
434.136	558.06
434.348	433.48
434.56	425.53
434.771	559.61
434.983	412.75
435.194	462.15
435.406	503.23
435.617	546.24
435.829	575.69
436.04	531.9
436.252	531.13
436.463	566
436.675	588.67
436.886	555.73
437.098	576.27
437.309	604.17
437.521	553.02
437.732	568.52
437.943	535.78
438.155	577.82
438.366	505.94
438.578	557.48
438.789	533.64
439	544.69
439.211	496.25
439.423	526.09
439.634	553.79
439.845	544.88
440.057	539.84
440.268	596.81
440.479	549.73
440.69	572.59
440.902	569.88
441.113	560.19
441.324	554.18
441.535	609.59
441.746	620.83
441.957	573.75
442.168	600.87
442.38	621.41
442.591	629.36
442.802	584.6
443.013	598.74
443.224	631.49
443.435	615.6
443.646	605.14
443.857	619.86
444.068	602.62
444.279	573.17
444.49	698.72
444.701	619.67
444.912	746.57
445.123	696.78
445.334	637.49
445.545	671.59
445.756	628.77
445.967	596.81
446.178	625.09
446.388	649.89
446.599	642.14
446.81	643.69
447.021	570.46
447.232	654.16
447.443	708.6
447.653	608.43
447.864	688.25
448.075	667.91
448.286	704.53
448.496	681.86
448.707	739.79
448.918	676.24
449.129	759.94
449.339	647.37
449.55	703.37
449.761	660.16
449.971	715.57
450.182	657.64
450.393	701.43
450.603	646.6
450.814	744.25
451.024	719.25
451.235	767.88
451.446	803.53
451.656	790.75
451.867	709.37
452.077	732.43
452.288	776.8
452.498	801.21
452.709	710.15
452.919	715.19
453.13	694.84
453.34	721.58
453.55	662.1
453.761	728.17
453.971	691.74
454.182	725.26
454.392	717.7
454.602	774.08
454.813	758.2
455.023	762.65
455.233	681.47
455.444	716.54
455.654	650.09
455.864	681.09
456.075	713.64
456.285	694.07
456.495	716.35
456.705	724.29
456.916	798.11
457.126	808.18
457.336	740.95
457.546	683.41
457.756	721.58
457.967	807.6
458.177	732.62
458.387	758.58
458.597	710.92
458.807	737.27
459.017	735.72
459.227	725.84
459.437	717.9
459.647	764.78
459.857	757.81
460.068	730.1
460.278	790.17
460.488	803.15
460.698	814.19
460.908	714.6
461.117	748.12
461.327	747.93
461.537	780.87
461.747	801.21
461.957	790.36
462.167	909.71
462.377	825.43
462.587	821.75
462.797	856.62
463.007	776.22
463.216	857.2
463.426	885.68
463.636	886.85
463.846	761.88
464.056	787.26
464.265	845
464.475	767.3
464.685	820
464.895	838.6
465.104	805.47
465.314	843.45
465.524	782.22
465.733	783
465.943	903.9
466.153	922.88
466.362	860.11
466.572	856.04
466.782	835.12
466.991	837.44
467.201	886.46
467.41	781.06
467.62	811.67
467.829	834.73
468.039	858.95
468.249	849.06
468.458	870.57
468.668	902.35
468.877	891.88
469.086	913.58
469.296	916.88
469.505	899.83
469.715	929.66
469.924	845.96
470.134	927.73
470.343	959.69
470.552	887.23
470.762	894.6
470.971	875.61
471.18	881.61
471.39	901.38
471.599	847.13
471.808	929.28
472.018	902.54
472.227	983.91
472.436	1002.51
472.645	959.69
472.855	904.86
473.064	1038.55
473.273	1003.48
473.482	965.7
473.691	1024.02
473.901	990.11
474.11	984.69
474.319	1080.79
474.528	948.07
474.737	1058.51
474.946	1028.86
475.155	1036.22
475.364	1092.02
475.573	1040.29
475.783	1060.64
475.992	1073.04
476.201	1076.91
476.41	1058.51
476.619	1042.23
476.828	1082.92
477.037	1012.39
477.245	1042.04
477.454	1105.01
477.663	1090.67
477.872	1144.92
478.081	1149.18
478.29	1067.61
478.499	1210.6
478.708	1179.79
478.917	1220.67
479.125	1171.46
479.334	1165.65
479.543	1157.7
479.752	1180.37
479.961	1169.52
480.169	1249.73
480.378	1222.42
480.587	1323.16
480.796	1273.37
481.004	1222.22
481.213	1244.31
481.422	1234.62
481.63	1287.9
481.839	1271.43
482.048	1358.04
482.256	1285.58
482.465	1319.1
482.674	1332.08
482.882	1356.68
483.091	1370.63
483.299	1285.58
483.508	1374.7
483.716	1315.8
483.925	1331.88
484.134	1297.01
484.342	1334.4
484.551	1367.34
484.759	1334.6
484.967	1371.02
485.176	1393.49
485.384	1428.18
485.593	1410.16
485.801	1381.48
486.01	1351.06
486.218	1272.21
486.426	1159.64
486.635	1192
486.843	1158.87
487.051	1218.93
487.26	1216.22
487.468	1278.41
487.676	1315.03
487.885	1319.29
488.093	1358.23
488.301	1388.07
488.509	1406.67
488.717	1465.18
488.926	1397.95
489.134	1419.84
489.342	1420.43
489.55	1372.96
489.758	1441.93
489.967	1418.29
490.175	1526.21
490.383	1505.29
490.591	1570.39
490.799	1507.22
491.007	1564.38
491.215	1514.39
491.423	1512.84
491.631	1548.69
491.839	1476.03
492.047	1521.76
492.255	1495.6
492.463	1421.98
492.671	1478.55
492.879	1526.41
493.087	1492.31
493.295	1543.26
493.503	1542.29
493.711	1587.44
493.919	1578.72
494.127	1613.2
494.334	1599.06
494.542	1520.59
494.75	1570.97
494.958	1598.87
495.166	1667.07
495.374	1633.55
495.581	1645.37
495.789	1652.73
495.997	1692.64
496.205	1599.25
496.412	1587.05
496.62	1629.67
496.828	1644.01
497.035	1653.89
497.243	1650.02
497.451	1657.77
497.658	1661.25
497.866	1646.33
498.074	1702.52
498.281	1639.17
498.489	1704.27
498.696	1595.57
498.904	1606.42
499.112	1571.94
499.319	1652.92
499.527	1638.39
499.734	1690.12
499.942	1606.62
500.149	1636.65
500.357	1690.51
500.564	1602.74
500.771	1647.11
500.979	1603.52
501.186	1594.22
501.394	1626.38
501.601	1620.18
501.808	1644.98
502.016	1593.05
502.223	1619.6
502.43	1629.48
502.638	1632.19
502.845	1597.51
503.052	1733.33
503.26	1634.71
503.467	1744.18
503.674	1722.48
503.881	1709.11
504.089	1756.96
504.296	1698.26
504.503	1645.37
504.71	1670.17
504.917	1635.1
505.125	1683.92
505.332	1688.96
505.539	1727.51
505.746	1814.12
505.953	1777.89
506.16	1778.08
506.367	1813.34
506.574	1850.93
506.781	1819.35
506.988	1762.58
507.195	1792.03
507.402	1749.02
507.609	1831.17
507.816	1760.45
508.023	1765.49
508.23	1712.98
508.437	1674.62
508.644	1724.22
508.851	1807.34
509.058	1765.88
509.265	1778.86
509.472	1798.23
509.679	1876.31
509.885	1796.49
510.092	1824.39
510.299	1808.69
510.506	1776.34
510.713	1791.45
510.92	1797.07
511.126	1805.4
511.333	1837.18
511.54	1831.56
511.746	1906.73
511.953	1893.36
512.16	1891.23
512.367	1847.64
512.573	1820.51
512.78	1836.98
512.987	1802.69
513.193	1825.16
513.4	1744.18
513.606	1799.59
513.813	1840.86
514.02	1819.35
514.226	1877.67
514.433	1841.83
514.639	1765.49
514.846	1813.54
515.052	1807.92
515.259	1850.16
515.465	1813.34
515.672	1840.08
515.878	1900.14
516.085	1850.93
516.291	1906.15
516.497	1857.91
516.704	1835.43
516.91	1762.39
517.117	1706.78
517.323	1634.71
517.529	1671.52
517.736	1680.43
517.942	1677.92
518.148	1664.93
518.354	1751.15
518.561	1744.37
518.767	1762.78
518.973	1757.35
519.179	1771.5
519.386	1754.25
519.592	1759.29
519.798	1741.46
520.004	1898.79
520.21	1859.07
520.417	1912.16
520.623	1916.42
520.829	1941.41
521.035	1944.32
521.241	1895.49
521.447	1957.49
521.653	2057.47
521.859	1982.29
522.065	1961.17
522.271	2081.49
522.477	1976.29
522.683	2068.7
522.889	2004.57
523.095	1992.95
523.301	1977.84
523.507	1950.13
523.713	2024.92
523.919	1963.69
524.125	2050.1
524.331	2019.69
524.537	2148.53
524.742	2108.81
524.948	2100.67
525.154	2134.38
525.36	2212.27
525.566	2090.4
525.772	2158.99
525.977	2067.74
526.183	2118.3
526.389	2148.53
526.595	2089.05
526.8	2075.29
527.006	2005.74
527.212	1920.87
527.417	1912.74
527.623	1921.07
527.829	2007.67
528.034	2018.91
528.24	2062.31
528.446	2049.14
528.651	2143.49
528.857	2160.35
529.062	2225.25
529.268	2202.97
529.473	2235.33
529.679	2220.41
529.884	2353.12
530.09	2301.78
530.295	2260.32
530.501	2265.16
530.706	2257.41
530.912	2202.78
531.117	2268.26
531.323	2274.08
531.528	2313.41
531.733	2336.46
531.939	2281.24
532.144	2329.29
532.35	2313.21
532.555	2308.95
532.76	2283.18
532.966	2275.24
533.171	2252.96
533.376	2185.34
533.581	2159.96
533.787	2246.76
533.992	2241.72
534.197	2269.62
534.402	2278.14
534.607	2290.93
534.813	2359.71
535.018	2276.4
535.223	2265.36
535.428	2321.16
535.633	2368.24
535.838	2369.01
536.043	2364.56
536.249	2438.76
536.454	2344.79
536.659	2414.74
536.864	2336.46
537.069	2330.07
537.274	2350.8
537.479	2376.76
537.684	2344.02
537.889	2294.81
538.094	2452.52
538.299	2366.3
538.504	2381.22
538.708	2419.39
538.913	2467.82
539.118	2410.09
539.323	2392.46
539.528	2344.41
539.733	2368.24
539.938	2383.54
540.142	2353.9
540.347	2300.23
540.552	2288.41
540.757	2316.31
540.962	2335.11
541.166	2248.31
541.371	2235.71
541.576	2307.79
541.781	2182.24
541.985	2346.54
542.19	2295
542.395	2404.47
542.599	2416.48
542.804	2373.08
543.008	2448.45
543.213	2371.53
543.418	2347.31
543.622	2371.53
543.827	2331.62
544.031	2429.27
544.236	2446.9
544.44	2396.91
544.645	2515.68
544.849	2394.01
545.054	2427.33
545.258	2507.73
545.463	2485.26
545.667	2406.02
545.872	2447.67
546.076	2485.84
546.281	2466.47
546.485	2416.29
546.689	2508.12
546.894	2469.18
547.098	2444.77
547.302	2439.73
547.507	2437.4
547.711	2456.59
547.915	2486.23
548.119	2366.11
548.324	2381.8
548.528	2499.02
548.732	2421.9
548.936	2486.23
549.141	2511.22
549.345	2428.49
549.549	2459.88
549.753	2446.7
549.957	2516.07
550.161	2536.41
550.366	2468.21
550.57	2444.77
550.774	2437.99
550.978	2417.84
551.182	2516.45
551.386	2471.7
551.59	2438.57
551.794	2442.05
551.998	2473.64
552.202	2459.1
552.406	2431.79
552.61	2467.82
552.814	2466.27
553.018	2531.37
553.222	2434.11
553.426	2427.33
553.63	2496.69
553.833	2464.34
554.037	2388.77
554.241	2447.87
554.445	2468.6
554.649	2467.63
554.853	2424.62
555.056	2494.56
555.26	2498.44
555.464	2468.99
555.668	2480.22
555.871	2475.96
556.075	2507.93
556.279	2428.3
556.483	2446.51
556.686	2430.62
556.89	2455.62
557.094	2449.61
557.297	2373.47
557.501	2456.59
557.704	2360.49
557.908	2449.8
558.112	2346.34
558.315	2447.29
558.519	2401.37
558.722	2381.02
558.926	2344.99
559.129	2305.66
559.333	2260.51
559.536	2264.78
559.74	2268.84
559.943	2213.05
560.147	2278.34
560.35	2293.84
560.553	2255.28
560.757	2240.36
560.96	2363.2
561.164	2306.43
561.367	2387.81
561.57	2319.8
561.774	2300.62
561.977	2328.91
562.18	2239.2
562.384	2390.71
562.587	2272.72
562.79	2252.76
562.993	2281.83
563.197	2334.72
563.4	2347.31
563.603	2313.6
563.806	2377.92
564.009	2282.99
564.212	2297.33
564.416	2210.33
564.619	2276.4
564.822	2208.78
565.025	2303.14
565.228	2258.58
565.431	2264
565.634	2155.12
565.837	2238.62
566.04	2196.96
566.243	2199.68
566.446	2077.62
566.649	2184.95
566.852	2104.93
567.055	2154.73
567.258	2186.11
567.461	2247.73
567.664	2222.54
567.867	2130.7
568.07	2171.39
568.273	2194.45
568.475	2227.96
568.678	2155.5
568.881	2151.82
569.084	2140.39
569.287	2015.04
569.489	2054.95
569.692	2100.48
569.895	2141.36
570.098	2033.05
570.3	2030.54
570.503	1966.41
570.706	1982.68
570.909	2014.26
571.111	1991.2
571.314	1965.82
571.516	1990.82
571.719	1995.85
571.922	1964.27
572.124	1939.28
572.327	2031.5
572.529	1961.37
572.732	1986.75
572.935	2022.2
573.137	2122.18
573.34	1959.43
573.542	2064.05
573.745	2013.1
573.947	2034.22
574.15	1984.62
574.352	1991.59
574.554	2058.05
574.757	1982.87
574.959	1952.65
575.162	1963.31
575.364	1944.71
575.566	2061.73
575.769	1940.64
575.971	1946.06
576.173	1830.39
576.376	1908.67
576.578	1977.64
576.78	2042.35
576.982	1866.24
577.185	1937.54
577.387	1886.58
577.589	1883.09
577.791	1961.95
577.993	1952.07
578.196	1942.96
578.398	1921.07
578.6	1943.93
578.802	1859.65
579.004	1847.64
579.206	1876.7
579.408	1899.17
579.61	1856.94
579.812	1912.74
580.014	1856.55
580.216	1859.65
580.418	1869.34
580.62	1851.71
580.822	1867.79
581.024	1920.87
581.226	1910.22
581.428	1833.3
581.63	1929.01
581.832	1876.89
582.034	1956.52
582.236	1886.58
582.438	1890.46
582.64	1951.1
582.841	1941.8
583.043	1978.42
583.245	1908.67
583.447	1911.19
583.649	1901.89
583.85	1919.52
584.052	1930.37
584.254	1864.88
584.456	1958.27
584.657	1860.62
584.859	1913.32
585.061	1859.65
585.262	1869.14
585.464	1831.94
585.666	1891.23
585.867	1811.02
586.069	1909.44
586.27	1841.63
586.472	1868.37
586.674	1837.56
586.875	1848.22
587.077	1807.53
587.278	1848.41
587.48	1805.98
587.681	1927.46
587.883	1831.17
588.084	1760.84
588.285	1793.58
588.487	1823.61
588.688	1822.06
588.89	1758.71
589.091	1682.76
589.292	1709.88
589.494	1677.14
589.695	1635.48
589.896	1563.8
590.098	1587.24
590.299	1605.26
590.5	1591.31
590.702	1620.37
590.903	1628.9
591.104	1682.18
591.305	1689.73
591.507	1761.42
591.708	1692.06
591.909	1700.97
592.11	1774.01
592.311	1736.04
592.512	1667.84
592.714	1649.24
592.915	1686.44
593.116	1661.83
593.317	1673.85
593.518	1683.73
593.719	1655.83
593.92	1709.69
594.121	1755.22
594.322	1742.05
594.523	1711.43
594.724	1631.61
594.925	1649.82
595.126	1672.1
595.327	1633.55
595.528	1686.83
595.729	1702.13
595.929	1644.4
596.13	1655.83
596.331	1682.76
596.532	1687.6
596.733	1763.16
596.934	1727.13
597.135	1755.61
597.335	1722.67
597.536	1671.72
597.737	1684.12
597.938	1660.28
598.138	1685.28
598.339	1647.3
598.54	1690.7
598.74	1659.7
598.941	1696.9
599.142	1692.06
599.342	1666.1
599.543	1679.08
599.744	1660.28
599.944	1662.03
600.145	1656.22
600.345	1654.47
600.546	1738.56
600.746	1743.6
600.947	1737.59
601.147	1687.41
601.348	1733.71
601.548	1650.4
601.749	1673.27
601.949	1637.42
602.15	1604.68
602.35	1631.22
602.551	1675.78
602.751	1586.66
602.951	1646.53
603.152	1577.75
603.352	1654.08
603.552	1653.89
603.753	1706.2
603.953	1682.37
604.153	1659.9
604.354	1646.53
604.554	1660.67
604.754	1628.51
604.954	1639.94
605.155	1664.74
605.355	1657.77
605.555	1680.05
605.755	1711.63
605.955	1649.82
606.155	1696.9
606.356	1653.12
606.556	1696.71
606.756	1683.73
606.956	1615.72
607.156	1686.44
607.356	1625.22
607.556	1683.15
607.756	1662.22
607.956	1674.23
608.156	1667.45
608.356	1617.27
608.556	1681.02
608.756	1625.02
608.956	1607.97
609.156	1640.52
609.356	1592.86
609.556	1583.75
609.755	1622.89
609.955	1582.59
610.155	1619.6
610.355	1587.24
610.555	1563.22
610.755	1542.1
610.954	1532.41
611.154	1602.94
611.354	1632.97
611.554	1559.34
611.753	1587.82
611.953	1543.26
612.153	1600.42
612.352	1597.7
612.552	1505.09
612.752	1477.39
612.951	1560.5
613.151	1541.13
613.351	1542.1
613.55	1545.78
613.75	1577.36
613.949	1541.13
614.149	1538.42
614.348	1513.23
614.548	1509.36
614.747	1446.78
614.947	1486.69
615.146	1467.31
615.346	1569.03
615.545	1545.39
615.745	1514.01
615.944	1591.12
616.144	1536.29
616.343	1514.78
616.542	1458.79
616.742	1461.69
616.941	1470.99
617.14	1424.88
617.34	1467.7
617.539	1458.79
617.738	1451.43
617.938	1545.59
618.137	1458.21
618.336	1462.86
618.535	1534.74
618.734	1483.39
618.934	1498.31
619.133	1485.72
619.332	1488.04
619.531	1433.41
619.73	1482.62
619.929	1511.68
620.128	1486.88
620.328	1516.14
620.527	1442.32
620.726	1469.25
620.925	1482.23
621.124	1470.61
621.323	1501.02
621.522	1427.98
621.721	1439.61
621.92	1392.72
622.119	1481.07
622.318	1408.41
622.517	1476.81
622.715	1425.27
622.914	1384.78
623.113	1411.13
623.312	1390.39
623.511	1487.66
623.71	1415.78
623.909	1390.39
624.107	1483.97
624.306	1332.08
624.505	1399.11
624.704	1397.37
624.902	1414.23
625.101	1439.61
625.3	1415.58
625.499	1384
625.697	1365.4
625.896	1345.25
626.095	1377.41
626.293	1305.92
626.492	1363.85
626.69	1365.6
626.889	1355.71
627.088	1373.93
627.286	1350.29
627.485	1328.01
627.683	1366.18
627.882	1352.81
628.08	1293.71
628.279	1290.23
628.477	1419.46
628.676	1287.51
628.874	1376.06
629.073	1303.98
629.271	1284.03
629.469	1354.75
629.668	1325.1
629.866	1332.85
630.065	1323.36
630.263	1355.52
630.461	1301.46
630.66	1302.05
630.858	1351.84
631.056	1350.48
631.254	1335.37
631.453	1293.71
631.651	1369.47
631.849	1333.05
632.047	1304.56
632.245	1279.18
632.444	1317.55
632.642	1335.95
632.84	1323.55
633.038	1288.29
633.236	1278.02
633.434	1248.77
633.632	1267.75
633.83	1284.03
634.028	1329.95
634.227	1302.24
634.425	1387.1
634.623	1297.78
634.821	1303.4
635.019	1298.75
635.216	1285.77
635.414	1323.75
635.612	1296.04
635.81	1267.75
636.008	1365.4
636.206	1291.39
636.404	1292.16
636.602	1246.05
636.8	1267.75
636.997	1300.69
637.195	1318.32
637.393	1301.66
637.591	1347.38
637.789	1341.38
637.986	1288.29
638.184	1339.25
638.382	1364.82
638.58	1340.21
638.777	1374.7
638.975	1302.24
639.173	1302.24
639.37	1330.91
639.568	1321.61
639.765	1368.7
639.963	1249.54
640.161	1320.26
640.358	1317.16
640.556	1262.33
640.753	1250.32
640.951	1251.87
641.148	1277.05
641.346	1254.58
641.543	1231.52
641.741	1298.56
641.938	1201.3
642.136	1256.32
642.333	1209.05
642.531	1323.55
642.728	1324.13
642.925	1261.17
643.123	1245.86
643.32	1271.43
643.517	1267.75
643.715	1266.98
643.912	1216.99
644.109	1259.42
644.306	1290.61
644.504	1223
644.701	1266.98
644.898	1276.28
645.095	1227.26
645.293	1245.47
645.49	1243.34
645.687	1253.8
645.884	1278.41
646.081	1157.12
646.278	1207.11
646.475	1213.12
646.672	1212.34
646.87	1239.27
647.067	1216.22
647.264	1198.2
647.461	1181.54
647.658	1132.9
647.855	1214.28
648.052	1159.45
648.249	1078.46
648.446	1155.57
648.642	1165.84
648.839	1140.85
649.036	1136.59
649.233	1128.64
649.43	1133.29
649.627	1047.07
649.824	1122.83
650.021	1126.51
650.217	1099.19
650.414	1121.86
650.611	1165.26
650.808	1143.56
651.004	1112.95
651.201	1181.73
651.398	1197.23
651.595	1117.21
651.791	1121.28
651.988	1199.55
652.185	1133.1
652.381	1141.04
652.578	1054.05
652.775	1123.8
652.971	1124.96
653.168	1110.04
653.364	1156.93
653.561	1081.76
653.757	1124.96
653.954	1153.05
654.15	1100.74
654.347	1174.56
654.543	1133.49
654.74	1081.95
654.936	1056.96
655.133	1087.76
655.329	1129.42
655.525	1108.3
655.722	1123.8
655.918	1031.38
656.115	1093.77
656.311	988.76
656.507	934.12
656.704	897.31
656.9	957.56
657.096	962.41
657.292	958.73
657.489	1035.06
657.685	1006.39
657.881	983.91
658.077	981.98
658.273	1038.74
658.47	1096.87
658.666	1027.12
658.862	1055.6
659.058	1054.82
659.254	1089.7
659.45	1042.62
659.646	1069.94
659.842	1047.46
660.038	1116.24
660.234	1022.47
660.43	1076.14
660.626	1123.02
660.822	1111.98
661.018	1127.09
661.214	1058.7
661.41	1053.47
661.606	1119.15
661.802	1109.65
661.998	1083.11
662.194	1036.81
662.39	1087.96
662.586	1073.42
662.781	1088.15
662.977	1083.89
663.173	1130.77
663.369	1086.99
663.564	1126.12
663.76	1107.52
663.956	1103.46
664.152	1103.84
664.347	1001.54
664.543	1061.8
664.739	1044.94
664.934	999.03
665.13	1019.37
665.326	1047.07
665.521	1067.42
665.717	1011.62
665.912	1041.65
666.108	944
666.304	995.54
666.499	1037.77
666.695	951.56
666.89	1005.03
667.086	1060.64
667.281	1067.22
667.477	1079.43
667.672	1068.58
667.867	1041.46
668.063	1075.17
668.258	1035.45
668.454	1021.89
668.649	1084.66
668.844	1026.15
669.04	1072.84
669.235	1062.57
669.43	1003.68
669.626	998.25
669.821	1023.44
670.016	1000.77
670.211	1011.62
670.407	975
670.602	1030.8
670.797	1003.48
670.992	1075.75
671.187	972.68
671.382	1052.69
671.578	1005.61
671.773	1039.91
671.968	989.73
672.163	1003.68
672.358	1028.67
672.553	964.15
672.748	984.3
672.943	1069.94
673.138	1020.14
673.333	1045.52
673.528	967.44
673.723	1032.16
673.918	999.8
674.113	996.51
674.308	1082.72
674.503	1008.71
674.698	1046.49
674.892	993.21
675.087	1029.44
675.282	997.67
675.477	979.84
675.672	1046.11
675.867	986.43
676.061	945.94
676.256	924.63
676.451	967.44
676.646	982.94
676.84	970.16
677.035	964.73
677.23	967.25
677.424	976.16
677.619	1024.41
677.814	1045.52
678.008	1032.16
678.203	910.1
678.397	942.64
678.592	987.01
678.787	1031.77
678.981	967.06
679.176	977.13
679.37	975.78
679.565	966.28
679.759	977.71
679.954	1013.56
680.148	1008.91
680.342	1045.14
680.537	978.88
680.731	972.87
680.926	985.85
681.12	971.9
681.314	957.76
681.509	980.04
681.703	997.86
681.897	1001.93
682.092	957.76
682.286	939.74
682.48	1024.41
682.674	995.15
682.869	949.43
683.063	963.57
683.257	1025.18
683.451	933.93
683.645	990.89
683.839	983.33
684.034	952.91
684.228	1014.91
684.422	903.9
684.616	931.8
684.81	952.53
685.004	925.98
685.198	951.56
685.392	979.07
685.586	937.99
685.78	946.52
685.974	957.76
686.168	993.41
686.362	985.85
686.556	881.42
686.75	866.31
686.944	868.83
687.138	891.5
687.331	768.27
687.525	765.37
687.719	743.47
687.913	789
688.107	795.01
688.301	765.56
688.494	780.28
688.688	755.1
688.882	725.84
689.076	729.91
689.269	789.97
689.463	867.86
689.657	781.64
689.85	779.51
690.044	814.38
690.238	826.01
690.431	788.42
690.625	790.17
690.818	801.98
691.012	837.63
691.205	870.96
691.399	790.36
691.593	839.57
691.786	901.18
691.98	868.25
692.173	934.7
692.366	894.4
692.56	891.11
692.753	960.66
692.947	870.57
693.14	931.99
693.333	927.92
693.527	868.25
693.72	911.45
693.914	862.24
694.107	850.03
694.3	875.61
694.493	865.34
694.687	931.02
694.88	867.28
695.073	949.62
695.266	896.53
695.46	884.71
695.653	946.91
695.846	936.06
696.039	859.72
696.232	901.57
696.425	951.75
696.618	958.34
696.812	919.01
697.005	1011.62
697.198	1057.92
697.391	973.84
697.584	1018.79
697.777	1043.78
697.97	1043.01
698.163	1026.15
698.356	1000.77
698.549	1112.17
698.742	1063.54
698.935	1010.84
699.127	1063.35
699.32	1022.27
699.513	1037.19
699.706	1084.08
699.899	1049.59
700.092	1031.77
700.285	1088.15
700.477	1030.99
700.67	1038.94
700.863	1094.74
701.056	1217.38
701.248	1128.84
701.441	1157.7
701.634	1110.62
701.826	1245.08
702.019	1120.31
702.212	1166.81
702.404	1155.38
702.597	1138.72
702.79	1131.55
702.982	1179.21
703.175	1218.54
703.367	1242.57
703.56	1249.73
703.752	1322
703.945	1282.28
704.137	1288.87
704.33	1297.2
704.522	1314.83
704.715	1326.26
704.907	1358.62
705.1	1379.35
705.292	1390.2
705.484	1343.31
705.677	1403.96
705.869	1379.54
706.061	1423.91
706.254	1484.17
706.446	1426.63
706.638	1407.44
706.831	1513.62
707.023	1466.92
707.215	1568.25
707.407	1544.81
707.599	1549.65
707.792	1623.09
707.984	1562.25
708.176	1594.22
708.368	1581.62
708.56	1624.64
708.752	1602.16
708.944	1603.13
709.136	1636.07
709.329	1616.69
709.521	1761.81
709.713	1726.35
709.905	1734.1
710.097	1765.49
710.289	1714.92
710.481	1735.85
710.672	1809.28
710.864	1796.1
711.056	1830.78
711.248	1808.69
711.44	1848.22
711.632	1818.96
711.824	1879.41
712.016	1922.42
712.207	1918.36
712.399	1913.32
712.591	2008.25
712.783	1956.72
712.975	1967.76
713.166	1961.56
713.358	1990.24
713.55	2075.87
713.741	2068.12
713.933	2048.94
714.125	2071.42
714.316	2016.59
714.508	2151.43
714.7	2125.08
714.891	2109.39
715.083	2196.77
715.274	2122.57
715.466	2134.77
715.657	2210.72
715.849	2089.05
716.04	2196.38
716.232	2139.81
716.423	2199.87
716.615	2152.6
716.806	2127.41
716.998	2091.95
717.189	2057.66
717.381	1996.82
717.572	1935.6
717.763	1974.93
717.955	1969.89
718.146	1946.45
718.337	1894.91
718.528	1892.78
718.72	1813.54
718.911	1893.75
719.102	1829.43
719.293	1887.36
719.485	1928.62
719.676	1891.81
719.867	1841.63
720.058	1833.69
720.249	1873.79
720.44	1866.82
720.632	1960.21
720.823	1986.94
721.014	2116.37
721.205	2103.38
721.396	2141.94
721.587	2283.38
721.778	2297.13
721.969	2366.11
722.16	2429.27
722.351	2443.02
722.542	2571.48
722.733	2540.28
722.924	2513.93
723.115	2542.22
723.305	2537.38
723.496	2586.98
723.687	2440.31
723.878	2467.44
724.069	2491.07
724.26	2467.82
724.45	2442.83
724.641	2453.87
724.832	2469.18
725.023	2426.75
725.213	2471.31
725.404	2438.95
725.595	2433.34
725.785	2436.44
725.976	2555.78
726.167	2480.03
726.357	2504.83
726.548	2649.36
726.739	2554.62
726.929	2607.51
727.12	2615.85
727.31	2682.69
727.501	2630.38
727.691	2654.01
727.882	2644.13
728.072	2689.28
728.263	2690.44
728.453	2739.46
728.644	2753.99
728.834	2731.71
729.024	2707.88
729.215	2742.75
729.405	2739.07
729.596	2814.63
729.786	2844.47
729.976	2905.3
730.167	2915.96
730.357	2878.76
730.547	2873.72
730.737	2962.46
730.928	2936.11
731.118	3000.24
731.308	2926.42
731.498	2945.8
731.688	3033.56
731.879	3052.75
732.069	3141.09
732.259	3121.91
732.449	3154.46
732.639	3245.14
732.829	3287.37
733.019	3301.9
733.209	3375.92
733.399	3354.02
733.589	3438.11
733.779	3461.94
733.969	3454.97
734.159	3511.73
734.349	3551.84
734.539	3586.71
734.729	3589.81
734.919	3661.69
735.109	3722.92
735.299	3622.75
735.488	3677.97
735.678	3663.24
735.868	3701.61
736.058	3663.24
736.248	3664.02
736.437	3650.84
736.627	3626.63
736.817	3747.52
737.007	3690.37
737.196	3766.9
737.386	3769.61
737.576	3679.91
737.765	3770.77
737.955	3782.2
738.144	3845.95
738.334	3827.54
738.524	3813.2
738.713	3833.74
738.903	3773.49
739.092	3876.95
739.282	3871.91
739.471	3877.53
739.661	3844.2
739.85	3915.5
740.04	3904.85
740.229	3914.73
740.419	3963.55
740.608	4006.56
740.797	3954.06
740.987	3980.8
741.176	4011.6
741.365	3951.93
741.555	3928.68
741.744	4025.94
741.933	3950.38
742.123	4000.17
742.312	4055.97
742.501	4069.92
742.69	4079.02
742.88	3992.42
743.069	4115.26
743.258	4041.24
743.447	4157.49
743.636	4121.84
743.825	4098.98
744.014	4132.31
744.204	4216.78
744.393	4047.64
744.582	4201.86
744.771	4173.77
744.96	4145.09
745.149	4181.13
745.338	4173.19
745.527	4219.1
745.716	4176.48
745.905	4192.17
746.094	4246.81
746.283	4183.45
746.471	4168.34
746.66	4250.88
746.849	4189.65
747.038	4257.27
747.227	4179
747.416	4217.94
747.604	4242.16
747.793	4170.09
747.982	4194.5
748.171	4219.69
748.359	4215.81
748.548	4242.35
748.737	4199.73
748.926	4209.61
749.114	4078.44
749.303	4228.02
749.491	4191.2
749.68	4135.6
749.869	4185.2
750.057	4172.41
750.246	4194.3
750.434	4167.76
750.623	4203.99
750.811	4159.43
751	4218.91
751.188	4194.69
751.377	4178.8
751.565	4129.01
751.754	4069.34
751.942	4094.14
752.131	4176.87
752.319	4101.89
752.507	4058.1
752.696	4138.51
752.884	4191.59
753.072	4117.77
753.261	4180.55
753.449	4137.15
753.637	4117.97
753.825	4250.49
754.014	4124.94
754.202	4136.57
754.39	4189.65
754.578	4200.31
754.766	4078.83
754.955	4133.27
755.143	4203.02
755.331	4081.35
755.519	4132.5
755.707	4118.16
755.895	4115.26
756.083	4100.92
756.271	4064.49
756.459	4122.04
756.647	4138.7
756.835	4046.48
757.023	4077.28
757.211	4043.76
757.399	4041.24
757.587	4063.72
757.775	3982.35
757.963	4004.82
758.151	4075.34
758.339	3972.08
758.526	3988.74
758.714	4012.96
758.902	3917.83
759.09	3834.32
759.278	3717.49
759.465	3445.67
759.653	3137.41
759.841	2850.28
760.028	2521.88
760.216	2213.82
760.404	2096.41
760.591	1797.26
760.779	1585.3
760.967	1411.32
761.154	1257.87
761.342	1265.82
761.529	1303.98
761.717	1386.71
761.905	1395.43
762.092	1497.54
762.28	1466.54
762.467	1533.77
762.655	1427.21
762.842	1536.29
763.029	1553.72
763.217	1521.37
763.404	1539.58
763.592	1587.63
763.779	1532.99
763.966	1593.64
764.154	1686.63
764.341	1712.79
764.528	1694.97
764.716	1790.48
764.903	1891.62
765.09	1886.19
765.277	1965.63
765.465	2099.51
765.652	2160.54
765.839	2237.07
766.026	2347.12
766.213	2387.42
766.4	2501.92
766.588	2723.57
766.775	2729.96
766.962	2807.66
767.149	2880.7
767.336	3024.27
767.523	2971.76
767.71	3074.45
767.897	3184.69
768.084	3274.78
768.271	3289.51
768.458	3370.69
768.645	3435.59
768.832	3347.82
769.019	3424.35
769.206	3437.14
769.392	3510.57
769.579	3571.21
769.766	3533.43
769.953	3505.34
770.14	3579.93
770.327	3594.85
770.513	3649.87
770.7	3702.19
770.887	3550.1
771.073	3640.77
771.26	3591.75
771.447	3563.08
771.634	3552.23
771.82	3679.52
772.007	3563.27
772.193	3621.78
772.38	3686.11
772.567	3558.62
772.753	3605.89
772.94	3671.57
773.126	3582.45
773.313	3646.58
773.499	3640.77
773.686	3620.62
773.872	3496.04
774.059	3589.81
774.245	3588.65
774.432	3559.59
774.618	3454.77
774.804	3610.35
774.991	3490.61
775.177	3565.01
775.363	3557.07
775.55	3565.01
775.736	3487.13
775.922	3528.59
776.109	3535.18
776.295	3526.26
776.481	3567.92
776.667	3540.8
776.853	3478.02
777.04	3427.45
777.226	3488.68
777.412	3540.41
777.598	3473.95
777.784	3447.6
777.97	3428.62
778.156	3480.93
778.342	3404.98
778.528	3451.67
778.715	3391.8
778.901	3413.7
779.087	3414.86
779.272	3405.37
779.458	3361.58
779.644	3423.77
779.83	3376.5
780.016	3464.65
780.202	3424.55
780.388	3380.37
780.574	3289.51
780.76	3337.94
780.946	3378.24
781.131	3362.74
781.317	3319.73
781.503	3306.36
781.689	3333.49
781.874	3418.73
782.06	3277.88
782.246	3263.35
782.432	3300.94
782.617	3317.79
782.803	3351.7
782.989	3260.06
783.174	3230.8
783.36	3204.45
783.545	3228.67
783.731	3221.89
783.916	3175.58
784.102	3244.36
784.288	3197.86
784.473	3190.89
784.659	3183.53
784.844	3230.22
785.029	3187.59
785.215	3171.9
785.4	3085.88
785.586	3218.21
785.771	3113.58
785.956	3206.58
786.142	3115.91
786.327	3131.6
786.512	3138.58
786.698	3106.03
786.883	3062.24
787.068	3101.96
787.254	3113.58
787.439	3073.86
787.624	3069.6
787.809	3070.38
787.994	3041.51
788.18	3127.53
788.365	3015.35
788.55	3050.81
788.735	3038.6
788.92	2997.33
789.105	2992.3
789.29	3030.08
789.475	2962.07
789.66	2982.8
789.845	2982.61
790.03	2942.7
790.215	2995.2
790.4	3002.76
790.585	2995.01
790.77	2934.95
790.955	2868.88
791.14	2929.52
791.325	2977.96
791.51	2838.66
791.695	2901.24
791.879	2883.02
792.064	2863.26
792.249	2943.47
792.434	2892.13
792.618	2877.4
792.803	2931.07
792.988	2877.99
793.173	2872.75
793.357	2964.2
793.542	2856.48
793.727	2890.39
793.911	2960.52
794.096	2907.24
794.281	2919.64
794.465	2999.08
794.65	2879.73
794.834	2957.42
795.019	2930.3
795.203	2982.42
795.388	2951.03
795.572	3016.13
795.757	2947.54
795.941	2964.2
796.126	2941.54
796.31	2861.13
796.494	2931.46
796.679	2920.61
796.863	2872.37
797.048	2979.9
797.232	2982.42
797.416	2958.97
797.601	2940.76
797.785	3005.86
797.969	3030.66
798.153	2929.72
798.338	2988.81
798.522	3006.63
798.706	3016.9
798.89	3002.76
799.074	3086.46
799.258	3024.65
799.443	2972.15
799.627	2962.07
799.811	3025.82
799.995	2966.92
800.179	2983.77
800.363	2940.18
800.547	2990.36
800.731	3037.44
800.915	2921.19
801.099	2935.92
801.283	2937.66
801.467	3012.45
801.651	2898.33
801.835	2991.52
802.019	2964.98
802.202	3013.61
802.386	2909.57
802.57	2908.79
802.754	2952.58
802.938	2916.93
803.121	2935.53
803.305	3020.78
803.489	2951.8
803.673	2972.73
803.856	2987.07
804.04	2945.8
804.224	2989.39
804.407	2980.87
804.591	2949.28
804.775	2929.52
804.958	2954.13
805.142	3038.02
805.326	2923.71
805.509	2945.8
805.693	2955.68
805.876	2978.15
806.06	2935.72
806.243	2959.75
806.427	3037.25
806.61	3035.11
806.794	2964.4
806.977	2993.65
807.16	2974.28
807.344	2971.57
807.527	2925.45
807.71	2916.54
807.894	2949.87
808.077	2989.2
808.26	2940.57
808.444	2914.22
808.627	3002.57
808.81	2876.05
808.993	2863.84
809.177	2821.61
809.36	2900.27
809.543	2925.26
809.726	2764.45
809.909	2804.36
810.092	2792.93
810.276	2837.3
810.459	2790.02
810.642	2791.19
810.825	2775.49
811.008	2746.24
811.191	2675.91
811.374	2664.09
811.557	2661.57
811.74	2795.26
811.923	2659.25
812.106	2621.08
812.289	2620.88
812.472	2639.1
812.654	2681.91
812.837	2643.94
813.02	2545.32
813.203	2546.48
813.386	2440.12
813.569	2405.24
813.751	2340.14
813.934	2442.83
814.117	2381.22
814.3	2324.06
814.482	2270.98
814.665	2235.13
814.848	2215.37
815.03	2208.59
815.213	2166.16
815.396	2148.33
815.578	2121.6
815.761	2030.34
815.943	2172.75
816.126	2051.46
816.309	2011.74
816.491	1934.63
816.674	1903.63
816.856	1923.59
817.039	1969.12
817.221	2014.26
817.403	1945.09
817.586	1962.34
817.768	1985.97
817.951	1917.58
818.133	1886.19
818.315	1885.61
818.498	1952.65
818.68	2029.95
818.862	1982.49
819.045	1985.39
819.227	1979.58
819.409	1976.09
819.591	2013.87
819.774	1963.89
819.956	1946.64
820.138	2024.53
820.32	1998.57
820.502	2044.87
820.684	2113.07
820.866	2116.17
821.048	2179.91
821.231	2158.41
821.413	2151.82
821.595	2147.17
821.777	2162.48
821.959	2174.49
822.141	2212.66
822.323	2085.37
822.505	2007.67
822.686	1997.79
822.868	1883.09
823.05	1804.63
823.232	1784.28
823.414	1688.38
823.596	1742.24
823.778	1769.36
823.96	1798.62
824.141	1772.08
824.323	1794.16
824.505	1856.16
824.687	1937.92
824.868	1951.49
825.05	2054.17
825.232	2095.83
825.413	2169.84
825.595	2097.96
825.777	2032.86
825.958	2085.17
826.14	2082.65
826.321	2093.89
826.503	2089.43
826.685	2084.01
826.866	2142.33
827.048	2065.6
827.229	2040.42
827.411	2047.59
827.592	1974.16
827.773	1958.07
827.955	1942.57
828.136	1924.17
828.318	1902.47
828.499	1927.85
828.68	1854.03
828.862	1906.73
829.043	1905.18
829.224	1913.9
829.406	1834.85
829.587	1871.47
829.768	1884.45
829.949	1934.82
830.131	1868.18
830.312	1984.42
830.493	1901.69
830.674	1907.7
830.855	1890.07
831.036	1886.78
831.218	1929.79
831.399	1977.45
831.58	1912.16
831.761	1923.59
831.942	1902.47
832.123	1905.96
832.304	1849.19
832.485	1864.11
832.666	1900.14
832.847	1888.52
833.028	1861.2
833.209	1870.11
833.389	1859.65
833.57	1823.81
833.751	1807.53
833.932	1924.56
834.113	1838.73
834.294	1827.29
834.475	1897.24
834.655	1905.18
834.836	1913.12
835.017	1903.05
835.198	1843.57
835.378	1883.68
835.559	1925.14
835.74	1873.02
835.92	1871.66
836.101	1885.81
836.281	1902.08
836.462	1907.89
836.643	1962.53
836.823	1947.22
837.004	1902.27
837.184	1974.35
837.365	1923.2
837.545	1954.59
837.726	1908.86
837.906	2006.51
838.087	1898.4
838.267	1887.74
838.448	1874.38
838.628	1897.24
838.808	1901.11
838.989	1961.76
839.169	1904.41
839.349	1955.17
839.53	1920.68
839.71	1941.22
839.89	1879.99
840.07	1970.47
840.251	1900.53
840.431	1947.22
840.611	1885.81
840.791	1851.13
840.971	1889.88
841.151	1898.4
841.332	1890.84
841.512	1947.81
841.692	1824.19
841.872	1912.93
842.052	1860.23
842.232	1927.46
842.412	1817.61
842.592	1842.02
842.772	1870.5
842.952	1917
843.132	1827.88
843.312	1827.49
843.492	1836.98
843.672	1896.27
843.851	1783.12
844.031	1841.44
844.211	1834.66
844.391	1802.3
844.571	1853.45
844.751	1860.81
844.93	1876.12
845.11	1789.51
845.29	1847.64
845.47	1835.63
845.649	1867.4
845.829	1840.47
846.009	1762.58
846.188	1826.33
846.368	1810.24
846.547	1778.08
846.727	1866.43
846.907	1753.48
847.086	1818.58
847.266	1830.78
847.445	1775.95
847.625	1763.55
847.804	1748.05
847.984	1785.25
848.163	1766.46
848.343	1760.45
848.522	1757.93
848.701	1772.85
848.881	1722.09
849.06	1778.08
849.239	1737.01
849.419	1774.4
849.598	1702.13
849.777	1701.17
849.957	1668.62
850.136	1595.96
850.315	1602.55
850.494	1606.42
850.674	1637.62
850.853	1675.2
851.032	1622.89
851.211	1716.08
851.39	1660.67
851.569	1618.82
851.748	1599.64
851.927	1647.11
852.107	1644.59
852.286	1602.94
852.465	1583.75
852.644	1646.92
852.823	1638.58
853.002	1632.77
853.181	1638.78
853.359	1647.88
853.538	1522.72
853.717	1641.88
853.896	1520.01
854.075	1494.44
854.254	1434.18
854.433	1353.58
854.611	1445.81
854.79	1367.92
854.969	1478.74
855.148	1424.88
855.327	1404.73
855.505	1464.79
855.684	1439.22
855.863	1477
856.041	1434.57
856.22	1509.74
856.399	1440.77
856.577	1594.41
856.756	1549.07
856.934	1693.8
857.113	1675.01
857.291	1570.39
857.47	1539.77
857.648	1585.11
857.827	1583.17
858.005	1606.81
858.184	1532.02
858.362	1633.74
858.541	1574.07
858.719	1538.22
858.898	1527.76
859.076	1545.97
859.254	1577.36
859.433	1497.54
859.611	1509.16
859.789	1488.43
859.967	1583.56
860.146	1594.02
860.324	1490.76
860.502	1489.59
860.68	1455.49
860.859	1477
861.037	1483.97
861.215	1519.24
861.393	1484.56
861.571	1497.15
861.749	1474.67
861.927	1506.45
862.105	1510.71
862.283	1490.37
862.461	1424.49
862.639	1428.95
862.817	1486.49
862.995	1462.08
863.173	1453.75
863.351	1458.79
863.529	1474.29
863.707	1503.54
863.885	1470.41
864.063	1374.31
864.241	1407.64
864.418	1489.98
864.596	1414.81
864.774	1408.61
864.952	1443.09
865.129	1436.89
865.307	1406.67
865.485	1353
865.663	1445.23
865.84	1326.85
866.018	1365.79
866.196	1223.77
866.373	1269.11
866.551	1217.77
866.728	1189.09
866.906	1222.03
867.084	1248.77
867.261	1291.58
867.439	1300.88
867.616	1310.96
867.794	1304.56
867.971	1346.03
868.149	1328.78
868.326	1401.24
868.503	1337.7
868.681	1353.97
868.858	1295.65
869.035	1292.94
869.213	1345.64
869.39	1319.1
869.567	1390.39
869.745	1324.71
869.922	1321.23
870.099	1345.06
870.276	1359.98
870.454	1331.3
870.631	1345.83
870.808	1319.87
870.985	1346.41
871.162	1392.72
871.339	1350.48
871.517	1265.23
871.694	1275.7
871.871	1320.26
872.048	1270.08
872.225	1293.13
872.402	1272.6
872.579	1257.68
872.756	1301.27
872.933	1273.37
873.11	1270.27
873.287	1286.55
873.463	1250.12
873.64	1232.88
873.817	1291.2
873.994	1261.55
874.171	1254.58
874.348	1252.64
874.524	1188.32
874.701	1233.07
874.878	1198.39
875.055	1264.27
875.231	1261.55
875.408	1263.68
875.585	1182.12
875.762	1227.84
875.938	1193.16
876.115	1192.58
876.291	1220.87
876.468	1192.97
876.645	1146.08
876.821	1168.94
876.998	1200.91
877.174	1198.39
877.351	1195.68
877.527	1123.41
877.704	1192.19
877.88	1176.11
878.057	1161.97
878.233	1205.95
878.409	1153.83
878.586	1189.29
878.762	1153.83
878.938	1168.55
879.115	1090.09
879.291	1171.85
879.467	1080.59
879.644	1137.94
879.82	1180.95
879.996	1101.52
880.172	1067.03
880.349	1164.49
880.525	1136
880.701	1091.44
880.877	1106.36
881.053	1124.38
881.229	1120.5
881.405	1165.07
881.581	1091.44
881.757	1108.69
881.933	1119.15
882.109	1147.05
882.285	1125.35
882.461	1097.06
882.637	1133.87
882.813	1063.16
882.989	1100.74
883.165	1135.81
883.341	1056.96
883.517	1144.72
883.693	1101.32
883.869	1131.74
884.044	1103.84
884.22	1123.41
884.396	1161.58
884.572	1130.58
884.747	1162.74
884.923	1129.8
885.099	1138.33
885.275	1169.91
885.45	1075.17
885.626	1115.66
885.801	1096.29
885.977	1086.99
886.153	1042.23
886.328	1129.42
886.504	1087.57
886.679	1131.16
886.855	1062.96
887.03	1095.32
887.206	1152.67
887.381	1118.37
887.557	1111.2
887.732	1116.24
887.908	1126.51
888.083	1128.25
888.258	1079.43
888.434	1078.27
888.609	1098.61
888.784	1142.2
888.96	1080.98
889.135	1082.72
889.31	1057.34
889.485	1086.21
889.661	1085.63
889.836	1113.72
890.011	1103.26
890.186	1090.47
890.361	1059.09
890.537	1101.71
890.712	1105.2
890.887	1141.04
891.062	1123.8
891.237	1151.5
891.412	1071.29
891.587	1115.08
891.762	1134.84
891.937	1138.33
892.112	1025.18
892.287	1088.92
892.462	1045.91
892.637	1042.23
892.812	1025.96
892.987	1021.31
893.161	985.27
893.336	1057.92
893.511	1021.5
893.686	1037.77
893.861	1027.89
894.035	1004.06
894.21	1017.04
894.385	962.79
894.56	1024.41
894.734	984.69
894.909	968.22
895.084	980.43
895.258	920.56
895.433	963.38
895.608	929.08
895.782	877.16
895.957	927.92
896.131	902.54
896.306	827.37
896.48	836.08
896.655	856.81
896.829	794.82
897.004	786.1
897.178	781.25
897.353	758.78
897.527	836.67
897.701	804.5
897.876	740.37
898.05	860.69
898.224	819.03
898.399	856.81
898.573	797.53
898.747	707.44
898.921	769.63
899.096	629.74
899.27	685.54
899.444	645.24
899.618	669.46
899.792	704.92
899.967	703.75
900.141	725.45
900.315	694.65
900.489	696.2
900.663	709.76
900.837	710.92
901.011	644.66
901.185	735.72
901.359	690.19
901.533	736.5
901.707	700.27
901.881	722.55
902.055	661.13
902.229	702.2
902.403	764.4
902.576	708.21
902.75	740.37
902.924	808.96
903.098	780.48
903.272	826.01
903.446	821.17
903.619	806.25
903.793	826.4
903.967	823.1
904.14	897.11
904.314	851.78
904.488	835.5
904.661	877.16
904.835	833.76
905.009	894.6
905.182	918.04
905.356	846.93
905.529	864.56
905.703	825.43
905.876	804.12
906.05	792.3
906.223	801.6
906.397	729.33
906.57	690.19
906.744	714.02
906.917	695.23
907.09	713.25
907.264	670.04
907.437	669.66
907.61	644.66
907.784	691.94
907.957	689.42
908.13	647.18
908.304	667.14
908.477	613.47
908.65	616.18
908.823	604.94
908.996	703.37
909.17	601.26
909.343	612.31
909.516	650.09
909.689	644.86
909.862	592.54
910.035	618.51
910.208	599.32
910.381	558.83
910.554	679.92
910.727	629.16
910.9	627.03
911.073	596.03
911.246	662.1
911.419	670.62
911.592	638.27
911.765	603.59
911.938	625.09
912.11	619.86
912.283	613.27
912.456	658.61
912.629	637.88
912.802	612.11
912.974	553.02
913.147	534.61
913.32	489.08
913.493	537.13
913.665	555.15
913.838	534.42
914.01	530.54
914.183	577.63
914.356	559.61
914.528	594.29
914.701	644.66
914.873	579.37
915.046	538.1
915.218	529.38
915.391	458.66
915.563	476.49
915.736	524.73
915.908	544.88
916.081	540.04
916.253	535.58
916.425	542.94
916.598	565.61
916.77	541.78
916.942	511.94
917.115	458.47
917.287	533.45
917.459	513.69
917.632	458.28
917.804	429.6
917.976	508.65
918.148	523.38
918.32	497.22
918.493	539.26
918.665	598.16
918.837	544.69
919.009	583.63
919.181	587.51
919.353	557.09
919.525	563.68
919.697	497.22
919.869	540.04
920.041	594.29
920.213	642.34
920.385	581.89
920.557	543.91
920.729	586.92
920.901	565.03
921.073	570.46
921.244	576.66
921.416	594.87
921.588	574.91
921.76	535.39
921.932	596.22
922.103	513.49
922.275	530.74
922.447	552.44
922.619	501.09
922.79	537.52
922.962	510.01
923.134	532.29
923.305	459.25
923.477	490.83
923.648	457.89
923.82	522.21
923.991	449.95
924.163	437.35
924.335	469.9
924.506	460.99
924.677	523.57
924.849	480.56
925.02	508.46
925.192	516.01
925.363	495.67
925.535	523.96
925.706	453.05
925.877	528.22
926.049	469.13
926.22	497.8
926.391	483.85
926.562	526.28
926.734	493.73
926.905	497.61
927.076	436.19
927.247	470.87
927.419	396.67
927.59	388.72
927.761	405
927.932	402.87
928.103	404.03
928.274	372.45
928.445	348.42
928.616	384.07
928.787	363.92
928.958	390.66
929.129	367.99
929.3	381.55
929.471	307.35
929.642	298.63
929.813	225.59
929.984	330.98
930.155	220.55
930.326	285.65
930.496	239.54
930.667	185.67
930.838	236.82
931.009	198.27
931.18	228.69
931.35	215.12
931.521	193.23
931.692	180.44
931.863	162.81
932.033	176.96
932.204	166.3
932.374	174.82
932.545	140.92
932.716	185.87
932.886	196.14
933.057	79.89
933.227	81.63
933.398	198.66
933.568	93.45
933.739	85.12
933.909	73.69
934.08	133.94
934.25	56.83
934.421	71.94
934.591	89.77
934.761	86.86
934.932	33.2
935.102	114.18
935.272	85.51
935.443	77.18
935.613	53.73
935.783	95.19
935.953	38.43
936.123	217.26
936.294	59.16
936.464	54.7
936.634	71.56
936.804	56.64
936.974	23.51
937.144	105.46
937.314	71.17
937.484	64.19
937.655	42.3
937.825	131.81
937.995	58
938.165	132.2
938.334	84.73
938.504	128.33
938.674	98.68
938.844	101.01
939.014	152.74
939.184	142.66
939.354	190.91
939.524	169.21
939.694	142.47
939.863	132.78
940.033	190.91
940.203	186.26
940.373	154.09
940.542	184.9
940.712	133.75
940.882	189.55
941.051	173.66
941.221	140.92
941.391	156.03
941.56	152.35
941.73	122.71
941.899	259.1
942.069	146.92
942.238	160.49
942.408	145.76
942.577	175.79
942.747	128.91
942.916	89.58
943.086	104.11
943.255	168.24
943.425	134.91
943.594	127.36
943.763	33.2
943.933	73.49
944.102	44.82
944.271	120.19
944.441	103.53
944.61	81.83
944.779	99.84
944.948	213.96
945.117	84.15
945.287	96.36
945.456	37.85
945.625	65.36
945.794	130.84
945.963	65.55
946.132	131.81
946.301	101.2
946.47	148.09
946.639	45.98
946.808	87.44
946.977	117.48
947.146	157.19
947.315	75.04
947.484	147.31
947.653	110.5
947.822	92.87
947.991	78.73
948.16	176.37
948.329	144.6
948.498	130.65
948.666	105.27
948.835	137.82
949.004	96.36
949.173	65.94
949.341	111.28
949.51	123.09
949.679	134.91
949.847	132.2
950.016	178.7
950.185	172.31
950.353	97.71
950.522	122.9
950.69	170.76
950.859	92.48
951.028	154.87
951.196	109.14
951.365	97.71
951.533	115.34
951.701	128.91
951.87	116.51
952.038	60.51
952.207	122.32
952.375	153.9
952.543	84.93
952.712	129.1
952.88	65.94
953.048	167.85
953.217	113.41
953.385	107.59
953.553	150.99
953.721	77.56
953.89	99.26
954.058	55.67
954.226	108.37
954.394	95.97
954.562	55.86
954.73	93.45
954.898	78.92
955.067	132.98
955.235	85.12
955.403	139.76
955.571	168.62
955.739	124.84
955.907	84.73
956.075	76.4
956.243	61.87
956.41	125.61
956.578	39.78
956.746	66.52
956.914	101.2
957.082	126.78
957.25	127.94
957.418	84.93
957.585	106.63
957.753	128.52
957.921	96.55
958.089	99.65
958.256	127.94
958.424	115.93
958.592	125.42
958.759	91.32
958.927	110.5
959.095	80.86
959.262	114.18
959.43	103.14
959.597	70.39
959.765	74.66
959.932	59.74
960.1	150.02
960.267	113.6
960.435	95.19
960.602	153.32
960.77	89.19
960.937	36.1
961.104	109.14
961.272	58.77
961.439	87.64
961.606	123.87
961.774	141.69
961.941	83.38
962.108	119.61
962.275	107.4
962.443	133.36
962.61	132.39
962.777	194.01
962.944	121.93
963.111	88.61
963.278	136.66
963.446	116.51
963.613	123.09
963.78	132.98
963.947	136.08
964.114	108.95
964.281	219.39
964.448	120.77
964.615	89.58
964.782	125.81
964.949	167.07
965.116	149.44
965.282	168.04
965.449	93.64
965.616	82.41
965.783	154.48
965.95	115.93
966.117	75.82
966.283	109.92
966.45	114.76
966.617	123.29
966.784	153.71
966.95	168.82
967.117	139.37
967.284	95.58
967.45	103.91
967.617	185.29
967.784	147.31
967.95	208.34
968.117	123.29
968.283	195.17
968.45	217.06
968.616	142.66
968.783	189.16
968.949	165.72
969.116	177.15
969.282	140.92
969.449	152.93
969.615	115.93
969.781	82.02
969.948	121.54
970.114	78.53
970.28	201.56
970.447	138.21
970.613	191.49
970.779	150.02
970.945	154.87
971.112	142.28
971.278	128.71
971.444	117.86
971.61	198.07
971.776	125.03
971.942	129.88
972.108	141.89
972.275	126.19
972.441	150.8
972.607	194.97
972.773	106.43
972.939	151.57
973.105	114.57
973.271	88.22
973.437	101.01
973.602	100.62
973.768	135.3
973.934	106.63
974.1	136.27
974.266	48.11
974.432	132.01
974.598	85.89
974.763	140.92
974.929	101.01
975.095	205.82
975.261	98.29
975.426	91.9
975.592	128.91
975.758	168.82
975.923	51.8
976.089	91.32
976.255	145.18
976.42	142.47
976.586	142.86
976.751	112.83
976.917	198.66
977.082	143.44
977.248	63.42
977.413	59.35
977.579	110.11
977.744	113.41
977.91	65.74
978.075	95.39
978.24	128.91
978.406	109.73
978.571	85.51
978.736	72.14
978.902	138.59
979.067	71.36
979.232	43.08
979.397	103.72
979.563	152.35
979.728	47.53
979.893	116.12
980.058	83.18
980.223	164.94
980.388	121.74
980.554	116.12
980.719	91.51
980.884	117.86
981.049	153.9
981.214	76.21
981.379	121.54
981.544	72.53
981.709	97.13
981.874	77.37
982.039	110.5
982.204	141.89
982.368	96.16
982.533	77.95
982.698	145.38
982.863	133.17
983.028	85.89
983.193	121.16
983.357	114.38
983.522	109.14
983.687	100.81
983.852	84.34
984.016	98.1
984.181	125.03
984.346	125.23
984.51	133.94
984.675	120.58
984.839	112.05
985.004	113.6
985.168	159.52
985.333	129.68
985.498	83.18
985.662	134.33
985.827	110.5
985.991	106.24
986.155	100.23
986.32	157.97
986.484	161.65
986.649	108.95
986.813	47.34
986.977	127.94
987.142	122.71
987.306	74.85
987.47	63.61
987.634	106.63
987.799	129.88
987.963	113.99
988.127	128.71
988.291	175.99
988.455	113.41
988.62	72.91
988.784	140.34
988.948	130.26
989.112	84.93
989.276	105.66
989.44	91.13
989.604	76.01
989.768	76.59
989.932	196.52
990.096	62.26
990.26	75.24
990.424	48.5
990.588	102.17
990.752	164.75
990.915	120.38
991.079	53.35
991.243	66.33
991.407	130.07
991.571	88.22
991.734	106.43
991.898	117.67
992.062	185.67
992.226	87.83
992.389	61.87
992.553	46.18
992.717	46.37
992.88	82.99
993.044	109.53
993.207	86.67
993.371	135.88
993.535	107.98
993.698	96.16
993.862	128.71
994.025	141.69
994.189	122.32
994.352	112.24
994.515	75.63
994.679	123.87
994.842	80.86
995.006	128.13
995.169	79.69
995.332	75.24
995.496	123.09
995.659	17.89
995.822	76.98
995.985	80.47
996.149	108.37
996.312	73.49
996.475	150.41
996.638	65.94
996.801	132.78
996.964	147.31
997.128	49.47
997.291	71.36
997.454	77.18
997.617	11.5
997.78	126.39
997.943	64.39
998.106	119.8
998.269	50.63
998.432	62.64
998.595	62.84
998.758	17.7
998.92	45.01
999.083	-3.23
999.246	80.28
999.409	46.56
999.572	17.7
999.735	53.15
999.897	88.99
1000.06	55.86
1000.223	70.2
1000.386	128.52
1000.548	109.14
1000.711	75.63
1000.874	79.5
1001.036	32.03
1001.199	77.76
1001.361	45.98
1001.524	57.61
1001.687	95.39
1001.849	28.74
1002.012	88.03
1002.174	39.01
1002.337	91.71
1002.499	70.2
1002.661	105.08
1002.824	29.51
1002.986	36.68
1003.149	61.48
1003.311	47.53
1003.473	100.81
1003.636	50.05
1003.798	88.99
1003.96	94.03
1004.123	62.45
1004.285	59.93
1004.447	51.6
1004.609	67.29
1004.771	117.09
1004.933	20.6
1005.096	37.07
1005.258	-1.1
1005.42	79.5
1005.582	84.93
1005.744	51.21
1005.906	38.81
1006.068	70.39
1006.23	22.93
1006.392	-11.17
1006.554	16.73
1006.716	112.44
1006.878	81.05
1007.04	-0.71
1007.202	23.7
1007.363	59.54
1007.525	70.98
1007.687	52.57
1007.849	99.46
1008.011	19.05
1008.172	12.46
1008.334	36.1
1008.496	71.94
1008.658	9.56
1008.819	9.56
1008.981	21.57
1009.143	26.03
1009.304	79.69
1009.466	83.18
1009.627	84.93
1009.789	141.31
1009.95	64.97
1010.112	57.8
1010.273	87.83
1010.435	51.41
1010.596	30.48
1010.758	36.3
1010.919	43.46
1011.081	3.36
1011.242	66.33
1011.403	49.08
1011.565	57.61
1011.726	47.73
1011.887	8.98
1012.049	33.78
1012.21	57.41
1012.371	92.29
1012.532	-20.67
1012.693	24.86
1012.855	9.95
1013.016	46.37
1013.177	53.35
1013.338	30.1
1013.499	102.94
1013.66	67.68
1013.821	60.71
1013.982	51.8
1014.143	50.83
1014.304	37.85
1014.465	48.11
1014.626	82.02
1014.787	21.38
1014.948	116.31
1015.109	-48.18
1015.27	96.36
1015.431	22.93
1015.592	12.08
1015.752	55.67
1015.913	34.36
1016.074	72.53
1016.235	65.36
1016.395	72.14
1016.556	10.72
1016.717	46.95
1016.877	96.74
1017.038	20.02
1017.199	42.88
1017.359	36.3
1017.52	36.68
1017.681	26.03
1017.841	30.87
1018.002	54.31
1018.162	15.18
1018.323	77.56
1018.483	41.72
1018.644	29.71
1018.804	10.91
1018.964	-9.43
1019.125	42.3
1019.285	54.51
1019.446	-15.05
1019.606	2.58
1019.766	-30.74
1019.926	53.54
1020.087	59.74
1020.247	1.61
1020.407	45.79
1020.567	78.53
1020.728	11.3
1020.888	-0.13
1021.048	24.67
1021.208	-4.97
1021.368	-3.23
1021.528	81.05
1021.688	72.33
1021.848	57.41
1022.008	36.1
1022.168	28.35
1022.328	24.67
1022.488	53.35
1022.648	12.08
1022.808	29.51
1022.968	30.68
1023.128	-5.36
1023.288	-7.1
1023.448	42.11
1023.608	67.1
1023.767	73.69
1023.927	-4.39
1024.087	-1.1
1024.247	1.81
1024.406	6.26
1024.566	9.95
1024.726	-6.33
1024.885	10.33
1025.045	47.34
1025.205	31.45
1025.364	11.3
1025.524	47.92
1025.683	16.73
1025.843	29.9
1026.003	14.01
1026.162	90.93
1026.321	85.7
1026.481	30.68
1026.64	9.17
1026.8	21.76
1026.959	41.91
1027.119	1.03
1027.278	10.91
1027.437	18.47
1027.597	34.36
1027.756	26.41
1027.915	30.68
1028.074	55.48
1028.234	7.62
1028.393	20.6
1028.552	47.34
1028.711	-47.6
1028.87	82.99
1029.03	-5.36
1029.189	2.58
1029.348	-45.08
1029.507	34.55
1029.666	-1.49
1029.825	0.26
1029.984	4.13
1030.143	23.9
1030.302	13.82
1030.461	-33.45
1030.62	30.1
1030.779	69.62
1030.938	-15.82
1031.097	-25.7
1031.255	45.6
1031.414	75.24
1031.573	40.36
1031.732	-34.81
1031.891	19.25
1032.049	79.31
1032.208	33.78
1032.367	1.81
1032.525	31.65
1032.684	20.6
1032.843	17.5
1033.001	-59.03
1033.16	138.79
1033.319	45.6
1033.477	41.91
1033.636	-10.01
1033.794	-38.49
1033.953	28.93
1034.111	33.97
1034.27	-2.07
1034.428	51.6
1034.587	-12.53
1034.745	23.9
1034.903	27.38
1035.062	23.31
1035.22	-19.7
1035.378	58.96
1035.537	-22.41
1035.695	42.11
1035.853	21.57
1036.011	66.13
1036.17	35.13
1036.328	-61.55
1036.486	25.83
1036.644	27.38
1036.802	-58.45
1036.96	-1.49
1037.119	2.58
1037.277	-20.28
1037.435	-48.76
1037.593	-33.65
1037.751	31.65
1037.909	46.18
1038.067	46.18
