Data from gum_old_FLMT105791__33__15-42-55-259.txt Node

Date: Mon Mar 20 15:42:55 GMT 2023
User: antho
Spectrometer: FLMT10579
Trigger mode: 0
Integration Time (sec): 1.000000E-1
Scans to average: 10
Electric dark correction enabled: true
Nonlinearity correction enabled: false
Boxcar width: 0
XAxis mode: Wavelengths
Number of Pixels in Spectrum: 3648
>>>>>Begin Spectral Data<<<<<
345.248	-192.04
345.464	-192.04
345.681	-192.04
345.898	-186.03
346.114	-175.57
346.331	-23.67
346.548	13.72
346.764	-17.86
346.981	-15.92
347.197	2.1
347.414	36.97
347.631	-45.18
347.847	75.72
348.064	15.85
348.28	12.17
348.497	-37.81
348.713	-16.11
348.93	26.32
349.146	19.34
349.363	-10.49
349.579	61.19
349.796	14.31
350.012	26.7
350.229	50.92
350.445	36.78
350.661	2.29
350.878	32.13
351.094	67.97
351.311	37.36
351.527	58.48
351.743	43.75
351.96	46.47
352.176	57.51
352.392	60.22
352.609	52.28
352.825	32.71
353.041	34.84
353.257	51.5
353.474	57.51
353.69	44.72
353.906	29.61
354.122	8.3
354.339	111.18
354.555	37.55
354.771	59.25
354.987	112.15
355.203	67
355.42	39.1
355.636	33.49
355.852	33.1
356.068	58.29
356.284	4.23
356.5	117.18
356.716	55.96
356.932	39.69
357.148	61.39
357.364	36
357.58	75.14
357.796	66.42
358.012	103.43
358.228	59.64
358.444	-46.34
358.66	72.24
358.876	56.54
359.092	26.12
359.308	54.8
359.524	47.82
359.74	28.84
359.956	27.87
360.172	70.1
360.388	84.05
360.604	74.56
360.819	131.13
361.035	62.16
361.251	87.15
361.467	30.97
361.683	95.87
361.898	68.55
362.114	97.81
362.33	76.5
362.546	105.75
362.762	60.42
362.977	83.67
363.193	44.53
363.409	110.98
363.624	50.73
363.84	47.24
364.056	65.84
364.271	83.47
364.487	87.15
364.703	54.41
364.918	38.14
365.134	53.64
365.35	55.19
365.565	160.58
365.781	95.1
365.996	131.13
366.212	166.4
366.427	104.59
366.643	66.62
366.858	73.4
367.074	89.48
367.289	149.54
367.505	207.08
367.72	66.81
367.936	65.45
368.151	137.33
368.367	101.49
368.582	115.44
368.798	93.94
369.013	141.98
369.228	101.1
369.444	119.12
369.659	156.13
369.874	99.75
370.09	145.67
370.305	31.74
370.52	96.84
370.736	138.69
370.951	117.38
371.166	137.72
371.381	166.4
371.597	133.27
371.812	77.85
372.027	70.88
372.242	114.67
372.458	141.98
372.673	107.69
372.888	116.6
373.103	107.88
373.318	185.97
373.533	105.75
373.749	111.76
373.964	51.5
374.179	130.17
374.394	84.64
374.609	134.23
374.824	47.44
375.039	153.8
375.254	55.96
375.469	153.03
375.684	134.82
375.899	148.96
376.114	112.92
376.329	90.64
376.544	150.9
376.759	164.46
376.974	96.84
377.189	122.61
377.404	139.85
377.619	161.94
377.834	75.14
378.049	101.1
378.264	103.82
378.478	128.62
378.693	123.97
378.908	163.88
379.123	147.22
379.338	190.81
379.553	122.22
379.767	130.75
379.982	154.19
380.197	160.97
380.412	122.03
380.626	151.48
380.841	229.95
381.056	176.28
381.271	194.49
381.485	143.34
381.7	122.42
381.915	146.44
382.129	123.77
382.344	141.4
382.559	136.17
382.773	151.09
382.988	47.63
383.202	129
383.417	90.25
383.632	195.26
383.846	122.03
384.061	113.31
384.275	88.12
384.49	137.72
384.704	160.58
384.919	151.87
385.133	151.67
385.348	188.29
385.562	132.88
385.777	208.83
385.991	164.27
386.206	132.68
386.42	149.15
386.634	195.65
386.849	187.71
387.063	159.62
387.277	166.4
387.492	166.78
387.706	133.65
387.92	137.33
388.135	184.8
388.349	180.93
388.563	185.19
388.778	205.53
388.992	173.76
389.206	189.26
389.42	251.06
389.635	171.82
389.849	225.88
390.063	226.07
390.277	245.64
390.491	262.11
390.706	234.79
390.92	228.01
391.134	229.75
391.348	245.25
391.562	161.94
391.776	235.95
391.99	224.52
392.205	275.86
392.419	207.28
392.633	209.6
392.847	239.25
393.061	162.72
393.275	234.6
393.489	147.02
393.703	135.4
393.917	161.36
394.131	127.65
394.345	175.89
394.559	214.83
394.773	194.3
394.986	233.43
395.2	205.92
395.414	249.71
395.628	234.98
395.842	263.66
396.056	283.23
396.27	206.31
396.484	257.65
396.697	262.11
396.911	253.78
397.125	211.54
397.339	200.11
397.553	174.53
397.766	223.94
397.98	261.33
398.194	275.09
398.408	269.86
398.621	325.46
398.835	359.18
399.049	350.84
399.262	410.32
399.476	386.69
399.69	397.34
399.903	440.94
400.117	371.57
400.331	397.92
400.544	365.76
400.758	501.97
400.971	378.94
401.185	447.33
401.398	382.62
401.612	430.28
401.826	430.86
402.039	447.52
402.253	417.49
402.466	437.06
402.68	433.96
402.893	439.58
403.106	428.73
403.32	440.74
403.533	451.4
403.747	427.37
403.96	436.29
404.174	440.16
404.387	440.16
404.6	458.37
404.814	496.35
405.027	440.36
405.24	445.59
405.454	407.03
405.667	500.22
405.88	417.11
406.094	465.35
406.307	514.37
406.52	432.99
406.733	403.93
406.947	418.46
407.16	518.05
407.373	471.16
407.586	440.55
407.799	429.89
408.012	503.52
408.226	489.95
408.439	531.8
408.652	435.71
408.865	530.84
409.078	562.61
409.291	538.59
409.504	506.42
409.717	541.1
409.93	530.06
410.143	494.22
410.357	442.68
410.57	411.29
410.783	460.5
410.996	495.77
411.209	481.24
411.421	579.85
411.634	530.25
411.847	526.38
412.06	580.24
412.273	564.16
412.486	561.64
412.699	648.44
412.912	559.7
413.125	558.73
413.338	579.27
413.55	567.84
413.763	556.6
413.976	574.82
414.189	542.46
414.402	568.23
414.615	643.6
414.827	536.07
415.04	612.98
415.253	610.08
415.466	642.82
415.678	659.1
415.891	600
416.104	566.48
416.316	588.96
416.529	606.2
416.742	647.47
416.954	672.08
417.167	617.25
417.38	625
417.592	624.42
417.805	592.25
418.017	562.42
418.23	638.56
418.442	568.62
418.655	587.22
418.868	600.39
419.08	637.78
419.293	655.41
419.505	632.94
419.718	620.93
419.93	648.83
420.142	625.19
420.355	649.41
420.567	661.42
420.78	647.47
420.992	627.71
421.205	738.53
421.417	623.06
421.629	661.61
421.842	644.18
422.054	628.48
422.266	709.86
422.479	710.44
422.691	646.5
422.903	688.35
423.115	596.71
423.328	606.78
423.54	632.55
423.752	669.75
423.964	612.6
424.177	672.66
424.389	646.89
424.601	756.36
424.813	681.57
425.025	706.95
425.238	685.64
425.45	657.74
425.662	673.43
425.874	938.09
426.086	663.75
426.298	671.69
426.51	664.33
426.722	701.33
426.934	661.61
427.146	727.29
427.358	658.51
427.57	702.69
427.782	671.3
427.994	633.71
428.206	637.78
428.418	652.31
428.63	734.27
428.842	742.21
429.054	699.4
429.266	717.61
429.478	676.92
429.69	676.15
429.902	649.99
430.114	663.55
430.325	647.28
430.537	580.63
430.749	584.12
430.961	522.5
431.173	556.99
431.384	572.68
431.596	505.65
431.808	619.38
432.02	685.64
432.231	738.14
432.443	852.65
432.655	793.94
432.867	749.19
433.078	766.04
433.29	847.61
433.502	825.91
433.713	848.77
433.925	817.58
434.136	865.44
434.348	734.66
434.56	704.63
434.771	852.65
434.983	711.21
435.194	759.84
435.406	831.14
435.617	857.88
435.829	907.48
436.04	871.25
436.252	894.11
436.463	911.35
436.675	937.9
436.886	944.68
437.098	939.25
437.309	988.27
437.521	917.75
437.732	930.92
437.943	897.21
438.155	897.4
438.366	825.52
438.578	951.85
438.789	852.84
439	860.4
439.211	823.59
439.423	885.39
439.634	903.02
439.845	915.42
440.057	885.59
440.268	961.15
440.479	921.04
440.69	945.26
440.902	914.26
441.113	920.65
441.324	898.57
441.535	987.5
441.746	1038.45
441.957	951.65
442.168	997.96
442.38	1001.45
442.591	1037.29
442.802	958.44
443.013	1010.94
443.224	1040
443.435	1009.39
443.646	1043.88
443.857	1006.29
444.068	1021.79
444.279	985.75
444.49	1097.35
444.701	1015.78
444.912	1173.69
445.123	1118.86
445.334	1057.05
445.545	1079.91
445.756	1038.45
445.967	1007.65
446.178	1068.68
446.388	1072.16
446.599	1067.13
446.81	1046.2
447.021	1012.68
447.232	1110.53
447.443	1122.15
447.653	1113.82
447.864	1138.81
448.075	1129.32
448.286	1153.54
448.496	1100.84
448.707	1174.85
448.918	1083.01
449.129	1184.93
449.339	1102.2
449.55	1146.56
449.761	1142.88
449.971	1206.82
450.182	1141.91
450.393	1157.99
450.603	1132.81
450.814	1242.27
451.024	1233.75
451.235	1304.47
451.446	1265.14
451.656	1280.83
451.867	1211.66
452.077	1196.16
452.288	1265.52
452.498	1253.12
452.709	1218.83
452.919	1171.56
453.13	1144.24
453.34	1178.53
453.55	1093.09
453.761	1164.39
453.971	1155.67
454.182	1192.29
454.392	1156.44
454.602	1268.24
454.813	1215.15
455.023	1229.88
455.233	1151.21
455.444	1182.21
455.654	1076.23
455.864	1182.99
456.075	1189.96
456.285	1189.77
456.495	1182.41
456.705	1236.46
456.916	1286.64
457.126	1285.67
457.336	1223.48
457.546	1166.91
457.756	1179.89
457.967	1270.56
458.177	1222.32
458.387	1234.91
458.597	1198.1
458.807	1204.3
459.017	1171.56
459.227	1175.04
459.437	1201.59
459.647	1217.67
459.857	1257.39
460.068	1205.85
460.278	1278.12
460.488	1270.95
460.698	1311.64
460.908	1246.15
461.117	1201.01
461.327	1228.71
461.537	1274.82
461.747	1292.07
461.957	1277.34
462.167	1399.99
462.377	1323.65
462.587	1279.28
462.797	1360.07
463.007	1352.71
463.216	1390.3
463.426	1390.88
463.636	1391.27
463.846	1269.98
464.056	1282.57
464.265	1325.97
464.475	1276.57
464.685	1332.56
464.895	1331.79
465.104	1300.4
465.314	1355.04
465.524	1280.83
465.733	1282.77
465.943	1418.2
466.153	1399.21
466.362	1408.12
466.572	1367.24
466.782	1306.6
466.991	1364.53
467.201	1399.21
467.41	1251.57
467.62	1329.46
467.829	1339.73
468.039	1364.53
468.249	1401.73
468.458	1395.92
468.668	1409.09
468.877	1399.4
469.086	1494.53
469.296	1488.72
469.505	1427.88
469.715	1504.8
469.924	1455.78
470.134	1485.82
470.343	1459.85
470.552	1441.83
470.762	1406.38
470.971	1395.53
471.18	1458.69
471.39	1427.11
471.599	1441.64
471.808	1482.33
472.018	1463.92
472.227	1583.85
472.436	1607.88
472.645	1579.59
472.855	1552.46
473.064	1673.94
473.273	1654.57
473.482	1597.61
473.691	1641.2
473.901	1627.64
474.11	1624.93
474.319	1719.86
474.528	1596.83
474.737	1740.4
474.946	1708.04
475.155	1734.01
475.364	1752.61
475.573	1754.93
475.783	1750.09
475.992	1755.12
476.201	1774.69
476.41	1758.42
476.619	1728.58
476.828	1718.51
477.037	1715.41
477.245	1757.45
477.454	1815.38
477.663	1779.92
477.872	1809.37
478.081	1934.53
478.29	1874.47
478.499	1967.47
478.708	1978.32
478.917	1995.95
479.125	1893.85
479.334	1895.59
479.543	1924.85
479.752	1962.24
479.961	1986.46
480.169	2029.66
480.378	1991.11
480.587	2139.13
480.796	2065.7
481.004	2017.85
481.213	2025.98
481.422	2081.2
481.63	2066.86
481.839	2101.16
482.048	2180.01
482.256	2099.22
482.465	2190.09
482.674	2184.08
482.882	2169.94
483.091	2205.2
483.299	2149.01
483.508	2194.16
483.716	2200.55
483.925	2244.92
484.134	2199.19
484.342	2201.9
484.551	2236.78
484.759	2198.03
484.967	2262.74
485.176	2274.56
485.384	2275.34
485.593	2282.7
485.801	2264.1
486.01	2150.56
486.218	2094.18
486.426	1969.99
486.635	1931.24
486.843	1902.76
487.051	1998.86
487.26	2005.06
487.468	2081.39
487.676	2156.37
487.885	2160.44
488.093	2222.83
488.301	2348.96
488.509	2324.35
488.717	2371.82
488.926	2361.55
489.134	2335.4
489.342	2306.72
489.55	2294.32
489.758	2322.8
489.967	2377.44
490.175	2473.15
490.383	2505.89
490.591	2572.54
490.799	2463.08
491.007	2545.81
491.215	2555.11
491.423	2498.53
491.631	2458.43
491.839	2490.59
492.047	2517.13
492.255	2422
492.463	2370.66
492.671	2355.55
492.879	2490.39
493.087	2455.13
493.295	2491.36
493.503	2538.64
493.711	2622.72
493.919	2581.46
494.127	2610.32
494.334	2577.39
494.542	2523.91
494.75	2633.96
494.958	2572.74
495.166	2698.29
495.374	2705.07
495.581	2736.45
495.789	2706.23
495.997	2775.4
496.205	2628.54
496.412	2664.57
496.62	2688.02
496.828	2718.63
497.035	2724.63
497.243	2795.35
497.451	2744.01
497.658	2806.59
497.866	2765.71
498.074	2875.76
498.281	2720.37
498.489	2794.38
498.696	2676.78
498.904	2665.93
499.112	2666.51
499.319	2778.69
499.527	2750.02
499.734	2817.44
499.942	2709.52
500.149	2745.56
500.357	2771.91
500.564	2701.77
500.771	2755.63
500.979	2682.4
501.186	2642.49
501.394	2729.67
501.601	2638.03
501.808	2679.1
502.016	2667.67
502.223	2641.71
502.43	2670.77
502.638	2696.15
502.845	2678.52
503.052	2827.51
503.26	2733.16
503.467	2824.22
503.674	2782.95
503.881	2817.44
504.089	2833.33
504.296	2795.16
504.503	2684.72
504.71	2750.21
504.917	2716.11
505.125	2756.22
505.332	2752.73
505.539	2819.76
505.746	2934.08
505.953	2923.61
506.16	2931.94
506.367	2980.77
506.574	3013.9
506.781	2950.16
506.988	2890.1
507.195	2905.59
507.402	2888.74
507.609	2915.67
507.816	2859.87
508.023	2843.4
508.23	2822.09
508.437	2787.41
508.644	2821.12
508.851	2874.98
509.058	2892.03
509.265	2879.25
509.472	2925.16
509.679	2992.78
509.885	2971.86
510.092	2966.82
510.299	2942.6
510.506	2866.26
510.713	2926.13
510.92	2894.36
511.126	2938.34
511.333	2981.35
511.54	2965.46
511.746	2993.56
511.953	2998.21
512.16	3012.35
512.367	2977.86
512.573	2958.49
512.78	2927.68
512.987	2937.95
513.193	2907.92
513.4	2842.05
513.606	2898.81
513.813	2891.06
514.02	2866.07
514.226	2927.88
514.433	2936.01
514.639	2808.33
514.846	2860.26
515.052	2878.47
515.259	2882.54
515.465	2909.86
515.672	2896.49
515.878	3008.67
516.085	2974.96
516.291	2972.24
516.497	2951.71
516.704	2921.68
516.91	2815.31
517.117	2679.69
517.323	2582.04
517.529	2619.82
517.736	2620.79
517.942	2607.81
518.148	2687.24
518.354	2775.4
518.561	2754.67
518.767	2725.99
518.973	2787.99
519.179	2782.57
519.386	2814.53
519.592	2846.31
519.798	2843.21
520.004	2964.69
520.21	2950.93
520.417	3031.92
520.623	3087.14
520.829	3078.42
521.035	3053.81
521.241	3041.22
521.447	3112.32
521.653	3196.41
521.859	3087.33
522.065	3117.55
522.271	3245.62
522.477	3196.6
522.683	3254.53
522.889	3187.11
523.095	3147.59
523.301	3118.52
523.507	3081.52
523.713	3115.42
523.919	3073.38
524.125	3184.2
524.331	3221.4
524.537	3307.81
524.742	3305.3
524.948	3315.37
525.154	3349.86
525.36	3423.48
525.566	3275.65
525.772	3365.16
525.977	3267.13
526.183	3315.76
526.389	3382.79
526.595	3225.67
526.8	3219.27
527.006	3103.8
527.212	3030.37
527.417	2975.93
527.623	2974.57
527.829	3074.35
528.034	3120.65
528.24	3151.46
528.446	3186.14
528.651	3349.86
528.857	3346.95
529.062	3391.71
529.268	3370.98
529.473	3409.34
529.679	3494.59
529.884	3498.27
530.09	3492.26
530.295	3441.89
530.501	3472.5
530.706	3476.76
530.912	3430.26
531.117	3444.02
531.323	3438.98
531.528	3558.33
531.733	3569.18
531.939	3499.82
532.144	3550.77
532.35	3489.55
532.555	3544.57
532.76	3456.61
532.966	3422.9
533.171	3367.88
533.376	3317.11
533.581	3327.96
533.787	3341.91
533.992	3472.69
534.197	3432.97
534.402	3458.16
534.607	3451.77
534.813	3538.95
535.018	3497.3
535.223	3522.68
535.428	3550.19
535.633	3594.95
535.838	3617.03
536.043	3644.93
536.249	3746.26
536.454	3597.47
536.659	3673.22
536.864	3539.92
537.069	3555.04
537.274	3584.68
537.479	3578.87
537.684	3577.7
537.889	3516.09
538.094	3636.99
538.299	3574.6
538.504	3617.81
538.708	3597.47
538.913	3642.8
539.118	3643.58
539.323	3675.55
539.528	3606.38
539.733	3578.87
539.938	3606.38
540.142	3570.73
540.347	3521.32
540.552	3509.31
540.757	3474.82
540.962	3520.16
541.166	3456.81
541.371	3456.61
541.576	3479.09
541.781	3414.38
541.985	3597.27
542.19	3546.12
542.395	3648.23
542.599	3651.33
542.804	3615.68
543.008	3668.96
543.213	3567.63
543.418	3584.29
543.622	3604.63
543.827	3548.06
544.031	3666.44
544.236	3716.04
544.44	3683.68
544.645	3774.16
544.849	3697.25
545.054	3683.3
545.258	3715.46
545.463	3735.41
545.667	3609.67
545.872	3692.4
546.076	3729.6
546.281	3648.03
546.485	3633.12
546.689	3658.3
546.894	3649.2
547.098	3688.33
547.302	3646.1
547.507	3697.25
547.711	3701.31
547.915	3693.18
548.119	3617.23
548.324	3582.94
548.528	3664.5
548.732	3634.86
548.936	3660.63
549.141	3657.92
549.345	3632.15
549.549	3669.54
549.753	3668.96
549.957	3744.13
550.161	3716.04
550.366	3713.91
550.57	3651.72
550.774	3638.54
550.978	3671.87
551.182	3670.7
551.386	3605.99
551.59	3632.53
551.794	3637.18
551.998	3729.99
552.202	3698.02
552.406	3677.1
552.61	3713.91
552.814	3703.83
553.018	3760.6
553.222	3665.08
553.426	3645.32
553.63	3754.01
553.833	3739.29
554.037	3594.37
554.241	3673.22
554.445	3672.25
554.649	3624.2
554.853	3631.95
555.056	3722.43
555.26	3726.5
555.464	3706.16
555.668	3695.89
555.871	3716.81
556.075	3717.01
556.279	3678.65
556.483	3620.72
556.686	3652.49
556.89	3623.82
557.094	3603.86
557.297	3555.23
557.501	3612.38
557.704	3518.03
557.908	3604.83
558.112	3533.14
558.315	3623.23
558.519	3583.32
558.722	3539.15
558.926	3511.05
559.129	3432.78
559.333	3454.67
559.536	3473.27
559.74	3411.47
559.943	3387.25
560.147	3401.98
560.35	3420.38
560.553	3463.01
560.757	3373.69
560.96	3492.84
561.164	3448.86
561.367	3593.79
561.57	3480.25
561.774	3557.17
561.977	3458.94
562.18	3450.41
562.384	3516.87
562.587	3444.21
562.79	3434.52
562.993	3389.58
563.197	3465.91
563.4	3465.14
563.603	3503.89
563.806	3564.92
564.009	3448.47
564.212	3481.61
564.416	3320.02
564.619	3408.37
564.822	3366.91
565.025	3464.75
565.228	3344.82
565.431	3398.29
565.634	3280.3
565.837	3333.2
566.04	3310.14
566.243	3269.06
566.446	3188.27
566.649	3317.7
566.852	3154.56
567.055	3248.33
567.258	3268.1
567.461	3343.46
567.664	3294.45
567.867	3244.46
568.07	3276.23
568.273	3338.81
568.475	3370.78
568.678	3223.73
568.881	3256.47
569.084	3259.38
569.287	3126.27
569.489	3158.24
569.692	3219.66
569.895	3214.23
570.098	3154.17
570.3	3173.93
570.503	3153.98
570.706	3153.01
570.909	3108.06
571.111	3065.24
571.314	3037.73
571.516	3073.57
571.719	3078.61
571.922	3077.64
572.124	3070.86
572.327	3113.1
572.529	3048.97
572.732	3075.32
572.935	3106.9
573.137	3196.6
573.34	3124.14
573.542	3192.73
573.745	3150.88
573.947	3148.55
574.15	3058.66
574.352	3074.74
574.554	3195.83
574.757	3047.61
574.959	3033.86
575.162	3076.29
575.364	3054.59
575.566	3143.71
575.769	2974.96
575.971	3030.17
576.173	2868.4
576.376	3017
576.578	3023.97
576.78	3046.45
576.982	2933.69
577.185	3024.56
577.387	2977.09
577.589	2963.14
577.791	3004.6
577.993	2982.71
578.196	2977.48
578.398	2963.53
578.6	2958.88
578.802	2861.03
579.004	2858.9
579.206	2897.46
579.408	2950.54
579.61	2857.55
579.812	2990.26
580.014	2884.67
580.216	2904.43
580.418	2929.43
580.62	2863.75
580.822	2862.58
581.024	2933.3
581.226	2931.17
581.428	2876.73
581.63	3055.94
581.832	2889.51
582.034	2993.36
582.236	2978.44
582.438	2972.24
582.64	3015.06
582.841	3064.27
583.043	3024.94
583.245	2996.66
583.447	2966.63
583.649	2976.12
583.85	2923.61
584.052	2956.36
584.254	2909.08
584.456	2995.3
584.657	2898.43
584.859	2955.78
585.061	2934.08
585.262	2965.85
585.464	2883.31
585.666	2996.07
585.867	2851.73
586.069	2936.21
586.27	2873.43
586.472	2887.19
586.674	2852.31
586.875	2838.56
587.077	2876.34
587.278	2893.97
587.48	2834.1
587.681	2933.88
587.883	2881.38
588.084	2808.92
588.285	2824.22
588.487	2800.2
588.688	2812.01
588.89	2696.54
589.091	2649.46
589.292	2609.55
589.494	2576.42
589.695	2504.34
589.896	2472.96
590.098	2469.08
590.299	2529.34
590.5	2545.61
590.702	2544.45
590.903	2571.57
591.104	2685.11
591.305	2646.17
591.507	2708.55
591.708	2676.59
591.909	2644.81
592.11	2718.44
592.311	2699.45
592.512	2656.63
592.714	2610.91
592.915	2651.01
593.116	2635.71
593.317	2628.92
593.518	2638.42
593.719	2665.74
593.92	2736.07
594.121	2701
594.322	2663.41
594.523	2714.37
594.724	2599.86
594.925	2662.64
595.126	2682.01
595.327	2631.06
595.528	2694.6
595.729	2684.72
595.929	2681.24
596.13	2692.67
596.331	2698.67
596.532	2676.59
596.733	2755.05
596.934	2710.3
597.135	2723.09
597.335	2694.22
597.536	2677.17
597.737	2714.56
597.938	2684.72
598.138	2692.47
598.339	2642.49
598.54	2733.55
598.74	2617.11
598.941	2662.83
599.142	2682.98
599.342	2656.24
599.543	2590.17
599.744	2619.62
599.944	2622.72
600.145	2672.9
600.345	2632.02
600.546	2687.63
600.746	2660.89
600.947	2720.18
601.147	2650.04
601.348	2688.4
601.548	2586.11
601.749	2657.02
601.949	2602.19
602.15	2598.12
602.35	2583.2
602.551	2587.85
602.751	2545.42
602.951	2581.07
603.152	2532.44
603.352	2613.42
603.552	2589.79
603.753	2624.08
603.953	2620.01
604.153	2618.07
604.354	2657.99
604.554	2630.86
604.754	2610.13
604.954	2587.46
605.155	2634.54
605.355	2595.21
605.555	2619.43
605.755	2652.37
605.955	2599.28
606.155	2631.44
606.356	2593.66
606.556	2637.25
606.756	2614.59
606.956	2536.89
607.156	2631.06
607.356	2582.04
607.556	2592.69
607.756	2580.87
607.956	2640.16
608.156	2585.14
608.356	2529.92
608.556	2610.13
608.756	2523.53
608.956	2524.49
609.156	2547.55
609.356	2523.72
609.556	2498.73
609.755	2518.1
609.955	2494.08
610.155	2538.83
610.355	2484.39
610.555	2456.68
610.755	2465.4
610.954	2402.05
611.154	2487.88
611.354	2497.18
611.554	2455.13
611.753	2478.77
611.953	2440.8
612.153	2480.13
612.352	2437.31
612.552	2439.83
612.752	2372.02
612.951	2427.81
613.151	2419.48
613.351	2444.28
613.55	2428.2
613.75	2449.51
613.949	2420.84
614.149	2433.43
614.348	2427.43
614.548	2409.21
614.747	2343.92
614.947	2382.09
615.146	2345.28
615.346	2449.13
615.545	2461.53
615.745	2443.12
615.944	2421.81
616.144	2389.84
616.343	2409.6
616.542	2353.8
616.742	2392.75
616.941	2320.87
617.14	2302.07
617.34	2363.88
617.539	2371.63
617.738	2347.6
617.938	2431.5
618.137	2369.69
618.336	2342.57
618.535	2431.69
618.734	2367.56
618.934	2406.31
619.133	2379.96
619.332	2417.55
619.531	2328.03
619.73	2379.38
619.929	2407.86
620.128	2382.09
620.328	2453.39
620.527	2387.32
620.726	2375.89
620.925	2401.08
621.124	2411.54
621.323	2388.87
621.522	2302.65
621.721	2334.04
621.92	2297.03
622.119	2378.21
622.318	2332.1
622.517	2329.58
622.715	2350.12
622.914	2277.47
623.113	2342.57
623.312	2232.9
623.511	2310.02
623.71	2278.05
623.909	2252.86
624.107	2350.7
624.306	2198.22
624.505	2249.57
624.704	2252.47
624.902	2273.4
625.101	2300.13
625.3	2278.82
625.499	2240.65
625.697	2222.05
625.896	2211.79
626.095	2256.74
626.293	2183.5
626.492	2208.69
626.69	2247.05
626.889	2190.09
627.088	2253.44
627.286	2242.4
627.485	2199.97
627.683	2215.47
627.882	2239.69
628.08	2096.12
628.279	2180.98
628.477	2236.59
628.676	2150.95
628.874	2171.29
629.073	2118.98
629.271	2092.83
629.469	2160.44
629.668	2120.34
629.866	2115.49
630.065	2119.37
630.263	2157.15
630.461	2109.29
630.66	2100.38
630.858	2148.24
631.056	2135.84
631.254	2146.3
631.453	2088.76
631.651	2164.9
631.849	2090.69
632.047	2068.41
632.245	2076.94
632.444	2149.01
632.642	2140.87
632.84	2156.76
633.038	2100.38
633.236	2048.65
633.434	2104.26
633.632	2076.94
633.83	2074.23
634.028	2176.33
634.227	2117.43
634.425	2175.75
634.623	2086.63
634.821	2097.09
635.019	2110.65
635.216	2097.48
635.414	2121.31
635.612	2119.37
635.81	2124.41
636.008	2160.25
636.206	2110.07
636.404	2149.21
636.602	2085.08
636.8	2101.54
636.997	2099.8
637.195	2170.32
637.393	2130.99
637.591	2200.16
637.789	2120.53
637.986	2108.13
638.184	2136.61
638.382	2150.17
638.58	2146.88
638.777	2174.97
638.975	2129.06
639.173	2147.27
639.37	2123.44
639.568	2121.11
639.765	2112.39
639.963	2112.78
640.161	2084.88
640.358	2098.44
640.556	2068.03
640.753	2059.89
640.951	2012.61
641.148	2075.39
641.346	2067.06
641.543	2037.41
641.741	2082.75
641.938	1998.28
642.136	2011.26
642.333	1970.76
642.531	2064.15
642.728	2115.11
642.925	2057.95
643.123	2002.54
643.32	2017.46
643.517	1956.04
643.715	2006.03
643.912	2020.17
644.109	2034.31
644.306	2012.42
644.504	1990.33
644.701	2002.54
644.898	2012.42
645.095	1960.88
645.293	2031.02
645.49	1997.89
645.687	1982.97
645.884	2019.59
646.081	1935.89
646.278	1936.86
646.475	1954.68
646.672	1936.28
646.87	1949.84
647.067	1946.74
647.264	1935.89
647.461	1918.07
647.658	1830.49
647.855	1921.55
648.052	1900.63
648.249	1774.3
648.446	1856.45
648.642	1877.18
648.839	1834.37
649.036	1864.98
649.233	1866.14
649.43	1833.2
649.627	1830.3
649.824	1832.62
650.021	1787.09
650.217	1809.37
650.414	1821.58
650.611	1849.09
650.808	1914.38
651.004	1858.78
651.201	1869.05
651.398	1932.6
651.595	1871.18
651.791	1856.84
651.988	1876.22
652.185	1828.55
652.381	1891.72
652.578	1824.68
652.775	1835.53
652.971	1869.82
653.168	1841.73
653.364	1916.9
653.561	1790.77
653.757	1825.07
653.954	1899.27
654.15	1816.74
654.347	1919.62
654.543	1875.44
654.74	1820.22
654.936	1809.57
655.133	1840.95
655.329	1851.8
655.525	1800.46
655.722	1851.8
655.918	1748.34
656.115	1765.2
656.311	1663.68
656.507	1600.32
656.704	1556.53
656.9	1593.73
657.096	1613.49
657.292	1605.16
657.489	1686.73
657.685	1638.29
657.881	1692.54
658.077	1678.21
658.273	1759
658.47	1822.35
658.666	1765.39
658.862	1793.1
659.058	1774.69
659.254	1843.67
659.45	1778.18
659.646	1805.89
659.842	1833.01
660.038	1863.04
660.234	1757.26
660.43	1813.05
660.626	1868.27
660.822	1842.89
661.018	1878.73
661.214	1836.5
661.41	1801.04
661.606	1891.13
661.802	1880.09
661.998	1813.05
662.194	1838.44
662.39	1861.88
662.586	1849.29
662.781	1853.35
662.977	1857.23
663.173	1858.78
663.369	1840.18
663.564	1809.95
663.76	1836.11
663.956	1845.41
664.152	1828.75
664.347	1789.8
664.543	1832.62
664.739	1788.06
664.934	1772.17
665.13	1717.34
665.326	1813.25
665.521	1788.25
665.717	1758.81
665.912	1765
666.108	1705.14
666.304	1802.98
666.499	1734.78
666.695	1684.79
666.89	1756.67
667.086	1799.3
667.281	1767.72
667.477	1832.62
667.672	1778.95
667.867	1771.98
668.063	1783.02
668.258	1741.95
668.454	1733.04
668.649	1798.14
668.844	1743.31
669.04	1765.78
669.235	1740.79
669.43	1713.27
669.626	1678.98
669.821	1699.32
670.016	1694.09
670.211	1719.09
670.407	1690.41
670.602	1703.01
670.797	1669.29
670.992	1751.25
671.187	1663.29
671.382	1784.19
671.578	1665.81
671.773	1755.71
671.968	1650.11
672.163	1707.27
672.358	1682.08
672.553	1631.13
672.748	1685.37
672.943	1738.66
673.138	1666
673.333	1717.92
673.528	1636.74
673.723	1669.1
673.918	1646.04
674.113	1630.16
674.308	1740.01
674.503	1660.19
674.698	1690.22
674.892	1666.97
675.087	1679.95
675.282	1683.24
675.477	1627.25
675.672	1693.9
675.867	1632.68
676.061	1616.79
676.256	1588.31
676.451	1628.61
676.646	1651.86
676.84	1613.49
677.035	1622.6
677.23	1635.97
677.424	1689.83
677.619	1680.92
677.814	1703.01
678.008	1665.42
678.203	1547.04
678.397	1620.86
678.592	1623.18
678.787	1703.97
678.981	1611.17
679.176	1663.68
679.37	1616.59
679.565	1617.76
679.759	1619.11
679.954	1670.84
680.148	1664.45
680.342	1696.81
680.537	1641.98
680.731	1609.43
680.926	1670.65
681.12	1658.06
681.314	1609.43
681.509	1612.33
681.703	1613.49
681.897	1624.15
682.092	1599.16
682.286	1589.86
682.48	1695.45
682.674	1640.23
682.869	1617.76
683.063	1647.98
683.257	1669.68
683.451	1561.76
683.645	1641.2
683.839	1601.09
684.034	1573.58
684.228	1630.16
684.422	1526.11
684.616	1567.96
684.81	1609.43
685.004	1568.55
685.198	1588.11
685.392	1581.53
685.586	1585.6
685.78	1591.21
685.974	1563.9
686.168	1585.6
686.362	1627.83
686.556	1518.17
686.75	1467.8
686.944	1432.53
687.138	1395.34
687.331	1307.18
687.525	1306.21
687.719	1216.12
687.913	1309.51
688.107	1307.37
688.301	1280.83
688.494	1324.23
688.688	1302.53
688.882	1271.53
689.076	1278.51
689.269	1303.69
689.463	1400.76
689.657	1321.32
689.85	1324.81
690.044	1348.45
690.238	1324.23
690.431	1343.41
690.625	1347.87
690.818	1427.88
691.012	1423.62
691.205	1449.58
691.399	1371.31
691.593	1383.9
691.786	1483.3
691.98	1488.92
692.173	1503.83
692.366	1439.9
692.56	1473.61
692.753	1479.03
692.947	1424.98
693.14	1493.37
693.333	1483.3
693.527	1413.55
693.72	1468.77
693.914	1450.94
694.107	1457.53
694.3	1442.61
694.493	1443.97
694.687	1515.46
694.88	1426.53
695.073	1518.75
695.266	1505.77
695.46	1464.89
695.653	1511.2
695.846	1479.23
696.039	1439.9
696.232	1443.97
696.425	1518.75
696.618	1571.26
696.812	1546.26
697.005	1584.43
697.198	1664.45
697.391	1587.15
697.584	1599.54
697.777	1689.25
697.97	1633.45
698.163	1616.79
698.356	1617.95
698.549	1691.96
698.742	1647.59
698.935	1604.78
699.127	1653.99
699.32	1589.08
699.513	1604.97
699.706	1663.48
699.899	1665.61
700.092	1626.09
700.285	1664.84
700.477	1593.15
700.67	1669.29
700.863	1687.89
701.056	1795.23
701.248	1729.55
701.441	1762.87
701.634	1676.85
701.826	1798.33
702.019	1711.92
702.212	1782.25
702.404	1746.21
702.597	1720.83
702.79	1722.77
702.982	1761.32
703.175	1809.95
703.367	1817.32
703.56	1870.4
703.752	1921.75
703.945	1889.97
704.137	1880.67
704.33	1938.8
704.522	1908.57
704.715	1938.21
704.907	1920.58
705.1	2006.22
705.292	1986.46
705.484	1968.63
705.677	2041.48
705.869	2044.19
706.061	2101.93
706.254	2112.39
706.446	2069.58
706.638	2099.61
706.831	2151.34
707.023	2115.11
707.215	2201.71
707.407	2231.16
707.599	2195.51
707.792	2253.44
707.984	2255.77
708.176	2277.85
708.368	2231.35
708.56	2287.35
708.752	2292.77
708.944	2270.1
709.136	2355.93
709.329	2302.07
709.521	2466.56
709.713	2393.13
709.905	2415.61
710.097	2462.88
710.289	2409.8
710.481	2457.46
710.672	2449.9
710.864	2459.01
711.056	2506.48
711.248	2523.53
711.44	2548.71
711.632	2516.74
711.824	2554.52
712.016	2605.67
712.207	2617.69
712.399	2617.69
712.591	2668.64
712.783	2672.32
712.975	2697.9
713.166	2648.1
713.358	2693.44
713.55	2721.73
713.741	2721.73
713.933	2802.33
714.125	2728.32
714.316	2758.35
714.508	2879.83
714.7	2803.49
714.891	2862.2
715.083	2859.68
715.274	2807.95
715.466	2870.14
715.657	2913.73
715.849	2837.01
716.04	2849.21
716.232	2834.1
716.423	2904.43
716.615	2810.08
716.806	2776.95
716.998	2725.99
717.189	2662.05
717.381	2612.07
717.572	2552.2
717.763	2589.4
717.955	2554.33
718.146	2551.23
718.337	2480.32
718.528	2418.9
718.72	2386.16
718.911	2422.58
719.102	2379.57
719.293	2465.59
719.485	2451.84
719.676	2413.86
719.867	2387.9
720.058	2392.36
720.249	2389.26
720.44	2433.63
720.632	2489.62
720.823	2544.26
721.014	2652.56
721.205	2708.75
721.396	2775.59
721.587	2929.62
721.778	2943.96
721.969	2967.21
722.16	3085.59
722.351	3098.18
722.542	3194.28
722.733	3230.32
722.924	3160.37
723.115	3227.02
723.305	3204.35
723.496	3196.41
723.687	3069.51
723.878	3070.67
724.069	3080.74
724.26	3135.77
724.45	3054.39
724.641	3017.39
724.832	3105.74
725.023	3063.11
725.213	3077.45
725.404	3048.58
725.595	3046.45
725.785	3070.09
725.976	3145.65
726.167	3110.19
726.357	3190.02
726.548	3275.07
726.739	3130.92
726.929	3268.29
727.12	3271.78
727.31	3336.1
727.501	3328.93
727.691	3289.41
727.882	3316.73
728.072	3320.02
728.263	3339.2
728.453	3367.68
728.644	3420.77
728.834	3357.41
729.024	3389.96
729.215	3336.88
729.405	3405.66
729.596	3475.6
729.786	3474.63
729.976	3516.87
730.167	3522.1
730.357	3531.79
730.547	3572.47
730.737	3574.22
730.928	3591.85
731.118	3678.45
731.308	3606.18
731.498	3636.02
731.688	3771.26
731.879	3746.46
732.069	3780.36
732.259	3836.16
732.449	3867.36
732.639	3969.27
732.829	3996.97
733.019	4046.96
733.209	4099.08
733.399	4149.84
733.589	4199.44
733.779	4193.82
733.969	4251.75
734.159	4270.16
734.349	4352.69
734.539	4430
734.729	4368
734.919	4399.39
735.109	4513.12
735.299	4362.57
735.488	4423.8
735.678	4455.77
735.868	4439.3
736.058	4403.45
736.248	4431.94
736.437	4408.3
736.627	4364.32
736.817	4560.97
737.007	4471.27
737.196	4531.13
737.386	4518.54
737.576	4505.17
737.765	4579.96
737.955	4595.46
738.144	4760.72
738.334	4660.94
738.524	4561.16
738.713	4648.35
738.903	4632.66
739.092	4641.96
739.282	4618.32
739.471	4674.7
739.661	4646.8
739.85	4687.1
740.04	4715.39
740.229	4775.64
740.419	4782.23
740.608	4778.94
740.797	4771.57
740.987	4810.71
741.176	4794.63
741.365	4802.38
741.555	4779.13
741.744	4848.49
741.933	4784.75
742.123	4844.62
742.312	4822.92
742.501	4861.86
742.69	4903.9
742.88	4764.99
743.069	4957.18
743.258	4879.49
743.447	4945.37
743.636	4939.55
743.825	4863.6
744.014	4927.54
744.204	4991.67
744.393	4914.75
744.582	5043.79
744.771	5031.58
744.96	4972.49
745.149	4960.87
745.338	4979.85
745.527	5034.1
745.716	5006.2
745.905	4962.22
746.094	5081.76
746.283	5034.3
746.471	5037.01
746.66	5056.77
746.849	5136.21
747.038	5078.28
747.227	5018.41
747.416	5035.46
747.604	4992.64
747.793	5056.58
747.982	5068.4
748.171	5093.19
748.359	5020.93
748.548	5039.33
748.737	5021.12
748.926	5062.58
749.114	4937.81
749.303	5029.65
749.491	5031.78
749.68	4942.07
749.869	5049.02
750.057	4958.15
750.246	4980.05
750.434	4968.62
750.623	5001.75
750.811	4972.1
751	5033.13
751.188	4929.48
751.377	4966.1
751.565	4940.13
751.754	4914.56
751.942	4903.52
752.131	5071.88
752.319	4881.43
752.507	4880.46
752.696	4930.83
752.884	5000.58
753.072	4949.24
753.261	4981.98
753.449	4981.6
753.637	4917.85
753.825	5029.26
754.014	4937.03
754.202	4959.12
754.39	4985.47
754.578	4971.72
754.766	4904.29
754.955	4869.03
755.143	5034.1
755.331	4938.78
755.519	4931.8
755.707	4908.36
755.895	4834.93
756.083	4930.64
756.271	4842.1
756.459	4862.44
756.647	4894.6
756.835	4845.2
757.023	4850.82
757.211	4854.3
757.399	4836.67
757.587	4772.74
757.775	4739.8
757.963	4820.01
758.151	4805.29
758.339	4762.47
758.526	4733.99
758.714	4765.96
758.902	4670.63
759.09	4538.11
759.278	4323.63
759.465	4099.27
759.653	3680
759.841	3388.03
760.028	2982.51
760.216	2612.46
760.404	2460.17
760.591	2140.1
760.779	1814.99
760.967	1656.89
761.154	1488.33
761.342	1544.91
761.529	1530.18
761.717	1616.4
761.905	1628.8
762.092	1787.48
762.28	1729.36
762.467	1761.32
762.655	1724.32
762.842	1752.02
763.029	1785.15
763.217	1837.66
763.404	1834.56
763.592	1875.63
763.779	1823.32
763.966	1927.95
764.154	1947.51
764.341	2042.45
764.528	2023.66
764.716	2102.51
764.903	2143.97
765.09	2268.75
765.277	2279.99
765.465	2491.17
765.652	2576.03
765.839	2671.94
766.026	2807.56
766.213	2865.49
766.4	2954.42
766.588	3183.23
766.775	3167.73
766.962	3302.39
767.149	3382.21
767.336	3554.65
767.523	3550.58
767.71	3635.25
767.897	3769.13
768.084	3863.29
768.271	3913.86
768.458	3973.92
768.645	4078.35
768.832	3965.97
769.019	4036.5
769.206	4045.99
769.392	4135.31
769.579	4190.33
769.766	4237.61
769.953	4200.21
770.14	4195.18
770.327	4238.38
770.513	4241.48
770.7	4373.81
770.887	4215.91
771.073	4266.28
771.26	4280.81
771.447	4269.96
771.634	4236.64
771.82	4347.66
772.007	4175.41
772.193	4265.51
772.38	4298.06
772.567	4266.86
772.753	4244.97
772.94	4322.66
773.126	4320.34
773.313	4338.16
773.499	4281.78
773.686	4329.83
773.872	4211.45
774.059	4292.05
774.245	4225.79
774.432	4193.82
774.618	4152.55
774.804	4225.21
774.991	4170.57
775.177	4182.58
775.363	4146.93
775.55	4223.85
775.736	4123.1
775.922	4154.1
776.109	4144.22
776.295	4140.93
776.481	4173.28
776.667	4180.26
776.853	4139.18
777.04	4090.94
777.226	4142.67
777.412	4225.01
777.598	4056.07
777.784	4069.24
777.97	4073.7
778.156	4099.85
778.342	4122.71
778.528	4017.32
778.715	3943.5
778.901	4004.53
779.087	4041.15
779.272	3962.29
779.458	3969.85
779.644	4003.37
779.83	3982.05
780.016	4076.6
780.202	4021.97
780.388	4003.17
780.574	3913.47
780.76	3921.8
780.946	3979.34
781.131	3955.32
781.317	3933.42
781.503	3892.16
781.689	3927.61
781.874	4031.27
782.06	3866.58
782.246	3924.12
782.432	3898.16
782.617	3906.49
782.803	3968.1
782.989	3821.83
783.174	3851.86
783.36	3835.97
783.545	3779.39
783.731	3810.01
783.916	3714.49
784.102	3798.77
784.288	3769.51
784.473	3797.22
784.659	3757.5
784.844	3797.99
785.029	3773.97
785.215	3705.58
785.4	3685.43
785.586	3771.84
785.771	3714.3
785.956	3779.78
786.142	3716.04
786.327	3688.14
786.512	3684.46
786.698	3667.99
786.883	3641.06
787.068	3657.92
787.254	3624.98
787.439	3617.62
787.624	3622.46
787.809	3611.03
787.994	3602.31
788.18	3642.8
788.365	3558.52
788.55	3605.41
788.735	3620.52
788.92	3570.54
789.105	3560.27
789.29	3596.69
789.475	3491.87
789.66	3522.49
789.845	3438.79
790.03	3485.29
790.215	3519.58
790.4	3526.75
790.585	3545.93
790.77	3500.21
790.955	3401.98
791.14	3475.99
791.325	3551.74
791.51	3373.69
791.695	3484.9
791.879	3434.33
792.064	3379.89
792.249	3489.55
792.434	3426
792.618	3475.79
792.803	3454.67
792.988	3415.34
793.173	3416.7
793.357	3458.94
793.542	3352.96
793.727	3450.02
793.911	3470.17
794.096	3397.13
794.281	3462.04
794.465	3519.58
794.65	3411.66
794.834	3485.87
795.019	3501.37
795.203	3485.67
795.388	3486.26
795.572	3543.99
795.757	3479.28
795.941	3549.42
796.126	3467.66
796.31	3427.36
796.494	3458.55
796.679	3454.67
796.863	3438.21
797.048	3526.75
797.232	3467.85
797.416	3489.36
797.601	3511.83
797.785	3555.62
797.969	3509.89
798.153	3441.69
798.338	3547.09
798.522	3578.67
798.706	3570.54
798.89	3560.07
799.074	3622.65
799.258	3593.59
799.443	3500.21
799.627	3556.78
799.811	3601.92
799.995	3494.39
800.179	3482.77
800.363	3506.02
800.547	3546.9
800.731	3538.76
800.915	3457.58
801.099	3485.48
801.283	3486.64
801.467	3490.52
801.651	3448.09
801.835	3548.45
802.019	3512.6
802.202	3516.09
802.386	3456.81
802.57	3407.4
802.754	3448.09
802.938	3438.79
803.121	3434.91
803.305	3542.25
803.489	3455.45
803.673	3531.98
803.856	3475.99
804.04	3425.03
804.224	3483.16
804.407	3459.32
804.591	3458.16
804.775	3450.02
804.958	3492.07
805.142	3565.11
805.326	3465.14
805.509	3471.14
805.693	3536.44
805.876	3516.29
806.06	3500.59
806.243	3519.39
806.427	3543.02
806.61	3529.07
806.794	3461.26
806.977	3506.21
807.16	3507.18
807.344	3508.34
807.527	3528.49
807.71	3448.09
807.894	3460.68
808.077	3499.24
808.26	3401.39
808.444	3413.02
808.627	3481.02
808.81	3400.81
808.993	3372.53
809.177	3310.33
809.36	3352.96
809.543	3361.48
809.726	3244.46
809.909	3267.32
810.092	3256.08
810.276	3316.53
810.459	3279.33
810.642	3286.11
810.825	3184.4
811.008	3229.35
811.191	3145.45
811.374	3200.48
811.557	3187.3
811.74	3272.16
811.923	3138.29
812.106	3095.47
812.289	3062.92
812.472	3072.8
812.654	3087.52
812.837	3037.73
813.02	2977.28
813.203	2990.84
813.386	2837.78
813.569	2840.5
813.751	2753.12
813.934	2823.64
814.117	2765.52
814.3	2729.09
814.482	2667.87
814.665	2616.91
814.848	2593.08
815.03	2560.14
815.213	2544.26
815.396	2525.08
815.578	2473.54
815.761	2416.77
815.943	2534.76
816.126	2352.06
816.309	2364.46
816.491	2323.38
816.674	2263.9
816.856	2264.49
817.039	2285.99
817.221	2357.29
817.403	2292.77
817.586	2275.34
817.768	2309.24
817.951	2248.02
818.133	2238.33
818.315	2245.11
818.498	2314.47
818.68	2366.2
818.862	2324.16
819.045	2324.55
819.227	2336.37
819.409	2291.03
819.591	2340.24
819.774	2279.99
819.956	2286.19
820.138	2339.47
820.32	2302.85
820.502	2391.39
820.684	2476.25
820.866	2452.03
821.048	2567.7
821.231	2539.61
821.413	2527.21
821.595	2521.98
821.777	2506.28
821.959	2509.58
822.141	2594.44
822.323	2456.88
822.505	2362.72
822.686	2308.27
822.868	2203.65
823.05	2063.38
823.232	2035.48
823.414	1995.37
823.596	2038.38
823.778	2030.24
823.96	2100.38
824.141	2071.51
824.323	2112.2
824.505	2169.74
824.687	2283.47
824.868	2282.31
825.05	2376.86
825.232	2431.3
825.413	2498.92
825.595	2454.36
825.777	2400.11
825.958	2420.45
826.14	2433.05
826.321	2485.94
826.503	2428.4
826.685	2464.63
826.866	2470.44
827.048	2452.23
827.229	2401.66
827.411	2375.5
827.592	2309.24
827.773	2318.54
827.955	2298.58
828.136	2287.54
828.318	2210.82
828.499	2283.47
828.68	2188.92
828.862	2219.15
829.043	2256.93
829.224	2203.45
829.406	2168.39
829.587	2188.15
829.768	2214.69
829.949	2210.04
830.131	2180.79
830.312	2268.17
830.493	2229.03
830.674	2235.62
830.855	2204.42
831.036	2177.88
831.218	2249.95
831.399	2303.23
831.58	2233.49
831.761	2249.57
831.942	2226.32
832.123	2190.09
832.304	2123.82
832.485	2126.92
832.666	2196.87
832.847	2197.64
833.028	2191.44
833.209	2195.32
833.389	2189.31
833.57	2135.26
833.751	2145.91
833.932	2204.23
834.113	2224.96
834.294	2132.35
834.475	2238.14
834.655	2256.93
834.836	2246.08
835.017	2254.02
835.198	2152.11
835.378	2229.61
835.559	2282.5
835.74	2212.95
835.92	2239.1
836.101	2159.09
836.281	2254.99
836.462	2243.37
836.643	2260.42
836.823	2227.09
837.004	2272.04
837.184	2286.96
837.365	2276.3
837.545	2287.35
837.726	2229.42
837.906	2275.92
838.087	2249.57
838.267	2236.97
838.448	2238.33
838.628	2187.96
838.808	2227.48
838.989	2266.81
839.169	2184.08
839.349	2240.65
839.53	2277.47
839.71	2284.25
839.89	2190.28
840.07	2251.5
840.251	2253.83
840.431	2281.15
840.611	2218.95
840.791	2199.39
840.971	2250.92
841.151	2228.64
841.332	2227.29
841.512	2241.82
841.692	2146.49
841.872	2214.89
842.052	2215.08
842.232	2210.04
842.412	2118.4
842.592	2166.06
842.772	2216.63
842.952	2200.74
843.132	2164.51
843.312	2168.39
843.492	2147.66
843.672	2195.32
843.851	2087.79
844.031	2124.21
844.211	2145.33
844.391	2108.52
844.571	2180.4
844.751	2144.56
844.93	2153.27
845.11	2090.5
845.29	2130.02
845.47	2140.68
845.649	2111.43
845.829	2141.26
846.009	2092.44
846.188	2168.77
846.368	2123.05
846.547	2099.61
846.727	2168
846.907	2061.24
847.086	2102.51
847.266	2170.91
847.445	2107.55
847.625	2092.24
847.804	2069.19
847.984	2113.17
848.163	2076.16
848.343	2058.14
848.522	2087.01
848.701	2102.13
848.881	2024.82
849.06	2078.1
849.239	2070.54
849.419	2066.28
849.598	1975.8
849.777	2022.69
849.957	1943.45
850.136	1880.48
850.315	1897.92
850.494	1863.62
850.674	1910.7
850.853	1934.15
851.032	1924.07
851.211	1972.9
851.39	1958.95
851.569	1866.72
851.748	1886.48
851.927	2005.83
852.107	1905.47
852.286	1887.26
852.465	1860.13
852.644	1947.13
852.823	1945.19
853.002	1912.64
853.181	1912.45
853.359	1937.05
853.538	1856.07
853.717	1893.07
853.896	1772.37
854.075	1728.58
854.254	1672.01
854.433	1606.91
854.611	1667.36
854.79	1576.1
854.969	1654.96
855.148	1693.51
855.327	1622.41
855.505	1706.49
855.684	1687.12
855.863	1735.17
856.041	1749.51
856.22	1788.25
856.399	1727.81
856.577	1837.66
856.756	1826.81
856.934	1946.16
857.113	1927.95
857.291	1816.93
857.47	1804.53
857.648	1854.52
857.827	1845.99
858.005	1882.8
858.184	1785.35
858.362	1912.25
858.541	1833.98
858.719	1795.42
858.898	1780.5
859.076	1791.16
859.254	1861.68
859.433	1810.73
859.611	1771.79
859.789	1746.79
859.967	1836.69
860.146	1815.77
860.324	1738.66
860.502	1760.16
860.68	1730.71
860.859	1759.77
861.037	1739.04
861.215	1750.47
861.393	1756.67
861.571	1746.21
861.749	1673.17
861.927	1733.62
862.105	1779.15
862.283	1767.72
862.461	1699.91
862.639	1713.08
862.817	1690.61
862.995	1688.86
863.173	1742.92
863.351	1727.81
863.529	1738.27
863.707	1770.24
863.885	1734.39
864.063	1615.24
864.241	1649.92
864.418	1736.52
864.596	1673.36
864.774	1622.99
864.952	1644.3
865.129	1678.21
865.307	1615.43
865.485	1554.79
865.663	1678.4
865.84	1576.49
866.018	1608.84
866.196	1459.66
866.373	1453.07
866.551	1399.4
866.728	1373.64
866.906	1430.02
867.084	1476.71
867.261	1472.45
867.439	1512.16
867.616	1540.45
867.794	1554.98
867.971	1522.63
868.149	1551.69
868.326	1585.01
868.503	1571.26
868.681	1540.45
868.858	1516.23
869.035	1490.85
869.213	1573
869.39	1519.72
869.567	1603.23
869.745	1514.88
869.922	1553.24
870.099	1536.96
870.276	1602.84
870.454	1557.11
870.631	1555.76
870.808	1535.03
870.985	1550.91
871.162	1587.53
871.339	1561.18
871.517	1468.77
871.694	1493.37
871.871	1513.52
872.048	1515.85
872.225	1493.18
872.402	1507.9
872.579	1465.08
872.756	1535.03
872.933	1456.37
873.11	1503.06
873.287	1535.22
873.463	1458.5
873.64	1464.31
873.817	1480.39
873.994	1483.3
874.171	1430.6
874.348	1468.57
874.524	1380.8
874.701	1465.86
874.878	1368.99
875.055	1458.88
875.231	1451.72
875.408	1447.26
875.585	1384.1
875.762	1424.4
875.938	1382.35
876.115	1409.87
876.291	1402.12
876.468	1395.72
876.645	1345.74
876.821	1374.02
876.998	1382.55
877.174	1399.02
877.351	1396.3
877.527	1356.97
877.704	1381.58
877.88	1377.12
878.057	1374.02
878.233	1419.94
878.409	1350.97
878.586	1410.45
878.762	1394.17
878.938	1359.88
879.115	1266.49
879.291	1348.45
879.467	1290.71
879.644	1313.38
879.82	1337.4
879.996	1328.88
880.172	1274.24
880.349	1332.37
880.525	1376.54
880.701	1284.71
880.877	1269.79
881.053	1292.46
881.229	1280.06
881.405	1333.34
881.581	1272.11
881.757	1286.64
881.933	1325.97
882.109	1338.76
882.285	1291.29
882.461	1247.7
882.637	1275.02
882.813	1272.89
882.989	1291.68
883.165	1329.07
883.341	1253.32
883.517	1338.37
883.693	1326.94
883.869	1318.42
884.044	1255.84
884.22	1298.85
884.396	1337.21
884.572	1296.14
884.747	1373.44
884.923	1290.32
885.099	1316.29
885.275	1330.24
885.45	1303.69
885.626	1284.51
885.801	1265.14
885.977	1266.69
886.153	1230.65
886.328	1306.21
886.504	1241.69
886.679	1307.18
886.855	1247.89
887.03	1311.06
887.206	1327.33
887.381	1272.69
887.557	1301.37
887.732	1295.75
887.908	1337.99
888.083	1295.17
888.258	1293.23
888.434	1257.77
888.609	1259.13
888.784	1350
888.96	1270.95
889.135	1252.16
889.31	1263.01
889.485	1318.61
889.661	1294.97
889.836	1316.09
890.011	1312.02
890.186	1284.51
890.361	1242.08
890.537	1314.16
890.712	1278.51
890.887	1306.6
891.062	1275.99
891.237	1348.06
891.412	1264.36
891.587	1314.54
891.762	1291.68
891.937	1323.65
892.112	1243.63
892.287	1243.05
892.462	1238.01
892.637	1206.04
892.812	1182.6
892.987	1205.85
893.161	1194.03
893.336	1201.59
893.511	1228.13
893.686	1212.44
893.861	1191.51
894.035	1166.71
894.21	1229.49
894.385	1150.63
894.56	1185.12
894.734	1123.9
894.909	1079.33
895.084	1099.1
895.258	1063.64
895.433	1084.37
895.608	1082.82
895.782	1025.67
895.957	1036.52
896.131	1064.22
896.306	966.77
896.48	992.73
896.655	990.02
896.829	906.32
897.004	947.78
897.178	940.42
897.353	915.81
897.527	951.85
897.701	938.87
897.876	873.19
898.05	974.13
898.224	971.61
898.399	980.13
898.573	933.64
898.747	817.58
898.921	845.87
899.096	729.04
899.27	771.86
899.444	774.57
899.618	790.07
899.792	837.92
899.967	843.93
900.141	859.82
900.315	809.44
900.489	817
900.663	814.48
900.837	810.61
901.011	785.81
901.185	830.17
901.359	832.89
901.533	829.98
901.707	839.67
901.881	842.96
902.055	789.1
902.229	801.31
902.403	843.74
902.576	811.96
902.75	825.14
902.924	942.35
903.098	869.89
903.272	928.79
903.446	980.13
903.619	945.26
903.793	985.75
903.967	926.47
904.14	1013.46
904.314	999.12
904.488	959.02
904.661	994.67
904.835	952.62
905.009	1015.78
905.182	1062.67
905.356	989.63
905.529	1004.93
905.703	968.7
905.876	946.81
906.05	900.89
906.223	896.24
906.397	860.98
906.57	837.92
906.744	829.01
906.917	825.14
907.09	817.77
907.264	795.3
907.437	791.43
907.61	745.89
907.784	765.08
907.957	786.58
908.13	737.18
908.304	782.32
908.477	698.81
908.65	746.67
908.823	700.75
908.996	768.56
909.17	700.36
909.343	704.82
909.516	719.74
909.689	704.63
909.862	706.95
910.035	726.91
910.208	706.18
910.381	671.3
910.554	783.68
910.727	699.98
910.9	714.51
911.073	704.05
911.246	786.58
911.419	786.39
911.592	753.26
911.765	688.35
911.938	715.09
912.11	710.05
912.283	707.73
912.456	799.18
912.629	732.14
912.802	677.7
912.974	635.26
913.147	629.84
913.32	561.83
913.493	599.81
913.665	629.84
913.838	646.89
914.01	625.38
914.183	664.13
914.356	668.59
914.528	685.06
914.701	737.56
914.873	712.38
915.046	646.11
915.218	600.39
915.391	527.35
915.563	539.94
915.736	612.21
915.908	630.61
916.081	626.55
916.253	656.38
916.425	633.91
916.598	651.93
916.77	642.05
916.942	625
917.115	514.17
917.287	612.02
917.459	569.58
917.632	564.35
917.804	511.07
917.976	574.43
918.148	605.23
918.32	592.83
918.493	631
918.665	632.75
918.837	637.98
919.009	662.97
919.181	695.71
919.353	654.06
919.525	626.74
919.697	632.55
919.869	664.71
920.041	697.46
920.213	735.24
920.385	688.35
920.557	645.92
920.729	688.16
920.901	674.01
921.073	639.91
921.244	607.95
921.416	678.66
921.588	628.29
921.76	649.6
921.932	679.44
922.103	617.25
922.275	620.35
922.447	646.31
922.619	564.35
922.79	616.28
922.962	608.92
923.134	637.98
923.305	578.3
923.477	576.56
923.648	549.24
923.82	563.19
923.991	532.77
924.163	512.62
924.335	579.27
924.506	526.77
924.677	598.65
924.849	539.17
925.02	550.6
925.192	600.97
925.363	578.11
925.535	556.6
925.706	544.01
925.877	614.73
926.049	526.38
926.22	556.22
926.391	573.27
926.562	568.23
926.734	516.3
926.905	583.53
927.076	492.47
927.247	512.43
927.419	488.6
927.59	478.14
927.761	475.04
927.932	478.72
928.103	469.03
928.274	421.76
928.445	415.36
928.616	441.91
928.787	420.98
928.958	468.84
929.129	419.82
929.3	389.59
929.471	354.14
929.642	308.61
929.813	278.19
929.984	393.47
930.155	299.11
930.326	362.66
930.496	311.51
930.667	250.1
930.838	261.72
931.009	242.93
931.18	261.53
931.35	226.65
931.521	269.86
931.692	202.82
931.863	166.01
932.033	184.61
932.204	201.66
932.374	215.41
932.545	145.28
932.716	213.48
932.886	211.54
933.057	140.63
933.227	123.97
933.398	197.2
933.568	92.39
933.739	79.21
933.909	87.74
934.08	142.57
934.25	58.67
934.421	67.59
934.591	115.25
934.761	79.79
934.932	65.26
935.102	134.23
935.272	110.6
935.443	116.8
935.613	75.72
935.783	121.25
935.953	79.4
936.123	221.03
936.294	95.87
936.464	82.31
936.634	106.92
936.804	47.24
936.974	72.43
937.144	74.75
937.314	90.06
937.484	76.11
937.655	64.49
937.825	122.61
937.995	56.93
938.165	118.15
938.334	127.65
938.504	131.13
938.674	81.73
938.844	156.52
939.014	198.95
939.184	189.07
939.354	211.15
939.524	210.18
939.694	179.18
939.863	159.62
940.033	245.45
940.203	217.55
940.373	205.15
940.542	202.82
940.712	174.53
940.882	198.75
941.051	218.32
941.221	208.25
941.391	185.38
941.56	149.15
941.73	165.62
941.899	284.19
942.069	147.6
942.238	172.21
942.408	130.94
942.577	216
942.747	135.59
942.916	105.75
943.086	118.93
943.255	179.38
943.425	147.8
943.594	123.97
943.763	77.08
943.933	93.74
944.102	38.14
944.271	116.6
944.441	137.14
944.61	98.97
944.779	139.08
944.948	242.93
945.117	87.74
945.287	101.69
945.456	73.59
945.625	91.03
945.794	131.33
945.963	105.75
946.132	166.78
946.301	119.12
946.47	156.32
946.639	88.32
946.808	114.86
946.977	134.82
947.146	172.6
947.315	103.43
947.484	158.84
947.653	104.4
947.822	121.06
947.991	61.19
948.16	203.4
948.329	148.77
948.498	135.59
948.666	135.2
948.835	156.13
949.004	103.62
949.173	96.07
949.341	107.88
949.51	145.08
949.679	167.37
949.847	152.83
950.016	192.36
950.185	202.43
950.353	120.67
950.522	124.35
950.69	180.73
950.859	134.62
951.028	201.27
951.196	151.09
951.365	99.17
951.533	117.18
951.701	153.8
951.87	119.51
952.038	100.91
952.207	117.77
952.375	152.25
952.543	110.02
952.712	132.68
952.88	108.08
953.048	182.28
953.217	130.94
953.385	132.49
953.553	189.84
953.721	111.57
953.89	131.52
954.058	82.12
954.226	101.69
954.394	142.57
954.562	75.92
954.73	103.62
954.898	114.86
955.067	152.45
955.235	92.58
955.403	153.8
955.571	191.58
955.739	135.98
955.907	92.58
956.075	118.73
956.243	99.75
956.41	115.63
956.578	82.89
956.746	72.24
956.914	108.66
957.082	149.93
957.25	156.32
957.418	93.74
957.585	164.46
957.753	174.34
957.921	92.39
958.089	110.6
958.256	154.19
958.424	136.75
958.592	133.85
958.759	69.91
958.927	140.43
959.095	95.1
959.262	118.93
959.43	120.87
959.597	83.28
959.765	104.2
959.932	85.41
960.1	183.45
960.267	142.37
960.435	99.94
960.602	137.14
960.77	110.4
960.937	88.7
961.104	106.72
961.272	76.89
961.439	101.69
961.606	136.95
961.774	141.4
961.941	91.03
962.108	125.71
962.275	115.05
962.443	173.37
962.61	149.73
962.777	209.99
962.944	160.97
963.111	160.2
963.278	143.15
963.446	128.23
963.613	131.52
963.78	132.68
963.947	166.01
964.114	128.03
964.281	234.21
964.448	158.26
964.615	132.1
964.782	109.05
964.949	181.12
965.116	149.35
965.282	202.63
965.449	143.92
965.616	86.57
965.783	158.07
965.95	147.6
966.117	97.81
966.283	126.68
966.45	137.14
966.617	134.04
966.784	153.8
966.95	159.03
967.117	185
967.284	119.32
967.45	122.03
967.617	198.56
967.784	143.34
967.95	199.91
968.117	151.87
968.283	191.2
968.45	262.3
968.616	175.12
968.783	206.7
968.949	181.9
969.116	189.45
969.282	146.83
969.449	147.99
969.615	151.67
969.781	99.17
969.948	139.08
970.114	127.07
970.28	218.71
970.447	171.24
970.613	209.02
970.779	164.85
970.945	195.65
971.112	155.55
971.278	163.1
971.444	141.79
971.61	175.89
971.776	131.13
971.942	145.47
972.108	171.63
972.275	135.98
972.441	165.04
972.607	236.53
972.773	135.59
972.939	185.38
973.105	157.1
973.271	135.78
973.437	127.45
973.602	127.45
973.768	166.01
973.934	175.31
974.1	153.03
974.266	108.27
974.432	168.53
974.598	124.35
974.763	177.44
974.929	129.2
975.095	214.25
975.261	117.18
975.426	128.81
975.592	141.21
975.758	181.32
975.923	77.66
976.089	110.98
976.255	157.87
976.42	158.45
976.586	152.83
976.751	153.8
976.917	216
977.082	161.75
977.248	79.6
977.413	78.63
977.579	108.27
977.744	121.64
977.91	123.58
978.075	134.23
978.24	164.65
978.406	165.62
978.571	99.75
978.736	111.57
978.902	147.8
979.067	88.7
979.232	53.25
979.397	136.95
979.563	189.07
979.728	86.38
979.893	112.53
980.058	103.62
980.223	159.23
980.388	128.81
980.554	143.92
980.719	118.93
980.884	135.78
981.049	178.02
981.214	106.53
981.379	140.05
981.544	96.84
981.709	134.04
981.874	128.23
982.039	144.31
982.204	147.6
982.368	128.23
982.533	87.93
982.698	143.92
982.863	154
983.028	98.78
983.193	165.04
983.357	121.45
983.522	145.28
983.687	95.87
983.852	117.77
984.016	113.5
984.181	109.63
984.346	165.43
984.51	146.05
984.675	133.27
984.839	147.6
985.004	122.42
985.168	130.75
985.333	158.07
985.498	95.49
985.662	148.57
985.827	127.07
985.991	121.25
986.155	145.47
986.32	141.6
986.484	192.75
986.649	149.15
986.813	90.06
986.977	120.87
987.142	131.72
987.306	81.15
987.47	112.15
987.634	115.83
987.799	98.2
987.963	110.4
988.127	161.94
988.291	182.48
988.455	112.34
988.62	115.05
988.784	153.22
988.948	124.74
989.112	124.16
989.276	114.67
989.44	126.68
989.604	91.22
989.768	102.65
989.932	203.21
990.096	117.18
990.26	87.74
990.424	90.25
990.588	113.7
990.752	175.5
990.915	144.12
991.079	70.69
991.243	77.47
991.407	111.18
991.571	102.46
991.734	127.84
991.898	136.17
992.062	186.74
992.226	106.53
992.389	81.15
992.553	56.54
992.717	81.54
992.88	90.06
993.044	113.12
993.207	104.98
993.371	138.69
993.535	131.91
993.698	90.25
993.862	125.71
994.025	141.6
994.189	106.92
994.352	109.82
994.515	115.44
994.679	151.09
994.842	98
995.006	115.83
995.169	64.29
995.332	73.98
995.496	145.86
995.659	50.92
995.822	78.24
995.985	76.69
996.149	162.72
996.312	99.36
996.475	151.48
996.638	56.93
996.801	143.15
996.964	157.48
997.128	83.47
997.291	79.02
997.454	92
997.617	57.32
997.78	167.37
997.943	41.82
998.106	127.65
998.269	53.83
998.432	95.1
998.595	122.8
998.758	47.63
998.92	80.57
999.083	39.3
999.246	93.55
999.409	42.98
999.572	48.6
999.735	67.2
999.897	86.96
1000.06	65.07
1000.223	92.19
1000.386	125.9
1000.548	108.27
1000.711	95.49
1000.874	103.62
1001.036	7.72
1001.199	104.78
1001.361	48.4
1001.524	97.04
1001.687	123.38
1001.849	22.05
1002.012	97.42
1002.174	74.95
1002.337	86.38
1002.499	78.44
1002.661	133.07
1002.824	57.12
1002.986	57.32
1003.149	77.08
1003.311	51.12
1003.473	125.71
1003.636	53.64
1003.798	109.05
1003.96	98.2
1004.123	81.54
1004.285	54.02
1004.447	85.41
1004.609	86.96
1004.771	136.37
1004.933	32.71
1005.096	48.99
1005.258	6.94
1005.42	67
1005.582	93.35
1005.744	68.94
1005.906	33.29
1006.068	66.23
1006.23	32.9
1006.392	2.49
1006.554	44.72
1006.716	93.94
1006.878	73.01
1007.04	19.15
1007.202	48.6
1007.363	67.97
1007.525	58.09
1007.687	65.45
1007.849	110.02
1008.011	5.01
1008.172	13.14
1008.334	66.42
1008.496	77.08
1008.658	43.37
1008.819	40.65
1008.981	-3.71
1009.143	56.35
1009.304	34.84
1009.466	79.02
1009.627	121.64
1009.789	172.79
1009.95	74.56
1010.112	34.26
1010.273	71.85
1010.435	67
1010.596	48.79
1010.758	61.58
1010.919	52.28
1011.081	4.42
1011.242	36.2
1011.403	90.84
1011.565	54.22
1011.726	46.47
1011.887	26.9
1012.049	42.2
1012.21	96.45
1012.371	108.66
1012.532	-6.04
1012.693	53.64
1012.855	29.42
1013.016	63.32
1013.177	89.67
1013.338	21.67
1013.499	120.28
1013.66	62.94
1013.821	60.61
1013.982	60.22
1014.143	42.4
1014.304	40.85
1014.465	64.68
1014.626	90.84
1014.787	57.9
1014.948	159.42
1015.109	-18.05
1015.27	81.54
1015.431	23.22
1015.592	16.24
1015.752	92.58
1015.913	51.5
1016.074	72.24
1016.235	53.64
1016.395	34.65
1016.556	36
1016.717	38.33
1016.877	82.5
1017.038	26.7
1017.199	30.97
1017.359	43.95
1017.52	57.7
1017.681	30.19
1017.841	47.63
1018.002	21.09
1018.162	30.19
1018.323	76.69
1018.483	47.05
1018.644	20.89
1018.804	9.66
1018.964	-23.86
1019.125	43.56
1019.285	30.77
1019.446	13.14
1019.606	24.57
1019.766	-45.18
1019.926	64.1
1020.087	40.85
1020.247	-11.85
1020.407	57.12
1020.567	87.15
1020.728	51.89
1020.888	-0.61
1021.048	-1.19
1021.208	15.08
1021.368	12.56
1021.528	72.62
1021.688	73.98
1021.848	56.93
1022.008	35.23
1022.168	20.5
1022.328	50.34
1022.488	53.05
1022.648	20.31
1022.808	35.04
1022.968	54.41
1023.128	17.79
1023.288	15.47
1023.448	38.52
1023.608	58.09
1023.767	56.54
1023.927	5.78
1024.087	-0.23
1024.247	-11.46
1024.406	18.95
1024.566	-3.13
1024.726	-25.61
1024.885	18.18
1025.045	55.96
1025.205	28.64
1025.364	-0.23
1025.524	47.44
1025.683	13.53
1025.843	6.17
1026.003	30.19
1026.162	67.97
1026.321	69.14
1026.481	31.94
1026.64	34.26
1026.8	27.29
1026.959	32.52
1027.119	32.52
1027.278	28.64
1027.437	-6.81
1027.597	31.55
1027.756	26.9
1027.915	52.28
1028.074	62.16
1028.234	15.27
1028.393	45.3
1028.552	45.5
1028.711	-63.97
1028.87	41.62
1029.03	5.01
1029.189	-1.19
1029.348	-62.61
1029.507	31.16
1029.666	11.01
1029.825	-13.4
1029.984	4.81
1030.143	42.98
1030.302	-7.39
1030.461	-32.39
1030.62	15.27
1030.779	64.1
1030.938	-30.06
1031.097	-2.94
1031.255	46.27
1031.414	73.01
1031.573	56.15
1031.732	-39.17
1031.891	4.23
1032.049	96.45
1032.208	51.7
1032.367	5.2
1032.525	31.16
1032.684	-1.97
1032.843	10.82
1033.001	-35.88
1033.16	145.47
1033.319	67.39
1033.477	23.99
1033.636	23.41
1033.794	-32
1033.953	40.65
1034.111	53.64
1034.27	7.52
1034.428	26.32
1034.587	-6.62
1034.745	23.22
1034.903	21.28
1035.062	44.34
1035.22	-12.24
1035.378	52.47
1035.537	-10.11
1035.695	73.79
1035.853	-1
1036.011	64.1
1036.17	33.1
1036.328	-38.59
1036.486	12.37
1036.644	9.07
1036.802	-87.22
1036.96	-10.3
1037.119	18.18
1037.277	-10.69
1037.435	-31.03
1037.593	-20.18
1037.751	15.85
1037.909	26.7
1038.067	26.7
