Data from gum_old_FLMT105791__114__15-46-03-253.txt Node

Date: Mon Mar 20 15:46:03 GMT 2023
User: antho
Spectrometer: FLMT10579
Trigger mode: 0
Integration Time (sec): 1.000000E-1
Scans to average: 10
Electric dark correction enabled: true
Nonlinearity correction enabled: false
Boxcar width: 0
XAxis mode: Wavelengths
Number of Pixels in Spectrum: 3648
>>>>>Begin Spectral Data<<<<<
345.248	-178.18
345.464	-178.18
345.681	-178.18
345.898	-184.77
346.114	-169.66
346.331	-36.17
346.548	21.18
346.764	-19.89
346.981	-4.2
347.197	-20.86
347.414	28.93
347.631	-22.6
347.847	66.33
348.064	16.53
348.28	29.32
348.497	-45.47
348.713	-13.11
348.93	13.63
349.146	35.71
349.363	13.63
349.579	26.03
349.796	17.7
350.012	-10.59
350.229	13.24
350.445	20.41
350.661	9.36
350.878	2.97
351.094	16.34
351.311	27.58
351.527	30.68
351.743	-18.92
351.96	20.21
352.176	54.51
352.392	16.73
352.609	39.4
352.825	-3.62
353.041	8.01
353.257	-15.82
353.474	-6.52
353.69	34.55
353.906	34.94
354.122	-4.39
354.339	91.32
354.555	-11.95
354.771	9.36
354.987	72.72
355.203	91.32
355.42	-13.11
355.636	22.93
355.852	-6.52
356.068	21.57
356.284	-33.65
356.5	67.29
356.716	34.36
356.932	12.85
357.148	66.13
357.364	3.55
357.58	58.77
357.796	43.85
358.012	47.73
358.228	19.44
358.444	-47.21
358.66	59.93
358.876	44.24
359.092	-6.91
359.308	30.87
359.524	39.2
359.74	18.08
359.956	-3.42
360.172	38.23
360.388	72.53
360.604	2.78
360.819	111.28
361.035	55.28
361.251	52.38
361.467	5.68
361.683	52.18
361.898	42.5
362.114	40.75
362.33	67.1
362.546	61.68
362.762	20.8
362.977	43.08
363.193	5.68
363.409	81.05
363.624	12.27
363.84	8.4
364.056	-4.78
364.271	54.12
364.487	66.71
364.703	6.26
364.918	1.23
365.134	34.94
365.35	32.42
365.565	158.94
365.781	38.81
365.996	78.14
366.212	100.43
366.427	61.48
366.643	2.39
366.858	39.2
367.074	-6.14
367.289	74.85
367.505	159.71
367.72	-2.84
367.936	34.16
368.151	83.38
368.367	51.6
368.582	49.08
368.798	41.53
369.013	92.48
369.228	53.93
369.444	30.29
369.659	88.03
369.874	41.72
370.09	115.54
370.305	-10.98
370.52	33.58
370.736	109.14
370.951	33.97
371.166	82.21
371.381	124.06
371.597	68.84
371.812	-10.4
372.027	27.38
372.242	52.18
372.458	130.65
372.673	60.32
372.888	19.63
373.103	67.1
373.318	130.65
373.533	53.35
373.749	51.99
373.964	-6.91
374.179	87.44
374.394	21.76
374.609	101.2
374.824	14.21
375.039	74.08
375.254	37.07
375.469	114.76
375.684	63.03
375.899	112.44
376.114	60.9
376.329	67.68
376.544	88.22
376.759	83.38
376.974	27
377.189	39.01
377.404	38.23
377.619	103.33
377.834	16.15
378.049	8.2
378.264	40.17
378.478	78.92
378.693	44.43
378.908	87.83
379.123	62.26
379.338	93.64
379.553	83.57
379.767	73.49
379.982	118.64
380.197	81.05
380.412	76.4
380.626	78.73
380.841	150.61
381.056	78.14
381.271	136.08
381.485	39.4
381.7	66.52
381.915	84.73
382.129	69.81
382.344	74.66
382.559	70.39
382.773	112.83
382.988	-7.49
383.202	68.07
383.417	8.98
383.632	125.81
383.846	59.54
384.061	53.35
384.275	50.25
384.49	76.21
384.704	91.13
384.919	55.86
385.133	90.74
385.348	113.41
385.562	32.61
385.777	105.46
385.991	71.94
386.206	42.11
386.42	90.16
386.634	120.96
386.849	79.11
387.063	97.91
387.277	62.26
387.492	73.49
387.706	27
387.92	34.36
388.135	95.58
388.349	58.38
388.563	99.84
388.778	81.83
388.992	97.52
389.206	94.42
389.42	165.91
389.635	68.65
389.849	126
390.063	144.21
390.277	99.84
390.491	162.23
390.706	105.27
390.92	125.23
391.134	98.1
391.348	128.71
391.562	43.08
391.776	113.02
391.99	79.89
392.205	155.84
392.419	88.22
392.633	114.96
392.847	146.34
393.061	81.24
393.275	128.91
393.489	84.54
393.703	108.76
393.917	108.76
394.131	44.82
394.345	95.78
394.559	136.46
394.773	81.24
394.986	134.53
395.2	101.59
395.414	133.75
395.628	85.7
395.842	132.59
396.056	106.63
396.27	63.03
396.484	120.58
396.697	117.67
396.911	169.98
397.125	107.21
397.339	138.4
397.553	96.16
397.766	168.82
397.98	122.71
398.194	154.67
398.408	107.98
398.621	157.97
398.835	179.47
399.049	158.16
399.262	213.96
399.476	171.53
399.69	206.02
399.903	266.85
400.117	180.64
400.331	196.33
400.544	153.32
400.758	288.94
400.971	184.51
401.185	223.46
401.398	167.46
401.612	224.23
401.826	219.77
402.039	211.64
402.253	192.65
402.466	228.88
402.68	210.09
402.893	212.22
403.106	230.04
403.32	208.73
403.533	213.77
403.747	197.69
403.96	207.76
404.174	237.21
404.387	151.19
404.6	225.2
404.814	260.46
405.027	215.71
405.24	212.99
405.454	184.51
405.667	251.16
405.88	150.61
406.094	235.27
406.307	255.81
406.52	213.96
406.733	183.16
406.947	133.36
407.16	263.95
407.373	272.28
407.586	167.07
407.799	183.93
408.012	263.17
408.226	232.37
408.439	290.69
408.652	167.46
408.865	227.14
409.078	266.08
409.291	267.63
409.504	194.78
409.717	237.21
409.93	252.71
410.143	251.74
410.357	196.52
410.57	164.94
410.783	184.71
410.996	228.11
411.209	219.39
411.421	294.56
411.634	254.84
411.847	225.39
412.06	273.83
412.273	257.55
412.486	287.2
412.699	348.81
412.912	273.64
413.125	306.96
413.338	287.78
413.55	273.25
413.763	260.46
413.976	268.21
414.189	235.27
414.402	268.6
414.615	344.55
414.827	249.42
415.04	319.17
415.253	278.29
415.466	311.42
415.678	369.73
415.891	279.84
416.104	255.42
416.316	257.94
416.529	261.24
416.742	345.32
416.954	338.54
417.167	286.42
417.38	254.26
417.592	320.91
417.805	255.23
418.017	240.31
418.23	310.64
418.442	272.28
418.655	261.24
418.868	278.48
419.08	328.85
419.293	333.89
419.505	281.39
419.718	317.81
419.93	359.47
420.142	282.74
420.355	360.05
420.567	331.18
420.78	303.09
420.992	293.4
421.205	373.42
421.417	281.58
421.629	301.34
421.842	283.9
422.054	243.22
422.266	317.81
422.479	376.71
422.691	278.87
422.903	327.88
423.115	254.45
423.328	280.42
423.54	299.4
423.752	287.78
423.964	273.25
424.177	326.33
424.389	310.06
424.601	397.83
424.813	331.76
425.025	337.38
425.238	353.65
425.45	322.46
425.662	270.34
425.874	625.29
426.086	317.04
426.298	340.28
426.51	314.13
426.722	305.6
426.934	306.19
427.146	369.35
427.358	289.72
427.57	355.2
427.782	306.19
427.994	308.32
428.206	268.99
428.418	264.53
428.63	361.6
428.842	374.77
429.054	337.18
429.266	369.73
429.478	281.97
429.69	304.64
429.902	264.92
430.114	340.48
430.325	316.45
430.537	268.02
430.749	290.1
430.961	182.57
431.173	250.58
431.384	286.81
431.596	187.03
431.808	281.39
432.02	311.03
432.231	352.3
432.443	391.24
432.655	354.82
432.867	330.98
433.078	346.48
433.29	417.4
433.502	375.35
433.713	392.6
433.925	393.95
434.136	390.27
434.348	308.32
434.56	287.97
434.771	432.31
434.983	310.06
435.194	355.59
435.406	371.09
435.617	429.8
435.829	432.7
436.04	404.22
436.252	406.16
436.463	432.12
436.675	427.08
436.886	410.42
437.098	446.07
437.309	511.36
437.521	422.24
437.732	437.93
437.943	422.43
438.155	417.78
438.366	334.67
438.578	457.31
438.789	385.62
439	399.57
439.211	397.25
439.423	385.62
439.634	434.83
439.845	427.86
440.057	414.49
440.268	473.78
440.479	401.32
440.69	434.06
440.902	444.33
441.113	427.08
441.324	422.24
441.535	431.15
441.746	480.75
441.957	415.07
442.168	436.38
442.38	461.76
442.591	488.31
442.802	412.75
443.013	450.72
443.224	483.08
443.435	457.11
443.646	475.13
443.857	458.28
444.068	455.18
444.279	426.5
444.49	569.88
444.701	470.87
444.912	597.97
445.123	532.48
445.334	503.81
445.545	521.83
445.756	475.52
445.967	432.12
446.178	484.24
446.388	485.98
446.599	497.61
446.81	491.8
447.021	429.21
447.232	517.18
447.443	539.65
447.653	486.37
447.864	534.03
448.075	499.93
448.286	544.69
448.496	505.94
448.707	570.65
448.918	499.54
449.129	595.84
449.339	501.48
449.55	532.09
449.761	496.83
449.971	560.58
450.182	497.99
450.393	570.26
450.603	504.78
450.814	560.58
451.024	560.96
451.235	580.73
451.446	611.53
451.656	636.72
451.867	527.83
452.077	570.46
452.288	618.89
452.498	610.37
452.709	557.28
452.919	566.97
453.13	507.29
453.34	567.74
453.55	506.13
453.761	585.37
453.971	552.24
454.182	543.53
454.392	576.27
454.602	628.19
454.813	572.98
455.023	580.92
455.233	505.94
455.444	539.46
455.654	488.5
455.864	536.55
456.075	558.83
456.285	533.64
456.495	577.43
456.705	571.43
456.916	619.86
457.126	617.92
457.336	590.8
457.546	513.3
457.756	557.48
457.967	645.82
458.177	562.51
458.387	570.07
458.597	539.65
458.807	549.92
459.017	566.19
459.227	560.58
459.437	552.05
459.647	617.92
459.857	589.83
460.068	549.14
460.278	626.26
460.488	588.86
460.698	652.8
460.908	562.71
461.117	532.87
461.327	567.74
461.537	623.16
461.747	606.49
461.957	591.57
462.167	722.94
462.377	649.31
462.587	626.45
462.797	641.95
463.007	617.34
463.216	637.3
463.426	686.32
463.636	657.45
463.846	592.35
464.056	610.76
464.265	644.08
464.475	572.78
464.685	641.37
464.895	684.38
465.104	585.96
465.314	658.81
465.524	588.47
465.733	558.44
465.943	666.94
466.153	683.8
466.362	685.35
466.572	649.12
466.782	611.53
466.991	626.64
467.201	693.87
467.41	559.03
467.62	647.18
467.829	638.07
468.039	640.98
468.249	636.33
468.458	667.52
468.668	689.61
468.877	668.88
469.086	712.28
469.296	696.59
469.505	660.55
469.715	726.42
469.924	703.17
470.134	739.79
470.343	702.4
470.552	657.84
470.762	679.92
470.971	659.19
471.18	708.21
471.39	676.24
471.599	637.49
471.808	707.24
472.018	660.74
472.227	743.47
472.436	742.7
472.645	727.78
472.855	729.14
473.064	769.05
473.273	792.1
473.482	743.09
473.691	811.48
473.901	788.81
474.11	730.49
474.319	842.48
474.528	766.72
474.737	833.18
474.946	794.62
475.155	795.4
475.364	855.65
475.573	785.13
475.783	812.83
475.992	817.68
476.201	833.76
476.41	791.33
476.619	746.19
476.828	829.3
477.037	789
477.245	798.11
477.454	864.76
477.663	808.18
477.872	843.06
478.081	919.01
478.29	797.53
478.499	956.01
478.708	889.36
478.917	975.58
479.125	897.31
479.334	921.72
479.543	887.81
479.752	919.01
479.961	942.26
480.169	956.4
480.378	900.02
480.587	1046.11
480.796	964.54
481.004	923.08
481.213	954.46
481.422	960.66
481.63	963.96
481.839	993.79
482.048	1020.34
482.256	978.49
482.465	1022.47
482.674	1021.69
482.882	1015.69
483.091	1085.44
483.299	997.86
483.508	1031.19
483.716	1006
483.925	1021.89
484.134	1012.98
484.342	984.88
484.551	1056.96
484.759	1033.71
484.967	1080.59
485.176	1077.88
485.384	1036.42
485.593	1080.01
485.801	1026.15
486.01	1029.06
486.218	994.38
486.426	896.34
486.635	912.03
486.843	882
487.051	926.37
487.26	926.56
487.468	978.68
487.676	1004.84
487.885	994.38
488.093	1035.26
488.301	1066.64
488.509	1065.09
488.717	1098.81
488.926	1083.89
489.134	1052.89
489.342	1061.8
489.55	1043.01
489.758	1069.74
489.967	1089.89
490.175	1236.56
490.383	1101.32
490.591	1203.82
490.799	1150.73
491.007	1201.88
491.215	1163.13
491.423	1142.98
491.631	1109.07
491.839	1149.76
492.047	1167.97
492.255	1112.17
492.463	1088.73
492.671	1077.49
492.879	1181.15
493.087	1100.94
493.295	1158.09
493.503	1195.1
493.711	1204.78
493.919	1230.75
494.127	1232.68
494.334	1243.53
494.542	1158.29
494.75	1189.67
494.958	1159.06
495.166	1284.03
495.374	1254.38
495.581	1278.02
495.789	1233.27
495.997	1302.24
496.205	1238.5
496.412	1234.62
496.62	1213.31
496.828	1248.38
497.035	1224.16
497.243	1288.48
497.451	1283.64
497.658	1288.1
497.866	1247.99
498.074	1316.96
498.281	1225.9
498.489	1379.93
498.696	1266.98
498.904	1227.45
499.112	1195.29
499.319	1327.81
499.527	1255.74
499.734	1332.27
499.942	1232.49
500.149	1275.89
500.357	1311.54
500.564	1237.33
500.771	1264.27
500.979	1218.73
501.186	1223.77
501.394	1269.5
501.601	1201.88
501.808	1273.18
502.016	1241.79
502.223	1233.27
502.43	1218.35
502.638	1226.68
502.845	1254.77
503.052	1328.4
503.26	1276.67
503.467	1329.36
503.674	1278.41
503.881	1334.4
504.089	1340.6
504.296	1322.97
504.503	1251.87
504.71	1292.16
504.917	1250.12
505.125	1297.4
505.332	1282.48
505.539	1329.95
505.746	1375.09
505.953	1387.68
506.16	1372.18
506.367	1400.86
506.574	1415.97
506.781	1429.73
506.988	1320.65
507.195	1363.46
507.402	1380.71
507.609	1396.79
507.816	1337.89
508.023	1358.62
508.23	1353
508.437	1282.48
508.644	1383.23
508.851	1406.86
509.058	1411.51
509.265	1366.95
509.472	1412.68
509.679	1496.57
509.885	1406.48
510.092	1407.64
510.299	1423.33
510.506	1406.28
510.713	1415.78
510.92	1439.22
511.126	1449.1
511.333	1460.92
511.54	1473.12
511.746	1469.44
511.953	1489.21
512.16	1501.99
512.367	1411.13
512.573	1426.63
512.78	1449.88
512.987	1438.64
513.193	1439.22
513.4	1333.63
513.606	1406.48
513.813	1456.85
514.02	1454.91
514.226	1514.78
514.433	1496.76
514.639	1410.74
514.846	1425.46
515.052	1400.08
515.259	1428.56
515.465	1465.76
515.672	1443.87
515.878	1530.28
516.085	1501.22
516.291	1544.62
516.497	1461.11
516.704	1455.49
516.91	1432.63
517.117	1383.03
517.323	1313.28
517.529	1335.95
517.736	1356.3
517.942	1335.95
518.148	1398.73
518.354	1397.76
518.561	1434.38
518.767	1420.62
518.973	1491.34
519.179	1444.45
519.386	1435.73
519.592	1443.09
519.798	1412.29
520.004	1528.54
520.21	1500.64
520.417	1552.75
520.623	1606.62
520.829	1623.86
521.035	1609.33
521.241	1587.05
521.447	1599.84
521.653	1701.94
521.859	1564.19
522.065	1655.05
522.271	1719.18
522.477	1656.99
522.683	1725.77
522.889	1680.43
523.095	1647.88
523.301	1693.8
523.507	1633.35
523.713	1650.6
523.919	1614.95
524.125	1705.43
524.331	1728.1
524.537	1801.14
524.742	1806.56
524.948	1831.75
525.154	1791.45
525.36	1879.22
525.566	1804.05
525.772	1849.19
525.977	1750.96
526.183	1828.07
526.389	1855.19
526.595	1752.7
526.8	1738.36
527.006	1680.63
527.212	1619.4
527.417	1628.9
527.623	1625.6
527.829	1684.5
528.034	1720.54
528.24	1724.22
528.446	1726.74
528.651	1832.72
528.857	1834.27
529.062	1911.57
529.268	1853.26
529.473	1876.7
529.679	1904.79
529.884	2031.31
530.09	1928.24
530.295	1974.54
530.501	1946.26
530.706	1923.39
530.912	1909.64
531.117	1948
531.323	1984.42
531.528	2011.16
531.733	2001.28
531.939	1954.59
532.144	1997.4
532.35	1989.65
532.555	2024.34
532.76	1994.89
532.966	1978.03
533.171	1963.5
533.376	1928.43
533.581	1876.89
533.787	1950.13
533.992	2009.22
534.197	1993.34
534.402	2005.74
534.607	1998.95
534.813	2057.47
535.018	1962.34
535.223	2004.57
535.428	2009.61
535.633	2078.97
535.838	2087.11
536.043	2043.13
536.249	2169.65
536.454	2047.39
536.659	2130.12
536.864	2057.85
537.069	2029.57
537.274	2056.5
537.479	2037.32
537.684	2036.93
537.889	1990.62
538.094	2142.72
538.299	2059.99
538.504	2051.85
538.708	2082.07
538.913	2139.42
539.118	2106.48
539.323	2134
539.528	2035.77
539.733	2044.49
539.938	2104.93
540.142	2115.98
540.347	2109.39
540.552	2071.22
540.757	2021.04
540.962	2042.16
541.166	1968.54
541.371	2016.97
541.576	2035.38
541.781	1895.88
541.985	2061.34
542.19	2069.48
542.395	2107.07
542.599	2164.8
542.804	2099.51
543.008	2181.08
543.213	2089.43
543.418	2051.65
543.622	2139.23
543.827	2078
544.031	2151.82
544.236	2190.76
544.44	2116.75
544.645	2187.28
544.849	2131.67
545.054	2166.74
545.258	2242.3
545.463	2220.02
545.667	2097.38
545.872	2203.75
546.076	2170.42
546.281	2198.32
546.485	2128.96
546.689	2177.98
546.894	2190.76
547.098	2195.8
547.302	2127.02
547.507	2179.53
547.711	2169.26
547.915	2176.62
548.119	2106.68
548.324	2106.48
548.528	2168.48
548.732	2144.65
548.936	2208.98
549.141	2199.48
549.345	2142.13
549.549	2177.2
549.753	2174.1
549.957	2303.91
550.161	2260.13
550.366	2204.52
550.57	2158.99
550.774	2163.45
550.978	2181.85
551.182	2231.65
551.386	2149.5
551.59	2193.28
551.794	2163.06
551.998	2224.86
552.202	2191.73
552.406	2139.62
552.61	2192.31
552.814	2218.28
553.018	2271.36
553.222	2130.7
553.426	2159.57
553.63	2303.91
553.833	2128.57
554.037	2084.2
554.241	2202.58
554.445	2206.07
554.649	2209.36
554.853	2133.22
555.056	2236.88
555.26	2247.14
555.464	2242.5
555.668	2211.88
555.871	2214.01
556.075	2259.16
556.279	2171.78
556.483	2154.53
556.686	2177.98
556.89	2172.36
557.094	2177.2
557.297	2096.41
557.501	2176.43
557.704	2097.77
557.908	2168.1
558.112	2102.03
558.315	2216.53
558.519	2121.98
558.722	2113.07
558.926	2127.22
559.129	2021.04
559.333	2022.98
559.536	2015.42
559.74	2023.56
559.943	1995.85
560.147	2001.47
560.35	2036.74
560.553	2022.59
560.757	1997.99
560.96	2077.42
561.164	2008.84
561.367	2096.02
561.57	2072.77
561.774	2042.16
561.977	2015.81
562.18	2016
562.384	2059.02
562.587	2017.55
562.79	2022.01
562.993	1994.69
563.197	2031.31
563.4	2097.96
563.603	2052.62
563.806	2116.17
564.009	2000.31
564.212	2001.86
564.416	1966.02
564.619	1990.43
564.822	1955.17
565.025	2019.1
565.228	1971.83
565.431	2002.83
565.634	1874.38
565.837	1944.71
566.04	1910.99
566.243	1930.37
566.446	1838.14
566.649	1917.39
566.852	1845.31
567.055	1897.24
567.258	1946.06
567.461	1982.29
567.664	1972.8
567.867	1843.96
568.07	1915.45
568.273	1918.74
568.475	1966.41
568.678	1861.39
568.881	1880.58
569.084	1875.93
569.287	1747.66
569.489	1812.18
569.692	1853.26
569.895	1881.16
570.098	1784.86
570.3	1769.56
570.503	1730.42
570.706	1787.58
570.909	1759.87
571.111	1706.59
571.314	1722.09
571.516	1731
571.719	1707.95
571.922	1726.74
572.124	1708.72
572.327	1714.34
572.529	1687.22
572.732	1710.47
572.935	1741.66
573.137	1805.4
573.34	1715.5
573.542	1760.84
573.745	1802.3
573.947	1740.3
574.15	1712.4
574.352	1708.53
574.554	1774.79
574.757	1707.17
574.959	1693.22
575.162	1656.02
575.364	1688.96
575.566	1743.4
575.769	1645.56
575.971	1669.78
576.173	1579.88
576.376	1657.96
576.578	1691.48
576.78	1749.21
576.982	1627.74
577.185	1608.94
577.387	1592.67
577.589	1583.95
577.791	1647.11
577.993	1675.98
578.196	1605.26
578.398	1595.19
578.6	1638.97
578.802	1505.29
579.004	1544.42
579.206	1570.19
579.408	1623.67
579.61	1558.18
579.812	1624.25
580.014	1526.41
580.216	1568.84
580.418	1571.35
580.62	1579.3
580.822	1504.12
581.024	1580.85
581.226	1609.14
581.428	1601.39
581.63	1643.23
581.832	1539.39
582.034	1607.59
582.236	1524.86
582.438	1595.19
582.64	1649.43
582.841	1657.96
583.043	1685.67
583.245	1571.94
583.447	1619.6
583.649	1599.25
583.85	1588.79
584.052	1608.55
584.254	1541.52
584.456	1603.32
584.657	1486.88
584.859	1593.83
585.061	1533.38
585.262	1526.6
585.464	1492.31
585.666	1578.52
585.867	1515.75
586.069	1604.49
586.27	1527.76
586.472	1534.74
586.674	1484.56
586.875	1517.69
587.077	1466.15
587.278	1483.78
587.48	1478.74
587.681	1583.56
587.883	1543.26
588.084	1461.11
588.285	1501.61
588.487	1453.94
588.688	1540.55
588.89	1412.09
589.091	1356.88
589.292	1424.3
589.494	1357.07
589.695	1316.38
589.896	1260.78
590.098	1247.02
590.299	1358.04
590.5	1297.4
590.702	1349.51
590.903	1340.6
591.104	1456.27
591.305	1397.56
591.507	1456.08
591.708	1431.28
591.909	1372.57
592.11	1476.22
592.311	1433.41
592.512	1403.57
592.714	1341.18
592.915	1362.11
593.116	1381.29
593.317	1379.35
593.518	1365.6
593.719	1358.43
593.92	1409.19
594.121	1426.82
594.322	1398.73
594.523	1397.56
594.724	1378.77
594.925	1402.41
595.126	1417.13
595.327	1379.35
595.528	1385.94
595.729	1411.51
595.929	1402.6
596.13	1407.83
596.331	1405.51
596.532	1403.38
596.733	1471.77
596.934	1439.41
597.135	1415.58
597.335	1404.93
597.536	1375.28
597.737	1402.79
597.938	1359.98
598.138	1398.73
598.339	1363.46
598.54	1414.61
598.74	1387.49
598.941	1370.05
599.142	1426.24
599.342	1371.41
599.543	1346.22
599.744	1345.83
599.944	1365.21
600.145	1348.16
600.345	1378.96
600.546	1456.66
600.746	1431.08
600.947	1435.15
601.147	1394.85
601.348	1433.02
601.548	1341.96
601.749	1370.24
601.949	1292.36
602.15	1331.69
602.35	1336.34
602.551	1385.36
602.751	1324.13
602.951	1342.54
603.152	1276.28
603.352	1357.26
603.552	1361.53
603.753	1365.21
603.953	1370.24
604.153	1362.11
604.354	1362.3
604.554	1331.3
604.754	1373.73
604.954	1325.88
605.155	1380.51
605.355	1327.43
605.555	1374.89
605.755	1426.24
605.955	1336.92
606.155	1362.11
606.356	1366.95
606.556	1356.68
606.756	1374.51
606.956	1256.13
607.156	1404.34
607.356	1332.85
607.556	1339.25
607.756	1325.3
607.956	1389.81
608.156	1343.51
608.356	1308.63
608.556	1355.13
608.756	1321.03
608.956	1316
609.156	1330.91
609.356	1308.05
609.556	1288.29
609.755	1283.45
609.955	1292.36
610.155	1298.75
610.355	1336.53
610.555	1275.5
610.755	1288.29
610.954	1214.67
611.154	1270.47
611.354	1296.04
611.554	1258.07
611.753	1244.31
611.953	1206.72
612.153	1283.64
612.352	1333.63
612.552	1216.99
612.752	1168.55
612.951	1242.37
613.151	1270.47
613.351	1191.03
613.55	1241.6
613.75	1251.28
613.949	1249.35
614.149	1252.06
614.348	1210.6
614.548	1197.62
614.747	1153.05
614.947	1208.27
615.146	1131.35
615.346	1252.83
615.545	1235.59
615.745	1207.69
615.944	1263.49
616.144	1210.6
616.343	1240.82
616.542	1185.22
616.742	1189.29
616.941	1192
617.14	1122.44
617.34	1213.31
617.539	1179.79
617.738	1153.44
617.938	1253.03
618.137	1159.45
618.336	1136.97
618.535	1192.58
618.734	1195.68
618.934	1163.32
619.133	1196.65
619.332	1204.59
619.531	1154.99
619.73	1155.57
619.929	1184.25
620.128	1176.69
620.328	1224.93
620.527	1145.89
620.726	1161.77
620.925	1191.8
621.124	1160.03
621.323	1193.74
621.522	1144.14
621.721	1134.07
621.92	1121.86
622.119	1166.23
622.318	1093.96
622.517	1135.04
622.715	1156.35
622.914	1064.71
623.113	1130.39
623.312	1081.37
623.511	1158.67
623.71	1099.97
623.909	1094.35
624.107	1188.7
624.306	1066.84
624.505	1089.89
624.704	1090.67
624.902	1111.59
625.101	1135.42
625.3	1085.44
625.499	1071.1
625.697	1060.64
625.896	1063.93
626.095	1125.54
626.293	1038.94
626.492	1045.33
626.69	1097.84
626.889	1064.32
627.088	1107.52
627.286	1043.97
627.485	1054.63
627.683	1055.99
627.882	1100.16
628.08	998.64
628.279	1027.7
628.477	1101.32
628.676	1018.4
628.874	1096.67
629.073	1078.66
629.271	1017.63
629.469	1056.37
629.668	1037
629.866	1007.94
630.065	1004.26
630.263	1086.6
630.461	995.54
630.66	1051.53
630.858	1062.77
631.056	1074.97
631.254	1078.07
631.453	1018.4
631.651	1056.18
631.849	1044.94
632.047	1029.83
632.245	1025.57
632.444	1029.25
632.642	1040.68
632.84	1099.19
633.038	1012.39
633.236	1000.38
633.434	994.76
633.632	990.69
633.83	994.96
634.028	1053.66
634.227	1026.73
634.425	1062.19
634.623	1025.57
634.821	1034.48
635.019	1045.33
635.216	978.88
635.414	1035.26
635.612	1039.71
635.81	1016.08
636.008	1078.07
636.206	1000.19
636.404	1052.5
636.602	965.89
636.8	976.55
636.997	1032.16
637.195	1053.08
637.393	1000.96
637.591	1069.74
637.789	1033.12
637.986	1007.74
638.184	1014.72
638.382	1051.14
638.58	1065.09
638.777	1063.74
638.975	1004.84
639.173	1027.12
639.37	1058.7
639.568	1032.74
639.765	1048.43
639.963	997.86
640.161	1063.16
640.358	1058.7
640.556	982.94
640.753	982.94
640.951	971.51
641.148	1025.96
641.346	963.38
641.543	972.48
641.741	1009.68
641.938	953.11
642.136	980.43
642.333	935.48
642.531	1051.14
642.728	1045.14
642.925	974.81
643.123	949.04
643.32	980.04
643.517	957.76
643.715	994.57
643.912	958.14
644.109	1006.58
644.306	962.02
644.504	918.43
644.701	957.56
644.898	1004.84
645.095	934.12
645.293	949.62
645.49	974.03
645.687	956.4
645.884	978.49
646.081	881.81
646.278	937.03
646.475	920.75
646.672	919.59
646.87	898.08
647.067	934.51
647.264	913.78
647.461	863.4
647.658	861.66
647.855	928.31
648.052	890.91
648.249	831.24
648.446	911.65
648.642	865.15
648.839	856.81
649.036	863.79
649.233	855.65
649.43	849.45
649.627	802.95
649.824	841.7
650.021	841.7
650.217	851.39
650.414	860.11
650.611	881.81
650.808	898.08
651.004	885.49
651.201	916.88
651.398	962.6
651.595	890.33
651.791	868.44
651.988	893.82
652.185	829.3
652.381	887.62
652.578	817.68
652.775	876
652.971	858.75
653.168	877.16
653.364	900.6
653.561	803.73
653.757	847.71
653.954	883.75
654.15	839.57
654.347	955.43
654.543	891.11
654.74	814.97
654.936	815.35
655.133	826.98
655.329	842.87
655.525	820
655.722	866.11
655.918	802.18
656.115	861.66
656.311	728.17
656.507	717.7
656.704	681.67
656.9	712.67
657.096	720.8
657.292	707.24
657.489	765.75
657.685	794.43
657.881	729.14
658.077	773.7
658.273	794.04
658.47	869.21
658.666	807.8
658.862	799.27
659.058	810.7
659.254	802.57
659.45	797.92
659.646	788.42
659.842	774.86
660.038	854.3
660.234	818.26
660.43	813.8
660.626	884.52
660.822	874.06
661.018	846.35
661.214	822.52
661.41	789.97
661.606	831.82
661.802	874.83
661.998	838.02
662.194	803.73
662.39	818.07
662.586	848.1
662.781	864.18
662.977	839.96
663.173	851
663.369	798.5
663.564	834.34
663.76	853.71
663.956	774.28
664.152	864.95
664.347	783.19
664.543	801.21
664.739	795.2
664.934	760.52
665.13	740.76
665.326	853.13
665.521	825.23
665.717	772.92
665.912	776.99
666.108	713.64
666.304	814.77
666.499	752.19
666.695	708.02
666.89	778.35
667.086	853.91
667.281	821.94
667.477	855.26
667.672	782.42
667.867	799.47
668.063	789.97
668.258	754.13
668.454	790.75
668.649	874.06
668.844	795.2
669.04	795.01
669.235	782.8
669.43	763.23
669.626	715.77
669.821	790.75
670.016	731.85
670.211	779.32
670.407	760.13
670.602	751.22
670.797	771.37
670.992	804.12
671.187	752
671.382	787.45
671.578	712.09
671.773	810.32
671.968	698.72
672.163	756.26
672.358	788.23
672.553	723.32
672.748	762.65
672.943	803.15
673.138	770.98
673.333	803.15
673.528	691.35
673.723	773.12
673.918	767.3
674.113	723.13
674.308	853.52
674.503	779.12
674.698	788.42
674.892	749.67
675.087	794.43
675.282	772.73
675.477	750.84
675.672	805.28
675.867	762.65
676.061	723.52
676.256	717.51
676.451	739.99
676.646	764.4
676.84	704.53
677.035	728.55
677.23	692.9
677.424	761.68
677.619	781.64
677.814	790.94
678.008	771.18
678.203	684.38
678.397	714.8
678.592	750.64
678.787	800.63
678.981	745.99
679.176	744.64
679.37	778.93
679.565	710.34
679.759	751.22
679.954	777.18
680.148	827.17
680.342	782.42
680.537	758.78
680.731	723.13
680.926	762.65
681.12	745.6
681.314	713.83
681.509	759.17
681.703	753.35
681.897	780.67
682.092	728.36
682.286	738.63
682.48	811.67
682.674	807.22
682.869	735.34
683.063	716.74
683.257	821.17
683.451	705.69
683.645	783
683.839	757.04
684.034	734.17
684.228	773.5
684.422	653.77
684.616	702.2
684.81	761.88
685.004	723.9
685.198	704.34
685.392	754.71
685.586	686.51
685.78	732.62
685.974	767.11
686.168	750.64
686.362	779.32
686.556	675.66
686.75	672.56
686.944	658.42
687.138	711.12
687.331	604.36
687.525	611.34
687.719	564.26
687.913	641.95
688.107	616.57
688.301	591.77
688.494	670.43
688.688	612.69
688.882	570.46
689.076	588.86
689.269	615.99
689.463	706.85
689.657	628.19
689.85	639.04
690.044	640.79
690.238	624.12
690.431	624.32
690.625	611.14
690.818	670.24
691.012	670.04
691.205	688.06
691.399	611.14
691.593	660.94
691.786	685.15
691.98	739.6
692.173	747.35
692.366	692.9
692.56	720.61
692.753	787.45
692.947	686.9
693.14	769.05
693.333	746.38
693.527	679.73
693.72	729.91
693.914	691.74
694.107	706.85
694.3	738.24
694.493	697.94
694.687	722.16
694.88	710.34
695.073	765.17
695.266	745.41
695.46	735.53
695.653	792.49
695.846	788.23
696.039	698.72
696.232	719.25
696.425	797.72
696.618	786.48
696.812	800.43
697.005	862.24
697.198	903.7
697.391	865.15
697.584	860.11
697.777	938.19
697.97	898.86
698.163	912.03
698.356	910.48
698.549	965.31
698.742	955.43
698.935	883.16
699.127	964.34
699.32	895.56
699.513	892.27
699.706	971.71
699.899	930.83
700.092	931.6
700.285	987.98
700.477	954.27
700.67	1006
700.863	1007.16
701.056	1079.24
701.248	1073.04
701.441	1076.91
701.634	1014.72
701.826	1164.87
702.019	1025.96
702.212	1105.01
702.404	1053.08
702.597	1070.71
702.79	1083.5
702.982	1112.75
703.175	1174.56
703.367	1200.52
703.56	1181.15
703.752	1282.28
703.945	1223.97
704.137	1264.65
704.33	1278.41
704.522	1277.44
704.715	1267.56
704.907	1309.6
705.1	1331.88
705.292	1340.41
705.484	1326.65
705.677	1389.43
705.869	1369.08
706.061	1459.95
706.254	1468.67
706.446	1407.25
706.638	1449.29
706.831	1504.32
707.023	1459.37
707.215	1556.44
707.407	1575.04
707.599	1565.35
707.792	1587.24
707.984	1598.67
708.176	1627.54
708.368	1574.45
708.56	1614.56
708.752	1624.64
708.944	1631.8
709.136	1700.39
709.329	1631.42
709.521	1820.71
709.713	1753.28
709.905	1769.36
710.097	1838.53
710.289	1770.72
710.481	1813.93
710.672	1853.84
710.864	1858.49
711.056	1903.63
711.248	1904.99
711.44	1917.77
711.632	1862.36
711.824	1936.37
712.016	1975.12
712.207	1988.88
712.399	1987.14
712.591	2048.17
712.783	2028.79
712.975	2066.19
713.166	2020.65
713.358	2060.37
713.55	2151.43
713.741	2135.16
713.933	2142.91
714.125	2186.11
714.316	2128.77
714.508	2202.39
714.7	2247.73
714.891	2239.01
715.083	2262.26
715.274	2247.53
715.466	2284.93
715.657	2358.94
715.849	2219.25
716.04	2279.11
716.232	2283.38
716.423	2342.08
716.615	2249.66
716.806	2214.98
716.998	2198.9
717.189	2143.49
717.381	2064.83
717.572	2092.15
717.763	2127.6
717.955	2090.21
718.146	2081.88
718.337	2012.32
718.528	2022.4
718.72	1927.07
718.911	1997.02
719.102	1937.92
719.293	2046.81
719.485	2019.3
719.676	1994.89
719.867	1956.52
720.058	1980.74
720.249	1981.52
720.44	1995.47
720.632	2083.82
720.823	2109.78
721.014	2236.68
721.205	2246.37
721.396	2310.5
721.587	2432.75
721.778	2461.82
721.969	2517.03
722.16	2537.77
722.351	2578.84
722.542	2638.13
722.733	2722.79
722.924	2634.64
723.115	2702.06
723.305	2678.62
723.496	2707.68
723.687	2577.68
723.878	2618.95
724.069	2609.26
724.26	2642
724.45	2596.28
724.641	2541.25
724.832	2610.42
725.023	2627.08
725.213	2611.39
725.404	2614.1
725.595	2596.86
725.785	2581.36
725.976	2668.55
726.167	2670.87
726.357	2665.06
726.548	2772.78
726.739	2691.99
726.929	2807.46
727.12	2822.77
727.31	2873.92
727.501	2779.37
727.691	2808.24
727.882	2836.33
728.072	2872.75
728.263	2842.53
728.453	2920.42
728.644	2954.32
728.834	2895.42
729.024	2868.69
729.215	2860.94
729.405	2919.25
729.596	2993.46
729.786	3015.35
729.976	3056.62
730.167	3049.65
730.357	3046.35
730.547	3016.9
730.737	3075.41
730.928	3120.17
731.118	3193.41
731.308	3106.03
731.498	3160.47
731.688	3221.31
731.879	3201.54
732.069	3291.25
732.259	3307.52
732.449	3325.93
732.639	3408.27
732.829	3445.28
733.019	3461.17
733.209	3548.35
733.399	3539.25
733.589	3639.8
733.779	3632.24
733.969	3648.71
734.159	3767.67
734.349	3752.75
734.539	3816.69
734.729	3793.25
734.919	3854.47
735.109	3932.36
735.299	3817.27
735.488	3830.64
735.678	3909.69
735.868	3863.58
736.058	3850.6
736.248	3828.9
736.437	3837.81
736.627	3836.84
736.817	3967.04
737.007	3916.86
737.196	3979.83
737.386	3928.48
737.576	3926.55
737.765	4020.9
737.955	3990.87
738.144	4058.68
738.334	4073.6
738.524	3972.85
738.713	4021.87
738.903	4024.78
739.092	4072.24
739.282	4063.33
739.471	4121.65
739.661	4082.71
739.85	4140.44
740.04	4117.58
740.229	4109.06
740.419	4149.74
740.608	4178.03
740.797	4167.57
740.987	4220.27
741.176	4200.7
741.365	4120.87
741.555	4142.77
741.744	4249.91
741.933	4204.19
742.123	4237.51
742.312	4272
742.501	4309.58
742.69	4372.55
742.88	4229.76
743.069	4346.01
743.258	4319.47
743.447	4364.61
743.636	4336.71
743.825	4285.95
744.014	4362.28
744.204	4363.64
744.393	4299.12
744.582	4402.97
744.771	4435.52
744.96	4394.45
745.149	4373.13
745.338	4372.55
745.527	4414.01
745.716	4397.55
745.905	4374.3
746.094	4452.18
746.283	4438.81
746.471	4414.21
746.66	4497.91
746.849	4452.38
747.038	4511.08
747.227	4444.04
747.416	4494.81
747.604	4439.78
747.793	4417.7
747.982	4451.21
748.171	4468.84
748.359	4469.81
748.548	4491.32
748.737	4446.76
748.926	4465.55
749.114	4319.66
749.303	4478.92
749.491	4426.03
749.68	4353.95
749.869	4480.86
750.057	4449.66
750.246	4359.76
750.434	4430.29
750.623	4404.91
750.811	4373.52
751	4444.04
751.188	4383.21
751.377	4384.37
751.565	4376.43
751.754	4377.78
751.942	4374.3
752.131	4431.84
752.319	4347.95
752.507	4320.63
752.696	4375.26
752.884	4398.32
753.072	4359.57
753.261	4411.88
753.449	4395.22
753.637	4358.8
753.825	4466.71
754.014	4353.76
754.202	4361.9
754.39	4416.92
754.578	4441.14
754.766	4330.7
754.955	4313.65
755.143	4407.04
755.331	4344.46
755.519	4347.17
755.707	4326.83
755.895	4366.55
756.083	4340.97
756.271	4292.15
756.459	4319.27
756.647	4335.74
756.835	4292.15
757.023	4230.54
757.211	4258.24
757.399	4234.22
757.587	4249.52
757.775	4239.06
757.963	4247.39
758.151	4252.62
758.339	4210.39
758.526	4225.69
758.714	4208.64
758.902	4145.87
759.09	4110.22
759.278	3857.77
759.465	3665.76
759.653	3322.83
759.841	3042.86
760.028	2656.15
760.216	2308.95
760.404	2226.22
760.591	1925.33
760.779	1632.58
760.967	1502.96
761.154	1337.5
761.342	1330.53
761.529	1387.29
761.717	1449.88
761.905	1468.28
762.092	1551.4
762.28	1509.16
762.467	1597.9
762.655	1527.76
762.842	1545.78
763.029	1570.19
763.217	1604.49
763.404	1622.89
763.592	1639.75
763.779	1614.95
763.966	1685.86
764.154	1730.23
764.341	1789.9
764.528	1758.51
764.716	1904.02
764.903	1916.61
765.09	2020.07
765.277	2044.68
765.465	2237.07
765.652	2259.93
765.839	2390.71
766.026	2502.89
766.213	2543.19
766.4	2623.21
766.588	2803.97
766.775	2825.87
766.962	2982.61
767.149	2970.6
767.336	3171.13
767.523	3119.59
767.71	3224.41
767.897	3374.95
768.084	3469.69
768.271	3461.94
768.458	3511.54
768.645	3587.88
768.832	3591.36
769.019	3558.62
769.206	3602.02
769.392	3729.12
769.579	3802.35
769.766	3748.88
769.953	3709.74
770.14	3796.54
770.327	3781.43
770.513	3826.77
770.7	3908.91
770.887	3737.45
771.073	3818.82
771.26	3801.19
771.447	3759.73
771.634	3763.41
771.82	3881.4
772.007	3732.6
772.193	3848.27
772.38	3857.77
772.567	3777.36
772.753	3786.85
772.94	3856.22
773.126	3847.11
773.313	3830.83
773.499	3816.88
773.686	3861.25
773.872	3801.58
774.059	3803.13
774.245	3755.47
774.432	3784.14
774.618	3676.03
774.804	3753.92
774.991	3709.55
775.177	3800.22
775.363	3706.64
775.55	3753.34
775.736	3677.97
775.922	3717.88
776.109	3745.78
776.295	3719.43
776.481	3758.18
776.667	3747.52
776.853	3665.76
777.04	3643.48
777.226	3684.56
777.412	3751.79
777.598	3631.66
777.784	3627.4
777.97	3608.41
778.156	3686.69
778.342	3648.52
778.528	3596.59
778.715	3538.08
778.901	3539.25
779.087	3622.36
779.272	3613.84
779.458	3550.87
779.644	3611.71
779.83	3547.58
780.016	3688.04
780.202	3580.9
780.388	3573.34
780.574	3465.23
780.76	3515.8
780.946	3580.9
781.131	3544.67
781.317	3502.24
781.503	3502.82
781.689	3475.89
781.874	3664.21
782.06	3479.57
782.246	3533.43
782.432	3486.35
782.617	3512.7
782.803	3539.44
782.989	3417.96
783.174	3444.12
783.36	3394.13
783.545	3439.66
783.731	3421.64
783.916	3280.79
784.102	3410.6
784.288	3335.23
784.473	3353.05
784.659	3319.54
784.844	3394.71
785.029	3353.83
785.215	3317.99
785.4	3273.81
785.586	3377.85
785.771	3297.64
785.956	3336.59
786.142	3324.57
786.327	3293.38
786.512	3364.1
786.698	3268.58
786.883	3199.99
787.068	3286.79
787.254	3302.1
787.439	3222.27
787.624	3226.92
787.809	3255.6
787.994	3245.72
788.18	3319.92
788.365	3177.71
788.55	3208.13
788.735	3233.51
788.92	3182.17
789.105	3209.87
789.29	3232.74
789.475	3111.84
789.66	3187.01
789.845	3124.43
790.03	3092.46
790.215	3130.24
790.4	3156.01
790.585	3188.18
790.77	3139.16
790.955	3032.4
791.14	3115.13
791.325	3185.66
791.51	3005.47
791.695	3086.46
791.879	3090.91
792.064	3009.35
792.249	3152.53
792.434	3071.15
792.618	3034.34
792.803	3084.71
792.988	3035.7
793.173	3061.27
793.357	3097.5
793.542	2995.01
793.727	3080.06
793.911	3100.02
794.096	3026.2
794.281	3116.68
794.465	3160.47
794.65	3049.45
794.834	3093.63
795.019	3156.01
795.203	3118.23
795.388	3180.04
795.572	3163.57
795.757	3131.6
795.941	3139.54
796.126	3131.99
796.31	3093.82
796.494	3141.29
796.679	3075.61
796.863	3069.21
797.048	3162.41
797.232	3116.3
797.416	3151.75
797.601	3110.29
797.785	3207.74
797.969	3153.11
798.153	3113.97
798.338	3161.24
798.522	3212.2
798.706	3188.18
798.89	3179.46
799.074	3265.09
799.258	3253.08
799.443	3189.34
799.627	3190.69
799.811	3217.82
799.995	3162.79
800.179	3114.36
800.363	3150.01
800.547	3167.83
800.731	3226.73
800.915	3087.23
801.099	3136.06
801.283	3121.14
801.467	3116.49
801.651	3084.13
801.835	3199.8
802.019	3166.28
802.202	3145.74
802.386	3084.33
802.57	3101.18
802.754	3137.22
802.938	3087.43
803.121	3086.85
803.305	3205.03
803.489	3122.88
803.673	3116.49
803.856	3124.24
804.04	3113.58
804.224	3160.66
804.407	3122.3
804.591	3122.3
804.775	3114.16
804.958	3160.28
805.142	3202.13
805.326	3129.08
805.509	3111.65
805.693	3177.33
805.876	3123.85
806.06	3148.84
806.243	3140.9
806.427	3180.81
806.61	3205.61
806.794	3126.18
806.977	3193.99
807.16	3123.46
807.344	3144
807.527	3135.28
807.71	3103.12
807.894	3139.16
808.077	3115.71
808.26	3081.61
808.444	3078.9
808.627	3178.29
808.81	3058.75
808.993	3017.29
809.177	2972.34
809.36	3047.32
809.543	3085.3
809.726	2958
809.909	2971.76
810.092	2940.95
810.276	2962.65
810.459	2954.13
810.642	2932.24
810.825	2894.84
811.008	2940.57
811.191	2859.19
811.374	2848.34
811.557	2846.6
811.74	2917.9
811.923	2829.55
812.106	2812.5
812.289	2787.31
812.472	2791.96
812.654	2805.91
812.837	2791.38
813.02	2693.34
813.203	2684.63
813.386	2582.72
813.569	2589.69
813.751	2507.73
813.934	2528.27
814.117	2489.72
814.3	2495.72
814.482	2451.74
814.665	2379.28
814.848	2344.6
815.03	2351.19
815.213	2333.17
815.396	2260.9
815.578	2223.9
815.761	2205.3
815.943	2289.38
816.126	2164.41
816.309	2153.95
816.491	2101.25
816.674	2007.09
816.856	2071.61
817.039	2077.42
817.221	2122.18
817.403	2049.91
817.586	2078.2
817.768	2124.31
817.951	2064.64
818.133	2015.62
818.315	2021.04
818.498	2089.82
818.68	2121.4
818.862	2114.43
819.045	2133.61
819.227	2100.87
819.409	2070.64
819.591	2141.36
819.774	2086.14
819.956	2030.15
820.138	2156.08
820.32	2093.7
820.502	2163.83
820.684	2239.59
820.866	2230.1
821.048	2282.02
821.231	2320.96
821.413	2296.94
821.595	2271.75
821.777	2286.28
821.959	2264.78
822.141	2329.29
822.323	2238.62
822.505	2158.99
822.686	2085.75
822.868	1998.95
823.05	1915.64
823.232	1855.19
823.414	1761.03
823.596	1870.31
823.778	1831.17
823.96	1849.19
824.141	1876.51
824.323	1903.05
824.505	2004.38
824.687	2009.61
824.868	2086.92
825.05	2167.13
825.232	2191.93
825.413	2286.28
825.595	2257.22
825.777	2144.07
825.958	2234.55
826.14	2195.22
826.321	2243.08
826.503	2200.45
826.685	2173.91
826.866	2217.7
827.048	2207.43
827.229	2177.2
827.411	2133.03
827.592	2096.6
827.773	2076.45
827.955	2046.81
828.136	2038.87
828.318	1961.17
828.499	2052.62
828.68	1986.75
828.862	2002.25
829.043	2033.44
829.224	2017.36
829.406	1949.55
829.587	1956.52
829.768	2029.76
829.949	2006.51
830.131	1963.69
830.312	2042.55
830.493	1990.43
830.674	2005.15
830.855	1991.01
831.036	1985
831.218	2047.59
831.399	2086.33
831.58	2019.88
831.761	1992.75
831.942	2028.6
832.123	1977.64
832.304	1941.02
832.485	1974.93
832.666	1940.64
832.847	1988.1
833.028	1986.36
833.209	1976.48
833.389	2000.5
833.57	1906.54
833.751	1946.26
833.932	2002.05
834.113	1964.27
834.294	1969.12
834.475	2024.34
834.655	2031.12
834.836	2066.77
835.017	2006.32
835.198	1928.62
835.378	2018.33
835.559	2041.19
835.74	1969.7
835.92	2008.64
836.101	1951.29
836.281	2025.5
836.462	2062.7
836.643	2047.97
836.823	2027.44
837.004	2055.72
837.184	2063.47
837.365	2083.43
837.545	2024.53
837.726	2030.73
837.906	2078.78
838.087	2047.78
838.267	2034.99
838.448	2003.8
838.628	2016.2
838.808	2000.5
838.989	2109.97
839.169	1970.09
839.349	2055.53
839.53	2044.29
839.71	2084.98
839.89	1973.77
840.07	2044.68
840.251	1986.55
840.431	2079.75
840.611	2030.15
840.791	1979.58
840.971	2033.05
841.151	2026.85
841.332	1948
841.512	2020.46
841.692	1956.91
841.872	2035.38
842.052	1950.91
842.232	2036.15
842.412	1937.92
842.592	1970.09
842.772	2002.83
842.952	2008.64
843.132	1933.08
843.312	1946.26
843.492	1923.59
843.672	1965.05
843.851	1838.92
844.031	1942.38
844.211	1920.29
844.391	1918.55
844.571	1936.76
844.751	1970.67
844.93	1900.34
845.11	1898.4
845.29	1953.04
845.47	1953.04
845.649	1937.15
845.829	1957.3
846.009	1925.91
846.188	1984.81
846.368	1930.56
846.547	1918.16
846.727	1961.76
846.907	1863.91
847.086	1915.06
847.266	1929.98
847.445	1903.82
847.625	1875.93
847.804	1875.34
847.984	1902.66
848.163	1822.45
848.343	1848.8
848.522	1881.74
848.701	1854.42
848.881	1830.78
849.06	1858.29
849.239	1883.68
849.419	1884.26
849.598	1785.06
849.777	1766.85
849.957	1768.4
850.136	1742.82
850.315	1692.83
850.494	1680.05
850.674	1716.28
850.853	1761.42
851.032	1747.47
851.211	1798.23
851.39	1770.72
851.569	1711.43
851.748	1668.81
851.927	1768.01
852.107	1760.26
852.286	1679.08
852.465	1676.17
852.644	1741.08
852.823	1774.4
853.002	1756.96
853.181	1737.2
853.359	1777.31
853.538	1656.41
853.717	1750.76
853.896	1625.41
854.075	1589.76
854.254	1514.2
854.433	1495.21
854.611	1511.68
854.79	1438.64
854.969	1518.07
855.148	1541.13
855.327	1477.39
855.505	1564.19
855.684	1546.36
855.863	1579.3
856.041	1544.81
856.22	1610.1
856.399	1561.47
856.577	1700.78
856.756	1644.01
856.934	1759.68
857.113	1790.1
857.291	1671.33
857.47	1644.2
857.648	1669.2
857.827	1680.43
858.005	1663
858.184	1635.68
858.362	1746.31
858.541	1670.94
858.719	1651.76
858.898	1604.49
859.076	1619.6
859.254	1671.91
859.433	1597.12
859.611	1612.04
859.789	1567.67
859.967	1677.33
860.146	1699.62
860.324	1557.21
860.502	1601.97
860.68	1539.97
860.859	1608.17
861.037	1568.64
861.215	1597.32
861.393	1601.39
861.571	1585.89
861.749	1550.04
861.927	1599.25
862.105	1597.32
862.283	1614.17
862.461	1574.07
862.639	1483.39
862.817	1551.79
862.995	1554.69
863.173	1529.31
863.351	1555.27
863.529	1562.83
863.707	1583.17
863.885	1533.96
864.063	1501.41
864.241	1504.12
864.418	1557.4
864.596	1518.46
864.774	1473.32
864.952	1534.74
865.129	1503.35
865.307	1481.07
865.485	1430.69
865.663	1523.11
865.84	1458.98
866.018	1427.98
866.196	1301.27
866.373	1313.86
866.551	1278.22
866.728	1245.67
866.906	1271.63
867.084	1317.55
867.261	1364.63
867.439	1367.34
867.616	1378.58
867.794	1382.84
867.971	1400.47
868.149	1413.84
868.326	1451.23
868.503	1454.53
868.681	1398.53
868.858	1376.44
869.035	1351.45
869.213	1444.45
869.39	1365.6
869.567	1489.79
869.745	1377.8
869.922	1407.25
870.099	1431.86
870.276	1420.23
870.454	1402.79
870.631	1433.41
870.808	1394.46
870.985	1441.16
871.162	1487.07
871.339	1413.84
871.517	1336.92
871.694	1356.1
871.871	1369.86
872.048	1347.19
872.225	1333.05
872.402	1397.76
872.579	1327.23
872.756	1380.51
872.933	1309.21
873.11	1371.79
873.287	1358.43
873.463	1340.6
873.64	1294.88
873.817	1354.36
873.994	1298.17
874.171	1271.43
874.348	1340.41
874.524	1251.87
874.701	1308.63
874.878	1251.09
875.055	1328.01
875.231	1294.1
875.408	1292.94
875.585	1255.74
875.762	1292.75
875.938	1262.91
876.115	1270.66
876.291	1255.74
876.468	1282.28
876.645	1198.58
876.821	1246.25
876.998	1224.35
877.174	1255.35
877.351	1241.79
877.527	1204.78
877.704	1255.55
877.88	1254.77
878.057	1227.65
878.233	1288.68
878.409	1250.12
878.586	1260
878.762	1221.06
878.938	1220.28
879.115	1163.71
879.291	1229
879.467	1168.75
879.644	1179.6
879.82	1248.57
879.996	1183.47
880.172	1150.92
880.349	1209.63
880.525	1229
880.701	1141.62
880.877	1160.61
881.053	1194.71
881.229	1191.22
881.405	1198.58
881.581	1179.99
881.757	1162.94
881.933	1204.59
882.109	1216.02
882.285	1191.8
882.461	1126.9
882.637	1173.01
882.813	1169.33
882.989	1173.01
883.165	1222.22
883.341	1137.55
883.517	1213.5
883.693	1204.4
883.869	1185.22
884.044	1157.32
884.22	1218.73
884.396	1233.07
884.572	1170.1
884.747	1228.03
884.923	1203.62
885.099	1199.55
885.275	1227.84
885.45	1144.53
885.626	1147.63
885.801	1113.34
885.977	1175.14
886.153	1084.27
886.328	1200.13
886.504	1148.79
886.679	1170.88
886.855	1140.65
887.03	1186.38
887.206	1208.47
887.381	1149.37
887.557	1183.67
887.732	1186.38
887.908	1222.42
888.083	1224.35
888.258	1142.79
888.434	1128.64
888.609	1151.5
888.784	1207.3
888.96	1158.48
889.135	1184.64
889.31	1116.44
889.485	1161.19
889.661	1153.64
889.836	1201.1
890.011	1196.65
890.186	1149.95
890.361	1110.82
890.537	1185.41
890.712	1132.71
890.887	1168.17
891.062	1136.39
891.237	1217.57
891.412	1108.1
891.587	1164.29
891.762	1183.86
891.937	1238.69
892.112	1116.44
892.287	1163.13
892.462	1133.29
892.637	1082.72
892.812	1075.56
892.987	1080.4
893.161	1101.71
893.336	1105.39
893.511	1072.84
893.686	1106.36
893.861	1086.99
894.035	1065.29
894.21	1105.01
894.385	1033.32
894.56	1080.4
894.734	1035.26
894.909	1002.9
895.084	998.44
895.258	1024.41
895.433	1008.52
895.608	985.66
895.782	940.32
895.957	993.21
896.131	968.8
896.306	917.46
896.48	884.52
896.655	906.61
896.829	821.94
897.004	815.55
897.178	829.5
897.353	844.42
897.527	891.5
897.701	835.89
897.876	778.15
898.05	902.93
898.224	883.94
898.399	926.37
898.573	830.66
898.747	715.77
898.921	815.74
899.096	674.11
899.27	697.94
899.444	707.05
899.618	737.66
899.792	744.83
899.967	760.72
900.141	805.08
900.315	711.89
900.489	753.35
900.663	773.12
900.837	751.22
901.011	683.8
901.185	801.21
901.359	772.53
901.533	762.65
901.707	752
901.881	768.85
902.055	683.02
902.229	728.94
902.403	846.35
902.576	745.41
902.75	746.38
902.924	871.35
903.098	810.12
903.272	863.01
903.446	904.67
903.619	851.97
903.793	883.16
903.967	879.87
904.14	913.2
904.314	934.51
904.488	882
904.661	932.38
904.835	907.96
905.009	942.84
905.182	992.63
905.356	926.18
905.529	897.31
905.703	874.64
905.876	846.35
906.05	845.96
906.223	826.4
906.397	750.84
906.57	780.67
906.744	745.22
906.917	731.85
907.09	737.66
907.264	735.72
907.437	722.55
907.61	691.55
907.784	683.41
907.957	717.12
908.13	673.53
908.304	737.08
908.477	673.92
908.65	674.3
908.823	645.82
908.996	713.44
909.17	653.19
909.343	681.67
909.516	639.82
909.689	669.46
909.862	658.81
910.035	655.32
910.208	632.07
910.381	634.01
910.554	721.97
910.727	659
910.9	634.2
911.073	649.12
911.246	696.59
911.419	700.46
911.592	698.91
911.765	638.85
911.938	606.88
912.11	651.06
912.283	651.83
912.456	698.52
912.629	704.14
912.802	630.32
912.974	636.33
913.147	551.47
913.32	508.26
913.493	536.94
913.665	558.25
913.838	578.01
914.01	551.47
914.183	569.88
914.356	567.55
914.528	643.31
914.701	689.8
914.873	633.81
915.046	572.98
915.218	552.05
915.391	479.01
915.563	522.21
915.736	537.91
915.908	574.33
916.081	572.39
916.253	549.14
916.425	565.23
916.598	589.06
916.77	565.42
916.942	535.78
917.115	493.15
917.287	568.13
917.459	533.26
917.632	495.86
917.804	440.65
917.976	562.9
918.148	517.95
918.32	528.8
918.493	600.29
918.665	615.21
918.837	564.64
919.009	620.44
919.181	621.99
919.353	611.34
919.525	566.97
919.697	566
919.869	584.79
920.041	630.71
920.213	701.04
920.385	638.46
920.557	589.64
920.729	593.9
920.901	609.21
921.073	568.71
921.244	537.91
921.416	619.86
921.588	558.25
921.76	578.98
921.932	607.85
922.103	569.29
922.275	589.83
922.447	570.26
922.619	513.49
922.79	558.25
922.962	545.66
923.134	612.31
923.305	522.6
923.477	496.06
923.648	515.04
923.82	533.64
923.991	473.58
924.163	487.53
924.335	516.01
924.506	476.3
924.677	573.17
924.849	520.28
925.02	510.39
925.192	562.71
925.363	517.95
925.535	524.15
925.706	477.26
925.877	549.14
926.049	483.08
926.22	500.13
926.391	490.83
926.562	540.23
926.734	480.56
926.905	530.35
927.076	471.06
927.247	474.94
927.419	455.18
927.59	420.11
927.761	437.74
927.932	447.81
928.103	448.01
928.274	384.65
928.445	377.68
928.616	376.13
928.787	393.18
928.958	396.28
929.129	370.32
929.3	380.58
929.471	340.67
929.642	302.31
929.813	244.38
929.984	352.49
930.155	249.61
930.326	305.41
930.496	263.56
930.667	204.86
930.838	276.35
931.009	217.06
931.18	240.5
931.35	201.95
931.521	240.12
931.692	175.79
931.863	128.91
932.033	175.02
932.204	194.39
932.374	176.37
932.545	114.18
932.716	199.04
932.886	188.19
933.057	100.04
933.227	127.94
933.398	186.06
933.568	103.91
933.739	48.5
933.909	50.25
934.08	152.35
934.25	37.26
934.421	72.14
934.591	111.08
934.761	92.09
934.932	52.57
935.102	104.88
935.272	82.21
935.443	79.31
935.613	82.6
935.783	119.61
935.953	55.67
936.123	242.64
936.294	71.94
936.464	89.38
936.634	70.2
936.804	44.24
936.974	20.6
937.144	102.36
937.314	92.48
937.484	77.37
937.655	62.06
937.825	138.21
937.995	56.06
938.165	144.21
938.334	93.45
938.504	119.41
938.674	103.91
938.844	105.66
939.014	179.47
939.184	157.58
939.354	187.61
939.524	188.39
939.694	113.79
939.863	150.22
940.033	224.23
940.203	180.06
940.373	170.76
940.542	197.69
940.712	153.9
940.882	185.87
941.051	208.54
941.221	154.67
941.391	183.16
941.56	105.66
941.73	109.92
941.899	276.54
942.069	135.3
942.238	193.04
942.408	132.78
942.577	185.67
942.747	114.57
942.916	108.56
943.086	105.08
943.255	173.08
943.425	168.04
943.594	120.58
943.763	67.88
943.933	56.06
944.102	67.29
944.271	89.96
944.441	110.89
944.61	91.32
944.779	114.96
944.948	192.46
945.117	92.87
945.287	77.18
945.456	71.75
945.625	82.79
945.794	112.83
945.963	80.66
946.132	130.84
946.301	88.61
946.47	148.09
946.639	43.46
946.808	73.49
946.977	121.54
947.146	135.69
947.315	86.67
947.484	146.15
947.653	104.49
947.822	81.05
947.991	76.98
948.16	184.51
948.329	176.18
948.498	112.44
948.666	119.8
948.835	147.12
949.004	63.23
949.173	55.48
949.341	96.36
949.51	135.88
949.679	138.21
949.847	131.62
950.016	182.96
950.185	180.83
950.353	76.4
950.522	140.92
950.69	169.79
950.859	117.67
951.028	171.53
951.196	126.78
951.365	109.34
951.533	117.86
951.701	141.5
951.87	127.16
952.038	78.73
952.207	112.83
952.375	159.13
952.543	94.42
952.712	96.36
952.88	82.41
953.048	180.44
953.217	116.7
953.385	123.68
953.553	147.51
953.721	47.34
953.89	103.72
954.058	34.16
954.226	69.81
954.394	121.35
954.562	54.7
954.73	85.12
954.898	84.73
955.067	149.64
955.235	87.64
955.403	141.31
955.571	218.03
955.739	130.46
955.907	59.16
956.075	80.66
956.243	93.84
956.41	143.44
956.578	56.06
956.746	56.06
956.914	95.39
957.082	120.19
957.25	119.61
957.418	60.32
957.585	121.35
957.753	160.49
957.921	78.53
958.089	96.94
958.256	119.22
958.424	108.56
958.592	112.44
958.759	78.92
958.927	115.93
959.095	98.29
959.262	110.89
959.43	113.6
959.597	65.36
959.765	110.89
959.932	71.75
960.1	130.65
960.267	112.44
960.435	113.99
960.602	123.48
960.77	102.36
960.937	59.93
961.104	98.1
961.272	32.03
961.439	81.83
961.606	103.72
961.774	118.44
961.941	88.03
962.108	94.23
962.275	126.97
962.443	144.02
962.61	132.39
962.777	152.74
962.944	148.47
963.111	137.82
963.278	154.48
963.446	98.29
963.613	130.84
963.78	133.36
963.947	154.09
964.114	125.81
964.281	203.89
964.448	134.33
964.615	93.84
964.782	129.49
964.949	140.73
965.116	155.84
965.282	200.79
965.449	111.08
965.616	76.98
965.783	164.75
965.95	140.14
966.117	77.18
966.283	117.09
966.45	110.11
966.617	108.18
966.784	168.04
966.95	162.04
967.117	135.3
967.284	95.97
967.45	105.46
967.617	187.03
967.784	140.92
967.95	191.68
968.117	131.23
968.283	182.57
968.45	249.03
968.616	122.9
968.783	210.28
968.949	143.24
969.116	155.06
969.282	167.85
969.449	149.83
969.615	129.68
969.781	110.11
969.948	141.69
970.114	74.85
970.28	206.79
970.447	125.61
970.613	196.72
970.779	141.31
970.945	149.06
971.112	154.09
971.278	131.04
971.444	159.13
971.61	177.15
971.776	133.17
971.942	141.89
972.108	172.31
972.275	119.8
972.441	150.02
972.607	204.08
972.773	129.29
972.939	164.36
973.105	133.17
973.271	87.25
973.437	123.09
973.602	123.87
973.768	135.3
973.934	120.58
974.1	170.17
974.266	68.65
974.432	147.51
974.598	120.19
974.763	166.88
974.929	92.68
975.095	175.79
975.261	98.1
975.426	97.71
975.592	142.28
975.758	170.56
975.923	65.55
976.089	101.39
976.255	157.97
976.42	147.31
976.586	126.58
976.751	121.93
976.917	181.02
977.082	135.69
977.248	90.93
977.413	66.91
977.579	92.68
977.744	119.8
977.91	63.42
978.075	93.45
978.24	145.18
978.406	120.19
978.571	61.68
978.736	79.11
978.902	134.14
979.067	77.76
979.232	68.65
979.397	123.87
979.563	157.58
979.728	77.95
979.893	130.26
980.058	93.26
980.223	150.22
980.388	158.36
980.554	95.97
980.719	118.64
980.884	90.93
981.049	164.75
981.214	87.44
981.379	128.33
981.544	109.92
981.709	105.27
981.874	94.23
982.039	93.84
982.204	149.83
982.368	106.24
982.533	83.57
982.698	143.44
982.863	141.69
983.028	89.19
983.193	138.98
983.357	123.09
983.522	101.98
983.687	95.58
983.852	90.35
984.016	107.01
984.181	94.42
984.346	133.75
984.51	132.78
984.675	94.61
984.839	150.02
985.004	119.8
985.168	139.56
985.333	125.81
985.498	114.96
985.662	143.83
985.827	115.73
985.991	106.04
986.155	76.79
986.32	155.84
986.484	169.4
986.649	126.78
986.813	48.89
986.977	109.14
987.142	121.16
987.306	75.43
987.47	84.15
987.634	107.59
987.799	90.93
987.963	107.98
988.127	125.61
988.291	160.49
988.455	103.72
988.62	93.06
988.784	112.24
988.948	144.21
989.112	69.04
989.276	109.53
989.44	102.17
989.604	63.81
989.768	60.32
989.932	181.02
990.096	54.31
990.26	83.57
990.424	51.8
990.588	76.4
990.752	174.82
990.915	124.84
991.079	88.03
991.243	92.87
991.407	109.92
991.571	92.29
991.734	131.04
991.898	113.21
992.062	178.51
992.226	76.98
992.389	71.75
992.553	7.04
992.717	70.01
992.88	96.36
993.044	94.23
993.207	98.88
993.371	140.14
993.535	88.8
993.698	77.95
993.862	109.14
994.025	120.58
994.189	123.87
994.352	103.14
994.515	90.35
994.679	116.12
994.842	74.46
995.006	143.05
995.169	80.47
995.332	50.83
995.496	108.95
995.659	45.01
995.822	68.65
995.985	69.23
996.149	151.96
996.312	92.48
996.475	166.69
996.638	57.61
996.801	117.86
996.964	158.36
997.128	74.66
997.291	87.83
997.454	118.06
997.617	56.83
997.78	122.9
997.943	27.58
998.106	104.88
998.269	70.78
998.432	59.54
998.595	71.17
998.758	28.93
998.92	37.07
999.083	18.47
999.246	74.46
999.409	38.62
999.572	1.61
999.735	53.73
999.897	73.3
1000.06	28.35
1000.223	81.44
1000.386	92.68
1000.548	112.44
1000.711	103.72
1000.874	79.5
1001.036	8.01
1001.199	132.78
1001.361	46.18
1001.524	63.23
1001.687	91.32
1001.849	53.54
1002.012	58.19
1002.174	66.91
1002.337	107.59
1002.499	71.17
1002.661	96.36
1002.824	29.13
1002.986	46.76
1003.149	64.78
1003.311	31.45
1003.473	129.49
1003.636	36.68
1003.798	83.38
1003.96	89.77
1004.123	55.67
1004.285	38.43
1004.447	48.31
1004.609	72.91
1004.771	105.66
1004.933	16.92
1005.096	28.74
1005.258	5.68
1005.42	47.53
1005.582	97.13
1005.744	76.59
1005.906	4.33
1006.068	50.05
1006.23	39.78
1006.392	34.16
1006.554	-14.47
1006.716	58.19
1006.878	76.59
1007.04	18.66
1007.202	28.74
1007.363	80.86
1007.525	92.68
1007.687	67.29
1007.849	94.42
1008.011	4.91
1008.172	21.38
1008.334	12.46
1008.496	61.48
1008.658	-1.29
1008.819	28.16
1008.981	11.11
1009.143	29.13
1009.304	60.32
1009.466	87.64
1009.627	112.44
1009.789	129.68
1009.95	79.69
1010.112	48.89
1010.273	61.68
1010.435	15.18
1010.596	32.23
1010.758	46.76
1010.919	43.27
1011.081	25.06
1011.242	60.51
1011.403	71.56
1011.565	34.94
1011.726	39.59
1011.887	2.39
1012.049	23.12
1012.21	64.78
1012.371	109.34
1012.532	-16.4
1012.693	31.84
1012.855	35.52
1013.016	34.16
1013.177	76.21
1013.338	30.87
1013.499	100.04
1013.66	68.07
1013.821	72.91
1013.982	40.75
1014.143	63.81
1014.304	21.76
1014.465	41.14
1014.626	80.66
1014.787	13.63
1014.948	135.11
1015.109	-32.48
1015.27	87.06
1015.431	6.26
1015.592	20.21
1015.752	107.21
1015.913	38.23
1016.074	45.21
1016.235	53.35
1016.395	34.94
1016.556	40.36
1016.717	38.43
1016.877	82.79
1017.038	7.62
1017.199	56.06
1017.359	18.66
1017.52	60.71
1017.681	10.33
1017.841	37.07
1018.002	31.65
1018.162	29.13
1018.323	68.07
1018.483	29.51
1018.644	26.61
1018.804	0.84
1018.964	10.91
1019.125	29.71
1019.285	40.56
1019.446	-13.11
1019.606	-10.79
1019.766	-35
1019.926	65.16
1020.087	61.29
1020.247	-1.49
1020.407	45.01
1020.567	85.7
1020.728	38.43
1020.888	4.71
1021.048	13.05
1021.208	20.41
1021.368	12.46
1021.528	64.19
1021.688	46.18
1021.848	65.36
1022.008	26.03
1022.168	4.71
1022.328	26.41
1022.488	33.58
1022.648	6.85
1022.808	17.11
1022.968	40.17
1023.128	-17.37
1023.288	6.85
1023.448	45.6
1023.608	31.65
1023.767	51.99
1023.927	-12.14
1024.087	-12.53
1024.247	6.07
1024.406	11.88
1024.566	-37.52
1024.726	-4.59
1024.885	13.82
1025.045	52.18
1025.205	46.56
1025.364	-3.04
1025.524	25.25
1025.683	-0.13
1025.843	37.26
1026.003	10.91
1026.162	76.01
1026.321	63.03
1026.481	2.97
1026.64	-11.56
1026.8	35.33
1026.959	35.91
1027.119	41.53
1027.278	21.38
1027.437	1.03
1027.597	31.26
1027.756	18.66
1027.915	24.28
1028.074	65.94
1028.234	16.34
1028.393	27.77
1028.552	-15.82
1028.711	-46.24
1028.87	63.23
1029.03	-17.76
1029.189	20.99
1029.348	-41.2
1029.507	-19.89
1029.666	18.28
1029.825	-38.3
1029.984	-0.32
1030.143	37.07
1030.302	-21.25
1030.461	-48.95
1030.62	41.72
1030.779	41.72
1030.938	-13.3
1031.097	-24.74
1031.255	44.05
1031.414	73.88
1031.573	64
1031.732	-57.48
1031.891	21.96
1032.049	70.01
1032.208	41.14
1032.367	-11.95
1032.525	-15.63
1032.684	29.9
1032.843	27.96
1033.001	-30.93
1033.16	161.84
1033.319	61.68
1033.477	32.23
1033.636	8.98
1033.794	-50.12
1033.953	36.88
1034.111	23.9
1034.27	-14.66
1034.428	32.03
1034.587	-20.86
1034.745	23.12
1034.903	15.37
1035.062	33.58
1035.22	-40.43
1035.378	33.2
1035.537	-23.19
1035.695	39.2
1035.853	20.21
1036.011	27.38
1036.17	44.05
1036.328	-47.79
1036.486	17.89
1036.644	45.4
1036.802	-81.89
1036.96	1.81
1037.119	20.99
1037.277	7.04
1037.435	-19.89
1037.593	-5.75
1037.751	20.6
1037.909	38.43
1038.067	38.43
