Data from gum_old_FLMT105791__60__15-43-48-257.txt Node

Date: Mon Mar 20 15:43:48 GMT 2023
User: antho
Spectrometer: FLMT10579
Trigger mode: 0
Integration Time (sec): 1.000000E-1
Scans to average: 10
Electric dark correction enabled: true
Nonlinearity correction enabled: false
Boxcar width: 0
XAxis mode: Wavelengths
Number of Pixels in Spectrum: 3648
>>>>>Begin Spectral Data<<<<<
345.248	-177.08
345.464	-177.08
345.681	-177.08
345.898	-164.49
346.114	-160.62
346.331	-34.29
346.548	37.59
346.764	-6.78
346.981	-37.01
347.197	-0
347.414	22.09
347.631	-21.51
347.847	48.63
348.064	0.97
348.28	44.37
348.497	-45.34
348.713	-8.72
348.93	22.47
349.146	18.21
349.363	23.25
349.579	16.08
349.796	22.28
350.012	0.97
350.229	33.32
350.445	19.18
350.661	-2.13
350.878	22.67
351.094	34.49
351.311	36.42
351.527	40.11
351.743	12.21
351.96	47.08
352.176	58.12
352.392	52.51
352.609	53.09
352.825	1.16
353.041	30.03
353.257	-0
353.474	0.97
353.69	46.5
353.906	31.58
354.122	-5.04
354.339	72.85
354.555	32.94
354.771	29.45
354.987	103.85
355.203	69.17
355.42	26.54
355.636	24.02
355.852	23.25
356.068	45.34
356.284	10.66
356.5	70.52
356.716	56.96
356.932	15.5
357.148	64.52
357.364	26.74
357.58	57.54
357.796	110.24
358.012	89.7
358.228	77.5
358.444	-27.12
358.66	89.12
358.876	40.3
359.092	3.68
359.308	38.75
359.524	54.06
359.74	39.72
359.956	32.94
360.172	23.25
360.388	84.67
360.604	15.11
360.819	97.26
361.035	58.9
361.251	58.71
361.467	32.36
361.683	67.04
361.898	58.12
362.114	73.82
362.33	58.51
362.546	70.33
362.762	61.22
362.977	50.76
363.193	21.7
363.409	110.05
363.624	43.21
363.84	17.05
364.056	26.16
364.271	37.97
364.487	52.89
364.703	31.58
364.918	14.72
365.134	40.88
365.35	36.23
365.565	149.77
365.781	63.94
365.996	79.05
366.212	91.45
366.427	76.14
366.643	48.82
366.858	53.28
367.074	30.03
367.289	118.96
367.505	161.2
367.72	9.11
367.936	48.44
368.151	93.58
368.367	80.21
368.582	59.09
368.798	53.09
369.013	120.9
369.228	63.94
369.444	75.76
369.659	114.12
369.874	64.52
370.09	119.54
370.305	6.2
370.52	53.86
370.736	119.35
370.951	56.19
371.166	117.02
371.381	149.38
371.597	101.14
371.812	13.37
372.027	25.77
372.242	62.39
372.458	116.05
372.673	68.01
372.888	58.51
373.103	91.45
373.318	147.64
373.533	96.1
373.749	108.3
373.964	20.92
374.179	119.35
374.394	32.94
374.609	121.29
374.824	26.93
375.039	94.94
375.254	40.3
375.469	127.49
375.684	83.51
375.899	143.95
376.114	75.95
376.329	76.53
376.544	112.76
376.759	79.63
376.974	40.49
377.189	52.51
377.404	66.84
377.619	93.58
377.834	34.49
378.049	63.16
378.264	37.39
378.478	107.34
378.693	80.41
378.908	106.75
379.123	62.77
379.338	116.83
379.553	102.3
379.767	88.54
379.982	88.15
380.197	96.87
380.412	91.06
380.626	96.1
380.841	159.84
381.056	119.54
381.271	148.41
381.485	66.26
381.7	53.28
381.915	105.4
382.129	61.81
382.344	84.67
382.559	70.14
382.773	129.04
382.988	34.68
383.202	88.54
383.417	45.34
383.632	152.48
383.846	98.62
384.061	78.08
384.275	65.49
384.49	110.82
384.704	140.85
384.919	93.19
385.133	103.07
385.348	118.57
385.562	72.46
385.777	123.61
385.991	98.62
386.206	64.71
386.42	79.63
386.634	114.12
386.849	129.81
387.063	115.67
387.277	96.29
387.492	91.45
387.706	58.32
387.92	85.25
388.135	141.63
388.349	116.05
388.563	103.27
388.778	121.29
388.992	109.66
389.206	141.05
389.42	177.28
389.635	129.42
389.849	139.3
390.063	159.26
390.277	119.74
390.491	186.58
390.706	155.77
390.92	150.15
391.134	145.31
391.348	178.44
391.562	105.2
391.776	126.9
391.99	121.87
392.205	163.33
392.419	117.6
392.633	149.57
392.847	182.51
393.061	88.93
393.275	160.42
393.489	89.12
393.703	111.99
393.917	100.75
394.131	67.42
394.345	129.23
394.559	151.51
394.773	133.3
394.986	138.92
395.2	132.72
395.414	204.79
395.628	126.71
395.842	138.72
396.056	147.25
396.27	93.19
396.484	172.82
396.697	161.78
396.911	165.65
397.125	136.2
397.339	144.92
397.553	125.55
397.766	210.6
397.98	172.24
398.194	192.78
398.408	153.06
398.621	204.4
398.835	218.35
399.049	226.68
399.262	248.58
399.476	272.6
399.69	235.02
399.903	292.17
400.117	223.2
400.331	258.07
400.544	215.06
400.758	371.99
400.971	237.53
401.185	282.68
401.398	194.91
401.612	293.91
401.826	275.12
402.039	291.01
402.253	246.06
402.466	287.71
402.68	283.65
402.893	270.86
403.106	273.18
403.32	264.46
403.533	305.15
403.747	257.88
403.96	268.34
404.174	283.45
404.387	225.91
404.6	296.05
404.814	303.02
405.027	260.78
405.24	288.88
405.454	248.19
405.667	299.34
405.88	219.71
406.094	283.06
406.307	307.28
406.52	291.4
406.733	234.24
406.947	225.52
407.16	331.7
407.373	315.23
407.586	257.88
407.799	268.53
408.012	312.32
408.226	312.71
408.439	359.59
408.652	245.87
408.865	311.74
409.078	339.83
409.291	338.67
409.504	298.76
409.717	314.45
409.93	328.98
410.143	316.58
410.357	232.11
410.57	252.26
410.783	296.63
410.996	305.73
411.209	313.68
411.421	337.7
411.634	327.63
411.847	325.69
412.06	331.5
412.273	335.18
412.486	338.86
412.699	423.92
412.912	332.86
413.125	367.54
413.338	376.64
413.55	358.43
413.763	338.09
413.976	368.12
414.189	302.63
414.402	366.57
414.615	414.81
414.827	324.53
415.04	394.08
415.253	380.71
415.466	416.94
415.678	445.42
415.891	370.83
416.104	367.15
416.316	362.31
416.529	338.09
416.742	416.75
416.954	398.73
417.167	375.68
417.38	373.54
417.592	396.99
417.805	341.96
418.017	320.26
418.23	405.51
418.442	334.21
418.655	356.69
418.868	396.6
419.08	419.27
419.293	444.46
419.505	387.49
419.718	373.74
419.93	413.65
420.142	359.59
420.355	414.23
420.567	421.59
420.78	400.67
420.992	359.59
421.205	446.39
421.417	365.6
421.629	424.89
421.842	379.55
422.054	377.81
422.266	458.02
422.479	422.56
422.691	368.89
422.903	440.39
423.115	395.44
423.328	355.53
423.54	393.11
423.752	414.62
423.964	397.96
424.177	427.79
424.389	417.33
424.601	497.16
424.813	424.89
425.025	459.57
425.238	440.58
425.45	409.78
425.662	422.95
425.874	707.76
426.086	427.79
426.298	450.66
426.51	418.49
426.722	427.02
426.934	384.78
427.146	478.36
427.358	417.14
427.57	443.29
427.782	407.06
427.994	390.98
428.206	378.78
428.418	379.36
428.63	447.56
428.842	468.48
429.054	460.54
429.266	474.49
429.478	393.31
429.69	402.8
429.902	338.86
430.114	434.58
430.325	378.58
430.537	346.42
430.749	334.8
430.961	287.52
431.173	326.27
431.384	367.93
431.596	276.86
431.808	380.52
432.02	429.73
432.231	476.81
432.443	545.01
432.655	499.48
432.867	478.56
433.078	502.58
433.29	533.77
433.502	470.81
433.713	511.11
433.925	520.41
434.136	558.19
434.348	427.6
434.56	415.59
434.771	563.03
434.983	411.13
435.194	443.29
435.406	502.58
435.617	548.89
435.829	602.75
436.04	544.43
436.252	550.63
436.463	554.7
436.675	597.52
436.886	559.35
437.098	550.24
437.309	635.68
437.521	567.29
437.732	546.37
437.943	526.99
438.155	540.75
438.366	491.15
438.578	579.3
438.789	537.45
439	558.38
439.211	493.67
439.423	542.88
439.634	563.8
439.845	564.19
440.057	579.11
440.268	613.02
440.479	545.2
440.69	575.24
440.902	542.88
441.113	555.09
441.324	551.21
441.535	601.39
441.746	662.62
441.957	560.7
442.168	595.58
442.38	627.16
442.591	644.02
442.802	568.84
443.013	585.89
443.224	637.62
443.435	624.64
443.646	619.6
443.857	617.86
444.068	588.8
444.279	617.47
444.49	709.31
444.701	626.19
444.912	741.47
445.123	662.03
445.334	662.03
445.545	671.33
445.756	651.38
445.967	603.14
446.178	643.43
446.388	640.92
446.599	638.98
446.81	665.91
447.021	626.58
447.232	641.88
447.443	735.66
447.653	654.09
447.864	730.43
448.075	690.32
448.286	707.37
448.496	684.51
448.707	721.9
448.918	671.14
449.129	775.57
449.339	654.87
449.55	699.23
449.761	680.63
449.971	726.55
450.182	703.5
450.393	757.55
450.603	688
450.814	770.92
451.024	736.43
451.235	781.58
451.446	758.91
451.656	780.61
451.867	718.8
452.077	746.12
452.288	786.81
452.498	799.79
452.709	707.37
452.919	734.69
453.13	681.22
453.34	721.51
453.55	657.19
453.761	711.63
453.971	732.95
454.182	768.01
454.392	710.86
454.602	810.44
454.813	778.67
455.023	747.48
455.233	699.04
455.444	756.2
455.654	664.17
455.864	749.41
456.075	747.28
456.285	696.13
456.495	741.08
456.705	763.56
456.916	779.06
457.126	841.44
457.336	761.23
457.546	692.45
457.756	744.57
457.967	811.8
458.177	768.98
458.387	783.9
458.597	738.95
458.807	754.65
459.017	731.78
459.227	707.37
459.437	723.45
459.647	775.38
459.857	759.1
460.068	746.51
460.278	811.22
460.488	783.71
460.698	846.87
460.908	758.33
461.117	737.01
461.327	746.12
461.537	810.44
461.747	825.94
461.957	803.86
462.167	933.09
462.377	872.83
462.587	819.16
462.797	870.31
463.007	803.28
463.216	878.64
463.426	915.07
463.636	864.11
463.846	763.75
464.056	787
464.265	863.34
464.475	765.3
464.685	820.33
464.895	850.16
465.104	817.23
465.314	863.92
465.524	803.66
465.733	778.86
465.943	901.89
466.153	898.21
466.362	893.95
466.572	858.49
466.782	844.74
466.991	843.77
467.201	888.91
467.41	784.1
467.62	879.22
467.829	849
468.039	855.2
468.249	845.32
468.458	871.09
468.668	906.74
468.877	869.34
469.086	923.98
469.296	933.67
469.505	875.93
469.715	963.89
469.924	916.81
470.134	972.03
470.343	960.79
470.552	887.94
470.762	884.84
470.971	884.07
471.18	907.71
471.39	910.42
471.599	863.73
471.808	935.02
472.018	900.15
472.227	998.57
472.436	991.4
472.645	990.44
472.855	934.64
473.064	1032.09
473.273	1023.18
473.482	982.49
473.691	1024.92
473.901	1027.25
474.11	970.09
474.319	1072.39
474.528	1001.29
474.737	1090.22
474.946	1034.8
475.155	1084.98
475.364	1122.38
475.573	1075.88
475.783	1080.92
475.992	1082.08
476.201	1136.91
476.41	1062.51
476.619	1066.77
476.828	1081.3
477.037	1061.35
477.245	1104.55
477.454	1123.54
477.663	1124.7
477.872	1115.21
478.081	1201.23
478.29	1117.92
478.499	1227.97
478.708	1217.7
478.917	1238.43
479.125	1201.04
479.334	1174.69
479.543	1190.96
479.752	1224.29
479.961	1222.74
480.169	1253.35
480.378	1195.03
480.587	1383.55
480.796	1286.87
481.004	1238.04
481.213	1277.18
481.422	1248.12
481.63	1263.43
481.839	1337.24
482.048	1352.16
482.256	1290.36
482.465	1322.52
482.674	1368.63
482.882	1386.46
483.091	1384.32
483.299	1298.11
483.508	1368.82
483.716	1353.91
483.925	1387.04
484.134	1316.71
484.342	1337.82
484.551	1382
484.759	1400.21
484.967	1413.97
485.176	1423.85
485.384	1408.54
485.593	1388.2
485.801	1411.64
486.01	1355.26
486.218	1261.68
486.426	1183.6
486.635	1192.71
486.843	1171.01
487.051	1261.49
487.26	1229.13
487.468	1282.41
487.676	1336.86
487.885	1322.32
488.093	1365.53
488.301	1410.87
488.509	1415.9
488.717	1471.32
488.926	1443.8
489.134	1423.46
489.342	1461.24
489.55	1391.88
489.758	1444
489.967	1456.2
490.175	1541.07
490.383	1474.03
490.591	1637.94
490.799	1495.34
491.007	1567.42
491.215	1601.13
491.423	1518.78
491.631	1542.81
491.839	1526.92
492.047	1577.1
492.255	1468.6
492.463	1463.95
492.671	1455.43
492.879	1542.03
493.087	1541.84
493.295	1570.32
493.503	1569.16
493.711	1632.51
493.919	1604.42
494.127	1630
494.334	1654.02
494.542	1584.27
494.75	1610.62
494.958	1610.81
495.166	1699.36
495.374	1678.43
495.581	1678.82
495.789	1700.52
495.997	1716.99
496.205	1632.9
496.412	1612.75
496.62	1643.36
496.828	1675.14
497.035	1670.88
497.243	1693.54
497.451	1692.58
497.658	1703.23
497.866	1700.71
498.074	1780.34
498.281	1652.86
498.489	1736.56
498.696	1642.01
498.904	1639.49
499.112	1622.63
499.319	1759.03
499.527	1692.19
499.734	1744.69
499.942	1651.7
500.149	1668.16
500.357	1689.28
500.564	1635.23
500.771	1675.91
500.979	1630.96
501.186	1619.15
501.394	1642.78
501.601	1633.48
501.808	1637.16
502.016	1643.95
502.223	1617.79
502.43	1645.3
502.638	1679.79
502.845	1647.82
503.052	1719.31
503.26	1668.74
503.467	1763.1
503.674	1683.47
503.881	1705.56
504.089	1796.23
504.296	1738.49
504.503	1654.02
504.71	1684.24
504.917	1647.43
505.125	1685.99
505.332	1698.97
505.539	1726.68
505.746	1794.49
505.953	1767.75
506.16	1781.31
506.367	1810.37
506.574	1882.25
506.781	1840.6
506.988	1740.04
507.195	1779.76
507.402	1721.64
507.609	1809.02
507.816	1729
508.023	1719.7
508.23	1740.24
508.437	1697.81
508.644	1796.04
508.851	1784.22
509.058	1790.03
509.265	1797.39
509.472	1800.11
509.679	1923.52
509.885	1811.73
510.092	1834.01
510.299	1784.99
510.506	1794.49
510.713	1790.03
510.92	1796.23
511.126	1829.75
511.333	1847.38
511.54	1840.21
511.746	1897.95
511.953	1881.09
512.16	1902.4
512.367	1860.17
512.573	1826.07
512.78	1896.79
512.987	1840.99
513.193	1822.19
513.4	1755.74
513.606	1808.24
513.813	1882.45
514.02	1863.65
514.226	1910.35
514.433	1915.19
514.639	1753.8
514.846	1823.94
515.052	1814.25
515.259	1836.34
515.465	1830.33
515.672	1829.56
515.878	1941.54
516.085	1871.99
516.291	1902.4
516.497	1894.65
516.704	1821.61
516.91	1825.49
517.117	1715.63
517.323	1666.23
517.529	1647.24
517.736	1661.38
517.942	1672.62
518.148	1744.89
518.354	1770.46
518.561	1794.49
518.767	1789.84
518.973	1799.91
519.179	1841.37
519.386	1769.11
519.592	1838.27
519.798	1824.91
520.004	1926.23
520.21	1863.85
520.417	1952.2
520.623	1946.77
520.829	1979.52
521.035	1976.03
521.241	1976.42
521.447	1949.1
521.653	2095.76
521.859	1969.05
522.065	2006.25
522.271	2090.34
522.477	2054.88
522.683	2133.74
522.889	2072.71
523.095	2039.38
523.301	2017.88
523.507	1995.4
523.713	2028.34
523.919	1981.26
524.125	2088.79
524.331	2061.86
524.537	2178.11
524.742	2160.09
524.948	2168.42
525.154	2203.49
525.36	2286.6
525.566	2157.18
525.772	2276.53
525.977	2136.26
526.183	2189.92
526.389	2239.14
526.595	2135.09
526.8	2090.34
527.006	2008.77
527.212	1957.43
527.417	1947.93
527.623	1948.13
527.829	2037.25
528.034	2092.86
528.24	2071.93
528.446	2059.53
528.651	2241.85
528.857	2219.57
529.062	2275.17
529.268	2201.55
529.473	2250.37
529.679	2238.94
529.884	2373.02
530.09	2295.32
530.295	2301.72
530.501	2306.17
530.706	2256.38
530.912	2285.05
531.117	2307.34
531.323	2303.46
531.528	2362.94
531.733	2342.02
531.939	2306.37
532.144	2321.09
532.35	2345.7
532.555	2376.7
532.76	2330.78
532.966	2305.59
533.171	2254.83
533.376	2209.69
533.581	2188.18
533.787	2263.94
533.992	2299.78
534.197	2293.19
534.402	2299
534.607	2298.04
534.813	2401.88
535.018	2353.64
535.223	2317.6
535.428	2354.22
535.633	2378.63
535.838	2390.84
536.043	2376.31
536.249	2479.96
536.454	2396.65
536.659	2415.45
536.864	2380.77
537.069	2397.04
537.274	2367.01
537.479	2397.43
537.684	2343.18
537.889	2307.92
538.094	2422.03
538.299	2384.25
538.504	2394.72
538.708	2414.28
538.913	2424.17
539.118	2405.57
539.323	2421.07
539.528	2357.71
539.733	2393.17
539.938	2389.87
540.142	2388.52
540.347	2377.47
540.552	2332.14
540.757	2317.6
540.962	2348.8
541.166	2244.17
541.371	2277.11
541.576	2359.26
541.781	2269.75
541.985	2367.01
542.19	2351.12
542.395	2478.8
542.599	2472.6
542.804	2439.08
543.008	2500.31
543.213	2359.26
543.418	2352.67
543.622	2431.72
543.827	2366.82
544.031	2449.74
544.236	2449.55
544.44	2417.19
544.645	2532.28
544.849	2390.84
545.054	2449.93
545.258	2525.5
545.463	2533.25
545.667	2400.72
545.872	2488.1
546.076	2479
546.281	2480.55
546.485	2446.83
546.689	2469.31
546.894	2495.85
547.098	2429.2
547.302	2408.47
547.507	2445.48
547.711	2442.77
547.915	2516.2
548.119	2450.32
548.324	2417.19
548.528	2519.1
548.732	2428.62
548.936	2487.91
549.141	2506.9
549.345	2443.15
549.549	2480.74
549.753	2460.2
549.957	2584.98
550.161	2511.16
550.366	2517.94
550.57	2487.91
550.774	2465.82
550.978	2488.88
551.182	2484.42
551.386	2447.03
551.59	2462.53
551.794	2458.46
551.998	2525.11
552.202	2426.3
552.406	2477.45
552.61	2509.03
552.814	2472.02
553.018	2528.79
553.222	2461.95
553.426	2452.45
553.63	2530.34
553.833	2496.24
554.037	2397.04
554.241	2503.6
554.445	2492.17
554.649	2511.74
554.853	2456.52
555.056	2507.09
555.26	2527.82
555.464	2506.12
555.668	2511.93
555.871	2545.06
556.075	2515.42
556.279	2469.7
556.483	2425.33
556.686	2478.8
556.89	2467.76
557.094	2520.26
557.297	2356.16
557.501	2472.6
557.704	2378.83
557.908	2454
558.112	2397.62
558.315	2489.26
558.519	2431.33
558.722	2434.82
558.926	2432.69
559.129	2325.16
559.333	2355.97
559.536	2314.89
559.74	2286.6
559.943	2283.7
560.147	2326.52
560.35	2350.15
560.553	2327.1
560.757	2272.46
560.96	2354.22
561.164	2344.73
561.367	2427.85
561.57	2346.86
561.774	2404.4
561.977	2333.49
562.18	2301.52
562.384	2417.58
562.587	2329.23
562.79	2325.16
562.993	2312.18
563.197	2343.37
563.4	2408.86
563.603	2373.98
563.806	2371.85
564.009	2346.86
564.212	2381.15
564.416	2243.21
564.619	2324
564.822	2241.85
565.025	2349.19
565.228	2258.71
565.431	2297.07
565.634	2192.06
565.837	2283.7
566.04	2194.57
566.243	2210.46
566.446	2101.38
566.649	2223.25
566.852	2161.25
567.055	2203.1
567.258	2250.76
567.461	2282.15
567.664	2304.82
567.867	2169.39
568.07	2214.92
568.273	2216.08
568.475	2264.32
568.678	2176.94
568.881	2191.47
569.084	2172.1
569.287	2071.55
569.489	2129.67
569.692	2104.87
569.895	2172.68
570.098	2093.63
570.3	2071.55
570.503	2039
570.706	2081.62
570.909	2049.46
571.111	2015.55
571.314	2012.45
571.516	1978.16
571.719	2056.63
571.922	2012.06
572.124	2035.12
572.327	2058.95
572.529	1976.22
572.732	2020.98
572.935	2048.88
573.137	2143.43
573.34	2015.75
573.542	2122.5
573.745	2086.46
573.947	2021.95
574.15	2043.26
574.352	2013.23
574.554	2112.81
574.757	2004.7
574.959	2005.48
575.162	1991.92
575.364	1991.14
575.566	2099.83
575.769	1916.16
575.971	2009.35
576.173	1859.78
576.376	1972.93
576.578	2016.71
576.78	2003.15
576.982	1896.79
577.185	1934.76
577.387	1900.08
577.589	1926.23
577.791	1965.76
577.993	1997.34
578.196	1936.12
578.398	1964.4
578.6	1987.46
578.802	1882.25
579.004	1868.89
579.206	1876.25
579.408	1931.85
579.61	1883.42
579.812	1926.82
580.014	1883.61
580.216	1850.67
580.418	1883.03
580.62	1883.22
580.822	1829.75
581.024	1893.88
581.226	1933.4
581.428	1851.06
581.63	1976.61
581.832	1849.7
582.034	1962.47
582.236	1898.92
582.438	1961.69
582.64	1952.58
582.841	1925.46
583.043	2012.65
583.245	1914.42
583.447	1930.5
583.649	1931.08
583.85	1932.24
584.052	1935.53
584.254	1859.2
584.456	1947.55
584.657	1868.11
584.859	1896.98
585.061	1867.92
585.262	1885.74
585.464	1869.08
585.666	1961.5
585.867	1856.29
586.069	1937.47
586.27	1879.15
586.472	1882.45
586.674	1850.29
586.875	1825.29
587.077	1863.46
587.278	1894.07
587.48	1863.85
587.681	1953.75
587.883	1916.35
588.084	1804.17
588.285	1844.67
588.487	1854.74
588.688	1843.7
588.89	1743.73
589.091	1760.19
589.292	1766.59
589.494	1676.69
589.695	1670.1
589.896	1618.76
590.098	1615.08
590.299	1658.28
590.5	1642.59
590.702	1656.54
590.903	1684.05
591.104	1784.22
591.305	1725.71
591.507	1787.32
591.708	1736.56
591.909	1716.6
592.11	1802.82
592.311	1768.91
592.512	1759.03
592.714	1692.96
592.915	1691.22
593.116	1705.17
593.317	1714.66
593.518	1725.71
593.719	1724.16
593.92	1757.48
594.121	1796.42
594.322	1758.06
594.523	1738.88
594.724	1675.14
594.925	1728.61
595.126	1738.88
595.327	1727.84
595.528	1749.92
595.729	1751.47
595.929	1736.36
596.13	1719.12
596.331	1741.4
596.532	1724.93
596.733	1786.35
596.934	1799.14
597.135	1788.67
597.335	1762.71
597.536	1713.31
597.737	1745.86
597.938	1712.53
598.138	1769.88
598.339	1725.13
598.54	1727.45
598.74	1706.53
598.941	1716.79
599.142	1756.71
599.342	1726.87
599.543	1689.28
599.744	1671.07
599.944	1699.36
600.145	1716.21
600.345	1700.52
600.546	1736.75
600.746	1739.66
600.947	1801.46
601.147	1706.91
601.348	1753.61
601.548	1676.69
601.749	1702.84
601.949	1674.75
602.15	1655.76
602.35	1685.99
602.551	1732.29
602.751	1661.58
602.951	1632.13
603.152	1612.36
603.352	1689.86
603.552	1661.96
603.753	1720.86
603.953	1715.24
604.153	1723.77
604.354	1718.34
604.554	1660.41
604.754	1708.66
604.954	1676.69
605.155	1710.4
605.355	1676.3
605.555	1745.86
605.755	1732.68
605.955	1669.13
606.155	1730.94
606.356	1663.51
606.556	1696.64
606.756	1678.24
606.956	1632.51
607.156	1702.84
607.356	1605.58
607.556	1705.36
607.756	1672.62
607.956	1692.77
608.156	1659.45
608.356	1679.4
608.556	1704.98
608.756	1663.51
608.956	1626.31
609.156	1699.36
609.356	1591.44
609.556	1610.62
609.755	1635.23
609.955	1617.79
610.155	1599.19
610.355	1614.69
610.555	1594.93
610.755	1621.28
610.954	1516.85
611.154	1599.38
611.354	1616.43
611.554	1603.26
611.753	1581.75
611.953	1525.37
612.153	1597.83
612.352	1588.92
612.552	1508.13
612.752	1485.27
612.951	1550.75
613.151	1591.83
613.351	1545.52
613.55	1551.14
613.75	1598.22
613.949	1569.35
614.149	1572.07
614.348	1552.5
614.548	1481.78
614.747	1462.99
614.947	1511.03
615.146	1464.54
615.346	1554.24
615.545	1539.13
615.745	1528.28
615.944	1562.96
616.144	1522.08
616.343	1494.76
616.542	1519.17
616.742	1488.75
616.941	1488.37
617.14	1439.93
617.34	1486.43
617.539	1501.35
617.738	1415.9
617.938	1552.11
618.137	1486.82
618.336	1449.23
618.535	1515.68
618.734	1486.62
618.934	1493.6
619.133	1494.57
619.332	1533.12
619.531	1441.09
619.73	1511.62
619.929	1499.22
620.128	1545.33
620.328	1535.25
620.527	1445.94
620.726	1479.07
620.925	1492.05
621.124	1488.95
621.323	1489.14
621.522	1433.73
621.721	1427.72
621.92	1435.67
622.119	1501.73
622.318	1386.46
622.517	1472.48
622.715	1446.32
622.914	1414.16
623.113	1431.79
623.312	1377.93
623.511	1477.13
623.71	1431.99
623.909	1402.34
624.107	1464.54
624.306	1380.64
624.505	1354.49
624.704	1376.96
624.902	1343.06
625.101	1459.5
625.3	1391.88
625.499	1373.86
625.697	1382.77
625.896	1391.49
626.095	1380.06
626.293	1347.12
626.492	1350.81
626.69	1413.97
626.889	1382.77
627.088	1413.77
627.286	1370.57
627.485	1349.84
627.683	1348.87
627.882	1401.18
628.08	1302.37
628.279	1326.59
628.477	1382.97
628.676	1292.68
628.874	1370.18
629.073	1287.45
629.271	1284.74
629.469	1365.34
629.668	1336.47
629.866	1367.08
630.065	1311.09
630.263	1378.51
630.461	1258.39
630.66	1361.85
630.858	1335.11
631.056	1377.54
631.254	1359.14
631.453	1276.79
631.651	1365.72
631.849	1313.02
632.047	1303.53
632.245	1316.12
632.444	1316.32
632.642	1322.13
632.84	1349.84
633.038	1306.44
633.236	1300.43
633.434	1261.68
633.632	1276.41
633.83	1286.48
634.028	1335.69
634.227	1293.84
634.425	1404.86
634.623	1290.36
634.821	1322.13
635.019	1296.75
635.216	1270.01
635.414	1327.94
635.612	1279.7
635.81	1310.12
636.008	1362.04
636.206	1297.14
636.404	1297.91
636.602	1260.71
636.8	1300.82
636.997	1320.39
637.195	1317.29
637.393	1314.77
637.591	1365.34
637.789	1324.07
637.986	1306.24
638.184	1297.53
638.382	1365.72
638.58	1330.07
638.777	1372.89
638.975	1290.55
639.173	1307.21
639.37	1308.38
639.568	1312.83
639.765	1340.92
639.963	1282.8
640.161	1346.16
640.358	1337.44
640.556	1247.93
640.753	1260.91
640.951	1246.57
641.148	1277.57
641.346	1270.4
641.543	1271.18
641.741	1286.29
641.938	1241.34
642.136	1264.78
642.333	1227.39
642.531	1313.41
642.728	1315.93
642.925	1238.82
643.123	1228.74
643.32	1251.8
643.517	1250.25
643.715	1276.02
643.912	1251.22
644.109	1263.04
644.306	1238.63
644.504	1235.53
644.701	1237.85
644.898	1251.41
645.095	1203.36
645.293	1216.73
645.49	1274.47
645.687	1267.11
645.884	1274.86
646.081	1179.53
646.278	1228.55
646.475	1204.33
646.672	1202.2
646.87	1225.84
647.067	1220.8
647.264	1219.06
647.461	1157.45
647.658	1135.36
647.855	1213.63
648.052	1197.16
648.249	1108.23
648.446	1187.09
648.642	1162.87
648.839	1094.28
649.036	1131.68
649.233	1130.9
649.43	1134
649.627	1107.07
649.824	1158.22
650.021	1141.56
650.217	1113.47
650.414	1092.93
650.611	1144.27
650.808	1172.36
651.004	1158.61
651.201	1171.98
651.398	1189.61
651.595	1130.71
651.791	1129.93
651.988	1190
652.185	1134
652.381	1186.51
652.578	1097.19
652.775	1135.75
652.971	1171.01
653.168	1135.94
653.364	1170.43
653.561	1079.95
653.757	1128.38
653.954	1153.18
654.15	1109.4
654.347	1232.23
654.543	1103.97
654.74	1104.75
654.936	1077.43
655.133	1113.85
655.329	1123.73
655.525	1095.83
655.722	1152.41
655.918	1058.44
656.115	1102.03
656.311	992.95
656.507	964.47
656.704	916.23
656.9	952.46
657.096	955.95
657.292	926.69
657.489	1027.44
657.685	1031.51
657.881	994.12
658.077	1041.2
658.273	1036.55
658.47	1117.34
658.666	1050.69
658.862	1122.38
659.058	1075.88
659.254	1112.5
659.45	1050.5
659.646	1084.4
659.842	1105.91
660.038	1095.06
660.234	1078.78
660.43	1099.13
660.626	1166.36
660.822	1136.91
661.018	1141.95
661.214	1133.81
661.41	1044.88
661.606	1130.13
661.802	1135.36
661.998	1122.77
662.194	1078.2
662.39	1108.23
662.586	1135.94
662.781	1109.2
662.977	1121.8
663.173	1105.13
663.369	1080.53
663.564	1091.96
663.76	1128.38
663.956	1069.68
664.152	1130.52
664.347	1028.99
664.543	1114.43
664.739	1095.06
664.934	1045.27
665.13	1006.13
665.326	1101.26
665.521	1097.19
665.717	1060.18
665.912	1032.29
666.108	1015.43
666.304	1036.35
666.499	1065.03
666.695	996.05
666.89	1087.89
667.086	1096.8
667.281	1085.18
667.477	1112.11
667.672	1086.34
667.867	1033.25
668.063	1062.32
668.258	1029.77
668.454	1035.77
668.649	1115.21
668.844	1062.12
669.04	1086.53
669.235	1036.74
669.43	1009.81
669.626	999.54
669.821	989.08
670.016	987.34
670.211	1056.5
670.407	992.95
670.602	1043.14
670.797	1028.41
670.992	1059.22
671.187	983.27
671.382	1050.69
671.578	995.67
671.773	1021.44
671.968	981.72
672.163	1003.42
672.358	1022.21
672.553	986.37
672.748	999.74
672.943	1067.16
673.138	1001.67
673.333	1039.45
673.528	964.47
673.723	1025.12
673.918	993.54
674.113	946.84
674.308	1061.54
674.503	992.57
674.698	1031.32
674.892	1031.7
675.087	1030.74
675.282	1028.6
675.477	980.36
675.672	1005.16
675.867	983.65
676.061	962.15
676.256	919.33
676.451	969.7
676.646	982.88
676.84	969.7
677.035	939.29
677.23	942.19
677.424	1021.05
677.619	1034.22
677.814	1025.12
678.008	1031.9
678.203	953.62
678.397	952.46
678.592	1002.64
678.787	1055.53
678.981	994.12
679.176	970.09
679.37	1007.87
679.565	960.41
679.759	960.99
679.954	995.28
680.148	1027.83
680.342	1059.22
680.537	992.76
680.731	963.89
680.926	996.64
681.12	1029.77
681.314	956.34
681.509	971.64
681.703	965.64
681.897	993.34
682.092	942.19
682.286	960.41
682.48	1047.98
682.674	1005.55
682.869	945.49
683.063	973.19
683.257	1035.77
683.451	930.57
683.645	964.28
683.839	951.11
684.034	951.69
684.228	995.09
684.422	895.69
684.616	922.62
684.81	969.9
685.004	924.37
685.198	947.04
685.392	949.75
685.586	926.5
685.78	937.35
685.974	959.44
686.168	967.57
686.362	999.54
686.556	902.09
686.75	872.44
686.944	873.41
687.138	893.17
687.331	779.83
687.525	793.39
687.719	738.95
687.913	824.01
688.107	772.28
688.301	740.5
688.494	808.7
688.688	774.02
688.882	726.36
689.076	715.9
689.269	775.18
689.463	882.13
689.657	803.86
689.85	821.88
690.044	834.47
690.238	802.69
690.431	803.86
690.625	819.16
690.818	841.06
691.012	818.78
691.205	881.55
691.399	772.86
691.593	827.88
691.786	915.26
691.98	884.84
692.173	929.02
692.366	867.99
692.56	912.74
692.753	917.97
692.947	842.03
693.14	934.25
693.333	932.7
693.527	838.73
693.72	896.08
693.914	912.36
694.107	885.81
694.3	915.46
694.493	856.94
694.687	928.82
694.88	874.96
695.073	939.09
695.266	912.94
695.46	920.11
695.653	946.07
695.846	918.36
696.039	865.47
696.232	906.54
696.425	965.05
696.618	942.97
696.812	963.89
697.005	1023.37
697.198	1097.19
697.391	1006.32
697.584	1031.32
697.777	1083.82
697.97	1055.92
698.163	1042.36
698.356	1030.35
698.549	1114.63
698.742	1091.77
698.935	1027.44
699.127	1071.03
699.32	1025.5
699.513	1059.99
699.706	1076.46
699.899	1066.19
700.092	1041.78
700.285	1125.48
700.477	1047.98
700.67	1099.32
700.863	1127.42
701.056	1214.21
701.248	1145.05
701.441	1172.36
701.634	1140.78
701.826	1230.29
702.019	1119.86
702.212	1196
702.404	1110.56
702.597	1138.65
702.79	1187.28
702.982	1211.7
703.175	1236.11
703.367	1238.43
703.56	1245.21
703.752	1346.35
703.945	1278.15
704.137	1303.73
704.33	1332.01
704.522	1329.11
704.715	1340.92
704.907	1368.24
705.1	1399.44
705.292	1406.8
705.484	1375.41
705.677	1412.61
705.869	1415.13
706.061	1444
706.254	1470.93
706.446	1472.48
706.638	1444.77
706.831	1543.78
707.023	1477.9
707.215	1584.66
707.407	1560.44
707.599	1561.41
707.792	1620.89
707.984	1603.84
708.176	1660.8
708.368	1602.48
708.56	1657.12
708.752	1641.43
708.944	1634.26
709.136	1715.83
709.329	1661.19
709.521	1799.33
709.713	1747.6
709.905	1770.66
710.097	1807.27
710.289	1762.13
710.481	1797.2
710.672	1812.89
710.864	1811.34
711.056	1855.9
711.248	1835.75
711.44	1833.82
711.632	1865.2
711.824	1904.15
712.016	1988.62
712.207	1977.19
712.399	1973.12
712.591	2024.27
712.783	2008
712.975	2001.99
713.166	1986.88
713.358	2006.06
713.55	2077.55
713.741	2062.05
713.933	2078.71
714.125	2074.65
714.316	2067.67
714.508	2195.16
714.7	2164.16
714.891	2119.59
715.083	2214.72
715.274	2169.97
715.466	2199.61
715.657	2265.49
715.849	2128.7
716.04	2252.89
716.232	2164.54
716.423	2249.99
716.615	2169.39
716.806	2144.2
716.998	2100.22
717.189	2050.23
717.381	1997.15
717.572	1962.08
717.763	2016.33
717.955	1969.83
718.146	1968.86
718.337	1954.52
718.528	1909.57
718.72	1852.61
718.911	1851.25
719.102	1857.45
719.293	1933.98
719.485	1886.52
719.676	1918.49
719.867	1872.18
720.058	1883.61
720.249	1879.74
720.44	1935.15
720.632	1953.94
720.823	1998.7
721.014	2095.18
721.205	2111.07
721.396	2209.49
721.587	2283.89
721.778	2316.05
721.969	2386.58
722.16	2433.47
722.351	2445.87
722.542	2559.79
722.733	2539.25
722.924	2499.15
723.115	2573.35
723.305	2524.91
723.496	2539.06
723.687	2452.65
723.878	2447.8
724.069	2482.68
724.26	2478.8
724.45	2431.33
724.641	2431.92
724.832	2465.63
725.023	2444.9
725.213	2427.46
725.404	2394.33
725.595	2452.65
725.785	2465.43
725.976	2480.55
726.167	2528.6
726.357	2511.93
726.548	2641.74
726.739	2539.06
726.929	2628.18
727.12	2671
727.31	2686.69
727.501	2634.38
727.691	2626.63
727.882	2695.8
728.072	2720.02
728.263	2743.85
728.453	2780.27
728.644	2785.7
728.834	2724.28
729.024	2705.68
729.215	2709.94
729.405	2759.74
729.596	2810.69
729.786	2872.3
729.976	2898.65
730.167	2922.48
730.357	2836.27
730.547	2888.58
730.737	2916.09
730.928	2958.71
731.118	3006.76
731.308	2958.13
731.498	2951.74
731.688	3046.29
731.879	3048.42
732.069	3109.26
732.259	3127.27
732.449	3102.28
732.639	3221.44
732.829	3265.8
733.019	3297.19
733.209	3365
733.399	3376.24
733.589	3436.3
733.779	3446.18
733.969	3415.57
734.159	3517.67
734.349	3543.25
734.539	3587.23
734.729	3577.93
734.919	3638.57
735.109	3690.3
735.299	3590.33
735.488	3672.28
735.678	3630.63
735.868	3679.45
736.058	3650.39
736.248	3621.14
736.437	3633.73
736.627	3616.68
736.817	3780.4
737.007	3705.22
737.196	3783.69
737.386	3763.73
737.576	3690.3
737.765	3798.8
737.955	3778.85
738.144	3888.51
738.334	3840.65
738.524	3766.06
738.713	3842.59
738.903	3817.21
739.092	3839.88
739.282	3857.7
739.471	3837.94
739.661	3818.56
739.85	3959.22
740.04	3892.58
740.229	3972.59
740.419	3939.27
740.608	3992.55
740.797	3944.89
740.987	4027.04
741.176	3998.56
741.365	3935.97
741.555	3905.36
741.744	4020.64
741.933	3958.45
742.123	3991.77
742.312	4028
742.501	4119.65
742.69	4087.49
742.88	3972.98
743.069	4133.79
743.258	4036.14
743.447	4132.82
743.636	4152
743.825	4090.97
744.014	4140.96
744.204	4170.41
744.393	4100.47
744.582	4207.41
744.771	4195.98
744.96	4113.25
745.149	4156.65
745.338	4165.95
745.527	4233.18
745.716	4158.01
745.905	4131.27
746.094	4225.05
746.283	4201.8
746.471	4190.95
746.66	4264.57
746.849	4283.94
747.038	4248.68
747.227	4236.86
747.416	4245.39
747.604	4192.3
747.793	4249.07
747.982	4257.01
748.171	4276.97
748.359	4237.64
748.548	4236.48
748.737	4260.11
748.926	4219.23
749.114	4087.87
749.303	4248.68
749.491	4210.51
749.68	4155.49
749.869	4235.7
750.057	4209.35
750.246	4169.63
750.434	4180.1
750.623	4192.5
750.811	4152.2
751	4190.95
751.188	4174.28
751.377	4141.93
751.565	4193.85
751.754	4107.44
751.942	4120.62
752.131	4222.33
752.319	4139.99
752.507	4111.32
752.696	4179.32
752.884	4190.37
753.072	4127.98
753.261	4198.11
753.449	4207.8
753.637	4145.03
753.825	4221.36
754.014	4176.8
754.202	4166.53
754.39	4241.13
754.578	4168.67
754.766	4129.14
754.955	4105.7
755.143	4207.61
755.331	4177.77
755.519	4173.7
755.707	4152.39
755.895	4083.8
756.083	4131.66
756.271	4026.45
756.459	4089.04
756.647	4149.1
756.835	4080.9
757.023	4058.04
757.211	4069.27
757.399	4088.07
757.587	4038.66
757.775	4011.15
757.963	4045.25
758.151	4023.94
758.339	4039.24
758.526	3959.22
758.714	3993.32
758.902	3916.41
759.09	3842.4
759.278	3665.7
759.465	3458
759.653	3085.23
759.841	2885.28
760.028	2501.66
760.216	2204.07
760.404	2106.23
760.591	1790.22
760.779	1583.11
760.967	1396.92
761.154	1241.73
761.342	1276.99
761.529	1293.84
761.717	1368.44
761.905	1366.5
762.092	1495.34
762.28	1466.47
762.467	1501.93
762.655	1460.66
762.842	1516.07
763.029	1511.42
763.217	1535.25
763.404	1542.23
763.592	1596.28
763.779	1545.13
763.966	1606.36
764.154	1624.18
764.341	1689.28
764.528	1699.55
764.716	1786.93
764.903	1825.1
765.09	1893.69
765.277	1944.06
765.465	2111.65
765.652	2164.35
765.839	2257.74
766.026	2344.92
766.213	2430.56
766.4	2525.88
766.588	2681.85
766.775	2702
766.962	2768.84
767.149	2836.07
767.336	3023.62
767.523	2920.55
767.71	3081.94
767.897	3190.63
768.084	3245.27
768.271	3267.93
768.458	3334.58
768.645	3378.56
768.832	3346.6
769.019	3394.84
769.206	3437.27
769.392	3497.91
769.579	3598.66
769.766	3521.94
769.953	3535.5
770.14	3575.99
770.327	3510.51
770.513	3620.94
770.7	3700.96
770.887	3547.51
771.073	3607.77
771.26	3633.34
771.447	3591.1
771.634	3578.51
771.82	3670.73
772.007	3500.43
772.193	3595.75
772.38	3646.52
772.567	3572.31
772.753	3590.72
772.94	3677.9
773.126	3679.65
773.313	3641.67
773.499	3629.66
773.686	3669.38
773.872	3587.04
774.059	3581.81
774.245	3556.04
774.432	3571.92
774.618	3504.89
774.804	3563.79
774.991	3483.19
775.177	3519.81
775.363	3532.01
775.55	3564.56
775.736	3483.19
775.922	3506.05
776.109	3525.23
776.295	3513.8
776.481	3557.59
776.667	3523.1
776.853	3509.73
777.04	3432.62
777.226	3519.42
777.412	3555.65
777.598	3434.36
777.784	3451.8
777.97	3420.22
778.156	3479.7
778.342	3447.93
778.528	3445.02
778.715	3343.3
778.901	3405.5
779.087	3442.69
779.272	3390.58
779.458	3377.98
779.644	3426.81
779.83	3358.03
780.016	3451.22
780.202	3374.69
780.388	3325.28
780.574	3313.27
780.76	3362.29
780.946	3421.58
781.131	3360.35
781.317	3375.85
781.503	3297.58
781.689	3316.18
781.874	3425.06
782.06	3283.63
782.246	3353.96
782.432	3306.68
782.617	3326.45
782.803	3345.05
782.989	3250.69
783.174	3243.91
783.36	3185.79
783.545	3203.61
783.731	3213.3
783.916	3146.26
784.102	3254.37
784.288	3160.79
784.473	3194.5
784.659	3189.27
784.844	3245.46
785.029	3189.47
785.215	3174.74
785.4	3102.86
785.586	3222.21
785.771	3137.74
785.956	3196.64
786.142	3117.59
786.327	3165.05
786.512	3122.82
786.698	3122.82
786.883	3033.89
787.068	3087.17
787.254	3104.8
787.439	3048.23
787.624	3069.34
787.809	3060.24
787.994	3052.88
788.18	3100.92
788.365	3030.98
788.55	3038.34
788.735	3005.99
788.92	3044.54
789.105	3000.18
789.29	3044.93
789.475	2955.61
789.66	2975.18
789.845	2953.87
790.03	2949.8
790.215	2969.56
790.4	2997.66
790.585	2986.03
790.77	2987.19
790.955	2878.7
791.14	2907.56
791.325	3011.61
791.51	2826.97
791.695	2928.88
791.879	2900.98
792.064	2847.12
792.249	2979.83
792.434	2888.38
792.618	2935.27
792.803	2961.43
792.988	2889.35
793.173	2928.3
793.357	2922.87
793.542	2847.7
793.727	2887.61
793.911	2921.13
794.096	2909.5
794.281	2926.36
794.465	3007.15
794.65	2888
794.834	2918.61
795.019	2987.78
795.203	2977.89
795.388	2973.83
795.572	2996.88
795.757	2984.29
795.941	2990.29
796.126	2978.48
796.31	2917.45
796.494	2986.81
796.679	2916.28
796.863	2921.71
797.048	2979.06
797.232	2953.68
797.416	2992.62
797.601	2929.46
797.785	3011.41
797.969	3024.78
798.153	2980.99
798.338	2974.21
798.522	3050.55
798.706	3017.42
798.89	3004.05
799.074	3111
799.258	3074.19
799.443	3005.79
799.627	2999.59
799.811	3083.68
799.995	3007.34
800.179	2950.77
800.363	2962.78
800.547	3015.68
800.731	3004.24
800.915	2947.86
801.099	2977.31
801.283	2976.34
801.467	3044.74
801.651	2988.16
801.835	2993.2
802.019	2981.96
802.202	3026.91
802.386	2916.86
802.57	2956.97
802.754	2973.83
802.938	2900.98
803.121	2923.84
803.305	2997.66
803.489	2932.95
803.673	2999.59
803.856	2967.05
804.04	3000.95
804.224	2999.01
804.407	2940.11
804.591	2933.72
804.775	2973.05
804.958	2945.35
805.142	3076.12
805.326	2923.06
805.509	2976.54
805.693	3014.51
805.876	2972.47
806.06	2991.65
806.243	2966.46
806.427	3004.83
806.61	2996.88
806.794	2951.35
806.977	2973.05
807.16	2943.41
807.344	2966.66
807.527	2944.96
807.71	2922.87
807.894	2962.98
808.077	2989.52
808.26	2906.98
808.444	2920.55
808.627	2998.04
808.81	2930.81
808.993	2827.93
809.177	2858.55
809.36	2883.15
809.543	2874.05
809.726	2770
809.909	2803.52
810.092	2790.54
810.276	2793.64
810.459	2786.09
810.642	2751.6
810.825	2747.53
811.008	2761.09
811.191	2687.86
811.374	2697.74
811.557	2703.55
811.74	2776.59
811.923	2661.31
812.106	2675.84
812.289	2624.69
812.472	2681.46
812.654	2641.74
812.837	2622.17
813.02	2562.31
813.203	2540.99
813.386	2439.08
813.569	2438.31
813.751	2346.67
813.934	2409.44
814.117	2394.72
814.3	2326.32
814.482	2294.16
814.665	2251.73
814.848	2204.65
815.03	2174.23
815.213	2166.09
815.396	2153.69
815.578	2094.41
815.761	2074.84
815.943	2156.99
816.126	2016.13
816.309	2014.78
816.491	1971.38
816.674	1911.32
816.856	1962.27
817.039	1920.81
817.221	1980.29
817.403	1948.71
817.586	1935.73
817.768	1989.01
817.951	1903.76
818.133	1877.41
818.315	1912.29
818.498	1954.52
818.68	1989.59
818.862	2007.03
819.045	2016.13
819.227	2010.9
819.409	1944.06
819.591	1997.34
819.774	1933.21
819.956	1921.97
820.138	2005.48
820.32	1998.5
820.502	2022.14
820.684	2121.14
820.866	2086.27
821.048	2169.58
821.231	2176.36
821.413	2177.91
821.595	2180.04
821.777	2173.84
821.959	2160.48
822.141	2204.46
822.323	2068.25
822.505	2048.1
822.686	1994.82
822.868	1935.53
823.05	1766.39
823.232	1733.07
823.414	1665.45
823.596	1751.09
823.778	1774.34
823.96	1755.54
824.141	1754.77
824.323	1793.71
824.505	1851.45
824.687	1940.18
824.868	1975.06
825.05	2047.52
825.232	2062.63
825.413	2115.33
825.595	2094.99
825.777	2041.32
825.958	2077.55
826.14	2068.64
826.321	2100.61
826.503	2092.66
826.685	2069.41
826.866	2100.99
827.048	2122.11
827.229	2057.6
827.411	2025.63
827.592	1986.68
827.773	1983.58
827.955	1923.91
828.136	1939.8
828.318	1903.57
828.499	1911.51
828.68	1870.44
828.862	1905.89
829.043	1933.4
829.224	1901.63
829.406	1863.27
829.587	1866.95
829.768	1884.58
829.949	1887.49
830.131	1865.98
830.312	1973.7
830.493	1924.88
830.674	1908.22
830.855	1875.67
831.036	1850.48
831.218	1902.6
831.399	1972.73
831.58	1902.99
831.761	1892.33
831.942	1863.46
832.123	1897.75
832.304	1827.81
832.485	1840.79
832.666	1888.45
832.847	1874.5
833.028	1847.96
833.209	1876.25
833.389	1886.52
833.57	1813.09
833.751	1849.32
833.932	1916.55
834.113	1859.59
834.294	1817.93
834.475	1891.75
834.655	1898.92
834.836	1914.42
835.017	1877.6
835.198	1862.69
835.378	1889.42
835.559	1902.21
835.74	1923.52
835.92	1891.17
836.101	1856.1
836.281	1915.77
836.462	1874.31
836.643	1939.6
836.823	1907.25
837.004	1903.76
837.184	1971.57
837.365	1924.49
837.545	1946.97
837.726	1919.65
837.906	1965.76
838.087	1944.64
838.267	1930.3
838.448	1881.87
838.628	1897.17
838.808	1879.93
838.989	1937.08
839.169	1885.16
839.349	1913.45
839.53	1944.06
839.71	1964.02
839.89	1914.61
840.07	1965.18
840.251	1903.57
840.431	1955.3
840.611	1873.54
840.791	1871.02
840.971	1929.53
841.151	1907.64
841.332	1884.77
841.512	1954.91
841.692	1813.67
841.872	1885.94
842.052	1869.85
842.232	1930.88
842.412	1816.96
842.592	1866.56
842.772	1875.67
842.952	1872.76
843.132	1859.39
843.312	1832.46
843.492	1840.79
843.672	1885.55
843.851	1783.83
844.031	1836.34
844.211	1832.27
844.391	1831.88
844.571	1823.55
844.751	1826.84
844.93	1822
845.11	1800.88
845.29	1851.45
845.47	1853.39
845.649	1816.96
845.829	1844.67
846.009	1804.95
846.188	1793.71
846.368	1853.19
846.547	1806.5
846.727	1837.11
846.907	1740.82
847.086	1811.54
847.266	1840.6
847.445	1758.06
847.625	1777.05
847.804	1778.6
847.984	1775.11
848.163	1775.89
848.343	1772.98
848.522	1797.01
848.701	1825.68
848.881	1768.52
849.06	1758.45
849.239	1792.94
849.419	1769.88
849.598	1686.76
849.777	1654.99
849.957	1680.37
850.136	1610.62
850.315	1617.98
850.494	1606.36
850.674	1604.81
850.853	1666.81
851.032	1649.76
851.211	1716.02
851.39	1630.96
851.569	1604.42
851.748	1613.33
851.927	1658.28
852.107	1650.92
852.286	1624.38
852.465	1599.58
852.644	1670.49
852.823	1645.3
853.002	1657.31
853.181	1637.94
853.359	1677.85
853.538	1582.72
853.717	1655.57
853.896	1547.07
854.075	1463.57
854.254	1442.64
854.433	1359.91
854.611	1424.24
854.79	1329.3
854.969	1404.47
855.148	1489.33
855.327	1395.37
855.505	1472.67
855.684	1473.84
855.863	1486.82
856.041	1433.92
856.22	1514.72
856.399	1476.74
856.577	1591.83
856.756	1579.62
856.934	1656.73
857.113	1642.78
857.291	1573.42
857.47	1529.44
857.648	1557.73
857.827	1587.18
858.005	1594.93
858.184	1536.8
858.362	1611.78
858.541	1554.63
858.719	1567.8
858.898	1554.05
859.076	1535.06
859.254	1605.39
859.433	1553.66
859.611	1507.93
859.789	1475.77
859.967	1564.12
860.146	1589.11
860.324	1480.42
860.502	1501.93
860.68	1475.58
860.859	1511.23
861.037	1488.75
861.215	1529.25
861.393	1490.3
861.571	1521.3
861.749	1481.39
861.927	1523.43
862.105	1529.25
862.283	1456.2
862.461	1473.45
862.639	1439.35
862.817	1473.84
862.995	1484.49
863.173	1490.5
863.351	1445.55
863.529	1518.01
863.707	1539.9
863.885	1478.87
864.063	1426.75
864.241	1413
864.418	1485.27
864.596	1449.42
864.774	1393.43
864.952	1416.49
865.129	1458.14
865.307	1397.11
865.485	1385.1
865.663	1442.25
865.84	1361.66
866.018	1358.17
866.196	1267.69
866.373	1291.33
866.551	1242.89
866.728	1136.52
866.906	1190.77
867.084	1235.14
867.261	1273.89
867.439	1309.34
867.616	1332.59
867.794	1304.5
867.971	1305.47
868.149	1296.17
868.326	1355.46
868.503	1339.18
868.681	1358.56
868.858	1335.31
869.035	1296.17
869.213	1362.82
869.39	1312.25
869.567	1395.95
869.745	1289.19
869.922	1329.11
870.099	1346.16
870.276	1360.11
870.454	1331.43
870.631	1331.43
870.808	1322.52
870.985	1356.04
871.162	1410.87
871.339	1338.6
871.517	1295.78
871.694	1297.14
871.871	1324.26
872.048	1285.13
872.225	1265.94
872.402	1309.93
872.579	1240.95
872.756	1307.21
872.933	1241.34
873.11	1297.14
873.287	1294.23
873.463	1293.84
873.64	1237.46
873.817	1263.23
873.994	1241.14
874.171	1230.1
874.348	1298.3
874.524	1179.73
874.701	1237.08
874.878	1151.63
875.055	1242.89
875.231	1229.13
875.408	1267.49
875.585	1166.75
875.762	1255.29
875.938	1212.08
876.115	1199.3
876.291	1201.04
876.468	1206.85
876.645	1145.82
876.821	1187.86
876.998	1201.43
877.174	1199.68
877.351	1191.16
877.527	1162.68
877.704	1182.05
877.88	1180.5
878.057	1167.33
878.233	1197.75
878.409	1144.66
878.586	1192.13
878.762	1162.87
878.938	1152.6
879.115	1133.03
879.291	1173.91
879.467	1095.06
879.644	1124.9
879.82	1154.15
879.996	1140.59
880.172	1047.2
880.349	1156.28
880.525	1156.86
880.701	1108.82
880.877	1094.09
881.053	1091.38
881.229	1101.26
881.405	1138.26
881.581	1115.21
881.757	1115.6
881.933	1155.31
882.109	1151.25
882.285	1133.03
882.461	1068.13
882.637	1137.49
882.813	1096.22
882.989	1130.32
883.165	1161.32
883.341	1065.22
883.517	1143.69
883.693	1137.49
883.869	1130.71
884.044	1103.58
884.22	1114.05
884.396	1168.88
884.572	1115.02
884.747	1144.66
884.923	1111.92
885.099	1121.02
885.275	1147.18
885.45	1085.76
885.626	1119.67
885.801	1090.6
885.977	1079.75
886.153	1054.18
886.328	1143.69
886.504	1052.43
886.679	1127.42
886.855	1043.52
887.03	1135.36
887.206	1138.65
887.381	1109.4
887.557	1100.87
887.732	1114.63
887.908	1177.21
888.083	1116.37
888.258	1097.77
888.434	1081.88
888.609	1096.8
888.784	1151.44
888.96	1071.81
889.135	1064.06
889.31	1079.95
889.485	1116.76
889.661	1053.4
889.836	1152.41
890.011	1104.55
890.186	1096.42
890.361	1065.22
890.537	1143.3
890.712	1112.11
890.887	1107.65
891.062	1125.09
891.237	1158.8
891.412	1056.89
891.587	1115.79
891.762	1106.49
891.937	1156.86
892.112	1051.27
892.287	1085.95
892.462	1031.12
892.637	1015.62
892.812	1015.04
892.987	1015.24
893.161	1056.7
893.336	1026.67
893.511	1039.26
893.686	1043.33
893.861	1017.56
894.035	1019.3
894.21	1044.1
894.385	996.05
894.56	999.74
894.734	938.9
894.909	958.86
895.084	934.64
895.258	944.91
895.433	959.63
895.608	929.02
895.782	874.77
895.957	896.66
896.131	900.34
896.306	855.59
896.48	866.24
896.655	860.82
896.829	787.97
897.004	801.14
897.178	785.65
897.353	790.29
897.527	841.64
897.701	796.3
897.876	756
898.05	845.32
898.224	845.13
898.399	852.88
898.573	767.24
898.747	708.53
898.921	758.13
899.096	680.44
899.27	650.02
899.444	668.04
899.618	696.91
899.792	713.76
899.967	704.66
900.141	761.43
900.315	658.74
900.489	701.17
900.663	708.34
900.837	699.23
901.011	643.05
901.185	768.21
901.359	709.5
901.533	736.63
901.707	714.15
901.881	722.68
902.055	657.38
902.229	670.17
902.403	776.15
902.576	705.24
902.75	697.49
902.924	843.38
903.098	745.73
903.272	820.71
903.446	830.79
903.619	796.3
903.793	849.78
903.967	819.94
904.14	872.83
904.314	875.54
904.488	826.33
904.661	892.4
904.835	817.81
905.009	922.24
905.182	916.81
905.356	870.7
905.529	841.64
905.703	838.73
905.876	849.78
906.05	767.63
906.223	774.41
906.397	714.93
906.57	739.73
906.744	692.07
906.917	739.73
907.09	691.1
907.264	707.95
907.437	668.82
907.61	640.72
907.784	657.38
907.957	680.83
908.13	644.4
908.304	675.79
908.477	642.08
908.65	634.91
908.823	607.59
908.996	701.56
909.17	625.8
909.343	624.83
909.516	639.75
909.689	615.15
909.862	602.36
910.035	620.96
910.208	586.86
910.381	574.46
910.554	680.05
910.727	620.96
910.9	614.18
911.073	570.2
911.246	653.12
911.419	671.72
911.592	658.35
911.765	610.89
911.938	606.04
912.11	615.73
912.283	594.61
912.456	662.23
912.629	638.78
912.802	613.79
912.974	562.64
913.147	531.64
913.32	464.61
913.493	532.42
913.665	517.89
913.838	535.13
914.01	546.56
914.183	562.84
914.356	531.64
914.528	595.39
914.701	626.58
914.873	582.02
915.046	537.65
915.218	519.24
915.391	471.19
915.563	469.45
915.736	537.45
915.908	566.32
916.081	544.24
916.253	533.39
916.425	557.99
916.598	564.97
916.77	555.47
916.942	531.64
917.115	436.9
917.287	519.05
917.459	488.24
917.632	442.71
917.804	429.73
917.976	513.62
918.148	513.24
918.32	512.85
918.493	556.05
918.665	583.76
918.837	542.69
919.009	598.49
919.181	602.75
919.353	553.92
919.525	565.55
919.697	558.77
919.869	580.66
920.041	590.93
920.213	663.39
920.385	590.93
920.557	531.45
920.729	582.21
920.901	585.5
921.073	533.39
921.244	533.39
921.416	568.65
921.588	564.19
921.76	523.51
921.932	591.51
922.103	537.45
922.275	545.98
922.447	536.49
922.619	460.15
922.79	538.23
922.962	503.55
923.134	562.06
923.305	500.06
923.477	470.81
923.648	495.02
923.82	518.08
923.991	478.75
924.163	453.37
924.335	495.22
924.506	444.84
924.677	524.47
924.849	457.44
925.02	482.62
925.192	520.41
925.363	477.78
925.535	490.18
925.706	487.66
925.877	556.25
926.049	464.8
926.22	487.66
926.391	496.38
926.562	509.36
926.734	441.55
926.905	500.06
927.076	468.48
927.247	476.23
927.419	416.75
927.59	423.14
927.761	413.07
927.932	366.96
928.103	417.91
928.274	363.86
928.445	360.37
928.616	362.31
928.787	366.57
928.958	400.28
929.129	367.73
929.3	372.77
929.471	322.78
929.642	244.12
929.813	232.11
929.984	339.25
930.155	239.08
930.326	290.81
930.496	242.38
930.667	195.68
930.838	250.71
931.009	194.13
931.18	256.33
931.35	245.87
931.521	248.58
931.692	162.75
931.863	132.52
932.033	189.29
932.204	195.1
932.374	190.26
932.545	152.87
932.716	185.03
932.886	201.69
933.057	97.07
933.227	129.23
933.398	195.1
933.568	88.54
933.739	68.2
933.909	99.39
934.08	162.75
934.25	41.66
934.421	82.34
934.591	105.01
934.761	84.47
934.932	29.84
935.102	111.6
935.272	75.56
935.443	93
935.613	105.01
935.783	112.95
935.953	60.06
936.123	210.6
936.294	45.14
936.464	69.56
936.634	69.75
936.804	40.11
936.974	14.92
937.144	113.73
937.314	91.25
937.484	54.64
937.655	34.68
937.825	128.65
937.995	41.07
938.165	105.59
938.334	85.06
938.504	101.52
938.674	97.65
938.844	149.38
939.014	126.9
939.184	151.7
939.354	234.63
939.524	168.95
939.694	147.44
939.863	136.01
940.033	223.39
940.203	217
940.373	163.91
940.542	178.44
940.712	140.85
940.882	173.6
941.051	190.84
941.221	164.3
941.391	170.69
941.56	111.21
941.73	148.22
941.899	263.3
942.069	136.01
942.238	157.9
942.408	149.57
942.577	188.13
942.747	124.39
942.916	85.64
943.086	117.22
943.255	183.28
943.425	141.63
943.594	108.5
943.763	38.75
943.933	68.59
944.102	36.23
944.271	88.15
944.441	108.11
944.61	100.94
944.779	130.78
944.948	184.06
945.117	106.56
945.287	111.99
945.456	49.6
945.625	73.43
945.794	117.6
945.963	81.57
946.132	132.14
946.301	93
946.47	136.79
946.639	52.12
946.808	67.62
946.977	116.05
947.146	186.77
947.315	86.02
947.484	128.84
947.653	84.86
947.822	75.95
947.991	101.52
948.16	159.84
948.329	144.34
948.498	111.79
948.666	124.97
948.835	142.21
949.004	86.02
949.173	98.62
949.341	82.15
949.51	113.92
949.679	130.2
949.847	134.85
950.016	156.55
950.185	182.12
950.353	115.47
950.522	102.69
950.69	165.07
950.859	103.85
951.028	142.21
951.196	117.99
951.365	68.01
951.533	97.84
951.701	122.45
951.87	133.69
952.038	78.66
952.207	123.61
952.375	160.62
952.543	90.29
952.712	102.3
952.88	61.42
953.048	153.64
953.217	131.17
953.385	131.36
953.553	166.82
953.721	68.39
953.89	109.47
954.058	45.14
954.226	73.04
954.394	91.25
954.562	38.94
954.73	95.13
954.898	78.66
955.067	144.15
955.235	73.24
955.403	153.06
955.571	177.08
955.739	134.85
955.907	59.87
956.075	63.94
956.243	73.04
956.41	124.19
956.578	61.03
956.746	54.25
956.914	82.54
957.082	110.05
957.25	119.54
957.418	63.74
957.585	129.42
957.753	156.35
957.921	80.79
958.089	128.45
958.256	120.32
958.424	130.78
958.592	108.11
958.759	62.77
958.927	120.9
959.095	69.56
959.262	120.7
959.43	116.05
959.597	84.86
959.765	111.79
959.932	46.11
960.1	133.1
960.267	120.12
960.435	115.09
960.602	142.6
960.77	79.05
960.937	47.27
961.104	108.5
961.272	48.63
961.439	88.15
961.606	123.03
961.774	142.99
961.941	78.08
962.108	108.69
962.275	114.31
962.443	151.51
962.61	124
962.777	188.32
962.944	165.07
963.111	120.12
963.278	149.19
963.446	122.25
963.613	113.15
963.78	127.1
963.947	135.62
964.114	116.44
964.281	193.36
964.448	144.73
964.615	109.47
964.782	141.24
964.949	144.15
965.116	134.07
965.282	193.36
965.449	130.97
965.616	68.01
965.783	121.09
965.95	146.28
966.117	85.64
966.283	102.3
966.45	111.4
966.617	166.04
966.784	160.62
966.95	170.69
967.117	144.15
967.284	86.99
967.45	117.99
967.617	183.28
967.784	139.5
967.95	180.38
968.117	124.77
968.283	167.98
968.45	231.33
968.616	138.34
968.783	201.5
968.949	153.06
969.116	152.48
969.282	123.61
969.449	148.8
969.615	136.4
969.781	103.07
969.948	103.85
970.114	87.38
970.28	194.13
970.447	142.21
970.613	158.29
970.779	131.75
970.945	125.35
971.112	142.02
971.278	154.42
971.444	113.54
971.61	147.44
971.776	105.59
971.942	135.62
972.108	161.97
972.275	124.19
972.441	143.76
972.607	217.19
972.773	114.7
972.939	172.24
973.105	133.49
973.271	110.82
973.437	121.09
973.602	88.54
973.768	135.62
973.934	112.57
974.1	145.12
974.266	37.78
974.432	149.77
974.598	108.5
974.763	133.88
974.929	115.09
975.095	208.08
975.261	82.34
975.426	84.28
975.592	119.93
975.758	153.06
975.923	59.48
976.089	81.18
976.255	161.97
976.42	118.19
976.586	114.7
976.751	134.65
976.917	215.25
977.082	155.19
977.248	72.66
977.413	60.64
977.579	80.41
977.744	140.08
977.91	95.32
978.075	97.84
978.24	135.62
978.406	104.82
978.571	94.55
978.736	75.37
978.902	140.85
979.067	79.44
979.232	84.86
979.397	133.3
979.563	155.97
979.728	78.86
979.893	93.19
980.058	102.3
980.223	146.09
980.388	111.21
980.554	131.75
980.719	69.75
980.884	125.74
981.049	148.22
981.214	83.51
981.379	116.05
981.544	86.41
981.709	90.48
981.874	79.44
982.039	108.5
982.204	139.11
982.368	111.6
982.533	96.68
982.698	126.13
982.863	170.89
983.028	91.84
983.193	128.26
983.357	112.37
983.522	105.01
983.687	110.82
983.852	107.34
984.016	86.02
984.181	93.19
984.346	145.12
984.51	110.44
984.675	91.84
984.839	129.42
985.004	109.47
985.168	139.11
985.333	123.8
985.498	106.17
985.662	142.02
985.827	92.61
985.991	121.48
986.155	78.66
986.32	127.49
986.484	159.07
986.649	134.85
986.813	39.91
986.977	115.67
987.142	126.13
987.306	49.02
987.47	71.49
987.634	114.12
987.799	109.27
987.963	129.81
988.127	119.15
988.291	168.95
988.455	107.34
988.62	108.89
988.784	125.35
988.948	126.32
989.112	74.4
989.276	109.66
989.44	103.07
989.604	59.67
989.768	114.31
989.932	198.2
990.096	71.49
990.26	69.56
990.424	33.91
990.588	94.74
990.752	167.01
990.915	127.87
991.079	87.38
991.243	74.59
991.407	127.49
991.571	89.9
991.734	135.82
991.898	147.44
992.062	191.62
992.226	89.51
992.389	66.26
992.553	38.94
992.717	55.22
992.88	91.45
993.044	109.08
993.207	81.96
993.371	129.62
993.535	107.34
993.698	90.29
993.862	122.45
994.025	113.34
994.189	108.3
994.352	109.66
994.515	114.31
994.679	151.7
994.842	76.72
995.006	114.12
995.169	63.94
995.332	49.79
995.496	129.81
995.659	42.24
995.822	74.01
995.985	75.56
996.149	125.35
996.312	65.1
996.475	124.97
996.638	47.86
996.801	148.6
996.964	158.49
997.128	52.31
997.291	49.99
997.454	101.91
997.617	46.11
997.78	129.42
997.943	69.17
998.106	121.67
998.269	49.41
998.432	55.99
998.595	90.67
998.758	33.32
998.92	59.67
999.083	30.22
999.246	97.84
999.409	29.45
999.572	10.66
999.735	53.47
999.897	126.13
1000.06	62.39
1000.223	66.07
1000.386	115.86
1000.548	105.4
1000.711	100.75
1000.874	91.06
1001.036	37.78
1001.199	80.79
1001.361	50.96
1001.524	62
1001.687	102.88
1001.849	46.5
1002.012	71.49
1002.174	57.16
1002.337	70.14
1002.499	59.67
1002.661	112.18
1002.824	26.35
1002.986	58.32
1003.149	70.52
1003.311	52.7
1003.473	130.59
1003.636	38.36
1003.798	79.44
1003.96	96.1
1004.123	80.02
1004.285	52.31
1004.447	63.74
1004.609	44.56
1004.771	131.75
1004.933	12.01
1005.096	41.07
1005.258	22.67
1005.42	37.59
1005.582	101.14
1005.744	57.16
1005.906	12.98
1006.068	55.41
1006.23	21.89
1006.392	-1.36
1006.554	31.77
1006.716	82.54
1006.878	79.63
1007.04	11.62
1007.202	14.92
1007.363	59.09
1007.525	64.52
1007.687	65.87
1007.849	95.52
1008.011	-15.89
1008.172	18.21
1008.334	47.08
1008.496	67.42
1008.658	2.91
1008.819	32.55
1008.981	43.98
1009.143	26.16
1009.304	19.96
1009.466	68.2
1009.627	97.45
1009.789	153.64
1009.95	71.11
1010.112	22.28
1010.273	78.27
1010.435	26.54
1010.596	36.23
1010.758	13.56
1010.919	56.77
1011.081	29.06
1011.242	20.15
1011.403	76.92
1011.565	44.17
1011.726	74.98
1011.887	-9.11
1012.049	53.67
1012.21	84.09
1012.371	106.56
1012.532	-27.51
1012.693	64.91
1012.855	27.51
1013.016	43.01
1013.177	81.96
1013.338	59.09
1013.499	123.22
1013.66	85.44
1013.821	54.25
1013.982	52.12
1014.143	49.02
1014.304	53.67
1014.465	66.07
1014.626	92.61
1014.787	23.44
1014.948	125.74
1015.109	-38.56
1015.27	56.19
1015.431	24.99
1015.592	44.17
1015.752	83.7
1015.913	34.49
1016.074	62
1016.235	33.71
1016.395	28.87
1016.556	28.09
1016.717	44.37
1016.877	75.56
1017.038	18.79
1017.199	70.72
1017.359	59.29
1017.52	64.32
1017.681	8.33
1017.841	30.61
1018.002	29.26
1018.162	39.91
1018.323	70.33
1018.483	19.18
1018.644	33.32
1018.804	0.39
1018.964	11.82
1019.125	6.97
1019.285	34.68
1019.446	5.04
1019.606	5.23
1019.766	-36.62
1019.926	68.97
1020.087	52.31
1020.247	10.85
1020.407	46.89
1020.567	71.88
1020.728	31.58
1020.888	2.91
1021.048	18.6
1021.208	2.91
1021.368	23.83
1021.528	67.81
1021.688	63.94
1021.848	65.49
1022.008	63.74
1022.168	18.41
1022.328	28.29
1022.488	43.59
1022.648	0.97
1022.808	25.19
1022.968	66.26
1023.128	1.55
1023.288	-4.07
1023.448	33.13
1023.608	21.7
1023.767	56.57
1023.927	3.29
1024.087	-10.07
1024.247	-36.42
1024.406	-7.36
1024.566	-6.97
1024.726	-2.91
1024.885	37.39
1025.045	69.56
1025.205	17.44
1025.364	13.95
1025.524	33.32
1025.683	25.19
1025.843	38.17
1026.003	4.46
1026.162	69.56
1026.321	61.81
1026.481	15.5
1026.64	19.76
1026.8	25.19
1026.959	56.19
1027.119	12.59
1027.278	24.41
1027.437	11.43
1027.597	16.08
1027.756	54.44
1027.915	37.97
1028.074	43.21
1028.234	26.35
1028.393	34.49
1028.552	13.17
1028.711	-56.19
1028.87	35.65
1029.03	-12.79
1029.189	38.17
1029.348	-62
1029.507	-13.95
1029.666	18.21
1029.825	-1.74
1029.984	19.37
1030.143	20.15
1030.302	3.1
1030.461	-55.61
1030.62	37.59
1030.779	43.98
1030.938	28.29
1031.097	-28.48
1031.255	33.71
1031.414	80.21
1031.573	81.96
1031.732	-39.91
1031.891	7.56
1032.049	63.55
1032.208	50.18
1032.367	23.06
1032.525	-1.74
1032.684	6.59
1032.843	11.04
1033.001	-38.94
1033.16	158.87
1033.319	70.91
1033.477	33.13
1033.636	-11.43
1033.794	-7.36
1033.953	30.22
1034.111	59.48
1034.27	-15.89
1034.428	34.49
1034.587	-25.57
1034.745	10.46
1034.903	7.94
1035.062	23.83
1035.22	-35.84
1035.378	47.27
1035.537	-11.24
1035.695	56.19
1035.853	29.26
1036.011	34.49
1036.17	24.8
1036.328	-46.31
1036.486	17.63
1036.644	23.83
1036.802	-68.97
1036.96	8.33
1037.119	7.36
1037.277	-16.08
1037.435	-23.64
1037.593	-38.94
1037.751	-0.97
1037.909	37.39
1038.067	37.39
