Data from gum_old_FLMT105791__109__15-45-58-253.txt Node

Date: Mon Mar 20 15:45:58 GMT 2023
User: antho
Spectrometer: FLMT10579
Trigger mode: 0
Integration Time (sec): 1.000000E-1
Scans to average: 10
Electric dark correction enabled: true
Nonlinearity correction enabled: false
Boxcar width: 0
XAxis mode: Wavelengths
Number of Pixels in Spectrum: 3648
>>>>>Begin Spectral Data<<<<<
345.248	-166.03
345.464	-166.03
345.681	-166.03
345.898	-163.89
346.114	-188.5
346.331	-49.78
346.548	24.04
346.764	-4.83
346.981	-2.89
347.197	-19.55
347.414	12.03
347.631	-24.78
347.847	44.77
348.064	5.63
348.28	49.81
348.497	-35.83
348.713	1.37
348.93	26.37
349.146	48.45
349.363	-4.83
349.579	28.11
349.796	6.6
350.012	15.32
350.229	54.27
350.445	38.96
350.661	-25.95
350.878	21.13
351.094	51.36
351.311	16.48
351.527	40.12
351.743	7.57
351.96	44.19
352.176	39.54
352.392	36.83
352.609	61.43
352.825	6.99
353.041	12.8
353.257	16.48
353.474	29.27
353.69	39.93
353.906	29.47
354.122	-2.89
354.339	73.64
354.555	16.1
354.771	9.9
354.987	63.95
355.203	83.33
355.42	-2.7
355.636	6.22
355.852	-7.54
356.068	16.29
356.284	-21.1
356.5	69.96
356.716	26.75
356.932	9.32
357.148	75.97
357.364	21.72
357.58	65.31
357.796	76.55
358.012	66.86
358.228	19.39
358.444	-49
358.66	84.1
358.876	14.16
359.092	0.21
359.308	38.77
359.524	54.07
359.74	32.37
359.956	15.13
360.172	25.2
360.388	89.72
360.604	11.25
360.819	99.02
361.035	41.09
361.251	61.82
361.467	10.67
361.683	71.32
361.898	23.27
362.114	49.03
362.33	20.55
362.546	77.52
362.762	29.85
362.977	57.37
363.193	-9.86
363.409	61.63
363.624	4.28
363.84	13.77
364.056	11.06
364.271	45.93
364.487	68.8
364.703	37.8
364.918	10.09
365.134	24.23
365.35	25.01
365.565	133.31
365.781	12.8
365.996	52.33
366.212	111.03
366.427	46.32
366.643	29.85
366.858	14.16
367.074	13.77
367.289	75.38
367.505	148.43
367.72	0.98
367.936	25.2
368.151	89.33
368.367	65.7
368.582	58.72
368.798	9.7
369.013	99.99
369.228	42.83
369.444	57.56
369.659	102.7
369.874	58.72
370.09	97.86
370.305	-32.73
370.52	8.54
370.736	80.61
370.951	59.3
371.166	68.6
371.381	119.17
371.597	75.77
371.812	15.32
372.027	42.64
372.242	51.17
372.458	125.76
372.673	49.23
372.888	34.89
373.103	72.28
373.318	114.33
373.533	68.6
373.749	58.92
373.964	11.83
374.179	86.04
374.394	-0.95
374.609	111.81
374.824	6.02
375.039	107.74
375.254	9.32
375.469	92.24
375.684	70.54
375.899	99.02
376.114	66.28
376.329	65.5
376.544	86.04
376.759	90.69
376.974	13.19
377.189	39.73
377.404	38.18
377.619	97.47
377.834	-1.34
378.049	8.73
378.264	38.57
378.478	74.8
378.693	56.59
378.908	110.26
379.123	60.85
379.338	113.36
379.553	82.55
379.767	71.32
379.982	83.71
380.197	92.63
380.412	76.55
380.626	73.64
380.841	142.03
381.056	97.47
381.271	116.26
381.485	49.03
381.7	39.73
381.915	86.04
382.129	47.68
382.344	82.16
382.559	64.53
382.773	99.02
382.988	16.1
383.202	68.22
383.417	17.45
383.632	141.65
383.846	75
384.061	77.13
384.275	47.68
384.49	81.2
384.704	115.1
384.919	89.33
385.133	55.04
385.348	119.17
385.562	46.13
385.777	103.67
385.991	77.71
386.206	85.46
386.42	59.11
386.634	100.57
386.849	99.21
387.063	66.28
387.277	52.72
387.492	58.53
387.706	31.79
387.92	63.57
388.135	98.44
388.349	89.33
388.563	102.7
388.778	81.97
388.992	63.18
389.206	87.78
389.42	160.63
389.635	89.91
389.849	114.33
390.063	129.05
390.277	122.08
390.491	180.2
390.706	117.23
390.92	134.09
391.134	94.76
391.348	118.4
391.562	58.92
391.776	76.74
391.99	75.58
392.205	142.81
392.419	74.22
392.633	132.73
392.847	151.72
393.061	74.03
393.275	161.02
393.489	91.08
393.703	65.5
393.917	120.53
394.131	37.02
394.345	97.86
394.559	110.06
394.773	66.67
394.986	90.5
395.2	114.91
395.414	126.73
395.628	52.13
395.842	122.08
396.056	89.33
396.27	40.51
396.484	132.54
396.697	121.69
396.911	166.64
397.125	110.45
397.339	126.73
397.553	115.3
397.766	160.83
397.98	145.91
398.194	141.84
398.408	107.55
398.621	159.28
398.835	142.61
399.049	173.61
399.262	225.73
399.476	192.6
399.69	185.82
399.903	238.71
400.117	153.66
400.331	200.16
400.544	120.14
400.758	296.84
400.971	149.78
401.185	223.02
401.398	163.54
401.612	237.16
401.826	201.32
402.039	204.81
402.253	160.44
402.466	254.41
402.68	174.39
402.893	214.69
403.106	198.41
403.32	194.93
403.533	219.14
403.747	203.06
403.96	215.46
404.174	215.27
404.387	154.24
404.6	205
404.814	251.11
405.027	192.79
405.24	172.26
405.454	199.58
405.667	253.24
405.88	132.54
406.094	223.02
406.307	215.08
406.52	209.46
406.733	187.95
406.947	162.18
407.16	257.89
407.373	258.86
407.586	184.27
407.799	153.08
408.012	252.86
408.226	249.95
408.439	243.56
408.652	187.76
408.865	213.33
409.078	278.43
409.291	247.04
409.504	203.06
409.717	226.31
409.93	265.45
410.143	245.88
410.357	159.08
410.57	170.9
410.783	206.94
410.996	237.94
411.209	239.49
411.421	270.49
411.634	260.02
411.847	217.21
412.06	257.51
412.273	238.91
412.486	237.55
412.699	347.99
412.912	246.85
413.125	279.01
413.338	232.71
413.55	276.3
413.763	231.54
413.976	265.26
414.189	258.47
414.402	220.89
414.615	316.99
414.827	218.18
415.04	296.06
415.253	290.06
415.466	296.84
415.678	317.37
415.891	295.09
416.104	269.52
416.316	230.77
416.529	233.29
416.742	310.4
416.954	295.29
417.167	289.86
417.38	237.94
417.592	336.75
417.805	198.61
418.017	225.54
418.23	310.98
418.442	261.96
418.655	252.47
418.868	253.24
419.08	294.9
419.293	305.36
419.505	288.12
419.718	286.96
419.93	338.3
420.142	221.08
420.355	304.01
420.567	336.56
420.78	316.6
420.992	283.27
421.205	348.37
421.417	257.7
421.629	286.37
421.842	269.52
422.054	250.53
422.266	338.88
422.479	341.4
422.691	282.31
422.903	335.2
423.115	266.61
423.328	279.4
423.54	268.74
423.752	247.04
423.964	260.41
424.177	308.66
424.389	280.95
424.601	409.02
424.813	301.29
425.025	333.84
425.238	323.19
425.45	275.14
425.662	284.44
425.874	625.43
426.086	305.17
426.298	312.14
426.51	301.87
426.722	279.01
426.934	291.41
427.146	327.45
427.358	256.34
427.57	329
427.782	300.52
427.994	302.26
428.206	256.15
428.418	263.51
428.63	343.92
428.842	363.29
429.054	323.57
429.266	316.99
429.478	263.32
429.69	316.6
429.902	261.19
430.114	341.01
430.325	322.8
430.537	244.72
430.749	296.84
430.961	204.23
431.173	269.13
431.384	261.96
431.596	176.33
431.808	257.51
432.02	309.24
432.231	340.04
432.443	409.21
432.655	334.42
432.867	312.53
433.078	359.22
433.29	398.75
433.502	394.87
433.713	402.04
433.925	354.96
434.136	404.37
434.348	313.69
434.56	269.91
434.771	416.19
434.983	277.66
435.194	324.35
435.406	344.69
435.617	402.43
435.829	419.87
436.04	399.72
436.252	406.3
436.463	420.64
436.675	391.19
436.886	381.31
437.098	416.96
437.309	453.58
437.521	413.28
437.732	415.22
437.943	390.03
438.155	392.16
438.366	329.77
438.578	452.42
438.789	393.32
439	399.72
439.211	349.92
439.423	396.42
439.634	398.17
439.845	425.49
440.057	410.37
440.268	460.55
440.479	368.14
440.69	411.34
440.902	404.37
441.113	383.44
441.324	411.34
441.535	428.2
441.746	473.53
441.957	381.89
442.168	399.52
442.38	467.33
442.591	460.94
442.802	407.66
443.013	428.97
443.224	448.93
443.435	429.94
443.646	451.06
443.857	418.12
444.068	417.54
444.279	430.33
444.49	512.09
444.701	429.17
444.912	553.55
445.123	526.43
445.334	498.33
445.545	470.63
445.756	489.03
445.967	432.65
446.178	449.9
446.388	471.98
446.599	472.95
446.81	470.63
447.021	446.99
447.232	516.74
447.443	509.38
447.653	458.62
447.864	527.2
448.075	464.23
448.286	521
448.496	488.65
448.707	502.79
448.918	451.83
449.129	553.75
449.339	456.29
449.55	521.78
449.761	468.69
449.971	541.73
450.182	477.22
450.393	537.08
450.603	467.33
450.814	531.27
451.024	545.41
451.235	583.39
451.446	560.72
451.656	566.53
451.867	505.5
452.077	519.06
452.288	562.46
452.498	560.53
452.709	513.45
452.919	564.4
453.13	524.3
453.34	551.42
453.55	471.6
453.761	543.09
453.971	517.51
454.182	543.67
454.392	534.76
454.602	573.9
454.813	564.01
455.023	542.12
455.233	507.83
455.444	521.2
455.654	457.65
455.864	539.8
456.075	519.06
456.285	511.51
456.495	510.93
456.705	552.2
456.916	595.98
457.126	602.76
457.336	580.48
457.546	481.09
457.756	509.57
457.967	600.83
458.177	515.77
458.387	518.1
458.597	533.6
458.807	514.8
459.017	548.32
459.227	546.77
459.437	505.7
459.647	590.36
459.857	556.85
460.068	545.61
460.278	590.75
460.488	563.05
460.698	590.95
460.908	557.04
461.117	509.57
461.327	529.72
461.537	569.44
461.747	586.88
461.957	565.18
462.167	703.71
462.377	621.56
462.587	576.22
462.797	627.37
463.007	577.19
463.216	618.84
463.426	643.64
463.636	647.71
463.846	524.49
464.056	565.37
464.265	600.63
464.475	564.4
464.685	580.29
464.895	614.78
465.104	560.14
465.314	617.88
465.524	554.33
465.733	527.59
465.943	640.35
466.153	663.6
466.362	645.58
466.572	627.76
466.782	590.95
466.991	627.37
467.201	666.51
467.41	534.18
467.62	611.87
467.829	588.81
468.039	634.15
468.249	605.86
468.458	601.02
468.668	668.25
468.877	634.73
469.086	667.48
469.296	692.86
469.505	628.53
469.715	698.47
469.924	678.33
470.134	684.91
470.343	700.41
470.552	622.53
470.762	624.46
470.971	615.74
471.18	651.01
471.39	642.87
471.599	588.81
471.808	686.08
472.018	645.97
472.227	711.65
472.436	709.13
472.645	693.82
472.855	687.43
473.064	763.77
473.273	750.4
473.482	744.01
473.691	736.64
473.901	730.83
474.11	667.48
474.319	825.96
474.528	743.62
474.737	815.3
474.946	749.62
475.155	765.51
475.364	805.04
475.573	751.37
475.783	788.95
475.992	768.03
476.201	784.69
476.41	762.99
476.619	747.69
476.828	763.96
477.037	737.42
477.245	769.19
477.454	834.29
477.663	789.54
477.872	790.31
478.081	875.17
478.29	751.95
478.499	888.15
478.708	838.55
478.917	921.48
479.125	806.97
479.334	833.9
479.543	839.52
479.752	867.62
479.961	854.44
480.169	879.63
480.378	864.13
480.587	990.45
480.796	921.67
481.004	894.16
481.213	930.39
481.422	907.53
481.63	905.01
481.839	940.47
482.048	989.68
482.256	940.85
482.465	955.58
482.674	965.26
482.882	973.21
483.091	1007.89
483.299	925.74
483.508	969.91
483.716	953.64
483.925	969.33
484.134	955.96
484.342	957.13
484.551	999.56
484.759	955.58
484.967	991.03
485.176	977.47
485.384	1014.86
485.593	1024.55
485.801	956.55
486.01	964.88
486.218	905.4
486.426	848.44
486.635	849.21
486.843	851.34
487.051	894.55
487.26	877.5
487.468	913.73
487.676	968.17
487.885	937.56
488.093	989.29
488.301	977.47
488.509	991.23
488.717	1045.28
488.926	1027.85
489.134	1011.18
489.342	1040.63
489.55	959.06
489.758	1018.16
489.967	995.3
490.175	1137.31
490.383	1095.66
490.591	1156.11
490.799	1038.89
491.007	1116.19
491.215	1109.41
491.423	1081.51
491.631	1105.34
491.839	1093.33
492.047	1092.56
492.255	1068.53
492.463	1000.33
492.671	1048.38
492.879	1113.87
493.087	1089.26
493.295	1088.88
493.503	1148.74
493.711	1136.54
493.919	1178.19
494.127	1178
494.334	1154.56
494.542	1103.02
494.75	1164.63
494.958	1110.38
495.166	1208.03
495.374	1199.12
495.581	1175.48
495.789	1170.64
495.997	1227.02
496.205	1158.43
496.412	1155.14
496.62	1155.91
496.828	1166.18
497.035	1173.93
497.243	1229.73
497.451	1219.27
497.658	1204.35
497.866	1178.77
498.074	1271.19
498.281	1156.11
498.489	1274.49
498.696	1207.06
498.904	1152.42
499.112	1142.93
499.319	1256.27
499.527	1162.31
499.734	1239.42
499.942	1154.94
500.149	1192.53
500.357	1205.12
500.564	1135.18
500.771	1165.41
500.979	1180.52
501.186	1157.46
501.394	1178.19
501.601	1162.11
501.808	1200.47
502.016	1177.81
502.223	1178
502.43	1185.75
502.638	1174.71
502.845	1167.92
503.052	1279.72
503.26	1171.8
503.467	1275.65
503.674	1221.79
503.881	1246.39
504.089	1293.86
504.296	1259.95
504.503	1171.41
504.71	1212.29
504.917	1169.09
505.125	1240.19
505.332	1252.59
505.539	1249.3
505.746	1319.05
505.953	1268.87
506.16	1285.72
506.367	1344.82
506.574	1367.68
506.781	1373.1
506.988	1246
507.195	1301.8
507.402	1304.9
507.609	1356.25
507.816	1260.54
508.023	1297.93
508.23	1240.39
508.437	1210.55
508.644	1311.1
508.851	1311.3
509.058	1320.21
509.265	1309.75
509.472	1327.18
509.679	1407.78
509.885	1316.92
510.092	1322.73
510.299	1341.13
510.506	1323.89
510.713	1337.84
510.92	1299.29
511.126	1374.65
511.333	1396.16
511.54	1345.2
511.746	1412.63
511.953	1408.75
512.16	1410.88
512.367	1366.32
512.573	1340.94
512.78	1411.85
512.987	1354.12
513.193	1358.38
513.4	1274.68
513.606	1342.88
513.813	1348.11
514.02	1368.45
514.226	1437.81
514.433	1396.93
514.639	1304.32
514.846	1367.68
515.052	1340.94
515.259	1363.8
515.465	1348.3
515.672	1348.3
515.878	1481.41
516.085	1379.5
516.291	1411.08
516.497	1382.98
516.704	1392.67
516.91	1342.3
517.117	1259.57
517.323	1240
517.529	1244.65
517.736	1274.29
517.942	1248.33
518.148	1298.32
518.354	1348.11
518.561	1336.29
518.767	1337.84
518.973	1375.82
519.179	1387.25
519.386	1376.2
519.592	1348.5
519.798	1352.37
520.004	1498.26
520.21	1428.51
520.417	1471.72
520.623	1508.53
520.829	1531.98
521.035	1530.04
521.241	1548.25
521.447	1554.26
521.653	1622.46
521.859	1535.08
522.065	1564.14
522.271	1653.65
522.477	1612.38
522.683	1647.26
522.889	1598.82
523.095	1604.05
523.301	1592.04
523.507	1527.91
523.713	1574.41
523.919	1533.91
524.125	1668.57
524.331	1644.74
524.537	1732.31
524.742	1720.49
524.948	1704.02
525.154	1716.62
525.36	1793.15
525.566	1729.4
525.772	1758.08
525.977	1691.82
526.183	1723.59
526.389	1780.75
526.595	1734.44
526.8	1693.37
527.006	1640.28
527.212	1572.86
527.417	1541.86
527.623	1575.57
527.829	1617.03
528.034	1675.35
528.24	1668.95
528.446	1686.59
528.651	1789.66
528.857	1756.53
529.062	1831.51
529.268	1785.78
529.473	1809.42
529.679	1823.18
529.884	1885.56
530.09	1886.73
530.295	1855.15
530.501	1886.73
530.706	1838.87
530.912	1846.43
531.117	1866
531.323	1863.28
531.528	1902.61
531.733	1917.14
531.939	1896.22
532.144	1908.23
532.35	1917.14
532.555	1946.01
532.76	1929.16
532.966	1940.59
533.171	1861.35
533.376	1836.93
533.581	1822.98
533.787	1859.02
533.992	1881.3
534.197	1910.36
534.402	1919.66
534.607	1897.96
534.813	2029.32
535.018	1933.81
535.223	1902.61
535.428	1973.53
535.633	1992.51
535.838	1978.76
536.043	1974.11
536.249	2085.71
536.454	1985.34
536.659	2038.62
536.864	1989.22
537.069	1980.89
537.274	2015.96
537.479	1990.19
537.684	2003.75
537.889	1913.27
538.094	2062.65
538.299	1982.63
538.504	1994.45
538.708	2027.39
538.913	2035.52
539.118	2039.21
539.323	2043.86
539.528	1978.95
539.733	1967.52
539.938	2019.06
540.142	2004.52
540.347	1997.94
540.552	1959.19
540.757	1961.13
540.962	1919.86
541.166	1911.53
541.371	1922.96
541.576	1945.24
541.781	1854.95
541.985	2002.2
542.19	2001.62
542.395	2080.28
542.599	2108.95
542.804	2052.57
543.008	2085.9
543.213	1990.38
543.418	1987.09
543.622	2061.1
543.827	1977.01
544.031	2070.59
544.236	2069.43
544.44	2048.89
544.645	2128.72
544.849	2039.01
545.054	2092.87
545.258	2127.55
545.463	2132.01
545.667	2054.32
545.872	2109.15
546.076	2072.72
546.281	2116.7
546.485	2032.42
546.689	2076.99
546.894	2142.09
547.098	2090.55
547.302	2046.37
547.507	2047.92
547.711	2105.85
547.915	2164.75
548.119	2045.79
548.324	2062.65
548.528	2107.99
548.732	2071.95
548.936	2098.69
549.141	2107.79
549.345	2067.69
549.549	2093.65
549.753	2115.15
549.957	2193.82
550.161	2163.79
550.366	2126.2
550.57	2097.33
550.774	2093.45
550.978	2112.05
551.182	2155.07
551.386	2100.24
551.59	2092.29
551.794	2088.03
551.998	2151.19
552.202	2087.84
552.406	2076.6
552.61	2117.67
552.814	2113.02
553.018	2167.66
553.222	2095.97
553.426	2108.57
553.63	2181.22
553.833	2079.89
554.037	2063.62
554.241	2164.37
554.445	2120
554.649	2082.61
554.853	2091.71
555.056	2148.09
555.26	2165.34
555.464	2136.66
555.668	2155.45
555.871	2136.66
556.075	2170.95
556.279	2104.69
556.483	2042.89
556.686	2116.9
556.89	2063.04
557.094	2094.04
557.297	1982.24
557.501	2088.42
557.704	1981.47
557.908	2129.69
558.112	2015.96
558.315	2100.24
558.519	2010.92
558.722	2018.09
558.926	2040.17
559.129	1945.82
559.333	1956.09
559.536	1975.46
559.74	1924.7
559.943	1943.11
560.147	1910.56
560.35	1983.02
560.553	1951.44
560.757	1890.02
560.96	2045.79
561.164	1954.93
561.367	2055.29
561.57	2001.23
561.774	2008.79
561.977	1935.94
562.18	1920.83
562.384	2056.84
562.587	1968.68
562.79	1959.58
562.993	1911.53
563.197	1957.64
563.4	2051.22
563.603	2014.41
563.806	2054.71
564.009	1938.84
564.212	1956.48
564.416	1863.48
564.619	1939.81
564.822	1877.04
565.025	1935.16
565.228	1895.83
565.431	1900.1
565.634	1807.48
565.837	1863.09
566.04	1885.37
566.243	1829.18
566.446	1785.01
566.649	1847.2
566.852	1798.57
567.055	1833.64
567.258	1813.3
567.461	1897
567.664	1887.5
567.867	1771.25
568.07	1857.66
568.273	1839.45
568.475	1861.35
568.678	1783.27
568.881	1792.18
569.084	1779.78
569.287	1656.36
569.489	1718.36
569.692	1776.68
569.895	1763.89
570.098	1706.93
570.3	1709.64
570.503	1645.9
570.706	1672.64
570.909	1658.49
571.111	1654.23
571.314	1603.27
571.516	1668.57
571.719	1667.79
571.922	1637.76
572.124	1649.39
572.327	1673.22
572.529	1618.19
572.732	1587
572.935	1646.48
573.137	1740.83
573.34	1645.51
573.542	1701.5
573.745	1641.83
573.947	1675.54
574.15	1643.57
574.352	1642.61
574.554	1710.8
574.757	1590.87
574.959	1590.29
575.162	1653.45
575.364	1559.49
575.566	1712.35
575.769	1557.16
575.971	1555.23
576.173	1518.03
576.376	1570.72
576.578	1666.63
576.78	1652.49
576.982	1482.96
577.185	1561.04
577.387	1495.94
577.589	1531.01
577.791	1569.56
577.993	1575.37
578.196	1538.37
578.398	1562.39
578.6	1571.69
578.802	1449.44
579.004	1498.26
579.206	1481.21
579.408	1508.34
579.61	1511.83
579.812	1569.95
580.014	1493.61
580.216	1486.83
580.418	1468.04
580.62	1466.3
580.822	1436.26
581.024	1515.12
581.226	1517.64
581.428	1476.76
581.63	1564.33
581.832	1461.06
582.034	1528.49
582.236	1479.66
582.438	1536.63
582.64	1533.14
582.841	1533.33
583.043	1595.72
583.245	1512.79
583.447	1546.89
583.649	1475.98
583.85	1505.24
584.052	1557.94
584.254	1443.24
584.456	1504.08
584.657	1411.27
584.859	1472.69
585.061	1438.78
585.262	1456.22
585.464	1412.82
585.666	1482.18
585.867	1389.96
586.069	1504.46
586.27	1459.51
586.472	1462.42
586.674	1411.66
586.875	1413.79
587.077	1417.66
587.278	1444.98
587.48	1425.61
587.681	1541.47
587.883	1433.94
588.084	1372.72
588.285	1419.02
588.487	1402.36
588.688	1410.88
588.89	1333.97
589.091	1304.32
589.292	1331.25
589.494	1297.74
589.695	1239.8
589.896	1200.86
590.098	1225.85
590.299	1244.45
590.5	1210.55
590.702	1302.39
590.903	1282.43
591.104	1322.53
591.305	1317.3
591.507	1388.8
591.708	1340.55
591.909	1319.43
592.11	1407.4
592.311	1352.76
592.512	1309.36
592.714	1284.37
592.915	1294.64
593.116	1282.24
593.317	1303.55
593.518	1359.93
593.719	1308.58
593.92	1352.37
594.121	1373.3
594.322	1292.7
594.523	1327.18
594.724	1280.1
594.925	1298.32
595.126	1332.22
595.327	1339.39
595.528	1311.49
595.729	1310.13
595.929	1324.08
596.13	1298.12
596.331	1331.45
596.532	1320.79
596.733	1359.35
596.934	1330.48
597.135	1336.87
597.335	1328.15
597.536	1286.3
597.737	1322.92
597.938	1306.26
598.138	1308
598.339	1313.04
598.54	1336.1
598.74	1293.67
598.941	1325.44
599.142	1334.93
599.342	1322.92
599.543	1292.5
599.744	1303.35
599.944	1271.58
600.145	1270.03
600.345	1314.4
600.546	1352.76
600.746	1378.53
600.947	1376.78
601.147	1286.3
601.348	1322.53
601.548	1227.99
601.749	1312.07
601.949	1236.7
602.15	1263.44
602.35	1266.35
602.551	1316.14
602.751	1215.2
602.951	1261.12
603.152	1189.04
603.352	1287.08
603.552	1268.87
603.753	1298.9
603.953	1329.32
604.153	1298.9
604.354	1263.25
604.554	1278.94
604.754	1283.4
604.954	1256.27
605.155	1266.93
605.355	1271.19
605.555	1279.91
605.755	1333
605.955	1255.3
606.155	1329.9
606.356	1277.2
606.556	1281.07
606.756	1252.59
606.956	1247.17
607.156	1341.52
607.356	1219.85
607.556	1277
607.756	1252.01
607.956	1321.18
608.156	1268.29
608.356	1214.23
608.556	1256.66
608.756	1239.03
608.956	1197.96
609.156	1241.74
609.356	1187.11
609.556	1170.06
609.755	1219.46
609.955	1198.34
610.155	1240.77
610.355	1238.64
610.555	1170.83
610.755	1240.97
610.954	1110.19
611.154	1206.67
611.354	1238.84
611.554	1169.28
611.753	1189.62
611.953	1134.79
612.153	1217.33
612.352	1198.15
612.552	1134.99
612.752	1089.26
612.951	1196.6
613.151	1154.36
613.351	1120.07
613.55	1133.44
613.75	1177.03
613.949	1167.73
614.149	1164.05
614.348	1132.08
614.548	1112.13
614.747	1066.79
614.947	1120.46
615.146	1069.89
615.346	1164.44
615.545	1139.25
615.745	1140.41
615.944	1206.29
616.144	1147.97
616.343	1165.99
616.542	1107.67
616.742	1105.34
616.941	1110.58
617.14	1030.36
617.34	1125.88
617.539	1102.63
617.738	1054.78
617.938	1175.48
618.137	1117.55
618.336	1051.48
618.535	1120.07
618.734	1117.36
618.934	1118.33
619.133	1101.08
619.332	1143.32
619.531	1053.81
619.73	1121.62
619.929	1153.2
620.128	1117.74
620.328	1180.52
620.527	1069.89
620.726	1096.43
620.925	1112.13
621.124	1056.91
621.323	1086.74
621.522	1026.88
621.721	1033.66
621.92	1040.44
622.119	1109.22
622.318	1082.48
622.517	1062.53
622.715	1076.86
622.914	1003.82
623.113	1071.05
623.312	995.49
623.511	1081.32
623.71	1065.82
623.909	1025.33
624.107	1091.39
624.306	1005.95
624.505	1004.6
624.704	1049.54
624.902	1020.48
625.101	1066.98
625.3	1046.25
625.499	998.98
625.697	1032.5
625.896	1007.7
626.095	1037.15
626.293	974.56
626.492	995.1
626.69	1037.53
626.889	977.86
627.088	1033.85
627.286	1007.31
627.485	1004.6
627.683	996.46
627.882	1049.54
628.08	946.67
628.279	981.73
628.477	1044.51
628.676	957.13
628.874	1022.61
629.073	960.03
629.271	980.76
629.469	1007.7
629.668	980.38
629.866	972.24
630.065	928.65
630.263	1010.6
630.461	960.61
630.66	998.59
630.858	981.54
631.056	997.62
631.254	989.68
631.453	919.35
631.651	1023.2
631.849	968.95
632.047	964.1
632.245	990.26
632.444	961.78
632.642	992.97
632.84	987.93
633.038	943.37
633.236	912.18
633.434	946.86
633.632	921.28
633.83	926.9
634.028	999.75
634.227	951.9
634.425	1024.75
634.623	965.46
634.821	984.06
635.019	967.2
635.216	949.57
635.414	998.59
635.612	977.08
635.81	948.6
636.008	1028.62
636.206	947.05
636.404	995.49
636.602	926.71
636.8	970.3
636.997	1017.58
637.195	955.77
637.393	964.88
637.591	1015.64
637.789	980.57
637.986	938.72
638.184	939.11
638.382	1011.38
638.58	959.65
638.777	1024.16
638.975	926.13
639.173	974.76
639.37	973.01
639.568	982.12
639.765	974.56
639.963	923.8
640.161	961.78
640.358	968.36
640.556	903.27
640.753	890.67
640.951	846.11
641.148	921.67
641.346	917.8
641.543	902.3
641.741	926.32
641.938	865.49
642.136	916.63
642.333	855.22
642.531	963.33
642.728	984.25
642.925	900.75
643.123	886.99
643.32	914.7
643.517	893.77
643.715	906.56
643.912	862.97
644.109	914.5
644.306	904.23
644.504	874.98
644.701	905.01
644.898	917.8
645.095	860.64
645.293	914.5
645.49	901.72
645.687	887.18
645.884	929.81
646.081	806.59
646.278	874.4
646.475	856.19
646.672	883.12
646.87	886.6
647.067	884.28
647.264	900.17
647.461	836.81
647.658	845.14
647.855	874.4
648.052	861.8
648.249	754.08
648.446	830.03
648.642	822.86
648.839	813.56
649.036	789.34
649.233	767.45
649.43	790.31
649.627	769.19
649.824	832.35
650.021	763.38
650.217	764.54
650.414	810.27
650.611	854.25
650.808	831
651.004	804.84
651.201	835.45
651.398	864.9
651.595	831.39
651.791	805.62
651.988	855.41
652.185	783.53
652.381	830.03
652.578	766.29
652.775	818.79
652.971	786.63
653.168	820.34
653.364	857.74
653.561	759.7
653.757	821.7
653.954	831.39
654.15	790.12
654.347	873.04
654.543	812.01
654.74	734.12
654.936	774.23
655.133	779.27
655.329	812.01
655.525	775.39
655.722	816.85
655.918	768.03
656.115	798.06
656.311	707.19
656.507	714.56
656.704	635.7
656.9	662.83
657.096	683.75
657.292	677.55
657.489	757.96
657.685	745.17
657.881	701.77
658.077	704.48
658.273	733.35
658.47	800.19
658.666	715.72
658.862	778.69
659.058	767.26
659.254	773.26
659.45	731.99
659.646	779.85
659.842	747.69
660.038	801.94
660.234	747.88
660.43	759.51
660.626	830.22
660.822	793.8
661.018	822.86
661.214	788.57
661.41	725.41
661.606	771.32
661.802	802.52
661.998	761.44
662.194	747.49
662.39	781.01
662.586	801.35
662.781	776.75
662.977	788.76
663.173	815.11
663.369	805.42
663.564	799.42
663.76	809.1
663.956	734.32
664.152	830.61
664.347	701.38
664.543	750.21
664.739	767.64
664.934	696.54
665.13	711.84
665.326	812.98
665.521	783.53
665.717	726.18
665.912	725.21
666.108	658.56
666.304	711.65
666.499	751.37
666.695	690.14
666.89	743.04
667.086	752.53
667.281	772.87
667.477	812.98
667.672	753.89
667.867	740.52
668.063	756.79
668.258	745.17
668.454	746.33
668.649	809.69
668.844	733.35
669.04	764.93
669.235	724.24
669.43	718.24
669.626	684.91
669.821	713.01
670.016	697.7
670.211	738.97
670.407	697.51
670.602	744.01
670.797	729.67
670.992	744.78
671.187	701.19
671.382	761.25
671.578	720.37
671.773	753.69
671.968	697.51
672.163	705.26
672.358	771.71
672.553	677.74
672.748	700.41
672.943	781.2
673.138	682.78
673.333	748.07
673.528	680.46
673.723	739.94
673.918	704.48
674.113	688.01
674.308	794.57
674.503	763.77
674.698	748.85
674.892	748.66
675.087	739.94
675.282	732.19
675.477	663.41
675.672	744.78
675.867	719.79
676.061	635.51
676.256	678.91
676.451	692.66
676.646	723.08
676.84	641.13
677.035	668.06
677.23	673.09
677.424	717.46
677.619	751.56
677.814	758.92
678.008	761.06
678.203	645.97
678.397	671.93
678.592	677.55
678.787	769.39
678.981	686.46
679.176	720.37
679.37	725.41
679.565	670.58
679.759	679.88
679.954	710.68
680.148	783.34
680.342	779.85
680.537	732.57
680.731	676.78
680.926	755.05
681.12	750.59
681.314	694.79
681.509	685.69
681.703	706.61
681.897	746.33
682.092	729.28
682.286	684.72
682.48	750.98
682.674	750.98
682.869	733.54
683.063	703.71
683.257	780.82
683.451	654.11
683.645	717.27
683.839	697.7
684.034	705.64
684.228	761.64
684.422	646.94
684.616	666.31
684.81	732.77
685.004	688.79
685.198	670.96
685.392	728.89
685.586	647.91
685.78	711.65
685.974	733.16
686.168	730.25
686.362	750.21
686.556	680.84
686.75	649.65
686.944	643.06
687.138	661.28
687.331	563.63
687.525	601.6
687.719	538.05
687.913	642.68
688.107	593.66
688.301	577.58
688.494	620.01
688.688	559.36
688.882	535.92
689.076	582.81
689.269	563.63
689.463	658.18
689.657	554.33
689.85	602.57
690.044	595.01
690.238	608.19
690.431	588.23
690.625	560.33
690.818	629.11
691.012	629.89
691.205	640.16
691.399	577
691.593	634.93
691.786	690.34
691.98	719.01
692.173	711.26
692.366	655.27
692.56	707
692.753	754.47
692.947	633.96
693.14	687.43
693.333	718.62
693.527	628.73
693.72	691.31
693.914	669.61
694.107	672.32
694.3	683.75
694.493	652.75
694.687	738
694.88	666.12
695.073	751.17
695.266	715.33
695.46	684.53
695.653	747.49
695.846	748.46
696.039	675.81
696.232	704.48
696.425	753.5
696.618	766.48
696.812	735.67
697.005	826.54
697.198	876.33
697.391	851.73
697.584	856.38
697.777	870.33
697.97	823.64
698.163	857.93
698.356	824.6
698.549	950.15
698.742	934.65
698.935	868.78
699.127	871.88
699.32	856.96
699.513	855.22
699.706	895.9
699.899	940.47
700.092	900.17
700.285	947.83
700.477	894.93
700.67	941.43
700.863	981.35
701.056	1038.89
701.248	1011.38
701.441	1013.7
701.634	976.11
701.826	1094.49
702.019	986.96
702.212	1035.01
702.404	1014.67
702.597	1013.51
702.79	1065.63
702.982	1075.12
703.175	1121.62
703.367	1123.94
703.56	1118.33
703.752	1212.29
703.945	1206.87
704.137	1178.77
704.33	1255.69
704.522	1207.26
704.715	1242.71
704.907	1270.22
705.1	1300.45
705.292	1297.74
705.484	1308.97
705.677	1334.93
705.869	1344.43
706.061	1358.57
706.254	1452.54
706.446	1417.28
706.638	1376.2
706.831	1475.98
707.023	1394.8
707.215	1532.75
707.407	1487.8
707.599	1473.66
707.792	1537.98
707.984	1527.71
708.176	1559.1
708.368	1548.64
708.56	1576.92
708.752	1580.8
708.944	1585.06
709.136	1648.81
709.329	1613.16
709.521	1755.95
709.713	1721.85
709.905	1726.5
710.097	1765.83
710.289	1705.57
710.481	1745.68
710.672	1771.06
710.864	1791.79
711.056	1840.23
711.248	1833.06
711.44	1884.6
711.632	1847.98
711.824	1886.73
712.016	1930.51
712.207	1932.64
712.399	1940.2
712.591	2011.89
712.783	2004.72
712.975	2034.17
713.166	1995.03
713.358	1992.9
713.55	2089.77
713.741	2084.54
713.933	2078.92
714.125	2122.32
714.316	2110.7
714.508	2185.29
714.7	2166.11
714.891	2128.91
715.083	2229.66
715.274	2192.27
715.466	2191.88
715.657	2274.61
715.849	2164.75
716.04	2250.58
716.232	2169.99
716.423	2285.85
716.615	2226.75
716.806	2165.53
716.998	2188
717.189	2093.26
717.381	2051.8
717.572	2046.37
717.763	2074.66
717.955	2071.37
718.146	2007.04
718.337	1975.66
718.528	1956.86
718.72	1911.14
718.911	1967.52
719.102	1927.99
719.293	1985.54
719.485	1964.61
719.676	1968.88
719.867	1949.31
720.058	1979.92
720.249	1949.89
720.44	1995.42
720.632	2030.49
720.823	2030.1
721.014	2259.88
721.205	2222.68
721.396	2314.91
721.587	2382.72
721.778	2424.96
721.969	2445.3
722.16	2490.44
722.351	2540.82
722.542	2655.13
722.733	2708.6
722.924	2615.22
723.115	2658.42
723.305	2644.67
723.496	2652.61
723.687	2543.14
723.878	2538.88
724.069	2597.39
724.26	2598.55
724.45	2500.32
724.641	2547.21
724.832	2583.44
725.023	2598.36
725.213	2564.45
725.404	2501.1
725.595	2574.34
725.785	2564.65
725.976	2651.83
726.167	2655.9
726.357	2644.47
726.548	2781.65
726.739	2645.83
726.929	2765.37
727.12	2770.02
727.31	2822.91
727.501	2764.21
727.691	2786.49
727.882	2769.83
728.072	2819.23
728.263	2834.54
728.453	2900.99
728.644	2901.96
728.834	2861.66
729.024	2835.12
729.215	2857.21
729.405	2921.72
729.596	2964.35
729.786	3003.68
729.976	3007.36
730.167	3057.54
730.357	2991.86
730.547	3011.82
730.737	3017.63
730.928	3093.97
731.118	3140.08
731.308	3082.34
731.498	3091.25
731.688	3220.68
731.879	3196.46
732.069	3243.93
732.259	3306.7
732.449	3315.22
732.639	3406.48
732.829	3425.85
733.019	3449.3
733.209	3553.53
733.399	3526.6
733.589	3614.37
733.779	3638.59
733.969	3594.61
734.159	3698.84
734.349	3730.04
734.539	3822.65
734.729	3809.86
734.919	3815.48
735.109	3840.86
735.299	3840.67
735.488	3813.93
735.678	3867.02
735.868	3872.83
736.058	3870.31
736.248	3855.78
736.437	3821.29
736.627	3820.32
736.817	3931.53
737.007	3908.29
737.196	3942.19
737.386	3933.86
737.576	3883.68
737.765	3995.28
737.955	3905.96
738.144	4046.62
738.334	4010.78
738.524	3963.89
738.713	4021.82
738.903	3988.5
739.092	4071.42
739.282	4020.08
739.471	4062.9
739.661	4044.1
739.85	4062.51
740.04	4072.39
740.229	4110.17
740.419	4122.38
740.608	4161.13
740.797	4154.54
740.987	4190.77
741.176	4236.49
741.365	4151.24
741.555	4095.25
741.744	4213.24
741.933	4140.59
742.123	4199.49
742.312	4231.07
742.501	4257.22
742.69	4307.02
742.88	4164.23
743.069	4342.67
743.258	4227.58
743.447	4357
743.636	4379.67
743.825	4307.02
744.014	4290.74
744.204	4364.37
744.393	4289.19
744.582	4405.83
744.771	4377.35
744.96	4313.6
745.149	4385.68
745.338	4342.67
745.527	4420.94
745.716	4347.7
745.905	4328.52
746.094	4422.88
746.283	4409.9
746.471	4370.37
746.66	4479.26
746.849	4484.49
747.038	4474.03
747.227	4353.13
747.416	4446.71
747.604	4405.05
747.793	4407.77
747.982	4412.22
748.171	4445.55
748.359	4406.6
748.548	4484.3
748.737	4424.62
748.926	4394.98
749.114	4303.72
749.303	4421.91
749.491	4403.89
749.68	4318.06
749.869	4454.85
750.057	4377.93
750.246	4385.1
750.434	4355.45
750.623	4349.84
750.811	4329.1
751	4400.79
751.188	4366.69
751.377	4372.12
751.565	4348.48
751.754	4323.1
751.942	4326.2
752.131	4380.45
752.319	4320.97
752.507	4302.56
752.696	4353.32
752.884	4398.66
753.072	4312.25
753.261	4384.32
753.449	4367.27
753.637	4319.61
753.825	4400.6
754.014	4321.55
754.202	4331.62
754.39	4369.98
754.578	4347.7
754.766	4312.05
754.955	4279.5
755.143	4416.87
755.331	4282.22
755.519	4325.04
755.707	4357.59
755.895	4329.1
756.083	4300.82
756.271	4231.84
756.459	4264.39
756.647	4337.05
756.835	4264.2
757.023	4284.15
757.211	4237.46
757.399	4247.54
757.587	4238.62
757.775	4176.24
757.963	4254.51
758.151	4240.95
758.339	4200.65
758.526	4204.14
758.714	4263.62
758.902	4131.48
759.09	4062.12
759.278	3844.74
759.465	3660.1
759.653	3272.41
759.841	3014.53
760.028	2644.47
760.216	2323.05
760.404	2200.21
760.591	1864.45
760.779	1644.16
760.967	1476.76
761.154	1315.75
761.342	1349.08
761.529	1318.47
761.717	1439.17
761.905	1417.66
762.092	1561.81
762.28	1507.56
762.467	1583.51
762.655	1523.84
762.842	1580.99
763.029	1585.26
763.217	1620.52
763.404	1626.52
763.592	1668.18
763.779	1603.27
763.966	1672.83
764.154	1699.76
764.341	1778.42
764.528	1781.72
764.716	1857.86
764.903	1935.74
765.09	1985.73
765.277	2038.04
765.465	2201.37
765.652	2261.43
765.839	2332.73
766.026	2481.72
766.213	2529.77
766.4	2615.22
766.588	2802.18
766.775	2826.98
766.962	2901.57
767.149	2997.67
767.336	3162.75
767.523	3087.96
767.71	3215.25
767.897	3362.31
768.084	3393.31
768.271	3416.55
768.458	3517.5
768.645	3584.53
768.832	3555.08
769.019	3556.25
769.206	3619.21
769.392	3681.41
769.579	3753.29
769.766	3703.3
769.953	3717.64
770.14	3743.6
770.327	3735.08
770.513	3794.94
770.7	3874.38
770.887	3754.26
771.073	3772.08
771.26	3776.15
771.447	3722.29
771.634	3735.66
771.82	3816.45
772.007	3724.03
772.193	3797.66
772.38	3807.92
772.567	3761.81
772.753	3740.11
772.94	3835.05
773.126	3814.71
773.313	3836.21
773.499	3772.08
773.686	3832.34
773.872	3708.14
774.059	3816.84
774.245	3722.09
774.432	3738.76
774.618	3681.99
774.804	3759.49
774.991	3691.68
775.177	3749.99
775.363	3710.66
775.55	3729.65
775.736	3645.76
775.922	3693.81
776.109	3695.94
776.295	3684.51
776.481	3712.41
776.667	3682.76
776.853	3637.81
777.04	3638.01
777.226	3642.46
777.412	3716.67
777.598	3625.8
777.784	3654.09
777.97	3601.39
778.156	3695.94
778.342	3606.81
778.528	3595
778.715	3536.87
778.901	3562.64
779.087	3592.09
779.272	3535.9
779.458	3565.93
779.644	3557.41
779.83	3545.4
780.016	3640.14
780.202	3546.95
780.388	3546.56
780.574	3453.17
780.76	3524.08
780.946	3514.98
781.131	3510.91
781.317	3495.02
781.503	3468.87
781.689	3470.8
781.874	3611.27
782.06	3425.08
782.246	3450.85
782.432	3430.7
782.617	3492.12
782.803	3517.3
782.989	3400.47
783.174	3466.15
783.36	3343.32
783.545	3410.74
783.731	3405.32
783.916	3321.62
784.102	3426.24
784.288	3335.37
784.473	3347.39
784.659	3353.01
784.844	3395.05
785.029	3299.92
785.215	3317.16
785.4	3266.01
785.586	3352.81
785.771	3265.43
785.956	3314.84
786.142	3307.09
786.327	3259.23
786.512	3295.85
786.698	3265.63
786.883	3211.57
787.068	3235.79
787.254	3270.66
787.439	3206.73
787.624	3213.9
787.809	3210.6
787.994	3205.18
788.18	3268.34
788.365	3118.18
788.55	3150.73
788.735	3157.51
788.92	3203.63
789.105	3146.47
789.29	3214.28
789.475	3121.87
789.66	3147.63
789.845	3074.78
790.03	3098.62
790.215	3147.83
790.4	3133.1
790.585	3129.23
790.77	3068.78
790.955	3019.57
791.14	3085.05
791.325	3166.43
791.51	2936.84
791.695	3073.23
791.879	3068.78
792.064	2988.18
792.249	3108.5
792.434	3073.62
792.618	2991.09
792.803	3064.9
792.988	3042.62
793.173	3039.33
793.357	3093.77
793.542	3003.29
793.727	3024.6
793.911	3053.67
794.096	3009.88
794.281	3105.01
794.465	3139.88
794.65	3051.73
794.834	3071.88
795.019	3096.68
795.203	3129.23
795.388	3126.52
795.572	3143.76
795.757	3097.65
795.941	3117.99
796.126	3126.71
796.31	3051.73
796.494	3070.91
796.679	3033.71
796.863	3083.7
797.048	3133.1
797.232	3089.12
797.416	3137.95
797.601	3116.63
797.785	3185.8
797.969	3146.08
798.153	3068.39
798.338	3144.15
798.522	3165.46
798.706	3132.33
798.89	3174.37
799.074	3259.23
799.258	3187.35
799.443	3140.08
799.627	3138.72
799.811	3220.48
799.995	3111.02
800.179	3129.62
800.363	3109.66
800.547	3124
800.731	3161.39
800.915	3062.38
801.099	3109.27
801.283	3110.63
801.467	3121.48
801.651	3101.91
801.835	3137.56
802.019	3141.63
802.202	3145.31
802.386	3046.89
802.57	3083.5
802.754	3105.2
802.938	3063.74
803.121	3051.73
803.305	3145.5
803.489	3105.4
803.673	3157.13
803.856	3125.16
804.04	3097.07
804.224	3140.66
804.407	3110.24
804.591	3075.56
804.775	3099
804.958	3116.83
805.142	3202.08
805.326	3075.37
805.509	3111.6
805.693	3161.78
805.876	3153.06
806.06	3126.13
806.243	3163.71
806.427	3145.11
806.61	3218.74
806.794	3083.31
806.977	3177.47
807.16	3078.08
807.344	3109.08
807.527	3056.18
807.71	3094.74
807.894	3089.12
808.077	3103.46
808.26	3087.96
808.444	3053.86
808.627	3125.16
808.81	3069.75
808.993	3002.9
809.177	2985.27
809.36	2966.48
809.543	3050.76
809.726	2954.47
809.909	2962.8
810.092	2943.42
810.276	2913.78
810.459	2946.52
810.642	2941.29
810.825	2881.81
811.008	2895.76
811.191	2804.12
811.374	2848.49
811.557	2840.16
811.74	2931.22
811.923	2817.49
812.106	2791.72
812.289	2763.63
812.472	2727.78
812.654	2775.45
812.837	2721.2
813.02	2656.29
813.203	2671.6
813.386	2562.9
813.569	2553.99
813.751	2479.21
813.934	2511.76
814.117	2475.52
814.3	2447.62
814.482	2394.93
814.665	2388.14
814.848	2334.67
815.03	2306.58
815.213	2297.66
815.396	2262.79
815.578	2241.28
815.761	2175.99
815.943	2270.93
816.126	2127.55
816.309	2105.66
816.491	2058.39
816.674	1981.08
816.856	2023.12
817.039	2073.11
817.221	2130.27
817.403	2067.69
817.586	2088.03
817.768	2098.3
817.951	2029.13
818.133	2019.25
818.315	2035.52
818.498	2053.74
818.68	2124.26
818.862	2114.57
819.045	2108.18
819.227	2063.42
819.409	2013.05
819.591	2109.15
819.774	2082.61
819.956	2038.82
820.138	2104.5
820.32	2065.75
820.502	2167.27
820.684	2201.95
820.866	2202.34
821.048	2272.86
821.231	2283.33
821.413	2257.37
821.595	2262.6
821.777	2263.76
821.959	2219.97
822.141	2322.66
822.323	2192.27
822.505	2117.67
822.686	2096.17
822.868	1986.89
823.05	1921.21
823.232	1840.81
823.414	1771.06
823.596	1839.84
823.778	1839.84
823.96	1845.26
824.141	1853.98
824.323	1886.73
824.505	1962.29
824.687	2015.37
824.868	2024.67
825.05	2129.69
825.232	2146.54
825.413	2262.79
825.595	2171.92
825.777	2175.8
825.958	2210.28
826.14	2192.65
826.321	2211.83
826.503	2151.19
826.685	2225.78
826.866	2216.29
827.048	2251.55
827.229	2158.94
827.411	2120.97
827.592	2087.64
827.773	2056.84
827.955	2013.82
828.136	1986.31
828.318	1951.24
828.499	2024.87
828.68	1971.98
828.862	1995.03
829.043	2033.78
829.224	2011.11
829.406	1940.98
829.587	1958.61
829.768	1975.08
829.949	2009.95
830.131	1978.95
830.312	2014.79
830.493	1979.73
830.674	2006.85
830.855	1951.83
831.036	1953.18
831.218	2040.56
831.399	2079.51
831.58	1996.97
831.761	1990.19
831.942	2009.56
832.123	1965.39
832.304	1909.59
832.485	1935.94
832.666	1941.17
832.847	1991.16
833.028	1965.19
833.209	1966.36
833.389	1983.99
833.57	1908.62
833.751	1922.96
833.932	2022.16
834.113	1942.53
834.294	1942.53
834.475	1946.98
834.655	1997.74
834.836	1971.2
835.017	2018.47
835.198	1909.4
835.378	1978.18
835.559	2039.21
835.74	1964.81
835.92	1987.09
836.101	1930.51
836.281	2011.69
836.462	1976.04
836.643	2007.62
836.823	2040.17
837.004	2015.76
837.184	2088.42
837.365	2041.72
837.545	2007.43
837.726	1997.36
837.906	2028.94
838.087	2007.24
838.267	2023.12
838.448	2003.94
838.628	1966.55
838.808	2020.22
838.989	2068.85
839.169	1943.49
839.349	2036.49
839.53	2039.01
839.71	2048.12
839.89	1983.02
840.07	2068.85
840.251	1968.29
840.431	2033.2
840.611	2003.94
840.791	1997.16
840.971	1995.23
841.151	1956.09
841.332	1986.89
841.512	2016.54
841.692	1925.28
841.872	2022.54
842.052	1975.08
842.232	1987.86
842.412	1889.83
842.592	1952.02
842.772	1958.8
842.952	1948.34
843.132	1968.88
843.312	1914.82
843.492	1890.41
843.672	1957.06
843.851	1890.41
844.031	1888.47
844.211	1910.17
844.391	1880.53
844.571	1927.03
844.751	1979.34
844.93	1951.63
845.11	1885.56
845.29	1901.84
845.47	1900.1
845.649	1907.65
845.829	1921.41
846.009	1870.26
846.188	1931.68
846.368	1884.4
846.547	1888.28
846.727	1940.01
846.907	1821.82
847.086	1889.05
847.266	1901.84
847.445	1895.25
847.625	1850.69
847.804	1852.82
847.984	1867.16
848.163	1870.65
848.343	1837.9
848.522	1867.35
848.701	1875.88
848.881	1828.6
849.06	1890.8
849.239	1870.65
849.419	1849.72
849.598	1810.2
849.777	1757.3
849.957	1734.25
850.136	1683.1
850.315	1691.43
850.494	1669.73
850.674	1663.14
850.853	1774.74
851.032	1705.57
851.211	1787.92
851.39	1740.25
851.569	1691.24
851.748	1658.49
851.927	1732.5
852.107	1695.3
852.286	1686
852.465	1687.55
852.644	1756.92
852.823	1702.47
853.002	1726.3
853.181	1713.9
853.359	1747.23
853.538	1655.2
853.717	1731.73
853.896	1620.71
854.075	1581.96
854.254	1559.49
854.433	1442.27
854.611	1517.83
854.79	1411.08
854.969	1509.69
855.148	1560.65
855.327	1474.63
855.505	1537.4
855.684	1572.27
855.863	1544.38
856.041	1565.49
856.22	1576.92
856.399	1558.71
856.577	1711.77
856.756	1665.08
856.934	1772.61
857.113	1780.36
857.291	1657.72
857.47	1598.04
857.648	1649.77
857.827	1644.16
858.005	1699.37
858.184	1594.94
858.362	1711.97
858.541	1634.47
858.719	1627.69
858.898	1621.87
859.076	1606.96
859.254	1683.87
859.433	1590.68
859.611	1561.81
859.789	1560.26
859.967	1651.13
860.146	1667.21
860.324	1560.26
860.502	1593.39
860.68	1521.71
860.859	1547.86
861.037	1594.75
861.215	1591.65
861.393	1584.87
861.571	1536.63
861.749	1536.24
861.927	1593.01
862.105	1593.01
862.283	1556.78
862.461	1529.07
862.639	1488.38
862.817	1539.53
862.995	1528.88
863.173	1509.89
863.351	1511.63
863.529	1568.21
863.707	1557.94
863.885	1563.36
864.063	1465.33
864.241	1492.84
864.418	1570.34
864.596	1480.63
864.774	1437.43
864.952	1500.78
865.129	1516.28
865.307	1463.58
865.485	1450.99
865.663	1538.56
865.84	1393.64
866.018	1450.02
866.196	1306.45
866.373	1316.92
866.551	1275.84
866.728	1223.72
866.906	1246.59
867.084	1305.1
867.261	1318.08
867.439	1351.21
867.616	1373.1
867.794	1357.02
867.971	1351.6
868.149	1425.8
868.326	1459.13
868.503	1435.68
868.681	1376.2
868.858	1381.43
869.035	1366.9
869.213	1437.23
869.39	1370.58
869.567	1467.85
869.745	1370.97
869.922	1375.23
870.099	1391.7
870.276	1410.3
870.454	1398.48
870.631	1433.75
870.808	1379.11
870.985	1407.01
871.162	1477.53
871.339	1397.9
871.517	1333.38
871.694	1334.16
871.871	1369.23
872.048	1354.12
872.225	1330.28
872.402	1373.49
872.579	1318.85
872.756	1360.51
872.933	1312.07
873.11	1338.03
873.287	1375.43
873.463	1318.27
873.64	1314.98
873.817	1368.84
873.994	1320.21
874.171	1283.79
874.348	1318.47
874.524	1264.41
874.701	1299.67
874.878	1245.23
875.055	1305.29
875.231	1311.68
875.408	1290.18
875.585	1234.77
875.762	1294.44
875.938	1272.94
876.115	1277.39
876.291	1259.18
876.468	1259.57
876.645	1182.07
876.821	1231.86
876.998	1224.5
877.174	1307.03
877.351	1254.92
877.527	1190.4
877.704	1246
877.88	1256.47
878.057	1207.06
878.233	1270.03
878.409	1201.44
878.586	1268.48
878.762	1233.6
878.938	1222.95
879.115	1149.52
879.291	1196.02
879.467	1139.44
879.644	1159.4
879.82	1200.47
879.996	1178.19
880.172	1120.84
880.349	1222.17
880.525	1208.81
880.701	1120.26
880.877	1133.44
881.053	1188.07
881.229	1171.41
881.405	1183.23
881.581	1145.06
881.757	1179.36
881.933	1196.79
882.109	1222.75
882.285	1158.43
882.461	1124.91
882.637	1158.43
882.813	1142.35
882.989	1159.21
883.165	1219.27
883.341	1124.91
883.517	1181.87
883.693	1165.21
883.869	1216.94
884.044	1133.44
884.22	1194.86
884.396	1223.92
884.572	1187.69
884.747	1185.94
884.923	1190.79
885.099	1187.11
885.275	1215.59
885.45	1132.86
885.626	1150.1
885.801	1159.59
885.977	1153.59
886.153	1073.18
886.328	1171.02
886.504	1113.48
886.679	1135.37
886.855	1127.63
887.03	1165.02
887.206	1182.07
887.381	1178
887.557	1157.07
887.732	1179.94
887.908	1175.48
888.083	1216.75
888.258	1133.63
888.434	1135.18
888.609	1128.98
888.784	1191.56
888.96	1137.7
889.135	1146.61
889.31	1141.57
889.485	1159.4
889.661	1153.2
889.836	1162.11
890.011	1192.72
890.186	1153.2
890.361	1114.84
890.537	1166.37
890.712	1140.22
890.887	1180.13
891.062	1182.26
891.237	1217.33
891.412	1149.71
891.587	1157.07
891.762	1176.84
891.937	1218.49
892.112	1122.59
892.287	1142.93
892.462	1122.98
892.637	1071.44
892.812	1102.44
892.987	1095.85
893.161	1075.89
893.336	1082.09
893.511	1063.11
893.686	1090.23
893.861	1084.81
894.035	1070.08
894.21	1027.46
894.385	1023.97
894.56	1094.69
894.734	979.99
894.909	991.03
895.084	1029.78
895.258	1000.53
895.433	1039.08
895.608	991.61
895.782	909.85
895.957	976.31
896.131	946.67
896.306	893.58
896.48	915.08
896.655	898.62
896.829	812.79
897.004	818.79
897.178	848.24
897.353	824.22
897.527	863.55
897.701	831.39
897.876	802.32
898.05	889.51
898.224	862.77
898.399	922.25
898.573	847.08
898.747	744.97
898.921	770.36
899.096	703.51
899.27	726.76
899.444	702.54
899.618	722.11
899.792	749.62
899.967	751.56
900.141	786.82
900.315	695.37
900.489	741.49
900.663	793.6
900.837	731.61
901.011	710.49
901.185	791.67
901.359	764.93
901.533	749.43
901.707	747.88
901.881	743.04
902.055	705.45
902.229	718.43
902.403	808.72
902.576	750.79
902.75	771.71
902.924	869.55
903.098	777.91
903.272	882.92
903.446	855.41
903.619	879.82
903.793	889.7
903.967	880.6
904.14	944.92
904.314	901.52
904.488	854.83
904.661	898.23
904.835	889.12
905.009	924.77
905.182	973.21
905.356	885.83
905.529	903.85
905.703	867.62
905.876	860.25
906.05	847.66
906.223	824.6
906.397	746.52
906.57	752.14
906.744	755.82
906.917	749.62
907.09	747.3
907.264	736.64
907.437	719.01
907.61	657.59
907.784	681.81
907.957	735.67
908.13	706.42
908.304	735.09
908.477	661.47
908.65	658.18
908.823	638.61
908.996	728.51
909.17	644.03
909.343	680.26
909.516	637.83
909.689	658.95
909.862	633.38
910.035	667.48
910.208	607.22
910.381	606.44
910.554	721.14
910.727	652.36
910.9	625.04
911.073	626.98
911.246	692.27
911.419	723.08
911.592	686.66
911.765	643.06
911.938	625.24
912.11	683.17
912.283	640.16
912.456	686.27
912.629	651.59
912.802	650.81
912.974	610.71
913.147	554.91
913.32	504.34
913.493	542.12
913.665	568.66
913.838	578.93
914.01	564.98
914.183	611.09
914.356	599.47
914.528	640.54
914.701	657.79
914.873	642.68
915.046	583
915.218	529.91
915.391	496.98
915.563	505.5
915.736	543.67
915.908	547.35
916.081	569.63
916.253	546.38
916.425	531.66
916.598	588.23
916.77	545.8
916.942	546.38
917.115	481.48
917.287	589.2
917.459	543.67
917.632	499.88
917.804	453.19
917.976	527.78
918.148	542.7
918.32	553.94
918.493	562.66
918.665	602.18
918.837	541.73
919.009	612.45
919.181	645
919.353	563.63
919.525	577.38
919.697	570.21
919.869	567.7
920.041	635.31
920.213	677.36
920.385	612.84
920.557	597.15
920.729	602.38
920.901	605.67
921.073	569.05
921.244	563.63
921.416	616.91
921.588	596.18
921.76	579.51
921.932	630.86
922.103	574.86
922.275	583.39
922.447	595.6
922.619	495.23
922.79	554.91
922.962	532.05
923.134	580.48
923.305	546.38
923.477	510.15
923.648	541.35
923.82	533.21
923.991	479.73
924.163	472.37
924.335	492.13
924.506	491.36
924.677	554.91
924.849	487.1
925.02	514.03
925.192	558.2
925.363	506.67
925.535	538.44
925.706	457.07
925.877	544.25
926.049	477.6
926.22	501.24
926.391	520.81
926.562	524.68
926.734	462.49
926.905	524.88
927.076	460.94
927.247	471.6
927.419	452.03
927.59	427.23
927.761	440.6
927.932	430.72
928.103	423.35
928.274	391.97
928.445	383.44
928.616	403.59
928.787	375.5
928.958	423.16
929.129	399.91
929.3	385.77
929.471	325.71
929.642	286.57
929.813	229.99
929.984	353.6
930.155	234.84
930.326	279.4
930.496	297.81
930.667	225.93
930.838	254.99
931.009	210.04
931.18	258.28
931.35	215.66
931.521	232.71
931.692	193.57
931.863	127.7
932.033	180.59
932.204	188.53
932.374	198.22
932.545	128.66
932.716	205.78
932.886	215.08
933.057	76.74
933.227	130.99
933.398	198.41
933.568	97.86
933.739	48.26
933.909	91.85
934.08	146.88
934.25	39.73
934.421	61.82
934.591	120.33
934.761	58.14
934.932	54.65
935.102	94.56
935.272	89.14
935.443	95.92
935.613	81.97
935.783	98.83
935.953	37.41
936.123	235.03
936.294	48.65
936.464	71.7
936.634	67.44
936.804	26.17
936.974	31.21
937.144	109.1
937.314	77.9
937.484	77.13
937.655	73.06
937.825	121.69
937.995	50.2
938.165	121.69
938.334	87.98
938.504	115.49
938.674	76.35
938.844	106.96
939.014	179.23
939.184	162.76
939.354	205.78
939.524	212.56
939.694	146.68
939.863	141.26
940.033	203.06
940.203	227.09
940.373	162.38
940.542	185.43
940.712	146.49
940.882	175.16
941.051	204.23
941.221	187.95
941.391	189.69
941.56	124.21
941.73	138.35
941.899	287.15
942.069	128.86
942.238	182.91
942.408	125.76
942.577	165.67
942.747	159.28
942.916	100.96
943.086	114.52
943.255	155.6
943.425	129.44
943.594	114.71
943.763	57.75
943.933	64.34
944.102	46.9
944.271	99.21
944.441	120.72
944.61	99.41
944.779	127.89
944.948	219.53
945.117	55.82
945.287	85.26
945.456	52.52
945.625	85.26
945.794	144.36
945.963	77.32
946.132	140.68
946.301	92.05
946.47	125.76
946.639	55.23
946.808	83.91
946.977	125.18
947.146	141.45
947.315	81.39
947.484	147.26
947.653	100.57
947.822	81.2
947.991	66.86
948.16	186.01
948.329	153.46
948.498	129.63
948.666	102.9
948.835	153.85
949.004	75
949.173	71.9
949.341	121.5
949.51	122.85
949.679	144.75
949.847	136.61
950.016	184.66
950.185	184.27
950.353	111.23
950.522	133.12
950.69	166.25
950.859	85.65
951.028	149.2
951.196	126.53
951.365	97.28
951.533	89.91
951.701	134.86
951.87	128.66
952.038	77.13
952.207	94.37
952.375	173.23
952.543	80.03
952.712	119.56
952.88	76.93
953.048	184.46
953.217	129.83
953.385	104.06
953.553	167.61
953.721	56.2
953.89	113.75
954.058	50
954.226	87.78
954.394	121.69
954.562	50.97
954.73	71.7
954.898	108.9
955.067	150.95
955.235	74.61
955.403	150.36
955.571	170.32
955.739	139.32
955.907	83.33
956.075	77.71
956.243	65.12
956.41	121.11
956.578	45.74
956.746	67.44
956.914	93.79
957.082	128.08
957.25	119.75
957.418	64.92
957.585	87.4
957.753	134.48
957.921	84.49
958.089	98.44
958.256	130.6
958.424	115.49
958.592	113.36
958.759	68.41
958.927	138.74
959.095	83.13
959.262	79.26
959.43	112.58
959.597	89.33
959.765	96.7
959.932	56.59
960.1	132.15
960.267	123.24
960.435	97.86
960.602	155.01
960.77	88.36
960.937	37.41
961.104	150.36
961.272	48.65
961.439	107.16
961.606	114.71
961.774	152.69
961.941	79.65
962.108	116.07
962.275	152.3
962.443	149.98
962.61	101.73
962.777	202.09
962.944	153.27
963.111	130.6
963.278	135.06
963.446	118.01
963.613	115.49
963.78	163.15
963.947	156.95
964.114	99.99
964.281	205.97
964.448	148.62
964.615	105.22
964.782	134.67
964.949	139.51
965.116	160.25
965.282	192.02
965.449	97.66
965.616	104.06
965.783	143
965.95	144.75
966.117	75.97
966.283	125.76
966.45	120.91
966.617	127.89
966.784	168.96
966.95	144.75
967.117	152.88
967.284	98.25
967.45	101.93
967.617	157.34
967.784	169.93
967.95	197.25
968.117	144.94
968.283	189.89
968.45	260.99
968.616	156.95
968.783	176.52
968.949	163.73
969.116	162.57
969.282	145.52
969.449	149.59
969.615	153.08
969.781	102.7
969.948	107.35
970.114	84.49
970.28	188.92
970.447	130.21
970.613	175.55
970.779	122.85
970.945	187.95
971.112	156.56
971.278	152.69
971.444	133.51
971.61	176.91
971.776	118.4
971.942	186.01
972.108	167.8
972.275	132.73
972.441	152.69
972.607	195.51
972.773	93.4
972.939	145.13
973.105	113.55
973.271	102.7
973.437	98.83
973.602	110.26
973.768	131.96
973.934	139.13
974.1	149.4
974.266	77.32
974.432	139.51
974.598	116.07
974.763	161.8
974.929	131.18
975.095	169.74
975.261	108.13
975.426	87.98
975.592	141.45
975.758	212.36
975.923	57.95
976.089	105.22
976.255	139.51
976.42	125.18
976.586	162.38
976.751	129.05
976.917	192.41
977.082	137.19
977.248	79.45
977.413	39.54
977.579	112.58
977.744	143.97
977.91	85.07
978.075	83.52
978.24	153.27
978.406	111.81
978.571	64.73
978.736	67.05
978.902	151.14
979.067	84.88
979.232	61.05
979.397	130.8
979.563	178.65
979.728	93.01
979.893	121.5
980.058	93.01
980.223	146.88
980.388	126.53
980.554	128.66
980.719	99.8
980.884	136.22
981.049	136.41
981.214	106.58
981.379	118.2
981.544	84.1
981.709	95.15
981.874	111.03
982.039	93.6
982.204	143.39
982.368	105.03
982.533	103.86
982.698	131.57
982.863	159.28
983.028	99.21
983.193	128.47
983.357	117.43
983.522	142.42
983.687	119.95
983.852	96.31
984.016	80.42
984.181	139.71
984.346	137.58
984.51	123.82
984.675	113.36
984.839	132.54
985.004	144.16
985.168	156.37
985.333	105.03
985.498	86.81
985.662	141.84
985.827	124.4
985.991	95.73
986.155	96.5
986.32	118.59
986.484	170.71
986.649	122.66
986.813	45.93
986.977	106.77
987.142	141.45
987.306	86.62
987.47	78.68
987.634	92.05
987.799	115.68
987.963	107.74
988.127	127.31
988.291	192.41
988.455	122.66
988.62	119.36
988.784	104.06
988.948	154.43
989.112	88.56
989.276	138.35
989.44	101.73
989.604	85.85
989.768	78.87
989.932	188.53
990.096	100.76
990.26	68.6
990.424	56.59
990.588	58.33
990.752	165.86
990.915	132.35
991.079	87.59
991.243	89.14
991.407	131.57
991.571	83.52
991.734	131.18
991.898	111.42
992.062	164.31
992.226	89.53
992.389	83.52
992.553	56.78
992.717	71.7
992.88	97.28
993.044	69.57
993.207	73.83
993.371	125.56
993.535	96.31
993.698	101.15
993.862	116.65
994.025	134.48
994.189	118.2
994.352	100.18
994.515	119.75
994.679	139.13
994.842	59.5
995.006	124.98
995.169	60.08
995.332	60.47
995.496	115.68
995.659	37.99
995.822	81.78
995.985	81.97
996.149	134.09
996.312	82.36
996.475	151.91
996.638	59.88
996.801	154.63
996.964	169.16
997.128	85.46
997.291	69.38
997.454	96.7
997.617	37.99
997.78	126.53
997.943	56.2
998.106	111.42
998.269	57.95
998.432	55.23
998.595	68.22
998.758	30.43
998.92	39.15
999.083	6.41
999.246	89.33
999.409	37.8
999.572	19.2
999.735	70.35
999.897	108.13
1000.06	66.67
1000.223	85.26
1000.386	102.7
1000.548	93.4
1000.711	106.77
1000.874	95.15
1001.036	19.58
1001.199	118.59
1001.361	64.73
1001.524	65.89
1001.687	128.66
1001.849	44.77
1002.012	94.56
1002.174	96.89
1002.337	125.37
1002.499	60.47
1002.661	115.88
1002.824	20.36
1002.986	18.23
1003.149	87.01
1003.311	26.56
1003.473	138.35
1003.636	67.05
1003.798	92.24
1003.96	77.32
1004.123	74.22
1004.285	49.23
1004.447	73.64
1004.609	49.62
1004.771	136.03
1004.933	25.2
1005.096	31.02
1005.258	16.48
1005.42	50.39
1005.582	100.57
1005.744	58.33
1005.906	3.31
1006.068	55.23
1006.23	41.28
1006.392	24.23
1006.554	54.85
1006.716	112.39
1006.878	75.77
1007.04	9.12
1007.202	46.13
1007.363	79.07
1007.525	49.23
1007.687	96.5
1007.849	91.66
1008.011	42.25
1008.172	0.79
1008.334	36.63
1008.496	95.92
1008.658	-8.31
1008.819	43.42
1008.981	10.28
1009.143	17.07
1009.304	24.23
1009.466	71.32
1009.627	122.27
1009.789	142.42
1009.95	50.97
1010.112	18.03
1010.273	68.99
1010.435	60.27
1010.596	40.12
1010.758	30.82
1010.919	43.03
1011.081	34.89
1011.242	29.66
1011.403	69.38
1011.565	37.41
1011.726	82.36
1011.887	29.66
1012.049	48.07
1012.21	73.64
1012.371	87.2
1012.532	-24.59
1012.693	61.63
1012.855	39.54
1013.016	48.07
1013.177	86.04
1013.338	40.9
1013.499	113.16
1013.66	59.88
1013.821	63.95
1013.982	69.96
1014.143	50.97
1014.304	12.42
1014.465	60.47
1014.626	51.55
1014.787	6.02
1014.948	106
1015.109	-20.13
1015.27	91.66
1015.431	5.44
1015.592	3.89
1015.752	126.34
1015.913	62.02
1016.074	32.57
1016.235	50.97
1016.395	37.8
1016.556	18.62
1016.717	41.28
1016.877	90.3
1017.038	-5.22
1017.199	34.5
1017.359	58.92
1017.52	40.32
1017.681	2.92
1017.841	20.75
1018.002	32.57
1018.162	38.77
1018.323	100.38
1018.483	22.49
1018.644	20.36
1018.804	-1.73
1018.964	19
1019.125	27.72
1019.285	33.73
1019.446	-12.19
1019.606	10.67
1019.766	-17.42
1019.926	51.55
1020.087	20.36
1020.247	-13.35
1020.407	54.27
1020.567	88.36
1020.728	33.73
1020.888	-29.24
1021.048	18.62
1021.208	14.74
1021.368	19.78
1021.528	69.18
1021.688	86.43
1021.848	58.53
1022.008	52.91
1022.168	25.2
1022.328	46.13
1022.488	44
1022.648	14.93
1022.808	46.13
1022.968	34.5
1023.128	28.5
1023.288	9.12
1023.448	2.34
1023.608	56.01
1023.767	51.94
1023.927	23.85
1024.087	-5.41
1024.247	6.6
1024.406	13.19
1024.566	-6.77
1024.726	17.26
1024.885	18.23
1025.045	74.8
1025.205	29.66
1025.364	16.87
1025.524	59.5
1025.683	-2.12
1025.843	33.53
1026.003	25.4
1026.162	112
1026.321	49.42
1026.481	31.4
1026.64	-8.31
1026.8	33.73
1026.959	52.52
1027.119	33.92
1027.278	13.58
1027.437	-15.87
1027.597	39.15
1027.756	43.22
1027.915	51.94
1028.074	40.7
1028.234	4.67
1028.393	13.77
1028.552	3.89
1028.711	-54.81
1028.87	78.29
1029.03	-24.4
1029.189	26.95
1029.348	-57.53
1029.507	17.26
1029.666	8.54
1029.825	-5.6
1029.984	-2.7
1030.143	5.83
1030.302	1.57
1030.461	-43
1030.62	23.07
1030.779	45.55
1030.938	-9.28
1031.097	-10.45
1031.255	39.93
1031.414	77.71
1031.573	38.18
1031.732	-45.32
1031.891	38.77
1032.049	52.13
1032.208	43.03
1032.367	6.99
1032.525	-0.57
1032.684	-4.44
1032.843	42.64
1033.001	-25.17
1033.16	170.51
1033.319	52.52
1033.477	40.7
1033.636	-14.13
1033.794	-38.35
1033.953	37.02
1034.111	48.07
1034.27	-4.25
1034.428	21.52
1034.587	-12.77
1034.745	18.62
1034.903	29.85
1035.062	41.48
1035.22	-36.21
1035.378	48.07
1035.537	-23.43
1035.695	56.78
1035.853	14.55
1036.011	62.98
1036.17	51.17
1036.328	-25.75
1036.486	-3.08
1036.644	41.09
1036.802	-56.17
1036.96	-16.06
1037.119	-0.76
1037.277	-19.75
1037.435	-6.18
1037.593	-26.33
1037.751	-1.34
1037.909	85.07
1038.067	85.07
