Data from gum_old_FLMT105791__35__15-42-57-259.txt Node

Date: Mon Mar 20 15:42:57 GMT 2023
User: antho
Spectrometer: FLMT10579
Trigger mode: 0
Integration Time (sec): 1.000000E-1
Scans to average: 10
Electric dark correction enabled: true
Nonlinearity correction enabled: false
Boxcar width: 0
XAxis mode: Wavelengths
Number of Pixels in Spectrum: 3648
>>>>>Begin Spectral Data<<<<<
345.248	-167.96
345.464	-167.96
345.681	-167.96
345.898	-177.46
346.114	-151.49
346.331	-32.92
346.548	27.72
346.764	-4.44
346.981	-5.99
347.197	-36.99
347.414	36.83
347.631	-30.4
347.847	42.83
348.064	-9.48
348.28	49.23
348.497	-37.57
348.713	1.18
348.93	39.73
349.146	53.3
349.363	7.18
349.579	37.99
349.796	28.88
350.012	35.47
350.229	55.82
350.445	30.82
350.661	0.98
350.878	34.7
351.094	37.6
351.311	32.18
351.527	40.32
351.743	-2.31
351.96	69.57
352.176	61.63
352.392	61.82
352.609	54.85
352.825	1.18
353.041	20.94
353.257	24.82
353.474	31.79
353.69	60.47
353.906	74.03
354.122	17.45
354.339	86.81
354.555	43.61
354.771	53.68
354.987	102.51
355.203	88.95
355.42	14.93
355.636	48.84
355.852	21.72
356.068	40.32
356.284	-15.1
356.5	88.17
356.716	32.18
356.932	66.47
357.148	75.97
357.364	43.61
357.58	85.85
357.796	120.53
358.012	63.95
358.228	85.85
358.444	-40.86
358.66	96.7
358.876	47.1
359.092	16.48
359.308	62.4
359.524	71.7
359.74	50.39
359.956	57.95
360.172	54.46
360.388	114.71
360.604	46.13
360.819	133.7
361.035	85.46
361.251	86.81
361.467	15.71
361.683	68.6
361.898	71.32
362.114	85.26
362.33	75.38
362.546	95.53
362.762	62.4
362.977	87.01
363.193	46.52
363.409	110.84
363.624	73.45
363.84	68.8
364.056	53.1
364.271	84.1
364.487	97.66
364.703	68.22
364.918	22.1
365.134	85.85
365.35	77.13
365.565	178.65
365.781	95.34
365.996	91.27
366.212	193.76
366.427	127.5
366.643	99.02
366.858	102.7
367.074	84.88
367.289	165.48
367.505	205.19
367.72	42.83
367.936	77.13
368.151	130.8
368.367	93.21
368.582	101.15
368.798	66.86
369.013	156.56
369.228	90.3
369.444	87.78
369.659	141.26
369.874	123.63
370.09	140.87
370.305	34.31
370.52	94.56
370.736	156.95
370.951	115.68
371.166	162.18
371.381	151.72
371.597	131.96
371.812	71.51
372.027	55.43
372.242	96.89
372.458	176.33
372.673	89.72
372.888	77.32
373.103	120.33
373.318	169.93
373.533	124.6
373.749	109.68
373.964	23.85
374.179	130.41
374.394	65.5
374.609	127.31
374.824	86.23
375.039	141.26
375.254	57.56
375.469	137.58
375.684	112.2
375.899	151.14
376.114	93.01
376.329	131.18
376.544	152.11
376.759	144.94
376.974	91.08
377.189	117.43
377.404	106.96
377.619	149.98
377.834	83.71
378.049	95.15
378.264	82.36
378.478	149.98
378.693	130.8
378.908	145.13
379.123	125.76
379.338	185.04
379.553	144.36
379.767	131.76
379.982	152.11
380.197	145.71
380.412	97.08
380.626	141.06
380.841	234.64
381.056	186.59
381.271	210.04
381.485	113.75
381.7	112.39
381.915	134.09
382.129	121.88
382.344	140.87
382.559	116.85
382.773	158.5
382.988	61.63
383.202	130.02
383.417	80.81
383.632	217.98
383.846	100.76
384.061	133.12
384.275	73.83
384.49	144.16
384.704	145.91
384.919	145.71
385.133	153.08
385.348	168.58
385.562	121.3
385.777	183.88
385.991	158.31
386.206	162.57
386.42	155.79
386.634	192.02
386.849	173.03
387.063	179.43
387.277	131.76
387.492	160.05
387.706	153.85
387.92	115.3
388.135	214.3
388.349	181.36
388.563	185.63
388.778	185.43
388.992	185.43
389.206	198.61
389.42	252.47
389.635	181.36
389.849	216.82
390.063	227.86
390.277	204.42
390.491	285.21
390.706	255.76
390.92	239.49
391.134	221.66
391.348	271.46
391.562	204.42
391.776	237.36
391.99	206.55
392.205	260.02
392.419	191.63
392.633	212.75
392.847	259.44
393.061	176.52
393.275	208.1
393.489	153.85
393.703	146.1
393.917	170.13
394.131	107.93
394.345	160.83
394.559	214.11
394.773	178.65
394.986	223.21
395.2	231.35
395.414	264.87
395.628	227.48
395.842	257.89
396.056	268.55
396.27	218.56
396.484	269.71
396.697	262.35
396.911	254.99
397.125	192.79
397.339	195.12
397.553	188.34
397.766	266.81
397.98	236.19
398.194	280.95
398.408	288.31
398.621	310.98
398.835	334.42
399.049	333.84
399.262	352.25
399.476	385.96
399.69	376.47
399.903	449.51
400.117	391.39
400.331	377.63
400.544	353.41
400.758	477.41
400.971	384.22
401.185	436.33
401.398	345.47
401.612	457.84
401.826	442.92
402.039	410.76
402.253	384.22
402.466	434.59
402.68	430.33
402.893	456.68
403.106	458.03
403.32	436.14
403.533	469.08
403.747	432.46
403.96	447.96
404.174	471.02
404.387	392.35
404.6	433.43
404.814	474.89
405.027	430.33
405.24	450.09
405.454	423.35
405.667	483.8
405.88	412.89
406.094	477.02
406.307	488.84
406.52	450.48
406.733	419.29
406.947	393.9
407.16	496.4
407.373	497.56
407.586	457.45
407.799	444.47
408.012	470.24
408.226	469.08
408.439	490.78
408.652	438.27
408.865	503.57
409.078	569.63
409.291	518.1
409.504	481.87
409.717	564.01
409.93	550.06
410.143	483.42
410.357	429.94
410.57	398.17
410.783	420.45
410.996	456.68
411.209	474.89
411.421	533.4
411.634	509.77
411.847	496.01
412.06	530.69
412.273	571.38
412.486	546.58
412.699	625.04
412.912	534.95
413.125	580.48
413.338	559.56
413.55	552.78
413.763	554.52
413.976	543.09
414.189	525.26
414.402	558.4
414.615	622.33
414.827	513.64
415.04	603.54
415.253	601.21
415.466	594.05
415.678	627.95
415.891	563.63
416.104	562.27
416.316	527.98
416.529	553.36
416.742	614
416.954	639.19
417.167	618.07
417.38	589.78
417.592	576.03
417.805	549.1
418.017	539.6
418.23	575.25
418.442	572.54
418.655	573.9
418.868	577.58
419.08	607.41
419.293	620.39
419.505	627.18
419.718	647.13
419.93	662.24
420.142	616.13
420.355	627.95
420.567	629.5
420.78	625.63
420.992	605.48
421.205	714.94
421.417	611.09
421.629	631.44
421.842	623.3
422.054	623.88
422.266	669.03
422.479	701.57
422.691	630.47
422.903	635.31
423.115	605.28
423.328	594.82
423.54	617.1
423.752	624.46
423.964	624.85
424.177	651.2
424.389	608.38
424.601	755.44
424.813	682.01
425.025	703.32
425.238	678.91
425.45	645.97
425.662	638.03
425.874	944.73
426.086	635.51
426.298	694.6
426.51	669.99
426.722	659.73
426.934	644.61
427.146	710.1
427.358	646.16
427.57	713.97
427.782	630.47
427.994	627.56
428.206	635.31
428.418	610.32
428.63	680.46
428.842	728.31
429.054	662.63
429.266	689.18
429.478	609.93
429.69	643.84
429.902	582.81
430.114	679.88
430.325	612.64
430.537	536.11
430.749	548.9
430.961	479.93
431.173	524.1
431.384	561.5
431.596	490.78
431.808	598.7
432.02	702.35
432.231	766.29
432.443	780.82
432.655	765.51
432.867	715.14
433.078	765.9
433.29	810.27
433.502	786.44
433.713	821.7
433.925	826.15
434.136	826.93
434.348	714.56
434.56	677.74
434.771	820.73
434.983	659.53
435.194	723.08
435.406	809.69
435.617	849.79
435.829	891.45
436.04	812.98
436.252	860.84
436.463	899
436.675	950.15
436.886	891.83
437.098	908.5
437.309	953.83
437.521	890.28
437.732	870.33
437.943	868.39
438.155	845.72
438.366	822.09
438.578	906.95
438.789	856.38
439	837.39
439.211	798.84
439.423	839.91
439.634	862
439.845	893.38
440.057	899
440.268	950.35
440.479	902.49
440.69	895.52
440.902	886.22
441.113	857.15
441.324	864.71
441.535	941.05
441.746	969.91
441.957	940.08
442.168	965.46
442.38	946.67
442.591	986.96
442.802	925.93
443.013	1002.46
443.224	1007.89
443.435	989.29
443.646	973.4
443.857	994.13
444.068	967.59
444.279	962.16
444.49	1077.44
444.701	1010.21
444.912	1136.34
445.123	1065.63
445.334	1065.43
445.545	1033.08
445.756	983.28
445.967	963.71
446.178	1010.6
446.388	989.87
446.599	1027.26
446.81	1029.4
447.021	976.31
447.232	1019.71
447.443	1087.13
447.653	1055.74
447.864	1087.13
448.075	1086.16
448.286	1092.94
448.496	1056.71
448.707	1111.54
448.918	1013.9
449.129	1174.32
449.339	1060.01
449.55	1105.54
449.761	1080.35
449.971	1100.5
450.182	1105.93
450.393	1102.05
450.603	1101.28
450.814	1201.06
451.024	1165.41
451.235	1233.99
451.446	1195.44
451.656	1204.54
451.867	1160.95
452.077	1127.04
452.288	1202.22
452.498	1212.29
452.709	1157.07
452.919	1156.49
453.13	1120.65
453.34	1148.16
453.55	1030.56
453.761	1131.5
453.971	1126.27
454.182	1152.04
454.392	1121.04
454.602	1215.59
454.813	1129.37
455.023	1170.06
455.233	1108.44
455.444	1162.89
455.654	1075.31
455.864	1105.93
456.075	1162.89
456.285	1128.59
456.495	1141.96
456.705	1152.04
456.916	1251.43
457.126	1247.75
457.336	1167.15
457.546	1140.99
457.756	1168.7
457.967	1233.6
458.177	1183.62
458.387	1204.93
458.597	1130.72
458.807	1181.1
459.017	1155.33
459.227	1155.14
459.437	1169.09
459.647	1198.15
459.857	1253.56
460.068	1177.61
460.278	1254.72
460.488	1226.44
460.698	1273.13
460.908	1214.81
461.117	1216.55
461.327	1228.57
461.537	1239.42
461.747	1294.44
461.957	1272.35
462.167	1371.55
462.377	1332.8
462.587	1282.62
462.797	1346.75
463.007	1308.2
463.216	1360.51
463.426	1402.36
463.636	1333.58
463.846	1224.69
464.056	1273.52
464.265	1315.56
464.475	1236.7
464.685	1310.33
464.895	1317.69
465.104	1276.62
465.314	1348.88
465.524	1290.18
465.733	1279.14
465.943	1385.89
466.153	1405.07
466.362	1364.97
466.572	1347.53
466.782	1318.08
466.991	1311.49
467.201	1367.48
467.41	1225.08
467.62	1323.31
467.829	1356.83
468.039	1362.83
468.249	1336.1
468.458	1362.06
468.668	1396.55
468.877	1399.65
469.086	1411.46
469.296	1448.28
469.505	1388.41
469.715	1499.43
469.924	1443.05
470.134	1449.83
470.343	1470.56
470.552	1464.36
470.762	1391.9
470.971	1387.63
471.18	1411.46
471.39	1461.26
471.599	1385.89
471.808	1467.85
472.018	1476.56
472.227	1516.28
472.436	1588.74
472.645	1519.77
472.855	1530.43
473.064	1666.24
473.273	1609.09
473.482	1560.26
473.691	1602.69
473.901	1596.88
474.11	1551.74
474.319	1659.85
474.528	1598.82
474.737	1697.63
474.946	1667.02
475.155	1697.44
475.364	1741.42
475.573	1725.34
475.783	1717.39
475.992	1703.64
476.201	1717.39
476.41	1683.29
476.619	1631.76
476.828	1718.94
477.037	1639.31
477.245	1675.93
477.454	1758.47
477.663	1747.03
477.872	1799.15
478.081	1869.48
478.29	1802.45
478.499	1924.7
478.708	1876.46
478.917	1919.66
479.125	1823.37
479.334	1838.68
479.543	1840.61
479.752	1916.95
479.961	1886.92
480.169	1970.43
480.378	1942.14
480.587	2094.04
480.796	2002.2
481.004	1981.86
481.213	2027
481.422	2009.37
481.63	2021.96
481.839	2089.97
482.048	2119.42
482.256	2082.22
482.465	2110.89
482.674	2106.82
482.882	2165.92
483.091	2199.63
483.299	2089.97
483.508	2182.77
483.716	2186.65
483.925	2203.7
484.134	2117.87
484.342	2122.71
484.551	2189.75
484.759	2177.54
484.967	2242.25
485.176	2254.07
485.384	2279.06
485.593	2241.28
485.801	2153.52
486.01	2136.66
486.218	2015.37
486.426	1907.26
486.635	1892.35
486.843	1861.54
487.051	1909.01
487.26	1936.33
487.468	2045.02
487.676	2079.89
487.885	2114.19
488.093	2174.25
488.301	2238.18
488.509	2235.08
488.717	2308.32
488.926	2296.11
489.134	2239.54
489.342	2239.15
489.55	2256.01
489.758	2257.75
489.967	2301.15
490.175	2393.57
490.383	2393.57
490.591	2493.16
490.799	2412.75
491.007	2448.98
491.215	2428.44
491.423	2413.53
491.631	2424.18
491.839	2383.88
492.047	2411.78
492.255	2332.93
492.463	2249.62
492.671	2280.42
492.879	2409.84
493.087	2379.04
493.295	2383.3
493.503	2440.07
493.711	2551.67
493.919	2543.14
494.127	2491.99
494.334	2509.24
494.542	2450.72
494.75	2542.17
494.958	2535.78
495.166	2624.52
495.374	2639.63
495.581	2644.08
495.789	2599.91
495.997	2691.36
496.205	2524.74
496.412	2548.76
496.62	2569.88
496.828	2613.67
497.035	2605.92
497.243	2620.83
497.451	2636.53
497.658	2633.23
497.866	2628.78
498.074	2715
498.281	2579.95
498.489	2737.66
498.696	2603.79
498.904	2508.66
499.112	2556.7
499.319	2628
499.527	2634.98
499.734	2669.47
499.942	2598.55
500.149	2608.24
500.357	2634.2
500.564	2585.77
500.771	2613.09
500.979	2570.46
501.186	2520.28
501.394	2563.68
501.601	2517.96
501.808	2557.48
502.016	2533.65
502.223	2507.11
502.43	2539.27
502.638	2555.15
502.845	2577.24
503.052	2698.72
503.26	2604.95
503.467	2693.68
503.674	2669.27
503.881	2679.93
504.089	2707.25
504.296	2685.93
504.503	2582.47
504.71	2582.86
504.917	2612.7
505.125	2670.82
505.332	2662.49
505.539	2677.99
505.746	2815.36
505.953	2763.63
506.16	2791.53
506.367	2842.87
506.574	2872.9
506.781	2873.48
506.988	2812.26
507.195	2801.21
507.402	2788.23
507.609	2818.65
507.816	2749.68
508.023	2733.01
508.23	2729.33
508.437	2693.88
508.644	2739.8
508.851	2778.16
509.058	2799.66
509.265	2758.01
509.472	2823.11
509.679	2892.86
509.885	2879.49
510.092	2860.89
510.299	2818.46
510.506	2806.44
510.713	2844.81
510.92	2836.28
511.126	2860.69
511.333	2909.71
511.54	2904.48
511.746	2964.54
511.953	2934.71
512.16	2961.64
512.367	2928.12
512.573	2884.14
512.78	2922.89
512.987	2900.61
513.193	2848.88
513.4	2792.49
513.606	2839.77
513.813	2884.72
514.02	2879.68
514.226	2910.49
514.433	2938
514.639	2808.58
514.846	2852.17
515.052	2808.58
515.259	2857.01
515.465	2873.87
515.672	2859.92
515.878	2939.94
516.085	2921.53
516.291	2938.58
516.497	2899.64
516.704	2863.6
516.91	2756.07
517.117	2696.59
517.323	2573.17
517.529	2558.45
517.736	2577.82
517.942	2602.43
518.148	2654.93
518.354	2727.59
518.561	2733.98
518.767	2678.38
518.973	2703.95
519.179	2758.2
519.386	2756.65
519.592	2741.35
519.798	2785.91
520.004	2951.76
520.21	2881.42
520.417	2915.72
520.623	2987.02
520.829	2996.7
521.035	2988.95
521.241	2984.11
521.447	3020.73
521.653	3173.4
521.859	3018.21
522.065	3072.27
522.271	3189.48
522.477	3113.92
522.683	3152.86
522.889	3092.22
523.095	3089.51
523.301	3086.8
523.507	3031.97
523.713	3097.65
523.919	3045.53
524.125	3108.88
524.331	3134.46
524.537	3235.59
524.742	3277.83
524.948	3249.35
525.154	3282.29
525.36	3367.34
525.566	3244.31
525.772	3330.92
525.977	3198.59
526.183	3283.84
526.389	3266.79
526.595	3187.35
526.8	3182.51
527.006	3038.55
527.212	2917.27
527.417	2938.97
527.623	2965.32
527.829	3040.69
528.034	3080.98
528.24	3130.78
528.446	3165.07
528.651	3282.48
528.857	3272.6
529.062	3304.57
529.268	3333.44
529.473	3374.32
529.679	3370.06
529.884	3486.5
530.09	3415.2
530.295	3375.48
530.501	3368.12
530.706	3395.05
530.912	3411.9
531.117	3368.7
531.323	3428.95
531.528	3476.42
531.733	3502.77
531.939	3456.47
532.144	3488.82
532.35	3465.77
532.555	3504.9
532.76	3390.4
532.966	3407.06
533.171	3330.72
533.376	3273.38
533.581	3244.31
533.787	3356.11
533.992	3410.35
534.197	3361.72
534.402	3423.34
534.607	3395.24
534.813	3474.1
535.018	3450.65
535.223	3466.74
535.428	3465.96
535.633	3471.19
535.838	3532.42
536.043	3554.89
536.249	3643.43
536.454	3572.13
536.659	3548.88
536.864	3523.89
537.069	3502
537.274	3527.57
537.479	3454.53
537.684	3496.77
537.889	3430.7
538.094	3563.22
538.299	3479.72
538.504	3472.74
538.708	3502.77
538.913	3614.18
539.118	3539.97
539.323	3527.18
539.528	3437.09
539.733	3451.43
539.938	3473.32
540.142	3477.59
540.347	3430.12
540.552	3401.44
540.757	3437.87
540.962	3430.12
541.166	3343.71
541.371	3312.71
541.576	3364.82
541.781	3326.46
541.985	3477.59
542.19	3378.19
542.395	3546.17
542.599	3576.59
542.804	3500.45
543.008	3605.65
543.213	3455.11
543.418	3442.32
543.622	3542.1
543.827	3436.9
544.031	3565.16
544.236	3580.08
544.44	3571.36
544.645	3619.99
544.849	3567.48
545.054	3621.54
545.258	3737.01
545.463	3655.83
545.667	3526.41
545.872	3652.73
546.076	3626.19
546.281	3619.6
546.485	3604.49
546.689	3643.24
546.894	3658.55
547.098	3593.64
547.302	3583.18
547.507	3568.84
547.711	3602.94
547.915	3629.48
548.119	3565.93
548.324	3526.02
548.528	3612.05
548.732	3513.62
548.936	3622.9
549.141	3621.54
549.345	3555.67
549.549	3626.19
549.753	3645.76
549.957	3714.34
550.161	3649.83
550.366	3601.39
550.57	3604.88
550.774	3599.06
550.978	3653.31
551.182	3639.17
551.386	3594.8
551.59	3568.65
551.794	3576.01
551.998	3634.33
552.202	3609.33
552.406	3591.7
552.61	3633.55
552.814	3627.74
553.018	3665.91
553.222	3582.21
553.426	3595
553.63	3628.51
553.833	3599.06
554.037	3535.52
554.241	3578.14
554.445	3618.83
554.649	3594.22
554.853	3566.9
555.056	3663
555.26	3637.23
555.464	3659.32
555.668	3626.96
555.871	3661.65
556.075	3671.53
556.279	3581.82
556.483	3538.42
556.686	3548.11
556.89	3580.46
557.094	3595.77
557.297	3451.04
557.501	3561.87
557.704	3468.48
557.908	3520.4
558.112	3477.78
558.315	3558.77
558.519	3543.65
558.722	3453.17
558.926	3501.61
559.129	3349.52
559.333	3396.6
559.536	3355.91
559.74	3373.35
559.943	3339.06
560.147	3323.75
560.35	3360.17
560.553	3377.42
560.757	3356.88
560.96	3396.99
561.164	3379.74
561.367	3543.27
561.57	3453.56
561.774	3466.15
561.977	3414.04
562.18	3354.56
562.384	3446.2
562.587	3355.91
562.79	3413.65
562.993	3342.74
563.197	3331.31
563.4	3448.72
563.603	3463.25
563.806	3517.11
564.009	3396.99
564.212	3420.43
564.416	3307.67
564.619	3361.34
564.822	3292.36
565.025	3443.1
565.228	3371.22
565.431	3365.21
565.634	3224.94
565.837	3282.29
566.04	3230.36
566.243	3255.55
566.446	3168.95
566.649	3312.71
566.852	3199.95
567.055	3246.25
567.258	3244.12
567.461	3298.56
567.664	3305.34
567.867	3236.76
568.07	3281.13
568.273	3277.06
568.475	3287.52
568.678	3240.24
568.881	3225.91
569.084	3209.05
569.287	3079.82
569.489	3126.71
569.692	3194.13
569.895	3204.4
570.098	3078.85
570.3	3101.52
570.503	3012.2
570.706	3061.03
570.909	3018.99
571.111	2958.92
571.314	2947.3
571.516	2999.22
571.719	3028.48
571.922	2977.91
572.124	3003.49
572.327	2979.65
572.529	2923.86
572.732	2979.27
572.935	2997.09
573.137	3110.05
573.34	2997.48
573.542	3082.92
573.745	3043.59
573.947	3096.29
574.15	2989.15
574.352	3010.85
574.554	3127.87
574.757	3014.53
574.959	2954.86
575.162	2956.79
575.364	2938.58
575.566	3049.21
575.769	2947.3
575.971	2957.18
576.173	2807.41
576.376	2923.08
576.578	2952.14
576.78	2989.34
576.982	2864.38
577.185	2920.95
577.387	2848.68
577.589	2920.95
577.791	2951.37
577.993	2938.77
578.196	2921.34
578.398	2900.22
578.6	2896.34
578.802	2831.05
579.004	2790.75
579.206	2840.35
579.408	2878.71
579.61	2801.21
579.812	2896.34
580.014	2829.89
580.216	2838.03
580.418	2871.93
580.62	2835.12
580.822	2841.13
581.024	2918.43
581.226	2936.45
581.428	2848.49
581.63	2989.92
581.832	2857.98
582.034	2935.87
582.236	2884.14
582.438	2887.24
582.64	2961.44
582.841	2931.61
583.043	3030.61
583.245	2891.69
583.447	2915.91
583.649	2885.69
583.85	2925.02
584.052	2920.37
584.254	2864.76
584.456	2942.84
584.657	2850.62
584.859	2894.79
585.061	2912.42
585.262	2854.49
585.464	2816.13
585.666	2910.49
585.867	2825.04
586.069	2891.11
586.27	2832.99
586.472	2827.95
586.674	2789.78
586.875	2819.43
587.077	2775.06
587.278	2835.7
587.48	2826.59
587.681	2901.77
587.883	2824.85
588.084	2792.49
588.285	2801.79
588.487	2770.6
588.688	2838.61
588.89	2653
589.091	2584.8
589.292	2610.18
589.494	2535
589.695	2475.52
589.896	2431.35
590.098	2401.51
590.299	2508.46
590.5	2481.14
590.702	2507.3
590.903	2550.12
591.104	2619.87
591.305	2604.95
591.507	2673.34
591.708	2653.97
591.909	2674.12
592.11	2681.67
592.311	2712.67
592.512	2616.18
592.714	2562.71
592.915	2601.46
593.116	2569.3
593.317	2659.2
593.518	2655.52
593.719	2643.12
593.92	2686.13
594.121	2666.56
594.322	2644.28
594.523	2673.34
594.724	2615.41
594.925	2689.23
595.126	2615.8
595.327	2650.09
595.528	2665.4
595.729	2630.13
595.929	2621.61
596.13	2614.25
596.331	2643.5
596.532	2663.65
596.733	2725.65
596.934	2740.38
597.135	2689.42
597.335	2694.07
597.536	2668.5
597.737	2643.7
597.938	2627.23
598.138	2671.02
598.339	2660.94
598.54	2701.24
598.74	2629.36
598.941	2601.07
599.142	2674.7
599.342	2616.96
599.543	2596.62
599.744	2621.42
599.944	2594.68
600.145	2653.77
600.345	2615.6
600.546	2701.05
600.746	2688.84
600.947	2725.65
601.147	2607.47
601.348	2653.38
601.548	2589.64
601.749	2619.87
601.949	2529.58
602.15	2605.72
602.35	2577.63
602.551	2614.83
602.751	2546.63
602.951	2580.15
603.152	2516.79
603.352	2603.98
603.552	2565.23
603.753	2664.62
603.953	2668.3
604.153	2609.02
604.354	2657.45
604.554	2581.89
604.754	2613.47
604.954	2587.32
605.155	2631.88
605.355	2625.87
605.555	2666.75
605.755	2671.4
605.955	2648.73
606.155	2670.43
606.356	2622.58
606.556	2643.89
606.756	2608.05
606.956	2522.8
607.156	2688.45
607.356	2602.82
607.556	2608.82
607.756	2592.55
607.956	2602.43
608.156	2624.9
608.356	2543.34
608.556	2616.57
608.756	2538.88
608.956	2513.11
609.156	2582.28
609.356	2555.35
609.556	2510.4
609.755	2570.46
609.955	2474.75
610.155	2522.02
610.355	2541.01
610.555	2476.11
610.755	2494.9
610.954	2444.72
611.154	2511.17
611.354	2512.92
611.554	2481.72
611.753	2502.46
611.953	2403.84
612.153	2508.27
612.352	2506.91
612.552	2410.23
612.752	2420.11
612.951	2485.79
613.151	2475.91
613.351	2394.93
613.55	2432.71
613.75	2460.99
613.949	2461.96
614.149	2412.17
614.348	2409.26
614.548	2399.96
614.747	2363.93
614.947	2358.69
615.146	2332.54
615.346	2433.48
615.545	2443.17
615.745	2418.37
615.944	2398.61
616.144	2388.14
616.343	2397.44
616.542	2365.67
616.742	2320.33
616.941	2324.6
617.14	2297.86
617.34	2332.35
617.539	2330.02
617.738	2321.69
617.938	2403.06
618.137	2337
618.336	2329.05
618.535	2377.1
618.734	2347.07
618.934	2354.24
619.133	2384.66
619.332	2406.74
619.531	2317.81
619.73	2337.38
619.929	2378.26
620.128	2386.98
620.328	2401.51
620.527	2330.6
620.726	2356.56
620.925	2306.19
621.124	2351.91
621.323	2344.16
621.522	2264.34
621.721	2306.96
621.92	2285.26
622.119	2348.23
622.318	2280.42
622.517	2286.43
622.715	2292.24
622.914	2214.74
623.113	2280.23
623.312	2185.29
623.511	2315.68
623.71	2226.37
623.909	2237.6
624.107	2284.1
624.306	2180.06
624.505	2191.68
624.704	2211.06
624.902	2193.43
625.101	2292.05
625.3	2208.93
625.499	2206.6
625.697	2153.9
625.896	2161.65
626.095	2179.09
626.293	2137.24
626.492	2176.57
626.69	2190.52
626.889	2168.63
627.088	2223.46
627.286	2152.16
627.485	2146.54
627.683	2158.55
627.882	2173.86
628.08	2060.52
628.279	2104.69
628.477	2186.65
628.676	2060.32
628.874	2137.82
629.073	2119.22
629.271	2067.69
629.469	2110.5
629.668	2116.12
629.866	2086.48
630.065	2061.49
630.263	2122.52
630.461	2082.22
630.66	2089.97
630.858	2118.45
631.056	2125.42
631.254	2155.07
631.453	2027.97
631.651	2112.05
631.849	2080.28
632.047	2075.44
632.245	2057.81
632.444	2055.48
632.642	2122.9
632.84	2131.04
633.038	2092.87
633.236	2060.32
633.434	2038.43
633.632	2040.76
633.83	2058.39
634.028	2130.65
634.227	2038.62
634.425	2185.87
634.623	2044.05
634.821	2111.28
635.019	2080.47
635.216	2128.91
635.414	2145.19
635.612	2113.99
635.81	2071.95
636.008	2159.52
636.206	2113.99
636.404	2097.14
636.602	2090.35
636.8	2063.23
636.997	2119.61
637.195	2087.64
637.393	2124.65
637.591	2176.19
637.789	2137.24
637.986	2100.62
638.184	2111.28
638.382	2138.79
638.58	2132.79
638.777	2149.25
638.975	2071.95
639.173	2140.54
639.37	2135.3
639.568	2157.39
639.765	2127.36
639.963	2079.31
640.161	2094.62
640.358	2120.19
640.556	2037.27
640.753	2019.06
640.951	1966.16
641.148	2036.88
641.346	2023.71
641.543	1999.68
641.741	2007.24
641.938	1986.51
642.136	2012.86
642.333	1976.43
642.531	2052.57
642.728	2065.56
642.925	2055.09
643.123	2022.54
643.32	2059.55
643.517	1995.03
643.715	2032.62
643.912	1991.74
644.109	2037.27
644.306	2018.09
644.504	1955.89
644.701	1985.15
644.898	2030.1
645.095	1984.18
645.293	1980.89
645.49	2014.02
645.687	1985.73
645.884	1984.38
646.081	1880.91
646.278	1951.24
646.475	1886.92
646.672	1905.33
646.87	1938.26
647.067	1911.72
647.264	1922.18
647.461	1882.08
647.658	1861.93
647.855	1927.61
648.052	1883.82
648.249	1826.47
648.446	1851.27
648.642	1879.75
648.839	1843.71
649.036	1853.79
649.233	1775.71
649.43	1843.52
649.627	1786.56
649.824	1850.69
650.021	1769.12
650.217	1756.72
650.414	1788.69
650.611	1821.82
650.808	1880.53
651.004	1833.45
651.201	1878.98
651.398	1915.98
651.595	1869.68
651.791	1828.8
651.988	1873.16
652.185	1815.23
652.381	1905.71
652.578	1781.33
652.775	1821.43
652.971	1846.81
653.168	1852.24
653.364	1868.9
653.561	1763.12
653.757	1836.74
653.954	1826.28
654.15	1781.72
654.347	1886.92
654.543	1802.45
654.74	1771.83
654.936	1753.23
655.133	1767.77
655.329	1769.7
655.525	1770.09
655.722	1792.57
655.918	1709.25
656.115	1705.38
656.311	1596.88
656.507	1578.28
656.704	1513.96
656.9	1550.96
657.096	1549.41
657.292	1573.44
657.489	1636.21
657.685	1616.64
657.881	1623.04
658.077	1655.2
658.273	1697.05
658.47	1778.03
658.666	1717
658.862	1759.63
659.058	1763.12
659.254	1784.23
659.45	1738.32
659.646	1757.69
659.842	1769.7
660.038	1779.58
660.234	1748.58
660.43	1796.25
660.626	1805.93
660.822	1808.26
661.018	1769.12
661.214	1789.47
661.41	1756.53
661.606	1828.6
661.802	1867.93
661.998	1784.04
662.194	1765.25
662.39	1801.28
662.586	1769.7
662.781	1837.71
662.977	1822.79
663.173	1816.2
663.369	1796.05
663.564	1774.35
663.76	1817.17
663.956	1757.11
664.152	1790.63
664.347	1714.68
664.543	1777.45
664.739	1735.6
664.934	1685.81
665.13	1677.67
665.326	1772.22
665.521	1781.72
665.717	1723.59
665.912	1699.18
666.108	1607.73
666.304	1693.56
666.499	1729.4
666.695	1618.39
666.89	1728.05
667.086	1726.11
667.281	1723.2
667.477	1788.5
667.672	1698.79
667.867	1721.07
668.063	1747.23
668.258	1662.37
668.454	1693.56
668.649	1781.72
668.844	1721.65
669.04	1735.41
669.235	1703.05
669.43	1682.9
669.626	1677.48
669.821	1691.04
670.016	1687.17
670.211	1688.72
670.407	1649
670.602	1689.49
670.797	1682.32
670.992	1727.85
671.187	1648.61
671.382	1752.27
671.578	1606.96
671.773	1693.56
671.968	1597.66
672.163	1642.61
672.358	1652.29
672.553	1628.85
672.748	1692.79
672.943	1722.62
673.138	1686.59
673.333	1662.95
673.528	1596.69
673.723	1681.16
673.918	1636.02
674.113	1603.27
674.308	1720.3
674.503	1685.81
674.698	1658.88
674.892	1624.2
675.087	1676.32
675.282	1655
675.477	1600.76
675.672	1660.43
675.867	1556.78
676.061	1606.76
676.256	1607.15
676.451	1616.84
676.646	1651.91
676.84	1588.74
677.035	1593.01
677.23	1555.81
677.424	1659.85
677.619	1656.75
677.814	1673.8
678.008	1637.37
678.203	1580.22
678.397	1559.1
678.592	1608.7
678.787	1649.97
678.981	1622.07
679.176	1630.79
679.37	1611.61
679.565	1573.05
679.759	1599.59
679.954	1588.55
680.148	1651.91
680.342	1672.83
680.537	1642.22
680.731	1609.86
680.926	1639.12
681.12	1624.01
681.314	1615.09
681.509	1590.49
681.703	1574.41
681.897	1605.41
682.092	1595.33
682.286	1563.36
682.48	1674.77
682.674	1576.92
682.869	1569.17
683.063	1615.29
683.257	1602.31
683.451	1549.8
683.645	1583.9
683.839	1573.24
684.034	1561.23
684.228	1607.73
684.422	1519.38
684.616	1491.68
684.81	1584.87
685.004	1522.48
685.198	1517.64
685.392	1593.2
685.586	1501.94
685.78	1553.87
685.974	1549.41
686.168	1553.68
686.362	1542.63
686.556	1444.98
686.75	1439.36
686.944	1382.6
687.138	1380.47
687.331	1272.55
687.525	1273.71
687.719	1201.44
687.913	1294.05
688.107	1237.09
688.301	1238.84
688.494	1302.77
688.688	1264.99
688.882	1202.41
689.076	1202.99
689.269	1251.04
689.463	1364.19
689.657	1291.92
689.85	1264.6
690.044	1313.62
690.238	1290.18
690.431	1338.81
690.625	1307.62
690.818	1348.11
691.012	1338.62
691.205	1354.89
691.399	1295.41
691.593	1347.72
691.786	1433.16
691.98	1433.16
692.173	1444.98
692.366	1410.5
692.56	1441.11
692.753	1466.3
692.947	1380.85
693.14	1450.21
693.333	1458.16
693.527	1392.86
693.72	1443.05
693.914	1427.55
694.107	1385.89
694.3	1424.06
694.493	1373.68
694.687	1436.07
694.88	1377.95
695.073	1433.75
695.266	1448.47
695.46	1424.25
695.653	1470.75
695.846	1434.52
696.039	1405.65
696.232	1443.82
696.425	1481.21
696.618	1494.97
696.812	1495.36
697.005	1590.87
697.198	1613.54
697.391	1549.61
697.584	1569.56
697.777	1619.94
697.97	1598.04
698.163	1595.52
698.356	1606.37
698.549	1635.82
698.742	1636.99
698.935	1568.59
699.127	1613.35
699.32	1572.27
699.513	1564.14
699.706	1611.22
699.899	1632.14
700.092	1609.86
700.285	1624.2
700.477	1581.38
700.67	1620.13
700.863	1659.27
701.056	1743.16
701.248	1671.09
701.441	1695.5
701.634	1669.54
701.826	1739.29
702.019	1654.62
702.212	1747.81
702.404	1699.37
702.597	1678.06
702.79	1694.92
702.982	1720.69
703.175	1802.25
703.367	1823.76
703.56	1813.3
703.752	1901.06
703.945	1854.95
704.137	1868.51
704.33	1859.02
704.522	1881.69
704.715	1921.02
704.907	1951.05
705.1	1952.21
705.292	1982.83
705.484	1981.28
705.677	2004.14
705.869	1993.87
706.061	2072.53
706.254	2078.15
706.446	2063.62
706.638	2050.83
706.831	2124.65
707.023	2066.91
707.215	2221.33
707.407	2159.52
707.599	2172.31
707.792	2234.5
707.984	2221.33
708.176	2277.32
708.368	2244.38
708.56	2231.21
708.752	2252.72
708.944	2244.38
709.136	2275.77
709.329	2295.34
709.521	2423.79
709.713	2413.53
709.905	2396.48
710.097	2458.67
710.289	2352.49
710.481	2437.16
710.672	2476.69
710.864	2499.94
711.056	2563.87
711.248	2467.19
711.44	2556.9
711.632	2504.2
711.824	2549.54
712.016	2602.24
712.207	2631.1
712.399	2611.15
712.591	2702.79
712.783	2695.43
712.975	2662.88
713.166	2651.06
713.358	2684.77
713.55	2692.91
713.741	2722.36
713.933	2735.73
714.125	2781.65
714.316	2713.06
714.508	2783.39
714.7	2783.97
714.891	2776.8
715.083	2872.9
715.274	2837.83
715.466	2865.54
715.657	2942.07
715.849	2809.16
716.04	2848.49
716.232	2798.31
716.423	2871.74
716.615	2794.82
716.806	2808.96
716.998	2732.82
717.189	2707.83
717.381	2636.92
717.572	2569.88
717.763	2608.24
717.955	2527.84
718.146	2526.09
718.337	2485.21
718.528	2462.74
718.72	2363.93
718.911	2427.09
719.102	2388.92
719.293	2449.95
719.485	2418.18
719.676	2409.65
719.867	2372.26
720.058	2399.19
720.249	2429.03
720.44	2392.99
720.632	2524.54
720.823	2519.12
721.014	2641.95
721.205	2690
721.396	2791.53
721.587	2910.68
721.778	2938.77
721.969	3013.37
722.16	3049.21
722.351	3075.75
722.542	3195.3
722.733	3205.95
722.924	3158.87
723.115	3240.44
723.305	3179.02
723.496	3220.29
723.687	3027.7
723.878	3070.13
724.069	3100.36
724.26	3101.33
724.45	3007.94
724.641	3031.77
724.832	3024.41
725.023	3022.09
725.213	3070.13
725.404	3030.8
725.595	3045.14
725.785	3024.02
725.976	3114.89
726.167	3139.88
726.357	3123.22
726.548	3254.19
726.739	3122.45
726.929	3194.13
727.12	3276.28
727.31	3345.26
727.501	3230.17
727.691	3291.78
727.882	3254
728.072	3307.09
728.263	3333.63
728.453	3388.46
728.644	3390.59
728.834	3345.45
729.024	3364.63
729.215	3368.51
729.405	3417.52
729.596	3464.22
729.786	3492.12
729.976	3547.33
730.167	3540.36
730.357	3552.18
730.547	3527.18
730.737	3554.12
730.928	3562.83
731.118	3668.62
731.308	3595.38
731.498	3617.86
731.688	3728.29
731.879	3694.19
732.069	3778.47
732.259	3801.72
732.449	3820.52
732.639	3915.84
732.829	3928.43
733.019	4016.01
733.209	4093.12
733.399	4098.35
733.589	4147.56
733.779	4177.79
733.969	4139.81
734.159	4283.19
734.349	4277.95
734.539	4355.65
734.729	4350.61
734.919	4409.7
735.109	4497.28
735.299	4360.69
735.488	4428.69
735.678	4431.98
735.868	4425.01
736.058	4401.37
736.248	4460.46
736.437	4344.6
736.627	4383.55
736.817	4561.6
737.007	4422.68
737.196	4527.11
737.386	4490.69
737.576	4451.94
737.765	4551.14
737.955	4491.08
738.144	4644.33
738.334	4600.54
738.524	4551.53
738.713	4655.18
738.903	4584.27
739.092	4619.14
739.282	4655.37
739.471	4635.42
739.661	4620.31
739.85	4718.15
740.04	4689.67
740.229	4759.22
740.419	4748.76
740.608	4719.7
740.797	4680.37
740.987	4827.23
741.176	4751.47
741.365	4696.06
741.555	4681.92
741.744	4814.63
741.933	4717.18
742.123	4805.14
742.312	4815.8
742.501	4821.61
742.69	4885.35
742.88	4757.87
743.069	4936.5
743.258	4853
743.447	4929.72
743.636	4904.73
743.825	4864.43
744.014	4914.41
744.204	4966.34
744.393	4876.25
744.582	4964.4
744.771	5038.22
744.96	4982.42
745.149	4993.66
745.338	4956.65
745.527	5040.16
745.716	4959.75
745.905	4951.61
746.094	5027.76
746.283	5048.1
746.471	4977.19
746.66	5068.44
746.849	5026.79
747.038	5083.94
747.227	5034.73
747.416	5057.21
747.604	4977.77
747.793	5005.09
747.982	5022.33
748.171	5092.47
748.359	5032.99
748.548	5044.81
748.737	5049.26
748.926	4995.59
749.114	4903.56
749.303	5032.79
749.491	4965.76
749.68	4876.44
749.869	5015.74
750.057	4971.76
750.246	4967.11
750.434	4939.99
750.623	4953.55
750.811	4902.79
751	5003.54
751.188	4965.76
751.377	4977.19
751.565	4946.38
751.754	4884.58
751.942	4891.75
752.131	4996.18
752.319	4897.36
752.507	4840.02
752.696	4935.34
752.884	4923.52
753.072	4918.87
753.261	4921.2
753.449	4946.77
753.637	4862.88
753.825	5010.13
754.014	4906.28
754.202	4899.11
754.39	4982.23
754.578	4942.51
754.766	4843.5
754.955	4874.5
755.143	4952.78
755.331	4939.8
755.519	4922.55
755.707	4858.42
755.895	4837.88
756.083	4887.1
756.271	4828.97
756.459	4831.88
756.647	4883.22
756.835	4793.13
757.023	4839.05
757.211	4787.9
757.399	4746.82
757.587	4774.14
757.775	4734.42
757.963	4800.3
758.151	4783.64
758.339	4742.95
758.526	4720.28
758.714	4787.9
758.902	4620.89
759.09	4522.27
759.278	4351.19
759.465	4066.38
759.653	3701.94
759.841	3404.15
760.028	2967.25
760.216	2610.95
760.404	2472.42
760.591	2123.49
760.779	1848.17
760.967	1655
761.154	1482.96
761.342	1531.59
761.529	1524.42
761.717	1606.18
761.905	1620.32
762.092	1774.93
762.28	1708.09
762.467	1779.2
762.655	1712.74
762.842	1769.51
763.029	1789.66
763.217	1852.43
763.404	1800.9
763.592	1859.8
763.779	1867.16
763.966	1886.15
764.154	1932.06
764.341	2019.64
764.528	2043.66
764.716	2116.12
764.903	2169.21
765.09	2261.05
765.277	2287.98
765.465	2495.67
765.652	2520.47
765.839	2651.83
766.026	2762.66
766.213	2870.19
766.4	2947.11
766.588	3161
766.775	3166.62
766.962	3309.61
767.149	3427.6
767.336	3570.78
767.523	3515.95
767.71	3644.98
767.897	3792.62
768.084	3850.74
768.271	3885.42
768.458	3904.02
768.645	4016.4
768.832	4023.95
769.019	4030.15
769.206	4050.3
769.392	4124.89
769.579	4220.99
769.766	4159.38
769.953	4159.19
770.14	4239.01
770.327	4212.08
770.513	4259.16
770.7	4305.27
770.887	4247.15
771.073	4248.12
771.26	4276.6
771.447	4181.66
771.634	4192.32
771.82	4326.2
772.007	4212.47
772.193	4236.3
772.38	4272.92
772.567	4245.79
772.753	4222.54
772.94	4272.53
773.126	4272.53
773.313	4291.9
773.499	4240.76
773.686	4289.97
773.872	4216.34
774.059	4215.57
774.245	4195.42
774.432	4168.49
774.618	4132.45
774.804	4161.9
774.991	4113.27
775.177	4191.16
775.363	4136.33
775.55	4194.84
775.736	4092.54
775.922	4115.01
776.109	4108.23
776.295	4141.94
776.481	4182.24
776.667	4173.14
776.853	4085.37
777.04	4084.01
777.226	4113.85
777.412	4163.06
777.598	4061.54
777.784	4085.18
777.97	4058.05
778.156	4081.69
778.342	4059.6
778.528	4055.92
778.715	3939.28
778.901	3974.16
779.087	4040.42
779.272	3974.16
779.458	3954.59
779.644	3974.55
779.83	3952.46
780.016	4063.86
780.202	3959.82
780.388	3949.36
780.574	3872.64
780.76	3920.69
780.946	3940.25
781.131	3915.26
781.317	3877.87
781.503	3891.24
781.689	3866.63
781.874	4029.38
782.06	3849.19
782.246	3910.03
782.432	3930.95
782.617	3883.49
782.803	3923.79
782.989	3809.86
783.174	3848.42
783.36	3747.28
783.545	3821.49
783.731	3800.76
783.916	3722.87
784.102	3809.67
784.288	3768.21
784.473	3756.19
784.659	3742.05
784.844	3766.27
785.029	3782.74
785.215	3719.38
785.4	3660.29
785.586	3805.21
785.771	3688.96
785.956	3751.93
786.142	3672.3
786.327	3719.38
786.512	3674.43
786.698	3690.9
786.883	3581.24
787.068	3634.33
787.254	3672.69
787.439	3632.78
787.624	3557.8
787.809	3591.9
787.994	3556.63
788.18	3647.11
788.365	3553.15
788.55	3559.35
788.735	3563.8
788.92	3507.81
789.105	3545.2
789.29	3529.7
789.475	3474.29
789.66	3511.68
789.845	3456.85
790.03	3489.4
790.215	3476.42
790.4	3572.72
790.585	3528.73
790.77	3457.05
790.955	3374.71
791.14	3471.19
791.325	3489.6
791.51	3387.69
791.695	3441.74
791.879	3413.84
792.064	3353.01
792.249	3445.23
792.434	3430.7
792.618	3391.95
792.803	3438.06
792.988	3410.16
793.173	3432.05
793.357	3434.57
793.542	3332.08
793.727	3396.41
793.911	3428.76
794.096	3430.31
794.281	3415.2
794.465	3510.91
794.65	3389.82
794.834	3455.5
795.019	3460.15
795.203	3464.6
795.388	3472.16
795.572	3501.8
795.757	3450.07
795.941	3482.82
796.126	3430.5
796.31	3405.9
796.494	3443.68
796.679	3411.13
796.863	3368.51
797.048	3515.17
797.232	3426.63
797.416	3445.04
797.601	3466.54
797.785	3546.95
797.969	3527.18
798.153	3450.65
798.338	3488.24
798.522	3546.95
798.706	3537.84
798.89	3507.03
799.074	3613.21
799.258	3563.22
799.443	3460.15
799.627	3520.4
799.811	3537.45
799.995	3493.67
800.179	3464.8
800.363	3457.82
800.547	3533.77
800.731	3528.73
800.915	3400.67
801.099	3443.29
801.283	3443.1
801.467	3498.32
801.651	3439.8
801.835	3497.54
802.019	3466.35
802.202	3496.96
802.386	3446
802.57	3403.96
802.754	3451.62
802.938	3418.49
803.121	3424.5
803.305	3507.62
803.489	3439.61
803.673	3443.68
803.856	3435.15
804.04	3407.25
804.224	3468.87
804.407	3418.1
804.591	3418.49
804.775	3433.41
804.958	3404.54
805.142	3555.28
805.326	3425.27
805.509	3473.71
805.693	3438.45
805.876	3461.89
806.06	3463.05
806.243	3495.99
806.427	3523.31
806.61	3520.21
806.794	3436.51
806.977	3505.48
807.16	3510.91
807.344	3449.49
807.527	3437.09
807.71	3446.39
807.894	3471
808.077	3432.05
808.26	3377.61
808.444	3373.74
808.627	3453.17
808.81	3378.97
808.993	3324.91
809.177	3286.16
809.36	3349.32
809.543	3327.82
809.726	3284.03
809.909	3276.67
810.092	3265.04
810.276	3271.24
810.459	3238.31
810.642	3229.78
810.825	3215.83
811.008	3252.45
811.191	3085.83
811.374	3093
811.557	3143.76
811.74	3210.41
811.923	3086.02
812.106	3085.05
812.289	3051.92
812.472	3061.42
812.654	3086.8
812.837	3025.96
813.02	3011.82
813.203	2918.82
813.386	2801.6
813.569	2823.69
813.751	2788.04
813.934	2786.1
814.117	2757.23
814.3	2696.78
814.482	2676.25
814.665	2586.74
814.848	2617.73
815.03	2518.34
815.213	2493.54
815.396	2492.57
815.578	2464.48
815.761	2388.14
815.943	2489.86
816.126	2363.34
816.309	2319.75
816.491	2306
816.674	2225.4
816.856	2235.28
817.039	2268.99
817.221	2347.85
817.403	2293.4
817.586	2264.92
817.768	2317.62
817.951	2243.42
818.133	2221.13
818.315	2247.48
818.498	2285.46
818.68	2348.81
818.862	2298.44
819.045	2324.6
819.227	2331.96
819.409	2294.95
819.591	2292.63
819.774	2291.85
819.956	2218.62
820.138	2374.78
820.32	2304.45
820.502	2405.58
820.684	2450.72
820.866	2455.37
821.048	2555.15
821.231	2561.55
821.413	2481.34
821.595	2444.33
821.777	2529
821.959	2468.94
822.141	2565.04
822.323	2391.05
822.505	2364.51
822.686	2293.98
822.868	2230.05
823.05	2086.48
823.232	2045.99
823.414	1994.26
823.596	2047.15
823.778	2036.3
823.96	2048.51
824.141	2079.12
824.323	2078.92
824.505	2177.73
824.687	2241.48
824.868	2292.82
825.05	2378.26
825.232	2411.59
825.413	2499.55
825.595	2427.86
825.777	2383.3
825.958	2423.99
826.14	2387.76
826.321	2415.08
826.503	2404.03
826.685	2448.21
826.866	2458.28
827.048	2440.46
827.229	2398.8
827.411	2407.13
827.592	2277.71
827.773	2289.91
827.955	2267.05
828.136	2264.53
828.318	2235.28
828.499	2226.56
828.68	2176.38
828.862	2216.68
829.043	2245.93
829.224	2240.7
829.406	2159.91
829.587	2170.95
829.768	2163.98
829.949	2209.7
830.131	2187.03
830.312	2304.25
830.493	2200.98
830.674	2212.42
830.855	2175.41
831.036	2200.02
831.218	2237.8
831.399	2265.11
831.58	2194.98
831.761	2220.55
831.942	2235.86
832.123	2234.89
832.304	2138.02
832.485	2134.72
832.666	2187.03
832.847	2188.78
833.028	2165.92
833.209	2200.79
833.389	2188.58
833.57	2082.41
833.751	2122.9
833.932	2168.05
834.113	2157.59
834.294	2103.14
834.475	2197.5
834.655	2170.76
834.836	2222.68
835.017	2197.11
835.198	2153.71
835.378	2186.26
835.559	2256.59
835.74	2211.45
835.92	2223.85
836.101	2153.13
836.281	2203.5
836.462	2205.44
836.643	2230.05
836.823	2216.68
837.004	2237.02
837.184	2293.6
837.365	2268.02
837.545	2255.62
837.726	2229.08
837.906	2291.08
838.087	2267.44
838.267	2208.15
838.448	2175.6
838.628	2213.58
838.808	2254.46
838.989	2306.96
839.169	2220.94
839.349	2207.77
839.53	2259.88
839.71	2286.04
839.89	2219
840.07	2257.37
840.251	2202.92
840.431	2226.95
840.611	2188.2
840.791	2187.62
840.971	2257.56
841.151	2186.45
841.332	2166.11
841.512	2235.28
841.692	2169.99
841.872	2242.06
842.052	2184.71
842.232	2236.83
842.412	2120.19
842.592	2165.92
842.772	2213
842.952	2191.49
843.132	2158.55
843.312	2134.72
843.492	2105.66
843.672	2167.08
843.851	2084.54
844.031	2159.14
844.211	2144.02
844.391	2087.45
844.571	2166.5
844.751	2171.92
844.93	2145.38
845.11	2115.35
845.29	2143.64
845.47	2161.07
845.649	2171.54
845.829	2182.19
846.009	2104.89
846.188	2114.96
846.368	2121.55
846.547	2142.86
846.727	2147.51
846.907	2050.44
847.086	2106.63
847.266	2138.4
847.445	2106.82
847.625	2086.48
847.804	2027
847.984	2058.19
848.163	2075.05
848.343	2046.37
848.522	2081.44
848.701	2071.37
848.881	2040.95
849.06	2068.27
849.239	2029.91
849.419	2042.5
849.598	1974.88
849.777	1973.14
849.957	1924.12
850.136	1870.26
850.315	1896.03
850.494	1849.33
850.674	1899.32
850.853	1933.61
851.032	1951.83
851.211	1968.49
851.39	1954.15
851.569	1902.03
851.748	1847.2
851.927	1978.18
852.107	1900.29
852.286	1891.96
852.465	1845.46
852.644	1934.78
852.823	1931.87
853.002	1919.86
853.181	1934.58
853.359	1905.13
853.538	1827.25
853.717	1916.95
853.896	1804.19
854.075	1705.57
854.254	1681.94
854.433	1614.51
854.611	1673.8
854.79	1547.09
854.969	1669.73
855.148	1634.86
855.327	1633.89
855.505	1711.19
855.684	1684.65
855.863	1747.03
856.041	1714.68
856.22	1750.72
856.399	1743.74
856.577	1801.67
856.756	1812.52
856.934	1913.27
857.113	1932.84
857.291	1837.71
857.47	1780.75
857.648	1818.92
857.827	1829.76
858.005	1888.08
858.184	1797.22
858.362	1890.21
858.541	1833.45
858.719	1813.68
858.898	1794.89
859.076	1789.85
859.254	1822.98
859.433	1829.18
859.611	1775.13
859.789	1716.04
859.967	1797.02
860.146	1855.73
860.324	1743.35
860.502	1769.32
860.68	1707.32
860.859	1750.33
861.037	1733.67
861.215	1749.36
861.393	1762.53
861.571	1711.39
861.749	1724.37
861.927	1733.09
862.105	1776.48
862.283	1707.51
862.461	1697.82
862.639	1708.87
862.817	1722.24
862.995	1717
863.173	1724.56
863.351	1723.98
863.529	1709.45
863.707	1730.37
863.885	1731.92
864.063	1625.36
864.241	1672.05
864.418	1752.27
864.596	1654.42
864.774	1607.15
864.952	1665.27
865.129	1684.45
865.307	1585.64
865.485	1586.81
865.663	1647.26
865.84	1585.84
866.018	1573.82
866.196	1446.15
866.373	1437.04
866.551	1439.17
866.728	1364.97
866.906	1407.78
867.084	1412.05
867.261	1474.43
867.439	1477.15
867.616	1550.19
867.794	1498.84
867.971	1533.91
868.149	1534.88
868.326	1568.21
868.503	1556.78
868.681	1526.36
868.858	1539.53
869.035	1491.87
869.213	1552.32
869.39	1519.77
869.567	1617.22
869.745	1536.43
869.922	1577.51
870.099	1567.24
870.276	1573.05
870.454	1570.14
870.631	1568.21
870.808	1498.84
870.985	1572.66
871.162	1589.13
871.339	1545.93
871.517	1467.85
871.694	1475.01
871.871	1483.34
872.048	1484.51
872.225	1481.99
872.402	1532.75
872.579	1427.35
872.756	1507.56
872.933	1455.06
873.11	1459.13
873.287	1508.34
873.463	1487.99
873.64	1435.49
873.817	1463.78
873.994	1424.64
874.171	1420.57
874.348	1487.8
874.524	1409.33
874.701	1413.6
874.878	1407.78
875.055	1459.51
875.231	1407.4
875.408	1434.13
875.585	1356.25
875.762	1401.97
875.938	1394.41
876.115	1384.34
876.291	1379.88
876.468	1409.72
876.645	1375.43
876.821	1366.32
876.998	1397.13
877.174	1416.89
877.351	1373.49
877.527	1344.04
877.704	1383.18
877.88	1393.06
878.057	1347.72
878.233	1373.1
878.409	1334.55
878.586	1365.35
878.762	1364.77
878.938	1350.05
879.115	1303.74
879.291	1353.73
879.467	1298.12
879.644	1302.19
879.82	1340.36
879.996	1309.36
880.172	1280.49
880.349	1320.6
880.525	1359.15
880.701	1271.19
880.877	1291.54
881.053	1324.28
881.229	1286.11
881.405	1312.27
881.581	1287.47
881.757	1307.42
881.933	1311.3
882.109	1309.55
882.285	1327.77
882.461	1258.21
882.637	1323.31
882.813	1270.8
882.989	1282.82
883.165	1341.52
883.341	1242.9
883.517	1336.68
883.693	1316.72
883.869	1303.74
884.044	1235.15
884.22	1298.32
884.396	1350.05
884.572	1321.18
884.747	1343.27
884.923	1320.4
885.099	1318.27
885.275	1355.86
885.45	1264.22
885.626	1252.2
885.801	1262.47
885.977	1287.08
886.153	1237.67
886.328	1313.82
886.504	1209.77
886.679	1326.22
886.855	1269.84
887.03	1276.23
887.206	1321.57
887.381	1276.23
887.557	1285.92
887.732	1301.42
887.908	1272.35
888.083	1297.35
888.258	1274.1
888.434	1241.74
888.609	1279.33
888.784	1305.1
888.96	1261.7
889.135	1269.84
889.31	1248.33
889.485	1305.87
889.661	1270.8
889.836	1297.54
890.011	1282.62
890.186	1279.52
890.361	1266.35
890.537	1307.42
890.712	1288.82
890.887	1302.77
891.062	1283.59
891.237	1343.46
891.412	1238.25
891.587	1314.98
891.762	1318.85
891.937	1322.92
892.112	1257.05
892.287	1261.5
892.462	1210.94
892.637	1219.27
892.812	1189.24
892.987	1218.3
893.161	1169.47
893.336	1191.37
893.511	1176.45
893.686	1183.23
893.861	1168.89
894.035	1202.02
894.21	1200.09
894.385	1140.99
894.56	1184.01
894.734	1122.01
894.909	1112.9
895.084	1150.68
895.258	1082.68
895.433	1118.91
895.608	1090.43
895.782	1055.16
895.957	1045.48
896.131	1046.83
896.306	990.65
896.48	994.71
896.655	993.16
896.829	907.72
897.004	934.27
897.178	915.67
897.353	914.31
897.527	975.73
897.701	937.95
897.876	876.33
898.05	959.06
898.224	957.71
898.399	983.09
898.573	896.29
898.747	816.47
898.921	843.79
899.096	752.92
899.27	761.44
899.444	761.06
899.618	801.55
899.792	843.98
899.967	849.4
900.141	885.83
900.315	787.6
900.489	814.14
900.663	815.5
900.837	818.6
901.011	729.86
901.185	879.43
901.359	820.54
901.533	850.95
901.707	861.61
901.881	810.85
902.055	774.42
902.229	789.73
902.403	903.85
902.576	834.29
902.75	846.3
902.924	914.7
903.098	882.15
903.272	943.57
903.446	966.04
903.619	916.25
903.793	978.25
903.967	959.45
904.14	985.03
904.314	1003.05
904.488	972.24
904.661	996.85
904.835	979.99
905.009	1017.77
905.182	1061.94
905.356	1036.95
905.529	996.85
905.703	970.88
905.876	933.1
906.05	957.13
906.223	914.7
906.397	830.03
906.57	825.57
906.744	841.85
906.917	823.44
907.09	821.31
907.264	837
907.437	791.47
907.61	736.64
907.784	748.07
907.957	785.85
908.13	727.54
908.304	788.37
908.477	704.09
908.65	729.67
908.823	700.22
908.996	785.66
909.17	727.54
909.343	722.89
909.516	729.86
909.689	703.51
909.862	726.57
910.035	724.44
910.208	702.74
910.381	702.16
910.554	811.62
910.727	710.1
910.9	735.67
911.073	703.32
911.246	738.97
911.419	775.01
911.592	716.11
911.765	716.49
911.938	706.03
912.11	706.22
912.283	733.35
912.456	785.47
912.629	733.54
912.802	687.43
912.974	668.83
913.147	633.18
913.32	563.24
913.493	605.86
913.665	618.46
913.838	638.8
914.01	609.74
914.183	647.71
914.356	636.09
914.528	715.91
914.701	737.03
914.873	700.61
915.046	634.34
915.218	598.7
915.391	553.94
915.563	535.73
915.736	579.51
915.908	644.42
916.081	605.67
916.253	606.25
916.425	633.57
916.598	673.87
916.77	639.96
916.942	596.18
917.115	554.52
917.287	627.37
917.459	588.43
917.632	581.06
917.804	524.49
917.976	599.08
918.148	612.06
918.32	610.51
918.493	613.81
918.665	674.64
918.837	626.21
919.009	660.89
919.181	671.54
919.353	663.41
919.525	615.36
919.697	648.68
919.869	654.49
920.041	700.41
920.213	748.46
920.385	688.01
920.557	650.43
920.729	655.27
920.901	673.29
921.073	655.27
921.244	633.76
921.416	700.99
921.588	606.44
921.76	597.15
921.932	693.44
922.103	630.28
922.275	633.76
922.447	624.27
922.619	582.81
922.79	631.24
922.962	567.11
923.134	649.26
923.305	553.75
923.477	548.9
923.648	584.55
923.82	605.28
923.991	520.81
924.163	502.6
924.335	566.73
924.506	521.97
924.677	593.08
924.849	514.22
925.02	549.1
925.192	585.52
925.363	568.28
925.535	542.51
925.706	526.23
925.877	584.36
926.049	541.35
926.22	543.67
926.391	533.6
926.562	579.71
926.734	536.31
926.905	590.17
927.076	520.23
927.247	514.03
927.419	489.62
927.59	461.33
927.761	484.38
927.932	467.72
928.103	481.28
928.274	426.07
928.445	404.17
928.616	424.71
928.787	432.27
928.958	447.18
929.129	436.72
929.3	422.58
929.471	363.68
929.642	318.54
929.813	273.78
929.984	360.97
930.155	308.66
930.326	316.02
930.496	309.82
930.667	256.73
930.838	268.16
931.009	223.99
931.18	261.96
931.35	257.51
931.521	267
931.692	180.98
931.863	163.15
932.033	196.09
932.204	202.48
932.374	221.08
932.545	165.28
932.716	220.69
932.886	200.54
933.057	116.07
933.227	146.49
933.398	197.83
933.568	108.32
933.739	73.83
933.909	103.48
934.08	143.2
934.25	55.23
934.421	64.15
934.591	132.15
934.761	105.8
934.932	55.43
935.102	107.35
935.272	94.76
935.443	107.55
935.613	76.35
935.783	122.27
935.953	77.9
936.123	236
936.294	70.54
936.464	107.16
936.634	93.21
936.804	65.7
936.974	57.37
937.144	126.53
937.314	97.08
937.484	67.83
937.655	60.47
937.825	121.11
937.995	60.66
938.165	145.71
938.334	86.04
938.504	122.46
938.674	122.08
938.844	124.6
939.014	181.36
939.184	189.5
939.354	215.27
939.524	195.51
939.694	138.35
939.863	183.49
940.033	208.1
940.203	221.66
940.373	188.34
940.542	216.63
940.712	174.39
940.882	167.99
941.051	214.11
941.221	179.62
941.391	194.93
941.56	139.71
941.73	136.8
941.899	273.39
942.069	161.99
942.238	183.69
942.408	151.33
942.577	197.25
942.747	147.85
942.916	101.35
943.086	125.76
943.255	188.73
943.425	159.86
943.594	133.9
943.763	74.8
943.933	103.67
944.102	54.65
944.271	122.66
944.441	162.18
944.61	117.81
944.779	124.01
944.948	241.81
945.117	122.85
945.287	104.45
945.456	72.87
945.625	91.46
945.794	114.71
945.963	102.9
946.132	159.47
946.301	102.9
946.47	136.41
946.639	70.35
946.808	91.46
946.977	161.6
947.146	168.77
947.315	112.2
947.484	151.72
947.653	102.9
947.822	126.34
947.991	93.4
948.16	178.84
948.329	166.45
948.498	103.09
948.666	116.65
948.835	150.17
949.004	75.19
949.173	49.81
949.341	138.16
949.51	142.61
949.679	149.2
949.847	118.2
950.016	203.06
950.185	199.58
950.353	107.55
950.522	144.16
950.69	180.78
950.859	118.78
951.028	188.73
951.196	146.49
951.365	91.27
951.533	129.83
951.701	161.6
951.87	162.57
952.038	91.08
952.207	106.38
952.375	170.13
952.543	96.7
952.712	88.17
952.88	83.71
953.048	185.43
953.217	123.43
953.385	93.4
953.553	159.28
953.721	84.68
953.89	116.46
954.058	65.12
954.226	71.51
954.394	127.11
954.562	73.06
954.73	137
954.898	120.91
955.067	149.4
955.235	96.31
955.403	172.64
955.571	188.14
955.739	146.3
955.907	88.36
956.075	94.18
956.243	108.9
956.41	128.86
956.578	63.76
956.746	86.62
956.914	122.27
957.082	154.05
957.25	152.69
957.418	99.41
957.585	108.9
957.753	186.98
957.921	111.03
958.089	123.24
958.256	148.81
958.424	140.87
958.592	127.7
958.759	94.37
958.927	145.13
959.095	104.25
959.262	126.15
959.43	96.7
959.597	110.84
959.765	121.3
959.932	89.91
960.1	156.56
960.267	108.9
960.435	103.48
960.602	169.54
960.77	122.66
960.937	84.1
961.104	138.16
961.272	67.44
961.439	122.08
961.606	116.85
961.774	162.57
961.941	123.24
962.108	127.7
962.275	129.05
962.443	163.54
962.61	160.25
962.777	171.68
962.944	142.42
963.111	116.46
963.278	162.18
963.446	124.4
963.613	132.15
963.78	151.33
963.947	124.98
964.114	138.55
964.281	195.31
964.448	144.16
964.615	136.61
964.782	128.47
964.949	168.19
965.116	153.27
965.282	195.12
965.449	127.89
965.616	90.11
965.783	154.43
965.95	148.04
966.117	109.87
966.283	143.58
966.45	155.98
966.617	141.06
966.784	189.69
966.95	193.76
967.117	179.81
967.284	130.6
967.45	115.68
967.617	208.88
967.784	148.81
967.95	200.74
968.117	149.2
968.283	205.58
968.45	261.96
968.616	141.65
968.783	209.07
968.949	147.85
969.116	192.02
969.282	164.12
969.449	156.37
969.615	156.76
969.781	118.78
969.948	138.93
970.114	117.04
970.28	203.06
970.447	154.82
970.613	204.23
970.779	183.11
970.945	171.29
971.112	156.18
971.278	154.05
971.444	176.91
971.61	175.94
971.776	116.46
971.942	173.61
972.108	196.28
972.275	172.84
972.441	188.14
972.607	227.09
972.773	122.27
972.939	164.51
973.105	154.43
973.271	108.32
973.437	154.82
973.602	90.88
973.768	166.25
973.934	149.59
974.1	173.03
974.266	69.96
974.432	176.71
974.598	146.49
974.763	159.86
974.929	132.35
975.095	196.48
975.261	116.85
975.426	92.82
975.592	134.09
975.758	198.03
975.923	96.89
976.089	121.3
976.255	153.85
976.42	144.55
976.586	145.91
976.751	141.45
976.917	206.74
977.082	155.98
977.248	89.33
977.413	85.26
977.579	127.11
977.744	145.52
977.91	93.4
978.075	92.43
978.24	178.65
978.406	118.4
978.571	105.8
978.736	86.62
978.902	135.83
979.067	84.3
979.232	76.55
979.397	130.21
979.563	205.39
979.728	111.03
979.893	121.5
980.058	105.61
980.223	158.5
980.388	133.9
980.554	115.49
980.719	116.85
980.884	144.16
981.049	151.14
981.214	114.71
981.379	121.88
981.544	100.18
981.709	101.54
981.874	138.35
982.039	127.89
982.204	149.59
982.368	124.01
982.533	123.82
982.698	129.05
982.863	167.61
983.028	98.83
983.193	132.15
983.357	124.6
983.522	145.71
983.687	129.44
983.852	106.96
984.016	118.4
984.181	110.45
984.346	153.85
984.51	151.91
984.675	118.78
984.839	128.66
985.004	149.2
985.168	167.41
985.333	141.26
985.498	96.5
985.662	136.03
985.827	118.01
985.991	144.36
986.155	124.4
986.32	157.92
986.484	205
986.649	133.31
986.813	69.96
986.977	114.13
987.142	154.82
987.306	60.66
987.47	68.6
987.634	134.09
987.799	149.4
987.963	108.32
988.127	168.58
988.291	197.64
988.455	123.82
988.62	89.72
988.784	152.3
988.948	136.41
989.112	86.62
989.276	90.88
989.44	116.46
989.604	91.46
989.768	109.48
989.932	200.16
990.096	79.45
990.26	96.7
990.424	46.71
990.588	134.09
990.752	175.16
990.915	134.28
991.079	109.29
991.243	102.31
991.407	162.96
991.571	131.38
991.734	135.83
991.898	140.29
992.062	188.92
992.226	99.21
992.389	77.32
992.553	38.38
992.717	73.83
992.88	84.49
993.044	115.88
993.207	82.55
993.371	120.72
993.535	122.66
993.698	99.41
993.862	148.62
994.025	142.03
994.189	108.71
994.352	130.6
994.515	110.26
994.679	154.05
994.842	101.35
995.006	135.45
995.169	92.43
995.332	65.89
995.496	130.21
995.659	34.5
995.822	97.28
995.985	89.53
996.149	148.04
996.312	83.33
996.475	159.28
996.638	97.86
996.801	158.89
996.964	161.21
997.128	87.98
997.291	67.05
997.454	97.47
997.617	38.57
997.78	134.28
997.943	67.05
998.106	160.25
998.269	69.18
998.432	86.81
998.595	87.78
998.758	39.73
998.92	72.87
999.083	24.04
999.246	89.91
999.409	69.18
999.572	55.62
999.735	74.61
999.897	100.57
1000.06	56.4
1000.223	41.09
1000.386	104.45
1000.548	120.33
1000.711	121.3
1000.874	108.71
1001.036	16.68
1001.199	112.78
1001.361	45.74
1001.524	87.98
1001.687	102.12
1001.849	59.5
1002.012	78.1
1002.174	107.55
1002.337	110.65
1002.499	75.77
1002.661	120.14
1002.824	19.78
1002.986	61.63
1003.149	70.54
1003.311	35.28
1003.473	162.57
1003.636	54.07
1003.798	91.46
1003.96	81.58
1004.123	76.16
1004.285	75.77
1004.447	55.23
1004.609	71.7
1004.771	115.68
1004.933	22.1
1005.096	46.32
1005.258	27.14
1005.42	57.37
1005.582	109.68
1005.744	102.51
1005.906	51.36
1006.068	80.81
1006.23	25.98
1006.392	43.03
1006.554	37.99
1006.716	82.75
1006.878	97.47
1007.04	32.95
1007.202	68.22
1007.363	67.25
1007.525	66.08
1007.687	75.77
1007.849	135.25
1008.011	13.38
1008.172	13.58
1008.334	38.57
1008.496	89.14
1008.658	13.97
1008.819	12.8
1008.981	10.67
1009.143	12.03
1009.304	46.13
1009.466	73.25
1009.627	119.75
1009.789	165.09
1009.95	43.03
1010.112	37.22
1010.273	74.8
1010.435	29.47
1010.596	31.6
1010.758	62.02
1010.919	32.37
1011.081	-2.7
1011.242	58.53
1011.403	81
1011.565	27.33
1011.726	71.7
1011.887	65.12
1012.049	22.49
1012.21	98.63
1012.371	128.28
1012.532	-5.41
1012.693	61.05
1012.855	35.47
1013.016	37.99
1013.177	107.55
1013.338	75.77
1013.499	119.17
1013.66	65.31
1013.821	73.83
1013.982	53.3
1014.143	56.98
1014.304	33.92
1014.465	62.02
1014.626	98.44
1014.787	38.96
1014.948	144.55
1015.109	-8.9
1015.27	92.43
1015.431	24.62
1015.592	31.02
1015.752	90.69
1015.913	51.36
1016.074	73.45
1016.235	47.87
1016.395	53.1
1016.556	40.51
1016.717	30.43
1016.877	78.87
1017.038	2.73
1017.199	47.1
1017.359	48.26
1017.52	63.37
1017.681	-11.61
1017.841	38.96
1018.002	15.13
1018.162	3.7
1018.323	81.2
1018.483	35.08
1018.644	40.51
1018.804	-15.29
1018.964	8.15
1019.125	37.8
1019.285	56.2
1019.446	10.67
1019.606	8.15
1019.766	-27.88
1019.926	77.52
1020.087	36.25
1020.247	1.37
1020.407	50.39
1020.567	57.75
1020.728	30.43
1020.888	-14.51
1021.048	23.27
1021.208	27.53
1021.368	-4.44
1021.528	84.1
1021.688	67.05
1021.848	59.88
1022.008	35.28
1022.168	34.7
1022.328	27.33
1022.488	45.35
1022.648	1.76
1022.808	60.85
1022.968	56.59
1023.128	8.54
1023.288	-11.8
1023.448	43.42
1023.608	41.87
1023.767	66.28
1023.927	9.12
1024.087	-6.96
1024.247	-32.73
1024.406	15.9
1024.566	-6.38
1024.726	11.64
1024.885	28.5
1025.045	51.75
1025.205	43.61
1025.364	-9.48
1025.524	25.4
1025.683	25.98
1025.843	45.16
1026.003	12.22
1026.162	75.38
1026.321	86.43
1026.481	41.28
1026.64	-9.67
1026.8	39.15
1026.959	17.26
1027.119	33.15
1027.278	38.38
1027.437	29.85
1027.597	33.15
1027.756	41.87
1027.915	32.57
1028.074	55.04
1028.234	23.65
1028.393	34.12
1028.552	17.26
1028.711	-37.18
1028.87	68.02
1029.03	-4.44
1029.189	38.38
1029.348	-64.89
1029.507	0.98
1029.666	8.93
1029.825	-16.26
1029.984	-7.54
1030.143	50
1030.302	7.57
1030.461	-35.05
1030.62	25.98
1030.779	46.32
1030.938	-18.97
1031.097	-41.64
1031.255	47.48
1031.414	90.5
1031.573	72.48
1031.732	-22.26
1031.891	8.73
1032.049	70.93
1032.208	32.37
1032.367	2.34
1032.525	-4.44
1032.684	25.01
1032.843	30.43
1033.001	-27.69
1033.16	177.68
1033.319	74.8
1033.477	51.75
1033.636	-0.57
1033.794	-27.88
1033.953	56.4
1034.111	21.91
1034.27	2.53
1034.428	24.43
1034.587	-20.52
1034.745	-1.73
1034.903	14.35
1035.062	39.15
1035.22	-41.64
1035.378	39.35
1035.537	-43.96
1035.695	24.23
1035.853	10.48
1036.011	44.19
1036.17	6.41
1036.328	-41.45
1036.486	38.18
1036.644	42.45
1036.802	-60.43
1036.96	-18
1037.119	-1.34
1037.277	15.32
1037.435	-19.55
1037.593	4.86
1037.751	-3.08
1037.909	55.04
1038.067	55.04
