Data from gum_old_FLMT105791__0__15-42-22-260.txt Node

Date: Mon Mar 20 15:42:22 GMT 2023
User: antho
Spectrometer: FLMT10579
Trigger mode: 0
Integration Time (sec): 1.000000E-1
Scans to average: 10
Electric dark correction enabled: true
Nonlinearity correction enabled: false
Boxcar width: 0
XAxis mode: Wavelengths
Number of Pixels in Spectrum: 3648
>>>>>Begin Spectral Data<<<<<
345.248	-158.58
345.464	-158.58
345.681	-158.58
345.898	-177.57
346.114	-178.15
346.331	-66.16
346.548	41.56
346.764	-3.39
346.981	5.91
347.197	-17.34
347.414	5.52
347.631	-12.69
347.847	46.98
348.064	8.82
348.28	47.56
348.497	-32.84
348.713	-23.93
348.93	40.4
349.146	21.8
349.363	18.12
349.579	42.53
349.796	2.42
350.012	3.58
350.229	16.57
350.445	37.88
350.661	-12.11
350.878	43.88
351.094	26.64
351.311	19.28
351.527	31.1
351.743	4.36
351.96	54.73
352.176	46.98
352.392	40.4
352.609	26.83
352.825	9.59
353.041	27.42
353.257	-11.14
353.474	16.18
353.69	35.17
353.906	31.1
354.122	-14.43
354.339	73.91
354.555	15.98
354.771	17.34
354.987	91.93
355.203	94.84
355.42	19.67
355.636	-7.85
355.852	6.68
356.068	29.16
356.284	-13.08
356.5	65
356.716	76.63
356.932	42.72
357.148	56.28
357.364	29.93
357.58	70.81
357.796	98.33
358.012	59.38
358.228	34.58
358.444	-22.38
358.66	93.1
358.876	44.27
359.092	-19.28
359.308	66.36
359.524	48.92
359.74	42.92
359.956	27.42
360.172	55.12
360.388	92.51
360.604	47.95
360.819	114.6
361.035	30.52
361.251	74.69
361.467	20.05
361.683	110.15
361.898	46.79
362.114	78.18
362.33	71.2
362.546	79.73
362.762	62.48
362.977	37.88
363.193	8.43
363.409	96.58
363.624	27.22
363.84	41.95
364.056	55.9
364.271	75.27
364.487	63.84
364.703	58.8
364.918	4.75
365.134	55.12
365.35	52.02
365.565	158.78
365.781	86.12
365.996	95.03
366.212	148.51
366.427	84.76
366.643	66.36
366.858	67.91
367.074	40.2
367.289	157.42
367.505	171.18
367.72	23.73
367.936	40.78
368.151	90
368.367	83.6
368.582	71.98
368.798	60.16
369.013	123.32
369.228	92.13
369.444	91.74
369.659	127.58
369.874	72.36
370.09	126.61
370.305	13.85
370.52	71.78
370.736	131.46
370.951	87.86
371.166	121.58
371.381	134.94
371.597	121.77
371.812	22.96
372.027	55.51
372.242	93.29
372.458	149.48
372.673	60.93
372.888	60.74
373.103	100.26
373.318	151.8
373.533	86.9
373.749	118.86
373.964	49.31
374.179	109.56
374.394	58.61
374.609	114.02
374.824	53.96
375.039	116.54
375.254	44.85
375.469	136.69
375.684	74.88
375.899	137.85
376.114	78.76
376.329	82.83
376.544	117.7
376.759	109.37
376.974	77.79
377.189	100.65
377.404	79.15
377.619	124.48
377.834	63.65
378.049	65.78
378.264	66.16
378.478	100.46
378.693	71.98
378.908	144.05
379.123	97.94
379.338	165.17
379.553	106.46
379.767	132.04
379.982	137.08
380.197	126.23
380.412	82.44
380.626	119.83
380.841	203.73
381.056	151.41
381.271	176.02
381.485	117.12
381.7	91.55
381.915	139.59
382.129	88.06
382.344	116.54
382.559	105.69
382.773	130.49
382.988	59.19
383.202	91.93
383.417	58.22
383.632	168.66
383.846	80.89
384.061	86.31
384.275	74.88
384.49	126.81
384.704	139.01
384.919	131.46
385.133	118.67
385.348	176.6
385.562	88.06
385.777	168.27
385.991	108.98
386.206	78.56
386.42	122.35
386.634	165.17
386.849	153.16
387.063	147.93
387.277	107.63
387.492	105.69
387.706	91.55
387.92	89.03
388.135	160.71
388.349	155.29
388.563	125.06
388.778	123.13
388.992	157.42
389.206	152.58
389.42	237.24
389.635	151.61
389.849	170.98
390.063	191.52
390.277	183.77
390.491	220.97
390.706	192.49
390.92	207.99
391.134	154.13
391.348	191.13
391.562	122.74
391.776	184.16
391.99	137.46
392.205	217.29
392.419	153.35
392.633	190.36
392.847	220.19
393.061	110.34
393.275	205.47
393.489	127.58
393.703	121.96
393.917	134.94
394.131	107.63
394.345	121.77
394.559	155.68
394.773	151.61
394.986	161.68
395.2	203.14
395.414	241.31
395.628	173.11
395.842	213.8
396.056	210.7
396.27	133.39
396.484	194.43
396.697	200.63
396.911	199.66
397.125	195.59
397.339	165.75
397.553	160.71
397.766	224.84
397.98	224.46
398.194	207.41
398.408	231.43
398.621	252.36
398.835	254.49
399.049	264.17
399.262	315.32
399.476	322.3
399.69	298.08
399.903	329.66
400.117	292.07
400.331	295.56
400.544	284.32
400.758	408.52
400.971	304.09
401.185	329.85
401.398	275.61
401.612	365.12
401.826	359.3
402.039	356.59
402.253	293.24
402.466	340.9
402.68	341.29
402.893	364.54
403.106	370.15
403.32	323.65
403.533	340.51
403.747	293.62
403.96	364.92
404.174	382.17
404.387	329.66
404.6	339.54
404.814	381.39
405.027	333.92
405.24	350
405.454	301.76
405.667	394.95
405.88	299.05
406.094	352.33
406.307	378.1
406.52	351.94
406.733	312.03
406.947	297.5
407.16	390.11
407.373	398.25
407.586	334.89
407.799	322.69
408.012	369.96
408.226	351.17
408.439	423.05
408.652	333.92
408.865	385.85
409.078	415.1
409.291	410.65
409.504	398.83
409.717	408.13
409.93	403.48
410.143	364.15
410.357	306.02
410.57	303.7
410.783	359.89
410.996	368.41
411.209	377.71
411.421	444.55
411.634	403.09
411.847	366.47
412.06	436.61
412.273	455.21
412.486	433.7
412.699	511.2
412.912	415.88
413.125	454.24
413.338	449.2
413.55	455.6
413.763	393.98
413.976	445.72
414.189	428.86
414.402	428.28
414.615	499
414.827	409.87
415.04	478.46
415.253	462.57
415.466	478.65
415.678	492.99
415.891	460.05
416.104	448.23
416.316	439.71
416.529	480.98
416.742	515.27
416.954	492.41
417.167	486.98
417.38	455.21
417.592	492.02
417.805	410.07
418.017	422.85
418.23	481.56
418.442	445.52
418.655	431.38
418.868	449.2
419.08	493.57
419.293	507.13
419.505	488.34
419.718	494.35
419.93	515.85
420.142	457.92
420.355	468.77
420.567	521.47
420.78	496.67
420.992	475.75
421.205	549.95
421.417	500.74
421.629	508.88
421.842	497.06
422.054	485.63
422.266	540.26
422.479	552.47
422.691	476.52
422.903	534.84
423.115	477.68
423.328	487.56
423.54	511.01
423.752	485.63
423.964	499
424.177	521.66
424.389	505.39
424.601	624.54
424.813	542.01
425.025	549.18
425.238	560.61
425.45	491.44
425.662	519.34
425.874	813.25
426.086	527.28
426.298	532.71
426.51	529.22
426.722	513.14
426.934	544.91
427.146	556.54
427.358	487.37
427.57	558.09
427.782	501.9
427.994	513.72
428.206	501.32
428.418	504.81
428.63	586.96
428.842	594.71
429.054	529.41
429.266	561.96
429.478	498.61
429.69	533.68
429.902	446.1
430.114	541.62
430.325	504.61
430.537	439.13
430.749	456.76
430.961	399.8
431.173	449.98
431.384	438.93
431.596	384.69
431.808	499
432.02	569.52
432.231	592.96
432.443	636.75
432.655	616.6
432.867	589.28
433.078	607.49
433.29	661.94
433.502	606.91
433.713	648.57
433.925	670.66
434.136	662.71
434.348	568.16
434.56	538.71
434.771	673.17
434.983	513.91
435.194	626.68
435.406	631.71
435.617	693.52
435.829	725.49
436.04	676.27
436.252	663.87
436.463	738.86
436.675	741.37
436.886	720.64
437.098	740.79
437.309	760.55
437.521	711.73
437.732	714.44
437.943	699.14
438.155	696.23
438.366	627.45
438.578	721.03
438.789	654.19
439	685.77
439.211	647.41
439.423	660.77
439.634	685.57
439.845	754.94
440.057	721.61
440.268	755.9
440.479	701.07
440.69	721.22
440.902	691.58
441.113	692.74
441.324	679.37
441.535	779.54
441.746	790.59
441.957	754.74
442.168	746.02
442.38	793.3
442.591	805.12
442.802	737.5
443.013	765.2
443.224	809.77
443.435	805.89
443.646	775.28
443.857	775.09
444.068	771.21
444.279	754.74
444.49	881.84
444.701	811.51
444.912	908.58
445.123	870.41
445.334	849.1
445.545	813.06
445.756	784.58
445.967	800.66
446.178	785.55
446.388	817.52
446.599	792.33
446.81	812.09
447.021	789.04
447.232	845.61
447.443	855.3
447.653	812.09
447.864	877
448.075	871.38
448.286	895.98
448.496	854.72
448.707	879.13
448.918	808.8
449.129	929.11
449.339	850.26
449.55	887.85
449.761	836.89
449.971	898.7
450.182	867.89
450.393	917.1
450.603	885.52
450.814	942.1
451.024	940.93
451.235	974.45
451.446	994.21
451.656	1000.41
451.867	919.81
452.077	896.18
452.288	976
452.498	978.52
452.709	907.03
452.919	931.44
453.13	865.18
453.34	914.2
453.55	846.77
453.761	884.36
453.971	877.19
454.182	909.93
454.392	943.26
454.602	972.71
454.813	951.98
455.023	947.13
455.233	881.65
455.444	941.51
455.654	857.43
455.864	921.75
456.075	907.8
456.285	917.1
456.495	957.6
456.705	929.31
456.916	967.67
457.126	1017.85
457.336	957.21
457.546	882.81
457.756	936.48
457.967	997.7
458.177	954.3
458.387	962.05
458.597	886.1
458.807	927.76
459.017	926.6
459.227	921.36
459.437	929.5
459.647	959.15
459.857	992.08
460.068	967.67
460.278	1007.78
460.488	964.38
460.698	1025.41
460.908	991.31
461.117	936.86
461.327	962.83
461.537	991.5
461.747	1012.43
461.957	1020.76
462.167	1112.59
462.377	1036.64
462.587	998.86
462.797	1084.11
463.007	1024.24
463.216	1078.49
463.426	1108.91
463.636	1049.24
463.846	978.52
464.056	1012.43
464.265	1068.81
464.475	996.54
464.685	1025.6
464.895	1050.79
465.104	998.48
465.314	1076.17
465.524	1022.5
465.733	1031.22
465.943	1110.85
466.153	1081.01
466.362	1119.18
466.572	1076.36
466.782	1045.36
466.991	1075.98
467.201	1115.5
467.41	1007.39
467.62	1061.44
467.829	1055.05
468.039	1080.43
468.249	1110.07
468.458	1086.24
468.668	1133.13
468.877	1125.19
469.086	1178.66
469.296	1160.26
469.505	1124.8
469.715	1218.38
469.924	1113.17
470.134	1184.28
470.343	1162.39
470.552	1138.75
470.762	1130.03
470.971	1096.71
471.18	1156.38
471.39	1142.82
471.599	1106.59
471.808	1194.35
472.018	1183.89
472.227	1224.77
472.436	1276.12
472.645	1249.96
472.855	1202.3
473.064	1321.26
473.273	1270.69
473.482	1278.05
473.691	1304.21
473.901	1274.95
474.11	1224.58
474.319	1339.08
474.528	1265.85
474.737	1349.16
474.946	1307.7
475.155	1343.54
475.364	1378.8
475.573	1338.31
475.783	1380.55
475.992	1393.14
476.201	1374.73
476.41	1393.14
476.619	1330.75
476.828	1366.01
477.037	1339.28
477.245	1346.45
477.454	1386.55
477.663	1382.48
477.872	1411.16
478.081	1509.19
478.29	1416.39
478.499	1523.73
478.708	1493.5
478.917	1529.54
479.125	1465.79
479.334	1503.77
479.543	1489.24
479.752	1529.73
479.961	1521.98
480.169	1565.19
480.378	1543.29
480.587	1677.56
480.796	1587.66
481.004	1568.09
481.213	1582.62
481.422	1576.23
481.63	1592.7
481.839	1620.02
482.048	1713.6
482.256	1664.97
482.465	1666.71
482.674	1685.12
482.882	1661.09
483.091	1748.28
483.299	1657.99
483.508	1715.15
483.716	1680.47
483.925	1706.43
484.134	1683.76
484.342	1702.75
484.551	1763.97
484.759	1712.43
484.967	1763.2
485.176	1770.75
485.384	1802.72
485.593	1763.2
485.801	1761.65
486.01	1661.87
486.218	1594.44
486.426	1511.52
486.635	1506.09
486.843	1510.36
487.051	1523.92
487.26	1551.43
487.468	1598.51
487.676	1661.09
487.885	1667.49
488.093	1694.42
488.301	1786.83
488.509	1807.37
488.717	1831.78
488.926	1801.75
489.134	1800.98
489.342	1809.31
489.55	1778.31
489.758	1818.03
489.967	1852.71
490.175	1949.19
490.383	1898.24
490.591	1966.05
490.799	1900.56
491.007	1977.29
491.215	1962.76
491.423	1930.98
491.631	1958.11
491.839	1939.12
492.047	1904.83
492.255	1867.82
492.463	1835.85
492.671	1837.01
492.879	1916.06
493.087	1903.47
493.295	1964.89
493.503	2002.09
493.711	2028.05
493.919	2009.64
494.127	2027.66
494.334	2018.17
494.542	1949.58
494.75	2046.84
494.958	1991.43
495.166	2098.19
495.374	2093.15
495.581	2125.5
495.789	2109.81
495.997	2171.81
496.205	2046.26
496.412	2058.85
496.62	2057.5
496.828	2057.69
497.035	2075.32
497.243	2106.9
497.451	2109.42
497.658	2109.42
497.866	2099.15
498.074	2194.09
498.281	2121.05
498.489	2206.68
498.696	2083.27
498.904	2025.34
499.112	2027.08
499.319	2145.85
499.527	2107.68
499.734	2153.21
499.942	2071.84
500.149	2085.98
500.357	2132.48
500.564	2050.33
500.771	2081.52
500.979	2023.79
501.186	2030.57
501.394	2075.32
501.601	1981.55
501.808	2051.3
502.016	2042.39
502.223	2033.67
502.43	2038.71
502.638	2046.65
502.845	2028.24
503.052	2164.45
503.26	2104.19
503.467	2195.64
503.674	2141.2
503.881	2116.01
504.089	2228.38
504.296	2126.47
504.503	2075.13
504.71	2125.12
504.917	2056.34
505.125	2131.9
505.332	2152.05
505.539	2143.91
505.746	2237.49
505.953	2258.8
506.16	2257.25
506.367	2312.47
506.574	2359.55
506.781	2339.59
506.988	2211.72
507.195	2254.93
507.402	2216.18
507.609	2287.28
507.816	2197
508.023	2178.2
508.23	2156.5
508.437	2131.51
508.644	2211.72
508.851	2259.58
509.058	2275.66
509.265	2266.75
509.472	2252.6
509.679	2386.48
509.885	2265.2
510.092	2320.41
510.299	2290.38
510.506	2259
510.713	2264.42
510.92	2249.7
511.126	2283.6
511.333	2322.93
511.54	2360.71
511.746	2345.6
511.953	2362.07
512.16	2395.59
512.367	2345.41
512.573	2324.68
512.78	2317.12
512.987	2290.19
513.193	2283.41
513.4	2203.78
513.606	2309.18
513.813	2290.58
514.02	2265.39
514.226	2343.66
514.433	2353.35
514.639	2196.8
514.846	2306.46
515.052	2230.51
515.259	2247.76
515.465	2316.54
515.672	2316.34
515.878	2370.01
516.085	2341.53
516.291	2366.53
516.497	2335.14
516.704	2271.59
516.91	2209.01
517.117	2130.35
517.323	2026.5
517.529	2039.29
517.736	2072.61
517.942	2093.54
518.148	2108.84
518.354	2208.23
518.561	2173.17
518.767	2184.4
518.973	2221.6
519.179	2263.45
519.386	2196.8
519.592	2211.14
519.798	2223.73
520.004	2334.75
520.21	2281.08
520.417	2362.84
520.623	2388.42
520.829	2402.37
521.035	2424.26
521.241	2379.12
521.447	2450.03
521.653	2532.95
521.859	2443.83
522.065	2487.81
522.271	2552.14
522.477	2494.79
522.683	2556.98
522.889	2502.15
523.095	2478.32
523.301	2484.71
523.507	2429.11
523.713	2443.25
523.919	2473.09
524.125	2564.92
524.331	2505.83
524.537	2660.63
524.742	2649.2
524.948	2638.55
525.154	2658.5
525.36	2756.73
525.566	2592.63
525.772	2684.66
525.977	2601.73
526.183	2638.35
526.389	2662.18
526.595	2580.62
526.8	2554.27
527.006	2437.24
527.212	2410.89
527.417	2398.3
527.623	2380.28
527.829	2508.15
528.034	2513.97
528.24	2532.57
528.446	2516.49
528.651	2694.15
528.857	2647.27
529.062	2743.56
529.268	2729.41
529.473	2807.69
529.679	2783.66
529.884	2835.98
530.09	2799.16
530.295	2782.5
530.501	2769.13
530.706	2809.43
530.912	2700.16
531.117	2815.44
531.323	2809.82
531.528	2899.91
531.733	2868.72
531.939	2865.81
532.144	2847.79
532.35	2845.08
532.555	2878.99
532.76	2804.01
532.966	2858.45
533.171	2739.3
533.376	2725.73
533.581	2698.61
533.787	2746.66
533.992	2816.41
534.197	2818.93
534.402	2781.14
534.607	2810.98
534.813	2917.54
535.018	2811.56
535.223	2829
535.428	2848.76
535.633	2906.5
535.838	2904.37
536.043	2932.46
536.249	3029.33
536.454	2910.76
536.659	2951.45
536.864	2943.5
537.069	2891.58
537.274	2923.36
537.479	2899.91
537.684	2884.02
537.889	2800.52
538.094	2968.89
538.299	2897.78
538.504	2914.06
538.708	2922.77
538.913	2984.19
539.118	2947.38
539.323	2969.27
539.528	2889.84
539.733	2917.74
539.938	2918.9
540.142	2931.88
540.347	2891
540.552	2824.16
540.757	2820.67
540.962	2818.93
541.166	2761.77
541.371	2798.39
541.576	2803.43
541.781	2747.63
541.985	2879.76
542.19	2896.42
542.395	2944.67
542.599	2981.48
542.804	2896.04
543.008	2974.89
543.213	2873.37
543.418	2885.77
543.622	2933.82
543.827	2903.21
544.031	2960.75
544.236	2969.27
544.44	2967.92
544.645	3035.15
544.849	2940.02
545.054	3006.09
545.258	3038.83
545.463	3021.39
545.667	2938.08
545.872	3006.09
546.076	2975.28
546.281	2973.54
546.485	2947.38
546.689	2984.97
546.894	3030.11
547.098	3015
547.302	2936.53
547.507	3013.25
547.711	3010.93
547.915	3028.95
548.119	2922.97
548.324	2934.2
548.528	2994.46
548.732	2977.02
548.936	2995.04
549.141	3005.12
549.345	2963.46
549.549	3011.12
549.753	3028.95
549.957	3087.65
550.161	3070.41
550.366	3025.46
550.57	2982.25
550.774	3002.6
550.978	2999.5
551.182	2979.15
551.386	2992.72
551.59	2982.06
551.794	2981.87
551.998	3014.22
552.202	3011.12
552.406	2969.66
552.61	3026.43
552.814	3024.1
553.018	3101.99
553.222	2967.72
553.426	2972.18
553.63	3066.53
553.833	3017.9
554.037	2941.37
554.241	2981.29
554.445	3033.21
554.649	3017.13
554.853	2963.27
555.056	3026.43
555.26	3058.98
555.464	3021.39
555.668	3022.17
555.871	2982.45
556.075	3048.13
556.279	2985.35
556.483	2948.35
556.686	2969.85
556.89	2955.71
557.094	2973.54
557.297	2873.95
557.501	2992.52
557.704	2841.79
557.908	2950.48
558.112	2920.45
558.315	2986.71
558.519	2908.82
558.722	2878.02
558.926	2864.65
559.129	2806.91
559.333	2818.15
559.536	2811.95
559.74	2757.51
559.943	2759.06
560.147	2768.74
560.35	2784.83
560.553	2802.46
560.757	2758.67
560.96	2876.08
561.164	2809.04
561.367	2959.2
561.57	2798.97
561.774	2834.04
561.977	2823.77
562.18	2791.99
562.384	2906.89
562.587	2800.52
562.79	2783.86
562.993	2789.09
563.197	2809.24
563.4	2879.57
563.603	2848.18
563.806	2888.29
564.009	2794.71
564.212	2834.81
564.416	2744.91
564.619	2788.7
564.822	2737.16
565.025	2823.38
565.228	2735.81
565.431	2773.2
565.634	2642.42
565.837	2710.81
566.04	2659.47
566.243	2684.85
566.446	2594.57
566.649	2712.95
566.852	2607.55
567.055	2619.17
567.258	2655.6
567.461	2748.6
567.664	2725.54
567.867	2640.48
568.07	2692.21
568.273	2717.98
568.475	2728.06
568.678	2627.12
568.881	2604.83
569.084	2614.72
569.287	2505.25
569.489	2546.13
569.692	2606.58
569.895	2633.51
570.098	2552.52
570.3	2548.45
570.503	2471.73
570.706	2496.92
570.909	2493.62
571.111	2412.25
571.314	2447.71
571.516	2454.68
571.719	2494.4
571.922	2422.32
572.124	2475.99
572.327	2495.95
572.529	2415.16
572.732	2431.82
572.935	2490.52
573.137	2602.12
573.34	2483.55
573.542	2550.39
573.745	2514.35
573.947	2500.02
574.15	2450.22
574.352	2468.05
574.554	2548.45
574.757	2467.66
574.959	2418.64
575.162	2430.66
575.364	2382.61
575.566	2522.88
575.769	2395.59
575.971	2443.44
576.173	2275.46
576.376	2426.39
576.578	2439.76
576.78	2479.67
576.982	2345.79
577.185	2414.57
577.387	2350.64
577.589	2385.71
577.791	2412.44
577.993	2428.72
578.196	2367.88
578.398	2370.21
578.6	2416.71
578.802	2303.95
579.004	2280.89
579.206	2271.59
579.408	2353.16
579.61	2275.46
579.812	2356.26
580.014	2323.13
580.216	2305.88
580.418	2316.15
580.62	2326.81
580.822	2265.2
581.024	2377.57
581.226	2386.29
581.428	2320.8
581.63	2405.66
581.832	2314.6
582.034	2371.18
582.236	2334.94
582.438	2441.89
582.64	2401.79
582.841	2388.23
583.043	2459.14
583.245	2333.2
583.447	2354.32
583.649	2357.03
583.85	2399.46
584.052	2395.2
584.254	2329.13
584.456	2348.51
584.657	2320.99
584.859	2357.03
585.061	2307.43
585.262	2296.78
585.464	2294.26
585.666	2343.08
585.867	2275.66
586.069	2303.56
586.27	2284.76
586.472	2245.63
586.674	2276.82
586.875	2228
587.077	2243.3
587.278	2283.02
587.48	2265.58
587.681	2355.29
587.883	2302.78
588.084	2183.43
588.285	2190.6
588.487	2183.05
588.688	2240.98
588.89	2104.77
589.091	2087.34
589.292	2082.88
589.494	2020.49
589.695	2016.42
589.896	1925.56
590.098	1970.89
590.299	2019.14
590.5	1956.94
590.702	2000.92
590.903	2055.56
591.104	2164.25
591.305	2086.56
591.507	2146.43
591.708	2125.5
591.909	2063.12
592.11	2179.37
592.311	2124.34
592.512	2118.14
592.714	2044.91
592.915	2065.44
593.116	2052.07
593.317	2095.09
593.518	2091.4
593.719	2097.22
593.92	2115.62
594.121	2185.95
594.322	2113.49
594.523	2118.14
594.724	2037.16
594.925	2096.44
595.126	2105.55
595.327	2100.7
595.528	2085.98
595.729	2104.58
595.929	2091.21
596.13	2109.23
596.331	2112.91
596.532	2111.17
596.733	2190.6
596.934	2168.52
597.135	2152.63
597.335	2115.43
597.536	2112.52
597.737	2101.67
597.938	2088.3
598.138	2147.4
598.339	2094.5
598.54	2117.37
598.74	2091.02
598.941	2132.67
599.142	2116.59
599.342	2051.88
599.543	2051.69
599.744	2026.31
599.944	2099.54
600.145	2080.36
600.345	2071.06
600.546	2144.88
600.746	2127.25
600.947	2175.3
601.147	2052.66
601.348	2090.05
601.548	2020.88
601.749	2060.79
601.949	2021.07
602.15	1991.62
602.35	2038.71
602.551	2087.92
602.751	2039.29
602.951	2009.26
603.152	1984.65
603.352	2058.66
603.552	2035.61
603.753	2086.75
603.953	2083.27
604.153	2068.15
604.354	2053.43
604.554	2005.77
604.754	2069.51
604.954	2041.42
605.155	2067.77
605.355	2037.16
605.555	2059.63
605.755	2106.52
605.955	2065.64
606.155	2099.93
606.356	2071.25
606.556	2112.52
606.756	2100.7
606.956	1985.81
607.156	2082.88
607.356	2007.71
607.556	2021.46
607.756	2049.17
607.956	2075.9
608.156	2059.82
608.356	2049.36
608.556	2110.39
608.756	2010.03
608.956	1987.17
609.156	2008.67
609.356	1986.39
609.556	1968.96
609.755	1995.11
609.955	1981.74
610.155	1994.92
610.355	1995.5
610.555	1941.44
610.755	1948.42
610.954	1918.58
611.154	2003.83
611.354	1993.95
611.554	1930.01
611.753	1959.27
611.953	1948.81
612.153	1993.76
612.352	1979.42
612.552	1924.39
612.752	1854.45
612.951	1915.87
613.151	1928.85
613.351	1918.39
613.55	1918
613.75	1920.91
613.949	1879.06
614.149	1925.94
614.348	1896.88
614.548	1827.52
614.747	1841.86
614.947	1881.38
615.146	1813.18
615.346	1951.33
615.545	1926.72
615.745	1862.2
615.944	1918.78
616.144	1865.11
616.343	1862.2
616.542	1850.58
616.742	1850.38
616.941	1842.25
617.14	1766.1
617.34	1805.05
617.539	1815.7
617.738	1811.63
617.938	1877.31
618.137	1850.96
618.336	1815.31
618.535	1859.1
618.734	1868.21
618.934	1872.86
619.133	1872.47
619.332	1878.67
619.531	1831.4
619.73	1829.65
619.929	1875.57
620.128	1890.88
620.328	1905.79
620.527	1812.41
620.726	1865.88
620.925	1869.76
621.124	1851.55
621.323	1871.11
621.522	1806.6
621.721	1795.75
621.92	1780.05
622.119	1847.48
622.318	1802.53
622.517	1814.73
622.715	1766.88
622.914	1729.1
623.113	1778.5
623.312	1709.92
623.511	1812.21
623.71	1770.17
623.909	1720.57
624.107	1828.49
624.306	1711.27
624.505	1736.27
624.704	1704.49
624.902	1699.26
625.101	1775.02
625.3	1736.46
625.499	1705.46
625.697	1706.43
625.896	1672.14
626.095	1720.96
626.293	1670.97
626.492	1705.65
626.69	1741.3
626.889	1699.84
627.088	1740.33
627.286	1697.9
627.485	1663.8
627.683	1702.75
627.882	1718.83
628.08	1615.37
628.279	1663.8
628.477	1734.91
628.676	1621.76
628.874	1684.34
629.073	1615.95
629.271	1629.51
629.469	1686.09
629.668	1652.18
629.866	1636.1
630.065	1661.67
630.263	1667.1
630.461	1631.84
630.66	1660.7
630.858	1647.53
631.056	1702.55
631.254	1695.97
631.453	1617.69
631.651	1689.57
631.849	1664.39
632.047	1622.92
632.245	1611.3
632.444	1650.82
632.642	1654.12
632.84	1707.59
633.038	1653.73
633.236	1589.6
633.434	1636.1
633.632	1635.71
633.83	1671.94
634.028	1628.93
634.227	1613.62
634.425	1713.98
634.623	1628.15
634.821	1660.51
635.019	1659.93
635.216	1608.78
635.414	1658.77
635.612	1622.92
635.81	1664
636.008	1678.92
636.206	1619.24
636.404	1671.55
636.602	1592.31
636.8	1602.77
636.997	1614.59
637.195	1636.68
637.393	1606.07
637.591	1654.5
637.789	1654.89
637.986	1627.38
638.184	1623.89
638.382	1662.25
638.58	1652.76
638.777	1675.04
638.975	1629.12
639.173	1633
639.37	1647.14
639.568	1632.22
639.765	1661.09
639.963	1616.92
640.161	1651.4
640.358	1639.97
640.556	1567.71
640.753	1584.76
640.951	1553.76
641.148	1605.29
641.346	1567.51
641.543	1595.61
641.741	1586.31
641.938	1516.75
642.136	1560.15
642.333	1526.44
642.531	1618.66
642.728	1600.45
642.925	1579.33
643.123	1538.84
643.32	1536.32
643.517	1522.95
643.715	1556.27
643.912	1557.82
644.109	1569.26
644.306	1577.2
644.504	1528.96
644.701	1515.78
644.898	1541.94
645.095	1523.73
645.293	1574.29
645.49	1557.05
645.687	1534.38
645.884	1549.69
646.081	1450.88
646.278	1510.16
646.475	1467.34
646.672	1494.47
646.87	1534.96
647.067	1462.11
647.264	1522.37
647.461	1429.56
647.658	1462.31
647.855	1492.53
648.052	1464.05
648.249	1396.05
648.446	1459.98
648.642	1435.76
648.839	1441.38
649.036	1464.05
649.233	1381.13
649.43	1411.55
649.627	1379.96
649.824	1426.85
650.021	1371.25
650.217	1380.16
650.414	1414.45
650.611	1474.32
650.808	1440.22
651.004	1447.97
651.201	1467.93
651.398	1539.03
651.595	1462.89
651.791	1413.29
651.988	1489.04
652.185	1390.43
652.381	1452.43
652.578	1378.03
652.775	1395.85
652.971	1399.34
653.168	1429.56
653.364	1456.88
653.561	1349.35
653.757	1416
653.954	1405.54
654.15	1425.3
654.347	1447
654.543	1413.87
654.74	1330.37
654.936	1348.97
655.133	1437.7
655.329	1415.03
655.525	1370.86
655.722	1385.78
655.918	1318.16
656.115	1326.49
656.311	1232.72
656.507	1183.89
656.704	1174.21
656.9	1215.47
657.096	1205.59
657.292	1182.73
657.489	1264.1
657.685	1280.57
657.881	1244.34
658.077	1283.09
658.273	1343.35
658.47	1368.34
658.666	1329.59
658.862	1387.52
659.058	1307.12
659.254	1394.3
659.45	1348.77
659.646	1326.68
659.842	1362.72
660.038	1367.95
660.234	1339.28
660.43	1356.52
660.626	1438.48
660.822	1426.66
661.018	1410.58
661.214	1365.05
661.41	1319.13
661.606	1401.28
661.802	1407.28
661.998	1395.66
662.194	1358.65
662.39	1377.25
662.586	1378.41
662.781	1376.09
662.977	1409.03
663.173	1402.83
663.369	1371.05
663.564	1362.14
663.76	1400.11
663.956	1351.48
664.152	1397.98
664.347	1293.75
664.543	1342.18
664.739	1338.12
664.934	1293.55
665.13	1313.12
665.326	1356.91
665.521	1365.43
665.717	1317.77
665.912	1295.1
666.108	1236.98
666.304	1296.85
666.499	1306.34
666.695	1262.75
666.89	1304.98
667.086	1326.49
667.281	1319.9
667.477	1414.84
667.672	1346.64
667.867	1322.23
668.063	1347.8
668.258	1272.05
668.454	1317.77
668.649	1382.87
668.844	1347.42
669.04	1330.56
669.235	1307.7
669.43	1286.97
669.626	1259.26
669.821	1309.25
670.016	1237.37
670.211	1272.05
670.407	1254.22
670.602	1332.3
670.797	1242.02
670.992	1346.83
671.187	1256.35
671.382	1334.24
671.578	1273.21
671.773	1294.91
671.968	1230.78
672.163	1299.75
672.358	1298.98
672.553	1236.01
672.748	1266.62
672.943	1327.85
673.138	1258.87
673.333	1299.37
673.528	1270.3
673.723	1279.6
673.918	1278.05
674.113	1225.35
674.308	1377.64
674.503	1280.38
674.698	1279.99
674.892	1252.87
675.087	1299.17
675.282	1273.02
675.477	1253.25
675.672	1287.35
675.867	1212.95
676.061	1242.99
676.256	1213.34
676.451	1258.49
676.646	1253.84
676.84	1227.87
677.035	1218.57
677.23	1232.91
677.424	1254.8
677.619	1289.48
677.814	1296.46
678.008	1297.62
678.203	1179.63
678.397	1227.29
678.592	1251.32
678.787	1316.42
678.981	1255.19
679.176	1260.62
679.37	1250.74
679.565	1231.94
679.759	1240.47
679.954	1264.3
680.148	1271.47
680.342	1297.62
680.537	1246.67
680.731	1207.72
680.926	1281.54
681.12	1253.06
681.314	1178.47
681.509	1231.55
681.703	1219.35
681.897	1262.17
682.092	1219.54
682.286	1215.47
682.48	1290.65
682.674	1265.46
682.869	1217.02
683.063	1230
683.257	1292
683.451	1205.59
683.645	1231.36
683.839	1224.19
684.034	1229.62
684.228	1255.97
684.422	1190.09
684.616	1184.47
684.81	1227.1
685.004	1194.16
685.198	1206.17
685.392	1225.55
685.586	1159.29
685.78	1190.09
685.974	1247.05
686.168	1230
686.362	1242.79
686.556	1145.53
686.75	1121.31
686.944	1076.36
687.138	1117.24
687.331	1014.36
687.525	983.36
687.719	939.19
687.913	1004.68
688.107	973.1
688.301	976.2
688.494	1008.55
688.688	975.42
688.882	949.26
689.076	949.26
689.269	975.23
689.463	1057.57
689.657	992.08
689.85	1005.64
690.044	1019.01
690.238	1007
690.431	1009.71
690.625	991.7
690.818	1041.68
691.012	1050.79
691.205	1050.01
691.399	1056.41
691.593	1061.44
691.786	1113.76
691.98	1101.94
692.173	1130.81
692.366	1084.11
692.56	1122.09
692.753	1163.74
692.947	1066.87
693.14	1146.89
693.333	1102.91
693.527	1072.49
693.72	1128.67
693.914	1096.12
694.107	1074.04
694.3	1105.81
694.493	1080.24
694.687	1127.12
694.88	1069.39
695.073	1150.37
695.266	1113.76
695.46	1112.79
695.653	1161.81
695.846	1146.89
696.039	1073.26
696.232	1115.11
696.425	1169.94
696.618	1176.34
696.812	1151.73
697.005	1224.19
697.198	1291.03
697.391	1222.25
697.584	1245.12
697.777	1287.93
697.97	1272.24
698.163	1255
698.356	1255.97
698.549	1370.28
698.742	1316.8
698.935	1264.88
699.127	1295.1
699.32	1249.77
699.513	1280.18
699.706	1321.84
699.899	1336.76
700.092	1314.28
700.285	1333.85
700.477	1268.56
700.67	1341.02
700.863	1400.11
701.056	1455.72
701.248	1416
701.441	1401.28
701.634	1391.98
701.826	1460.56
702.019	1369.11
702.212	1439.25
702.404	1397.21
702.597	1396.43
702.79	1415.61
702.982	1435.96
703.175	1509.39
703.367	1496.21
703.56	1490.79
703.752	1576.62
703.945	1573.32
704.137	1573.13
704.33	1594.25
704.522	1583.4
704.715	1599.67
704.907	1660.51
705.1	1661.29
705.292	1679.89
705.484	1663.42
705.677	1731.03
705.869	1694.8
706.061	1738.78
706.254	1806.6
706.446	1709.72
706.638	1738.59
706.831	1821.13
707.023	1772.11
707.215	1879.44
707.407	1832.75
707.599	1851.93
707.792	1926.53
707.984	1923.81
708.176	1956.17
708.368	1889.33
708.56	1925.75
708.752	1927.11
708.944	1952.49
709.136	1976.71
709.329	1958.88
709.521	2094.12
709.713	2041.61
709.905	2078.62
710.097	2098.19
710.289	2054.4
710.481	2103.03
710.672	2128.8
710.864	2112.91
711.056	2220.25
711.248	2138.68
711.44	2178.01
711.632	2172.39
711.824	2240.98
712.016	2257.06
712.207	2245.24
712.399	2271.59
712.591	2369.63
712.783	2327.78
712.975	2338.24
713.166	2317.31
713.358	2317.51
713.55	2415.74
713.741	2407.41
713.933	2439.18
714.125	2407.21
714.316	2391.91
714.508	2478.9
714.7	2473.86
714.891	2511.84
715.083	2557.17
715.274	2471.73
715.466	2527.53
715.657	2630.8
715.849	2480.26
716.04	2559.89
716.232	2499.44
716.423	2553.69
716.615	2509.51
716.806	2463.21
716.998	2434.34
717.189	2358.78
717.381	2301.81
717.572	2290.38
717.763	2327.78
717.955	2314.02
718.146	2251.83
718.337	2232.06
718.528	2183.63
718.72	2105.16
718.911	2185.95
719.102	2136.16
719.293	2201.07
719.485	2195.83
719.676	2122.21
719.867	2164.64
720.058	2166.97
720.249	2172.58
720.44	2196.03
720.632	2259.77
720.823	2271.59
721.014	2457.39
721.205	2428.14
721.396	2529.66
721.587	2665.86
721.778	2670.51
721.969	2713.33
722.16	2778.63
722.351	2787.15
722.542	2933.04
722.733	2929.75
722.924	2861.94
723.115	2911.34
723.305	2891.77
723.496	2932.46
723.687	2828.61
723.878	2807.11
724.069	2802.07
724.26	2855.35
724.45	2753.24
724.641	2774.17
724.832	2827.06
725.023	2782.11
725.213	2786.38
725.404	2786.38
725.595	2791.61
725.785	2773.39
725.976	2837.14
726.167	2839.66
726.357	2898.56
726.548	2993.88
726.739	2879.57
726.929	3024.88
727.12	3003.18
727.31	3069.05
727.501	2983.42
727.691	3027.59
727.882	3036.31
728.072	3098.7
728.263	3012.29
728.453	3129.11
728.644	3159.73
728.834	3127.95
729.024	3116.71
729.215	3113.42
729.405	3137.83
729.596	3222.89
729.786	3189.76
729.976	3268.03
730.167	3338.75
730.357	3224.83
730.547	3265.13
730.737	3292.83
730.928	3312.01
731.118	3384.09
731.308	3333.32
731.498	3349.21
731.688	3476.7
731.879	3467.4
732.069	3507.5
732.259	3555.16
732.449	3548.58
732.639	3684.59
732.829	3653.98
733.019	3733.8
733.209	3828.54
733.399	3799.29
733.589	3844.62
733.779	3933.94
733.969	3836.29
734.159	3963.39
734.349	4021.9
734.539	4057.75
734.729	4046.9
734.919	4098.43
735.109	4195.89
735.299	4096.69
735.488	4179.81
735.678	4141.25
735.868	4121.49
736.058	4171.47
736.248	4086.81
736.437	4098.82
736.627	4088.36
736.817	4186.97
737.007	4163.34
737.196	4205.57
737.386	4235.61
737.576	4192.01
737.765	4232.7
737.955	4279.2
738.144	4344.88
738.334	4326.28
738.524	4252.85
738.713	4273.97
738.903	4313.1
739.092	4356.5
739.282	4342.17
739.471	4331.32
739.661	4291.6
739.85	4421.02
740.04	4373.36
740.229	4353.02
740.419	4436.33
740.608	4409.59
740.797	4407.27
740.987	4507.24
741.176	4480.5
741.365	4436.71
741.555	4406.49
741.744	4500.84
741.933	4441.95
742.123	4477.4
742.312	4555.68
742.501	4545.21
742.69	4579.12
742.88	4493.1
743.069	4580.28
743.258	4560.33
743.447	4608.57
743.636	4619.42
743.825	4574.28
744.014	4634.72
744.204	4687.81
744.393	4591.71
744.582	4709.12
744.771	4702.92
744.96	4662.43
745.149	4653.52
745.338	4613.99
745.527	4695.37
745.716	4654.68
745.905	4613.8
746.094	4719.59
746.283	4729.47
746.471	4699.82
746.66	4749.81
746.849	4752.52
747.038	4755.62
747.227	4688.2
747.416	4764.92
747.604	4696.53
747.793	4665.92
747.982	4722.1
748.171	4747.1
748.359	4720.75
748.548	4740.32
748.737	4745.35
748.926	4758.14
749.114	4588.61
749.303	4751.75
749.491	4714.94
749.68	4625.23
749.869	4734.5
750.057	4679.29
750.246	4691.69
750.434	4684.52
750.623	4702.34
750.811	4604.31
751	4669.99
751.188	4634.53
751.377	4669.02
751.565	4660.11
751.754	4620.39
751.942	4613.41
752.131	4723.07
752.319	4630.85
752.507	4607.99
752.696	4670.57
752.884	4665.34
753.072	4658.36
753.261	4687.04
753.449	4638.21
753.637	4576.99
753.825	4697.11
754.014	4611.47
754.202	4671.73
754.39	4685.1
754.578	4675.99
754.766	4576.99
754.955	4606.82
755.143	4629.3
755.331	4606.63
755.519	4560.91
755.707	4625.04
755.895	4577.38
756.083	4661.07
756.271	4535.91
756.459	4558.58
756.647	4618.26
756.835	4528.16
757.023	4574.86
757.211	4558.58
757.399	4558.39
757.587	4551.61
757.775	4458.61
757.963	4464.81
758.151	4502.78
758.339	4533.98
758.526	4435.75
758.714	4505.69
758.902	4408.82
759.09	4301.29
759.278	4091.46
759.465	3839.59
759.653	3416.83
759.841	3149.65
760.028	2810.01
760.216	2448.87
760.404	2330.88
760.591	1983.87
760.779	1750.22
760.967	1582.24
761.154	1412.13
761.342	1424.91
761.529	1463.66
761.717	1564.8
761.905	1546.97
762.092	1698.29
762.28	1638.42
762.467	1657.22
762.655	1602.77
762.842	1679.3
763.029	1683.37
763.217	1708.17
763.404	1740.72
763.592	1766.3
763.779	1744.02
763.966	1800.98
764.154	1824.81
764.341	1871.7
764.528	1924.39
764.716	1994.53
764.903	2041.03
765.09	2132.48
765.277	2191.18
765.465	2387.64
765.652	2418.06
765.839	2484.32
766.026	2635.06
766.213	2724.38
766.4	2804.78
766.588	3011.9
766.775	3012.67
766.962	3116.52
767.149	3171.55
767.336	3338.36
767.523	3304.07
767.71	3462.75
767.897	3547.8
768.084	3626.08
768.271	3658.43
768.458	3705.13
768.645	3771
768.832	3757.63
769.019	3794.44
769.206	3878.14
769.392	3898.48
769.579	3979.08
769.766	3941.3
769.953	3951.96
770.14	3969.78
770.327	3960.48
770.513	4001.36
770.7	4048.06
770.887	3997.88
771.073	4044.57
771.26	4003.69
771.447	3994.97
771.634	3931.62
771.82	4090.68
772.007	3907.78
772.193	4041.28
772.38	4011.44
772.567	3988.96
772.753	3981.99
772.94	4051.35
773.126	4050
773.313	4039.53
773.499	4019.38
773.686	4053.48
773.872	3964.55
774.059	4023.45
774.245	3950.22
774.432	3983.35
774.618	3854.7
774.804	3933.55
774.991	3895
775.177	3952.73
775.363	3908.95
775.55	3941.5
775.736	3833.77
775.922	3917.47
776.109	3911.85
776.295	3931.62
776.481	3893.45
776.667	3945.76
776.853	3866.9
777.04	3838.62
777.226	3841.52
777.412	3943.43
777.598	3810.91
777.784	3792.51
777.97	3799.67
778.156	3814.79
778.342	3817.5
778.528	3851.99
778.715	3723.34
778.901	3781.27
779.087	3793.28
779.272	3752.98
779.458	3719.85
779.644	3723.53
779.83	3771.97
780.016	3852.95
780.202	3764.02
780.388	3707.84
780.574	3645.64
780.76	3672.58
780.946	3742.91
781.131	3714.04
781.317	3709.97
781.503	3679.94
781.689	3677.23
781.874	3774.1
782.06	3657.27
782.246	3709.97
782.432	3633.83
782.617	3699.89
782.803	3739.03
782.989	3602.83
783.174	3612.9
783.36	3587.33
783.545	3601.28
783.731	3619.68
783.916	3483.67
784.102	3595.85
784.288	3545.86
784.473	3560.2
784.659	3506.92
784.844	3610
785.029	3518.74
785.215	3474.95
785.4	3461
785.586	3568.73
785.771	3483.67
785.956	3498.98
786.142	3471.08
786.327	3457.52
786.512	3453.06
786.698	3429.81
786.883	3411.99
787.068	3428.65
787.254	3457.13
787.439	3408.69
787.624	3384.47
787.809	3405.2
787.994	3349.41
788.18	3446.86
788.365	3352.12
788.55	3326.16
788.735	3310.27
788.92	3348.24
789.105	3331
789.29	3362.19
789.475	3257.96
789.66	3305.81
789.845	3262.99
790.03	3262.8
790.215	3296.51
790.4	3335.46
790.585	3361.42
790.77	3270.74
790.955	3232.38
791.14	3230.64
791.325	3331.97
791.51	3154.11
791.695	3219.4
791.879	3220.18
792.064	3155.46
792.249	3304.26
792.434	3194.6
792.618	3223.66
792.803	3239.74
792.988	3216.69
793.173	3211.84
793.357	3229.09
793.542	3185.69
793.727	3208.55
793.911	3239.94
794.096	3207.97
794.281	3229.09
794.465	3334.49
794.65	3213.39
794.834	3262.61
795.019	3286.44
795.203	3276.17
795.388	3253.11
795.572	3306.97
795.757	3284.89
795.941	3311.82
796.126	3285.08
796.31	3217.46
796.494	3251.18
796.679	3239.55
796.863	3240.91
797.048	3341.46
797.232	3294.77
797.416	3302.13
797.601	3250.01
797.785	3336.62
797.969	3312.01
798.153	3276.56
798.338	3338.36
798.522	3341.85
798.706	3360.06
798.89	3352.51
799.074	3416.25
799.258	3399.2
799.443	3315.31
799.627	3329.45
799.811	3345.92
799.995	3300.19
800.179	3285.47
800.363	3301.55
800.547	3350.96
800.731	3361.81
800.915	3231.61
801.099	3231.8
801.283	3278.49
801.467	3321.31
801.651	3267.06
801.835	3284.5
802.019	3304.46
802.202	3270.36
802.386	3233.54
802.57	3236.06
802.754	3247.11
802.938	3236.64
803.121	3227.93
803.305	3296.9
803.489	3282.56
803.673	3269
803.856	3280.04
804.04	3248.46
804.224	3285.47
804.407	3232.38
804.591	3255.83
804.775	3260.09
804.958	3235.48
805.142	3380.79
805.326	3192.28
805.509	3262.61
805.693	3287.21
805.876	3275.01
806.06	3268.03
806.243	3261.44
806.427	3351.34
806.61	3348.63
806.794	3220.95
806.977	3303.87
807.16	3255.44
807.344	3279.66
807.527	3249.04
807.71	3236.84
807.894	3243.62
808.077	3234.13
808.26	3194.41
808.444	3231.41
808.627	3296.9
808.81	3234.32
808.993	3189.95
809.177	3147.91
809.36	3151.2
809.543	3193.05
809.726	3086.3
809.909	3101.8
810.092	3126.79
810.276	3077
810.459	3062.08
810.642	3066.73
810.825	3044.83
811.008	3054.91
811.191	2942.15
811.374	2969.66
811.557	2956.1
811.74	3010.54
811.923	2896.23
812.106	2935.95
812.289	2910.37
812.472	2897.97
812.654	2921.81
812.837	2869.11
813.02	2816.02
813.203	2773.59
813.386	2714.3
813.569	2626.92
813.751	2624.98
813.934	2682.53
814.117	2606
814.3	2583.52
814.482	2534.12
814.665	2499.82
814.848	2474.25
815.03	2390.74
815.213	2391.13
815.396	2354.13
815.578	2332.43
815.761	2308.21
815.943	2381.06
816.126	2254.54
816.309	2246.21
816.491	2160.57
816.674	2093.92
816.856	2137.32
817.039	2100.12
817.221	2253.18
817.403	2151.27
817.586	2128.99
817.768	2190.8
817.951	2103.03
818.133	2086.37
818.315	2109.62
818.498	2134.42
818.68	2209.2
818.862	2173.94
819.045	2211.53
819.227	2222.18
819.409	2151.47
819.591	2220.63
819.774	2179.37
819.956	2120.27
820.138	2205.72
820.32	2190.6
820.502	2209.98
820.684	2336.88
820.866	2316.93
821.048	2394.43
821.231	2378.93
821.413	2392.1
821.595	2343.47
821.777	2386.29
821.959	2362.46
822.141	2419.61
822.323	2283.41
822.505	2177.82
822.686	2143.33
822.868	2062.73
823.05	1968.18
823.232	1951.33
823.414	1854.65
823.596	1960.24
823.778	1888.94
823.96	1926.53
824.141	1914.9
824.323	1966.24
824.505	2031.92
824.687	2111.75
824.868	2142.94
825.05	2260.74
825.232	2297.36
825.413	2342.89
825.595	2337.66
825.777	2249.89
825.958	2286.9
826.14	2285.35
826.321	2290.38
826.503	2274.5
826.685	2294.06
826.866	2373.31
827.048	2332.04
827.229	2248.53
827.411	2212.69
827.592	2181.88
827.773	2161.15
827.955	2126.86
828.136	2107.68
828.318	2098.19
828.499	2146.82
828.68	2060.4
828.862	2143.33
829.043	2126.09
829.224	2099.54
829.406	2052.66
829.587	2035.02
829.768	2076.1
829.949	2088.5
830.131	2077.45
830.312	2130.74
830.493	2063.5
830.674	2075.71
830.855	2075.13
831.036	2067.19
831.218	2097.8
831.399	2159.41
831.58	2060.99
831.761	2110.2
831.942	2107.49
832.123	2084.24
832.304	2035.8
832.485	2020.3
832.666	2036.77
832.847	2090.05
833.028	2033.86
833.209	2058.08
833.389	2061.57
833.57	2007.32
833.751	2018.75
833.932	2073
834.113	2019.91
834.294	2020.88
834.475	2071.84
834.655	2100.51
834.836	2099.35
835.017	2031.15
835.198	2049.17
835.378	2064.47
835.559	2103.03
835.74	2077.84
835.92	2085.59
836.101	2027.86
836.281	2074.35
836.462	2123.95
836.643	2082.3
836.823	2118.53
837.004	2177.43
837.184	2150.69
837.365	2105.16
837.545	2105.94
837.726	2116.4
837.906	2179.56
838.087	2138.87
838.267	2127.25
838.448	2073.97
838.628	2091.4
838.808	2100.12
838.989	2144.1
839.169	2052.85
839.349	2135.19
839.53	2111.75
839.71	2141.78
839.89	2121.05
840.07	2120.47
840.251	2131.32
840.431	2120.85
840.611	2107.87
840.791	2040.26
840.971	2096.83
841.151	2126.09
841.332	2028.82
841.512	2138.49
841.692	2036.96
841.872	2085.2
842.052	2106.13
842.232	2114.27
842.412	1994.34
842.592	2060.6
842.772	2060.4
842.952	2043.74
843.132	1995.11
843.312	2046.65
843.492	1985.81
843.672	2070.67
843.851	1957.91
844.031	1991.24
844.211	2002.28
844.391	2036.96
844.571	2002.09
844.751	2057.69
844.93	1999.96
845.11	1977.09
845.29	2035.02
845.47	2025.34
845.649	2010.03
845.829	1992.4
846.009	1927.3
846.188	2024.95
846.368	2004.8
846.547	1995.5
846.727	2048.01
846.907	1949.78
847.086	1986.78
847.266	1998.99
847.445	1983.87
847.625	1993.37
847.804	1927.49
847.984	1971.67
848.163	1897.08
848.343	1930.21
848.522	1960.82
848.701	1952.29
848.881	1931.95
849.06	1936.21
849.239	1941.64
849.419	1935.83
849.598	1880.61
849.777	1868.6
849.957	1845.73
850.136	1751.77
850.315	1735.68
850.494	1760.87
850.674	1771.53
850.853	1825.58
851.032	1828.49
851.211	1809.89
851.39	1822.1
851.569	1736.85
851.748	1738.59
851.927	1840.5
852.107	1838.56
852.286	1766.68
852.465	1765.52
852.644	1848.25
852.823	1822.29
853.002	1801.36
853.181	1803.69
853.359	1812.02
853.538	1736.65
853.717	1800.98
853.896	1694.8
854.075	1626.6
854.254	1582.24
854.433	1495.05
854.611	1572.94
854.79	1519.46
854.969	1569.64
855.148	1571.39
855.327	1562.09
855.505	1609.17
855.684	1567.51
855.863	1612.66
856.041	1613.04
856.22	1662.25
856.399	1655.67
856.577	1731.03
856.756	1735.49
856.934	1839.34
857.113	1815.51
857.291	1746.73
857.47	1662.45
857.648	1755.83
857.827	1749.44
858.005	1777.92
858.184	1708.37
858.362	1774.63
858.541	1701.39
858.719	1696.16
858.898	1677.75
859.076	1682.99
859.254	1778.31
859.433	1684.54
859.611	1669.81
859.789	1621.95
859.967	1718.25
860.146	1729.68
860.324	1625.25
860.502	1683.95
860.68	1618.27
860.859	1598.51
861.037	1646.95
861.215	1701.2
861.393	1635.9
861.571	1666.32
861.749	1624.47
861.927	1665.16
862.105	1637.07
862.283	1625.64
862.461	1602.58
862.639	1586.69
862.817	1603.94
862.995	1609.94
863.173	1599.29
863.351	1609.94
863.529	1623.7
863.707	1629.7
863.885	1612.46
864.063	1557.24
864.241	1562.28
864.418	1610.33
864.596	1555.69
864.774	1534.96
864.952	1575.46
865.129	1592.31
865.307	1524.69
865.485	1497.38
865.663	1575.26
865.84	1449.52
866.018	1499.51
866.196	1368.73
866.373	1365.05
866.551	1365.24
866.728	1293.94
866.906	1361.75
867.084	1361.56
867.261	1403.41
867.439	1430.53
867.616	1456.88
867.794	1386.75
867.971	1437.51
868.149	1443.51
868.326	1495.24
868.503	1494.28
868.681	1483.23
868.858	1386.16
869.035	1444.87
869.213	1484.01
869.39	1443.32
869.567	1501.64
869.745	1411.35
869.922	1477.03
870.099	1443.51
870.276	1451.65
870.454	1464.63
870.631	1478.78
870.808	1422.4
870.985	1473.93
871.162	1504.93
871.339	1442.16
871.517	1402.44
871.694	1413.68
871.871	1422.59
872.048	1406.12
872.225	1424.14
872.402	1402.25
872.579	1379.38
872.756	1409.22
872.933	1364.66
873.11	1407.48
873.287	1420.46
873.463	1398.76
873.64	1379.77
873.817	1419.1
873.994	1386.55
874.171	1334.24
874.348	1371.05
874.524	1336.18
874.701	1344.12
874.878	1305.57
875.055	1337.92
875.231	1324.55
875.408	1338.7
875.585	1275.15
875.762	1331.72
875.938	1298.78
876.115	1297.04
876.291	1315.06
876.468	1315.64
876.645	1263.14
876.821	1277.67
876.998	1279.02
877.174	1289.29
877.351	1293.17
877.527	1268.95
877.704	1299.17
877.88	1307.31
878.057	1253.84
878.233	1329.98
878.409	1267.2
878.586	1280.57
878.762	1309.44
878.938	1263.14
879.115	1210.05
879.291	1261.2
879.467	1221.87
879.644	1232.14
879.82	1285.03
879.996	1236.4
880.172	1188.54
880.349	1246.09
880.525	1260.04
880.701	1219.35
880.877	1221.29
881.053	1226.71
881.229	1209.47
881.405	1265.27
881.581	1178.66
881.757	1206.17
881.933	1235.43
882.109	1270.5
882.285	1236.79
882.461	1203.27
882.637	1234.27
882.813	1192.22
882.989	1231.94
883.165	1226.32
883.341	1205.01
883.517	1246.28
883.693	1242.6
883.869	1256.16
884.044	1163.16
884.22	1245.7
884.396	1295.1
884.572	1240.66
884.747	1248.99
884.923	1235.43
885.099	1245.7
885.275	1238.72
885.45	1209.08
885.626	1179.82
885.801	1172.66
885.977	1214.12
886.153	1124.61
886.328	1221.87
886.504	1176.72
886.679	1248.6
886.855	1185.05
887.03	1234.07
887.206	1235.82
887.381	1227.68
887.557	1222.25
887.732	1236.2
887.908	1222.84
888.083	1243.95
888.258	1230.2
888.434	1201.33
888.609	1184.47
888.784	1266.43
888.96	1195.52
889.135	1174.4
889.31	1161.03
889.485	1216.44
889.661	1203.07
889.836	1236.98
890.011	1244.92
890.186	1168.39
890.361	1173.62
890.537	1205.59
890.712	1217.99
890.887	1217.6
891.062	1192.8
891.237	1278.83
891.412	1129.84
891.587	1199.78
891.762	1231.75
891.937	1246.67
892.112	1164.71
892.287	1196.49
892.462	1126.35
892.637	1114.34
892.812	1099.03
892.987	1123.06
893.161	1109.88
893.336	1118.41
893.511	1123.44
893.686	1126.54
893.861	1147.27
894.035	1090.7
894.21	1114.34
894.385	1042.65
894.56	1131.19
894.734	1052.73
894.909	1041.29
895.084	1030.44
895.258	1039.16
895.433	1030.06
895.608	1004.29
895.782	974.06
895.957	970.96
896.131	969.22
896.306	932.99
896.48	932.8
896.655	936.09
896.829	860.92
897.004	870.6
897.178	883.58
897.353	874.28
897.527	923.11
897.701	859.75
897.876	784.97
898.05	911.29
898.224	890.17
898.399	932.21
898.573	865.37
898.747	741.57
898.921	780.12
899.096	714.64
899.27	718.12
899.444	717.16
899.618	754.16
899.792	776.44
899.967	773.73
900.141	809.19
900.315	743.89
900.489	761.72
900.663	799.5
900.837	771.79
901.011	724.13
901.185	840.77
901.359	765.59
901.533	790.78
901.707	790
901.881	769.47
902.055	727.23
902.229	745.25
902.403	824.49
902.576	751.25
902.75	823.72
902.924	863.43
903.098	807.44
903.272	895.02
903.446	874.67
903.619	856.27
903.793	927.76
903.967	881.65
904.14	960.31
904.314	925.82
904.488	941.32
904.661	942.48
904.835	901.41
905.009	967.09
905.182	1009.91
905.356	966.12
905.529	929.7
905.703	911.87
905.876	899.86
906.05	869.83
906.223	859.56
906.397	802.6
906.57	764.04
906.744	774.89
906.917	759.2
907.09	766.17
907.264	775.47
907.437	692.16
907.61	662.13
907.784	696.04
907.957	765.2
908.13	684.41
908.304	719.29
908.477	668.52
908.65	706.11
908.823	645.86
908.996	708.44
909.17	674.72
909.343	665.62
909.516	684.02
909.689	679.37
909.862	674.53
910.035	680.92
910.208	665.81
910.381	632.88
910.554	773.73
910.727	640.24
910.9	666.78
911.073	647.02
911.246	707.27
911.419	738.47
911.592	726.65
911.765	660.58
911.938	686.16
912.11	688.29
912.283	671.82
912.456	709.99
912.629	718.71
912.802	659.22
912.974	603.43
913.147	586.38
913.32	542.59
913.493	554.6
913.665	596.45
913.838	622.41
914.01	596.06
914.183	606.33
914.356	612.14
914.528	647.6
914.701	668.33
914.873	631.71
915.046	594.13
915.218	568.94
915.391	533.87
915.563	516.43
915.736	569.71
915.908	603.43
916.081	598.39
916.253	567.97
916.425	556.73
916.598	615.24
916.77	606.53
916.942	562.16
917.115	507.71
917.287	573.2
917.459	548.79
917.632	499.96
917.804	468.58
917.976	542.01
918.148	540.46
918.32	564.68
918.493	613.89
918.665	617.96
918.837	576.3
919.009	659.03
919.181	614.47
919.353	609.82
919.525	594.13
919.697	590.83
919.869	590.06
920.041	679.57
920.213	718.32
920.385	632.29
920.557	617.57
920.729	637.14
920.901	616.02
921.073	596.84
921.244	590.83
921.416	641.79
921.588	609.24
921.76	564.48
921.932	648.96
922.103	616.21
922.275	583.47
922.447	599.94
922.619	505
922.79	571.46
922.962	587.93
923.134	610.21
923.305	554.02
923.477	518.18
923.648	506.55
923.82	541.62
923.991	491.44
924.163	487.56
924.335	509.65
924.506	500.55
924.677	570.88
924.849	512.95
925.02	506.36
925.192	547.43
925.363	525.93
925.535	541.81
925.706	511.01
925.877	552.28
926.049	504.61
926.22	535.03
926.391	540.65
926.562	547.24
926.734	475.94
926.905	550.53
927.076	453.08
927.247	510.81
927.419	423.43
927.59	416.65
927.761	473.62
927.932	418.2
928.103	428.08
928.274	377.32
928.445	400.77
928.616	386.62
928.787	400.77
928.958	429.25
929.129	400.57
929.3	390.5
929.471	321.33
929.642	283.36
929.813	240.34
929.984	352.33
930.155	275.99
930.326	312.42
930.496	257.97
930.667	219.61
930.838	252.36
931.009	217.09
931.18	240.73
931.35	242.67
931.521	239.96
931.692	190.16
931.863	163.04
932.033	190.94
932.204	177.57
932.374	184.54
932.545	158.78
932.716	185.9
932.886	198.88
933.057	139.01
933.227	122.35
933.398	214.19
933.568	94.84
933.739	52.02
933.909	83.02
934.08	115.18
934.25	58.8
934.421	96.39
934.591	134.17
934.761	103.36
934.932	62.29
935.102	94.65
935.272	76.82
935.443	101.43
935.613	65.39
935.783	102.59
935.953	63.45
936.123	232.79
936.294	63.65
936.464	81.66
936.634	86.51
936.804	48.15
936.974	54.35
937.144	98.71
937.314	117.12
937.484	65.39
937.655	54.15
937.825	127
937.995	52.6
938.165	128.16
938.334	65.58
938.504	112.08
938.674	80.31
938.844	152.38
939.014	161.88
939.184	179.12
939.354	210.7
939.524	194.04
939.694	162.84
939.863	146.96
940.033	201.4
940.203	204.31
940.373	176.6
940.542	196.56
940.712	140.56
940.882	189.78
941.051	186.09
941.221	201.79
941.391	198.88
941.56	170.01
941.73	141.92
941.899	239.96
942.069	152.19
942.238	179.7
942.408	149.86
942.577	176.79
942.747	123.51
942.916	103.17
943.086	132.81
943.255	178.73
943.425	150.44
943.594	94.84
943.763	75.27
943.933	100.85
944.102	20.44
944.271	113.83
944.441	123.51
944.61	110.53
944.779	141.92
944.948	215.54
945.117	69.65
945.287	100.26
945.456	71.98
945.625	90
945.794	117.9
945.963	95.61
946.132	130.88
946.301	78.95
946.47	135.72
946.639	70.43
946.808	98.71
946.977	143.66
947.146	145.41
947.315	111.31
947.484	157.42
947.653	120.61
947.822	91.93
947.991	65.39
948.16	176.99
948.329	131.65
948.498	139.79
948.666	130.88
948.835	152.19
949.004	97.94
949.173	87.48
949.341	113.44
949.51	137.08
949.679	160.52
949.847	139.01
950.016	186.29
950.185	172.34
950.353	126.03
950.522	127.2
950.69	175.44
950.859	116.15
951.028	146.38
951.196	137.46
951.365	104.33
951.533	126.81
951.701	132.04
951.87	117.31
952.038	66.94
952.207	109.76
952.375	193.46
952.543	106.66
952.712	127.2
952.88	73.33
953.048	166.72
953.217	136.11
953.385	101.81
953.553	162.84
953.721	69.85
953.89	94.45
954.058	64.61
954.226	118.09
954.394	101.23
954.562	61.51
954.73	98.33
954.898	95.81
955.067	134.36
955.235	87.86
955.403	107.82
955.571	163.81
955.739	163.81
955.907	79.34
956.075	86.31
956.243	81.66
956.41	112.47
956.578	52.41
956.746	53.96
956.914	94.26
957.082	134.75
957.25	136.11
957.418	77.98
957.585	138.43
957.753	130.49
957.921	66.94
958.089	110.73
958.256	124.87
958.424	136.11
958.592	110.15
958.759	81.86
958.927	124.87
959.095	60.93
959.262	107.82
959.43	134.94
959.597	76.63
959.765	131.84
959.932	96.2
960.1	149.48
960.267	108.79
960.435	97.94
960.602	157.42
960.77	103.75
960.937	102.4
961.104	126.42
961.272	77.79
961.439	105.69
961.606	145.6
961.774	162.26
961.941	75.08
962.108	129.33
962.275	114.99
962.443	121.38
962.61	139.59
962.777	185.71
962.944	154.71
963.111	138.43
963.278	127.78
963.446	126.42
963.613	99.68
963.78	129.52
963.947	135.91
964.114	136.69
964.281	184.35
964.448	137.27
964.615	127.39
964.782	138.82
964.949	138.82
965.116	127.39
965.282	174.66
965.449	134.17
965.616	105.88
965.783	167.88
965.95	135.33
966.117	78.56
966.283	92.13
966.45	143.28
966.617	141.14
966.784	173.31
966.95	139.01
967.117	166.72
967.284	122.93
967.45	103.75
967.617	183.19
967.784	160.71
967.95	222.71
968.117	143.66
968.283	192.29
968.45	238.21
968.616	165.94
968.783	191.91
968.949	181.64
969.116	155.87
969.282	125.45
969.449	137.85
969.615	141.92
969.781	85.15
969.948	144.05
970.114	101.04
970.28	208.38
970.447	143.66
970.613	171.37
970.779	139.98
970.945	148.89
971.112	166.72
971.278	142.89
971.444	168.08
971.61	179.51
971.776	110.53
971.942	172.34
972.108	148.89
972.275	137.85
972.441	149.28
972.607	206.63
972.773	132.23
972.939	140.18
973.105	148.51
973.271	100.07
973.437	132.23
973.602	87.67
973.768	145.99
973.934	110.53
974.1	134.17
974.266	80.89
974.432	159.94
974.598	126.23
974.763	156.64
974.929	120.8
975.095	198.69
975.261	98.91
975.426	93.29
975.592	132.62
975.758	189.97
975.923	57.25
976.089	81.66
976.255	169.04
976.42	130.1
976.586	120.8
976.751	132.62
976.917	203.53
977.082	141.73
977.248	73.33
977.413	70.04
977.579	133.39
977.744	134.94
977.91	105.11
978.075	92.13
978.24	153.74
978.406	113.83
978.571	119.83
978.736	84.18
978.902	123.71
979.067	118.67
979.232	50.28
979.397	133.01
979.563	160.52
979.728	100.26
979.893	106.66
980.058	103.95
980.223	145.79
980.388	131.07
980.554	131.26
980.719	94.65
980.884	128.75
981.049	144.44
981.214	97.55
981.379	131.07
981.544	82.44
981.709	104.91
981.874	114.21
982.039	109.18
982.204	129.33
982.368	121.58
982.533	89.41
982.698	150.06
982.863	147.54
983.028	87.28
983.193	136.11
983.357	145.41
983.522	104.33
983.687	97.75
983.852	125.84
984.016	98.52
984.181	122.74
984.346	146.57
984.51	122.93
984.675	127.58
984.839	113.05
985.004	125.26
985.168	144.24
985.333	123.71
985.498	103.75
985.662	148.12
985.827	152.38
985.991	93.1
986.155	91.55
986.32	116.93
986.484	185.71
986.649	128.16
986.813	41.95
986.977	129.71
987.142	120.22
987.306	65.97
987.47	99.88
987.634	107.43
987.799	132.04
987.963	120.8
988.127	140.76
988.291	179.31
988.455	109.56
988.62	108.6
988.784	117.51
988.948	126.61
989.112	118.86
989.276	145.41
989.44	105.5
989.604	87.09
989.768	96.58
989.932	159.55
990.096	62.48
990.26	62.68
990.424	63.84
990.588	103.75
990.752	176.99
990.915	130.68
991.079	92.32
991.243	80.7
991.407	148.7
991.571	81.86
991.734	133.01
991.898	108.6
992.062	200.43
992.226	94.65
992.389	80.5
992.553	44.66
992.717	57.25
992.88	53.18
993.044	87.48
993.207	103.56
993.371	128.75
993.535	116.93
993.698	102.2
993.862	140.95
994.025	132.62
994.189	133.2
994.352	117.12
994.515	125.06
994.679	125.84
994.842	97.16
995.006	120.8
995.169	71.78
995.332	76.05
995.496	140.18
995.659	37.3
995.822	72.17
995.985	78.95
996.149	122.55
996.312	109.56
996.475	141.73
996.638	89.03
996.801	114.6
996.964	154.32
997.128	58.61
997.291	51.05
997.454	118.86
997.617	37.49
997.78	118.67
997.943	63.84
998.106	113.05
998.269	91.55
998.432	69.65
998.595	84.96
998.758	23.54
998.92	60.74
999.083	15.6
999.246	70.62
999.409	38.07
999.572	33.42
999.735	42.72
999.897	106.08
1000.06	59
1000.223	48.73
1000.386	122.93
1000.548	101.43
1000.711	109.56
1000.874	83.8
1001.036	51.05
1001.199	120.41
1001.361	46.79
1001.524	82.63
1001.687	96.2
1001.849	48.92
1002.012	90
1002.174	68.49
1002.337	102.59
1002.499	45.43
1002.661	114.8
1002.824	37.88
1002.986	36.33
1003.149	64.81
1003.311	22.18
1003.473	120.41
1003.636	63.65
1003.798	102.59
1003.96	91.74
1004.123	68.1
1004.285	64.03
1004.447	60.16
1004.609	52.8
1004.771	119.06
1004.933	10.37
1005.096	27.8
1005.258	-1.65
1005.42	46.79
1005.582	123.32
1005.744	55.7
1005.906	37.1
1006.068	65.97
1006.23	15.4
1006.392	12.11
1006.554	33.23
1006.716	77.21
1006.878	85.54
1007.04	19.08
1007.202	33.42
1007.363	60.74
1007.525	59
1007.687	60.74
1007.849	99.49
1008.011	29.35
1008.172	18.89
1008.334	24.12
1008.496	76.63
1008.658	-0.87
1008.819	25.87
1008.981	13.66
1009.143	28.97
1009.304	38.07
1009.466	72.56
1009.627	100.85
1009.789	119.83
1009.95	73.91
1010.112	50.28
1010.273	66.55
1010.435	21.99
1010.596	59.58
1010.758	26.06
1010.919	24.12
1011.081	40.4
1011.242	49.11
1011.403	67.91
1011.565	55.31
1011.726	74.88
1011.887	23.93
1012.049	20.25
1012.21	79.53
1012.371	89.8
1012.532	-27.22
1012.693	53.96
1012.855	11.14
1013.016	42.33
1013.177	82.44
1013.338	31.1
1013.499	118.86
1013.66	53.38
1013.821	69.26
1013.982	38.85
1014.143	49.31
1014.304	20.05
1014.465	47.95
1014.626	51.44
1014.787	44.08
1014.948	118.67
1015.109	-33.03
1015.27	70.04
1015.431	28.19
1015.592	34
1015.752	70.23
1015.913	62.1
1016.074	59.58
1016.235	30.32
1016.395	38.07
1016.556	58.41
1016.717	34
1016.877	75.85
1017.038	28.19
1017.199	45.43
1017.359	35.17
1017.52	70.81
1017.681	14.24
1017.841	29.55
1018.002	13.47
1018.162	21.6
1018.323	82.25
1018.483	20.83
1018.644	28.38
1018.804	-3.39
1018.964	8.43
1019.125	35.75
1019.285	39.04
1019.446	-16.37
1019.606	10.95
1019.766	-3.39
1019.926	55.12
1020.087	50.08
1020.247	-12.88
1020.407	40.98
1020.567	69.07
1020.728	33.62
1020.888	6.68
1021.048	23.73
1021.208	-0.1
1021.368	-19.47
1021.528	65.2
1021.688	67.52
1021.848	60.93
1022.008	32.26
1022.168	13.47
1022.328	16.37
1022.488	48.15
1022.648	17.92
1022.808	17.73
1022.968	39.62
1023.128	-13.08
1023.288	21.99
1023.448	47.18
1023.608	32.26
1023.767	45.24
1023.927	5.72
1024.087	9.01
1024.247	-3
1024.406	10.75
1024.566	8.23
1024.726	0.48
1024.885	24.32
1025.045	45.82
1025.205	44.08
1025.364	23.15
1025.524	48.15
1025.683	4.17
1025.843	50.08
1026.003	16.76
1026.162	81.28
1026.321	73.53
1026.481	35.75
1026.64	6.3
1026.8	29.16
1026.959	27.42
1027.119	35.75
1027.278	15.21
1027.437	-14.24
1027.597	21.02
1027.756	27.03
1027.915	43.11
1028.074	34.58
1028.234	-4.55
1028.393	39.62
1028.552	2.42
1028.711	-48.53
1028.87	77.6
1029.03	-46.01
1029.189	12.88
1029.348	-25.67
1029.507	21.41
1029.666	14.82
1029.825	-2.42
1029.984	-11.92
1030.143	51.44
1030.302	26.64
1030.461	-48.92
1030.62	28.77
1030.779	40.78
1030.938	-22.18
1031.097	-15.79
1031.255	30.13
1031.414	66.36
1031.573	56.28
1031.732	-34.58
1031.891	16.37
1032.049	60.93
1032.208	23.15
1032.367	-6.88
1032.525	-10.75
1032.684	0.68
1032.843	8.04
1033.001	-30.9
1033.16	158.97
1033.319	62.48
1033.477	40.01
1033.636	-17.15
1033.794	-42.14
1033.953	34.39
1034.111	41.75
1034.27	-3.58
1034.428	40.78
1034.587	-24.7
1034.745	18.5
1034.903	16.18
1035.062	50.08
1035.22	-26.64
1035.378	62.87
1035.537	-25.87
1035.695	47.37
1035.853	12.88
1036.011	48.92
1036.17	43.5
1036.328	-39.23
1036.486	17.53
1036.644	-0.87
1036.802	-79.92
1036.96	-21.99
1037.119	-1.65
1037.277	-13.08
1037.435	-10.95
1037.593	-18.5
1037.751	-1.26
1037.909	31.29
1038.067	31.29
