Data from gum_old_FLMT105791__39__15-43-01-258.txt Node

Date: Mon Mar 20 15:43:01 GMT 2023
User: antho
Spectrometer: FLMT10579
Trigger mode: 0
Integration Time (sec): 1.000000E-1
Scans to average: 10
Electric dark correction enabled: true
Nonlinearity correction enabled: false
Boxcar width: 0
XAxis mode: Wavelengths
Number of Pixels in Spectrum: 3648
>>>>>Begin Spectral Data<<<<<
345.248	-155.08
345.464	-155.08
345.681	-155.08
345.898	-181.23
346.114	-154.5
346.331	-52.97
346.548	21.04
346.764	3.79
346.981	-16.94
347.197	-15
347.414	15.03
347.631	-11.71
347.847	48.74
348.064	22.2
348.28	57.66
348.497	-48.91
348.713	-22.94
348.93	48.55
349.146	16.19
349.363	18.13
349.579	34.41
349.796	9.22
350.012	22.01
350.229	65.21
350.445	24.14
350.661	-27.59
350.878	40.99
351.094	47.19
351.311	55.91
351.527	58.04
351.743	21.43
351.96	43.9
352.176	77.22
352.392	34.02
352.609	52.62
352.825	9.22
353.041	37.7
353.257	23.75
353.474	19.29
353.69	50.68
353.906	34.6
354.122	19.88
354.339	106.48
354.555	29.56
354.771	26.08
354.987	76.64
355.203	79.36
355.42	26.85
355.636	33.24
355.852	50.29
356.068	61.53
356.284	16.39
356.5	89.82
356.716	51.26
356.932	27.43
357.148	90.21
357.364	27.43
357.58	80.13
357.796	78.19
358.012	90.21
358.228	64.82
358.444	-19.46
358.66	69.09
358.876	74.71
359.092	36.54
359.308	35.76
359.524	46.22
359.74	51.26
359.956	35.96
360.172	64.05
360.388	95.44
360.604	52.42
360.819	132.05
361.035	87.11
361.251	78.77
361.467	29.37
361.683	68.51
361.898	56.69
362.114	94.08
362.33	53.59
362.546	93.5
362.762	71.41
362.977	72.38
363.193	46.61
363.409	107.26
363.624	47.58
363.84	56.11
364.056	18.33
364.271	91.76
364.487	74.12
364.703	44.09
364.918	32.66
365.134	61.34
365.35	35.57
365.565	175.07
365.781	79.36
365.996	96.21
366.212	166.74
366.427	88.85
366.643	80.71
366.858	86.14
367.074	46.81
367.289	125.27
367.505	167.32
367.72	66.18
367.936	92.34
368.151	125.08
368.367	107.06
368.582	113.46
368.798	81.68
369.013	117.91
369.228	90.98
369.444	108.03
369.659	138.64
369.874	95.05
370.09	127.6
370.305	42.93
370.52	98.73
370.736	142.13
370.951	106.87
371.166	131.28
371.381	157.44
371.597	127.21
371.812	64.63
372.027	105.9
372.242	95.24
372.458	170.61
372.673	80.71
372.888	84.97
373.103	119.66
373.318	181.65
373.533	135.35
373.749	127.21
373.964	33.83
374.179	131.86
374.394	65.02
374.609	148.33
374.824	42.16
375.039	143.87
375.254	87.88
375.469	146
375.684	91.17
375.899	151.62
376.114	125.47
376.329	121.21
376.544	143.1
376.759	132.64
376.974	89.82
377.189	114.62
377.404	113.26
377.619	151.04
377.834	92.92
378.049	94.47
378.264	84.2
378.478	146.78
378.693	124.69
378.908	162.47
379.123	135.54
379.338	189.79
379.553	162.67
379.767	151.82
379.982	157.05
380.197	152.4
380.412	127.99
380.626	141.74
380.841	220.98
381.056	162.28
381.271	203.16
381.485	107.64
381.7	112.49
381.915	150.65
382.129	124.89
382.344	117.52
382.559	106.67
382.773	162.28
382.988	57.66
383.202	133.02
383.417	71.41
383.632	214.78
383.846	94.66
384.061	122.17
384.275	94.47
384.49	120.24
384.704	132.44
384.919	139.8
385.133	127.02
385.348	174.68
385.562	123.34
385.777	199.87
385.991	139.42
386.206	142.52
386.42	132.44
386.634	178.94
386.849	156.85
387.063	188.05
387.277	136.7
387.492	134.77
387.706	132.83
387.92	126.82
388.135	194.44
388.349	159.18
388.563	169.45
388.778	174.49
388.992	154.53
389.206	188.82
389.42	215.75
389.635	158.99
389.849	210.33
390.063	236.87
390.277	247.92
390.491	279.5
390.706	245.01
390.92	240.17
391.134	222.15
391.348	251.21
391.562	169.45
391.776	247.92
391.99	214.4
392.205	262.06
392.419	213.82
392.633	225.83
392.847	234.16
393.061	152.79
393.275	209.75
393.489	135.54
393.703	149.3
393.917	144.65
394.131	104.93
394.345	174.29
394.559	199.48
394.773	173.13
394.986	238.23
395.2	232.42
395.414	260.51
395.628	205.1
395.842	258.18
396.056	245.78
396.27	211.49
396.484	241.33
396.697	232.61
396.911	225.25
397.125	196.96
397.339	180.88
397.553	181.46
397.766	256.44
397.98	263.42
398.194	306.81
398.408	263.22
398.621	322.12
398.835	323.67
399.049	345.56
399.262	355.64
399.476	386.44
399.69	379.47
399.903	422.48
400.117	344.4
400.331	381.6
400.544	340.14
400.758	492.62
400.971	368.81
401.185	419.19
401.398	348.08
401.612	450.19
401.826	430.43
402.039	446.7
402.253	394.97
402.466	449.41
402.68	400.39
402.893	464.14
403.106	423.06
403.32	392.06
403.533	445.93
403.747	427.33
403.96	412.6
404.174	442.63
404.387	389.35
404.6	436.63
404.814	464.14
405.027	433.91
405.24	421.9
405.454	419.58
405.667	484.87
405.88	387.61
406.094	433.72
406.307	466.66
406.52	461.62
406.733	382.38
406.947	373.46
407.16	477.51
407.373	466.46
407.586	442.05
407.799	409.31
408.012	508.7
408.226	482.93
408.439	508.89
408.652	436.04
408.865	485.45
409.078	531.76
409.291	509.67
409.504	450.96
409.717	522.84
409.93	522.07
410.143	506.57
410.357	420.35
410.57	396.33
410.783	421.13
410.996	486.42
411.209	493.01
411.421	563.34
411.634	533.11
411.847	508.51
412.06	535.63
412.273	541.06
412.486	535.63
412.699	602.67
412.912	534.66
413.125	561.2
413.338	535.05
413.55	561.4
413.763	549.97
413.976	534.47
414.189	529.82
414.402	529.04
414.615	624.75
414.827	576.9
415.04	588.52
415.253	591.24
415.466	596.27
415.678	626.11
415.891	570.7
416.104	554.23
416.316	543.96
416.529	558.49
416.742	618.75
416.954	658.27
417.167	600.73
417.38	582.9
417.592	612.55
417.805	537.57
418.017	529.62
418.23	603.05
418.442	528.27
418.655	557.14
418.868	579.61
419.08	596.85
419.293	624.37
419.505	624.95
419.718	630.37
419.93	638.12
420.142	579.03
420.355	630.18
420.567	635.6
420.78	601.31
420.992	572.44
421.205	645.87
421.417	592.4
421.629	628.24
421.842	577.87
422.054	589.3
422.266	674.74
422.479	649.17
422.691	594.72
422.903	616.04
423.115	585.23
423.328	572.44
423.54	597.05
423.752	594.53
423.964	635.02
424.177	621.27
424.389	640.06
424.601	731.9
424.813	660.6
425.025	677.26
425.238	676.1
425.45	634.25
425.662	614.29
425.874	939.59
426.086	659.24
426.298	663.12
426.51	648.58
426.722	652.27
426.934	645.29
427.146	670.87
427.358	641.8
427.57	680.75
427.782	635.99
427.994	602.86
428.206	587.55
428.418	629.02
428.63	700.51
428.842	716.01
429.054	668.35
429.266	684.43
429.478	623.01
429.69	636.38
429.902	594.14
430.114	626.3
430.325	599.37
430.537	557.72
430.749	519.94
430.961	479.44
431.173	484.09
431.384	554.23
431.596	478.67
431.808	578.84
432.02	641.8
432.231	716.01
432.443	778.59
432.655	755.53
432.867	710.2
433.078	771.61
433.29	785.18
433.502	772.2
433.713	805.91
433.925	808.23
434.136	805.71
434.348	694.31
434.56	669.7
434.771	809.4
434.983	659.05
435.194	764.64
435.406	749.72
435.617	831.48
435.829	872.36
436.04	840.39
436.252	822.38
436.463	888.44
436.675	867.71
436.886	869.84
437.098	869.84
437.309	936.11
437.521	875.46
437.732	857.25
437.943	837.68
438.155	832.45
438.366	784.6
438.578	886.89
438.789	808.23
439	804.16
439.211	772.97
439.423	802.03
439.634	846.01
439.845	874.3
440.057	877.01
440.268	914.99
440.479	878.56
440.69	895.23
440.902	869.84
441.113	846.59
441.324	871.01
441.535	957.81
441.746	983.19
441.957	922.54
442.168	936.88
442.38	983.77
442.591	1005.66
442.802	947.54
443.013	958.19
443.224	1000.62
443.435	999.65
443.646	968.66
443.857	958.77
444.068	943.66
444.279	983.19
444.49	1077.54
444.701	996.94
444.912	1145.55
445.123	1076.96
445.334	1025.04
445.545	1038.79
445.756	986.87
445.967	946.57
446.178	997.91
446.388	1005.85
446.599	987.84
446.81	982.41
447.021	975.63
447.232	1046.93
447.443	1073.28
447.653	1062.62
447.864	1118.03
448.075	1103.12
448.286	1063.01
448.496	1097.88
448.707	1132.57
448.918	1062.04
449.129	1126.37
449.339	1041.89
449.55	1105.25
449.761	1055.84
449.971	1107.77
450.182	1103.89
450.393	1132.95
450.603	1080.25
450.814	1146.9
451.024	1134.7
451.235	1237.19
451.446	1255.6
451.656	1230.8
451.867	1175.19
452.077	1198.83
452.288	1211.23
452.498	1217.04
452.709	1162.6
452.919	1161.05
453.13	1099.43
453.34	1129.66
453.55	1047.32
453.761	1090.33
453.971	1108.35
454.182	1139.93
454.392	1131.21
454.602	1228.08
454.813	1206.96
455.023	1168.8
455.233	1113.77
455.444	1149.03
455.654	1074.44
455.864	1144
456.075	1138.38
456.285	1103.7
456.495	1155.23
456.705	1200.38
456.916	1197.66
457.126	1236.61
457.336	1206.19
457.546	1135.28
457.756	1150.78
457.967	1233.9
458.177	1183.33
458.387	1180.23
458.597	1121.52
458.807	1159.11
459.017	1135.67
459.227	1136.25
459.437	1159.11
459.647	1197.47
459.857	1221.5
460.068	1194.56
460.278	1275.94
460.488	1198.63
460.698	1219.36
460.908	1186.43
461.117	1199.8
461.327	1178.48
461.537	1231.38
461.747	1267.22
461.957	1274.19
462.167	1402.46
462.377	1312.75
462.587	1256.18
462.797	1319.14
463.007	1271.48
463.216	1292.02
463.426	1354.6
463.636	1290.86
463.846	1233.51
464.056	1231.57
464.265	1275.94
464.475	1188.56
464.685	1277.49
464.895	1286.79
465.104	1230.41
465.314	1284.27
465.524	1254.43
465.733	1239.71
465.943	1356.54
466.153	1358.67
466.362	1348.21
466.572	1342.01
466.782	1309.26
466.991	1306.55
467.201	1365.45
467.41	1234.28
467.62	1299.19
467.829	1329.8
468.039	1354.21
468.249	1354.02
468.458	1346.27
468.668	1401.1
468.877	1376.69
469.086	1419.89
469.296	1408.85
469.505	1395.09
469.715	1452.44
469.924	1399.55
470.134	1419.7
470.343	1395.48
470.552	1394.12
470.762	1362.16
470.971	1362.93
471.18	1400.71
471.39	1416.99
471.599	1365.06
471.808	1432.1
472.018	1452.64
472.227	1515.99
472.436	1569.08
472.645	1522.38
472.855	1481.31
473.064	1604.15
473.273	1582.25
473.482	1560.75
473.691	1592.72
473.901	1569.47
474.11	1527.03
474.319	1649.29
474.528	1569.08
474.737	1688.23
474.946	1666.34
475.155	1652.39
475.364	1722.33
475.573	1654.71
475.783	1698.5
475.992	1688.62
476.201	1721.17
476.41	1683.78
476.619	1617.13
476.828	1654.91
477.037	1649.1
477.245	1639.99
477.454	1726.21
477.663	1699.47
477.872	1755.66
478.081	1832.19
478.29	1750.62
478.499	1847.69
478.708	1850.01
478.917	1886.05
479.125	1792.27
479.334	1814.75
479.543	1811.26
479.752	1860.09
479.961	1829.47
480.169	1947.66
480.378	1914.34
480.587	2061.58
480.796	1940.49
481.004	1922.86
481.213	1960.64
481.422	1958.9
481.63	1989.32
481.839	1997.65
482.048	2101.88
482.256	1996.48
482.465	2083.09
482.674	2088.51
482.882	2100.33
483.091	2120.29
483.299	2064.3
483.508	2114.86
483.716	2083.28
483.925	2117.77
484.134	2054.22
484.342	2103.82
484.551	2145.28
484.759	2078.63
484.967	2178.61
485.176	2186.36
485.384	2140.05
485.593	2145.67
485.801	2119.51
486.01	2016.05
486.218	1992.8
486.426	1841.68
486.635	1848.07
486.843	1808.74
487.051	1871.52
487.26	1835.48
487.468	1962.38
487.676	2026.32
487.885	2021.48
488.093	2082.7
488.301	2168.34
488.509	2181.32
488.717	2245.06
488.926	2235.96
489.134	2201.08
489.342	2187.52
489.55	2146.06
489.758	2214.64
489.967	2232.66
490.175	2378.55
490.383	2358.6
490.591	2421.57
490.799	2315.59
491.007	2385.53
491.215	2390.37
491.423	2352.2
491.631	2342.9
491.839	2359.76
492.047	2316.36
492.255	2254.75
492.463	2242.93
492.671	2251.26
492.879	2318.69
493.087	2308.61
493.295	2377
493.503	2375.26
493.711	2479.3
493.919	2468.65
494.127	2490.15
494.334	2448.3
494.542	2417.88
494.75	2458.38
494.958	2431.45
495.166	2615.89
495.374	2553.12
495.581	2569.4
495.789	2562.81
495.997	2619.38
496.205	2494.8
496.412	2490.54
496.62	2536.46
496.828	2548.86
497.035	2556.22
497.243	2618.41
497.451	2585.86
497.658	2596.52
497.866	2590.71
498.074	2647.86
498.281	2554.67
498.489	2648.06
498.696	2526
498.904	2502.94
499.112	2489.38
499.319	2626.55
499.527	2602.33
499.734	2652.9
499.942	2560.48
500.149	2591.68
500.357	2619.58
500.564	2541.3
500.771	2559.32
500.979	2498.48
501.186	2487.44
501.394	2547.31
501.601	2500.42
501.808	2466.32
502.016	2468.65
502.223	2468.84
502.43	2527.55
502.638	2525.8
502.845	2519.6
503.052	2633.91
503.26	2566.3
503.467	2612.41
503.674	2624.03
503.881	2661.62
504.089	2685.64
504.296	2647.09
504.503	2522.12
504.71	2534.13
504.917	2587.8
505.125	2574.43
505.332	2653.48
505.539	2633.72
505.746	2735.82
505.953	2731.17
506.16	2723.42
506.367	2799.95
506.574	2829.6
506.781	2804.22
506.988	2738.92
507.195	2763.53
507.402	2690.1
507.609	2759.27
507.816	2679.06
508.023	2692.62
508.23	2646.12
508.437	2601.36
508.644	2674.99
508.851	2749.19
509.058	2706.76
509.265	2745.9
509.472	2773.41
509.679	2849.75
509.885	2804.02
510.092	2780.97
510.299	2815.07
510.506	2732.53
510.713	2738.73
510.92	2738.73
511.126	2780.39
511.333	2813.52
511.54	2825.92
511.746	2825.53
511.953	2910
512.16	2954.95
512.367	2855.56
512.573	2849.55
512.78	2826.89
512.987	2817
513.193	2767.4
513.4	2692.04
513.606	2791.62
513.813	2814.87
514.02	2796.85
514.226	2795.89
514.433	2845.1
514.639	2699.98
514.846	2764.69
515.052	2721.68
515.259	2817.2
515.465	2792.4
515.672	2814.68
515.878	2904
516.085	2813.32
516.291	2893.34
516.497	2835.02
516.704	2772.25
516.91	2710.83
517.117	2602.91
517.323	2538.78
517.529	2549.25
517.736	2494.8
517.942	2548.28
518.148	2553.51
518.354	2621.32
518.561	2670.92
518.767	2623.06
518.973	2675.76
519.179	2718
519.386	2677.89
519.592	2703.86
519.798	2692.62
520.004	2835.6
520.21	2833.08
520.417	2924.15
520.623	2918.33
520.829	2929.18
521.035	2931.12
521.241	2943.52
521.447	2947.78
521.653	3073.72
521.859	2959.6
522.065	3022.96
522.271	3102.39
522.477	3068.1
522.683	3152.38
522.889	3009.98
523.095	3013.85
523.301	3003
523.507	2971.61
523.713	3006.88
523.919	2937.13
524.125	3083.6
524.331	3083.99
524.537	3176.79
524.742	3192.87
524.948	3155.67
525.154	3199.07
525.36	3277.54
525.566	3180.67
525.772	3210.89
525.977	3141.53
526.183	3181.06
526.389	3259.14
526.595	3103.56
526.8	3106.27
527.006	2993.51
527.212	2894.7
527.417	2887.53
527.623	2876.48
527.829	2964.64
528.034	3006.3
528.24	3081.86
528.446	3077.59
528.651	3196.55
528.857	3181.44
529.062	3256.04
529.268	3267.08
529.473	3275.6
529.679	3318.03
529.884	3419.17
530.09	3335.08
530.295	3302.92
530.501	3269.79
530.706	3356.2
530.912	3251.77
531.117	3313.58
531.323	3315.9
531.528	3399.41
531.733	3382.16
531.939	3328.5
532.144	3389.91
532.35	3428.08
532.555	3412.2
532.76	3345.35
532.966	3304.08
533.171	3251.97
533.376	3172.92
533.581	3195.97
533.787	3258.17
533.992	3359.69
534.197	3287.62
534.402	3325.01
534.607	3345.16
534.813	3431.38
535.018	3309.9
535.223	3380.81
535.428	3360.08
535.633	3394.56
535.838	3476.71
536.043	3478.26
536.249	3559.25
536.454	3413.75
536.659	3541.62
536.864	3508.68
537.069	3442.23
537.274	3453.08
537.479	3418.2
537.684	3433.12
537.889	3343.8
538.094	3554.99
538.299	3450.36
538.504	3443.78
538.708	3471.87
538.913	3504.42
539.118	3484.66
539.323	3483.69
539.528	3434.86
539.733	3401.15
539.938	3479.43
540.142	3459.08
540.347	3368.02
540.552	3354.27
540.757	3396.5
540.962	3337.02
541.166	3275.8
541.371	3272.31
541.576	3371.9
541.781	3261.85
541.985	3469.54
542.19	3405.22
542.395	3529.8
542.599	3552.66
542.804	3462.57
543.008	3525.15
543.213	3473.81
543.418	3409.1
543.622	3498.22
543.827	3443.58
544.031	3485.82
544.236	3619.89
544.44	3518.18
544.645	3585.79
544.849	3534.64
545.054	3566.61
545.258	3650.89
545.463	3618.92
545.667	3521.08
545.872	3573.39
546.076	3562.35
546.281	3552.66
546.485	3527.09
546.689	3560.02
546.894	3530.38
547.098	3519.14
547.302	3501.51
547.507	3523.21
547.711	3574.17
547.915	3555.76
548.119	3440.48
548.324	3434.86
548.528	3562.74
548.732	3470.13
548.936	3507.91
549.141	3532.9
549.345	3511.98
549.549	3490.66
549.753	3537.94
549.957	3629.97
550.161	3602.46
550.366	3554.21
550.57	3501.13
550.774	3512.17
550.978	3553.24
551.182	3531.74
551.386	3450.94
551.59	3507.91
551.794	3461.6
551.998	3563.32
552.202	3559.25
552.406	3515.85
552.61	3568.74
552.814	3561.77
553.018	3570.49
553.222	3463.34
553.426	3485.82
553.63	3576.69
553.833	3520.5
554.037	3423.43
554.241	3506.55
554.445	3512.17
554.649	3460.24
554.853	3495.7
555.056	3516.43
555.26	3610.4
555.464	3527.28
555.668	3572.04
555.871	3545.69
556.075	3570.87
556.279	3520.11
556.483	3445.33
556.686	3504.03
556.89	3488.34
557.094	3495.7
557.297	3398.25
557.501	3477.1
557.704	3348.07
557.908	3446.1
558.112	3402.7
558.315	3511.39
558.519	3402.31
558.722	3372.86
558.926	3393.98
559.129	3261.27
559.333	3309.32
559.536	3314.35
559.74	3238.21
559.943	3220
560.147	3295.56
560.35	3304.67
560.553	3304.47
560.757	3271.73
560.96	3334.12
561.164	3305.63
561.367	3455.01
561.57	3352.72
561.774	3361.63
561.977	3325.98
562.18	3280.25
562.384	3443.58
562.587	3326.37
562.79	3333.15
562.993	3317.45
563.197	3324.04
563.4	3397.66
563.603	3379.84
563.806	3408.13
564.009	3318.42
564.212	3351.75
564.416	3240.15
564.619	3313
564.822	3189
565.025	3327.14
565.228	3273.08
565.431	3333.73
565.634	3190.35
565.837	3239.57
566.04	3208.57
566.243	3180.86
566.446	3083.41
566.649	3196.94
566.852	3095.61
567.055	3117.51
567.258	3178.15
567.461	3257.97
567.664	3197.33
567.867	3119.25
568.07	3133.01
568.273	3202.37
568.475	3234.72
568.678	3125.84
568.881	3116.15
569.084	3128.74
569.287	2990.41
569.489	3093.68
569.692	3071.39
569.895	3119.64
570.098	3053.18
570.3	3048.73
570.503	3006.3
570.706	2961.15
570.909	2988.47
571.111	2943.52
571.314	2906.71
571.516	2919.5
571.719	2935.19
571.922	2920.27
572.124	2909.03
572.327	2934.22
572.529	2950.69
572.732	2969.48
572.935	2993.51
573.137	3096.39
573.34	2990.6
573.542	3052.6
573.745	3037.88
573.947	2981.11
574.15	3004.75
574.352	3004.55
574.554	3067.71
574.757	2965.8
574.959	2938.29
575.162	2982.08
575.364	2922.01
575.566	2991.57
575.769	2860.4
575.971	2912.52
576.173	2756.55
576.376	2887.33
576.578	2956.31
576.78	2962.31
576.982	2799.18
577.185	2890.43
577.387	2823.4
577.589	2846.26
577.791	2885.98
577.993	2910.78
578.196	2880.36
578.398	2863.12
578.6	2874.35
578.802	2773.02
579.004	2753.84
579.206	2779.03
579.408	2845.1
579.61	2754.81
579.812	2884.62
580.014	2789.88
580.216	2774.19
580.418	2832.12
580.62	2829.79
580.822	2787.17
581.024	2869.9
581.226	2863.7
581.428	2781.74
581.63	2852.07
581.832	2827.47
582.034	2853.82
582.236	2825.92
582.438	2908.84
582.64	2898.96
582.841	2889.27
583.043	2926.86
583.245	2822.24
583.447	2860.21
583.649	2820.3
583.85	2838.12
584.052	2895.67
584.254	2764.3
584.456	2866.6
584.657	2768.76
584.859	2820.88
585.061	2773.41
585.262	2805.38
585.464	2760.82
585.666	2827.08
585.867	2714.51
586.069	2823.01
586.27	2753.45
586.472	2734.27
586.674	2711.99
586.875	2731.95
587.077	2726.72
587.278	2742.99
587.48	2736.41
587.681	2845.48
587.883	2762.17
588.084	2672.66
588.285	2723.42
588.487	2672.08
588.688	2722.46
588.89	2571.72
589.091	2590.71
589.292	2525.41
589.494	2482.98
589.695	2418.66
589.896	2327.4
590.098	2376.42
590.299	2467.87
590.5	2417.88
590.702	2449.85
590.903	2488.99
591.104	2592.26
591.305	2577.53
591.507	2624.42
591.708	2638.18
591.909	2584.51
592.11	2692.23
592.311	2607.76
592.512	2572.88
592.714	2549.44
592.915	2575.98
593.116	2567.46
593.317	2598.84
593.518	2572.69
593.719	2623.64
593.92	2649.41
594.121	2659.87
594.322	2560.68
594.523	2616.09
594.724	2559.9
594.925	2569.78
595.126	2593.03
595.327	2575.59
595.528	2549.44
595.729	2579.86
595.929	2565.91
596.13	2564.75
596.331	2626.16
596.532	2616.09
596.733	2687.97
596.934	2652.9
597.135	2610.08
597.335	2622.29
597.536	2600.98
597.737	2608.92
597.938	2564.36
598.138	2587.03
598.339	2570.56
598.54	2582.76
598.74	2575.59
598.941	2559.51
599.142	2626.55
599.342	2589.54
599.543	2535.3
599.744	2539.56
599.944	2548.47
600.145	2550.99
600.345	2600.98
600.546	2602.72
600.746	2625.58
600.947	2667.04
601.147	2530.45
601.348	2630.81
601.548	2515.53
601.749	2548.47
601.949	2488.6
602.15	2513.01
602.35	2489.96
602.551	2539.36
602.751	2463.8
602.951	2495
603.152	2447.33
603.352	2581.02
603.552	2486.28
603.753	2559.13
603.953	2577.92
604.153	2564.36
604.354	2546.34
604.554	2517.08
604.754	2586.83
604.954	2512.24
605.155	2569.01
605.355	2500.81
605.555	2563.97
605.755	2592.64
605.955	2555.25
606.155	2569.4
606.356	2499.45
606.556	2505.46
606.756	2559.9
606.956	2533.16
607.156	2586.64
607.356	2492.09
607.556	2533.75
607.756	2517.47
607.956	2581.41
608.156	2514.37
608.356	2461.09
608.556	2531.03
608.756	2449.47
608.956	2426.22
609.156	2471.17
609.356	2447.14
609.556	2446.37
609.755	2466.13
609.955	2445.78
610.155	2457.99
610.355	2476.78
610.555	2420.79
610.755	2443.85
610.954	2376.81
611.154	2459.73
611.354	2472.33
611.554	2450.05
611.753	2413.43
611.953	2385.72
612.153	2478.72
612.352	2448.88
612.552	2375.84
612.752	2349.69
612.951	2373.52
613.151	2362.47
613.351	2340.19
613.55	2384.95
613.75	2366.15
613.949	2322.37
614.149	2366.15
614.348	2346.2
614.548	2310.74
614.747	2296.99
614.947	2321.4
615.146	2311.32
615.346	2382.04
615.545	2367.12
615.745	2302.41
615.944	2380.1
616.144	2315.2
616.343	2312.49
616.542	2252.23
616.742	2280.71
616.941	2295.05
617.14	2192.17
617.34	2270.25
617.539	2288.85
617.738	2223.75
617.938	2335.35
618.137	2254.75
618.336	2215.42
618.535	2332.64
618.734	2277.22
618.934	2302.99
619.133	2253.97
619.332	2325.85
619.531	2240.8
619.73	2301.25
619.929	2293.69
620.128	2319.65
620.328	2303.38
620.527	2290.98
620.726	2332.05
620.925	2307.64
621.124	2282.07
621.323	2306.87
621.522	2225.11
621.721	2252.62
621.92	2226.66
622.119	2273.74
622.318	2228.59
622.517	2250.29
622.715	2260.56
622.914	2190.23
623.113	2212.32
623.312	2154.19
623.511	2232.08
623.71	2205.15
623.909	2160.98
624.107	2276.26
624.306	2156.52
624.505	2139.66
624.704	2139.28
624.902	2160.78
625.101	2233.63
625.3	2153.81
625.499	2130.56
625.697	2111.96
625.896	2105.76
626.095	2149.93
626.293	2089.48
626.492	2127.26
626.69	2140.24
626.889	2151.48
627.088	2160.39
627.286	2146.44
627.485	2093.36
627.683	2110.6
627.882	2118.55
628.08	2056.35
628.279	2073.01
628.477	2165.04
628.676	2050.15
628.874	2097.23
629.073	2036.98
629.271	2021.28
629.469	2090.45
629.668	2071.08
629.866	2024
630.065	2009.66
630.263	2078.63
630.461	2033.68
630.66	2067.78
630.858	2034.65
631.056	2047.25
631.254	2074.76
631.453	2019.54
631.651	2055
631.849	2041.43
632.047	2059.45
632.245	2010.05
632.444	1999.78
632.642	2041.05
632.84	2093.75
633.038	2048.02
633.236	2010.63
633.434	2039.3
633.632	2029.23
633.83	1992.8
634.028	2102.27
634.227	2034.46
634.425	2117.96
634.623	2030
634.821	2044.53
635.019	2090.26
635.216	2034.27
635.414	2083.28
635.612	2029.03
635.81	2048.02
636.008	2083.28
636.206	2065.85
636.404	2046.86
636.602	2027.1
636.8	2045.89
636.997	2064.1
637.195	2068.17
637.393	2027.29
637.591	2149.74
637.789	2088.9
637.986	2038.14
638.184	2037.95
638.382	2103.24
638.58	2078.05
638.777	2128.62
638.975	2046.28
639.173	2091.03
639.37	2021.09
639.568	2054.61
639.765	2065.07
639.963	2041.43
640.161	2044.73
640.358	2057.71
640.556	1969.75
640.753	1964.71
640.951	1936.81
641.148	2024.19
641.346	1967.62
641.543	1953.86
641.741	2008.88
641.938	1924.8
642.136	1964.9
642.333	1912.79
642.531	1975.37
642.728	2008.11
642.925	1990.67
643.123	1959.28
643.32	2000.36
643.517	1939.72
643.715	1968
643.912	1949.4
644.109	1927.9
644.306	1938.55
644.504	1922.67
644.701	1970.52
644.898	1960.45
645.095	1896.7
645.293	1912.79
645.49	1951.73
645.687	1928.09
645.884	1979.43
646.081	1863.38
646.278	1868.03
646.475	1870.36
646.672	1834.9
646.87	1898.64
647.067	1869.58
647.264	1860.09
647.461	1833.93
647.658	1780.26
647.855	1907.94
648.052	1847.88
648.249	1735.12
648.446	1799.83
648.642	1807
648.839	1796.92
649.036	1842.26
649.233	1733.57
649.43	1755.85
649.627	1767.09
649.824	1780.46
650.021	1699.66
650.217	1746.55
650.414	1764.38
650.611	1763.99
650.808	1799.06
651.004	1783.56
651.201	1793.05
651.398	1856.99
651.595	1812.81
651.791	1765.93
651.988	1828.12
652.185	1769.99
652.381	1815.52
652.578	1758.76
652.775	1798.86
652.971	1782.01
653.168	1785.49
653.364	1831.22
653.561	1689.78
653.757	1773.29
653.954	1804.67
654.15	1727.56
654.347	1867.06
654.543	1794.6
654.74	1754.11
654.936	1712.45
655.133	1734.73
655.329	1758.37
655.525	1726.79
655.722	1795.96
655.918	1693.66
656.115	1707.41
656.311	1551.83
656.507	1501.85
656.704	1478.79
656.9	1529.17
657.096	1546.8
657.292	1553
657.489	1614.41
657.685	1609.57
657.881	1557.45
658.077	1589.81
658.273	1651.03
658.47	1736.28
658.666	1661.69
658.862	1756.24
659.058	1685.13
659.254	1766.31
659.45	1705.67
659.646	1725.63
659.842	1689.59
660.038	1752.36
660.234	1680.29
660.43	1702.76
660.626	1776
660.822	1729.5
661.018	1772.13
661.214	1735.12
661.41	1674.48
661.606	1771.16
661.802	1808.94
661.998	1722.53
662.194	1714.97
662.39	1756.43
662.586	1744.61
662.781	1724.66
662.977	1792.86
663.173	1737.44
663.369	1731.83
663.564	1734.15
663.76	1745.19
663.956	1697.14
664.152	1703.54
664.347	1625.46
664.543	1726.79
664.739	1693.46
664.934	1626.81
665.13	1627.2
665.326	1722.14
665.521	1714.19
665.717	1664.79
665.912	1658.78
666.108	1601.43
666.304	1672.54
666.499	1642.7
666.695	1604.92
666.89	1640.76
667.086	1681.06
667.281	1641.93
667.477	1730.86
667.672	1706.44
667.867	1694.43
668.063	1691.91
668.258	1613.06
668.454	1670.21
668.649	1715.94
668.844	1663.82
669.04	1698.11
669.235	1647.55
669.43	1589.62
669.626	1572.57
669.821	1620.03
670.016	1599.3
670.211	1644.83
670.407	1565.98
670.602	1644.64
670.797	1597.17
670.992	1660.53
671.187	1584.19
671.382	1671.76
671.578	1594.85
671.773	1643.67
671.968	1604.53
672.163	1580.51
672.358	1613.83
672.553	1552.42
672.748	1581.28
672.943	1657.04
673.138	1598.92
673.333	1633.01
673.528	1561.13
673.723	1610.73
673.918	1576.44
674.113	1553.58
674.308	1668.28
674.503	1602.98
674.698	1633.6
674.892	1590.39
675.087	1632.63
675.282	1583.8
675.477	1560.94
675.672	1597.17
675.867	1594.85
676.061	1573.53
676.256	1542.92
676.451	1565.59
676.646	1571.02
676.84	1550.67
677.035	1541.18
677.23	1565.4
677.424	1577.6
677.619	1597.17
677.814	1634.76
678.008	1627.4
678.203	1540.4
678.397	1544.47
678.592	1566.56
678.787	1646.38
678.981	1525.48
679.176	1614.03
679.37	1568.5
679.565	1527.81
679.759	1564.04
679.954	1583.22
680.148	1566.17
680.342	1634.76
680.537	1563.65
680.731	1540.6
680.926	1578.96
681.12	1589.23
681.314	1531.49
681.509	1569.27
681.703	1550.67
681.897	1558.03
682.092	1536.14
682.286	1524.32
682.48	1618.87
682.674	1627.59
682.869	1542.34
683.063	1556.87
683.257	1628.75
683.451	1499.52
683.645	1566.75
683.839	1543.12
684.034	1497.39
684.228	1559
684.422	1503.98
684.616	1465.04
684.81	1531.3
685.004	1542.34
685.198	1533.43
685.392	1531.88
685.586	1530.13
685.78	1500.1
685.974	1538.66
686.168	1506.5
686.362	1579.73
686.556	1455.15
686.75	1425.71
686.944	1399.36
687.138	1375.91
687.331	1269.93
687.525	1228.08
687.719	1199.6
687.913	1257.73
688.107	1268.38
688.301	1179.84
688.494	1277.29
688.688	1225.37
688.882	1185.65
689.076	1200.38
689.269	1255.21
689.463	1325.15
689.657	1248.43
689.85	1272.06
690.044	1296.67
690.238	1299.96
690.431	1292.02
690.625	1268.58
690.818	1314.3
691.012	1323.21
691.205	1359.64
691.399	1305.78
691.593	1348.21
691.786	1413.69
691.98	1376.88
692.173	1417.37
692.366	1386.18
692.56	1420.67
692.753	1433.65
692.947	1357.12
693.14	1438.49
693.333	1422.02
693.527	1364.09
693.72	1421.44
693.914	1360.22
694.107	1366.22
694.3	1380.56
694.493	1367.19
694.687	1447.21
694.88	1363.9
695.073	1451.28
695.266	1420.86
695.46	1398.97
695.653	1432.68
695.846	1434.81
696.039	1348.79
696.232	1406.91
696.425	1469.3
696.618	1438.88
696.812	1450.5
697.005	1512.12
697.198	1591.55
697.391	1531.88
697.584	1531.1
697.777	1600.85
697.97	1538.85
698.163	1582.83
698.356	1560.36
698.549	1637.47
698.742	1648.9
698.935	1561.72
699.127	1579.93
699.32	1561.33
699.513	1568.69
699.706	1561.91
699.899	1606.67
700.092	1570.63
700.285	1620.81
700.477	1548.35
700.67	1608.22
700.863	1636.31
701.056	1695.98
701.248	1641.73
701.441	1714
701.634	1656.26
701.826	1762.44
702.019	1660.14
702.212	1705.48
702.404	1668.86
702.597	1658.01
702.79	1702.57
702.982	1710.71
703.175	1764.96
703.367	1807.58
703.56	1795.37
703.752	1821.72
703.945	1830.44
704.137	1829.47
704.33	1861.64
704.522	1862.02
704.715	1900.58
704.907	1903.1
705.1	1944.95
705.292	1966.26
705.484	1952.89
705.677	2004.04
705.869	2012.18
706.061	2051.31
706.254	2065.85
706.446	2009.66
706.638	2023.8
706.831	2121.45
707.023	2033.49
707.215	2146.83
707.407	2172.02
707.599	2143.73
707.792	2195.85
707.984	2191.59
708.176	2235.96
708.368	2206.51
708.56	2228.98
708.752	2265.21
708.944	2226.07
709.136	2276.64
709.329	2245.64
709.521	2398.9
709.713	2345.42
709.905	2371.77
710.097	2443.46
710.289	2354.53
710.481	2404.32
710.672	2415.56
710.864	2439.39
711.056	2473.3
711.248	2454.31
711.44	2461.67
711.632	2516.31
711.824	2548.47
712.016	2541.11
712.207	2563.2
712.399	2585.86
712.591	2630.23
712.783	2637.98
712.975	2641.47
713.166	2587.99
713.358	2617.25
713.55	2673.24
713.741	2729.24
713.933	2718.19
714.125	2730.98
714.316	2663.75
714.508	2794.92
714.7	2783.87
714.891	2806.74
715.083	2828.44
715.274	2779.22
715.466	2838.9
715.657	2896.05
715.849	2755.2
716.04	2803.64
716.232	2772.64
716.423	2842.77
716.615	2775.93
716.806	2724.2
716.998	2684.67
717.189	2626.36
717.381	2567.65
717.572	2483.37
717.763	2577.73
717.955	2538.78
718.146	2543.05
718.337	2466.9
718.528	2394.83
718.72	2353.37
718.911	2401.61
719.102	2329.73
719.293	2413.62
719.485	2410.72
719.676	2413.43
719.867	2355.89
720.058	2402.97
720.249	2394.05
720.44	2436.1
720.632	2434.35
720.823	2488.41
721.014	2674.6
721.205	2652.13
721.396	2733.11
721.587	2870.67
721.778	2928.21
721.969	2947.59
722.16	3046.4
722.351	3029.54
722.542	3165.56
722.733	3156.84
722.924	3113.05
723.115	3180.09
723.305	3131.84
723.496	3133.59
723.687	3012.69
723.878	3048.53
724.069	3038.46
724.26	3100.84
724.45	3031.87
724.641	2967.93
724.832	3038.46
725.023	3018.11
725.213	3036.33
725.404	3002.03
725.595	3054.15
725.785	3033.81
725.976	3137.46
726.167	3078.56
726.357	3103.75
726.548	3167.69
726.739	3130.87
726.929	3212.44
727.12	3206.05
727.31	3303.31
727.501	3235.11
727.691	3194.23
727.882	3193.84
728.072	3299.24
728.263	3297.88
728.453	3344.77
728.644	3410.84
728.834	3359.69
729.024	3288
729.215	3335.86
729.405	3381.58
729.596	3445.33
729.786	3477.88
729.976	3490.86
730.167	3475.74
730.357	3474
730.547	3502.09
730.737	3523.6
730.928	3540.65
731.118	3620.28
731.308	3530.58
731.498	3608.85
731.688	3698.17
731.879	3700.1
732.069	3788.07
732.259	3748.54
732.449	3832.63
732.639	3929.89
732.829	3911.09
733.019	3978.71
733.209	4083.34
733.399	4032.96
733.589	4102.32
733.779	4130.03
733.969	4126.74
734.159	4226.9
734.349	4289.1
734.539	4336.56
734.729	4336.56
734.919	4363.88
735.109	4433.82
735.299	4327.26
735.488	4376.48
735.678	4369.89
735.868	4424.91
736.058	4396.43
736.248	4363.11
736.437	4289.29
736.627	4326.88
736.817	4488.85
737.007	4380.54
737.196	4483.81
737.386	4457.85
737.576	4416.19
737.765	4566.74
737.955	4459.59
738.144	4650.82
738.334	4607.23
738.524	4482.07
738.713	4522.37
738.903	4504.74
739.092	4567.9
739.282	4572.55
739.471	4557.44
739.661	4595.22
739.85	4636.1
740.04	4550.07
740.229	4622.73
740.419	4690.15
740.608	4669.42
740.797	4707.59
740.987	4752.54
741.176	4738.59
741.365	4688.41
741.555	4577.59
741.744	4747.31
741.933	4725.22
742.123	4737.43
742.312	4776.56
742.501	4845.15
742.69	4777.53
742.88	4671.55
743.069	4862.59
743.258	4805.24
743.447	4882.35
743.636	4849.22
743.825	4803.3
744.014	4844.18
744.204	4907.34
744.393	4774.04
744.582	4934.66
744.771	4919.74
744.96	4882.16
745.149	4883.32
745.338	4887
745.527	4964.89
745.716	4876.15
745.905	4857.16
746.094	4961.2
746.283	4980.39
746.471	4949.77
746.66	5017.58
746.849	4960.62
747.038	4970.12
747.227	4924.01
747.416	4950.16
747.604	4922.84
747.793	4955.97
747.982	4966.24
748.171	4979.61
748.359	4977.87
748.548	4966.44
748.737	4964.5
748.926	4981.35
749.114	4879.06
749.303	4988.52
749.491	4903.66
749.68	4883.12
749.869	4967.6
750.057	4917.81
750.246	4911.8
750.434	4935.63
750.623	4906.96
750.811	4873.44
751	4951.52
751.188	4925.36
751.377	4877.31
751.565	4892.23
751.754	4867.04
751.942	4836.24
752.131	4896.69
752.319	4824.61
752.507	4835.08
752.696	4881.19
752.884	4878.67
753.072	4857.74
753.261	4840.89
753.449	4825.97
753.637	4794
753.825	4976.12
754.014	4866.66
754.202	4893.2
754.39	4911.22
754.578	4938.15
754.766	4837.98
754.955	4817.44
755.143	4889.91
755.331	4828.1
755.519	4874.79
755.707	4812.79
755.895	4781.21
756.083	4855.81
756.271	4790.13
756.459	4790.13
756.647	4856.58
756.835	4779.08
757.023	4777.73
757.211	4740.14
757.399	4743.05
757.587	4715.53
757.775	4719.99
757.963	4748.08
758.151	4730.65
758.339	4660.12
758.526	4716.11
758.714	4684.34
758.902	4513.84
759.09	4481.1
759.278	4301.11
759.465	4046.91
759.653	3630.55
759.841	3379.45
760.028	2916.78
760.216	2580.44
760.404	2417.11
760.591	2094.52
760.779	1880.62
760.967	1669.63
761.154	1465.23
761.342	1509.6
761.529	1509.02
761.717	1574.7
761.905	1635.34
762.092	1750.04
762.28	1711.29
762.467	1753.72
762.655	1686.68
762.842	1725.43
763.029	1765.73
763.217	1800.99
763.404	1806.22
763.592	1827.15
763.779	1821.72
763.966	1861.44
764.154	1930.03
764.341	2006.56
764.528	2001.72
764.716	2088.32
764.903	2180.16
765.09	2261.53
765.277	2297.96
765.465	2489.57
765.652	2573.66
765.839	2618.22
766.026	2777.09
766.213	2819.91
766.4	2938.29
766.588	3110.34
766.775	3182.41
766.962	3235.5
767.149	3360.46
767.336	3505.78
767.523	3493.57
767.71	3593.93
767.897	3720.64
768.084	3769.85
768.271	3812.48
768.458	3885.91
768.645	3973.48
768.832	3938.41
769.019	3990.53
769.206	4010.87
769.392	4082.75
769.579	4189.51
769.766	4112.01
769.953	4169.36
770.14	4143.2
770.327	4132.16
770.513	4269.91
770.7	4302.85
770.887	4175.17
771.073	4231.16
771.26	4253.83
771.447	4153.08
771.634	4180.79
771.82	4261.97
772.007	4144.17
772.193	4189.32
772.38	4231.55
772.567	4174.78
772.753	4163.93
772.94	4193.97
773.126	4219.54
773.313	4257.71
773.499	4206.17
773.686	4272.43
773.872	4128.09
774.059	4225.16
774.245	4113.95
774.432	4156.77
774.618	4087.99
774.804	4160.25
774.991	4100.19
775.177	4157.54
775.363	4052.72
775.55	4094.77
775.736	4059.12
775.922	4118.02
776.109	4112.98
776.295	4081.59
776.481	4132.16
776.667	4122.28
776.853	4058.92
777.04	4010.68
777.226	4050.01
777.412	4093.6
777.598	4038
777.784	4060.09
777.97	4031.41
778.156	4040.91
778.342	3998.67
778.528	3988.98
778.715	3940.93
778.901	3931.83
779.087	3956.82
779.272	3945
779.458	3914
779.644	3907.99
779.83	3963.79
780.016	4022.89
780.202	3912.26
780.388	3931.24
780.574	3869.05
780.76	3904.12
780.946	3948.88
781.131	3912.84
781.317	3863.24
781.503	3850.06
781.689	3801.24
781.874	3984.72
782.06	3803.18
782.246	3861.69
782.432	3854.33
782.617	3876.41
782.803	3882.42
782.989	3780.32
783.174	3780.51
783.36	3749.7
783.545	3759.2
783.731	3776.25
783.916	3664.84
784.102	3731.68
784.288	3703.4
784.473	3668.14
784.659	3682.86
784.844	3730.13
785.029	3663.29
785.215	3696.81
785.4	3626.48
785.586	3764.62
785.771	3618.15
785.956	3707.85
786.142	3674.72
786.327	3646.82
786.512	3615.63
786.698	3652.64
786.883	3578.04
787.068	3593.35
787.254	3622.99
787.439	3540.84
787.624	3563.32
787.809	3552.27
787.994	3537.55
788.18	3626.67
788.365	3537.55
788.55	3485.04
788.735	3551.5
788.92	3469.74
789.105	3497.06
789.29	3509.26
789.475	3434.28
789.66	3452.88
789.845	3443
790.03	3399.21
790.215	3464.7
790.4	3454.24
790.585	3522.05
790.77	3458.5
790.955	3338.57
791.14	3408.32
791.325	3495.89
791.51	3335.67
791.695	3411.42
791.879	3373.45
792.064	3338.18
792.249	3429.25
792.434	3351.94
792.618	3385.07
792.803	3399.6
792.988	3341.09
793.173	3374.03
793.357	3405.03
793.542	3321.13
793.727	3377.9
793.911	3405.03
794.096	3381.58
794.281	3423.82
794.465	3450.75
794.65	3355.82
794.834	3410.84
795.019	3426.53
795.203	3449.78
795.388	3419.95
795.572	3488.92
795.757	3428.66
795.941	3454.24
796.126	3413.36
796.31	3381.78
796.494	3462.57
796.679	3408.51
796.863	3387.78
797.048	3490.66
797.232	3406.38
797.416	3457.34
797.601	3419.17
797.785	3506.94
797.969	3496.86
798.153	3401.54
798.338	3449.78
798.522	3507.71
798.706	3481.56
798.89	3507.52
799.074	3613.69
799.258	3567.19
799.443	3493.96
799.627	3474.78
799.811	3511.39
799.995	3425.37
800.179	3415.1
800.363	3436.8
800.547	3487.37
800.731	3481.17
800.915	3387.01
801.099	3402.9
801.283	3451.33
801.467	3443.2
801.651	3424.21
801.835	3513.72
802.019	3450.36
802.202	3463.73
802.386	3400.18
802.57	3394.95
802.754	3419.95
802.938	3399.21
803.121	3383.91
803.305	3492.99
803.489	3410.84
803.673	3431.57
803.856	3447.65
804.04	3418.98
804.224	3455.79
804.407	3400.96
804.591	3412
804.775	3396.7
804.958	3412.58
805.142	3536
805.326	3400.76
805.509	3439.13
805.693	3444.55
805.876	3434.86
806.06	3423.43
806.243	3465.09
806.427	3468.19
806.61	3451.53
806.794	3433.31
806.977	3454.04
807.16	3463.34
807.344	3478.84
807.527	3443
807.71	3376.35
807.894	3435.64
808.077	3425.18
808.26	3398.63
808.444	3385.07
808.627	3423.24
808.81	3347.87
808.993	3343.03
809.177	3312.42
809.36	3310.67
809.543	3332.37
809.726	3258.17
809.909	3231.82
810.092	3233.95
810.276	3231.43
810.459	3176.79
810.642	3226.59
810.825	3176.02
811.008	3201.4
811.191	3077.01
811.374	3121.57
811.557	3113.44
811.74	3190.16
811.923	3091.74
812.106	3094.64
812.289	3030.13
812.472	3046.01
812.654	3076.82
812.837	2979.95
813.02	2989.83
813.203	2905.16
813.386	2838.51
813.569	2821.65
813.751	2774.96
813.934	2777.09
814.117	2759.07
814.3	2688.55
814.482	2641.28
814.665	2622.68
814.848	2590.51
815.03	2495
815.213	2473.49
815.396	2491.9
815.578	2439.78
815.761	2413.04
815.943	2453.73
816.126	2337.67
816.309	2330.89
816.491	2257.66
816.674	2193.72
816.856	2274.9
817.039	2269.67
817.221	2315.78
817.403	2249.91
817.586	2311.9
817.768	2326.24
817.951	2213.68
818.133	2179.19
818.315	2194.88
818.498	2264.82
818.68	2324.69
818.862	2289.04
819.045	2326.44
819.227	2304.16
819.409	2296.6
819.591	2300.47
819.774	2278.97
819.956	2223.75
820.138	2331.86
820.32	2325.47
820.502	2392.89
820.684	2436.48
820.866	2396.96
821.048	2496.35
821.231	2536.26
821.413	2475.23
821.595	2502.94
821.777	2463.03
821.959	2476.01
822.141	2549.63
822.323	2429.7
822.505	2345.62
822.686	2292.72
822.868	2172.02
823.05	2097.62
823.232	2062.36
823.414	1927.7
823.596	2024.38
823.778	2017.41
823.96	2070.88
824.141	2079.41
824.323	2079.02
824.505	2155.16
824.687	2225.49
824.868	2314.04
825.05	2368.09
825.232	2415.17
825.413	2482.02
825.595	2422.73
825.777	2328.57
825.958	2404.9
826.14	2378.36
826.321	2459.15
826.503	2389.21
826.685	2456.44
826.866	2428.54
827.048	2436.68
827.229	2388.82
827.411	2357.44
827.592	2263.86
827.773	2293.69
827.955	2227.62
828.136	2213.87
828.318	2194.88
828.499	2222.2
828.68	2180.54
828.862	2175.31
829.043	2245.06
829.224	2185.78
829.406	2161.36
829.587	2136.37
829.768	2204.38
829.949	2211.54
830.131	2149.74
830.312	2242.54
830.493	2194.69
830.674	2197.79
830.855	2150.32
831.036	2175.31
831.218	2243.12
831.399	2241.57
831.58	2211.54
831.761	2191.2
831.942	2200.69
832.123	2158.84
832.304	2131.72
832.485	2182.87
832.666	2154.97
832.847	2169.11
833.028	2170.86
833.209	2193.53
833.389	2173.96
833.57	2104.01
833.751	2117.38
833.932	2196.24
834.113	2191.2
834.294	2155.94
834.475	2164.08
834.655	2194.49
834.836	2222.01
835.017	2189.84
835.198	2187.52
835.378	2190.04
835.559	2275.29
835.74	2174.73
835.92	2185
836.101	2140.63
836.281	2237.7
836.462	2193.33
836.643	2222.39
836.823	2231.11
837.004	2241.77
837.184	2300.47
837.365	2266.76
837.545	2242.35
837.726	2219.88
837.906	2284.97
838.087	2202.63
838.267	2203.99
838.448	2179.38
838.628	2200.5
838.808	2209.03
838.989	2246.22
839.169	2165.43
839.349	2199.73
839.53	2261.34
839.71	2230.92
839.89	2176.28
840.07	2254.75
840.251	2190.04
840.431	2273.74
840.611	2208.83
840.791	2170.47
840.971	2205.73
841.151	2152.45
841.332	2173.18
841.512	2251.26
841.692	2135.21
841.872	2166.59
842.052	2161.36
842.232	2241.38
842.412	2166.79
842.592	2136.56
842.772	2183.26
842.952	2176.86
843.132	2147.03
843.312	2117.38
843.492	2116.22
843.672	2211.16
843.851	2075.73
844.031	2132.5
844.211	2121.45
844.391	2100.91
844.571	2159.43
844.751	2128.04
844.93	2114.48
845.11	2081.15
845.29	2143.73
845.47	2144.31
845.649	2119.13
845.829	2177.44
846.009	2063.13
846.188	2114.28
846.368	2074.95
846.547	2116.61
846.727	2165.43
846.907	2041.43
847.086	2123.2
847.266	2170.86
847.445	2048.99
847.625	2090.84
847.804	2033.1
847.984	2055
848.163	2066.81
848.343	2034.46
848.522	2085.8
848.701	2099.56
848.881	2000.36
849.06	2054.61
849.239	2072.63
849.419	2031.36
849.598	1963.55
849.777	1946.89
849.957	1918.02
850.136	1886.63
850.315	1876.17
850.494	1867.45
850.674	1845.36
850.853	1929.25
851.032	1865.9
851.211	1955.8
851.39	1931.97
851.569	1819.98
851.748	1875.78
851.927	1957.15
852.107	1902.32
852.286	1856.79
852.465	1830.06
852.644	1940.1
852.823	1928.67
853.002	1899.42
853.181	1866.87
853.359	1884.11
853.538	1816.3
853.717	1892.05
853.896	1800.99
854.075	1711.48
854.254	1647.55
854.433	1602.6
854.611	1629.33
854.79	1603.18
854.969	1636.11
855.148	1679.9
855.327	1632.24
855.505	1690.95
855.684	1680.87
855.863	1732.6
856.041	1685.91
856.22	1803.12
856.399	1693.46
856.577	1816.11
856.756	1806.03
856.934	1903.49
857.113	1912.79
857.291	1800.41
857.47	1785.11
857.648	1799.64
857.827	1818.04
858.005	1870.36
858.184	1825.21
858.362	1877.14
858.541	1788.01
858.719	1778.13
858.898	1796.73
859.076	1778.91
859.254	1879.46
859.433	1775.03
859.611	1766.51
859.789	1738.8
859.967	1800.02
860.146	1848.27
860.324	1705.09
860.502	1779.88
860.68	1702.18
860.859	1723.69
861.037	1718.46
861.215	1748.29
861.393	1771.16
861.571	1701.21
861.749	1705.67
861.927	1706.25
862.105	1757.79
862.283	1703.34
862.461	1644.45
862.639	1696.76
862.817	1707.99
862.995	1733.18
863.173	1710.32
863.351	1664.01
863.529	1676.03
863.707	1727.95
863.885	1694.43
864.063	1616.74
864.241	1658.98
864.418	1714.78
864.596	1645.41
864.774	1613.64
864.952	1654.52
865.129	1647.74
865.307	1594.85
865.485	1573.15
865.663	1667.11
865.84	1536.33
866.018	1546.22
866.196	1416.02
866.373	1446.82
866.551	1400.32
866.728	1360.61
866.906	1407.88
867.084	1432.68
867.261	1471.62
867.439	1477.82
867.616	1511.92
867.794	1485.19
867.971	1540.02
868.149	1500.88
868.326	1608.02
868.503	1572.18
868.681	1518.32
868.858	1501.46
869.035	1477.24
869.213	1526.26
869.39	1552.42
869.567	1586.13
869.745	1534.98
869.922	1554.16
870.099	1540.4
870.276	1546.6
870.454	1531.68
870.631	1555.13
870.808	1527.42
870.985	1554.55
871.162	1589.81
871.339	1577.41
871.517	1480.54
871.694	1482.67
871.871	1530.52
872.048	1511.92
872.225	1466.39
872.402	1501.27
872.579	1479.57
872.756	1512.12
872.933	1419.51
873.11	1506.11
873.287	1490.22
873.463	1453.6
873.64	1461.94
873.817	1475.89
873.994	1453.22
874.171	1409.43
874.348	1453.6
874.524	1369.52
874.701	1434.42
874.878	1395.48
875.055	1410.79
875.231	1424.93
875.408	1435.78
875.585	1392.19
875.762	1405.56
875.938	1401.68
876.115	1397.42
876.291	1384.44
876.468	1402.65
876.645	1343.56
876.821	1367.19
876.998	1376.3
877.174	1358.47
877.351	1372.62
877.527	1355.96
877.704	1354.79
877.88	1374.56
878.057	1325.15
878.233	1364.67
878.409	1347.04
878.586	1367.39
878.762	1341.62
878.938	1364.67
879.115	1249.59
879.291	1348.98
879.467	1285.43
879.644	1286.98
879.82	1357.12
879.996	1305.78
880.172	1266.25
880.349	1328.64
880.525	1340.84
880.701	1260.44
880.877	1256.76
881.053	1308.88
881.229	1298.61
881.405	1339.88
881.581	1224.01
881.757	1277.29
881.933	1308.88
882.109	1321.66
882.285	1267.99
882.461	1245.91
882.637	1287.18
882.813	1248.81
882.989	1289.69
883.165	1336.58
883.341	1263.54
883.517	1323.99
883.693	1314.49
883.869	1291.05
884.044	1293.76
884.22	1319.73
884.396	1342.98
884.572	1329.99
884.747	1327.86
884.923	1275.94
885.099	1296.09
885.275	1349.56
885.45	1257.53
885.626	1278.07
885.801	1250.95
885.977	1271.87
886.153	1223.05
886.328	1288.34
886.504	1238.93
886.679	1275.16
886.855	1230.8
887.03	1305
887.206	1322.63
887.381	1280.2
887.557	1324.18
887.732	1255.21
887.908	1291.24
888.083	1320.11
888.258	1271.48
888.434	1253.85
888.609	1280.78
888.784	1294.34
888.96	1257.73
889.135	1240.87
889.31	1250.75
889.485	1290.66
889.661	1265.86
889.836	1319.14
890.011	1315.27
890.186	1241.84
890.361	1231.18
890.537	1246.88
890.712	1271.29
890.887	1245.33
891.062	1269.35
891.237	1360.8
891.412	1243
891.587	1286.21
891.762	1323.99
891.937	1342.59
892.112	1236.22
892.287	1223.24
892.462	1210.45
892.637	1193.6
892.812	1212.2
892.987	1188.56
893.161	1193.4
893.336	1184.3
893.511	1183.33
893.686	1188.75
893.861	1186.04
894.035	1188.17
894.21	1182.36
894.385	1136.83
894.56	1171.12
894.734	1109.32
894.909	1112.61
895.084	1088.2
895.258	1095.95
895.433	1113.19
895.608	1109.12
895.782	1029.3
895.957	1056.81
896.131	999.85
896.306	1004.5
896.48	985.51
896.655	985.32
896.829	934.94
897.004	896.19
897.178	951.41
897.353	881.47
897.527	958.77
897.701	936.49
897.876	880.69
898.05	972.14
898.224	927.39
898.399	971.95
898.573	922.93
898.747	794.28
898.921	824.7
899.096	727.63
899.27	762.9
899.444	748.36
899.618	790.21
899.792	818.31
899.967	808.43
900.141	859.58
900.315	777.04
900.489	802.03
900.663	801.26
900.837	799.32
901.011	726.08
901.185	895.61
901.359	779.95
901.533	798.16
901.707	803.78
901.881	817.92
902.055	759.8
902.229	772.58
902.403	861.51
902.576	790.02
902.75	820.83
902.924	937.85
903.098	865.39
903.272	923.9
903.446	969.43
903.619	909.18
903.793	990.94
903.967	958.77
904.14	992.29
904.314	1003.92
904.488	959.74
904.661	1003.92
904.835	980.09
905.009	1029.49
905.182	1049.84
905.356	977.76
905.529	999.07
905.703	961.1
905.876	968.46
906.05	899.29
906.223	883.41
906.397	829.35
906.57	845.43
906.744	801.84
906.917	817.53
907.09	815.01
907.264	815.6
907.437	774.33
907.61	711.17
907.784	775.3
907.957	767.55
908.13	711.75
908.304	769.87
908.477	732.87
908.65	713.3
908.823	682.49
908.996	815.21
909.17	725.12
909.343	706.71
909.516	744.88
909.689	692.18
909.862	707.48
910.035	723.37
910.208	678.62
910.381	685.98
910.554	761.35
910.727	695.47
910.9	719.11
911.073	682.68
911.246	764.83
911.419	767.35
911.592	752.24
911.765	695.08
911.938	698.57
912.11	702.64
912.283	716.4
912.456	751.85
912.629	714.46
912.802	680.75
912.974	654.01
913.147	628.82
913.32	549.39
913.493	603.05
913.665	630.18
913.838	617.2
914.01	599.57
914.183	640.84
914.356	653.82
914.528	662.92
914.701	710.97
914.873	698.77
915.046	608.09
915.218	628.05
915.391	516.84
915.563	530.21
915.736	628.44
915.908	620.1
916.081	603.83
916.253	611.77
916.425	613.32
916.598	639.09
916.77	618.36
916.942	572.83
917.115	555.78
917.287	607.51
917.459	546.67
917.632	530.98
917.804	518.58
917.976	574.96
918.148	576.12
918.32	610.61
918.493	631.34
918.665	668.54
918.837	625.34
919.009	646.45
919.181	643.55
919.353	637.15
919.525	642.58
919.697	632.31
919.869	651.1
920.041	680.55
920.213	725.31
920.385	648.78
920.557	646.45
920.729	674.93
920.901	636.77
921.073	624.37
921.244	628.05
921.416	637.54
921.588	664.08
921.76	626.69
921.932	702.83
922.103	595.11
922.275	621.46
922.447	641.22
922.619	564.3
922.79	616.62
922.962	575.35
923.134	640.84
923.305	572.83
923.477	542.99
923.648	555.39
923.82	604.22
923.991	544.93
924.163	516.26
924.335	563.14
924.506	512.38
924.677	601.89
924.849	541.83
925.02	563.14
925.192	584.45
925.363	584.65
925.535	557.14
925.706	552.87
925.877	579.8
926.049	523.04
926.22	564.69
926.391	557.91
926.562	575.35
926.734	531.37
926.905	586.59
927.076	493.39
927.247	516.06
927.419	495.91
927.59	463.56
927.761	486.81
927.932	462.39
928.103	482.16
928.274	416.28
928.445	404.66
928.616	420.54
928.787	425.97
928.958	449.61
929.129	430.43
929.3	404.85
929.471	359.51
929.642	338.2
929.813	282.21
929.984	347.11
930.155	271.55
930.326	356.22
930.496	285.7
930.667	249.27
930.838	294.03
931.009	236.68
931.18	261.67
931.35	252.37
931.521	250.63
931.692	199.48
931.863	150.46
932.033	221.76
932.204	223.31
932.374	170.61
932.545	143.49
932.716	211.68
932.886	202.58
933.057	122.37
933.227	137.87
933.398	226.8
933.568	96.41
933.739	95.44
933.909	78.39
934.08	136.12
934.25	72.38
934.421	59.98
934.591	119.27
934.761	78.19
934.932	72.57
935.102	126.63
935.272	105.12
935.443	82.46
935.613	84.97
935.783	105.71
935.953	47.19
936.123	245.78
936.294	77.22
936.464	85.36
936.634	111.52
936.804	57.27
936.974	44.48
937.144	94.08
937.314	84.59
937.484	84.01
937.655	57.07
937.825	106.87
937.995	59.59
938.165	115.78
938.334	98.34
938.504	127.6
938.674	95.24
938.844	124.11
939.014	193.28
939.184	170.42
939.354	221.57
939.524	192.89
939.694	142.71
939.863	158.6
940.033	216.53
940.203	224.28
940.373	212.65
940.542	194.44
940.712	156.08
940.882	191.15
941.051	213.43
941.221	206.26
941.391	219.63
941.56	170.42
941.73	164.8
941.899	243.27
942.069	167.9
942.238	192.12
942.408	158.21
942.577	192.12
942.747	141.35
942.916	96.6
943.086	135.93
943.255	198.9
943.425	158.4
943.594	104.93
943.763	73.74
943.933	70.83
944.102	62.31
944.271	111.32
944.441	115.97
944.61	109.58
944.779	141.16
944.948	215.75
945.117	113.46
945.287	111.71
945.456	62.5
945.625	94.27
945.794	118.49
945.963	97.57
946.132	149.88
946.301	112.29
946.47	168.67
946.639	84.97
946.808	117.52
946.977	142.13
947.146	174.68
947.315	97.37
947.484	127.21
947.653	100.47
947.822	100.09
947.991	124.89
948.16	189.79
948.329	155.89
948.498	113.26
948.666	130.89
948.835	141.16
949.004	93.89
949.173	91.37
949.341	107.26
949.51	127.02
949.679	157.24
949.847	151.04
950.016	179.14
950.185	219.24
950.353	106.48
950.522	115.39
950.69	196.38
950.859	105.71
951.028	156.66
951.196	160.73
951.365	85.56
951.533	93.11
951.701	133.8
951.87	131.28
952.038	59.01
952.207	129.54
952.375	165.96
952.543	103.19
952.712	108.22
952.88	103.57
953.048	183.2
953.217	161.89
953.385	121.4
953.553	178.36
953.721	64.24
953.89	122.17
954.058	62.11
954.226	95.24
954.394	104.35
954.562	66.37
954.73	110.36
954.898	96.6
955.067	133.41
955.235	98.92
955.403	157.63
955.571	182.62
955.739	129.15
955.907	76.84
956.075	106.48
956.243	50.1
956.41	134.57
956.578	97.37
956.746	72.77
956.914	110.74
957.082	131.09
957.25	129.73
957.418	90.4
957.585	138.45
957.753	165.57
957.921	104.35
958.089	146.97
958.256	147.75
958.424	126.44
958.592	134.96
958.759	116.75
958.927	149.1
959.095	64.63
959.262	136.12
959.43	93.89
959.597	96.79
959.765	94.47
959.932	71.41
960.1	141.94
960.267	104.93
960.435	90.59
960.602	169.64
960.77	78
960.937	72.96
961.104	99.51
961.272	86.91
961.439	97.18
961.606	139.22
961.774	167.51
961.941	112.49
962.108	118.69
962.275	115.59
962.443	180.3
962.61	145.62
962.777	180.49
962.944	152.01
963.111	170.8
963.278	157.05
963.446	123.53
963.613	117.14
963.78	185.14
963.947	142.71
964.114	143.68
964.281	223.12
964.448	149.49
964.615	108.03
964.782	140.77
964.949	153.56
965.116	162.28
965.282	186.3
965.449	126.44
965.616	102.99
965.783	177.97
965.95	134.57
966.117	98.92
966.283	133.6
966.45	152.59
966.617	148.91
966.784	176.42
966.95	155.69
967.117	163.83
967.284	109.97
967.45	127.79
967.617	197.54
967.784	189.02
967.95	216.72
968.117	136.32
968.283	187.66
968.45	254.12
968.616	185.53
968.783	184.95
968.949	151.04
969.116	195.8
969.282	136.51
969.449	141.74
969.615	171.77
969.781	102.99
969.948	156.85
970.114	101.83
970.28	233.38
970.447	136.7
970.613	213.62
970.779	147.17
970.945	180.1
971.112	161.31
971.278	149.69
971.444	148.14
971.61	190.18
971.776	145.81
971.942	163.05
972.108	201.42
972.275	169.06
972.441	167.51
972.607	223.31
972.773	130.12
972.939	164.02
973.105	159.37
973.271	94.66
973.437	140.19
973.602	98.92
973.768	150.27
973.934	140.97
974.1	168.29
974.266	70.83
974.432	153.37
974.598	114.42
974.763	174.87
974.929	126.63
975.095	200.25
975.261	89.04
975.426	97.37
975.592	163.83
975.758	183.4
975.923	89.24
976.089	111.91
976.255	170.42
976.42	160.34
976.586	159.37
976.751	140
976.917	217.3
977.082	143.68
977.248	102.8
977.413	87.88
977.579	111.32
977.744	125.66
977.91	107.84
978.075	107.84
978.24	152.4
978.406	114.23
978.571	97.76
978.736	70.44
978.902	156.08
979.067	108.03
979.232	53.2
979.397	130.12
979.563	189.99
979.728	72.19
979.893	119.27
980.058	94.08
980.223	170.42
980.388	131.28
980.554	131.47
980.719	104.16
980.884	121.79
981.049	153.95
981.214	115.01
981.379	158.6
981.544	104.93
981.709	115.59
981.874	114.42
982.039	97.57
982.204	181.46
982.368	115.39
982.533	93.5
982.698	132.44
982.863	163.44
983.028	92.72
983.193	148.72
983.357	117.52
983.522	143.87
983.687	113.84
983.852	108.42
984.016	119.46
984.181	137.09
984.346	160.54
984.51	146.78
984.675	93.89
984.839	145.42
985.004	142.32
985.168	130.89
985.333	125.85
985.498	130.7
985.662	121.79
985.827	109.39
985.991	142.9
986.155	120.43
986.32	151.04
986.484	180.3
986.649	137.67
986.813	61.34
986.977	140.58
987.142	148.14
987.306	86.14
987.47	96.41
987.634	103.57
987.799	120.24
987.963	107.26
988.127	149.1
988.291	196.77
988.455	126.05
988.62	115.39
988.784	123.14
988.948	135.93
989.112	115.97
989.276	100.28
989.44	117.33
989.604	102.99
989.768	108.03
989.932	184.37
990.096	116.56
990.26	81.29
990.424	77.42
990.588	101.83
990.752	171.39
990.915	127.6
991.079	91.17
991.243	81.1
991.407	122.95
991.571	97.76
991.734	125.08
991.898	126.24
992.062	178.94
992.226	78.77
992.389	107.84
992.553	70.83
992.717	63.86
992.88	94.66
993.044	92.34
993.207	98.73
993.371	141.55
993.535	120.62
993.698	105.51
993.862	121.01
994.025	153.17
994.189	115.2
994.352	123.53
994.515	119.27
994.679	155.3
994.842	70.64
995.006	137.67
995.169	60.56
995.332	95.24
995.496	130.89
995.659	84.01
995.822	101.44
995.985	104.93
996.149	141.94
996.312	94.86
996.475	184.56
996.638	52.62
996.801	153.17
996.964	176.04
997.128	90.4
997.291	82.07
997.454	125.66
997.617	40.41
997.78	115.59
997.943	60.76
998.106	122.37
998.269	50.29
998.432	78.97
998.595	90.98
998.758	37.12
998.92	71.61
999.083	54.94
999.246	85.56
999.409	23.36
999.572	16.39
999.735	86.33
999.897	108.22
1000.06	66.57
1000.223	81.68
1000.386	93.69
1000.548	125.66
1000.711	90.21
1000.874	75.09
1001.036	55.52
1001.199	113.26
1001.361	56.88
1001.524	108.42
1001.687	88.27
1001.849	40.61
1002.012	71.41
1002.174	77.22
1002.337	117.14
1002.499	55.52
1002.661	119.07
1002.824	18.33
1002.986	55.72
1003.149	74.71
1003.311	40.8
1003.473	136.12
1003.636	23.17
1003.798	100.47
1003.96	94.47
1004.123	75.09
1004.285	55.91
1004.447	51.26
1004.609	69.86
1004.771	144.84
1004.933	31.11
1005.096	46.42
1005.258	6.51
1005.42	40.41
1005.582	95.63
1005.744	99.89
1005.906	26.66
1006.068	48.16
1006.23	1.66
1006.392	-12.29
1006.554	34.02
1006.716	83.62
1006.878	81.49
1007.04	16.97
1007.202	57.46
1007.363	71.41
1007.525	61.53
1007.687	75.67
1007.849	101.64
1008.011	4.96
1008.172	-5.89
1008.334	47.19
1008.496	68.31
1008.658	19.29
1008.819	28.01
1008.981	-3.76
1009.143	32.28
1009.304	39.64
1009.466	58.82
1009.627	113.46
1009.789	149.88
1009.95	85.17
1010.112	16.97
1010.273	75.48
1010.435	33.83
1010.596	17.94
1010.758	45.26
1010.919	55.52
1011.081	12.9
1011.242	48.94
1011.403	93.11
1011.565	36.92
1011.726	77.81
1011.887	23.17
1012.049	51.07
1012.21	64.05
1012.371	118.49
1012.532	-8.02
1012.693	42.54
1012.855	31.5
1013.016	30.53
1013.177	72.77
1013.338	25.88
1013.499	101.25
1013.66	84.59
1013.821	76.06
1013.982	53.78
1014.143	57.27
1014.304	43.12
1014.465	55.52
1014.626	88.85
1014.787	24.72
1014.948	117.14
1015.109	-22.36
1015.27	92.14
1015.431	23.56
1015.592	36.73
1015.752	98.34
1015.913	53.59
1016.074	52.62
1016.235	51.46
1016.395	32.08
1016.556	86.72
1016.717	54.75
1016.877	96.79
1017.038	9.61
1017.199	68.51
1017.359	41.77
1017.52	46.81
1017.681	40.22
1017.841	42.35
1018.002	23.17
1018.162	11.93
1018.323	84.39
1018.483	37.7
1018.644	30.73
1018.804	7.09
1018.964	4.96
1019.125	16.58
1019.285	51.26
1019.446	6.89
1019.606	0.11
1019.766	11.35
1019.926	57.27
1020.087	70.25
1020.247	-7.44
1020.407	61.34
1020.567	92.34
1020.728	21.23
1020.888	7.09
1021.048	16.78
1021.208	38.86
1021.368	-2.79
1021.528	91.95
1021.688	69.47
1021.848	75.48
1022.008	51.84
1022.168	7.28
1022.328	34.02
1022.488	45.64
1022.648	24.33
1022.808	37.7
1022.968	48.94
1023.128	12.32
1023.288	25.3
1023.448	12.51
1023.608	74.12
1023.767	34.02
1023.927	29.37
1024.087	-15
1024.247	-6.47
1024.406	17.16
1024.566	-18.87
1024.726	12.71
1024.885	30.53
1025.045	39.25
1025.205	40.02
1025.364	10.58
1025.524	34.02
1025.683	12.32
1025.843	34.21
1026.003	29.56
1026.162	66.76
1026.321	81.68
1026.481	25.11
1026.64	-2.21
1026.8	34.21
1026.959	22.98
1027.119	30.14
1027.278	16.97
1027.437	8.83
1027.597	1.66
1027.756	49.52
1027.915	25.88
1028.074	51.26
1028.234	-15.19
1028.393	61.14
1028.552	-4.54
1028.711	-64.79
1028.87	53.39
1029.03	-12.09
1029.189	28.98
1029.348	-49.87
1029.507	19.29
1029.666	0.69
1029.825	-21.39
1029.984	-0.47
1030.143	46.22
1030.302	18.91
1030.461	-29.92
1030.62	11.16
1030.779	29.37
1030.938	7.28
1031.097	-39.61
1031.255	42.35
1031.414	73.74
1031.573	57.85
1031.732	-44.06
1031.891	2.44
1032.049	59.01
1032.208	28.79
1032.367	-4.54
1032.525	-10.16
1032.684	10.58
1032.843	24.33
1033.001	-48.32
1033.16	182.24
1033.319	76.64
1033.477	18.71
1033.636	-28.37
1033.794	-35.15
1033.953	52.42
1034.111	53.39
1034.27	4.76
1034.428	33.44
1034.587	-22.75
1034.745	8.06
1034.903	21.23
1035.062	27.43
1035.22	-8.8
1035.378	59.01
1035.537	-15
1035.695	33.05
1035.853	17.55
1036.011	61.92
1036.17	46.22
1036.328	-44.26
1036.486	37.89
1036.644	16.78
1036.802	-81.26
1036.96	-15.77
1037.119	8.83
1037.277	1.86
1037.435	-28.56
1037.593	14.45
1037.751	3.99
1037.909	45.84
1038.067	45.84
