Data from gum_old_FLMT105791__52__15-43-40-257.txt Node

Date: Mon Mar 20 15:43:40 GMT 2023
User: antho
Spectrometer: FLMT10579
Trigger mode: 0
Integration Time (sec): 1.000000E-1
Scans to average: 10
Electric dark correction enabled: true
Nonlinearity correction enabled: false
Boxcar width: 0
XAxis mode: Wavelengths
Number of Pixels in Spectrum: 3648
>>>>>Begin Spectral Data<<<<<
345.248	-167.58
345.464	-167.58
345.681	-167.58
345.898	-178.81
346.114	-168.16
346.331	-32.53
346.548	26.37
346.764	26.56
346.981	-21.1
347.197	-26.33
347.414	21.91
347.631	-16.65
347.847	64.34
348.064	-28.08
348.28	23.65
348.497	-47.65
348.713	9.51
348.93	32.76
349.146	44.77
349.363	40.32
349.579	23.65
349.796	19.2
350.012	31.79
350.229	68.41
350.445	17.07
350.661	1.76
350.878	31.02
351.094	67.83
351.311	29.47
351.527	22.88
351.743	7.77
351.96	53.68
352.176	50.58
352.392	44.58
352.609	60.27
352.825	33.92
353.041	54.46
353.257	26.56
353.474	14.16
353.69	30.63
353.906	31.4
354.122	-15.48
354.339	74.8
354.555	8.73
354.771	13
354.987	78.29
355.203	55.04
355.42	20.55
355.636	22.1
355.852	23.85
356.068	14.35
356.284	-29.63
356.5	107.93
356.716	46.9
356.932	-10.06
357.148	53.68
357.364	25.4
357.58	88.95
357.796	86.04
358.012	63.76
358.228	59.11
358.444	-16.26
358.66	81.78
358.876	32.18
359.092	-5.6
359.308	31.02
359.524	55.82
359.74	17.26
359.956	1.57
360.172	41.87
360.388	77.71
360.604	29.47
360.819	149.01
361.035	47.29
361.251	63.37
361.467	12.22
361.683	57.37
361.898	47.48
362.114	87.59
362.33	73.25
362.546	67.05
362.762	44.77
362.977	54.46
363.193	26.95
363.409	73.25
363.624	12.8
363.84	3.12
364.056	32.37
364.271	52.52
364.487	87.4
364.703	21.13
364.918	21.13
365.134	44.77
365.35	55.23
365.565	148.04
365.781	52.33
365.996	77.9
366.212	125.37
366.427	66.47
366.643	46.71
366.858	37.22
367.074	13.38
367.289	116.26
367.505	177.1
367.72	34.12
367.936	46.9
368.151	90.3
368.367	90.69
368.582	73.64
368.798	50.39
369.013	99.6
369.228	68.99
369.444	75
369.659	131.96
369.874	84.3
370.09	146.68
370.305	2.73
370.52	59.3
370.736	124.79
370.951	76.35
371.166	112
371.381	147.26
371.597	103.09
371.812	32.76
372.027	36.83
372.242	80.81
372.458	160.44
372.673	64.53
372.888	40.51
373.103	70.73
373.318	147.07
373.533	104.06
373.749	75
373.964	4.47
374.179	132.15
374.394	55.04
374.609	118.59
374.824	30.43
375.039	91.08
375.254	61.24
375.469	126.73
375.684	77.32
375.899	127.7
376.114	68.02
376.329	87.4
376.544	110.45
376.759	117.23
376.974	27.53
377.189	61.63
377.404	86.04
377.619	122.27
377.834	41.87
378.049	56.4
378.264	68.41
378.478	115.3
378.693	71.12
378.908	113.55
379.123	86.81
379.338	108.13
379.553	98.05
379.767	104.06
379.982	86.23
380.197	141.06
380.412	98.83
380.626	97.66
380.841	186.79
381.056	112.97
381.271	173.61
381.485	71.12
381.7	31.79
381.915	102.12
382.129	82.94
382.344	91.08
382.559	73.45
382.773	111.61
382.988	52.52
383.202	82.16
383.417	56.78
383.632	177.49
383.846	63.18
384.061	68.99
384.275	74.22
384.49	107.35
384.704	118.59
384.919	111.03
385.133	110.06
385.348	144.55
385.562	83.91
385.777	133.31
385.991	99.02
386.206	109.68
386.42	79.07
386.634	145.33
386.849	122.08
387.063	114.13
387.277	90.11
387.492	95.53
387.706	55.43
387.92	70.93
388.135	147.26
388.349	122.46
388.563	135.06
388.778	121.69
388.992	141.06
389.206	138.16
389.42	179.23
389.635	111.42
389.849	150.56
390.063	172.64
390.277	159.47
390.491	184.27
390.706	145.33
390.92	180.98
391.134	152.88
391.348	176.71
391.562	100.18
391.776	135.25
391.99	139.51
392.205	194.93
392.419	120.53
392.633	182.14
392.847	192.21
393.061	131.96
393.275	182.14
393.489	116.46
393.703	96.31
393.917	123.82
394.131	62.4
394.345	108.9
394.559	157.53
394.773	123.05
394.986	170.71
395.2	171.87
395.414	199.58
395.628	159.28
395.842	184.66
396.056	155.6
396.27	132.93
396.484	161.6
396.697	148.62
396.911	178.26
397.125	135.83
397.339	174.58
397.553	118.01
397.766	204.23
397.98	166.83
398.194	214.3
398.408	199.38
398.621	227.86
398.835	257.7
399.049	243.75
399.262	279.98
399.476	272.04
399.69	255.76
399.903	317.96
400.117	236.39
400.331	283.66
400.544	240.84
400.758	373.17
400.971	272.62
401.185	303.42
401.398	234.26
401.612	311.37
401.826	287.15
402.039	310.98
402.253	250.34
402.466	348.76
402.68	304.78
402.893	321.25
403.106	293.35
403.32	266.22
403.533	303.23
403.747	265.06
403.96	296.45
404.174	326.09
404.387	272.62
404.6	326.48
404.814	331.91
405.027	296.64
405.24	280.37
405.454	272.62
405.667	336.75
405.88	266.61
406.094	313.89
406.307	359.8
406.52	317.18
406.733	282.31
406.947	245.69
407.16	348.57
407.373	343.92
407.586	297.42
407.799	302.46
408.012	355.35
408.226	306.14
408.439	369.49
408.652	271.46
408.865	349.34
409.078	388.29
409.291	355.35
409.504	309.43
409.717	383.44
409.93	355.15
410.143	329.58
410.357	299.55
410.57	254.99
410.783	296.45
410.996	342.56
411.209	338.69
411.421	387.51
411.634	376.27
411.847	360.97
412.06	381.89
412.273	368.14
412.486	385.38
412.699	475.08
412.912	379.76
413.125	402.04
413.338	372.01
413.55	364.26
413.763	378.21
413.976	391
414.189	359.8
414.402	396.81
414.615	442.92
414.827	345.47
415.04	401.07
415.253	404.17
415.466	425.87
415.678	453.97
415.891	384.6
416.104	417.93
416.316	366.39
416.529	369.69
416.742	410.76
416.954	453.97
417.167	409.79
417.38	398.75
417.592	453.58
417.805	386.15
418.017	348.95
418.23	439.24
418.442	396.42
418.655	388.48
418.868	397.2
419.08	450.09
419.293	465.59
419.505	437.3
419.718	422.58
419.93	475.28
420.142	411.54
420.355	455.32
420.567	443.7
420.78	435.56
420.992	438.47
421.205	508.8
421.417	418.9
421.629	434.98
421.842	425.1
422.054	407.47
422.266	444.67
422.479	503.95
422.691	432.46
422.903	468.3
423.115	425.49
423.328	422.19
423.54	415.02
423.752	435.95
423.964	414.05
424.177	447.18
424.389	461.72
424.601	541.15
424.813	473.15
425.025	492.13
425.238	451.45
425.45	463.27
425.662	440.6
425.874	745.36
426.086	453.58
426.298	478.38
426.51	497.37
426.722	468.5
426.934	456.29
427.146	487.87
427.358	430.91
427.57	510.93
427.782	459.2
427.994	455.32
428.206	407.27
428.418	431.1
428.63	505.5
428.842	495.82
429.054	454.93
429.266	490
429.478	436.14
429.69	474.31
429.902	422.77
430.114	470.43
430.325	413.67
430.537	379.76
430.749	390.03
430.961	331.71
431.173	376.85
431.384	389.84
431.596	296.64
431.808	385.96
432.02	478.38
432.231	533.79
432.443	567.89
432.655	522.16
432.867	498.33
433.078	551.42
433.29	565.37
433.502	532.05
433.713	577.38
433.925	586.49
434.136	612.06
434.348	487.29
434.56	428.97
434.771	618.07
434.983	465.01
435.194	483.8
435.406	533.98
435.617	616.91
435.829	614.58
436.04	586.68
436.252	597.15
436.463	638.22
436.675	660.31
436.886	618.26
437.098	644.42
437.309	682.59
437.521	614.58
437.732	605.28
437.943	592.5
438.155	593.85
438.366	550.84
438.578	642.87
438.789	581.65
439	578.93
439.211	547.93
439.423	565.76
439.634	588.62
439.845	614.19
440.057	597.73
440.268	646.94
440.479	618.07
440.69	660.89
440.902	589.2
441.113	613.61
441.324	606.25
441.535	669.61
441.746	702.35
441.957	624.27
442.168	653.33
442.38	688.4
442.591	671.93
442.802	637.44
443.013	680.07
443.224	694.99
443.435	680.84
443.646	695.96
443.857	674.45
444.068	654.3
444.279	676.78
444.49	797.67
444.701	666.51
444.912	831.97
445.123	748.07
445.334	755.44
445.545	694.21
445.756	699.06
445.967	660.5
446.178	697.89
446.388	725.99
446.599	728.89
446.81	707
447.021	687.63
447.232	742.26
447.443	755.44
447.653	721.14
447.864	744.01
448.075	763.96
448.286	767.45
448.496	745.75
448.707	803.29
448.918	718.43
449.129	823.25
449.339	728.51
449.55	780.43
449.761	738.39
449.971	818.02
450.182	762.61
450.393	785.85
450.603	745.75
450.814	800.97
451.024	783.92
451.235	843.2
451.446	855.99
451.656	851.15
451.867	792.83
452.077	797.29
452.288	868.78
452.498	848.24
452.709	792.64
452.919	803.29
453.13	740.13
453.34	798.25
453.55	715.33
453.761	796.12
453.971	789.54
454.182	812.4
454.392	805.81
454.602	847.66
454.813	823.64
455.023	845.53
455.233	755.63
455.444	790.31
455.654	717.07
455.864	778.11
456.075	768.61
456.285	768.81
456.495	774.81
456.705	828.87
456.916	883.89
457.126	886.41
457.336	854.64
457.546	747.3
457.756	824.8
457.967	876.14
458.177	829.84
458.387	832.35
458.597	798.25
458.807	776.56
459.017	821.31
459.227	794.19
459.437	792.25
459.647	856.38
459.857	855.99
460.068	808.91
460.278	878.08
460.488	859.67
460.698	903.85
460.908	828.48
461.117	819.95
461.327	844.37
461.537	858.12
461.747	879.43
461.957	902.49
462.167	989.29
462.377	917.41
462.587	887.38
462.797	924.38
463.007	874.2
463.216	927.1
463.426	945.5
463.636	961.78
463.846	838.17
464.056	866.07
464.265	906.37
464.475	820.73
464.685	915.86
464.895	936.01
465.104	898.23
465.314	907.33
465.524	881.37
465.733	867.23
465.943	964.1
466.153	978.44
466.362	948.99
466.572	939.5
466.782	916.05
466.991	933.3
467.201	987.55
467.41	872.27
467.62	962.55
467.829	904.82
468.039	933.88
468.249	912.37
468.458	952.09
468.668	968.95
468.877	967.78
469.086	1017
469.296	1014.86
469.505	960.61
469.715	1024.75
469.924	1006.53
470.134	1017.38
470.343	1030.95
470.552	940.47
470.762	981.54
470.971	950.35
471.18	995.1
471.39	970.88
471.599	955.19
471.808	1014.28
472.018	995.68
472.227	1074.54
472.436	1094.3
472.645	1047.22
472.855	1043.15
473.064	1146.81
473.273	1118.33
473.482	1111.54
473.691	1114.45
473.901	1112.9
474.11	1083.45
474.319	1197.57
474.528	1106.7
474.737	1185.75
474.946	1159.59
475.155	1145.06
475.364	1212.49
475.573	1156.11
475.783	1196.79
475.992	1180.32
476.201	1229.92
476.41	1186.91
476.619	1178.97
476.828	1184.78
477.037	1172.19
477.245	1171.99
477.454	1234.38
477.663	1183.42
477.872	1225.66
478.081	1295.41
478.29	1205.12
478.499	1308.78
478.708	1286.89
478.917	1342.68
479.125	1225.85
479.334	1285.53
479.543	1294.83
479.752	1310.33
479.961	1299.48
480.169	1379.69
480.378	1347.72
480.587	1466.1
480.796	1359.73
481.004	1367.1
481.213	1376.4
481.422	1401.97
481.63	1395.19
481.839	1425.03
482.048	1426.58
482.256	1405.65
482.465	1452.73
482.674	1458.16
482.882	1456.41
483.091	1567.43
483.299	1435.1
483.508	1507.18
483.716	1492.84
483.925	1476.37
484.134	1432.2
484.342	1475.01
484.551	1498.26
484.759	1482.38
484.967	1573.24
485.176	1545.15
485.384	1536.43
485.593	1545.54
485.801	1552.71
486.01	1465.33
486.218	1410.88
486.426	1337.65
486.635	1309.36
486.843	1275.84
487.051	1340.36
487.26	1339.58
487.468	1373.49
487.676	1462.61
487.885	1438.01
488.093	1476.95
488.301	1532.17
488.509	1538.76
488.717	1595.72
488.926	1589.32
489.134	1533.72
489.342	1564.72
489.55	1540.31
489.758	1578.86
489.967	1573.24
490.175	1678.64
490.383	1650.36
490.591	1737.15
490.799	1637.18
491.007	1700.92
491.215	1679.8
491.423	1655.78
491.631	1648.22
491.839	1618
492.047	1668.76
492.255	1615.48
492.463	1554.84
492.671	1605.21
492.879	1675.93
493.087	1657.52
493.295	1661.2
493.503	1719.33
493.711	1720.69
493.919	1754.01
494.127	1752.65
494.334	1719.33
494.542	1671.47
494.75	1764.08
494.958	1748.39
495.166	1807.87
495.374	1788.11
495.581	1788.69
495.789	1861.73
495.997	1871.81
496.205	1778.81
496.412	1780.17
496.62	1781.72
496.828	1780.55
497.035	1819.5
497.243	1851.27
497.451	1853.6
497.658	1798.57
497.866	1825.12
498.074	1898.55
498.281	1792.37
498.489	1870.45
498.696	1812.52
498.904	1745.68
499.112	1755.17
499.319	1856.5
499.527	1825.7
499.734	1891.18
499.942	1778.81
500.149	1819.5
500.357	1857.47
500.564	1796.63
500.771	1808.07
500.979	1771.64
501.186	1795.67
501.394	1790.24
501.601	1775.9
501.808	1800.7
502.016	1810.78
502.223	1798.96
502.43	1797.99
502.638	1786.56
502.845	1767.96
503.052	1915.59
503.26	1835
503.467	1905.71
503.674	1836.35
503.881	1874.33
504.089	1936.33
504.296	1922.57
504.503	1764.67
504.71	1766.41
504.917	1801.28
505.125	1858.25
505.332	1876.65
505.539	1905.71
505.746	1963.84
505.953	1964.42
506.16	1946.59
506.367	2005.88
506.574	2052.38
506.781	2037.46
506.988	1946.59
507.195	1941.36
507.402	1938.46
507.609	1997.16
507.816	1895.83
508.023	1914.63
508.23	1929.35
508.437	1868.9
508.644	1897.38
508.851	1971.98
509.058	1974.49
509.265	1943.3
509.472	1994.26
509.679	2042.11
509.885	1990.96
510.092	2016.15
510.299	1967.71
510.506	1953.76
510.713	1976.24
510.92	1980.5
511.126	1984.57
511.333	2012.27
511.54	2051.99
511.746	2095.2
511.953	2074.27
512.16	2056.84
512.367	2029.32
512.573	2023.51
512.78	2018.67
512.987	1993.29
513.193	2015.37
513.4	1920.24
513.606	1985.54
513.813	1995.23
514.02	1991.74
514.226	2034.75
514.433	2054.32
514.639	1961.13
514.846	1979.92
515.052	1959.38
515.259	2008.59
515.465	2004.33
515.672	2014.6
515.878	2063.23
516.085	2033.97
516.291	2076.6
516.497	2046.57
516.704	2019.25
516.91	1984.96
517.117	1867.93
517.323	1773.97
517.529	1784.62
517.736	1800.12
517.942	1813.68
518.148	1853.6
518.354	1909.01
518.561	1959.19
518.767	1897
518.973	1935.94
519.179	1943.49
519.386	1937.49
519.592	1914.05
519.798	1940.98
520.004	2086.09
520.21	2058
520.417	2054.71
520.623	2141.7
520.829	2116.7
521.035	2154.68
521.241	2111.28
521.447	2145.96
521.653	2268.21
521.859	2176.38
522.065	2200.79
522.271	2270.93
522.477	2268.8
522.683	2295.34
522.889	2210.87
523.095	2199.05
523.301	2207.77
523.507	2125.81
523.713	2209.9
523.919	2130.07
524.125	2259.5
524.331	2184.71
524.537	2357.14
524.742	2306.38
524.948	2345.91
525.154	2350.56
525.36	2468.36
525.566	2274.8
525.772	2439.29
525.977	2301.73
526.183	2350.36
526.389	2399.58
526.595	2281.58
526.8	2264.73
527.006	2185.48
527.212	2129.1
527.417	2136.08
527.623	2079.51
527.829	2157.78
528.034	2251.36
528.24	2223.65
528.446	2238.96
528.651	2388.73
528.857	2371.29
529.062	2424.76
529.268	2417.79
529.473	2423.21
529.679	2427.48
529.884	2519.7
530.09	2500.13
530.295	2473.2
530.501	2461.96
530.706	2464.67
530.912	2438.91
531.117	2515.82
531.323	2475.91
531.528	2526.09
531.733	2564.45
531.939	2475.14
532.144	2529.58
532.35	2517.37
532.555	2596.23
532.76	2478.24
532.966	2464.09
533.171	2450.92
533.376	2390.28
533.581	2366.44
533.787	2440.65
533.992	2470.49
534.197	2480.95
534.402	2467
534.607	2525.32
534.813	2580.54
535.018	2479.4
535.223	2479.21
535.428	2548.18
535.633	2586.35
535.838	2582.86
536.043	2548.76
536.249	2686.52
536.454	2606.11
536.659	2645.63
536.864	2585.38
537.069	2571.43
537.274	2542.75
537.479	2585.77
537.684	2527.84
537.889	2490.64
538.094	2636.33
538.299	2625.29
538.504	2587.51
538.708	2583.83
538.913	2625.1
539.118	2593.13
539.323	2625.87
539.528	2539.46
539.733	2579.76
539.938	2583.83
540.142	2589.84
540.347	2567.17
540.552	2514.86
540.757	2499.74
540.962	2558.84
541.166	2472.81
541.371	2490.25
541.576	2512.53
541.781	2457.12
541.985	2563.1
542.19	2540.04
542.395	2630.72
542.599	2683.42
542.804	2603.2
543.008	2670.05
543.213	2576.85
543.418	2581.5
543.622	2619.48
543.827	2545.08
544.031	2662.3
544.236	2648.54
544.44	2613.67
544.645	2765.76
544.849	2612.89
545.054	2671.98
545.258	2716.35
545.463	2712.86
545.667	2578.02
545.872	2673.34
546.076	2668.3
546.281	2646.22
546.485	2609.6
546.689	2667.72
546.894	2669.66
547.098	2683.8
547.302	2646.8
547.507	2661.33
547.711	2677.41
547.915	2704.15
548.119	2615.99
548.324	2611.15
548.528	2729.53
548.732	2621.61
548.936	2690.2
549.141	2672.76
549.345	2654.93
549.549	2685.74
549.753	2674.12
549.957	2736.7
550.161	2758.98
550.366	2682.45
550.57	2602.24
550.774	2654.93
550.978	2689.23
551.182	2670.63
551.386	2622.97
551.59	2659.78
551.794	2645.25
551.998	2706.66
552.202	2680.32
552.406	2637.88
552.61	2721.2
552.814	2671.98
553.018	2734.95
553.222	2655.9
553.426	2686.32
553.63	2755.88
553.833	2708.8
554.037	2581.12
554.241	2667.14
554.445	2685.93
554.649	2696.4
554.853	2667.92
555.056	2724.68
555.26	2703.95
555.464	2681.09
555.668	2702.79
555.871	2732.24
556.075	2694.46
556.279	2685.74
556.483	2646.8
556.686	2644.47
556.89	2641.76
557.094	2671.02
557.297	2559.42
557.501	2665.98
557.704	2535
557.908	2637.5
558.112	2595.65
558.315	2687.68
558.519	2603.59
558.722	2541.01
558.926	2597.59
559.129	2497.42
559.333	2481.34
559.536	2496.84
559.74	2448.59
559.943	2418.95
560.147	2438.52
560.35	2537.14
560.553	2498.97
560.757	2472.04
560.96	2583.44
561.164	2507.69
561.367	2578.4
561.57	2545.85
561.774	2528.42
561.977	2497.03
562.18	2498
562.384	2609.02
562.587	2504.39
562.79	2481.34
562.993	2480.37
563.197	2514.27
563.4	2564.07
563.603	2585.19
563.806	2601.46
564.009	2458.86
564.212	2505.75
564.416	2427.09
564.619	2472.23
564.822	2446.27
565.025	2535.78
565.228	2460.22
565.431	2473.78
565.634	2370.32
565.837	2408.68
566.04	2391.44
566.243	2339.32
566.446	2311.23
566.649	2397.83
566.852	2325.18
567.055	2382.14
567.258	2416.63
567.461	2474.75
567.664	2427.67
567.867	2337.77
568.07	2359.08
568.273	2437.55
568.475	2442.01
568.678	2354.63
568.881	2318.59
569.084	2383.88
569.287	2244
569.489	2283.52
569.692	2375.94
569.895	2368.58
570.098	2283.33
570.3	2217.07
570.503	2209.12
570.706	2256.2
570.909	2232.37
571.111	2185.48
571.314	2197.5
571.516	2195.75
571.719	2226.56
571.922	2153.9
572.124	2208.73
572.327	2216.1
572.529	2226.56
572.732	2177.73
572.935	2237.22
573.137	2317.62
573.34	2218.23
573.542	2282.55
573.745	2240.51
573.947	2246.32
574.15	2215.32
574.352	2215.32
574.554	2305.22
574.757	2186.45
574.959	2209.9
575.162	2191.88
575.364	2189.36
575.566	2250.39
575.769	2114.57
575.971	2178.51
576.173	2034.94
576.376	2153.32
576.578	2166.89
576.78	2204.28
576.982	2066.52
577.185	2091.52
577.387	2059.94
577.589	2141.5
577.791	2171.92
577.993	2157.39
578.196	2107.02
578.398	2136.66
578.6	2121.94
578.802	2036.88
579.004	2023.71
579.206	2035.14
579.408	2126.39
579.61	2031.65
579.812	2152.55
580.014	2023.9
580.216	2065.75
580.418	2078.34
580.62	2026.81
580.822	2041.53
581.024	2050.44
581.226	2105.47
581.428	2055.09
581.63	2142.47
581.832	2023.9
582.034	2153.32
582.236	2094.42
582.438	2142.86
582.64	2139.18
582.841	2127.55
583.043	2230.43
583.245	2128.72
583.447	2104.5
583.649	2070.98
583.85	2115.15
584.052	2128.14
584.254	2050.06
584.456	2092.87
584.657	2042.31
584.859	2090.16
585.061	2056.84
585.262	2060.32
585.464	2014.41
585.666	2054.32
585.867	1998.52
586.069	2119.22
586.27	2021.19
586.472	2032.42
586.674	1983.79
586.875	1974.88
587.077	2018.09
587.278	2060.32
587.48	2023.32
587.681	2120.58
587.883	2015.37
588.084	1968.49
588.285	2004.33
588.487	1986.51
588.688	1971.39
588.89	1910.36
589.091	1892.54
589.292	1892.54
589.494	1844.68
589.695	1786.37
589.896	1743.35
590.098	1725.14
590.299	1803.8
590.5	1744.13
590.702	1780.17
590.903	1778.62
591.104	1925.86
591.305	1880.53
591.507	1953.96
591.708	1918.89
591.909	1874.13
592.11	1947.56
592.311	1917.14
592.512	1902.23
592.714	1837.32
592.915	1839.84
593.116	1853.79
593.317	1889.05
593.518	1853.01
593.719	1878.98
593.92	1934
594.121	1944.66
594.322	1887.7
594.523	1896.8
594.724	1849.33
594.925	1841.97
595.126	1869.1
595.327	1902.42
595.528	1895.83
595.729	1920.63
595.929	1836.35
596.13	1879.56
596.331	1878.2
596.532	1912.3
596.733	1936.33
596.934	1964.23
597.135	1952.21
597.335	1904.94
597.536	1840.42
597.737	1894.86
597.938	1867.16
598.138	1904.36
598.339	1873.36
598.54	1918.5
598.74	1897.19
598.941	1838.48
599.142	1910.95
599.342	1890.41
599.543	1857.28
599.744	1852.43
599.944	1835.77
600.145	1862.12
600.345	1879.36
600.546	1917.92
600.746	1921.6
600.947	1927.61
601.147	1856.89
601.348	1904.75
601.548	1816.78
601.749	1873.36
601.949	1797.6
602.15	1831.9
602.35	1814.65
602.551	1876.46
602.751	1816.2
602.951	1811.17
603.152	1758.85
603.352	1886.53
603.552	1813.88
603.753	1851.46
603.953	1870.84
604.153	1860.96
604.354	1835
604.554	1822.02
604.754	1845.26
604.954	1788.11
605.155	1896.41
605.355	1832.86
605.555	1885.95
605.755	1896.8
605.955	1807.48
606.155	1898.35
606.356	1858.05
606.556	1866
606.756	1821.24
606.956	1775.13
607.156	1878.98
607.356	1776.1
607.556	1806.13
607.756	1832.48
607.956	1839.26
608.156	1826.47
608.356	1797.99
608.556	1841.78
608.756	1801.09
608.956	1790.43
609.156	1848.75
609.356	1754.4
609.556	1747.03
609.755	1753.23
609.955	1751.1
610.155	1774.16
610.355	1773.58
610.555	1742.38
610.755	1761.76
610.954	1699.37
611.154	1765.25
611.354	1771.45
611.554	1722.04
611.753	1737.15
611.953	1684.26
612.153	1773.77
612.352	1762.53
612.552	1716.23
612.752	1638.15
612.951	1719.72
613.151	1702.67
613.351	1684.84
613.55	1697.44
613.75	1756.14
613.949	1716.04
614.149	1706.15
614.348	1668.18
614.548	1668.37
614.747	1619.36
614.947	1661.59
615.146	1546.7
615.346	1693.75
615.545	1709.45
615.745	1674.96
615.944	1722.82
616.144	1697.24
616.343	1678.06
616.542	1611.61
616.742	1635.63
616.941	1642.22
617.14	1593.97
617.34	1647.64
617.539	1649
617.738	1602.31
617.938	1692.2
618.137	1626.52
618.336	1618.58
618.535	1687.17
618.734	1647.84
618.934	1607.54
619.133	1631.17
619.332	1636.99
619.531	1593.2
619.73	1648.61
619.929	1708.87
620.128	1679.22
620.328	1701.7
620.527	1630.21
620.726	1658.69
620.925	1654.04
621.124	1599.79
621.323	1619.36
621.522	1608.51
621.721	1595.52
621.92	1615.48
622.119	1647.26
622.318	1604.05
622.517	1603.66
622.715	1617.22
622.914	1508.73
623.113	1590.87
623.312	1535.27
623.511	1594.94
623.71	1561.43
623.909	1549.03
624.107	1611.41
624.306	1517.44
624.505	1524.23
624.704	1536.63
624.902	1542.44
625.101	1605.99
625.3	1552.51
625.499	1515.12
625.697	1506.21
625.896	1491.87
626.095	1550.58
626.293	1470.36
626.492	1531.2
626.69	1523.84
626.889	1491.87
627.088	1544.57
627.286	1499.04
627.485	1468.43
627.683	1475.21
627.882	1513.18
628.08	1436.65
628.279	1462.81
628.477	1515.89
628.676	1460.48
628.874	1506.4
629.073	1446.73
629.271	1422.9
629.469	1506.79
629.668	1466.49
629.866	1465.13
630.065	1479.47
630.263	1490.71
630.461	1434.52
630.66	1464.36
630.858	1461.65
631.056	1525
631.254	1474.43
631.453	1457.77
631.651	1487.03
631.849	1435.68
632.047	1443.63
632.245	1436.85
632.444	1442.46
632.642	1476.95
632.84	1464.55
633.038	1439.95
633.236	1401.97
633.434	1421.73
633.632	1442.85
633.83	1425.8
634.028	1456.41
634.227	1453.7
634.425	1510.47
634.623	1443.05
634.821	1489.35
635.019	1437.04
635.216	1474.24
635.414	1488.77
635.612	1462.23
635.81	1453.31
636.008	1457.58
636.206	1427.74
636.404	1441.5
636.602	1427.55
636.8	1439.56
636.997	1476.95
637.195	1461.26
637.393	1445.37
637.591	1487.61
637.789	1446.92
637.986	1443.05
638.184	1445.37
638.382	1494.19
638.58	1447.89
638.777	1531.01
638.975	1448.86
639.173	1442.08
639.37	1455.06
639.568	1481.02
639.765	1482.57
639.963	1454.86
640.161	1463
640.358	1443.43
640.556	1388.22
640.753	1370.2
640.951	1373.3
641.148	1418.63
641.346	1413.21
641.543	1398.68
641.741	1427.35
641.938	1350.82
642.136	1401.78
642.333	1368.07
642.531	1424.25
642.728	1447.11
642.925	1383.76
643.123	1403.71
643.32	1423.48
643.517	1383.18
643.715	1391.7
643.912	1369.23
644.109	1377.95
644.306	1364
644.504	1302.39
644.701	1387.05
644.898	1409.91
645.095	1359.35
645.293	1390.93
645.49	1382.21
645.687	1363.42
645.884	1411.66
646.081	1299.67
646.278	1302.19
646.475	1294.44
646.672	1304.9
646.87	1353.53
647.067	1334.35
647.264	1355.08
647.461	1283.98
647.658	1255.69
647.855	1312.46
648.052	1306.07
648.249	1244.45
648.446	1281.07
648.642	1248.14
648.839	1259.37
649.036	1231.47
649.233	1253.56
649.43	1235.54
649.627	1223.92
649.824	1243.49
650.021	1214.81
650.217	1229.54
650.414	1250.65
650.611	1263.44
650.808	1313.23
651.004	1265.96
651.201	1286.11
651.398	1312.27
651.595	1268.29
651.791	1260.15
651.988	1291.73
652.185	1185.94
652.381	1291.34
652.578	1187.49
652.775	1257.63
652.971	1241.55
653.168	1237.67
653.364	1290.57
653.561	1214.62
653.757	1224.11
653.954	1258.6
654.15	1168.12
654.347	1330.28
654.543	1242.71
654.74	1196.21
654.936	1203.96
655.133	1235.15
655.329	1222.95
655.525	1210.55
655.722	1211.32
655.918	1165.79
656.115	1182.07
656.311	1094.49
656.507	1029.98
656.704	1005.95
656.9	1053.81
657.096	1066.59
657.292	1017.58
657.489	1135.76
657.685	1123.17
657.881	1086.16
658.077	1111.93
658.273	1145.84
658.47	1221.2
658.666	1123.94
658.862	1184.39
659.058	1207.45
659.254	1227.79
659.45	1175.67
659.646	1171.99
659.842	1173.16
660.038	1238.84
660.234	1141.96
660.43	1176.45
660.626	1276.04
660.822	1233.02
661.018	1233.8
661.214	1168.12
661.41	1182.65
661.606	1215.78
661.802	1236.12
661.998	1215.01
662.194	1171.61
662.39	1220.62
662.586	1233.8
662.781	1233.8
662.977	1223.92
663.173	1208.22
663.369	1194.66
663.564	1200.67
663.76	1219.46
663.956	1190.79
664.152	1232.83
664.347	1144.87
664.543	1200.86
664.739	1184.2
664.934	1127.43
665.13	1142.54
665.326	1209.58
665.521	1174.51
665.717	1162.31
665.912	1150.49
666.108	1097.01
666.304	1162.5
666.499	1161.14
666.695	1084.03
666.89	1118.71
667.086	1193.11
667.281	1173.74
667.477	1212.68
667.672	1177.81
667.867	1153.78
668.063	1209.58
668.258	1109.22
668.454	1152.23
668.649	1230.31
668.844	1158.82
669.04	1174.12
669.235	1149.91
669.43	1112.13
669.626	1104.76
669.821	1117.94
670.016	1076.28
670.211	1150.49
670.407	1072.02
670.602	1122.98
670.797	1112.51
670.992	1175.67
671.187	1122.78
671.382	1162.89
671.578	1063.69
671.773	1152.42
671.968	1064.85
672.163	1123.75
672.358	1166.96
672.553	1079.77
672.748	1108.44
672.943	1174.51
673.138	1123.94
673.333	1160.17
673.528	1072.99
673.723	1114.06
673.918	1120.84
674.113	1058.26
674.308	1161.34
674.503	1108.44
674.698	1147.39
674.892	1110.19
675.087	1156.49
675.282	1114.84
675.477	1085.39
675.672	1130.14
675.867	1106.89
676.061	1060.98
676.256	1039.86
676.451	1078.99
676.646	1083.84
676.84	1043.93
677.035	1055.55
677.23	1040.44
677.424	1104.57
677.619	1112.9
677.814	1141.77
678.008	1108.64
678.203	1014.09
678.397	1052.26
678.592	1063.49
678.787	1140.22
678.981	1072.41
679.176	1047.22
679.37	1042.57
679.565	1035.21
679.759	1042.57
679.954	1093.72
680.148	1121.43
680.342	1158.43
680.537	1077.83
680.731	1071.24
680.926	1111.93
681.12	1128.4
681.314	1048.19
681.509	1054.58
681.703	1064.46
681.897	1047.22
682.092	1055.55
682.286	1030.75
682.48	1133.24
682.674	1095.27
682.869	1081.51
683.063	1052.45
683.257	1144.87
683.451	1013.51
683.645	1077.06
683.839	1063.49
684.034	1046.06
684.228	1063.11
684.422	1025.71
684.616	1008.47
684.81	1068.14
685.004	1014.09
685.198	1041.02
685.392	1059.04
685.586	1015.25
685.78	1039.47
685.974	1094.88
686.168	1060.59
686.362	1088.88
686.556	1018.16
686.75	967.78
686.944	914.89
687.138	952.67
687.331	839.72
687.525	879.43
687.719	811.04
687.913	859.09
688.107	891.06
688.301	850.76
688.494	886.02
688.688	845.92
688.882	836.04
689.076	821.31
689.269	834.87
689.463	966.23
689.657	870.33
689.85	881.76
690.044	900.36
690.238	888.15
690.431	839.14
690.625	871.1
690.818	918.96
691.012	905.59
691.205	913.53
691.399	902.3
691.593	911.4
691.786	962.16
691.98	956.35
692.173	1002.66
692.366	953.06
692.56	989.68
692.753	986.58
692.947	969.91
693.14	991.42
693.333	975.53
693.527	902.49
693.72	1022.81
693.914	981.15
694.107	971.27
694.3	978.63
694.493	970.88
694.687	1010.41
694.88	923.03
695.073	1034.63
695.266	1020.68
695.46	974.18
695.653	1018.93
695.846	1029.4
696.039	943.95
696.232	974.18
696.425	1033.08
696.618	1031.91
696.812	1044.89
697.005	1085.78
697.198	1169.47
697.391	1084.23
697.584	1105.15
697.777	1152.23
697.97	1098.76
698.163	1115.23
698.356	1103.99
698.549	1216.94
698.742	1162.89
698.935	1104.57
699.127	1130.34
699.32	1143.12
699.513	1105.15
699.706	1170.83
699.899	1174.12
700.092	1121.04
700.285	1176.26
700.477	1095.85
700.67	1183.04
700.863	1199.12
701.056	1267.12
701.248	1220.82
701.441	1254.53
701.634	1195.82
701.826	1338.62
702.019	1196.99
702.212	1271.39
702.404	1219.27
702.597	1217.14
702.79	1233.99
702.982	1280.88
703.175	1312.07
703.367	1333.77
703.56	1352.57
703.752	1396.16
703.945	1342.3
704.137	1369.62
704.33	1374.65
704.522	1392.86
704.715	1403.33
704.907	1443.63
705.1	1514.54
705.292	1474.24
705.484	1501.17
705.677	1500.2
705.869	1473.46
706.061	1556
706.254	1574.79
706.446	1537.4
706.638	1545.54
706.831	1603.27
707.023	1542.24
707.215	1674.57
707.407	1636.21
707.599	1610.83
707.792	1729.99
707.984	1661.4
708.176	1705.57
708.368	1699.37
708.56	1703.83
708.752	1681.74
708.944	1698.21
709.136	1797.8
709.329	1755.56
709.521	1854.76
709.713	1797.99
709.905	1800.51
710.097	1823.76
710.289	1801.48
710.481	1834.41
710.672	1878.78
710.864	1867.55
711.056	1964.23
711.248	1936.71
711.44	1931.09
711.632	1930.71
711.824	1966.36
712.016	2033.78
712.207	2008.59
712.399	1983.99
712.591	2098.88
712.783	2082.41
712.975	2090.94
713.166	2033.78
713.358	2054.9
713.55	2089.77
713.741	2090.74
713.933	2145.57
714.125	2111.67
714.316	2147.32
714.508	2218.23
714.7	2218.42
714.891	2200.4
715.083	2265.31
715.274	2205.05
715.466	2232.76
715.657	2313.16
715.849	2161.85
716.04	2245.55
716.232	2209.32
716.423	2261.63
716.615	2208.35
716.806	2201.18
716.998	2164.95
717.189	2070.21
717.381	2060.91
717.572	2027.19
717.763	2043.08
717.955	2043.47
718.146	2013.24
718.337	1982.83
718.528	1947.76
718.72	1863.09
718.911	1963.06
719.102	1891.57
719.293	1985.93
719.485	1950.66
719.676	1970.43
719.867	1892.15
720.058	1906.1
720.249	1923.73
720.44	1955.51
720.632	1996
720.823	2036.88
721.014	2155.07
721.205	2207.96
721.396	2231.6
721.587	2344.55
721.778	2353.27
721.969	2394.15
722.16	2481.72
722.351	2487.54
722.542	2645.05
722.733	2622.77
722.924	2488.89
723.115	2601.46
723.305	2564.26
723.496	2651.06
723.687	2524.74
723.878	2512.53
724.069	2501.49
724.26	2549.92
724.45	2464.09
724.641	2448.59
724.832	2494.51
725.023	2497.22
725.213	2515.44
725.404	2482.11
725.595	2505.56
725.785	2465.06
725.976	2568.52
726.167	2573.37
726.357	2555.74
726.548	2704.34
726.739	2570.27
726.929	2654.55
727.12	2671.79
727.31	2704.73
727.501	2686.32
727.691	2712.48
727.882	2713.83
728.072	2757.43
728.263	2685.93
728.453	2832.41
728.644	2797.14
728.834	2786.1
729.024	2754.91
729.215	2743.09
729.405	2787.26
729.596	2885.88
729.786	2862.44
729.976	2945.56
730.167	2903.71
730.357	2874.26
730.547	2909.13
730.737	2930.64
730.928	2985.08
731.118	3036.62
731.308	2981.2
731.498	3014.14
731.688	3107.14
731.879	3111.02
732.069	3168.17
732.259	3156.93
732.449	3166.62
732.639	3297.01
732.829	3313.09
733.019	3309.99
733.209	3397.76
733.399	3404.15
733.589	3462.47
733.779	3499.28
733.969	3473.32
734.159	3571.94
734.349	3645.76
734.539	3663.78
734.729	3651.18
734.919	3667.26
735.109	3736.82
735.299	3626
735.488	3675.4
735.678	3726.74
735.868	3691.87
736.058	3711.24
736.248	3707.18
736.437	3661.84
736.627	3657.58
736.817	3778.86
737.007	3720.16
737.196	3774.41
737.386	3781.77
737.576	3730.62
737.765	3797.07
737.955	3784.09
738.144	3938.12
738.334	3890.07
738.524	3809.28
738.713	3892.01
738.903	3842.02
739.092	3919.52
739.282	3896.66
739.471	3889.1
739.661	3862.37
739.85	3929.4
740.04	3918.55
740.229	3945.87
740.419	3971.45
740.608	4020.66
740.797	3972.61
740.987	4059.99
741.176	3972.22
741.365	4021.43
741.555	3944.32
741.744	4062.7
741.933	3972.61
742.123	4062.31
742.312	4083.05
742.501	4072.78
742.69	4146.79
742.88	4015.81
743.069	4145.24
743.258	4073.75
743.447	4149.5
743.636	4145.82
743.825	4107.46
744.014	4135.74
744.204	4186.31
744.393	4118.69
744.582	4238.82
744.771	4191.54
744.96	4140.98
745.149	4196.97
745.338	4181.66
745.527	4249.86
745.716	4185.73
745.905	4156.28
746.094	4236.3
746.283	4215.57
746.471	4228.74
746.66	4310.89
746.849	4273.11
747.038	4273.69
747.227	4233.97
747.416	4264.01
747.604	4200.26
747.793	4260.91
747.982	4274.27
748.171	4281.44
748.359	4215.18
748.548	4266.14
748.737	4261.49
748.926	4227.58
749.114	4133.42
749.303	4249.09
749.491	4265.94
749.68	4163.84
749.869	4244.44
750.057	4172.17
750.246	4208.4
750.434	4170.04
750.623	4207.24
750.811	4227.97
751	4229.13
751.188	4221.57
751.377	4197.74
751.565	4190.77
751.754	4133.42
751.942	4161.32
752.131	4227.97
752.319	4150.47
752.507	4124.31
752.696	4227
752.884	4224.87
753.072	4199.49
753.261	4188.44
753.449	4168.1
753.637	4117.34
753.825	4269.04
754.014	4171.2
754.202	4157.25
754.39	4230.1
754.578	4197.94
754.766	4182.63
754.955	4133.03
755.143	4219.83
755.331	4145.63
755.519	4175.08
755.707	4146.01
755.895	4110.56
756.083	4155.7
756.271	4075.88
756.459	4096.41
756.647	4127.61
756.835	4106.29
757.023	4132.06
757.211	4086.73
757.399	4045.85
757.587	4053.21
757.775	4011.94
757.963	4032.09
758.151	4089.44
758.339	4010.78
758.526	3988.11
758.714	4037.9
758.902	3926.5
759.09	3926.11
759.278	3697.1
759.465	3485.53
759.653	3120.12
759.841	2890.34
760.028	2546.24
760.216	2271.31
760.404	2137.24
760.591	1804.58
760.779	1577.51
760.967	1454.28
761.154	1259.95
761.342	1307.03
761.529	1308.78
761.717	1391.12
761.905	1417.66
762.092	1504.27
762.28	1460.1
762.467	1502.91
762.655	1443.05
762.842	1492.45
763.029	1517.44
763.217	1542.83
763.404	1535.27
763.592	1558.71
763.779	1538.95
763.966	1583.51
764.154	1647.45
764.341	1703.44
764.528	1720.88
764.716	1807.1
764.903	1854.95
765.09	1901.06
765.277	1949.5
765.465	2152.35
765.652	2157.59
765.839	2223.07
766.026	2362.18
766.213	2409.46
766.4	2508.85
766.588	2684.38
766.775	2701.82
766.962	2819.04
767.149	2894.6
767.336	3010.85
767.523	2986.05
767.71	3081.37
767.897	3204.01
768.084	3332.86
768.271	3285.39
768.458	3344.09
768.645	3404.54
768.832	3393.5
769.019	3427.21
769.206	3427.21
769.392	3522.73
769.579	3609.14
769.766	3517.88
769.953	3555.08
770.14	3609.91
770.327	3561.28
770.513	3589.38
770.7	3736.63
770.887	3659.9
771.073	3652.15
771.26	3646.73
771.447	3600.61
771.634	3565.16
771.82	3716.28
772.007	3563.03
772.193	3653.9
772.38	3693.61
772.567	3643.63
772.753	3598.48
772.94	3693.03
773.126	3665.33
773.313	3664.94
773.499	3629.29
773.686	3667.26
773.872	3601.2
774.059	3633.16
774.245	3549.27
774.432	3584.92
774.618	3544.82
774.804	3560.51
774.991	3492.12
775.177	3575.23
775.363	3561.67
775.55	3601.58
775.736	3477.78
775.922	3562.25
776.109	3572.13
776.295	3519.82
776.481	3568.84
776.667	3548.88
776.853	3539.2
777.04	3506.07
777.226	3468.67
777.412	3592.86
777.598	3443.68
777.784	3528.35
777.97	3445.62
778.156	3512.85
778.342	3482.82
778.528	3401.25
778.715	3385.36
778.901	3424.89
779.087	3462.67
779.272	3390.21
779.458	3376.84
779.644	3421.59
779.83	3425.85
780.016	3475.07
780.202	3411.32
780.388	3396.79
780.574	3324.91
780.76	3331.89
780.946	3395.44
781.131	3354.36
781.317	3305.54
781.503	3292.56
781.689	3343.12
781.874	3432.25
782.06	3314.06
782.246	3339.44
782.432	3330.14
782.617	3313.09
782.803	3343.9
782.989	3253.42
783.174	3254.97
783.36	3217.77
783.545	3260.59
783.731	3236.56
783.916	3175.73
784.102	3286.36
784.288	3199.56
784.473	3212.93
784.659	3219.32
784.844	3257.49
785.029	3194.91
785.215	3171.46
785.4	3119.54
785.586	3216.61
785.771	3121.09
785.956	3163.33
786.142	3156.55
786.327	3158.48
786.512	3120.51
786.698	3127.87
786.883	3059.67
787.068	3117.99
787.254	3147.05
787.439	3087.57
787.624	3059.67
787.809	3069.75
787.994	3068.97
788.18	3106.95
788.365	2987.21
788.55	3007.17
788.735	3030.42
788.92	3032.16
789.105	3009.69
789.29	3034.1
789.475	2980.82
789.66	3023.44
789.845	2967.25
790.03	2964.15
790.215	3027.32
790.4	3017.82
790.585	2993.8
790.77	2976.55
790.955	2887.43
791.14	2938.77
791.325	3006.2
791.51	2871.93
791.695	2925.6
791.879	2943.42
792.064	2845.58
792.249	2966.87
792.434	2901.38
792.618	2909.71
792.803	2962.02
792.988	2882.39
793.173	2919.79
793.357	2947.3
793.542	2839.96
793.727	2942.65
793.911	2917.46
794.096	2883.17
794.281	2941.68
794.465	2995.74
794.65	2865.54
794.834	2970.35
795.019	2986.44
795.203	2977.33
795.388	3000
795.572	3030.42
795.757	2985.85
795.941	2967.64
796.126	2981.59
796.31	2881.81
796.494	2938
796.679	2936.45
796.863	2901.96
797.048	3033.13
797.232	2972.29
797.416	2985.47
797.601	2976.36
797.785	3043.98
797.969	3040.88
798.153	2933.35
798.338	3041.85
798.522	3038.17
798.706	2991.86
798.89	3031.97
799.074	3129.23
799.258	3064.32
799.443	3020.92
799.627	2976.36
799.811	3091.64
799.995	2988.37
800.179	2966.87
800.363	2969.77
800.547	3036.04
800.731	2995.74
800.915	2947.49
801.099	2950.4
801.283	2967.45
801.467	3016.27
801.651	2961.25
801.835	3038.17
802.019	2990.5
802.202	3025.38
802.386	2905.45
802.57	2932.77
802.754	2977.33
802.938	2896.54
803.121	2946.72
803.305	3011.04
803.489	2966.29
803.673	2975.2
803.856	3005.81
804.04	2985.47
804.224	2994.96
804.407	2979.07
804.591	2973.84
804.775	2965.51
804.958	2953.5
805.142	3052.12
805.326	2959.89
805.509	2995.35
805.693	2979.65
805.876	2963.57
806.06	2970.94
806.243	3001.94
806.427	3029.84
806.61	3026.54
806.794	2982.75
806.977	2962.22
807.16	2968.8
807.344	3014.92
807.527	3018.79
807.71	2977.52
807.894	2944.97
808.077	3010.46
808.26	2921.14
808.444	2881.23
808.627	3004.45
808.81	2894.41
808.993	2861.47
809.177	2849.84
809.36	2858.56
809.543	2911.46
809.726	2807.61
809.909	2776.8
810.092	2790.94
810.276	2805.09
810.459	2798.69
810.642	2796.56
810.825	2753.94
811.008	2772.15
811.191	2680.12
811.374	2687.87
811.557	2745.22
811.74	2798.11
811.923	2659.39
812.106	2654.74
812.289	2642.73
812.472	2652.8
812.654	2680.32
812.837	2597.97
813.02	2548.37
813.203	2523.96
813.386	2443.94
813.569	2421.66
813.751	2341.06
813.934	2411.59
814.117	2363.15
814.3	2320.72
814.482	2301.73
814.665	2256.4
814.848	2214.74
815.03	2169.6
815.213	2125.81
815.396	2151.39
815.578	2104.5
815.761	2103.72
815.943	2170.37
816.126	2055.67
816.309	2042.69
816.491	1960.16
816.674	1915.98
816.856	1956.86
817.039	1920.83
817.221	1998.71
817.403	1965.39
817.586	1957.44
817.768	2015.57
817.951	1888.66
818.133	1938.07
818.315	1926.64
818.498	1964.61
818.68	2009.95
818.862	1971.2
819.045	2007.82
819.227	2018.67
819.409	1944.08
819.591	2002.01
819.774	1953.57
819.956	1960.54
820.138	2015.96
820.32	2030.87
820.502	2032.04
820.684	2098.3
820.866	2113.02
821.048	2200.6
821.231	2188.2
821.413	2166.3
821.595	2139.76
821.777	2152.94
821.959	2109.34
822.141	2215.13
822.323	2092.49
822.505	2041.14
822.686	1997.55
822.868	1927.22
823.05	1799.54
823.232	1784.82
823.414	1667.99
823.596	1753.62
823.778	1749.75
823.96	1770.48
824.141	1788.11
824.323	1801.09
824.505	1884.01
824.687	1920.83
824.868	1983.02
825.05	2052.38
825.232	2101.98
825.413	2149.45
825.595	2117.48
825.777	2047.73
825.958	2055.87
826.14	2065.75
826.321	2108.18
826.503	2086.87
826.685	2141.31
826.866	2120
827.048	2101.01
827.229	2046.57
827.411	2056.26
827.592	1977.79
827.773	2012.66
827.955	1916.56
828.136	1907.07
828.318	1909.98
828.499	1948.92
828.68	1927.8
828.862	1951.83
829.043	1918.5
829.224	1908.43
829.406	1851.85
829.587	1872.97
829.768	1902.81
829.949	1905.33
830.131	1890.6
830.312	1945.43
830.493	1903.97
830.674	1893.9
830.855	1874.33
831.036	1872.78
831.218	1950.66
831.399	1968.1
831.58	1925.67
831.761	1919.66
831.942	1916.95
832.123	1888.28
832.304	1837.32
832.485	1861.15
832.666	1893.31
832.847	1902.42
833.028	1883.24
833.209	1895.83
833.389	1853.98
833.57	1813.88
833.751	1828.99
833.932	1907.85
834.113	1849.91
834.294	1813.68
834.475	1879.75
834.655	1921.21
834.836	1884.79
835.017	1875.49
835.198	1836.35
835.378	1891.18
835.559	1893.31
835.74	1884.6
835.92	1897.38
836.101	1839.84
836.281	1903.78
836.462	1897.77
836.643	1905.91
836.823	1948.14
837.004	1934.19
837.184	1999.88
837.365	1937.29
837.545	1933.42
837.726	1908.43
837.906	1948.92
838.087	1905.91
838.267	1903.39
838.448	1881.69
838.628	1922.96
838.808	1924.31
838.989	1982.63
839.169	1905.52
839.349	1917.34
839.53	1898.93
839.71	1938.65
839.89	1875.3
840.07	1979.92
840.251	1880.91
840.431	1963.64
840.611	1901.06
840.791	1838.29
840.971	1942.72
841.151	1905.71
841.332	1894.67
841.512	1935.74
841.692	1865.61
841.872	1897.38
842.052	1867.55
842.232	1931.87
842.412	1846.43
842.592	1829.57
842.772	1881.5
842.952	1857.66
843.132	1831.12
843.312	1816.4
843.492	1806.71
843.672	1893.31
843.851	1774.35
844.031	1826.08
844.211	1840.03
844.391	1783.07
844.571	1831.31
844.751	1828.02
844.93	1859.02
845.11	1780.75
845.29	1823.18
845.47	1853.98
845.649	1835.96
845.829	1848.17
846.009	1797.8
846.188	1834.22
846.368	1815.82
846.547	1804.77
846.727	1856.7
846.907	1809.42
847.086	1832.67
847.266	1840.03
847.445	1806.9
847.625	1782.49
847.804	1797.6
847.984	1766.8
848.163	1739.09
848.343	1766.99
848.522	1780.55
848.701	1800.12
848.881	1734.64
849.06	1766.99
849.239	1766.99
849.419	1752.46
849.598	1672.83
849.777	1696.08
849.957	1675.74
850.136	1621.29
850.315	1593.39
850.494	1626.14
850.674	1594.75
850.853	1680.19
851.032	1587.39
851.211	1694.34
851.39	1663.53
851.569	1599.21
851.748	1587.97
851.927	1654.62
852.107	1648.22
852.286	1619.55
852.465	1617.42
852.644	1693.37
852.823	1618.19
853.002	1643.96
853.181	1663.92
853.359	1635.05
853.538	1581.57
853.717	1653.26
853.896	1564.14
854.075	1445.95
854.254	1457.96
854.433	1383.57
854.611	1449.25
854.79	1362.64
854.969	1429.68
855.148	1480.05
855.327	1397.13
855.505	1468.23
855.684	1479.86
855.863	1468.81
856.041	1491.48
856.22	1496.91
856.399	1473.08
856.577	1581.38
856.756	1578.67
856.934	1671.67
857.113	1667.99
857.291	1570.14
857.47	1523.45
857.648	1563.17
857.827	1560.65
858.005	1566.07
858.184	1523.45
858.362	1642.8
858.541	1532.94
858.719	1543.99
858.898	1555.23
859.076	1525.19
859.254	1602.5
859.433	1538.76
859.611	1500.78
859.789	1487.41
859.967	1550.96
860.146	1608.31
860.324	1467.65
860.502	1521.51
860.68	1462.23
860.859	1497.29
861.037	1499.23
861.215	1535.08
861.393	1551.93
861.571	1490.71
861.749	1467.85
861.927	1519.19
862.105	1524.42
862.283	1504.08
862.461	1451.96
862.639	1441.3
862.817	1481.99
862.995	1433.55
863.173	1452.93
863.351	1449.63
863.529	1472.3
863.707	1507.18
863.885	1496.91
864.063	1367.87
864.241	1417.28
864.418	1473.46
864.596	1436.26
864.774	1385.7
864.952	1399.26
865.129	1443.24
865.307	1416.11
865.485	1350.24
865.663	1452.35
865.84	1359.35
866.018	1402.94
866.196	1192.34
866.373	1262.86
866.551	1223.34
866.728	1165.41
866.906	1223.34
867.084	1250.27
867.261	1284.17
867.439	1270.42
867.616	1365.74
867.794	1299.87
867.971	1302.77
868.149	1286.69
868.326	1394.22
868.503	1363.61
868.681	1318.66
868.858	1295.02
869.035	1278.55
869.213	1343.07
869.39	1297.35
869.567	1374.85
869.745	1328.35
869.922	1319.63
870.099	1349.85
870.276	1358.77
870.454	1361.67
870.631	1325.25
870.808	1313.82
870.985	1335.71
871.162	1401.97
871.339	1322.92
871.517	1277.39
871.694	1263.64
871.871	1312.85
872.048	1302.58
872.225	1271
872.402	1313.43
872.579	1251.24
872.756	1294.83
872.933	1214.81
873.11	1246
873.287	1288.24
873.463	1238.45
873.64	1236.7
873.817	1290.37
873.994	1267.12
874.171	1264.02
874.348	1265.96
874.524	1191.17
874.701	1245.62
874.878	1186.72
875.055	1249.88
875.231	1224.5
875.408	1263.25
875.585	1164.63
875.762	1211.91
875.938	1198.73
876.115	1213.46
876.291	1212.87
876.468	1170.64
876.645	1156.3
876.821	1191.17
876.998	1196.99
877.174	1193.31
877.351	1186.33
877.527	1167.73
877.704	1204.35
877.88	1182.46
878.057	1145.45
878.233	1196.79
878.409	1156.49
878.586	1199.31
878.762	1157.07
878.938	1134.21
879.115	1102.44
879.291	1140.02
879.467	1093.33
879.644	1100.11
879.82	1159.79
879.996	1071.24
880.172	1078.8
880.349	1150.1
880.525	1144.67
880.701	1076.28
880.877	1110.38
881.053	1124.14
881.229	1097.79
881.405	1141.19
881.581	1061.75
881.757	1113.09
881.933	1125.3
882.109	1166.76
882.285	1134.41
882.461	1076.67
882.637	1125.69
882.813	1054.78
882.989	1128.21
883.165	1162.69
883.341	1105.93
883.517	1137.51
883.693	1135.18
883.869	1147.97
884.044	1084.42
884.22	1136.73
884.396	1165.6
884.572	1120.26
884.747	1160.17
884.923	1127.43
885.099	1124.14
885.275	1176.45
885.45	1123.17
885.626	1102.44
885.801	1072.41
885.977	1119.68
886.153	1055.36
886.328	1130.72
886.504	1079.38
886.679	1097.79
886.855	1077.83
887.03	1124.91
887.206	1171.61
887.381	1088.68
887.557	1111.54
887.732	1088.88
887.908	1148.74
888.083	1143.71
888.258	1078.03
888.434	1091.59
888.609	1099.34
888.784	1121.04
888.96	1084.81
889.135	1094.11
889.31	1067.37
889.485	1104.96
889.661	1099.34
889.836	1139.06
890.011	1120.65
890.186	1116.39
890.361	1056.91
890.537	1122.2
890.712	1150.87
890.887	1124.53
891.062	1082.68
891.237	1139.06
891.412	1088.1
891.587	1109.41
891.762	1107.67
891.937	1125.11
892.112	1068.53
892.287	1129.95
892.462	1048.58
892.637	1022.81
892.812	1003.63
892.987	1014.09
893.161	1006.73
893.336	1021.65
893.511	1040.05
893.686	1056.52
893.861	1005.56
894.035	1006.53
894.21	1045.28
894.385	957.32
894.56	990.65
894.734	956.35
894.909	949.57
895.084	946.28
895.258	965.07
895.433	959.65
895.608	954.22
895.782	871.49
895.957	881.18
896.131	900.55
896.306	836.23
896.48	844.17
896.655	848.82
896.829	783.34
897.004	785.08
897.178	801.74
897.353	774.81
897.527	814.53
897.701	811.43
897.876	735.09
898.05	827.12
898.224	812.98
898.399	860.45
898.573	810.27
898.747	661.28
898.921	738.58
899.096	636.28
899.27	674.06
899.444	647.52
899.618	707.58
899.792	725.41
899.967	675.03
900.141	742.26
900.315	668.06
900.489	692.86
900.663	727.34
900.837	692.86
901.011	678.13
901.185	773.26
901.359	743.81
901.533	706.22
901.707	723.47
901.881	711.07
902.055	626.01
902.229	691.31
902.403	750.21
902.576	710.29
902.75	734.71
902.924	848.82
903.098	766.29
903.272	819.76
903.446	841.85
903.619	803.29
903.793	856.19
903.967	805.23
904.14	866.26
904.314	864.32
904.488	850.95
904.661	857.35
904.835	857.74
905.009	923.03
905.182	916.44
905.356	871.88
905.529	837.78
905.703	826.93
905.876	804.65
906.05	786.05
906.223	785.27
906.397	706.81
906.57	744.2
906.744	683.94
906.917	720.76
907.09	712.62
907.264	698.47
907.437	644.81
907.61	647.71
907.784	645.19
907.957	668.06
908.13	612.45
908.304	684.14
908.477	636.48
908.65	645.78
908.823	601.99
908.996	656.43
909.17	616.91
909.343	599.28
909.516	632.99
909.689	633.57
909.862	597.15
910.035	605.28
910.208	632.41
910.381	597.34
910.554	677.36
910.727	605.09
910.9	612.26
911.073	593.66
911.246	680.26
911.419	676.58
911.592	632.79
911.765	628.34
911.938	611.29
912.11	590.95
912.283	626.98
912.456	647.71
912.629	613.61
912.802	600.63
912.974	574.67
913.147	507.83
913.32	496.78
913.493	496.2
913.665	546.38
913.838	538.63
914.01	504.34
914.183	557.62
914.356	548.13
914.528	571.96
914.701	639.77
914.873	630.28
915.046	560.14
915.218	527.98
915.391	481.48
915.563	478.77
915.736	535.15
915.908	540.76
916.081	540.96
916.253	529.53
916.425	554.52
916.598	557.43
916.77	547.16
916.942	522.16
917.115	474.89
917.287	515.38
917.459	500.27
917.632	486.9
917.804	440.02
917.976	510.93
918.148	508.41
918.32	506.47
918.493	514.8
918.665	554.33
918.837	545.61
919.009	587.07
919.181	571.38
919.353	551.23
919.525	558.01
919.697	521
919.869	560.72
920.041	586.3
920.213	653.33
920.385	586.3
920.557	555.68
920.729	592.88
920.901	569.44
921.073	542.31
921.244	515.77
921.416	561.69
921.588	548.71
921.76	518.1
921.932	593.66
922.103	553.75
922.275	535.34
922.447	542.9
922.619	447.38
922.79	547.93
922.962	517.13
923.134	556.46
923.305	505.5
923.477	491.55
923.648	448.35
923.82	527.98
923.991	465.78
924.163	464.04
924.335	472.18
924.506	433.82
924.677	520.42
924.849	466.95
925.02	472.57
925.192	484.97
925.363	470.43
925.535	488.07
925.706	446.8
925.877	527.2
926.049	465.4
926.22	469.85
926.391	489.03
926.562	488.65
926.734	459.2
926.905	483.61
927.076	426.65
927.247	459.39
927.419	432.27
927.59	417.15
927.761	444.47
927.932	421.61
928.103	420.64
928.274	358.06
928.445	353.41
928.616	372.79
928.787	360.97
928.958	413.09
929.129	377.63
929.3	359.42
929.471	327.45
929.642	272.81
929.813	258.86
929.984	327.45
930.155	235.61
930.326	284.63
930.496	256.15
930.667	216.82
930.838	247.82
931.009	194.93
931.18	224.38
931.35	194.15
931.521	242.2
931.692	172.06
931.863	129.63
932.033	172.26
932.204	197.06
932.374	169.74
932.545	143.39
932.716	192.79
932.886	204.61
933.057	92.05
933.227	112.97
933.398	212.36
933.568	101.54
933.739	79.65
933.909	88.56
934.08	130.6
934.25	61.82
934.421	79.84
934.591	114.91
934.761	65.31
934.932	41.09
935.102	117.81
935.272	81.97
935.443	114.52
935.613	57.37
935.783	110.84
935.953	60.47
936.123	241.43
936.294	41.87
936.464	75.77
936.634	93.21
936.804	56.2
936.974	51.75
937.144	88.17
937.314	83.71
937.484	64.92
937.655	55.04
937.825	135.83
937.995	62.21
938.165	124.79
938.334	74.03
938.504	108.32
938.674	80.42
938.844	98.44
939.014	157.15
939.184	163.15
939.354	200.93
939.524	157.34
939.694	138.74
939.863	138.93
940.033	229.22
940.203	208.49
940.373	174
940.542	178.46
940.712	119.17
940.882	208.29
941.051	177.29
941.221	148.62
941.391	169.74
941.56	124.4
941.73	131.57
941.899	247.04
942.069	156.95
942.238	161.02
942.408	132.54
942.577	169.16
942.747	128.86
942.916	69.38
943.086	98.05
943.255	170.51
943.425	136.61
943.594	94.76
943.763	35.28
943.933	61.82
944.102	43.03
944.271	104.45
944.441	115.1
944.61	111.23
944.779	114.13
944.948	191.63
945.117	78.29
945.287	105.8
945.456	42.83
945.625	75.58
945.794	143.97
945.963	69.57
946.132	102.7
946.301	83.33
946.47	128.86
946.639	53.3
946.808	103.48
946.977	126.73
947.146	162.76
947.315	93.01
947.484	144.75
947.653	107.16
947.822	97.66
947.991	67.83
948.16	189.11
948.329	166.45
948.498	98.25
948.666	121.69
948.835	140.48
949.004	81
949.173	71.12
949.341	85.46
949.51	129.83
949.679	149.4
949.847	113.75
950.016	162.38
950.185	182.72
950.353	87.59
950.522	112.2
950.69	153.46
950.859	104.25
951.028	160.63
951.196	122.46
951.365	120.14
951.533	95.15
951.701	163.15
951.87	145.71
952.038	52.33
952.207	97.66
952.375	144.75
952.543	100.18
952.712	101.15
952.88	82.55
953.048	151.72
953.217	109.48
953.385	90.88
953.553	162.96
953.721	81.58
953.89	92.82
954.058	40.7
954.226	78.29
954.394	111.61
954.562	36.63
954.73	104.06
954.898	114.13
955.067	132.73
955.235	106.38
955.403	129.63
955.571	160.63
955.739	136.8
955.907	71.9
956.075	70.15
956.243	90.3
956.41	141.65
956.578	55.04
956.746	33.92
956.914	109.29
957.082	137.96
957.25	108.32
957.418	108.32
957.585	90.11
957.753	160.83
957.921	58.53
958.089	82.55
958.256	156.56
958.424	105.8
958.592	120.14
958.759	68.02
958.927	117.23
959.095	76.93
959.262	110.65
959.43	97.28
959.597	74.22
959.765	109.68
959.932	73.45
960.1	116.46
960.267	81.2
960.435	87.59
960.602	136.41
960.77	81.2
960.937	62.98
961.104	87.59
961.272	44.58
961.439	88.75
961.606	118.98
961.774	132.15
961.941	100.18
962.108	136.22
962.275	139.71
962.443	149.2
962.61	117.04
962.777	148.04
962.944	158.31
963.111	121.69
963.278	120.72
963.446	115.88
963.613	102.7
963.78	128.47
963.947	135.25
964.114	99.99
964.281	199.19
964.448	134.67
964.615	84.88
964.782	123.82
964.949	148.04
965.116	148.81
965.282	129.63
965.449	115.3
965.616	86.43
965.783	127.5
965.95	139.51
966.117	64.73
966.283	136.03
966.45	113.55
966.617	100.38
966.784	173.03
966.95	143
967.117	144.55
967.284	81.97
967.45	94.37
967.617	152.11
967.784	140.48
967.95	189.11
968.117	126.34
968.283	163.35
968.45	259.64
968.616	160.44
968.783	175.36
968.949	150.17
969.116	174.39
969.282	145.52
969.449	129.83
969.615	129.05
969.781	78.48
969.948	124.21
970.114	102.9
970.28	188.53
970.447	120.53
970.613	179.62
970.779	143.58
970.945	166.06
971.112	146.49
971.278	139.9
971.444	141.65
971.61	132.54
971.776	120.91
971.942	183.11
972.108	149.4
972.275	137.38
972.441	157.53
972.607	206.16
972.773	112.97
972.939	169.16
973.105	111.23
973.271	74.22
973.437	122.66
973.602	74.8
973.768	125.95
973.934	125.76
974.1	122.46
974.266	50.2
974.432	110.26
974.598	102.7
974.763	151.91
974.929	108.51
975.095	175.74
975.261	93.98
975.426	69.18
975.592	107.93
975.758	165.48
975.923	49.23
976.089	98.25
976.255	134.09
976.42	114.13
976.586	124.21
976.751	125.76
976.917	226.12
977.082	131.18
977.248	50.58
977.413	55.43
977.579	91.27
977.744	130.8
977.91	75.97
978.075	92.43
978.24	137.77
978.406	84.1
978.571	114.33
978.736	102.31
978.902	114.71
979.067	84.1
979.232	51.75
979.397	127.89
979.563	141.84
979.728	73.45
979.893	97.08
980.058	74.8
980.223	129.25
980.388	123.24
980.554	131.18
980.719	84.3
980.884	130.8
981.049	147.26
981.214	104.83
981.379	145.13
981.544	79.65
981.709	97.08
981.874	118.01
982.039	94.76
982.204	135.25
982.368	110.06
982.533	102.51
982.698	134.67
982.863	143.78
983.028	81.97
983.193	108.32
983.357	126.15
983.522	112
983.687	87.4
983.852	118.78
984.016	103.86
984.181	119.75
984.346	137
984.51	154.63
984.675	115.88
984.839	158.31
985.004	124.98
985.168	159.28
985.333	98.63
985.498	109.87
985.662	133.12
985.827	124.79
985.991	97.28
986.155	81.2
986.32	126.73
986.484	174.19
986.649	125.37
986.813	39.73
986.977	137.96
987.142	131.38
987.306	62.21
987.47	74.61
987.634	104.83
987.799	93.79
987.963	133.51
988.127	104.06
988.291	170.71
988.455	112.2
988.62	92.63
988.784	114.91
988.948	132.73
989.112	69.96
989.276	117.81
989.44	102.31
989.604	88.75
989.768	60.66
989.932	182.72
990.096	63.57
990.26	93.21
990.424	87.2
990.588	89.14
990.752	142.61
990.915	135.45
991.079	68.6
991.243	99.6
991.407	109.29
991.571	80.03
991.734	106.38
991.898	97.28
992.062	197.44
992.226	73.64
992.389	52.13
992.553	61.05
992.717	65.5
992.88	116.26
993.044	79.84
993.207	71.32
993.371	105.41
993.535	102.7
993.698	86.23
993.862	127.7
994.025	143.39
994.189	97.47
994.352	88.36
994.515	96.5
994.679	131.57
994.842	75
995.006	124.79
995.169	59.3
995.332	71.7
995.496	102.51
995.659	38.18
995.822	79.45
995.985	66.67
996.149	117.62
996.312	75.38
996.475	167.8
996.638	65.89
996.801	145.91
996.964	160.25
997.128	75
997.291	76.74
997.454	82.55
997.617	18.03
997.78	117.62
997.943	49.23
998.106	119.95
998.269	55.62
998.432	48.84
998.595	70.35
998.758	29.47
998.92	24.82
999.083	26.75
999.246	82.16
999.409	43.61
999.572	4.67
999.735	62.21
999.897	108.9
1000.06	68.8
1000.223	74.42
1000.386	98.63
1000.548	105.03
1000.711	98.83
1000.874	93.79
1001.036	33.34
1001.199	135.45
1001.361	45.74
1001.524	79.65
1001.687	93.21
1001.849	62.6
1002.012	87.78
1002.174	106
1002.337	97.28
1002.499	62.98
1002.661	86.43
1002.824	7.96
1002.986	27.53
1003.149	76.16
1003.311	33.34
1003.473	139.51
1003.636	25.98
1003.798	81.78
1003.96	68.22
1004.123	65.5
1004.285	36.25
1004.447	48.45
1004.609	49.81
1004.771	120.53
1004.933	23.07
1005.096	35.67
1005.258	27.33
1005.42	69.77
1005.582	90.5
1005.744	93.6
1005.906	20.55
1006.068	85.85
1006.23	20.17
1006.392	-20.91
1006.554	9.7
1006.716	89.91
1006.878	94.18
1007.04	19.58
1007.202	-1.53
1007.363	47.48
1007.525	81.58
1007.687	87.01
1007.849	105.8
1008.011	-1.34
1008.172	24.43
1008.334	56.2
1008.496	67.83
1008.658	-18.58
1008.819	17.45
1008.981	25.98
1009.143	29.85
1009.304	33.92
1009.466	69.18
1009.627	98.63
1009.789	164.31
1009.95	78.48
1010.112	45.35
1010.273	59.5
1010.435	9.9
1010.596	29.08
1010.758	19.97
1010.919	29.85
1011.081	21.52
1011.242	43.42
1011.403	107.35
1011.565	33.92
1011.726	36.05
1011.887	15.32
1012.049	46.9
1012.21	86.62
1012.371	106
1012.532	-31.18
1012.693	27.72
1012.855	27.92
1013.016	44.19
1013.177	55.82
1013.338	29.85
1013.499	86.23
1013.66	60.85
1013.821	51.94
1013.982	19.97
1014.143	57.95
1014.304	18.42
1014.465	80.23
1014.626	68.22
1014.787	20.17
1014.948	114.91
1015.109	-34.28
1015.27	88.17
1015.431	34.12
1015.592	2.73
1015.752	101.54
1015.913	41.28
1016.074	48.84
1016.235	63.76
1016.395	49.23
1016.556	51.17
1016.717	29.08
1016.877	71.12
1017.038	17.07
1017.199	38.57
1017.359	38.57
1017.52	18.42
1017.681	31.02
1017.841	34.12
1018.002	33.73
1018.162	10.87
1018.323	72.48
1018.483	32.95
1018.644	32.95
1018.804	-4.25
1018.964	-27.5
1019.125	35.28
1019.285	38.38
1019.446	-1.53
1019.606	12.22
1019.766	-0.76
1019.926	51.94
1020.087	34.7
1020.247	5.44
1020.407	46.9
1020.567	75.38
1020.728	16.68
1020.888	-23.04
1021.048	19.78
1021.208	17.84
1021.368	12.03
1021.528	63.95
1021.688	59.5
1021.848	39.35
1022.008	28.5
1022.168	16.1
1022.328	39.73
1022.488	39.73
1022.648	3.31
1022.808	13.77
1022.968	37.41
1023.128	12.8
1023.288	9.9
1023.448	4.08
1023.608	47.1
1023.767	29.27
1023.927	2.92
1024.087	-23.43
1024.247	-22.65
1024.406	22.49
1024.566	-20.91
1024.726	-28.08
1024.885	28.3
1025.045	84.3
1025.205	19.78
1025.364	10.09
1025.524	35.67
1025.683	18.81
1025.843	23.85
1026.003	-12.19
1026.162	43.61
1026.321	51.75
1026.481	32.37
1026.64	12.8
1026.8	36.25
1026.959	32.76
1027.119	27.14
1027.278	-5.99
1027.437	0.98
1027.597	28.5
1027.756	30.82
1027.915	30.24
1028.074	35.67
1028.234	-16.45
1028.393	19.97
1028.552	24.43
1028.711	-18.97
1028.87	62.21
1029.03	-36.41
1029.189	36.44
1029.348	-50.36
1029.507	16.29
1029.666	10.28
1029.825	12.22
1029.984	5.25
1030.143	48.07
1030.302	-9.09
1030.461	-31.95
1030.62	36.63
1030.779	47.1
1030.938	17.65
1031.097	-13.93
1031.255	53.68
1031.414	66.67
1031.573	44.19
1031.732	-30.4
1031.891	22.49
1032.049	64.53
1032.208	28.3
1032.367	6.41
1032.525	37.02
1032.684	2.53
1032.843	33.73
1033.001	-33.89
1033.16	150.36
1033.319	70.15
1033.477	17.07
1033.636	-9.67
1033.794	-45.51
1033.953	45.93
1034.111	62.02
1034.27	-1.73
1034.428	54.07
1034.587	-20.13
1034.745	2.92
1034.903	13.97
1035.062	30.05
1035.22	-26.53
1035.378	42.06
1035.537	-12.77
1035.695	47.29
1035.853	-4.63
1036.011	42.83
1036.17	10.48
1036.328	-33.7
1036.486	25.4
1036.644	39.54
1036.802	-44.74
1036.96	4.28
1037.119	-9.09
1037.277	13.97
1037.435	-25.17
1037.593	-11.41
1037.751	5.25
1037.909	44.38
1038.067	44.38
