Data from gum_old_FLMT105791__75__15-44-03-257.txt Node

Date: Mon Mar 20 15:44:03 GMT 2023
User: antho
Spectrometer: FLMT10579
Trigger mode: 0
Integration Time (sec): 1.000000E-1
Scans to average: 10
Electric dark correction enabled: true
Nonlinearity correction enabled: false
Boxcar width: 0
XAxis mode: Wavelengths
Number of Pixels in Spectrum: 3648
>>>>>Begin Spectral Data<<<<<
345.248	-184.93
345.464	-184.93
345.681	-184.93
345.898	-195.39
346.114	-177.57
346.331	-40.78
346.548	53.96
346.764	-16.57
346.981	12.11
347.197	-19.67
347.414	14.05
347.631	-29.93
347.847	88.06
348.064	-16.95
348.28	12.5
348.497	-40.59
348.713	-16.18
348.93	-0.1
349.146	32.26
349.363	14.82
349.579	-2.42
349.796	5.33
350.012	16.95
350.229	32.65
350.445	20.44
350.661	-17.53
350.878	5.33
351.094	40.01
351.311	41.37
351.527	28.97
351.743	12.3
351.96	52.02
352.176	62.1
352.392	31.68
352.609	70.23
352.825	-17.34
353.041	26.25
353.257	7.46
353.474	0.1
353.69	39.82
353.906	13.66
354.122	2.42
354.339	83.8
354.555	8.04
354.771	-5.91
354.987	70.81
355.203	74.5
355.42	-2.23
355.636	22.77
355.852	1.84
356.068	29.55
356.284	-11.14
356.5	58.8
356.716	23.15
356.932	10.75
357.148	38.07
357.364	16.37
357.58	67.91
357.796	78.37
358.012	74.5
358.228	40.4
358.444	-42.92
358.66	62.1
358.876	60.55
359.092	8.43
359.308	29.74
359.524	49.5
359.74	26.25
359.956	7.65
360.172	49.89
360.388	82.25
360.604	-7.46
360.819	102.01
361.035	54.15
361.251	80.7
361.467	18.89
361.683	56.48
361.898	49.89
362.114	54.15
362.33	56.86
362.546	55.9
362.762	19.86
362.977	57.06
363.193	-1.07
363.409	83.02
363.624	-0.29
363.84	11.14
364.056	13.08
364.271	49.11
364.487	29.93
364.703	31.1
364.918	0.87
365.134	48.73
365.35	35.75
365.565	157.61
365.781	57.25
365.996	46.4
366.212	114.6
366.427	64.42
366.643	52.99
366.858	33.42
367.074	50.47
367.289	97.55
367.505	165.36
367.72	32.84
367.936	22.96
368.151	100.85
368.367	78.37
368.582	48.34
368.798	45.63
369.013	66.16
369.228	51.44
369.444	56.86
369.659	103.75
369.874	74.3
370.09	99.3
370.305	-26.45
370.52	34.58
370.736	101.81
370.951	49.31
371.166	104.14
371.381	119.06
371.597	77.4
371.812	40.4
372.027	26.45
372.242	70.43
372.458	149.86
372.673	21.6
372.888	59.58
373.103	74.69
373.318	138.63
373.533	83.99
373.749	80.89
373.964	15.98
374.179	98.52
374.394	26.83
374.609	118.28
374.824	23.54
375.039	105.5
375.254	22.38
375.469	114.6
375.684	66.55
375.899	92.13
376.114	80.11
376.329	52.6
376.544	91.35
376.759	108.21
376.974	32.65
377.189	49.89
377.404	70.04
377.619	102.78
377.834	7.46
378.049	15.98
378.264	38.46
378.478	83.8
378.693	75.46
378.908	83.21
379.123	45.24
379.338	117.51
379.553	77.79
379.767	81.47
379.982	98.71
380.197	60.16
380.412	63.45
380.626	84.96
380.841	176.41
381.056	99.3
381.271	155.09
381.485	39.04
381.7	67.33
381.915	84.96
382.129	59.96
382.344	78.37
382.559	64.61
382.773	111.11
382.988	24.9
383.202	69.07
383.417	45.24
383.632	180.48
383.846	64.23
384.061	71.98
384.275	52.02
384.49	75.08
384.704	88.64
384.919	95.23
385.133	83.6
385.348	131.26
385.562	66.75
385.777	134.36
385.991	89.22
386.206	63.84
386.42	73.91
386.634	146.96
386.849	115.57
387.063	109.95
387.277	60.74
387.492	83.8
387.706	57.83
387.92	56.86
388.135	112.08
388.349	113.83
388.563	94.06
388.778	107.43
388.992	95.23
389.206	120.22
389.42	198.88
389.635	122.74
389.849	129.52
390.063	157.42
390.277	132.04
390.491	181.06
390.706	123.9
390.92	149.86
391.134	134.56
391.348	160.13
391.562	110.73
391.776	119.45
391.99	145.99
392.205	173.69
392.419	111.5
392.633	136.88
392.847	172.92
393.061	89.03
393.275	135.72
393.489	117.51
393.703	100.46
393.917	126.23
394.131	61.71
394.345	134.94
394.559	148.12
394.773	72.56
394.986	156.26
395.2	126.81
395.414	175.05
395.628	133.39
395.842	163.62
396.056	167.3
396.27	94.65
396.484	168.66
396.697	149.86
396.911	158
397.125	137.46
397.339	151.41
397.553	108.21
397.766	172.92
397.98	123.32
398.194	211.67
398.408	163.04
398.621	192.88
398.835	218.26
399.049	219.81
399.262	273.86
399.476	224.46
399.69	258.94
399.903	301.57
400.117	223.49
400.331	250.03
400.544	219.03
400.758	342.25
400.971	239.96
401.185	253.52
401.398	196.56
401.612	295.17
401.826	266.11
402.039	292.66
402.253	241.7
402.466	279.67
402.68	252.94
402.893	258.56
403.106	273.09
403.32	248.29
403.533	282.58
403.747	256.42
403.96	279.87
404.174	282.97
404.387	234.92
404.6	272.31
404.814	307.57
405.027	275.22
405.24	247.71
405.454	271.54
405.667	296.53
405.88	235.31
406.094	279.48
406.307	305.25
406.52	293.24
406.733	245.77
406.947	227.56
407.16	336.83
407.373	323.85
407.586	280.06
407.799	254.68
408.012	324.82
408.226	257.01
408.439	336.83
408.652	253.71
408.865	311.25
409.078	347.87
409.291	337.41
409.504	253.71
409.717	336.83
409.93	314.16
410.143	315.52
410.357	230.66
410.57	241.51
410.783	244.8
410.996	274.25
411.209	295.95
411.421	347.68
411.634	338.19
411.847	294.01
412.06	338.19
412.273	356.79
412.486	347.29
412.699	412.97
412.912	350.59
413.125	355.43
413.338	366.86
413.55	359.69
413.763	328.11
413.976	334.12
414.189	307.19
414.402	328.11
414.615	410.84
414.827	300.6
415.04	377.52
415.253	372.67
415.466	385.46
415.678	436.22
415.891	350.2
416.104	330.05
416.316	369.38
416.529	334.89
416.742	413.75
416.954	436.03
417.167	363.76
417.38	350.78
417.592	413.94
417.805	345.35
418.017	312.8
418.23	375.77
418.442	350.97
418.655	352.52
418.868	356.4
419.08	395.73
419.293	418.2
419.505	411.23
419.718	362.6
419.93	406.38
420.142	398.05
420.355	417.62
420.567	420.14
420.78	405.03
420.992	352.14
421.205	458.7
421.417	370.15
421.629	360.08
421.842	363.37
422.054	351.75
422.266	428.67
422.479	452.5
422.691	396.12
422.903	420.72
423.115	361.44
423.328	379.26
423.54	382.55
423.752	374.61
423.964	357.95
424.177	436.61
424.389	380.04
424.601	486.98
424.813	394.57
425.025	403.48
425.238	423.05
425.45	388.37
425.662	384.88
425.874	739.24
426.086	407.35
426.298	471.48
426.51	444.17
426.722	419.17
426.934	392.63
427.146	430.99
427.358	389.72
427.57	437
427.782	403.87
427.994	388.56
428.206	376.16
428.418	373.64
428.63	451.14
428.842	462.18
429.054	446.1
429.266	436.42
429.478	376.16
429.69	407.93
429.902	360.08
430.114	413.55
430.325	388.37
430.537	349.62
430.749	365.89
430.961	259.52
431.173	313
431.384	361.44
431.596	282.39
431.808	368.99
432.02	417.43
432.231	468
432.443	532.13
432.655	484.85
432.867	432.54
433.078	468.19
433.29	524.18
433.502	489.11
433.713	522.05
433.925	505.78
434.136	539.1
434.348	426.53
434.56	385.65
434.771	518.76
434.983	426.92
435.194	443.78
435.406	472.45
435.617	550.92
435.829	584.63
436.04	555.18
436.252	544.14
436.463	574.56
436.675	585.41
436.886	551.89
437.098	614.66
437.309	614.28
437.521	557.51
437.732	549.95
437.943	546.27
438.155	539.49
438.366	496.86
438.578	582.69
438.789	530.19
439	555.96
439.211	498.03
439.423	530.77
439.634	542.59
439.845	608.85
440.057	562.55
440.268	587.54
440.479	533.87
440.69	565.65
440.902	568.74
441.113	540.65
441.324	510.43
441.535	616.6
441.746	649.34
441.957	567.58
442.168	579.98
442.38	643.73
442.591	649.34
442.802	570.29
443.013	592.19
443.224	644.11
443.435	616.99
443.646	610.21
443.857	596.64
444.068	600.91
444.279	568.36
444.49	691.77
444.701	596.45
444.912	763.85
445.123	677.24
445.334	630.55
445.545	628.42
445.756	641.59
445.967	579.98
446.178	650.12
446.388	646.24
446.599	624.54
446.81	647.02
447.021	625.71
447.232	679.76
447.443	677.05
447.653	636.75
447.864	698.17
448.075	673.37
448.286	691.58
448.496	715.61
448.707	695.07
448.918	637.91
449.129	753.58
449.339	648.18
449.55	713.28
449.761	657.87
449.971	731.69
450.182	675.31
450.393	699.52
450.603	690.42
450.814	763.46
451.024	741.76
451.235	775.09
451.446	782.45
451.656	773.54
451.867	719.87
452.077	704.37
452.288	809.77
452.498	764.04
452.709	714.44
452.919	745.83
453.13	663.49
453.34	729.36
453.55	637.33
453.761	709.99
453.971	716.19
454.182	711.34
454.392	703.01
454.602	783.42
454.813	763.46
455.023	746.22
455.233	674.53
455.444	743.5
455.654	653.8
455.864	699.72
456.075	718.51
456.285	710.37
456.495	737.31
456.705	730.72
456.916	762.49
457.126	808.02
457.336	724.32
457.546	692.55
457.756	716.38
457.967	812.87
458.177	750.29
458.387	766.56
458.597	690.61
458.807	723.16
459.017	713.86
459.227	720.64
459.437	728.01
459.647	754.74
459.857	748.35
460.068	744.67
460.278	828.37
460.488	771.6
460.698	832.24
460.908	755.32
461.117	717.35
461.327	730.72
461.537	781.09
461.747	796.2
461.957	761.72
462.167	900.05
462.377	843.48
462.587	786.52
462.797	863.43
463.007	805.12
463.216	846.58
463.426	870.02
463.636	842.12
463.846	751.25
464.056	776.83
464.265	815.58
464.475	761.33
464.685	829.34
464.895	833.21
465.104	798.34
465.314	851.42
465.524	786.9
465.733	770.82
465.943	878.55
466.153	907.42
466.362	807.83
466.572	847.93
466.782	816.55
466.991	853.75
467.201	885.91
467.41	763.27
467.62	868.47
467.829	825.46
468.039	868.47
468.249	858.2
468.458	854.91
468.668	902.38
468.877	891.92
469.086	925.05
469.296	917.1
469.505	861.69
469.715	956.24
469.924	900.63
470.134	944.61
470.343	937.06
470.552	904.51
470.762	875.45
470.971	845.03
471.18	894.82
471.39	874.87
471.599	864.4
471.808	923.5
472.018	908.97
472.227	966.12
472.436	998.67
472.645	953.14
472.855	921.75
473.064	1052.53
473.273	1013.2
473.482	996.73
473.691	1008.36
473.901	1001
474.11	968.06
474.319	1089.15
474.528	995.76
474.737	1052.14
474.946	1028.31
475.155	1061.83
475.364	1063.19
475.573	1057.38
475.783	1080.43
475.992	1083.34
476.201	1137.01
476.41	1068.03
476.619	1019.21
476.828	1069.39
477.037	1043.23
477.245	1043.62
477.454	1100.39
477.663	1104.07
477.872	1118.02
478.081	1201.91
478.29	1073.46
478.499	1237.17
478.708	1178.08
478.917	1250.74
479.125	1162.77
479.334	1201.72
479.543	1137.01
479.752	1225.94
479.961	1190.29
480.169	1238.14
480.378	1211.02
480.587	1334.63
480.796	1277.86
481.004	1250.15
481.213	1262.36
481.422	1260.81
481.63	1258.68
481.839	1305.18
482.048	1359.81
482.256	1279.22
482.465	1306.73
482.674	1331.14
482.882	1359.81
483.091	1413.48
483.299	1325.91
483.508	1391.78
483.716	1341.22
483.925	1357.88
484.134	1303.05
484.342	1328.43
484.551	1397.21
484.759	1354.39
484.967	1340.63
485.176	1396.05
485.384	1369.7
485.593	1385.78
485.801	1368.53
486.01	1342.38
486.218	1264.88
486.426	1178.66
486.635	1191.06
486.843	1180.4
487.051	1216.44
487.26	1226.13
487.468	1296.65
487.676	1352.26
487.885	1294.91
488.093	1310.02
488.301	1416.58
488.509	1413.1
488.717	1462.5
488.926	1407.48
489.134	1416.2
489.342	1422.01
489.55	1397.98
489.758	1421.04
489.967	1441.77
490.175	1567.71
490.383	1496.99
490.591	1570.03
490.799	1493.5
491.007	1566.35
491.215	1515.01
491.423	1494.28
491.631	1489.43
491.839	1514.62
492.047	1543.1
492.255	1448.74
492.463	1449.13
492.671	1465.79
492.879	1527.21
493.087	1505.51
493.295	1513.46
493.503	1523.53
493.711	1613.62
493.919	1603.36
494.127	1595.61
494.334	1603.74
494.542	1520.24
494.75	1583.01
494.958	1553.17
495.166	1639.59
495.374	1652.57
495.581	1634.16
495.789	1620.99
495.997	1703.14
496.205	1573.91
496.412	1581.07
496.62	1605.49
496.828	1633
497.035	1612.85
497.243	1675.04
497.451	1657.22
497.658	1660.32
497.866	1660.9
498.074	1725.8
498.281	1631.84
498.489	1719.8
498.696	1659.74
498.904	1609.17
499.112	1592.12
499.319	1709.92
499.527	1676.59
499.734	1724.06
499.942	1636.29
500.149	1674.85
500.357	1689.19
500.564	1625.83
500.771	1683.18
500.979	1640.75
501.186	1574.1
501.394	1679.3
501.601	1646.95
501.808	1673.1
502.016	1618.08
502.223	1568.09
502.43	1613.04
502.638	1597.74
502.845	1609.17
503.052	1718.63
503.26	1666.52
503.467	1749.44
503.674	1714.18
503.881	1749.83
504.089	1762.81
504.296	1752.15
504.503	1681.05
504.71	1670.78
504.917	1662.06
505.125	1695
505.332	1717.67
505.539	1742.66
505.746	1794.39
505.953	1772.5
506.16	1758.55
506.367	1842.44
506.574	1863.56
506.781	1830.43
506.988	1766.68
507.195	1777.34
507.402	1763.58
507.609	1805.24
507.816	1776.95
508.023	1746.92
508.23	1746.34
508.437	1693.06
508.644	1766.49
508.851	1790.32
509.058	1812.6
509.265	1821.9
509.472	1823.84
509.679	1905.02
509.885	1795.75
510.092	1797.68
510.299	1831.2
510.506	1779.67
510.713	1836.05
510.92	1815.12
511.126	1838.37
511.333	1880.03
511.54	1843.99
511.746	1900.56
511.953	1911.41
512.16	1937.38
512.367	1859.68
512.573	1869.37
512.78	1863.95
512.987	1835.08
513.193	1817.64
513.4	1749.44
513.606	1865.3
513.813	1845.35
514.02	1814.54
514.226	1880.8
514.433	1854.06
514.639	1788.97
514.846	1850.19
515.052	1791.68
515.259	1832.17
515.465	1864.53
515.672	1841.28
515.878	1934.66
516.085	1852.9
516.291	1894.36
516.497	1884.09
516.704	1818.61
516.91	1790.52
517.117	1743.63
517.323	1618.08
517.529	1667.68
517.736	1690.93
517.942	1685.89
518.148	1705.85
518.354	1751.38
518.561	1753.12
518.767	1774.05
518.973	1823.06
519.179	1794.2
519.386	1793.81
519.592	1782.18
519.798	1849.41
520.004	1908.89
520.21	1856.2
520.417	1917.61
520.623	1943.77
520.829	1986.78
521.035	1976.9
521.241	1940.86
521.447	1977.09
521.653	2075.71
521.859	1936.99
522.065	2028.63
522.271	2077.45
522.477	2045.29
522.683	2099.35
522.889	2027.47
523.095	2019.52
523.301	2000.34
523.507	1963.92
523.713	2017.39
523.919	1967.41
524.125	2138.1
524.331	2035.02
524.537	2178.59
524.742	2109.62
524.948	2172
525.154	2183.63
525.36	2270.81
525.566	2158.44
525.772	2202.42
525.977	2137.13
526.183	2170.07
526.389	2209.98
526.595	2121.63
526.8	2122.21
527.006	2030.76
527.212	1958.3
527.417	1916.64
527.623	1950.16
527.829	2073.39
528.034	2058.08
528.24	2093.54
528.446	2103.42
528.651	2247.37
528.857	2193.51
529.062	2234.78
529.268	2234.58
529.473	2303.95
529.679	2245.63
529.884	2351.8
530.09	2316.93
530.295	2301.62
530.501	2343.66
530.706	2312.28
530.912	2283.41
531.117	2294.84
531.323	2294.65
531.528	2384.16
531.733	2368.27
531.939	2323.32
532.144	2375.05
532.35	2313.05
532.555	2398.3
532.76	2331.65
532.966	2354.32
533.171	2327.58
533.376	2222.38
533.581	2163.09
533.787	2295.61
533.992	2281.66
534.197	2328.55
534.402	2293.1
534.607	2338.82
534.813	2391.91
535.018	2311.5
535.223	2361.1
535.428	2342.11
535.633	2385.51
535.838	2408.57
536.043	2399.46
536.249	2520.17
536.454	2430.07
536.659	2460.11
536.864	2438.02
537.069	2397.72
537.274	2430.07
537.479	2382.22
537.684	2401.59
537.889	2379.7
538.094	2481.03
538.299	2395.78
538.504	2411.09
538.708	2455.26
538.913	2489.56
539.118	2400.82
539.323	2443.83
539.528	2403.53
539.733	2393.84
539.938	2441.12
540.142	2454.1
540.347	2433.37
540.552	2378.93
540.757	2380.67
540.962	2378.73
541.166	2342.69
541.371	2337.85
541.576	2370.59
541.781	2311.31
541.985	2407.21
542.19	2410.7
542.395	2497.5
542.599	2503.7
542.804	2439.37
543.008	2520.36
543.213	2447.71
543.418	2406.44
543.622	2498.08
543.827	2398.88
544.031	2516.49
544.236	2492.07
544.44	2512.61
544.645	2570.15
544.849	2508.35
545.054	2553.49
545.258	2601.54
545.463	2549.04
545.667	2463.21
545.872	2505.05
546.076	2486.65
546.281	2557.56
546.485	2476.19
546.689	2513.97
546.894	2557.37
547.098	2519.59
547.302	2469.21
547.507	2494.01
547.711	2526.37
547.915	2516.87
548.119	2469.41
548.324	2446.35
548.528	2559.5
548.732	2468.24
548.936	2496.92
549.141	2551.17
549.345	2506.8
549.549	2487.62
549.753	2527.34
549.957	2623.05
550.161	2603.28
550.366	2566.09
550.57	2489.36
550.774	2512.03
550.978	2524.43
551.182	2541.48
551.386	2522.49
551.59	2525.4
551.794	2504.67
551.998	2555.82
552.202	2503.89
552.406	2480.06
552.61	2588.37
552.814	2538.77
553.018	2622.66
553.222	2500.6
553.426	2537.22
553.63	2588.75
553.833	2520.94
554.037	2452.55
554.241	2551.17
554.445	2517.26
554.649	2513.97
554.853	2477.35
555.056	2572.29
555.26	2604.25
555.464	2544.58
555.668	2546.9
555.871	2556.4
556.075	2570.93
556.279	2495.17
556.483	2491.3
556.686	2509.32
556.89	2490.72
557.094	2485.49
557.297	2423.87
557.501	2523.85
557.704	2438.41
557.908	2485.1
558.112	2400.82
558.315	2492.65
558.519	2405.86
558.722	2440.15
558.926	2377.57
559.129	2367.49
559.333	2323.71
559.536	2335.53
559.74	2342.11
559.943	2347.73
560.147	2318.28
560.35	2341.53
560.553	2368.08
560.757	2292.71
560.96	2398.69
561.164	2358.78
561.367	2460.49
561.57	2418.84
561.774	2394.23
561.977	2350.06
562.18	2345.02
562.384	2466.11
562.587	2351.22
562.79	2352.19
562.993	2353.54
563.197	2391.52
563.4	2397.14
563.603	2415.74
563.806	2450.42
564.009	2327.97
564.212	2371.76
564.416	2262.68
564.619	2325.64
564.822	2291.55
565.025	2386.09
565.228	2332.43
565.431	2364.78
565.634	2256.48
565.837	2297.55
566.04	2242.53
566.243	2246.21
566.446	2146.82
566.649	2285.35
566.852	2168.32
567.055	2240.98
567.258	2261.71
567.461	2328.36
567.664	2316.15
567.867	2206.49
568.07	2283.8
568.273	2238.26
568.475	2301.23
568.678	2192.35
568.881	2214.43
569.084	2190.22
569.287	2098.77
569.489	2159.8
569.692	2198.93
569.895	2189.44
570.098	2175.68
570.3	2111.55
570.503	2039.29
570.706	2107.49
570.909	2094.5
571.111	2041.61
571.314	2077.84
571.516	2075.52
571.719	2041.81
571.922	2008.09
572.124	2030.57
572.327	2077.26
572.529	2051.11
572.732	2049.17
572.935	2079.59
573.137	2178.98
573.34	2068.35
573.542	2127.64
573.745	2109.81
573.947	2121.63
574.15	2057.11
574.352	2061.18
574.554	2139.84
574.757	2036.19
574.959	2012.94
575.162	2041.81
575.364	2041.42
575.566	2109.23
575.769	2012.94
575.971	2053.82
576.173	1916.45
576.376	1992.21
576.578	2061.18
576.78	2070.67
576.982	1928.27
577.185	1987.56
577.387	1946.09
577.589	1960.43
577.791	2031.15
577.993	2029.79
578.196	1998.21
578.398	1997.44
578.6	2008.09
578.802	1923.81
579.004	1915.87
579.206	1941.83
579.408	1988.52
579.61	1931.76
579.812	2018.36
580.014	1917.23
580.216	1954.04
580.418	1932.14
580.62	1931.56
580.822	1926.14
581.024	1946.09
581.226	1988.33
581.428	1984.84
581.63	2033.67
581.832	1956.36
582.034	2010.81
582.236	1968.76
582.438	1976.71
582.64	2011
582.841	2015.46
583.043	2055.75
583.245	1963.14
583.447	2003.64
583.649	1944.93
583.85	1955.39
584.052	2029.02
584.254	1940.09
584.456	1964.69
584.657	1893.2
584.859	1970.31
585.061	1941.44
585.262	1966.24
585.464	1871.31
585.666	1950.94
585.867	1866.85
586.069	1953.84
586.27	1869.95
586.472	1875.18
586.674	1871.11
586.875	1861.43
587.077	1878.48
587.278	1901.73
587.48	1891.46
587.681	1970.7
587.883	1900.95
588.084	1810.08
588.285	1882.93
588.487	1861.04
588.688	1859.49
588.89	1777.92
589.091	1770.37
589.292	1783.73
589.494	1709.72
589.695	1684.73
589.896	1610.72
590.098	1592.12
590.299	1645.98
590.5	1606.26
590.702	1665.16
590.903	1727.74
591.104	1769.98
591.305	1750.41
591.507	1807.56
591.708	1770.56
591.909	1771.53
592.11	1853.48
592.311	1801.56
592.512	1789.93
592.714	1723.09
592.915	1713.21
593.116	1754.48
593.317	1766.3
593.518	1727.16
593.719	1747.12
593.92	1790.32
594.121	1765.52
594.322	1766.88
594.523	1742.85
594.724	1696.55
594.925	1738.2
595.126	1730.07
595.327	1736.46
595.528	1725.8
595.729	1753.51
595.929	1715.15
596.13	1703.72
596.331	1740.14
596.532	1732.78
596.733	1799.62
596.934	1752.93
597.135	1781.6
597.335	1808.92
597.536	1716.12
597.737	1713.79
597.938	1694.22
598.138	1736.07
598.339	1778.31
598.54	1774.82
598.74	1708.95
598.941	1724.64
599.142	1766.3
599.342	1739.95
599.543	1714.76
599.744	1726.77
599.944	1689.96
600.145	1709.53
600.345	1714.76
600.546	1771.33
600.746	1785.09
600.947	1821.9
601.147	1734.72
601.348	1766.68
601.548	1696.16
601.749	1692.29
601.949	1668.65
602.15	1677.17
602.35	1681.44
602.551	1742.85
602.751	1656.83
602.951	1664
603.152	1587.66
603.352	1737.82
603.552	1699.26
603.753	1742.66
603.953	1734.33
604.153	1712.05
604.354	1665.55
604.554	1696.35
604.754	1698.87
604.954	1680.27
605.155	1701.97
605.355	1703.72
605.555	1713.4
605.755	1748.28
605.955	1688.22
606.155	1732.78
606.356	1727.16
606.556	1719.41
606.756	1713.21
606.956	1643.27
607.156	1762.23
607.356	1655.09
607.556	1723.09
607.756	1684.54
607.956	1738.01
608.156	1721.73
608.356	1676.4
608.556	1728.71
608.756	1696.94
608.956	1631.84
609.156	1701.97
609.356	1655.09
609.556	1658.38
609.755	1694.03
609.955	1621.18
610.155	1659.15
610.355	1644.62
610.555	1638.42
610.755	1633.19
610.954	1552.98
611.154	1620.4
611.354	1683.57
611.554	1610.72
611.753	1614.01
611.953	1593.47
612.153	1663.42
612.352	1627.19
612.552	1558.41
612.752	1522.95
612.951	1596.57
613.151	1600.45
613.351	1564.8
613.55	1602
613.75	1635.71
613.949	1564.22
614.149	1613.04
614.348	1546.78
614.548	1537.29
614.747	1525.47
614.947	1523.53
615.146	1507.06
615.346	1611.88
615.545	1575.46
615.745	1549.3
615.944	1607.04
616.144	1542.52
616.343	1563.44
616.542	1524.11
616.742	1506.29
616.941	1506.87
617.14	1458.82
617.34	1490.01
617.539	1480.13
617.738	1477.61
617.938	1576.81
618.137	1495.05
618.336	1457.27
618.535	1526.24
618.734	1525.86
618.934	1568.48
619.133	1503.96
619.332	1539.22
619.531	1466.76
619.73	1523.73
619.929	1562.09
620.128	1537.67
620.328	1593.67
620.527	1495.05
620.726	1503.77
620.925	1493.11
621.124	1526.24
621.323	1539.61
621.522	1497.57
621.721	1462.5
621.92	1482.26
622.119	1519.27
622.318	1479.16
622.517	1475.48
622.715	1465.79
622.914	1427.05
623.113	1501.44
623.312	1407.09
623.511	1485.94
623.71	1440.22
623.909	1455.33
624.107	1522.18
624.306	1440.03
624.505	1413.68
624.704	1430.53
624.902	1437.31
625.101	1470.44
625.3	1441.38
625.499	1448.74
625.697	1418.52
625.896	1409.22
626.095	1425.5
626.293	1375.7
626.492	1377.64
626.69	1467.93
626.889	1394.11
627.088	1425.3
627.286	1385.58
627.485	1393.91
627.683	1395.66
627.882	1402.83
628.08	1319.9
628.279	1366.98
628.477	1447.19
628.676	1340.63
628.874	1420.85
629.073	1365.05
629.271	1350.52
629.469	1390.62
629.668	1355.94
629.866	1351.48
630.065	1308.67
630.263	1398.56
630.461	1310.6
630.66	1365.43
630.858	1393.72
631.056	1391.4
631.254	1384.42
631.453	1322.23
631.651	1401.08
631.849	1325.13
632.047	1363.88
632.245	1313.12
632.444	1345.87
632.642	1354.39
632.84	1399.92
633.038	1314.67
633.236	1314.87
633.434	1312.54
633.632	1294.52
633.83	1297.43
634.028	1409.61
634.227	1329.01
634.425	1419.68
634.623	1320.68
634.821	1347.22
635.019	1305.37
635.216	1321.26
635.414	1396.43
635.612	1336.95
635.81	1327.46
636.008	1407.86
636.206	1318.74
636.404	1347.61
636.602	1302.85
636.8	1319.71
636.997	1370.47
637.195	1343.93
637.393	1323.58
637.591	1384.61
637.789	1350.71
637.986	1324.55
638.184	1355.94
638.382	1365.43
638.58	1376.48
638.777	1418.13
638.975	1325.52
639.173	1354.39
639.37	1365.63
639.568	1330.56
639.765	1368.73
639.963	1315.06
640.161	1348.58
640.358	1352.26
640.556	1276.5
640.753	1284.64
640.951	1277.67
641.148	1294.13
641.346	1294.72
641.543	1301.3
641.741	1304.4
641.938	1245.7
642.136	1296.85
642.333	1213.54
642.531	1329.59
642.728	1357.49
642.925	1280.38
643.123	1303.82
643.32	1292
643.517	1279.22
643.715	1271.66
643.912	1257.9
644.109	1280.77
644.306	1255.77
644.504	1260.42
644.701	1290.65
644.898	1288.32
645.095	1219.54
645.293	1270.88
645.49	1274.76
645.687	1250.93
645.884	1288.9
646.081	1180.6
646.278	1221.67
646.475	1217.8
646.672	1201.52
646.87	1242.99
647.067	1242.21
647.264	1224
647.461	1195.71
647.658	1148.24
647.855	1249.38
648.052	1188.54
648.249	1121.12
648.446	1194.74
648.642	1186.99
648.839	1137.97
649.036	1178.27
649.233	1131.58
649.43	1134.87
649.627	1121.12
649.824	1138.17
650.021	1087.02
650.217	1141.85
650.414	1163.36
650.611	1157.35
650.808	1182.54
651.004	1154.06
651.201	1160.64
651.398	1231.55
651.595	1159.87
651.791	1112.21
651.988	1194.94
652.185	1128.29
652.381	1174.79
652.578	1095.16
652.775	1154.44
652.971	1143.21
653.168	1153.09
653.364	1182.92
653.561	1092.06
653.757	1150.96
653.954	1147.27
654.15	1114.14
654.347	1196.1
654.543	1136.04
654.74	1064.54
654.936	1081.4
655.133	1106.78
655.329	1142.43
655.525	1102.71
655.722	1106.2
655.918	1063.77
656.115	1090.51
656.311	1002.74
656.507	978.33
656.704	948.88
656.9	979.88
657.096	928.34
657.292	976
657.489	1027.93
657.685	1008.55
657.881	981.62
658.077	1027.54
658.273	1043.62
658.47	1100.19
658.666	1032.58
658.862	1076.17
659.058	1057.18
659.254	1124.99
659.45	1049.24
659.646	1104.46
659.842	1067.26
660.038	1098.84
660.234	1044.39
660.43	1093.41
660.626	1126.16
660.822	1113.17
661.018	1120.92
661.214	1096.71
661.41	1011.46
661.606	1097.48
661.802	1125.38
661.998	1076.17
662.194	1053.89
662.39	1087.02
662.586	1097.29
662.781	1133.52
662.977	1131.19
663.173	1121.12
663.369	1099.42
663.564	1112.79
663.76	1146.11
663.956	1066.87
664.152	1122.67
664.347	1039.74
664.543	1114.92
664.739	1056.99
664.934	1006.61
665.13	1024.05
665.326	1099.42
665.521	1051.76
665.717	1022.5
665.912	1034.9
666.108	996.35
666.304	1059.89
666.499	1013.98
666.695	988.6
666.89	1056.21
667.086	1102.32
667.281	1053.31
667.477	1151.92
667.672	1031.99
667.867	1044.2
668.063	1072.49
668.258	998.67
668.454	1054.66
668.649	1131.39
668.844	1046.33
669.04	1048.85
669.235	1034.9
669.43	1002.35
669.626	982.2
669.821	1020.56
670.016	983.56
670.211	1026.76
670.407	986.66
670.602	1040.71
670.797	1017.66
670.992	1055.63
671.187	970.96
671.382	1061.44
671.578	977.75
671.773	994.02
671.968	945.78
672.163	1021.34
672.358	1030.44
672.553	987.43
672.748	987.05
672.943	1078.11
673.138	997.12
673.333	1062.22
673.528	975.42
673.723	1034.9
673.918	975.42
674.113	937.83
674.308	1076.75
674.503	1000.61
674.698	1033.74
674.892	981.81
675.087	1035.29
675.282	1004.87
675.477	951.4
675.672	1011.46
675.867	988.21
676.061	950.81
676.256	941.51
676.451	972.13
676.646	967.67
676.84	934.54
677.035	919.81
677.23	939.77
677.424	950.23
677.619	1007.19
677.814	1005.26
678.008	998.48
678.203	917.68
678.397	940.55
678.592	992.47
678.787	1040.13
678.981	945.78
679.176	959.92
679.37	989.56
679.565	930.28
679.759	946.55
679.954	966.31
680.148	1030.06
680.342	1015.53
680.537	994.99
680.731	980.26
680.926	963.99
681.12	982.01
681.314	945.97
681.509	956.82
681.703	957.01
681.897	949.65
682.092	944.81
682.286	945.39
682.48	1028.12
682.674	1001.77
682.869	953.14
683.063	951.01
683.257	1020.18
683.451	914.58
683.645	986.46
683.839	950.62
684.034	941.51
684.228	965.73
684.422	903.15
684.616	911.87
684.81	971.93
685.004	929.89
685.198	946.75
685.392	952.36
685.586	950.43
685.78	953.14
685.974	992.28
686.168	946.16
686.362	1013.39
686.556	895.98
686.75	864.79
686.944	840.96
687.138	884.36
687.331	790.2
687.525	795.04
687.719	723.36
687.913	776.44
688.107	783.03
688.301	765.59
688.494	824.1
688.688	786.9
688.882	778.77
689.076	744.09
689.269	820.42
689.463	886.68
689.657	815.19
689.85	801.82
690.044	813.25
690.238	802.21
690.431	823.91
690.625	778.77
690.818	862.85
691.012	819.65
691.205	869.63
691.399	825.85
691.593	847.74
691.786	899.67
691.98	915.94
692.173	949.65
692.366	881.26
692.56	908.38
692.753	939
692.947	868.47
693.14	958.76
693.333	938.8
693.527	853.55
693.72	900.44
693.914	916.33
694.107	897.53
694.3	912.45
694.493	880.68
694.687	938.61
694.88	880.87
695.073	961.66
695.266	950.23
695.46	908.58
695.653	957.4
695.846	947.71
696.039	889.98
696.232	926.79
696.425	954.88
696.618	962.05
696.812	993.44
697.005	1029.48
697.198	1101.74
697.391	989.76
697.584	1044.59
697.777	1084.89
697.97	1055.05
698.163	1085.08
698.356	1057.76
698.549	1134.29
698.742	1089.73
698.935	1064.16
699.127	1102.71
699.32	1069.58
699.513	1075.78
699.706	1062.03
699.899	1100.19
700.092	1102.32
700.285	1111.04
700.477	1053.69
700.67	1123.25
700.863	1155.61
701.056	1248.6
701.248	1181.76
701.441	1196.87
701.634	1149.6
701.826	1256.35
702.019	1159.29
702.212	1240.27
702.404	1176.72
702.597	1162.97
702.79	1216.25
702.982	1230.78
703.175	1278.25
703.367	1263.14
703.56	1309.05
703.752	1364.85
703.945	1299.75
704.137	1320.68
704.33	1373.96
704.522	1356.52
704.715	1390.81
704.907	1396.24
705.1	1440.8
705.292	1438.86
705.484	1408.25
705.677	1456.49
705.869	1472.38
706.061	1472.38
706.254	1536.12
706.446	1498.93
706.638	1464.24
706.831	1545.62
707.023	1516.75
707.215	1645.2
707.407	1600.26
707.599	1588.44
707.792	1662.84
707.984	1642.1
708.176	1668.07
708.368	1640.36
708.56	1652.18
708.752	1693.25
708.944	1673.3
709.136	1734.72
709.329	1730.45
709.521	1842.63
709.713	1815.51
709.905	1805.63
710.097	1840.11
710.289	1801.36
710.481	1805.63
710.672	1882.74
710.864	1851.55
711.056	1939.31
711.248	1882.93
711.44	1869.76
711.632	1921.29
711.824	1949.58
712.016	2000.54
712.207	2010.03
712.399	1998.99
712.591	2088.3
712.783	2039.87
712.975	2066.99
713.166	2051.11
713.358	2053.43
713.55	2132.09
713.741	2114.65
713.933	2137.32
714.125	2085.59
714.316	2109.81
714.508	2188.08
714.7	2223.15
714.891	2240.98
715.083	2265.97
715.274	2211.53
715.466	2232.26
715.657	2288.64
715.849	2197.38
716.04	2305.3
716.232	2210.56
716.423	2245.63
716.615	2197.38
716.806	2197.38
716.998	2154.95
717.189	2110.2
717.381	2025.53
717.572	1987.56
717.763	2024.76
717.955	2035.22
718.146	1983.49
718.337	1959.66
718.528	1889.33
718.72	1906.96
718.911	1921.29
719.102	1873.05
719.293	1937.96
719.485	1962.76
719.676	1929.63
719.867	1877.31
720.058	1929.24
720.249	1922.26
720.44	1938.15
720.632	2002.09
720.823	2004.8
721.014	2113.1
721.205	2126.28
721.396	2170.84
721.587	2291.93
721.778	2368.85
721.969	2409.34
722.16	2429.3
722.351	2480.26
722.542	2569.96
722.733	2616.65
722.924	2534.89
723.115	2627.31
723.305	2577.32
723.496	2618.4
723.687	2459.91
723.878	2512.22
724.069	2492.27
724.26	2514.74
724.45	2448.67
724.641	2447.9
724.832	2506.02
725.023	2503.31
725.213	2476.77
725.404	2464.76
725.595	2502.34
725.785	2435.31
725.976	2556.79
726.167	2541.87
726.357	2548.45
726.548	2660.44
726.739	2582.55
726.929	2624.4
727.12	2692.8
727.31	2669.93
727.501	2660.44
727.691	2680.2
727.882	2655.6
728.072	2726.9
728.263	2729.8
728.453	2792.58
728.644	2743.95
728.834	2752.66
729.024	2762.35
729.215	2754.79
729.405	2784.44
729.596	2861.16
729.786	2886.74
729.976	2890.03
730.167	2930.91
730.357	2859.42
730.547	2873.76
730.737	2934.4
730.928	2903.59
731.118	3007.05
731.308	2940.99
731.498	2953.77
731.688	3077.58
731.879	3078.93
732.069	3106.25
732.259	3130.86
732.449	3155.08
732.639	3258.73
732.829	3253.11
733.019	3315.11
733.209	3346.89
733.399	3383.7
733.589	3402.69
733.779	3440.66
733.969	3418.38
734.159	3528.43
734.349	3575.51
734.539	3619.88
734.729	3610.77
734.919	3664.63
735.109	3699.89
735.299	3609.61
735.488	3671.61
735.678	3655.91
735.868	3708.03
736.058	3703.77
736.248	3666.76
736.437	3622.98
736.627	3661.73
736.817	3767.9
737.007	3682.65
737.196	3761.51
737.386	3748.52
737.576	3749.11
737.765	3747.94
737.955	3743.68
738.144	3900.42
738.334	3809.36
738.524	3763.83
738.713	3820.4
738.903	3786.11
739.092	3836.68
739.282	3851.99
739.471	3852.18
739.661	3853.34
739.85	3878.34
740.04	3866.13
740.229	3932.78
740.419	3921.15
740.608	3933.75
740.797	3931.81
740.987	4005.24
741.176	3994.39
741.365	3948.86
741.555	3913.02
741.744	4006.21
741.933	4004.46
742.123	3981.8
742.312	4026.36
742.501	4063.17
742.69	4051.74
742.88	4004.66
743.069	4159.46
743.258	4044.38
743.447	4134.47
743.636	4133.69
743.825	4087.78
744.014	4094.36
744.204	4144.35
744.393	4049.41
744.582	4163.92
744.771	4180.19
744.96	4118.58
745.149	4161.4
745.338	4125.94
745.527	4179.22
745.716	4114.51
745.905	4106.96
746.094	4160.43
746.283	4188.33
746.471	4175.74
746.66	4225.92
746.849	4180.19
747.038	4236.57
747.227	4213.13
747.416	4166.44
747.604	4154.81
747.793	4144.54
747.982	4200.92
748.171	4187.56
748.359	4215.84
748.548	4172.64
748.737	4207.32
748.926	4213.52
749.114	4092.62
749.303	4144.16
749.491	4150.16
749.68	4111.22
749.869	4218.75
750.057	4111.03
750.246	4123.23
750.434	4144.54
750.623	4177.09
750.811	4111.41
751	4185.81
751.188	4113.35
751.377	4131.95
751.565	4108.89
751.754	4073.44
751.942	4062.98
752.131	4171.09
752.319	4127.11
752.507	4030.81
752.696	4148.23
752.884	4186.2
753.072	4084.68
753.261	4115.09
753.449	4119.16
753.637	4105.41
753.825	4195.5
754.014	4096.11
754.202	4091.26
754.39	4187.36
754.578	4106.18
754.766	4063.56
754.955	4064.33
755.143	4154.23
755.331	4103.08
755.519	4127.69
755.707	4104.24
755.895	4071.11
756.083	4093.2
756.271	4012.02
756.459	4087.97
756.647	4070.34
756.835	4016.09
757.023	4058.52
757.211	4030.43
757.399	4022.48
757.587	4017.25
757.775	3970.56
757.963	4027.91
758.151	4014.35
758.339	3984.51
758.526	3950.6
758.714	3930.84
758.902	3882.6
759.09	3848.5
759.278	3676.64
759.465	3448.41
759.653	3092.11
759.841	2864.84
760.028	2494.2
760.216	2234
760.404	2077.07
760.591	1798.26
760.779	1567.9
760.967	1393.72
761.154	1231.17
761.342	1287.74
761.529	1268.17
761.717	1356.91
761.905	1379.77
762.092	1496.6
762.28	1451.84
762.467	1490.01
762.655	1428.98
762.842	1451.46
763.029	1516.75
763.217	1538.26
763.404	1535.74
763.592	1603.74
763.779	1524.11
763.966	1613.62
764.154	1645.59
764.341	1663.8
764.528	1679.89
764.716	1802.33
764.903	1845.35
765.09	1899.79
765.277	1954.81
765.465	2080.55
765.652	2143.33
765.839	2243.5
766.026	2357.81
766.213	2371.37
766.4	2492.07
766.588	2672.45
766.775	2658.12
766.962	2778.82
767.149	2824.93
767.336	3011.7
767.523	2930.91
767.71	3054.52
767.897	3156.43
768.084	3199.64
768.271	3237.23
768.458	3321.89
768.645	3399.2
768.832	3373.04
769.019	3364.52
769.206	3420.32
769.392	3514.09
769.579	3562.33
769.766	3526.88
769.953	3511.96
770.14	3555.16
770.327	3536.57
770.513	3580.74
770.7	3665.79
770.887	3552.26
771.073	3605.73
771.26	3567.18
771.447	3582.68
771.634	3583.84
771.82	3630.34
772.007	3572.6
772.193	3620.26
772.38	3643.51
772.567	3612.71
772.753	3566.98
772.94	3645.06
773.126	3618.52
773.313	3635.38
773.499	3612.32
773.686	3618.33
773.872	3542.57
774.059	3612.9
774.245	3519.9
774.432	3565.43
774.618	3445.5
774.804	3479.22
774.991	3495.1
775.177	3558.65
775.363	3536.95
775.55	3554.39
775.736	3515.25
775.922	3508.47
776.109	3502.27
776.295	3481.35
776.481	3518.16
776.667	3532.3
776.853	3483.48
777.04	3445.31
777.226	3481.73
777.412	3486.97
777.598	3436.59
777.784	3481.54
777.97	3421.48
778.156	3467.98
778.342	3423.61
778.528	3349.6
778.715	3313.95
778.901	3346.5
779.087	3428.07
779.272	3377.89
779.458	3354.25
779.644	3360.84
779.83	3349.6
780.016	3451.7
780.202	3375.37
780.388	3381.18
780.574	3263.58
780.76	3342.04
780.946	3370.33
781.131	3353.47
781.317	3292.44
781.503	3278.3
781.689	3297.48
781.874	3426.13
782.06	3258.54
782.246	3312.01
782.432	3302.91
782.617	3270.74
782.803	3333.91
782.989	3231.41
783.174	3226.18
783.36	3141.13
783.545	3212.43
783.731	3210.29
783.916	3125.24
784.102	3200.22
784.288	3166.51
784.473	3197.89
784.659	3154.11
784.844	3188.4
785.029	3163.99
785.215	3107.8
785.4	3090.37
785.586	3180.85
785.771	3085.52
785.956	3169.41
786.142	3091.14
786.327	3064.98
786.512	3115.94
786.698	3111.48
786.883	3038.25
787.068	3068.08
787.254	3117.1
787.439	3023.13
787.624	3027.59
787.809	2999.3
787.994	3055.49
788.18	3111.87
788.365	2967.14
788.55	3025.85
788.735	3002.4
788.92	3021.97
789.105	2962.3
789.29	3025.07
789.475	2974.89
789.66	2971.21
789.845	2927.04
790.03	2954.74
790.215	2962.69
790.4	2971.79
790.585	3040.38
790.77	2939.82
790.955	2909.79
791.14	2910.37
791.325	3013.06
791.51	2821.06
791.695	2904.95
791.879	2879.96
792.064	2834.81
792.249	2930.14
792.434	2871.04
792.618	2861.94
792.803	2925.87
792.988	2858.84
793.173	2886.54
793.357	2891.39
793.542	2822.8
793.727	2871.43
793.911	2919.09
794.096	2870.66
794.281	2884.61
794.465	2918.51
794.65	2854.77
794.834	2919.48
795.019	2962.1
795.203	2956.87
795.388	2930.33
795.572	2953.58
795.757	2894.68
795.941	2959.59
796.126	2944.09
796.31	2853.61
796.494	2950.09
796.679	2900.11
796.863	2842.37
797.048	3010.74
797.232	2918.12
797.416	2917.54
797.601	2960.94
797.785	2986.13
797.969	2976.64
798.153	2915.02
798.338	2961.72
798.522	3016.93
798.706	2973.34
798.89	3029.92
799.074	3062.66
799.258	3008.8
799.443	2939.63
799.627	2955.9
799.811	3029.33
799.995	2941.76
800.179	2920.45
800.363	2976.05
800.547	2941.76
800.731	2993.3
800.915	2872.98
801.099	2918.9
801.283	2980.9
801.467	2928
801.651	2965.79
801.835	2988.26
802.019	2988.26
802.202	2962.69
802.386	2891.97
802.57	2905.53
802.754	2948.74
802.938	2909.02
803.121	2887.32
803.305	2970.82
803.489	2978.77
803.673	2934.4
803.856	2954.35
804.04	2936.72
804.224	2961.91
804.407	2927.42
804.591	2927.23
804.775	2907.47
804.958	2932.65
805.142	2993.1
805.326	2936.14
805.509	2936.53
805.693	2982.64
805.876	2987.68
806.06	2931.69
806.243	2965.98
806.427	2977.8
806.61	3004.54
806.794	2904.76
806.977	2995.04
807.16	2950.87
807.344	2954.74
807.527	2952.03
807.71	2924.32
807.894	2913.47
808.077	2975.09
808.26	2902.04
808.444	2905.72
808.627	2928.2
808.81	2885.96
808.993	2845.27
809.177	2775.33
809.36	2850.89
809.543	2886.93
809.726	2752.47
809.909	2789.28
810.092	2761.19
810.276	2779.59
810.459	2746.08
810.642	2752.86
810.825	2737.75
811.008	2751.5
811.191	2666.64
811.374	2639.32
811.557	2711.78
811.74	2731.74
811.923	2679.04
812.106	2610.84
812.289	2587.59
812.472	2580.81
812.654	2668.77
812.837	2579.84
813.02	2533.15
813.203	2509.32
813.386	2393.07
813.569	2387.26
813.751	2337.46
813.934	2409.15
814.117	2394.23
814.3	2333.98
814.482	2288.83
814.665	2263.65
814.848	2203.78
815.03	2159.99
815.213	2152.05
815.396	2125.89
815.578	2113.3
815.761	2028.63
815.943	2101.29
816.126	2054.4
816.309	2012.74
816.491	1954.81
816.674	1861.81
816.856	1912.77
817.039	1925.56
817.221	2001.7
817.403	1983.29
817.586	1930.01
817.768	1988.14
817.951	1878.86
818.133	1872.47
818.315	1878.28
818.498	1919.55
818.68	1973.99
818.862	1972.83
819.045	1980.39
819.227	1961.98
819.409	1956.17
819.591	1968.76
819.774	1978.06
819.956	1939.31
820.138	2026.69
820.32	1979.42
820.502	2015.84
820.684	2105.74
820.866	2074.35
821.048	2170.65
821.231	2154.95
821.413	2165.8
821.595	2114.46
821.777	2104.19
821.959	2102.84
822.141	2214.05
822.323	2040.45
822.505	1991.82
822.686	1938.73
822.868	1905.79
823.05	1786.83
823.232	1719.41
823.414	1692.67
823.596	1772.5
823.778	1714.57
823.96	1746.34
824.141	1734.33
824.323	1776.95
824.505	1831.59
824.687	1896.88
824.868	1934.08
825.05	2010.61
825.232	2075.52
825.413	2169.68
825.595	2051.11
825.777	2029.41
825.958	2048.97
826.14	2015.84
826.321	2091.6
826.503	2023.01
826.685	2069.12
826.866	2075.32
827.048	2094.5
827.229	2017.39
827.411	2001.89
827.592	1949.19
827.773	1962.95
827.955	1909.48
828.136	1862.59
828.318	1877.12
828.499	1915.87
828.68	1856.39
828.862	1865.69
829.043	1932.92
829.224	1900.76
829.406	1848.83
829.587	1847.48
829.768	1873.25
829.949	1860.26
830.131	1846.12
830.312	1900.56
830.493	1836.82
830.674	1870.73
830.855	1829.46
831.036	1862.59
831.218	1923.81
831.399	1959.08
831.58	1850.38
831.761	1883.13
831.942	1912.58
832.123	1843.6
832.304	1795.94
832.485	1839.73
832.666	1834.88
832.847	1891.65
833.028	1870.15
833.209	1869.95
833.389	1843.99
833.57	1781.6
833.751	1806.98
833.932	1911.03
834.113	1833.91
834.294	1811.05
834.475	1904.44
834.655	1854.45
834.836	1911.03
835.017	1907.54
835.198	1853.1
835.378	1852.13
835.559	1930.79
835.74	1848.83
835.92	1833.33
836.101	1822.68
836.281	1879.44
836.462	1900.37
836.643	1946.68
836.823	1895.33
837.004	1907.15
837.184	1967.21
837.365	1931.37
837.545	1940.86
837.726	1884.68
837.906	1978.64
838.087	1908.12
838.267	1890.49
838.448	1854.65
838.628	1911.61
838.808	1894.94
838.989	1942.61
839.169	1847.48
839.349	1896.49
839.53	1904.24
839.71	1942.61
839.89	1888.16
840.07	1936.41
840.251	1874.8
840.431	1950.74
840.611	1910.06
840.791	1891.46
840.971	1885.06
841.151	1864.33
841.332	1885.26
841.512	1910.83
841.692	1833.72
841.872	1888.36
842.052	1818.41
842.232	1912.77
842.412	1807.76
842.592	1839.92
842.772	1850.19
842.952	1876.35
843.132	1826.55
843.312	1811.25
843.492	1811.25
843.672	1826.55
843.851	1753.7
844.031	1827.13
844.211	1804.27
844.391	1785.09
844.571	1820.93
844.751	1807.37
844.93	1823.84
845.11	1754.28
845.29	1810.47
845.47	1837.01
845.649	1814.73
845.829	1846.51
846.009	1772.69
846.188	1819.38
846.368	1813.96
846.547	1817.64
846.727	1816.09
846.907	1742.66
847.086	1785.48
847.266	1816.09
847.445	1783.35
847.625	1771.33
847.804	1750.99
847.984	1769.4
848.163	1752.93
848.343	1728.71
848.522	1755.06
848.701	1742.66
848.881	1719.41
849.06	1759.32
849.239	1765.91
849.419	1753.9
849.598	1686.86
849.777	1650.44
849.957	1660.51
850.136	1588.44
850.315	1593.47
850.494	1550.07
850.674	1599.87
850.853	1655.47
851.032	1608.2
851.211	1664.39
851.39	1657.02
851.569	1588.63
851.748	1583.01
851.927	1641.52
852.107	1637.45
852.286	1604.52
852.465	1582.62
852.644	1625.05
852.823	1645.01
853.002	1627.19
853.181	1644.24
853.359	1656.25
853.538	1546.59
853.717	1609.36
853.896	1515.98
854.075	1469.09
854.254	1430.34
854.433	1358.65
854.611	1405.73
854.79	1349.35
854.969	1379.19
855.148	1419.3
855.327	1380.35
855.505	1415.42
855.684	1438.86
855.863	1476.06
856.041	1436.54
856.22	1513.46
856.399	1465.21
856.577	1576.81
856.756	1553.37
856.934	1655.86
857.113	1669.62
857.291	1577.97
857.47	1491.56
857.648	1557.44
857.827	1550.07
858.005	1595.8
858.184	1490.4
858.362	1631.84
858.541	1542.13
858.719	1553.17
858.898	1520.24
859.076	1518.69
859.254	1579.14
859.433	1500.28
859.611	1486.33
859.789	1434.99
859.967	1547.17
860.146	1586.69
860.324	1473.74
860.502	1482.26
860.68	1426.46
860.859	1486.14
861.037	1481.68
861.215	1496.79
861.393	1509
861.571	1499.89
861.749	1444.29
861.927	1476.84
862.105	1469.86
862.283	1460.18
862.461	1458.43
862.639	1395.85
862.817	1482.65
862.995	1484.39
863.173	1445.45
863.351	1437.51
863.529	1466.18
863.707	1474.51
863.885	1469.48
864.063	1386.55
864.241	1369.11
864.418	1517.72
864.596	1432.08
864.774	1379.19
864.952	1418.91
865.129	1406.9
865.307	1405.54
865.485	1324.55
865.663	1412.32
865.84	1319.13
866.018	1358.85
866.196	1211.79
866.373	1256.55
866.551	1253.25
866.728	1132.36
866.906	1211.02
867.084	1232.72
867.261	1265.85
867.439	1269.92
867.616	1304.02
867.794	1301.88
867.971	1292.2
868.149	1283.48
868.326	1350.32
868.503	1355.75
868.681	1342.38
868.858	1283.48
869.035	1279.99
869.213	1299.75
869.39	1307.31
869.567	1348.19
869.745	1302.47
869.922	1304.6
870.099	1355.75
870.276	1354.58
870.454	1332.5
870.631	1330.37
870.808	1300.72
870.985	1315.25
871.162	1343.35
871.339	1331.92
871.517	1261.39
871.694	1245.89
871.871	1251.9
872.048	1271.08
872.225	1248.99
872.402	1268.75
872.579	1207.53
872.756	1279.41
872.933	1203.07
873.11	1237.37
873.287	1273.6
873.463	1261.39
873.64	1257.52
873.817	1279.6
873.994	1239.89
874.171	1214.7
874.348	1263.72
874.524	1198.04
874.701	1225.74
874.878	1165.1
875.055	1230.2
875.231	1222.45
875.408	1243.95
875.585	1141.07
875.762	1215.09
875.938	1204.43
876.115	1183.12
876.291	1203.07
876.468	1206.75
876.645	1147.27
876.821	1164.32
876.998	1177.69
877.174	1178.08
877.351	1154.25
877.527	1128.48
877.704	1187.57
877.88	1210.05
878.057	1157.35
878.233	1203.65
878.409	1160.64
878.586	1172.46
878.762	1148.44
878.938	1149.79
879.115	1093.41
879.291	1136.81
879.467	1065.32
879.644	1107.94
879.82	1130.42
879.996	1089.15
880.172	1088.96
880.349	1111.43
880.525	1181.37
880.701	1076.56
880.877	1065.32
881.053	1105.04
881.229	1100.19
881.405	1130.42
881.581	1044.59
881.757	1074.62
881.933	1109.3
882.109	1114.34
882.285	1122.86
882.461	1053.69
882.637	1108.91
882.813	1062.61
882.989	1096.71
883.165	1155.22
883.341	1082.76
883.517	1118.99
883.693	1114.34
883.869	1134.87
884.044	1070.36
884.22	1091.67
884.396	1142.43
884.572	1095.54
884.747	1131.58
884.923	1116.86
885.099	1123.06
885.275	1122.67
885.45	1091.67
885.626	1057.96
885.801	1054.66
885.977	1080.04
886.153	1032.96
886.328	1112.01
886.504	1066.87
886.679	1089.93
886.855	1065.71
887.03	1100.39
887.206	1096.71
887.381	1110.46
887.557	1097.67
887.732	1111.24
887.908	1099.22
888.083	1102.32
888.258	1063.96
888.434	1106.78
888.609	1114.92
888.784	1114.14
888.96	1049.04
889.135	1084.31
889.31	1021.53
889.485	1096.32
889.661	1053.11
889.836	1080.82
890.011	1105.42
890.186	1073.84
890.361	1028.12
890.537	1101.36
890.712	1094.57
890.887	1084.5
891.062	1099.61
891.237	1144.56
891.412	1026.57
891.587	1065.13
891.762	1099.81
891.937	1130.81
892.112	1081.21
892.287	1112.01
892.462	1036.45
892.637	1043.81
892.812	1035.09
892.987	1022.31
893.161	1014.94
893.336	1040.13
893.511	1040.33
893.686	1025.41
893.861	988.79
894.035	1016.3
894.21	1025.79
894.385	957.4
894.56	1019.01
894.734	953.91
894.909	931.83
895.084	958.37
895.258	931.83
895.433	945.2
895.608	922.14
895.782	887.07
895.957	912.84
896.131	878.35
896.306	842.7
896.48	822.55
896.655	854.33
896.829	763.65
897.004	762.1
897.178	789.04
897.353	755.13
897.527	822.36
897.701	790.39
897.876	740.99
898.05	840.18
898.224	835.92
898.399	838.25
898.573	769.85
898.747	664.65
898.921	737.69
899.096	639.46
899.27	649.73
899.444	671.04
899.618	677.24
899.792	703.21
899.967	726.26
900.141	758.23
900.315	653.03
900.489	709.21
900.663	701.46
900.837	694.87
901.011	641.21
901.185	750.29
901.359	673.76
901.533	699.33
901.707	729.17
901.881	709.6
902.055	660.19
902.229	674.34
902.403	759
902.576	672.01
902.75	723.36
902.924	808.99
903.098	776.44
903.272	772.76
903.446	821
903.619	797.17
903.793	814.42
903.967	802.21
904.14	842.32
904.314	819.65
904.488	817.9
904.661	864.98
904.835	829.14
905.009	848.71
905.182	902.77
905.356	830.11
905.529	857.43
905.703	800.47
905.876	821.59
906.05	804.34
906.223	769.08
906.397	717.16
906.57	723.74
906.744	697.97
906.917	695.07
907.09	678.02
907.264	669.69
907.437	631.13
907.61	600.91
907.784	645.47
907.957	653.99
908.13	624.16
908.304	698.17
908.477	602.07
908.65	641.59
908.823	575.72
908.996	693.52
909.17	590.83
909.343	626.87
909.516	640.63
909.689	631.33
909.862	596.06
910.035	602.26
910.208	572.62
910.381	565.45
910.554	693.13
910.727	588.7
910.9	602.65
911.073	599.16
911.246	658.84
911.419	653.03
911.592	644.31
911.765	589.48
911.938	598.78
912.11	618.93
912.283	596.45
912.456	650.31
912.629	637.14
912.802	573.59
912.974	559.64
913.147	523.21
913.32	486.21
913.493	504.42
913.665	496.67
913.838	532.51
914.01	531.55
914.183	549.56
914.356	535.03
914.528	556.35
914.701	619.31
914.873	583.08
915.046	538.33
915.218	508.88
915.391	431.57
915.563	436.8
915.736	551.11
915.908	578.43
916.081	523.21
916.253	517.01
916.425	537.16
916.598	525.15
916.77	515.46
916.942	502.29
917.115	453.27
917.287	531.55
917.459	505.58
917.632	433.12
917.804	394.57
917.976	488.15
918.148	507.91
918.32	496.86
918.493	534.06
918.665	563.51
918.837	516.82
919.009	596.84
919.181	578.63
919.353	537.16
919.525	544.91
919.697	521.28
919.869	520.89
920.041	580.56
920.213	647.02
920.385	573.2
920.557	542.98
920.729	556.15
920.901	579.98
921.073	528.45
921.244	524.18
921.416	572.04
921.588	542.4
921.76	501.51
921.932	615.05
922.103	512.36
922.275	508.3
922.447	543.17
922.619	475.36
922.79	528.64
922.962	525.15
923.134	538.13
923.305	483.3
923.477	451.53
923.648	460.83
923.82	523.99
923.991	428.86
924.163	444.17
924.335	480.59
924.506	462.57
924.677	507.91
924.849	432.35
925.02	474.2
925.192	514.5
925.363	477.1
925.535	457.15
925.706	429.44
925.877	531.93
926.049	464.12
926.22	503.26
926.391	480.78
926.562	519.53
926.734	473.81
926.905	477.1
927.076	426.73
927.247	440.68
927.419	406.77
927.59	417.82
927.761	416.07
927.932	371.32
928.103	417.82
928.274	357.75
928.445	367.25
928.616	354.07
928.787	349.23
928.958	394.57
929.129	352.52
929.3	343.03
929.471	296.72
929.642	234.72
929.813	236.08
929.984	330.05
930.155	257.39
930.326	284.91
930.496	244.61
930.667	202.18
930.838	259.91
931.009	195.98
931.18	239.37
931.35	206.63
931.521	224.26
931.692	151.41
931.863	123.71
932.033	164.59
932.204	181.64
932.374	173.5
932.545	137.27
932.716	192.49
932.886	170.98
933.057	79.53
933.227	86.31
933.398	161.29
933.568	91.55
933.739	78.76
933.909	84.38
934.08	131.46
934.25	10.75
934.421	52.6
934.591	97.94
934.761	81.66
934.932	50.08
935.102	102.98
935.272	70.62
935.443	83.02
935.613	79.92
935.783	94.26
935.953	43.5
936.123	226.59
936.294	36.72
936.464	33.81
936.634	55.31
936.804	12.88
936.974	29.16
937.144	86.51
937.314	90.38
937.484	30.52
937.655	37.88
937.825	110.53
937.995	57.64
938.165	138.43
938.334	75.08
938.504	98.91
938.674	73.14
938.844	85.73
939.014	148.7
939.184	135.72
939.354	177.38
939.524	197.72
939.694	118.28
939.863	148.7
940.033	197.14
940.203	167.11
940.373	147.73
940.542	182.41
940.712	108.6
940.882	170.79
941.051	192.68
941.221	174.28
941.391	177.76
941.56	111.31
941.73	83.02
941.899	228.52
942.069	124.29
942.238	157.23
942.408	103.36
942.577	154.51
942.747	116.15
942.916	81.66
943.086	90.96
943.255	152.19
943.425	108.21
943.594	77.6
943.763	48.34
943.933	63.65
944.102	40.2
944.271	85.73
944.441	124.48
944.61	75.85
944.779	102.2
944.948	202.18
945.117	63.65
945.287	89.61
945.456	26.64
945.625	73.33
945.794	97.94
945.963	67.33
946.132	102.4
946.301	81.86
946.47	127.2
946.639	21.02
946.808	84.18
946.977	77.21
947.146	144.05
947.315	91.35
947.484	125.65
947.653	98.13
947.822	83.21
947.991	48.73
948.16	165.94
948.329	137.66
948.498	118.48
948.666	102.59
948.835	139.79
949.004	86.7
949.173	44.27
949.341	105.88
949.51	98.71
949.679	134.94
949.847	118.28
950.016	165.36
950.185	144.83
950.353	80.31
950.522	108.6
950.69	138.43
950.859	83.21
951.028	140.95
951.196	130.3
951.365	70.81
951.533	83.8
951.701	135.91
951.87	132.23
952.038	61.9
952.207	88.45
952.375	133.98
952.543	72.36
952.712	89.22
952.88	73.53
953.048	171.18
953.217	118.28
953.385	91.55
953.553	136.88
953.721	62.48
953.89	121.96
954.058	34.2
954.226	66.94
954.394	92.13
954.562	56.48
954.73	67.71
954.898	104.33
955.067	133.01
955.235	75.46
955.403	159.55
955.571	162.26
955.739	137.46
955.907	85.93
956.075	76.24
956.243	47.37
956.41	119.45
956.578	52.02
956.746	68.68
956.914	115.18
957.082	127.39
957.25	119.64
957.418	74.11
957.585	128.16
957.753	138.04
957.921	66.16
958.089	78.76
958.256	106.46
958.424	119.83
958.592	104.14
958.759	56.86
958.927	98.52
959.095	58.41
959.262	114.21
959.43	99.3
959.597	39.23
959.765	82.25
959.932	74.3
960.1	133.59
960.267	94.45
960.435	93.1
960.602	128.75
960.77	73.14
960.937	47.18
961.104	104.33
961.272	51.63
961.439	83.21
961.606	111.89
961.774	139.79
961.941	71.2
962.108	115.76
962.275	115.76
962.443	133.78
962.61	110.92
962.777	198.88
962.944	131.84
963.111	124.48
963.278	103.75
963.446	107.63
963.613	89.8
963.78	109.56
963.947	125.06
964.114	112.66
964.281	190.94
964.448	136.88
964.615	95.23
964.782	104.33
964.949	114.99
965.116	132.62
965.282	156.84
965.449	139.79
965.616	43.11
965.783	126.81
965.95	138.82
966.117	100.26
966.283	99.88
966.45	115.38
966.617	108.98
966.784	148.51
966.95	140.18
967.117	145.21
967.284	77.01
967.45	77.98
967.617	158.97
967.784	139.21
967.95	182.61
968.117	112.66
968.283	183.77
968.45	233.17
968.616	139.79
968.783	157.23
968.949	140.18
969.116	178.73
969.282	131.46
969.449	144.44
969.615	152.96
969.781	93.29
969.948	93.68
970.114	99.49
970.28	157.61
970.447	128.55
970.613	187.26
970.779	104.91
970.945	143.66
971.112	145.21
971.278	117.7
971.444	121.58
971.61	150.83
971.776	110.73
971.942	143.47
972.108	168.85
972.275	100.07
972.441	154.51
972.607	195.01
972.773	86.7
972.939	148.7
973.105	115.18
973.271	67.71
973.437	99.1
973.602	102.01
973.768	140.37
973.934	121.77
974.1	113.63
974.266	17.73
974.432	131.46
974.598	69.85
974.763	152.96
974.929	92.32
975.095	193.46
975.261	106.08
975.426	73.33
975.592	135.91
975.758	172.34
975.923	72.75
976.089	88.25
976.255	160.71
976.42	129.33
976.586	147.73
976.751	125.26
976.917	193.46
977.082	127.2
977.248	58.22
977.413	41.75
977.579	77.4
977.744	96.97
977.91	66.16
978.075	84.18
978.24	110.92
978.406	131.07
978.571	108.98
978.736	72.56
978.902	100.07
979.067	68.3
979.232	39.43
979.397	112.08
979.563	152.19
979.728	65.58
979.893	115.18
980.058	53.96
980.223	138.63
980.388	121.96
980.554	94.06
980.719	85.35
980.884	100.07
981.049	140.18
981.214	84.38
981.379	108.21
981.544	72.17
981.709	104.14
981.874	120.22
982.039	72.75
982.204	112.86
982.368	98.13
982.533	70.62
982.698	104.72
982.863	150.25
983.028	87.67
983.193	113.83
983.357	100.65
983.522	107.82
983.687	87.09
983.852	74.69
984.016	69.26
984.181	125.84
984.346	117.7
984.51	116.54
984.675	81.47
984.839	88.64
985.004	87.67
985.168	123.13
985.333	107.82
985.498	85.35
985.662	117.31
985.827	123.13
985.991	101.62
986.155	69.65
986.32	110.92
986.484	128.55
986.649	115.57
986.813	59.19
986.977	103.17
987.142	111.31
987.306	60.55
987.47	57.83
987.634	91.35
987.799	90
987.963	102.01
988.127	108.98
988.291	170.01
988.455	68.3
988.62	81.66
988.784	112.28
988.948	103.36
989.112	48.53
989.276	93.48
989.44	102.2
989.604	53.57
989.768	96.97
989.932	147.93
990.096	62.29
990.26	66.94
990.424	40.98
990.588	68.88
990.752	153.16
990.915	102.98
991.079	92.71
991.243	78.56
991.407	138.82
991.571	77.21
991.734	103.75
991.898	121.96
992.062	163.62
992.226	72.36
992.389	59.38
992.553	42.53
992.717	42.53
992.88	65.78
993.044	78.76
993.207	57.83
993.371	114.02
993.535	111.31
993.698	91.35
993.862	120.8
994.025	126.42
994.189	90
994.352	85.93
994.515	81.08
994.679	147.54
994.842	65.39
995.006	113.44
995.169	65.58
995.332	64.03
995.496	102.2
995.659	28
995.822	71.78
995.985	80.5
996.149	101.43
996.312	79.92
996.475	126.23
996.638	52.21
996.801	153.74
996.964	129.33
997.128	59
997.291	48.73
997.454	78.56
997.617	29.55
997.78	122.74
997.943	37.68
998.106	117.9
998.269	46.79
998.432	74.5
998.595	87.86
998.758	33.62
998.92	20.83
999.083	24.12
999.246	48.92
999.409	10.56
999.572	18.7
999.735	47.95
999.897	88.06
1000.06	71.78
1000.223	72.17
1000.386	97.16
1000.548	77.6
1000.711	63.06
1000.874	87.67
1001.036	8.62
1001.199	92.32
1001.361	28.77
1001.524	59.96
1001.687	100.07
1001.849	39.23
1002.012	63.26
1002.174	62.68
1002.337	94.65
1002.499	42.14
1002.661	89.8
1002.824	11.92
1002.986	33.23
1003.149	80.31
1003.311	11.92
1003.473	105.88
1003.636	36.13
1003.798	90.19
1003.96	70.43
1004.123	65.2
1004.285	67.33
1004.447	46.79
1004.609	46.21
1004.771	107.63
1004.933	-4.94
1005.096	8.82
1005.258	9.4
1005.42	22.18
1005.582	80.89
1005.744	81.28
1005.906	30.71
1006.068	65
1006.23	20.63
1006.392	-10.17
1006.554	17.15
1006.716	108.4
1006.878	71.4
1007.04	-19.86
1007.202	22.96
1007.363	31.87
1007.525	42.92
1007.687	74.5
1007.849	107.82
1008.011	8.62
1008.172	-20.44
1008.334	37.3
1008.496	67.33
1008.658	11.14
1008.819	30.13
1008.981	27.61
1009.143	-6.49
1009.304	34.78
1009.466	80.7
1009.627	79.15
1009.789	123.13
1009.95	45.63
1010.112	28.58
1010.273	56.86
1010.435	41.37
1010.596	29.74
1010.758	23.54
1010.919	33.42
1011.081	5.13
1011.242	40.4
1011.403	72.95
1011.565	40.98
1011.726	59.77
1011.887	22.96
1012.049	13.85
1012.21	59.19
1012.371	104.53
1012.532	-51.25
1012.693	40.98
1012.855	5.13
1013.016	40.78
1013.177	64.03
1013.338	-10.37
1013.499	108.79
1013.66	51.44
1013.821	77.6
1013.982	45.82
1014.143	45.05
1014.304	11.72
1014.465	47.18
1014.626	49.11
1014.787	28.19
1014.948	128.75
1015.109	-26.06
1015.27	69.46
1015.431	18.7
1015.592	22.57
1015.752	96
1015.913	46.79
1016.074	26.45
1016.235	45.43
1016.395	25.87
1016.556	34.78
1016.717	3.39
1016.877	66.75
1017.038	16.57
1017.199	46.4
1017.359	65.97
1017.52	52.21
1017.681	15.4
1017.841	24.51
1018.002	8.82
1018.162	22.38
1018.323	71.2
1018.483	20.05
1018.644	11.33
1018.804	-25.67
1018.964	5.52
1019.125	-5.13
1019.285	51.44
1019.446	20.44
1019.606	-13.47
1019.766	-26.83
1019.926	34.97
1020.087	25.87
1020.247	-6.68
1020.407	33.62
1020.567	59.38
1020.728	17.15
1020.888	17.15
1021.048	-4.17
1021.208	-13.85
1021.368	9.01
1021.528	67.13
1021.688	52.8
1021.848	58.03
1022.008	26.06
1022.168	3.78
1022.328	-8.43
1022.488	28.97
1022.648	5.33
1022.808	27.22
1022.968	34
1023.128	16.57
1023.288	-3
1023.448	21.99
1023.608	51.83
1023.767	36.91
1023.927	8.82
1024.087	-26.06
1024.247	-21.41
1024.406	-5.52
1024.566	2.81
1024.726	-27.8
1024.885	5.91
1025.045	55.12
1025.205	-30.9
1025.364	0.29
1025.524	48.15
1025.683	16.18
1025.843	30.9
1026.003	-5.13
1026.162	84.96
1026.321	38.07
1026.481	36.13
1026.64	-6.1
1026.8	17.53
1026.959	5.91
1027.119	35.75
1027.278	5.13
1027.437	-20.05
1027.597	31.48
1027.756	22.38
1027.915	54.73
1028.074	35.55
1028.234	4.17
1028.393	15.79
1028.552	14.05
1028.711	-53.38
1028.87	20.83
1029.03	-38.65
1029.189	-2.03
1029.348	-54.15
1029.507	8.43
1029.666	8.82
1029.825	-14.43
1029.984	2.23
1030.143	11.33
1030.302	15.6
1030.461	-57.64
1030.62	32.65
1030.779	58.22
1030.938	-37.88
1031.097	-14.24
1031.255	73.91
1031.414	83.02
1031.573	42.92
1031.732	-46.79
1031.891	-17.15
1032.049	30.52
1032.208	43.3
1032.367	-38.27
1032.525	9.4
1032.684	6.49
1032.843	3.39
1033.001	-41.17
1033.16	160.13
1033.319	40.59
1033.477	42.72
1033.636	-16.37
1033.794	-58.22
1033.953	32.84
1034.111	7.46
1034.27	-7.65
1034.428	22.96
1034.587	-25.87
1034.745	9.2
1034.903	5.52
1035.062	23.93
1035.22	-4.36
1035.378	55.7
1035.537	2.42
1035.695	45.63
1035.853	16.57
1036.011	31.68
1036.17	14.82
1036.328	-48.15
1036.486	25.87
1036.644	21.22
1036.802	-78.95
1036.96	-17.15
1037.119	8.82
1037.277	-6.1
1037.435	-34.97
1037.593	-3.2
1037.751	-3.97
1037.909	35.55
1038.067	35.55
