Data from gum_old_FLMT105791__31__15-42-53-259.txt Node

Date: Mon Mar 20 15:42:53 GMT 2023
User: antho
Spectrometer: FLMT10579
Trigger mode: 0
Integration Time (sec): 1.000000E-1
Scans to average: 10
Electric dark correction enabled: true
Nonlinearity correction enabled: false
Boxcar width: 0
XAxis mode: Wavelengths
Number of Pixels in Spectrum: 3648
>>>>>Begin Spectral Data<<<<<
345.248	-185.34
345.464	-185.34
345.681	-185.34
345.898	-186.3
346.114	-184.56
346.331	-59.21
346.548	32.05
346.764	-4.18
346.981	-2.44
347.197	-3.41
347.414	19.46
347.631	-21.04
347.847	40.57
348.064	-13.09
348.28	54.91
348.497	-17.36
348.713	-26.27
348.93	0.27
349.146	53.75
349.363	14.61
349.579	19.84
349.796	45.03
350.012	-8.44
350.229	39.8
350.445	32.82
350.661	0.08
350.878	31.08
351.094	35.92
351.311	50.26
351.527	48.71
351.743	7.64
351.96	76.61
352.176	72.15
352.392	41.93
352.609	71.57
352.825	4.73
353.041	26.82
353.257	52.59
353.474	44.64
353.69	45.81
353.906	53.36
354.122	33.6
354.339	97.15
354.555	42.51
354.771	27.79
354.987	120.4
355.203	77.77
355.42	52.78
355.636	10.74
355.852	31.86
356.068	40.57
356.284	26.62
356.5	85.72
356.716	57.82
356.932	37.47
357.148	53.75
357.364	33.41
357.58	90.75
357.796	76.8
358.012	85.72
358.228	53.17
358.444	-30.92
358.66	105.87
358.876	44.84
359.092	6.86
359.308	46.97
359.524	61.69
359.74	33.41
359.956	21.39
360.172	57.62
360.388	98.12
360.604	26.24
360.819	131.25
361.035	64.02
361.251	93.47
361.467	25.85
361.683	81.07
361.898	72.74
362.114	93.85
362.33	67.7
362.546	119.62
362.762	48.13
362.977	100.05
363.193	38.83
363.409	111.29
363.624	54.91
363.84	20.04
364.056	41.54
364.271	104.51
364.487	49.87
364.703	54.72
364.918	71.57
365.134	77.58
365.35	61.5
365.565	188.4
365.781	107.03
365.996	111.49
366.212	131.44
366.427	119.43
366.643	84.75
366.858	84.36
367.074	76.61
367.289	141.9
367.505	191.89
367.72	43.67
367.936	108.39
368.151	127.18
368.367	110.71
368.582	92.89
368.798	67.89
369.013	143.84
369.228	103.15
369.444	112.45
369.659	143.07
369.874	127.76
370.09	150.62
370.305	40.19
370.52	81.07
370.736	153.53
370.951	105.48
371.166	139.19
371.381	166.32
371.597	136.29
371.812	73.12
372.027	83.59
372.242	92.5
372.458	186.47
372.673	99.47
372.888	83.39
373.103	113.23
373.318	181.43
373.533	111.68
373.749	108.77
373.964	63.44
374.179	119.82
374.394	66.73
374.609	135.12
374.824	53.36
375.039	151.78
375.254	70.02
375.469	144.03
375.684	123.89
375.899	167.09
376.114	97.73
376.329	134.35
376.544	154.88
376.759	139.38
376.974	108.97
377.189	100.64
377.404	110.9
377.619	158.76
377.834	108.19
378.049	119.62
378.264	117.88
378.478	156.43
378.693	81.65
378.908	186.85
379.123	153.72
379.338	179.88
379.553	155.27
379.767	137.84
379.982	163.99
380.197	170.58
380.412	144.62
380.626	168.06
380.841	219.98
381.056	158.95
381.271	197.12
381.485	128.92
381.7	94.82
381.915	156.63
382.129	128.15
382.344	134.74
382.559	96.37
382.773	175.03
382.988	73.12
383.202	101.02
383.417	69.05
383.632	188.79
383.846	98.89
384.061	116.52
384.275	86.3
384.49	147.72
384.704	161.67
384.919	146.36
385.133	154.11
385.348	177.75
385.562	141.71
385.777	211.27
385.991	146.55
386.206	135.7
386.42	146.36
386.634	207.58
386.849	201.97
387.063	161.67
387.277	130.86
387.492	136.87
387.706	137.25
387.92	132.22
388.135	191.31
388.349	193.25
388.563	178.13
388.778	184.72
388.992	199.06
389.206	173.29
389.42	247.5
389.635	176.39
389.849	201
390.063	251.37
390.277	234.51
390.491	289.73
390.706	235.1
390.92	245.17
391.134	220.76
391.348	220.76
391.562	178.72
391.776	228.12
391.99	218.63
392.205	267.06
392.419	208.94
392.633	213.01
392.847	244.01
393.061	186.27
393.275	233.16
393.489	150.43
393.703	141.13
393.917	145.58
394.131	109.35
394.345	131.64
394.559	205.26
394.773	189.57
394.986	231.8
395.2	240.71
395.414	263.58
395.628	229.28
395.842	276.36
396.056	266.68
396.27	207.97
396.484	237.23
396.697	237.03
396.911	246.53
397.125	193.25
397.339	208.75
397.553	185.5
397.766	245.95
397.98	245.75
398.194	295.55
398.408	279.66
398.621	320.54
398.835	349.6
399.049	330.03
399.262	400.75
399.476	384.09
399.69	392.81
399.903	453.64
400.117	363.94
400.331	407.92
400.544	365.88
400.758	511.19
400.971	383.31
401.185	435.62
401.398	366.07
401.612	462.56
401.826	454.81
402.039	449.96
402.253	392.42
402.466	479.41
402.68	424.97
402.893	429.81
403.106	445.7
403.32	409.27
403.533	456.36
403.747	399.2
403.96	431.75
404.174	453.45
404.387	402.3
404.6	459.07
404.814	460.42
405.027	441.05
405.24	447.06
405.454	411.21
405.667	497.43
405.88	392.23
406.094	472.63
406.307	491.62
406.52	444.34
406.733	406.76
406.947	402.69
407.16	491.23
407.373	491.23
407.586	439.31
407.799	451.12
408.012	525.72
408.226	470.69
408.439	535.99
408.652	438.34
408.865	512.93
409.078	554.59
409.291	517.19
409.504	494.91
409.717	553.04
409.93	551.1
410.143	493.75
410.357	447.06
410.57	415.28
410.783	475.34
410.996	470.5
411.209	513.32
411.421	556.91
411.634	552.45
411.847	529.79
412.06	566.21
412.273	591.59
412.486	570.67
412.699	642.16
412.912	579.38
413.125	583.65
413.338	570.67
413.55	579
413.763	551.49
413.976	579.19
414.189	535.79
414.402	533.66
414.615	652.82
414.827	537.15
415.04	612.13
415.253	593.92
415.466	612.9
415.678	633.83
415.891	581.32
416.104	583.45
416.316	579.19
416.529	593.14
416.742	642.93
416.954	642.16
417.167	622.98
417.38	599.15
417.592	613.68
417.805	566.4
418.017	526.88
418.23	632.08
418.442	576.67
418.655	591.01
418.868	597.02
419.08	592.17
419.293	645.65
419.505	629.18
419.718	631.12
419.93	661.53
420.142	609.42
420.355	645.65
420.567	645.07
420.78	622.4
420.992	624.33
421.205	687.3
421.417	609.42
421.629	651.27
421.842	637.51
422.054	613.87
422.266	715.98
422.479	685.17
422.691	629.57
422.903	644.29
423.115	598.57
423.328	610.97
423.54	653.98
423.752	603.41
423.964	630.53
424.177	660.37
424.389	610.58
424.601	787.08
424.813	699.51
425.025	721.4
425.238	698.15
425.45	655.92
425.662	637.9
425.874	944.02
426.086	667.93
426.298	675.68
426.51	689.63
426.722	679.55
426.934	649.52
427.146	725.47
427.358	645.07
427.57	699.12
427.782	665.99
427.994	654.95
428.206	638.28
428.418	652.82
428.63	707.06
428.842	721.79
429.054	700.09
429.266	722.37
429.478	652.23
429.69	653.4
429.902	618.33
430.114	693.5
430.325	639.25
430.537	573.38
430.749	551.49
430.961	504.4
431.173	532.69
431.384	576.67
431.596	474.18
431.808	610.58
432.02	676.65
432.231	769.26
432.443	822.93
432.655	766.74
432.867	746.4
433.078	783.98
433.29	820.6
433.502	776.04
433.713	828.54
433.925	841.14
434.136	862.45
434.348	715.59
434.56	698.54
434.771	828.74
434.983	707.84
435.194	771.19
435.406	818.66
435.617	861.87
435.829	894.81
436.04	911.47
436.252	851.79
436.463	910.31
436.675	919.61
436.886	913.99
437.098	925.8
437.309	969.79
437.521	901.78
437.732	903.52
437.943	890.54
438.155	865.55
438.366	821.18
438.578	923.87
438.789	838.62
439	842.69
439.211	826.99
439.423	862.26
439.634	891.32
439.845	934.52
440.057	902.17
440.268	973.27
440.479	923.87
440.69	922.12
440.902	894.42
441.113	926.19
441.324	893.64
441.535	998.85
441.746	1042.44
441.957	957.77
442.168	992.65
442.38	1007.76
442.591	1061.62
442.802	986.84
443.013	1016.28
443.224	1073.05
443.435	1033.72
443.646	1033.72
443.857	990.9
444.068	1012.22
444.279	963.97
444.49	1116.26
444.701	1072.67
444.912	1153.46
445.123	1102.31
445.334	1058.91
445.545	1068.98
445.756	1055.23
445.967	1004.66
446.178	1032.17
446.388	1040.12
446.599	1002.72
446.81	1044.38
447.021	994.59
447.232	1060.65
447.443	1108.31
447.653	1047.09
447.864	1123.23
448.075	1103.28
448.286	1127.3
448.496	1107.54
448.707	1124.4
448.918	1066.47
449.129	1175.16
449.339	1077.32
449.55	1137.38
449.761	1095.14
449.971	1134.47
450.182	1115.68
450.393	1142.22
450.603	1118.39
450.814	1169.15
451.024	1186.59
451.235	1221.08
451.446	1227.47
451.656	1257.31
451.867	1194.14
452.077	1166.05
452.288	1232.51
452.498	1216.62
452.709	1159.85
452.919	1167.21
453.13	1096.11
453.34	1164.7
453.55	1061.82
453.761	1140.28
453.971	1145.71
454.182	1190.08
454.392	1157.72
454.602	1239.87
454.813	1198.6
455.023	1183.68
455.233	1136.8
455.444	1195.89
455.654	1054.65
455.864	1188.53
456.075	1172.83
456.285	1138.35
456.495	1186.78
456.705	1208.09
456.916	1229.6
457.126	1294.31
457.336	1204.8
457.546	1143
457.756	1185.81
457.967	1292.57
458.177	1195.11
458.387	1221.85
458.597	1156.75
458.807	1209.84
459.017	1146.68
459.227	1188.91
459.437	1173.41
459.647	1248.59
459.857	1255.95
460.068	1202.86
460.278	1266.03
460.488	1226.31
460.698	1272.81
460.908	1213.33
461.117	1241.81
461.327	1284.62
461.537	1290.24
461.747	1299.16
461.957	1286.37
462.167	1400.68
462.377	1292.37
462.587	1251.11
462.797	1332.09
463.007	1272.61
463.216	1353.02
463.426	1388.09
463.636	1336.55
463.846	1251.3
464.056	1267.19
464.265	1321.05
464.475	1272.23
464.685	1298.96
464.895	1313.3
465.104	1289.08
465.314	1349.92
465.524	1279.97
465.733	1262.54
465.943	1401.84
466.153	1403.78
466.362	1399.32
466.572	1335.58
466.782	1329.57
466.991	1339.84
467.201	1402.04
467.41	1269.13
467.62	1346.24
467.829	1344.3
468.039	1394.09
468.249	1358.64
468.458	1387.12
468.668	1392.35
468.877	1417.15
469.086	1409.79
469.296	1468.68
469.505	1428
469.715	1477.79
469.924	1441.37
470.134	1483.02
470.343	1435.55
470.552	1440.01
470.762	1398.35
470.971	1397.77
471.18	1390.8
471.39	1449.89
471.599	1396.42
471.808	1476.63
472.018	1459.77
472.227	1535.53
472.436	1602.76
472.645	1523.13
472.855	1516.73
473.064	1635.89
473.273	1620.39
473.482	1579.9
473.691	1633.56
473.901	1598.5
474.11	1583.38
474.319	1674.64
474.528	1607.99
474.737	1741.48
474.946	1662.43
475.155	1663.79
475.364	1750.59
475.573	1684.71
475.783	1765.12
475.992	1740.32
476.201	1730.05
476.41	1723.85
476.619	1684.33
476.828	1717.46
477.037	1671.93
477.245	1722.3
477.454	1766.86
477.663	1787.4
477.872	1812
478.081	1881.75
478.29	1805.42
478.499	1957.51
478.708	1942.98
478.917	1991.03
479.125	1894.73
479.334	1865.09
479.543	1936.2
479.752	1965.84
479.961	1960.22
480.169	2005.56
480.378	1986.18
480.587	2144.28
480.796	2052.64
481.004	2042.76
481.213	2050.12
481.422	2060.97
481.63	2096.43
481.839	2105.73
482.048	2172.18
482.256	2123.55
482.465	2191.56
482.674	2215.19
482.882	2163.27
483.091	2187.29
483.299	2143.31
483.508	2201.05
483.716	2234.37
483.925	2239.02
484.134	2184.58
484.342	2186.91
484.551	2243.48
484.759	2224.3
484.967	2308.58
485.176	2277.39
485.384	2301.6
485.593	2333.18
485.801	2257.24
486.01	2215.58
486.218	2112.51
486.426	2000.52
486.635	1944.14
486.843	1940.65
487.051	1974.17
487.26	1976.69
487.468	2101.27
487.676	2135.56
487.885	2114.44
488.093	2227.21
488.301	2315.55
488.509	2282.81
488.717	2364.77
488.926	2367.09
489.134	2343.45
489.342	2332.22
489.55	2283.2
489.758	2308.97
489.967	2374.45
490.175	2498.45
490.383	2489.73
490.591	2565.29
490.799	2519.38
491.007	2584.48
491.215	2539.91
491.423	2484.89
491.631	2497.1
491.839	2515.31
492.047	2494.19
492.255	2384.14
492.463	2363.99
492.671	2361.08
492.879	2497.29
493.087	2469
493.295	2529.64
493.503	2519.57
493.711	2627.1
493.919	2593.97
494.127	2572.85
494.334	2604.82
494.542	2501.74
494.75	2618.19
494.958	2570.14
495.166	2667.79
495.374	2695.49
495.581	2701.89
495.789	2674.37
495.997	2753.62
496.205	2585.64
496.412	2632.52
496.62	2673.79
496.828	2728.62
497.035	2679.02
497.243	2703.44
497.451	2696.65
497.658	2732.3
497.866	2755.94
498.074	2771.25
498.281	2702.08
498.489	2779.97
498.696	2693.36
498.904	2603.46
499.112	2621.87
499.319	2745.87
499.527	2713.12
499.734	2752.65
499.942	2679.41
500.149	2707.5
500.357	2762.53
500.564	2674.57
500.771	2690.07
500.979	2615.67
501.186	2593.58
501.394	2670.31
501.601	2618.38
501.808	2630.59
502.016	2651.51
502.223	2575.18
502.43	2651.51
502.638	2665.07
502.845	2640.47
503.052	2729.59
503.26	2668.76
503.467	2779.77
503.674	2742.38
503.881	2711.19
504.089	2824.92
504.296	2718.55
504.503	2648.02
504.71	2715.45
504.917	2687.94
505.125	2694.91
505.332	2805.15
505.539	2755.55
505.746	2850.88
505.953	2869.86
506.16	2835.38
506.367	2927.41
506.574	2958.41
506.781	2928.18
506.988	2847.39
507.195	2882.65
507.402	2845.65
507.609	2861.15
507.816	2816.58
508.023	2788.68
508.23	2784.23
508.437	2730.17
508.644	2770.08
508.851	2825.88
509.058	2849.33
509.265	2821.62
509.472	2903.19
509.679	2972.55
509.885	2880.52
510.092	2894.08
510.299	2859.21
510.506	2862.5
510.713	2877.23
510.92	2881.3
511.126	2913.85
511.333	2935.16
511.54	2949.88
511.746	2958.02
511.953	2952.79
512.16	3014.21
512.367	2964.22
512.573	2922.18
512.78	2990.18
512.987	2935.74
513.193	2918.69
513.4	2820.46
513.606	2928.18
513.813	2914.43
514.02	2894.08
514.226	2948.14
514.433	2953.95
514.639	2851.07
514.846	2875.48
515.052	2880.91
515.259	2869.67
515.465	2940
515.672	2916.95
515.878	3032.81
516.085	2971.39
516.291	3010.14
516.497	2986.69
516.704	2908.61
516.91	2836.15
517.117	2746.64
517.323	2600.56
517.529	2636.79
517.736	2593.58
517.942	2621.48
518.148	2679.02
518.354	2754.78
518.561	2730.75
518.767	2741.02
518.973	2803.22
519.179	2824.14
519.386	2790.23
519.592	2842.16
519.798	2852.04
520.004	3017.31
520.21	2896.6
520.417	3045.4
520.623	3077.95
520.829	3075.82
521.035	3061.29
521.241	3082.6
521.447	3103.52
521.653	3211.83
521.859	3100.42
522.065	3143.63
522.271	3206.21
522.477	3192.26
522.683	3249.22
522.889	3134.14
523.095	3134.91
523.301	3086.09
523.507	3041.91
523.713	3126
523.919	3095.77
524.125	3163
524.331	3193.81
524.537	3308.12
524.742	3280.42
524.948	3287.97
525.154	3339.31
525.36	3413.33
525.566	3287.58
525.772	3390.66
525.977	3241.67
526.183	3271.89
526.389	3318.97
526.595	3217.64
526.8	3194
527.006	3089.96
527.212	3007.62
527.417	2995.03
527.623	2958.21
527.829	3089.57
528.034	3176.37
528.24	3190.32
528.446	3196.52
528.651	3332.34
528.857	3320.91
529.062	3371.67
529.268	3386.78
529.473	3405.38
529.679	3472.22
529.884	3521.63
530.09	3464.28
530.295	3462.54
530.501	3465.06
530.706	3447.43
530.912	3450.33
531.117	3485.98
531.323	3494.89
531.528	3558.83
531.733	3561.54
531.939	3536.55
532.144	3546.04
532.35	3529.57
532.555	3565.42
532.76	3437.16
532.966	3482.49
533.171	3406.74
533.376	3364.7
533.581	3319.75
533.787	3406.74
533.992	3463.12
534.197	3450.91
534.402	3475.52
534.607	3463.89
534.813	3578.59
535.018	3483.66
535.223	3569.1
535.428	3518.34
535.633	3605.72
535.838	3584.6
536.043	3643.3
536.249	3751.8
536.454	3663.26
536.659	3707.24
536.864	3625.67
537.069	3610.56
537.274	3618.12
537.479	3600.87
537.684	3562.51
537.889	3514.66
538.094	3688.64
538.299	3651.05
538.504	3611.53
538.708	3646.6
538.913	3681.86
539.118	3645.24
539.323	3658.22
539.528	3611.92
539.733	3630.71
539.938	3638.46
540.142	3616.95
540.347	3530.16
540.552	3538.87
540.757	3487.53
540.962	3486.37
541.166	3422.43
541.371	3409.45
541.576	3465.06
541.781	3396.08
541.985	3542.56
542.19	3500.32
542.395	3640.59
542.599	3662.48
542.804	3560.57
543.008	3656.09
543.213	3571.42
543.418	3555.92
543.622	3552.24
543.827	3492.18
544.031	3636.52
544.236	3649.31
544.44	3632.84
544.645	3683.99
544.849	3600.87
545.054	3685.15
545.258	3736.3
545.463	3666.94
545.667	3608.62
545.872	3655.51
546.076	3665.78
546.281	3665
546.485	3583.44
546.689	3653.77
546.894	3662.68
547.098	3641.95
547.302	3567.16
547.507	3629.74
547.711	3616.95
547.915	3691.74
548.119	3611.14
548.324	3577.24
548.528	3656.48
548.732	3545.46
548.936	3662.29
549.141	3645.82
549.345	3592.15
549.549	3648.73
549.753	3644.47
549.957	3698.13
550.161	3693.87
550.366	3677.21
550.57	3616.95
550.774	3649.7
550.978	3637.1
551.182	3675.85
551.386	3580.92
551.59	3604.55
551.794	3619.09
551.998	3658.42
552.202	3615.21
552.406	3632.26
552.61	3733.59
552.814	3684.57
553.018	3728.94
553.222	3587.7
553.426	3629.94
553.63	3712.08
553.833	3627.22
554.037	3588.67
554.241	3647.76
554.445	3633.42
554.649	3618.7
554.853	3651.63
555.056	3676.82
555.26	3713.83
555.464	3653.57
555.668	3680.89
555.871	3690.77
556.075	3687.48
556.279	3633.04
556.483	3545.27
556.686	3589.25
556.89	3599.9
557.094	3595.25
557.297	3458.86
557.501	3571.04
557.704	3445.88
557.908	3558.05
558.112	3472.22
558.315	3647.57
558.519	3517.17
558.722	3489.86
558.926	3477.46
559.129	3383.88
559.333	3396.86
559.536	3401.51
559.74	3350.55
559.943	3332.92
560.147	3335.05
560.35	3369.15
560.553	3435.03
560.757	3362.95
560.96	3453.63
561.164	3450.91
561.367	3507.87
561.57	3467.77
561.774	3460.99
561.977	3427.28
562.18	3413.33
562.384	3475.13
562.587	3428.24
562.79	3442.78
562.993	3390.46
563.197	3424.56
563.4	3481.33
563.603	3471.64
563.806	3499.93
564.009	3420.88
564.212	3416.62
564.416	3353.07
564.619	3388.14
564.822	3332.15
565.025	3424.18
565.228	3351.52
565.431	3415.07
565.634	3280.61
565.837	3309.67
566.04	3281.97
566.243	3255.03
566.446	3144.21
566.649	3251.74
566.852	3157.58
567.055	3238.95
567.258	3282.55
567.461	3365.28
567.664	3315.68
567.867	3211.83
568.07	3286.23
568.273	3336.6
568.475	3356.95
568.678	3234.11
568.881	3237.98
569.084	3207.18
569.287	3122.9
569.489	3170.75
569.692	3224.23
569.895	3220.16
570.098	3135.88
570.3	3132.2
570.503	3063.81
570.706	3091.9
570.909	3073.3
571.111	2986.5
571.314	2999.09
571.516	3025.44
571.719	3076.59
571.922	2996.96
572.124	3036.87
572.327	3093.26
572.529	3062.84
572.732	3060.51
572.935	3104.11
573.137	3140.92
573.34	3113.02
573.542	3133.94
573.745	3131.04
573.947	3119.99
574.15	3116.7
574.352	3078.72
574.554	3157.77
574.757	3072.33
574.959	3021.96
575.162	3062.64
575.364	3008.98
575.566	3066.91
575.769	2971.19
575.971	3036.29
576.173	2887.88
576.376	2982.82
576.578	3012.66
576.78	3086.09
576.982	2916.36
577.185	2997.74
577.387	2965.19
577.589	2956.08
577.791	3002.58
577.993	3000.45
578.196	2982.82
578.398	3013.24
578.6	2972.36
578.802	2888.85
579.004	2896.41
579.206	2881.3
579.408	2958.02
579.61	2859.6
579.812	2988.24
580.014	2897.38
580.216	2891.56
580.418	2954.53
580.62	2922.18
580.822	2932.64
581.024	2953.56
581.226	2975.46
581.428	2940.97
581.63	3052.96
581.832	2884.98
582.034	2950.27
582.236	2931.28
582.438	2993.86
582.64	3011.3
582.841	3015.76
583.043	3090.54
583.245	2974.29
583.447	2977.01
583.649	2993.86
583.85	3000.26
584.052	3062.84
584.254	2950.85
584.456	3013.82
584.657	2949.11
584.859	2972.55
585.061	2918.3
585.262	2948.14
585.464	2880.13
585.666	2946.78
585.867	2869.28
586.069	2927.02
586.27	2878.2
586.472	2855.14
586.674	2857.85
586.875	2860.95
587.077	2845.65
587.278	2886.14
587.48	2818.13
587.681	2971.58
587.883	2902.41
588.084	2787.52
588.285	2819.1
588.487	2843.32
588.688	2797.4
588.89	2719.9
589.091	2676.31
589.292	2646.28
589.494	2598.81
589.695	2510.85
589.896	2441.49
590.098	2474.81
590.299	2518.99
590.5	2497.1
590.702	2591.64
590.903	2623.61
591.104	2702.66
591.305	2736.37
591.507	2726.3
591.708	2710.22
591.909	2676.7
592.11	2753.62
592.311	2735.4
592.512	2673.4
592.714	2611.6
592.915	2636.4
593.116	2622.45
593.317	2666.82
593.518	2688.13
593.719	2627.29
593.92	2746.84
594.121	2697.43
594.322	2679.41
594.523	2738.12
594.724	2633.11
594.925	2658.87
595.126	2688.71
595.327	2645.12
595.528	2703.44
595.729	2625.94
595.929	2674.57
596.13	2661.2
596.331	2667.21
596.532	2646.09
596.733	2733.08
596.934	2700.72
597.135	2712.74
597.335	2711.96
597.536	2661.97
597.737	2669.34
597.938	2646.47
598.138	2683.29
598.339	2672.44
598.54	2671.47
598.74	2637.17
598.941	2598.81
599.142	2712.93
599.342	2645.89
599.543	2629.42
599.744	2619.93
599.944	2630.39
600.145	2607.53
600.345	2604.82
600.546	2660.62
600.746	2648.8
600.947	2703.82
601.147	2601.52
601.348	2665.46
601.548	2593.97
601.749	2579.83
601.949	2545.53
602.15	2548.63
602.35	2517.63
602.551	2591.64
602.751	2530.03
602.951	2556.96
603.152	2479.66
603.352	2581.57
603.552	2569.17
603.753	2617.41
603.953	2650.93
604.153	2609.86
604.354	2616.44
604.554	2612.37
604.754	2637.37
604.954	2553.28
605.155	2618.57
605.355	2590.67
605.555	2599.59
605.755	2630.78
605.955	2602.69
606.155	2635.04
606.356	2602.3
606.556	2663.33
606.756	2606.95
606.956	2524.61
607.156	2632.72
607.356	2538.36
607.556	2585.44
607.756	2549.02
607.956	2624.77
608.156	2572.46
608.356	2555.22
608.556	2629.23
608.756	2543.79
608.956	2547.66
609.156	2553.28
609.356	2514.14
609.556	2472.68
609.755	2513.56
609.955	2496.51
610.155	2513.56
610.355	2533.13
610.555	2485.66
610.755	2418.63
610.954	2406.23
611.154	2505.04
611.354	2529.06
611.554	2489.35
611.753	2473.07
611.953	2440.13
612.153	2483.15
612.352	2474.23
612.552	2425.21
612.752	2405.65
612.951	2471.71
613.151	2477.33
613.351	2417.46
613.55	2478.88
613.75	2474.43
613.949	2381.43
614.149	2441.1
614.348	2446.53
614.548	2377.55
614.747	2392.67
614.947	2445.17
615.146	2339.38
615.346	2492.64
615.545	2464.16
615.745	2481.6
615.944	2447.3
616.144	2434.51
616.343	2412.43
616.542	2361.86
616.742	2313.81
616.941	2356.24
617.14	2301.41
617.34	2346.55
617.539	2386.08
617.738	2273.32
617.938	2438.78
618.137	2348.88
618.336	2347.52
618.535	2408.94
618.734	2375.81
618.934	2406.03
619.133	2361.08
619.332	2408.55
619.531	2344.23
619.73	2401
619.929	2448.27
620.128	2413.01
620.328	2442.07
620.527	2375.62
620.726	2404.29
620.925	2376
621.124	2362.44
621.323	2367.28
621.522	2304.12
621.721	2332.6
621.92	2345.97
622.119	2324.85
622.318	2287.07
622.517	2348.68
622.715	2325.63
622.914	2286.69
623.113	2356.63
623.312	2236.31
623.511	2328.73
623.71	2305.09
623.909	2261.3
624.107	2321.17
624.306	2220.62
624.505	2230.69
624.704	2273.51
624.902	2233.41
625.101	2309.35
625.3	2257.82
625.499	2207.25
625.697	2194.66
625.896	2193.11
626.095	2176.25
626.293	2184.77
626.492	2217.52
626.69	2191.17
626.889	2171.21
627.088	2238.25
627.286	2147.96
627.485	2164.82
627.683	2145.06
627.882	2190.01
628.08	2083.25
628.279	2123.36
628.477	2197.37
628.676	2107.28
628.874	2137.89
629.073	2125.1
629.271	2077.05
629.469	2130.91
629.668	2121.42
629.866	2095.84
630.065	2065.43
630.263	2119.68
630.461	2084.03
630.66	2101.27
630.858	2082.86
631.056	2119.87
631.254	2120.45
631.453	2040.05
631.651	2066.01
631.849	2076.47
632.047	2072.21
632.245	2051.67
632.444	2041.21
632.642	2090.61
632.84	2129.75
633.038	2023.96
633.236	2030.36
633.434	2035.4
633.632	2029.78
633.83	2042.18
634.028	2118.71
634.227	2063.29
634.425	2150.67
634.623	2081.51
634.821	2088.09
635.019	2055.16
635.216	2063.88
635.414	2107.08
635.612	2086.54
635.81	2088.48
636.008	2131.3
636.206	2065.62
636.404	2112.7
636.602	2071.24
636.8	2086.74
636.997	2102.82
637.195	2104.76
637.393	2051.28
637.591	2120.26
637.789	2112.89
637.986	2043.34
638.184	2110.18
638.382	2111.54
638.58	2114.83
638.777	2175.09
638.975	2092.16
639.173	2084.8
639.37	2111.73
639.568	2088.09
639.765	2104.56
639.963	2100.69
640.161	2083.44
640.358	2097.01
640.556	2008.46
640.753	1983.47
640.951	1995.68
641.148	2030.75
641.346	2009.43
641.543	2002.85
641.741	2040.82
641.938	1990.64
642.136	2000.71
642.333	1971.46
642.531	2063.1
642.728	2064.46
642.925	2016.02
643.123	2006.33
643.32	2025.13
643.517	1957.51
643.715	1973.4
643.912	1978.05
644.109	2013.5
644.306	1986.57
644.504	1956.93
644.701	2005.17
644.898	2008.85
645.095	1948.79
645.293	2011.37
645.49	2030.75
645.687	1985.6
645.884	2041.21
646.081	1921.67
646.278	1940.46
646.475	1943.95
646.672	1920.89
646.87	1967
647.067	1895.12
647.264	1911.98
647.461	1877.3
647.658	1851.72
647.855	1922.83
648.052	1900.74
648.249	1826.15
648.446	1863.74
648.642	1892.6
648.839	1822.27
649.036	1848.24
649.233	1816.07
649.43	1817.82
649.627	1797.67
649.824	1804.84
650.021	1813.17
650.217	1792.24
650.414	1814.91
650.611	1846.3
650.808	1817.43
651.004	1845.33
651.201	1875.75
651.398	1925.15
651.595	1868.97
651.791	1798.64
651.988	1895.7
652.185	1814.33
652.381	1867.61
652.578	1765.89
652.775	1860.64
652.971	1839.52
653.168	1825.57
653.364	1861.99
653.561	1794.76
653.757	1839.71
653.954	1869.94
654.15	1814.72
654.347	1883.69
654.543	1843.39
654.74	1818.59
654.936	1798.64
655.133	1783.33
655.329	1834.29
655.525	1803.09
655.722	1858.89
655.918	1768.61
656.115	1722.11
656.311	1636.86
656.507	1583.38
656.704	1528.75
656.9	1565.56
657.096	1576.6
657.292	1592.1
657.489	1657.01
657.685	1673.86
657.881	1670.38
658.077	1691.3
658.273	1731.99
658.47	1838.16
658.666	1739.74
658.862	1809.87
659.058	1742.64
659.254	1817.24
659.45	1759.69
659.646	1756.4
659.842	1767.25
660.038	1809.68
660.234	1771.12
660.43	1771.71
660.626	1866.25
660.822	1790.69
661.018	1842.62
661.214	1782.94
661.41	1776.16
661.606	1860.64
661.802	1846.49
661.998	1826.73
662.194	1803.48
662.39	1824.6
662.586	1832.15
662.781	1837.58
662.977	1841.07
663.173	1816.65
663.369	1818.79
663.564	1778.29
663.76	1816.85
663.956	1801.74
664.152	1785.66
664.347	1727.53
664.543	1762.41
664.739	1766.47
664.934	1709.32
665.13	1726.95
665.326	1777.52
665.521	1769.77
665.717	1709.51
665.912	1730.82
666.108	1669.02
666.304	1719.97
666.499	1720.36
666.695	1609.15
666.89	1761.63
667.086	1765.12
667.281	1739.74
667.477	1829.83
667.672	1756.4
667.867	1744.58
668.063	1733.92
668.258	1696.14
668.454	1719.01
668.649	1771.51
668.844	1733.92
669.04	1756.01
669.235	1696.92
669.43	1720.36
669.626	1656.43
669.821	1700.41
670.016	1651.19
670.211	1694.01
670.407	1620.58
670.602	1708.93
670.797	1691.88
670.992	1732.37
671.187	1671.93
671.382	1727.72
671.578	1628.72
671.773	1688.78
671.968	1601.4
672.163	1655.26
672.358	1691.3
672.553	1639.38
672.748	1664.76
672.943	1745.74
673.138	1664.95
673.333	1684.33
673.528	1625.81
673.723	1688.39
673.918	1660.49
674.113	1637.24
674.308	1752.91
674.503	1687.62
674.698	1706.99
674.892	1660.88
675.087	1739.74
675.282	1685.88
675.477	1669.6
675.672	1688.2
675.867	1635.89
676.061	1614.19
676.256	1596.95
676.451	1628.14
676.646	1652.16
676.84	1591.52
677.035	1615.35
677.23	1603.34
677.424	1683.36
677.619	1647.51
677.814	1699.44
678.008	1673.48
678.203	1594.43
678.397	1616.51
678.592	1611.48
678.787	1672.89
678.981	1596.56
679.176	1615.35
679.37	1649.45
679.565	1637.83
679.759	1631.63
679.954	1605.47
680.148	1681.03
680.342	1687.23
680.537	1661.85
680.731	1607.02
680.926	1682.19
681.12	1672.12
681.314	1646.16
681.509	1632.98
681.703	1653.52
681.897	1595.78
682.092	1584.55
682.286	1623.88
682.48	1675.22
682.674	1643.06
682.869	1604.7
683.063	1642.86
683.257	1682
683.451	1561.3
683.645	1646.74
683.839	1592.88
684.034	1617.1
684.228	1623.88
684.422	1550.25
684.616	1571.95
684.81	1612.64
685.004	1574.86
685.198	1583.38
685.392	1628.91
685.586	1574.47
685.78	1555.87
685.974	1615.55
686.168	1572.15
686.362	1612.06
686.556	1513.05
686.75	1474.88
686.944	1429.94
687.138	1388.28
687.331	1289.08
687.525	1328.99
687.719	1223.01
687.913	1302.84
688.107	1320.27
688.301	1279.59
688.494	1329.96
688.688	1311.36
688.882	1234.44
689.076	1250.14
689.269	1291.02
689.463	1374.72
689.657	1293.92
689.85	1343.52
690.044	1348.17
690.238	1321.24
690.431	1361.74
690.625	1376.46
690.818	1385.18
691.012	1405.14
691.205	1406.3
691.399	1400.87
691.593	1391.77
691.786	1444.85
691.98	1443.69
692.173	1476.24
692.366	1437.1
692.56	1476.43
692.753	1508.21
692.947	1461.71
693.14	1502.59
693.333	1500.07
693.527	1425.87
693.72	1494.26
693.914	1438.46
694.107	1438.65
694.3	1434.39
694.493	1423.15
694.687	1476.82
694.88	1399.71
695.073	1479.92
695.266	1484.18
695.46	1440.79
695.653	1474.69
695.846	1504.53
696.039	1430.52
696.232	1446.4
696.425	1512.47
696.618	1490.38
696.812	1529.33
697.005	1572.73
697.198	1663.79
697.391	1584.74
697.584	1603.53
697.777	1658.75
697.97	1609.93
698.163	1589.58
698.356	1606.63
698.549	1704.48
698.742	1644.8
698.935	1591.71
699.127	1642.48
699.32	1616.13
699.513	1593.07
699.706	1645.38
699.899	1668.44
700.092	1652.16
700.285	1661.46
700.477	1603.53
700.67	1665.34
700.863	1682
701.056	1764.34
701.248	1765.31
701.441	1740.12
701.634	1687.23
701.826	1780.04
702.019	1671.73
702.212	1763.57
702.404	1712.42
702.597	1718.42
702.79	1750.39
702.982	1779.26
703.175	1841.65
703.367	1801.15
703.56	1860.44
703.752	1963.71
703.945	1877.69
704.137	1850.37
704.33	1902.48
704.522	1929.22
704.715	1922.63
704.907	1924.38
705.1	1972.82
705.292	1989.48
705.484	1972.04
705.677	2044.5
705.869	2022.41
706.061	2099.14
706.254	2105.14
706.446	2057.29
706.638	2062.13
706.831	2140.79
707.023	2084.41
707.215	2217.52
707.407	2222.75
707.599	2177.8
707.792	2215.97
707.984	2212.67
708.176	2285.33
708.368	2263.05
708.56	2277.77
708.752	2265.76
708.944	2273.32
709.136	2339.19
709.329	2298.12
709.521	2429.48
709.713	2374.65
709.905	2402.55
710.097	2486.63
710.289	2411.46
710.481	2452.73
710.672	2477.33
710.864	2487.99
711.056	2545.14
711.248	2502.91
711.44	2514.92
711.632	2505.43
711.824	2566.46
712.016	2612.57
712.207	2621.87
712.399	2610.44
712.591	2700.72
712.783	2644.34
712.975	2709.64
713.166	2624.77
713.358	2654.22
713.55	2732.5
713.741	2754
713.933	2750.32
714.125	2720.87
714.316	2738.31
714.508	2839.25
714.7	2832.08
714.891	2812.9
715.083	2882.07
715.274	2834.8
715.466	2850.88
715.657	2909.2
715.849	2815.81
716.04	2890.79
716.232	2816.78
716.423	2918.11
716.615	2801.47
716.806	2785.2
716.998	2724.94
717.189	2656.36
717.381	2600.56
717.572	2585.25
717.763	2607.53
717.955	2573.24
718.146	2555.99
718.337	2491.67
718.528	2417.85
718.72	2353.53
718.911	2461.06
719.102	2397.7
719.293	2485.66
719.485	2403.71
719.676	2409.91
719.867	2386.66
720.058	2382.4
720.249	2397.9
720.44	2403.13
720.632	2469.2
720.823	2510.08
721.014	2653.06
721.205	2742.96
721.396	2792.95
721.587	2913.46
721.778	2908.03
721.969	2992.31
722.16	3052.96
722.351	3055.67
722.542	3175.6
722.733	3231.01
722.924	3132.39
723.115	3214.73
723.305	3210.86
723.496	3186.84
723.687	3041.52
723.878	3061.09
724.069	3072.33
724.26	3117.47
724.45	3045.01
724.641	3045.21
724.832	3101.59
725.023	3025.06
725.213	3059.74
725.404	3068.84
725.595	3048.89
725.785	3058.57
725.976	3155.84
726.167	3147.89
726.357	3131.81
726.548	3241.47
726.739	3168.62
726.929	3273.44
727.12	3269.37
727.31	3324.01
727.501	3263.95
727.691	3243.99
727.882	3291.07
728.072	3316.45
728.263	3337.38
728.453	3393.76
728.644	3388.14
728.834	3403.44
729.024	3363.53
729.215	3318.39
729.405	3379.23
729.596	3496.25
729.786	3445.49
729.976	3528.22
730.167	3538.49
730.357	3546.24
730.547	3533.26
730.737	3561.54
730.928	3592.74
731.118	3708.98
731.308	3589.44
731.498	3613.85
731.688	3712.86
731.879	3740.37
732.069	3776.6
732.259	3815.93
732.449	3844.41
732.639	3911.84
732.829	3961.82
733.019	4032.93
733.209	4103.65
733.399	4085.43
733.589	4197.61
733.779	4212.73
733.969	4198.58
734.159	4251.86
734.349	4346.61
734.539	4371.79
734.729	4370.24
734.919	4402.6
735.109	4483
735.299	4400.66
735.488	4461.69
735.678	4432.44
735.868	4494.24
736.058	4441.74
736.248	4403.18
736.437	4408.22
736.627	4400.66
736.817	4539.19
737.007	4461.89
737.196	4513.42
737.386	4529.5
737.576	4495.02
737.765	4598.86
737.955	4508.38
738.144	4688.76
738.334	4590.73
738.524	4549.07
738.713	4653.5
738.903	4554.11
739.092	4585.5
739.282	4634.13
739.471	4652.15
739.661	4635.87
739.85	4685.47
740.04	4713.76
740.229	4752.51
740.419	4764.52
740.608	4791.45
740.797	4729.06
740.987	4806.17
741.176	4814.12
741.365	4743.01
741.555	4686.44
741.744	4793.58
741.933	4757.93
742.123	4782.34
742.312	4820.12
742.501	4904.6
742.69	4876.7
742.88	4794.16
743.069	4998.95
743.258	4869.34
743.447	4926.69
743.636	4859.26
743.825	4912.74
744.014	4943.93
744.204	4924.36
744.393	4885.61
744.582	5008.45
744.771	5039.25
744.96	4943.15
745.149	4982.68
745.338	4942.38
745.527	5008.06
745.716	5012.32
745.905	4961.56
746.094	5012.13
746.283	5068.31
746.471	5050.49
746.66	5072.19
746.849	5041.58
747.038	5101.45
747.227	5047.78
747.416	5103
747.604	5061.92
747.793	5010.58
747.982	4990.23
748.171	5079.94
748.359	5050.3
748.548	5054.95
748.737	5057.85
748.926	5034.6
749.114	4888.52
749.303	5050.88
749.491	5069.28
749.68	4929.2
749.869	5061.73
750.057	4962.53
750.246	4957.1
750.434	4930.75
750.623	4961.75
750.811	4953.42
751	4961.17
751.188	4907.12
751.377	4938.7
751.565	4926.88
751.754	4893.75
751.942	4898.4
752.131	4971.63
752.319	4871.47
752.507	4889.68
752.696	4963.11
752.884	4944.12
753.072	4898.98
753.261	4927.27
753.449	4936.37
753.637	4840.47
753.825	5005.35
754.014	4884.45
754.202	4895.1
754.39	4962.72
754.578	4967.76
754.766	4901.11
754.955	4879.6
755.143	5026.47
755.331	4913.9
755.519	4913.12
755.707	4886.58
755.895	4878.05
756.083	4872.44
756.271	4839.31
756.459	4914.87
756.647	4885.03
756.835	4801.14
757.023	4787.38
757.211	4817.41
757.399	4840.08
757.587	4805.01
757.775	4756.58
757.963	4796.29
758.151	4749.6
758.339	4763.94
758.526	4735.65
758.714	4759.68
758.902	4667.65
759.09	4552.17
759.278	4350.67
759.465	4120.7
759.653	3626.06
759.841	3401.89
760.028	2980.88
760.216	2630.01
760.404	2450.6
760.591	2150.29
760.779	1837.77
760.967	1675.41
761.154	1513.25
761.342	1545.6
761.529	1550.25
761.717	1605.28
761.905	1655.46
762.092	1758.92
762.28	1787.21
762.467	1770.54
762.655	1742.06
762.842	1749.62
763.029	1761.44
763.217	1819.56
763.404	1829.25
763.592	1830.8
763.779	1832.54
763.966	1905.58
764.154	1992.77
764.341	2027.26
764.528	2030.55
764.716	2119.48
764.903	2174.89
765.09	2242.32
765.277	2303.35
765.465	2510.66
765.652	2577.31
765.839	2668.56
766.026	2785.58
766.213	2881.3
766.4	2934.38
766.588	3177.92
766.775	3217.25
766.962	3271.7
767.149	3371.86
767.336	3575.1
767.523	3513.3
767.71	3633.23
767.897	3814.77
768.084	3895.95
768.271	3902.54
768.458	3933.34
768.645	3992.24
768.832	4040.49
769.019	4057.54
769.206	4032.15
769.392	4109.27
769.579	4246.44
769.766	4190.64
769.953	4169.33
770.14	4254.96
770.327	4241.4
770.513	4293.91
770.7	4314.64
770.887	4239.27
771.073	4307.28
771.26	4345.64
771.447	4253.8
771.634	4208.85
771.82	4340.99
772.007	4210.79
772.193	4257.29
772.38	4345.83
772.567	4280.73
772.753	4255.35
772.94	4308.63
773.126	4322
773.313	4341.18
773.499	4285.58
773.686	4285.58
773.872	4192
774.059	4279.96
774.245	4215.25
774.432	4229.58
774.618	4129.8
774.804	4195.87
774.991	4176.69
775.177	4211.18
775.363	4181.53
775.55	4227.84
775.736	4139.68
775.922	4155.57
776.109	4135.81
776.295	4144.72
776.481	4155.77
776.667	4180.18
776.853	4102.87
777.04	4109.85
777.226	4106.94
777.412	4201.1
777.598	4108.1
777.784	4087.37
777.97	4078.07
778.156	4134.07
778.342	4089.5
778.528	4086.98
778.715	4003.48
778.901	4034.67
779.087	4025.18
779.272	4024.99
779.458	3987.4
779.644	4010.26
779.83	4004.25
780.016	4102.87
780.202	3986.43
780.388	3992.82
780.574	3865.92
780.76	3947.68
780.946	4000.96
781.131	3934.12
781.317	3942.84
781.503	3924.82
781.689	3888.01
781.874	4029.05
782.06	3881.81
782.246	3933.15
782.432	3894.98
782.617	3876.58
782.803	3961.44
782.989	3862.43
783.174	3836.86
783.36	3803.92
783.545	3814.96
783.731	3824.84
783.916	3728.75
784.102	3856.04
784.288	3779.12
784.473	3777.18
784.659	3725.65
784.844	3821.94
785.029	3752.96
785.215	3755.68
785.4	3704.72
785.586	3792.68
785.771	3692.52
785.956	3738.82
786.142	3679.73
786.327	3664.03
786.512	3698.33
786.698	3705.88
786.883	3609.59
787.068	3624.32
787.254	3677.21
787.439	3633.04
787.624	3626.45
787.809	3609.2
787.994	3563.09
788.18	3704.92
788.365	3587.12
788.55	3556.89
788.735	3584.21
788.92	3583.05
789.105	3585.76
789.29	3590.02
789.475	3501.29
789.66	3520.27
789.845	3483.27
790.03	3441.81
790.215	3547.79
790.4	3553.99
790.585	3534.22
790.77	3459.82
790.955	3429.99
791.14	3478.62
791.325	3525.12
791.51	3375.74
791.695	3465.25
791.879	3413.71
792.064	3357.53
792.249	3447.04
792.434	3399.57
792.618	3412.74
792.803	3447.43
792.988	3392.4
793.173	3412.55
793.357	3441.03
793.542	3419.72
793.727	3387.94
793.911	3409.84
794.096	3397.05
794.281	3424.76
794.465	3499.74
794.65	3397.05
794.834	3514.66
795.019	3503.81
795.203	3512.91
795.388	3498.96
795.572	3543.33
795.757	3510.97
795.941	3489.66
796.126	3492.18
796.31	3430.57
796.494	3462.54
796.679	3454.01
796.863	3384.84
797.048	3541.2
797.232	3477.26
797.416	3483.85
797.601	3508.26
797.785	3538.1
797.969	3558.25
798.153	3446.26
798.338	3544.49
798.522	3519.69
798.706	3525.51
798.89	3576.65
799.074	3595.45
799.258	3595.25
799.443	3528.02
799.627	3524.73
799.811	3608.43
799.995	3526.67
800.179	3456.14
800.363	3485.4
800.547	3519.31
800.731	3552.05
800.915	3436.77
801.099	3490.63
801.283	3487.92
801.467	3480.75
801.651	3494.89
801.835	3515.43
802.019	3528.99
802.202	3520.08
802.386	3450.91
802.57	3437.74
802.754	3468.35
802.938	3444.52
803.121	3445.1
803.305	3533.26
803.489	3461.37
803.673	3500.51
803.856	3478.62
804.04	3498.96
804.224	3505.74
804.407	3417.59
804.591	3471.64
804.775	3461.37
804.958	3452.46
805.142	3560.77
805.326	3440.84
805.509	3417.59
805.693	3524.34
805.876	3482.49
806.06	3527.25
806.243	3501.09
806.427	3526.86
806.61	3547.79
806.794	3396.66
806.977	3532.67
807.16	3440.26
807.344	3515.24
807.527	3460.99
807.71	3451.11
807.894	3448.39
808.077	3503.81
808.26	3427.28
808.444	3412.55
808.627	3464.86
808.81	3386.59
808.993	3350.75
809.177	3343.77
809.36	3382.13
809.543	3383.68
809.726	3279.45
809.909	3228.49
810.092	3254.65
810.276	3263.56
810.459	3272.28
810.642	3281
810.825	3184.7
811.008	3255.42
811.191	3097.52
811.374	3163.2
811.557	3181.41
811.74	3223.26
811.923	3171.92
812.106	3129.68
812.289	3086.67
812.472	3092.87
812.654	3113.4
812.837	3044.62
813.02	2959.57
813.203	2973.13
813.386	2857.27
813.569	2844.29
813.751	2767.18
813.934	2845.26
814.117	2791.98
814.3	2714.09
814.482	2665.27
814.665	2608.31
814.848	2619.74
815.03	2499.61
815.213	2520.15
815.396	2482.95
815.578	2470.36
815.761	2412.81
815.943	2496.51
816.126	2396.54
816.309	2369.8
816.491	2278.55
816.674	2231.27
816.856	2286.49
817.039	2264.99
817.221	2338.61
817.403	2290.75
817.586	2279.13
817.768	2300.44
817.951	2208.8
818.133	2235.92
818.315	2254.91
818.498	2249.68
818.68	2361.47
818.862	2309.74
819.045	2344.23
819.227	2303.54
819.409	2295.21
819.591	2341.9
819.774	2256.46
819.956	2261.5
820.138	2342.29
820.32	2327.37
820.502	2398.87
820.684	2469.78
820.866	2484.7
821.048	2521.51
821.231	2516.86
821.413	2531.58
821.595	2503.88
821.777	2531.78
821.959	2512.79
822.141	2591.45
822.323	2416.69
822.505	2336.48
822.686	2341.71
822.868	2222.56
823.05	2121.61
823.232	2063.68
823.414	1962.16
823.596	2074.34
823.778	2042.37
823.96	2070.08
824.141	2073.18
824.323	2115.41
824.505	2184.97
824.687	2259.17
824.868	2277.77
825.05	2413.2
825.232	2450.4
825.413	2523.06
825.595	2441.88
825.777	2387.63
825.958	2432.58
826.14	2421.15
826.321	2461.83
826.503	2451.76
826.685	2469.39
826.866	2486.25
827.048	2445.75
827.229	2438.78
827.411	2361.47
827.592	2339
827.773	2319.24
827.955	2279.13
828.136	2269.25
828.318	2208.99
828.499	2258.98
828.68	2200.66
828.862	2220.42
829.043	2223.14
829.224	2236.89
829.406	2179.35
829.587	2202.99
829.768	2196.4
829.949	2215.97
830.131	2246.19
830.312	2295.02
830.493	2203.18
830.674	2239.99
830.855	2191.75
831.036	2201.63
831.218	2281.26
831.399	2300.64
831.58	2253.17
831.761	2236.5
831.942	2223.33
832.123	2215
832.304	2164.04
832.485	2131.69
832.666	2162.69
832.847	2244.64
833.028	2184.97
833.209	2183.42
833.389	2181.29
833.57	2106.89
833.751	2112.51
833.932	2195.04
834.113	2172.96
834.294	2145.83
834.475	2206.09
834.655	2223.52
834.836	2222.56
835.017	2230.11
835.198	2171.02
835.378	2199.89
835.559	2268.09
835.74	2185.36
835.92	2225.66
836.101	2175.28
836.281	2221.2
836.462	2209.38
836.643	2280.49
836.823	2261.89
837.004	2304.32
837.184	2305.48
837.365	2283.78
837.545	2273.7
837.726	2227.01
837.906	2308.97
838.087	2241.54
838.267	2215.77
838.448	2212.48
838.628	2205.51
838.808	2227.01
838.989	2287.85
839.169	2165.59
839.349	2239.6
839.53	2259.17
839.71	2263.44
839.89	2175.67
840.07	2266.73
840.251	2205.12
840.431	2275.06
840.611	2218.68
840.791	2184.39
840.971	2228.56
841.151	2232.24
841.332	2196.21
841.512	2263.82
841.692	2131.11
841.872	2261.11
842.052	2202.6
842.232	2224.3
842.412	2155.32
842.592	2173.15
842.772	2223.91
842.952	2196.21
843.132	2156.87
843.312	2149.71
843.492	2091.78
843.672	2186.13
843.851	2068.53
844.031	2141.57
844.211	2147.38
844.391	2134.59
844.571	2177.8
844.751	2174.89
844.93	2159.2
845.11	2130.91
845.29	2150.48
845.47	2175.09
845.649	2151.06
845.829	2140.41
846.009	2139.05
846.188	2150.48
846.368	2133.24
846.547	2104.95
846.727	2161.91
846.907	2069.88
847.086	2136.34
847.266	2134.21
847.445	2137.31
847.625	2104.37
847.804	2066.01
847.984	2091.19
848.163	2065.04
848.343	2062.91
848.522	2059.03
848.701	2085.58
848.881	2060.2
849.06	2066.2
849.239	2045.66
849.419	2049.93
849.598	2006.14
849.777	2023.19
849.957	1922.44
850.136	1858.7
850.315	1874.2
850.494	1871.68
850.674	1898.22
850.853	1926.51
851.032	1941.43
851.211	1944.33
851.39	1923.6
851.569	1892.8
851.748	1882.92
851.927	1955.38
852.107	1918.37
852.286	1862.77
852.465	1879.82
852.644	1953.44
852.823	1960.03
853.002	1902.1
853.181	1932.13
853.359	1940.07
853.538	1856.57
853.717	1941.43
853.896	1787.59
854.075	1709.9
854.254	1713
854.433	1610.51
854.611	1650.81
854.79	1579.12
854.969	1655.46
855.148	1681.03
855.327	1656.04
855.505	1706.41
855.684	1707.19
855.863	1750.01
856.041	1709.32
856.22	1751.56
856.399	1719.39
856.577	1843.2
856.756	1812.78
856.934	1957.12
857.113	1926.7
857.291	1850.17
857.47	1808.32
857.648	1834.48
857.827	1858.31
858.005	1889.31
858.184	1802.9
858.362	1907.72
858.541	1816.07
858.719	1818.79
858.898	1798.06
859.076	1797.28
859.254	1853.27
859.433	1789.72
859.611	1779.26
859.789	1751.36
859.967	1839.32
860.146	1855.21
860.324	1770.93
860.502	1777.32
860.68	1728.69
860.859	1745.16
861.037	1736.25
861.215	1777.32
861.393	1747.68
861.571	1735.67
861.749	1731.41
861.927	1742.64
862.105	1741.67
862.283	1700.6
862.461	1722.11
862.639	1674.83
862.817	1706.22
862.995	1760.66
863.173	1706.22
863.351	1723.46
863.529	1717.65
863.707	1754.66
863.885	1730.24
864.063	1641.51
864.241	1667.28
864.418	1722.11
864.596	1699.05
864.774	1653.71
864.952	1661.27
865.129	1677.74
865.307	1614.58
865.485	1599.85
865.663	1664.18
865.84	1582.61
866.018	1600.24
866.196	1447.18
866.373	1471.4
866.551	1414.24
866.728	1360.38
866.906	1428.97
867.084	1487.67
867.261	1476.24
867.439	1498.52
867.616	1558.97
867.794	1509.57
867.971	1563.81
868.149	1509.18
868.326	1569.82
868.503	1557.61
868.681	1543.47
868.858	1550.06
869.035	1496.2
869.213	1554.32
869.39	1523.52
869.567	1604.7
869.745	1531.65
869.922	1572.15
870.099	1565.95
870.276	1560.13
870.454	1558.58
870.631	1527.97
870.808	1535.92
870.985	1546.38
871.162	1612.83
871.339	1557.23
871.517	1458.22
871.694	1481.08
871.871	1513.83
872.048	1480.89
872.225	1523.52
872.402	1529.13
872.579	1478.57
872.756	1517.9
872.933	1436.33
873.11	1495.03
873.287	1495.23
873.463	1490
873.64	1424.32
873.817	1459.58
873.994	1443.89
874.171	1413.08
874.348	1483.8
874.524	1393.51
874.701	1439.43
874.878	1387.12
875.055	1443.5
875.231	1416.76
875.408	1449.5
875.585	1350.89
875.762	1405.91
875.938	1408.82
876.115	1411.92
876.291	1403.78
876.468	1394.67
876.645	1350.31
876.821	1399.9
876.998	1389.44
877.174	1411.14
877.351	1353.79
877.527	1359.61
877.704	1390.8
877.88	1391.96
878.057	1376.85
878.233	1405.33
878.409	1345.85
878.586	1346.24
878.762	1387.12
878.938	1383.82
879.115	1289.86
879.291	1341.97
879.467	1294.31
879.644	1318.72
879.82	1334.22
879.996	1318.53
880.172	1280.17
880.349	1351.86
880.525	1324.92
880.701	1307.87
880.877	1252.66
881.053	1338.1
881.229	1289.27
881.405	1360.19
881.581	1242.58
881.757	1278.62
881.933	1309.62
882.109	1318.92
882.285	1301.67
882.461	1248.59
882.637	1314.46
882.813	1242.78
882.989	1276.68
883.165	1360.77
883.341	1281.52
883.517	1324.73
883.693	1298.19
883.869	1345.66
884.044	1270.48
884.22	1325.12
884.396	1341.01
884.572	1310.01
884.747	1326.47
884.923	1319.5
885.099	1323.37
885.275	1351.08
885.45	1269.71
885.626	1300.71
885.801	1260.02
885.977	1273
886.153	1239.09
886.328	1297.22
886.504	1255.76
886.679	1279.2
886.855	1267.77
887.03	1296.06
887.206	1302.06
887.381	1284.62
887.557	1323.57
887.732	1304.19
887.908	1317.17
888.083	1321.24
888.258	1278.04
888.434	1265.25
888.609	1280.17
888.784	1347.21
888.96	1256.14
889.135	1260.79
889.31	1247.62
889.485	1287.92
889.661	1287.34
889.836	1324.34
890.011	1301.67
890.186	1282.3
890.361	1249.94
890.537	1292.18
890.712	1288.11
890.887	1293.15
891.062	1267.19
891.237	1353.79
891.412	1247.81
891.587	1279.01
891.762	1309.42
891.937	1323.76
892.112	1225.14
892.287	1234.25
892.462	1214.49
892.637	1199.96
892.812	1195.31
892.987	1235.03
893.161	1204.8
893.336	1169.93
893.511	1220.88
893.686	1197.83
893.861	1235.99
894.035	1200.93
894.21	1214.49
894.385	1123.23
894.56	1182.71
894.734	1114.71
894.909	1099.21
895.084	1122.85
895.258	1082.74
895.433	1107.35
895.608	1107.73
895.782	1028.88
895.957	1055.62
896.131	1033.53
896.306	973.47
896.48	983.93
896.655	976.37
896.829	912.63
897.004	940.34
897.178	962.04
897.353	899.26
897.527	958.35
897.701	921.35
897.876	888.8
898.05	1002.53
898.224	969.59
898.399	974.63
898.573	912.44
898.747	803.74
898.921	872.14
899.096	746.59
899.27	767.71
899.444	767.71
899.618	799.87
899.792	846.95
899.967	804.71
900.141	847.14
900.315	785.53
900.489	813.24
900.663	839.01
900.837	817.11
901.011	756.08
901.185	868.26
901.359	794.64
901.533	827.77
901.707	812.27
901.881	832.42
902.055	793.48
902.229	817.11
902.403	848.11
902.576	790.57
902.75	794.64
902.924	920.38
903.098	871.56
903.272	927.55
903.446	955.45
903.619	933.36
903.793	970.95
903.967	933.17
904.14	981.02
904.314	968.43
904.488	978.89
904.661	983.74
904.835	960.87
905.009	977.92
905.182	1045.93
905.356	995.17
905.529	1013.18
905.703	963.59
905.876	940.34
906.05	901.97
906.223	891.12
906.397	834.94
906.57	842.88
906.744	819.83
906.917	808.39
907.09	816.53
907.264	794.64
907.437	772.94
907.61	750.27
907.784	765.96
907.957	782.43
908.13	741.16
908.304	784.37
908.477	717.33
908.65	734.58
908.823	695.44
908.996	760.15
909.17	704.74
909.343	708.81
909.516	727.99
909.689	707.45
909.862	685.17
910.035	736.71
910.208	682.07
910.381	675.29
910.554	771.58
910.727	719.85
910.9	699.51
911.073	701.45
911.246	762.09
911.419	775.46
911.592	743.68
911.765	712.88
911.938	696.6
912.11	724.11
912.283	721.6
912.456	770.03
912.629	709.78
912.802	662.89
912.974	639.45
913.147	625.3
913.32	579.77
913.493	598.37
913.665	637.51
913.838	644.29
914.01	626.08
914.183	661.73
914.356	661.92
914.528	692.73
914.701	738.45
914.873	689.05
915.046	648.75
915.218	593.72
915.391	554.59
915.563	537.15
915.736	578.8
915.908	638.48
916.081	618.72
916.253	631.89
916.425	635.57
916.598	639.25
916.77	602.25
916.942	585.58
917.115	542.38
917.287	618.91
917.459	596.24
917.632	557.88
917.804	478.06
917.976	590.43
918.148	587.33
918.32	595.27
918.493	637.9
918.665	637.51
918.837	632.67
919.009	689.63
919.181	670.83
919.353	661.15
919.525	646.62
919.697	621.04
919.869	640.42
920.041	696.8
920.213	762.48
920.385	678.97
920.557	640.42
920.729	691.76
920.901	667.35
921.073	653.01
921.244	621.43
921.416	666.57
921.588	650.49
921.76	630.92
921.932	721.6
922.103	604.77
922.275	646.62
922.447	650.88
922.619	590.43
922.79	606.32
922.962	620.07
923.134	641.19
923.305	563.5
923.477	576.87
923.648	540.44
923.82	573.77
923.991	512.74
924.163	548.58
924.335	581.9
924.506	509.83
924.677	603.8
924.849	566.02
925.02	554.78
925.192	606.9
925.363	580.35
925.535	564.85
925.706	511.57
925.877	585.2
926.049	544.32
926.22	545.48
926.391	542.57
926.562	596.82
926.734	536.95
926.905	609.22
927.076	488.52
927.247	547.8
927.419	499.95
927.59	462.17
927.761	488.52
927.932	453.06
928.103	474.76
928.274	420.32
928.445	431.56
928.616	444.54
928.787	407.72
928.958	452.67
929.129	441.44
929.3	419.74
929.471	360.06
929.642	319.57
929.813	299.23
929.984	371.88
930.155	285.28
930.326	314.53
930.496	310.08
930.667	227.15
930.838	284.31
931.009	233.74
931.18	255.05
931.35	253.89
931.521	265.51
931.692	172.9
931.863	164.57
932.033	202.35
932.204	215.72
932.374	179.88
932.545	149.46
932.716	195.18
932.886	205.45
933.057	107.03
933.227	137.64
933.398	213.01
933.568	108.97
933.739	77.39
933.909	93.27
934.08	138.61
934.25	70.02
934.421	90.37
934.591	137.64
934.761	90.75
934.932	44.26
935.102	119.62
935.272	99.28
935.443	97.73
935.613	94.05
935.783	105.09
935.953	71.57
936.123	228.51
936.294	85.91
936.464	101.99
936.634	90.75
936.804	65.37
936.974	33.6
937.144	113.81
937.314	96.57
937.484	84.75
937.655	63.63
937.825	142.48
937.995	82.23
938.165	131.64
938.334	77.39
938.504	121.95
938.674	124.08
938.844	155.66
939.014	167.87
939.184	179.88
939.354	200.03
939.524	220.95
939.694	168.06
939.863	155.85
940.033	232
940.203	221.53
940.373	213.01
940.542	221.34
940.712	168.06
940.882	198.28
941.051	213.01
941.221	201.97
941.391	202.16
941.56	144.03
941.73	157.21
941.899	258.35
942.069	175.23
942.238	183.17
942.408	134.35
942.577	181.82
942.747	139.38
942.916	109.35
943.086	137.84
943.255	213.2
943.425	161.86
943.594	126.4
943.763	48.71
943.933	84.55
944.102	61.89
944.271	134.74
944.441	135.7
944.61	104.7
944.779	102.57
944.948	202.16
945.117	102.38
945.287	124.08
945.456	59.95
945.625	120.98
945.794	138.61
945.963	90.37
946.132	134.54
946.301	108.97
946.47	151.59
946.639	54.52
946.808	121.95
946.977	135.51
947.146	154.5
947.315	121.17
947.484	149.46
947.653	132.02
947.822	100.64
947.991	91.53
948.16	175.23
948.329	177.75
948.498	102.38
948.666	128.92
948.835	150.82
949.004	91.34
949.173	96.57
949.341	111.68
949.51	141.71
949.679	156.43
949.847	153.92
950.016	200.61
950.185	203.13
950.353	94.44
950.522	132.41
950.69	173.87
950.859	124.85
951.028	186.85
951.196	139.19
951.365	102.77
951.533	129.89
951.701	145.58
951.87	156.05
952.038	81.07
952.207	115.17
952.375	172.32
952.543	97.54
952.712	113.04
952.88	101.8
953.048	186.85
953.217	143.07
953.385	128.92
953.553	180.65
953.721	101.6
953.89	147.52
954.058	54.52
954.226	122.92
954.394	133.57
954.562	63.05
954.73	113.04
954.898	106.45
955.067	141.52
955.235	107.8
955.403	163.8
955.571	176.97
955.739	132.99
955.907	81.65
956.075	87.27
956.243	97.54
956.41	150.23
956.578	89.2
956.746	61.5
956.914	89.79
957.082	137.25
957.25	137.64
957.418	102.77
957.585	128.73
957.753	179.3
957.921	108.19
958.089	119.43
958.256	109.74
958.424	127.76
958.592	126.4
958.759	90.17
958.927	136.29
959.095	96.18
959.262	118.46
959.43	103.15
959.597	89.2
959.765	108
959.932	64.99
960.1	142.68
960.267	108.19
960.435	102.38
960.602	146.55
960.77	132.99
960.937	90.95
961.104	101.41
961.272	82.23
961.439	137.45
961.606	143.84
961.774	151.98
961.941	101.02
962.108	135.12
962.275	128.73
962.443	158.76
962.61	146.17
962.777	167.48
962.944	144.62
963.111	160.31
963.278	157.4
963.446	162.44
963.613	120.79
963.78	152.37
963.947	156.43
964.114	123.11
964.281	222.5
964.448	129.12
964.615	118.85
964.782	156.43
964.949	158.95
965.116	176.78
965.282	193.63
965.449	130.28
965.616	98.89
965.783	169.61
965.95	139.97
966.117	119.43
966.283	133.19
966.45	128.73
966.617	156.05
966.784	161.86
966.95	158.57
967.117	164.77
967.284	123.69
967.45	127.57
967.617	159.15
967.784	157.4
967.95	214.37
968.117	123.89
968.283	194.6
968.45	240.91
968.616	165.54
968.783	193.63
968.949	184.14
969.116	217.47
969.282	169.03
969.449	157.79
969.615	181.04
969.781	128.34
969.948	131.83
970.114	94.24
970.28	196.73
970.447	167.48
970.613	243.04
970.779	157.98
970.945	170
971.112	179.49
971.278	142.48
971.444	146.94
971.61	189.95
971.776	124.47
971.942	192.28
972.108	178.52
972.275	140.55
972.441	174.65
972.607	211.85
972.773	128.73
972.939	177.36
973.105	159.73
973.271	91.53
973.437	129.12
973.602	127.57
973.768	160.12
973.934	129.7
974.1	162.83
974.266	61.69
974.432	162.05
974.598	120.01
974.763	175.23
974.929	111.68
975.095	176.97
975.261	150.82
975.426	123.89
975.592	106.25
975.758	184.33
975.923	91.72
976.089	140.16
976.255	182.2
976.42	154.88
976.586	161.67
976.751	145.2
976.917	226.76
977.082	157.21
977.248	66.73
977.413	67.12
977.579	143.65
977.744	144.23
977.91	89.98
978.075	106.84
978.24	159.53
978.406	127.57
978.571	126.4
978.736	86.49
978.902	148.49
979.067	90.56
979.232	75.45
979.397	149.85
979.563	184.53
979.728	94.82
979.893	110.71
980.058	93.08
980.223	155.66
980.388	151.01
980.554	132.41
980.719	129.7
980.884	126.21
981.049	196.93
981.214	105.87
981.379	144.23
981.544	92.69
981.709	123.3
981.874	100.25
982.039	89.59
982.204	147.13
982.368	121.17
982.533	79.52
982.698	148.68
982.863	163.02
983.028	113.04
983.193	145.58
983.357	134.15
983.522	109.74
983.687	118.65
983.852	115.94
984.016	115.17
984.181	146.36
984.346	159.73
984.51	148.49
984.675	162.25
984.839	117.69
985.004	136.29
985.168	160.5
985.333	167.87
985.498	130.47
985.662	137.25
985.827	123.5
985.991	128.73
986.155	130.67
986.32	144.62
986.484	175.62
986.649	151.01
986.813	98.5
986.977	145.58
987.142	140.55
987.306	95.99
987.47	110.13
987.634	103.93
987.799	112.65
987.963	136.48
988.127	163.99
988.291	217.08
988.455	136.67
988.62	118.46
988.784	173.48
988.948	142.1
989.112	79.13
989.276	144.62
989.44	127.37
989.604	100.64
989.768	113.62
989.932	181.23
990.096	60.53
990.26	98.7
990.424	68.67
990.588	92.11
990.752	197.7
990.915	151.01
991.079	104.12
991.243	111.87
991.407	159.73
991.571	98.89
991.734	142.29
991.898	142.87
992.062	187.82
992.226	125.82
992.389	85.52
992.553	55.49
992.717	85.52
992.88	97.54
993.044	132.6
993.207	104.12
993.371	103.15
993.535	112.45
993.698	80.87
993.862	163.41
994.025	134.74
994.189	100.25
994.352	122.72
994.515	99.86
994.679	134.93
994.842	58.4
995.006	142.48
995.169	75.06
995.332	80.49
995.496	113.04
995.659	33.99
995.822	97.54
995.985	89.98
996.149	164.57
996.312	82.62
996.475	180.27
996.638	83.78
996.801	149.27
996.964	137.45
997.128	81.07
997.291	79.13
997.454	90.17
997.617	57.24
997.78	116.72
997.943	68.28
998.106	122.92
998.269	43.67
998.432	85.33
998.595	62.85
998.758	49.49
998.92	85.33
999.083	32.24
999.246	81.84
999.409	49.68
999.572	37.47
999.735	54.33
999.897	98.31
1000.06	48.91
1000.223	94.44
1000.386	104.32
1000.548	111.49
1000.711	92.69
1000.874	117.1
1001.036	58.59
1001.199	97.92
1001.361	67.89
1001.524	61.5
1001.687	120.4
1001.849	81.26
1002.012	76.03
1002.174	64.79
1002.337	103.54
1002.499	52.78
1002.661	126.79
1002.824	36.31
1002.986	62.85
1003.149	80.1
1003.311	56.65
1003.473	147.91
1003.636	46
1003.798	104.9
1003.96	104.12
1004.123	66.54
1004.285	79.32
1004.447	65.95
1004.609	63.82
1004.771	144.81
1004.933	31.08
1005.096	34.37
1005.258	24.11
1005.42	42.9
1005.582	100.64
1005.744	70.41
1005.906	25.07
1006.068	95.02
1006.23	33.41
1006.392	11.51
1006.554	7.44
1006.716	114.97
1006.878	91.72
1007.04	27.79
1007.202	58.2
1007.363	82.81
1007.525	76.03
1007.687	77.19
1007.849	86.1
1008.011	22.36
1008.172	43.09
1008.334	32.24
1008.496	84.17
1008.658	0.86
1008.819	48.32
1008.981	15.39
1009.143	51.62
1009.304	52.97
1009.466	83
1009.627	111.1
1009.789	155.66
1009.95	86.49
1010.112	50.46
1010.273	87.46
1010.435	27.98
1010.596	26.62
1010.758	15.77
1010.919	41.93
1011.081	16.94
1011.242	38.06
1011.403	72.74
1011.565	56.07
1011.726	67.89
1011.887	15.58
1012.049	47.16
1012.21	81.84
1012.371	121.17
1012.532	-15.23
1012.693	49.68
1012.855	46.97
1013.016	36.31
1013.177	98.31
1013.338	55.1
1013.499	98.5
1013.66	83.59
1013.821	93.08
1013.982	43.87
1014.143	67.7
1014.304	25.66
1014.465	53.94
1014.626	70.99
1014.787	53.36
1014.948	140.93
1015.109	-19.29
1015.27	106.25
1015.431	30.5
1015.592	-0.69
1015.752	98.12
1015.913	73.12
1016.074	45.03
1016.235	62.47
1016.395	30.89
1016.556	26.43
1016.717	27.4
1016.877	107.03
1017.038	11.51
1017.199	48.13
1017.359	37.28
1017.52	53.55
1017.681	30.31
1017.841	24.88
1018.002	34.18
1018.162	21.97
1018.323	81.26
1018.483	21.97
1018.644	24.49
1018.804	-3.99
1018.964	0.47
1019.125	21.01
1019.285	31.47
1019.446	10.16
1019.606	8.99
1019.766	-16.19
1019.926	61.69
1020.087	36.89
1020.247	13.06
1020.407	48.32
1020.567	66.54
1020.728	20.42
1020.888	-4.18
1021.048	4.92
1021.208	-22.78
1021.368	22.17
1021.528	72.93
1021.688	72.74
1021.848	70.02
1022.008	73.12
1022.168	39.41
1022.328	39.22
1022.488	36.31
1022.648	39.99
1022.808	24.3
1022.968	62.47
1023.128	-5.34
1023.288	39.22
1023.448	28.37
1023.608	62.47
1023.767	40.57
1023.927	31.66
1024.087	-5.15
1024.247	-8.44
1024.406	48.32
1024.566	-20.46
1024.726	8.02
1024.885	20.23
1025.045	40.19
1025.205	5.7
1025.364	22.36
1025.524	61.5
1025.683	27.59
1025.843	29.34
1026.003	31.08
1026.162	75.45
1026.321	78.16
1026.481	26.24
1026.64	34.18
1026.8	38.25
1026.959	9.38
1027.119	35.73
1027.278	15.39
1027.437	-1.28
1027.597	10.35
1027.756	38.25
1027.915	58.59
1028.074	24.69
1028.234	7.25
1028.393	22.36
1028.552	8.8
1028.711	-70.44
1028.87	46
1029.03	5.12
1029.189	5.31
1029.348	-51.07
1029.507	2.99
1029.666	11.9
1029.825	10.16
1029.984	-18.33
1030.143	33.99
1030.302	10.54
1030.461	-47
1030.62	24.49
1030.779	55.49
1030.938	23.91
1031.097	-36.15
1031.255	42.32
1031.414	80.49
1031.573	69.44
1031.732	-47.19
1031.891	14.61
1032.049	77.97
1032.208	37.47
1032.367	10.93
1032.525	-27.63
1032.684	20.81
1032.843	15.39
1033.001	-61.34
1033.16	128.73
1033.319	69.83
1033.477	45.03
1033.636	-21.62
1033.794	-7.28
1033.953	38.06
1034.111	59.95
1034.27	8.22
1034.428	30.31
1034.587	12.67
1034.745	30.31
1034.903	21.01
1035.062	28.56
1035.22	-24.33
1035.378	41.54
1035.537	0.08
1035.695	43.29
1035.853	32.05
1036.011	44.45
1036.17	24.49
1036.328	-59.01
1036.486	35.73
1036.644	36.7
1036.802	-53.97
1036.96	-2.05
1037.119	7.83
1037.277	-16.97
1037.435	-24.33
1037.593	14.61
1037.751	-25.11
1037.909	54.33
1038.067	54.33
