Data from gum_old_FLMT105791__89__15-44-17-256.txt Node

Date: Mon Mar 20 15:44:17 GMT 2023
User: antho
Spectrometer: FLMT10579
Trigger mode: 0
Integration Time (sec): 1.000000E-1
Scans to average: 10
Electric dark correction enabled: true
Nonlinearity correction enabled: false
Boxcar width: 0
XAxis mode: Wavelengths
Number of Pixels in Spectrum: 3648
>>>>>Begin Spectral Data<<<<<
345.248	-196.64
345.464	-196.64
345.681	-196.64
345.898	-185.98
346.114	-161.96
346.331	-58.3
346.548	29.47
346.764	-4.83
346.981	-1.15
347.197	-7.93
347.414	3.89
347.631	-15.29
347.847	52.72
348.064	0.4
348.28	22.3
348.497	-28.08
348.713	6.8
348.93	54.07
349.146	25.59
349.363	4.08
349.579	18.42
349.796	-7.35
350.012	-1.53
350.229	46.71
350.445	-8.12
350.661	-8.51
350.878	3.12
351.094	33.53
351.311	30.05
351.527	38.77
351.743	20.55
351.96	41.09
352.176	74.03
352.392	42.25
352.609	38.38
352.825	10.67
353.041	15.71
353.257	36.44
353.474	27.92
353.69	31.21
353.906	24.82
354.122	-7.54
354.339	60.27
354.555	7.96
354.771	27.14
354.987	62.98
355.203	85.07
355.42	23.07
355.636	-20.91
355.852	-6.57
356.068	12.8
356.284	-11.8
356.5	77.13
356.716	37.22
356.932	6.02
357.148	54.46
357.364	13
357.58	71.7
357.796	73.25
358.012	74.22
358.228	17.45
358.444	-59.08
358.66	81.97
358.876	44.58
359.092	1.37
359.308	2.34
359.524	70.93
359.74	21.52
359.956	-8.7
360.172	18.23
360.388	81.39
360.604	15.52
360.819	113.55
361.035	49.23
361.251	51.36
361.467	0.6
361.683	67.63
361.898	36.44
362.114	75.19
362.33	65.5
362.546	82.16
362.762	24.23
362.977	33.15
363.193	14.74
363.409	99.41
363.624	21.52
363.84	7.57
364.056	10.48
364.271	66.86
364.487	26.17
364.703	29.47
364.918	-5.6
365.134	41.48
365.35	20.55
365.565	145.52
365.781	103.28
365.996	54.27
366.212	106.58
366.427	62.02
366.643	43.8
366.858	63.57
367.074	18.62
367.289	93.98
367.505	157.73
367.72	6.6
367.936	52.13
368.151	105.61
368.367	76.93
368.582	51.94
368.798	25.59
369.013	87.4
369.228	68.41
369.444	78.87
369.659	129.63
369.874	60.85
370.09	104.83
370.305	15.71
370.52	35.67
370.736	108.71
370.951	56.59
371.166	105.41
371.381	121.88
371.597	73.45
371.812	21.52
372.027	55.82
372.242	28.11
372.458	146.68
372.673	68.8
372.888	82.55
373.103	85.65
373.318	143.39
373.533	81.39
373.749	83.52
373.964	25.98
374.179	89.91
374.394	14.55
374.609	125.18
374.824	10.67
375.039	108.32
375.254	26.56
375.469	121.88
375.684	76.74
375.899	96.7
376.114	62.21
376.329	76.35
376.544	87.2
376.759	106.19
376.974	49.81
377.189	66.08
377.404	55.04
377.619	106.58
377.834	34.89
378.049	39.93
378.264	62.21
378.478	93.4
378.693	68.8
378.908	138.55
379.123	81.2
379.338	128.47
379.553	104.64
379.767	92.82
379.982	114.71
380.197	109.87
380.412	71.32
380.626	67.63
380.841	161.02
381.056	97.47
381.271	160.83
381.485	74.42
381.7	57.37
381.915	110.45
382.129	61.05
382.344	81
382.559	67.44
382.773	141.26
382.988	9.32
383.202	96.7
383.417	27.92
383.632	136.61
383.846	75.19
384.061	70.35
384.275	68.6
384.49	80.42
384.704	92.24
384.919	97.66
385.133	108.13
385.348	107.74
385.562	73.06
385.777	151.91
385.991	84.49
386.206	74.8
386.42	65.5
386.634	150.17
386.849	138.35
387.063	103.28
387.277	62.6
387.492	79.26
387.706	66.47
387.92	85.26
388.135	107.35
388.349	119.36
388.563	115.1
388.778	106.96
388.992	137.58
389.206	130.99
389.42	180.98
389.635	118.01
389.849	135.25
390.063	126.15
390.277	141.84
390.491	186.98
390.706	138.55
390.92	159.66
391.134	151.33
391.348	149.98
391.562	79.65
391.776	134.09
391.99	130.41
392.205	146.88
392.419	101.73
392.633	129.83
392.847	184.46
393.061	111.61
393.275	177.29
393.489	117.62
393.703	114.13
393.917	108.32
394.131	57.17
394.345	113.16
394.559	154.43
394.773	110.84
394.986	157.73
395.2	119.36
395.414	172.26
395.628	131.96
395.842	172.64
396.056	156.56
396.27	130.21
396.484	151.91
396.697	159.28
396.911	165.09
397.125	143.78
397.339	143.39
397.553	95.53
397.766	205.39
397.98	179.81
398.194	192.21
398.408	144.55
398.621	205.58
398.835	212.56
399.049	197.25
399.262	264.09
399.476	249.18
399.69	233.09
399.903	318.92
400.117	214.69
400.331	261.96
400.544	225.15
400.758	362.32
400.971	242.98
401.185	265.84
401.398	219.92
401.612	319.89
401.826	298.97
402.039	290.06
402.253	259.25
402.466	271.46
402.68	252.08
402.893	269.71
403.106	285.41
403.32	276.3
403.533	289.47
403.747	273.01
403.96	255.96
404.174	287.92
404.387	232.9
404.6	259.25
404.814	316.41
405.027	232.9
405.24	291.61
405.454	264.09
405.667	298.58
405.88	233.48
406.094	297.22
406.307	322.02
406.52	307.3
406.733	225.73
406.947	220.89
407.16	324.16
407.373	317.57
407.586	267.97
407.799	247.82
408.012	306.14
408.226	285.79
408.439	371.82
408.652	257.31
408.865	297.81
409.078	344.11
409.291	340.62
409.504	244.91
409.717	330.74
409.93	331.71
410.143	319.51
410.357	261.57
410.57	237.36
410.783	274.75
410.996	284.82
411.209	283.27
411.421	353.02
411.634	314.08
411.847	303.81
412.06	342.37
412.273	328.61
412.486	341.59
412.699	434.78
412.912	374.92
413.125	395.07
413.338	343.53
413.55	383.05
413.763	324.74
413.976	376.85
414.189	313.11
414.402	321.25
414.615	403.98
414.827	303.81
415.04	371.24
415.253	380.92
415.466	395.65
415.678	438.08
415.891	374.34
416.104	393.52
416.316	350.31
416.529	328.03
416.742	395.26
416.954	421.22
417.167	373.95
417.38	361.55
417.592	395.26
417.805	344.3
418.017	299.16
418.23	381.89
418.442	349.15
418.655	353.22
418.868	380.92
419.08	428.39
419.293	412.12
419.505	396.62
419.718	394.29
419.93	446.02
420.142	382.28
420.355	405.34
420.567	433.82
420.78	414.64
420.992	326.67
421.205	435.17
421.417	348.37
421.629	376.85
421.842	363.49
422.054	356.32
422.266	411.34
422.479	458.42
422.691	350.12
422.903	413.47
423.115	346.05
423.328	382.47
423.54	390.61
423.752	388.29
423.964	377.24
424.177	454.55
424.389	364.84
424.601	477.02
424.813	411.73
425.025	433.23
425.238	414.64
425.45	413.09
425.662	395.45
425.874	731.99
426.086	409.02
426.298	416.96
426.51	411.34
426.722	413.47
426.934	378.02
427.146	452.03
427.358	390.8
427.57	484.77
427.782	375.3
427.994	376.27
428.206	369.88
428.418	396.62
428.63	439.82
428.842	461.72
429.054	403.01
429.266	438.66
429.478	376.66
429.69	395.26
429.902	376.47
430.114	429.36
430.325	375.5
430.537	352.44
430.749	339.07
430.961	267.77
431.173	326.67
431.384	378.21
431.596	295.29
431.808	350.12
432.02	441.76
432.231	477.8
432.443	517.51
432.655	462.68
432.867	461.13
433.078	515.97
433.29	533.79
433.502	488.07
433.713	524.3
433.925	491.94
434.136	523.91
434.348	426.84
434.56	413.09
434.771	578.74
434.983	406.3
435.194	450.48
435.406	499.69
435.617	526.04
435.829	566.53
436.04	557.81
436.252	517.51
436.463	570.8
436.675	573.7
436.886	529.91
437.098	556.65
437.309	602.76
437.521	561.3
437.732	545.41
437.943	530.5
438.155	541.73
438.366	473.53
438.578	613.23
438.789	501.82
439	527.01
439.211	492.52
439.423	507.63
439.634	531.46
439.845	584.36
440.057	548.9
440.268	592.69
440.479	558.01
440.69	580.68
440.902	566.73
441.113	553.16
441.324	558.2
441.535	576.41
441.746	595.98
441.957	591.53
442.168	602.38
442.38	610.13
442.591	628.92
442.802	564.6
443.013	604.51
443.224	607.99
443.435	599.28
443.646	637.64
443.857	585.91
444.068	580.68
444.279	587.07
444.49	686.85
444.701	633.96
444.912	752.34
445.123	669.03
445.334	672.13
445.545	674.06
445.756	635.12
445.967	578.35
446.178	643.06
446.388	655.66
446.599	653.91
446.81	657.79
447.021	598.31
447.232	678.13
447.443	688.98
447.653	636.67
447.864	694.6
448.075	702.16
448.286	682.01
448.496	687.24
448.707	731.8
448.918	644.42
449.129	764.54
449.339	619.23
449.55	669.61
449.761	698.86
449.971	709.52
450.182	679.1
450.393	726.18
450.603	675.61
450.814	740.32
451.024	739.16
451.235	763.19
451.446	776.75
451.656	777.52
451.867	707.58
452.077	714.94
452.288	772.87
452.498	749.04
452.709	704.67
452.919	722.11
453.13	671.74
453.34	726.96
453.55	642.68
453.761	691.31
453.971	694.02
454.182	700.8
454.392	730.44
454.602	784.5
454.813	727.73
455.023	768.42
455.233	687.04
455.444	730.64
455.654	644.81
455.864	730.64
456.075	720.17
456.285	705.45
456.495	718.04
456.705	739.36
456.916	803.87
457.126	844.56
457.336	738.97
457.546	699.64
457.756	744.78
457.967	804.84
458.177	727.15
458.387	761.06
458.597	710.1
458.807	737.61
459.017	732.96
459.227	781.2
459.437	766.87
459.647	774.81
459.857	800.19
460.068	731.61
460.278	798.45
460.488	780.43
460.698	836.04
460.908	750.98
461.117	726.96
461.327	720.37
461.537	775.59
461.747	777.72
461.957	738
462.167	923.61
462.377	828.48
462.587	803.49
462.797	851.15
463.007	801.55
463.216	853.28
463.426	844.56
463.636	862.97
463.846	752.53
464.056	804.07
464.265	831.77
464.475	760.86
464.685	805.04
464.895	836.42
465.104	794.57
465.314	843.2
465.524	783.53
465.733	767.84
465.943	864.9
466.153	893.58
466.362	872.46
466.572	827.32
466.782	835.65
466.991	825.19
467.201	912.76
467.41	752.34
467.62	856.38
467.829	834.68
468.039	842.62
468.249	848.24
468.458	854.64
468.668	893.97
468.877	905.98
469.086	931.17
469.296	928.45
469.505	884.47
469.715	956.55
469.924	890.87
470.134	928.84
470.343	956.16
470.552	870.52
470.762	885.25
470.971	850.37
471.18	901.13
471.39	898.62
471.599	867.03
471.808	954.03
472.018	913.53
472.227	964.1
472.436	984.25
472.645	961.97
472.855	929.81
473.064	1057.49
473.273	998.59
473.482	982.9
473.691	1031.14
473.901	1021.26
474.11	947.83
474.319	1084.23
474.528	984.83
474.737	1100.11
474.946	1029.78
475.155	1057.49
475.364	1105.54
475.573	1065.43
475.783	1090.23
475.992	1068.34
476.201	1106.89
476.41	1084.61
476.619	1025.33
476.828	1025.33
477.037	1063.88
477.245	1058.46
477.454	1139.25
477.663	1069.69
477.872	1127.24
478.081	1196.41
478.29	1119.29
478.499	1226.44
478.708	1179.16
478.917	1260.73
479.125	1188.27
479.334	1184.78
479.543	1188.07
479.752	1176.45
479.961	1190.59
480.169	1244.84
480.378	1218.69
480.587	1357.6
480.796	1249.88
481.004	1226.44
481.213	1225.47
481.422	1252.01
481.63	1281.85
481.839	1295.8
482.048	1332.8
482.256	1296.77
482.465	1327.96
482.674	1343.85
482.882	1296.77
483.091	1426.58
483.299	1325.63
483.508	1364.19
483.716	1351.98
483.925	1355.08
484.134	1295.02
484.342	1334.16
484.551	1369.23
484.759	1370.58
484.967	1388.22
485.176	1405.65
485.384	1401.39
485.593	1386.67
485.801	1399.06
486.01	1329.12
486.218	1259.57
486.426	1188.07
486.635	1199.7
486.843	1167.92
487.051	1219.27
487.26	1229.15
487.468	1303.74
487.676	1341.91
487.885	1309.17
488.093	1370.39
488.301	1386.08
488.509	1406.43
488.717	1428.32
488.926	1442.46
489.134	1371.75
489.342	1418.05
489.55	1394.61
489.758	1415.34
489.967	1399.65
490.175	1557.55
490.383	1452.15
490.591	1585.64
490.799	1476.56
491.007	1571.69
491.215	1545.54
491.423	1527.13
491.631	1525.97
491.839	1506.4
492.047	1510.86
492.255	1418.25
492.463	1407.78
492.671	1413.4
492.879	1525.78
493.087	1487.41
493.295	1523.26
493.503	1524.42
493.711	1587.19
493.919	1625.56
494.127	1607.73
494.334	1624.39
494.542	1494.19
494.75	1556.19
494.958	1531.98
495.166	1649
495.374	1626.52
495.581	1651.52
495.789	1627.49
495.997	1695.69
496.205	1586.61
496.412	1605.6
496.62	1618.77
496.828	1627.3
497.035	1652.29
497.243	1648.81
497.451	1659.27
497.658	1672.05
497.866	1610.83
498.074	1735.22
498.281	1615.48
498.489	1708.67
498.696	1673.41
498.904	1619.16
499.112	1587
499.319	1714.1
499.527	1620.91
499.734	1674.38
499.942	1643.77
500.149	1663.53
500.357	1694.14
500.564	1676.32
500.771	1633.31
500.979	1614.32
501.186	1568.59
501.394	1678.45
501.601	1608.51
501.808	1628.66
502.016	1641.06
502.223	1596.3
502.43	1647.84
502.638	1598.24
502.845	1600.17
503.052	1725.92
503.26	1622.07
503.467	1742.19
503.674	1676.9
503.881	1701.7
504.089	1779.39
504.296	1708.09
504.503	1631.76
504.71	1693.95
504.917	1627.3
505.125	1687.75
505.332	1698.6
505.539	1705.96
505.746	1800.9
505.953	1762.73
506.16	1774.93
506.367	1797.02
506.574	1823.18
506.781	1822.4
506.988	1754.98
507.195	1783.27
507.402	1793.92
507.609	1782.49
507.816	1742.58
508.023	1712.35
508.23	1710.8
508.437	1656.55
508.644	1736.19
508.851	1778.62
509.058	1783.65
509.265	1758.47
509.472	1801.87
509.679	1839.45
509.885	1810.58
510.092	1812.52
510.299	1801.28
510.506	1776.29
510.713	1788.5
510.92	1804
511.126	1841.97
511.333	1859.6
511.54	1834.41
511.746	1890.41
511.953	1873.94
512.16	1880.72
512.367	1866.38
512.573	1862.31
512.78	1861.35
512.987	1820.27
513.193	1810.78
513.4	1766.02
513.606	1805.93
513.813	1827.05
514.02	1853.21
514.226	1907.85
514.433	1852.24
514.639	1813.49
514.846	1845.65
515.052	1791.79
515.259	1839.26
515.465	1814.07
515.672	1816.2
515.878	1949.11
516.085	1868.51
516.291	1895.83
516.497	1876.85
516.704	1827.05
516.91	1772.22
517.117	1712.16
517.323	1649
517.529	1667.99
517.736	1656.36
517.942	1671.09
518.148	1701.31
518.354	1773
518.561	1735.41
518.767	1759.05
518.973	1763.31
519.179	1796.44
519.386	1740.25
519.592	1787.72
519.798	1789.47
520.004	1905.71
520.21	1855.92
520.417	1925.86
520.623	1952.21
520.829	1995.61
521.035	1969.65
521.241	1964.03
521.447	1961.32
521.653	2084.93
521.859	1968.49
522.065	2010.53
522.271	2100.82
522.477	2048.89
522.683	2097.72
522.889	2052.38
523.095	2016.73
523.301	2008.59
523.507	1976.43
523.713	2000.26
523.919	1968.1
524.125	2110.5
524.331	2068.27
524.537	2130.65
524.742	2144.22
524.948	2129.88
525.154	2144.99
525.36	2292.43
525.566	2147.32
525.772	2236.25
525.977	2102.56
526.183	2107.99
526.389	2219.58
526.595	2118.25
526.8	2127.94
527.006	2028.94
527.212	1973.72
527.417	1932.64
527.623	1934.19
527.829	2023.32
528.034	2089.97
528.24	2096.75
528.446	2066.14
528.651	2213.97
528.857	2171.92
529.062	2252.91
529.268	2250.39
529.473	2273.64
529.679	2270.54
529.884	2323.05
530.09	2315.1
530.295	2292.43
530.501	2298.05
530.706	2240.12
530.912	2234.89
531.117	2285.07
531.323	2271.12
531.528	2346.49
531.733	2343
531.939	2311.23
532.144	2340.48
532.35	2332.54
532.555	2388.73
532.76	2313.36
532.966	2304.45
533.171	2289.53
533.376	2211.64
533.581	2195.75
533.787	2256.2
533.992	2291.27
534.197	2329.63
534.402	2321.5
534.607	2339.9
534.813	2414.11
535.018	2319.17
535.223	2329.25
535.428	2364.12
535.633	2392.79
535.838	2398.8
536.043	2413.14
536.249	2496.26
536.454	2372.26
536.659	2419.53
536.864	2401.9
537.069	2390.66
537.274	2376.71
537.479	2393.96
537.684	2382.53
537.889	2318.78
538.094	2485.02
538.299	2379.04
538.504	2402.87
538.708	2430.77
538.913	2481.92
539.118	2405.97
539.323	2467
539.528	2351.91
539.733	2357.53
539.938	2438.33
540.142	2389.89
540.347	2377.68
540.552	2348.62
540.757	2304.64
540.962	2341.26
541.166	2311.81
541.371	2280.81
541.576	2309.48
541.781	2226.56
541.985	2392.02
542.19	2353.46
542.395	2447.04
542.599	2480.95
542.804	2441.04
543.008	2469.32
543.213	2397.25
543.418	2344.36
543.622	2444.91
543.827	2354.82
544.031	2446.66
544.236	2507.3
544.44	2474.75
544.645	2541.01
544.849	2421.66
545.054	2505.56
545.258	2555.35
545.463	2566.59
545.667	2465.45
545.872	2490.44
546.076	2472.04
546.281	2494.12
546.485	2442.2
546.689	2467.19
546.894	2504.59
547.098	2497.42
547.302	2423.6
547.507	2474.94
547.711	2496.84
547.915	2562.52
548.119	2433.29
548.324	2463.71
548.528	2547.99
548.732	2463.51
548.936	2516.02
549.141	2500.52
549.345	2490.64
549.549	2495.09
549.753	2493.35
549.957	2577.44
550.161	2594.29
550.366	2551.67
550.57	2487.15
550.774	2508.07
550.978	2475.72
551.182	2524.93
551.386	2452.27
551.59	2515.63
551.794	2481.14
551.998	2518.34
552.202	2480.37
552.406	2497.03
552.61	2580.73
552.814	2557.48
553.018	2595.45
553.222	2467
553.426	2512.72
553.63	2578.02
553.833	2523.57
554.037	2412.75
554.241	2512.14
554.445	2482.11
554.649	2485.99
554.853	2504.78
555.056	2550.7
555.26	2542.75
555.464	2511.56
555.668	2484.63
555.871	2525.51
556.075	2556.9
556.279	2498.39
556.483	2470.68
556.686	2482.5
556.89	2472.81
557.094	2479.4
557.297	2370.51
557.501	2521.64
557.704	2375.36
557.908	2460.61
558.112	2429.03
558.315	2514.27
558.519	2439.1
558.722	2438.71
558.926	2377.88
559.129	2339.51
559.333	2346.49
559.536	2347.65
559.74	2311.03
559.943	2284.3
560.147	2320.72
560.35	2286.23
560.553	2362.76
560.757	2306
560.96	2425.73
561.164	2375.94
561.367	2461.19
561.57	2378.46
561.774	2389.11
561.977	2371.68
562.18	2327.31
562.384	2456.34
562.587	2340.68
562.79	2338.55
562.993	2339.32
563.197	2363.93
563.4	2417.01
563.603	2394.15
563.806	2430.19
564.009	2316.65
564.212	2355.21
564.416	2284.68
564.619	2342.81
564.822	2286.81
565.025	2298.63
565.228	2313.94
565.431	2357.34
565.634	2255.43
565.837	2242.83
566.04	2245.74
566.243	2241.87
566.446	2162.43
566.649	2265.5
566.852	2173.47
567.055	2203.89
567.258	2244.97
567.461	2316.65
567.664	2336.41
567.867	2212.61
568.07	2252.91
568.273	2284.1
568.475	2303.48
568.678	2214.93
568.881	2190.91
569.084	2248.65
569.287	2112.64
569.489	2155.45
569.692	2207.18
569.895	2242.64
570.098	2134.72
570.3	2116.12
570.503	2085.71
570.706	2153.9
570.909	2104.89
571.111	2058.19
571.314	2046.76
571.516	2109.73
571.719	2096.94
571.922	2070.4
572.124	2081.83
572.327	2082.8
572.529	2043.27
572.732	2053.93
572.935	2092.49
573.137	2205.05
573.34	2071.17
573.542	2187.42
573.745	2134.14
573.947	2178.9
574.15	2110.5
574.352	2084.74
574.554	2147.9
574.757	2061.29
574.959	2049.67
575.162	2066.52
575.364	2038.82
575.566	2167.08
575.769	2055.29
575.971	2050.25
576.173	1905.91
576.376	2022.54
576.578	2061.29
576.78	2080.47
576.982	1974.88
577.185	2030.68
577.387	1965.58
577.589	1969.26
577.791	1993.68
577.993	2009.37
578.196	1972.56
578.398	1993.09
578.6	2002.97
578.802	1900.68
579.004	1879.56
579.206	1954.73
579.408	1991.74
579.61	1925.67
579.812	1934.58
580.014	1897.38
580.216	1871.81
580.418	1934
580.62	1906.3
580.822	1888.66
581.024	1942.14
581.226	1985.15
581.428	1922.57
581.63	2013.63
581.832	1900.29
582.034	1975.46
582.236	1928.58
582.438	1967.52
582.64	1986.7
582.841	1976.24
583.043	2056.06
583.245	2009.95
583.447	2011.69
583.649	1968.49
583.85	1973.33
584.052	1991.93
584.254	1918.31
584.456	2024.29
584.657	1889.63
584.859	1944.08
585.061	1899.32
585.262	1921.21
585.464	1892.35
585.666	1947.95
585.867	1883.24
586.069	1947.95
586.27	1907.85
586.472	1894.86
586.674	1882.46
586.875	1887.5
587.077	1873.75
587.278	1898.16
587.48	1861.93
587.681	1995.42
587.883	1891.38
588.084	1795.86
588.285	1865.03
588.487	1822.21
588.688	1876.26
588.89	1801.87
589.091	1731.92
589.292	1739.48
589.494	1708.48
589.695	1696.08
589.896	1619.36
590.098	1616.26
590.299	1662.95
590.5	1651.91
590.702	1702.67
590.903	1722.24
591.104	1804.38
591.305	1725.53
591.507	1807.29
591.708	1803.03
591.909	1757.11
592.11	1830.35
592.311	1817.37
592.512	1791.02
592.714	1765.44
592.915	1730.57
593.116	1744.9
593.317	1785.78
593.518	1764.47
593.719	1760.21
593.92	1809.42
594.121	1857.66
594.322	1791.6
594.523	1796.25
594.724	1707.7
594.925	1763.7
595.126	1759.05
595.327	1764.08
595.528	1762.73
595.729	1787.72
595.929	1755.75
596.13	1782.1
596.331	1756.14
596.532	1773.97
596.733	1830.35
596.934	1794.5
597.135	1796.83
597.335	1799.35
597.536	1712.55
597.737	1767.38
597.938	1758.08
598.138	1781.72
598.339	1729.6
598.54	1782.88
598.74	1765.63
598.941	1756.33
599.142	1806.71
599.342	1767.18
599.543	1713.32
599.744	1759.24
599.944	1749.17
600.145	1722.24
600.345	1773.97
600.546	1841.58
600.746	1782.49
600.947	1818.33
601.147	1750.33
601.348	1785.78
601.548	1688.14
601.749	1768.73
601.949	1679.03
602.15	1731.15
602.35	1711.19
602.551	1761.57
602.751	1689.49
602.951	1702.47
603.152	1634.86
603.352	1760.21
603.552	1729.02
603.753	1756.33
603.953	1760.21
604.153	1729.79
604.354	1720.1
604.554	1726.11
604.754	1742.38
604.954	1687.55
605.155	1742.58
605.355	1704.22
605.555	1736.77
605.755	1787.53
605.955	1719.14
606.155	1753.82
606.356	1720.88
606.556	1723.4
606.756	1733.28
606.956	1700.54
607.156	1755.75
607.356	1671.28
607.556	1721.46
607.756	1712.35
607.956	1716.62
608.156	1701.5
608.356	1662.17
608.556	1712.94
608.756	1659.27
608.956	1659.07
609.156	1683.68
609.356	1607.54
609.556	1620.13
609.755	1678.25
609.955	1572.66
610.155	1682.71
610.355	1646.09
610.555	1602.11
610.755	1637.76
610.954	1559.1
611.154	1640.86
611.354	1677.09
611.554	1579.44
611.753	1612.96
611.953	1555.23
612.153	1623.04
612.352	1651.71
612.552	1585.64
612.752	1548.44
612.951	1581.77
613.151	1615.29
613.351	1532.75
613.55	1574.02
613.75	1624.01
613.949	1546.12
614.149	1608.7
614.348	1561.04
614.548	1525.58
614.747	1466.88
614.947	1526.94
615.146	1474.24
615.346	1579.44
615.545	1585.06
615.745	1569.37
615.944	1572.86
616.144	1581.57
616.343	1544.18
616.542	1530.62
616.742	1518.41
616.941	1495.74
617.14	1446.92
617.34	1500.78
617.539	1548.06
617.738	1454.28
617.938	1554.06
618.137	1481.41
618.336	1472.5
618.535	1555.03
618.734	1546.89
618.934	1549.03
619.133	1533.14
619.332	1556.39
619.531	1465.52
619.73	1512.79
619.929	1562.98
620.128	1546.51
620.328	1586.22
620.527	1496.71
620.726	1537.01
620.925	1513.38
621.124	1482.76
621.323	1535.08
621.522	1436.26
621.721	1474.05
621.92	1441.69
622.119	1522.29
622.318	1453.9
622.517	1441.3
622.715	1476.56
622.914	1410.88
623.113	1446.34
623.312	1411.27
623.511	1457.77
623.71	1430.26
623.909	1428.32
624.107	1505.82
624.306	1393.64
624.505	1419.99
624.704	1418.25
624.902	1420.76
625.101	1463.97
625.3	1422.7
625.499	1406.81
625.697	1393.25
625.896	1368.45
626.095	1392.28
626.293	1345.2
626.492	1380.85
626.69	1399.06
626.889	1372.33
627.088	1448.28
627.286	1382.79
627.485	1353.73
627.683	1364.38
627.882	1395.96
628.08	1327.57
628.279	1337.45
628.477	1429.29
628.676	1306.65
628.874	1370.58
629.073	1347.14
629.271	1330.87
629.469	1420.57
629.668	1394.22
629.866	1361.48
630.065	1358.18
630.263	1361.09
630.461	1337.26
630.66	1357.22
630.858	1351.4
631.056	1408.56
631.254	1376.98
631.453	1325.44
631.651	1386.28
631.849	1340.94
632.047	1320.21
632.245	1320.02
632.444	1332.61
632.642	1347.72
632.84	1362.64
633.038	1333.19
633.236	1300.06
633.434	1317.69
633.632	1331.06
633.83	1310.33
634.028	1337.26
634.227	1361.87
634.425	1418.83
634.623	1340.36
634.821	1387.63
635.019	1323.31
635.216	1301.8
635.414	1362.64
635.612	1343.27
635.81	1326.22
636.008	1412.82
636.206	1336.29
636.404	1368.65
636.602	1291.34
636.8	1314.4
636.997	1360.32
637.195	1375.43
637.393	1335.32
637.591	1405.65
637.789	1333.58
637.986	1331.06
638.184	1312.07
638.382	1364
638.58	1358.96
638.777	1401.39
638.975	1330.09
639.173	1310.52
639.37	1320.6
639.568	1339.2
639.765	1323.7
639.963	1309.75
640.161	1370
640.358	1332.61
640.556	1257.63
640.753	1233.02
640.951	1266.35
641.148	1307.42
641.346	1252.01
641.543	1242.52
641.741	1306.07
641.938	1247.17
642.136	1254.92
642.333	1203.38
642.531	1296.96
642.728	1322.15
642.925	1264.6
643.123	1251.24
643.32	1287.27
643.517	1262.28
643.715	1274.87
643.912	1202.8
644.109	1288.24
644.306	1258.02
644.504	1242.71
644.701	1270.8
644.898	1271.77
645.095	1243.49
645.293	1275.45
645.49	1278.75
645.687	1270.8
645.884	1293.86
646.081	1179.16
646.278	1204.35
646.475	1207.26
646.672	1190.21
646.87	1268.67
647.067	1210.16
647.264	1259.95
647.461	1194.08
647.658	1171.22
647.855	1218.88
648.052	1192.53
648.249	1116.19
648.446	1151.84
648.642	1153.97
648.839	1154.17
649.036	1165.41
649.233	1142.74
649.43	1121.62
649.627	1093.72
649.824	1135.18
650.021	1129.95
650.217	1113.29
650.414	1117.74
650.611	1175.67
650.808	1183.04
651.004	1135.37
651.201	1179.74
651.398	1216.36
651.595	1159.21
651.791	1118.71
651.988	1205.9
652.185	1102.24
652.381	1159.21
652.578	1127.04
652.775	1154.56
652.971	1177.61
653.168	1089.46
653.364	1155.33
653.561	1096.82
653.757	1134.41
653.954	1130.14
654.15	1109.41
654.347	1204.74
654.543	1157.46
654.74	1062.33
654.936	1062.33
655.133	1114.64
655.329	1103.6
655.525	1120.26
655.722	1134.79
655.918	1067.18
656.115	1067.56
656.311	1015.45
656.507	919.35
656.704	934.27
656.9	956.35
657.096	961.2
657.292	1012.93
657.489	1050.32
657.685	1007.7
657.881	1017.58
658.077	1024.36
658.273	1039.47
658.47	1120.65
658.666	1065.63
658.862	1086.16
659.058	1071.05
659.254	1133.44
659.45	1111.74
659.646	1100.11
659.842	1083.45
660.038	1153.01
660.234	1045.67
660.43	1090.62
660.626	1180.91
660.822	1136.92
661.018	1123.94
661.214	1100.11
661.41	1080.16
661.606	1140.99
661.802	1138.86
661.998	1082.09
662.194	1079.38
662.39	1130.92
662.586	1112.32
662.781	1078.99
662.977	1123.36
663.173	1126.46
663.369	1097.21
663.564	1092.17
663.76	1136.73
663.956	1070.47
664.152	1097.98
664.347	1023.39
664.543	1057.49
664.739	1059.81
664.934	1030.56
665.13	997.43
665.326	1091.01
665.521	1073.76
665.717	1039.66
665.912	1017
666.108	951.12
666.304	1015.45
666.499	1037.15
666.695	973.4
666.89	1016.22
667.086	1055.74
667.281	1045.09
667.477	1090.81
667.672	1068.14
667.867	1038.89
668.063	1028.43
668.258	1018.93
668.454	1031.33
668.649	1133.05
668.844	1024.16
669.04	1043.54
669.235	1056.33
669.43	1015.83
669.626	958.68
669.821	1015.25
670.016	978.25
670.211	1024.36
670.407	998.98
670.602	1083.06
670.797	992.58
670.992	1073.76
671.187	1011.57
671.382	1064.66
671.578	1006.92
671.773	1068.73
671.968	951.12
672.163	1022.03
672.358	1038.7
672.553	953.45
672.748	1022.61
672.943	1051.87
673.138	1026.88
673.333	1016.03
673.528	982.12
673.723	1023.78
673.918	996.85
674.113	970.11
674.308	1075.51
674.503	1023.78
674.698	1025.91
674.892	988.9
675.087	1005.76
675.282	984.06
675.477	995.88
675.672	997.23
675.867	982.31
676.061	940.85
676.256	914.31
676.451	971.66
676.646	971.08
676.84	945.31
677.035	933.1
677.23	961.58
677.424	984.25
677.619	1001.5
677.814	1026.3
678.008	978.63
678.203	930
678.397	960.81
678.592	985.8
678.787	1056.71
678.981	975.92
679.176	997.43
679.37	994.71
679.565	975.53
679.759	984.06
679.954	978.63
680.148	1039.28
680.342	1024.36
680.537	980.96
680.731	980.76
680.926	1017
681.12	979.41
681.314	945.89
681.509	947.83
681.703	970.3
681.897	994.33
682.092	955
682.286	929.23
682.48	1046.25
682.674	989.48
682.869	964.49
683.063	999.17
683.257	1012.35
683.451	935.23
683.645	969.33
683.839	987.93
684.034	959.45
684.228	997.43
684.422	883.89
684.616	919.73
684.81	960.42
685.004	926.71
685.198	943.37
685.392	992.2
685.586	927.87
685.78	934.65
685.974	931.55
686.168	963.52
686.362	988.51
686.556	918.57
686.75	874.01
686.944	850.37
687.138	883.31
687.331	768.03
687.525	795.35
687.719	726.18
687.913	821.31
688.107	806.2
688.301	771.13
688.494	802.52
688.688	765.32
688.882	752.53
689.076	745.56
689.269	807.94
689.463	866.26
689.657	831.77
689.85	823.64
690.044	824.6
690.238	815.69
690.431	803.1
690.625	801.55
690.818	845.92
691.012	860.45
691.205	871.1
691.399	805.42
691.593	879.24
691.786	902.68
691.98	918.38
692.173	928.07
692.366	895.71
692.56	918.96
692.753	950.15
692.947	883.5
693.14	972.05
693.333	944.92
693.527	861.22
693.72	918.77
693.914	906.37
694.107	938.92
694.3	947.44
694.493	873.82
694.687	958.87
694.88	923.42
695.073	995.3
695.266	973.98
695.46	946.28
695.653	1006.34
695.846	981.54
696.039	916.05
696.232	944.73
696.425	999.56
696.618	1011.96
696.812	1011.38
697.005	1069.31
697.198	1119.88
697.391	1074.34
697.584	1088.88
697.777	1110.19
697.97	1097.79
698.163	1098.95
698.356	1086.94
698.549	1192.14
698.742	1137.51
698.935	1109.8
699.127	1125.88
699.32	1081.13
699.513	1129.37
699.706	1165.02
699.899	1180.71
700.092	1156.69
700.285	1189.43
700.477	1104.18
700.67	1178
700.863	1181.49
701.056	1258.02
701.248	1259.18
701.441	1257.44
701.634	1202.41
701.826	1319.43
702.019	1223.53
702.212	1281.85
702.404	1235.54
702.597	1240.58
702.79	1252.79
702.982	1286.89
703.175	1313.04
703.367	1304.9
703.56	1369.81
703.752	1431.03
703.945	1417.66
704.137	1435.88
704.33	1413.98
704.522	1464.55
704.715	1441.11
704.907	1455.64
705.1	1490.71
705.292	1500.2
705.484	1482.96
705.677	1545.54
705.869	1525.19
706.061	1550.38
706.254	1605.02
706.446	1588.55
706.638	1561.23
706.831	1642.8
707.023	1620.32
707.215	1711.97
707.407	1680.39
707.599	1644.16
707.792	1722.62
707.984	1702.28
708.176	1757.11
708.368	1687.17
708.56	1770.67
708.752	1731.15
708.944	1711.97
709.136	1794.89
709.329	1761.18
709.521	1904.55
709.713	1841
709.905	1861.93
710.097	1944.85
710.289	1845.46
710.481	1877.04
710.672	1936.33
710.864	1927.99
711.056	1995.23
711.248	1941.56
711.44	1984.57
711.632	1962.48
711.824	2025.84
712.016	2067.69
712.207	2069.62
712.399	2075.82
712.591	2119.22
712.783	2134.72
712.975	2123.68
713.166	2079.89
713.358	2123.49
713.55	2187.81
713.741	2185.29
713.933	2167.08
714.125	2225.59
714.316	2164.75
714.508	2263.37
714.7	2269.76
714.891	2250.78
715.083	2316.65
715.274	2261.63
715.466	2294.76
715.657	2330.6
715.849	2240.51
716.04	2327.31
716.232	2249.03
716.423	2350.95
716.615	2225.59
716.806	2227.14
716.998	2232.57
717.189	2132.4
717.381	2085.12
717.572	2069.43
717.763	2101.4
717.955	2076.79
718.146	2080.86
718.337	1993.68
718.528	1988.44
718.72	1899.9
718.911	1981.08
719.102	1876.07
719.293	1970.43
719.485	1965.97
719.676	1951.05
719.867	1947.37
720.058	1929.35
720.249	1953.18
720.44	1996
720.632	2047.73
720.823	2104.11
721.014	2163.01
721.205	2178.12
721.396	2268.8
721.587	2341.26
721.778	2364.7
721.969	2411.59
722.16	2483.08
722.351	2495.87
722.542	2652.61
722.733	2640.98
722.924	2509.62
723.115	2631.49
723.305	2575.11
723.496	2592.16
723.687	2475.52
723.878	2498.58
724.069	2502.07
724.26	2571.04
724.45	2493.93
724.641	2494.32
724.832	2524.16
725.023	2506.72
725.213	2482.5
725.404	2501.68
725.595	2458.47
725.785	2457.31
725.976	2590.03
726.167	2540.04
726.357	2580.92
726.548	2663.65
726.739	2575.89
726.929	2648.54
727.12	2688.07
727.31	2723.33
727.501	2634.01
727.691	2680.51
727.882	2701.24
728.072	2693.49
728.263	2718.29
728.453	2711.7
728.644	2801.79
728.834	2759.95
729.024	2711.12
729.215	2699.88
729.405	2779.9
729.596	2816.52
729.786	2878.71
729.976	2880.84
730.167	2872.32
730.357	2874.06
730.547	2884.33
730.737	2944.39
730.928	2938.77
731.118	2986.05
731.308	2980.04
731.498	2962.41
731.688	3048.44
731.879	3038.75
732.069	3100.94
732.259	3159.65
732.449	3118.57
732.639	3205.18
732.829	3233.66
733.019	3286.36
733.209	3332.47
733.399	3376.45
733.589	3402.99
733.779	3439.61
733.969	3416.94
734.159	3503.74
734.349	3568.26
734.539	3605.46
734.729	3574.85
734.919	3595
735.109	3667.84
735.299	3576.2
735.488	3631.42
735.678	3622.51
735.868	3667.84
736.058	3634.71
736.248	3607.98
736.437	3599.65
736.627	3591.51
736.817	3689.93
737.007	3676.76
737.196	3735.27
737.386	3701.75
737.576	3647.5
737.765	3727.52
737.955	3732.75
738.144	3855.59
738.334	3771.69
738.524	3757.74
738.713	3743.99
738.903	3716.48
739.092	3819.74
739.282	3805.79
739.471	3803.66
739.661	3791.46
739.85	3827.49
740.04	3854.42
740.229	3850.16
740.419	3886.59
740.608	3941.8
740.797	3897.82
740.987	3926.11
741.176	3907.32
741.365	3898.4
741.555	3814.9
741.744	3955.95
741.933	3877.48
742.123	3933.28
742.312	3972.42
742.501	3978.23
742.69	4008.26
742.88	3917
743.069	4015.62
743.258	3975.52
743.447	4037.71
743.636	4069.29
743.825	4022.79
744.014	4035.58
744.204	4101.45
744.393	3990.43
744.582	4129.93
744.771	4132.64
744.96	4020.46
745.149	4080.91
745.338	4053.4
745.527	4139.62
745.716	4105.71
745.905	4028.8
746.094	4154.54
746.283	4105.52
746.471	4131.48
746.66	4170.43
746.849	4145.82
747.038	4148.34
747.227	4107.46
747.416	4151.24
747.604	4115.59
747.793	4071.03
747.982	4103.39
748.171	4129.54
748.359	4180.5
748.548	4106.29
748.737	4152.02
748.926	4094.67
749.114	3999.73
749.303	4120.63
749.491	4103.19
749.68	4049.72
749.869	4157.64
750.057	4092.35
750.246	4098.16
750.434	4098.55
750.623	4075.49
750.811	4023.56
751	4115.4
751.188	4046.23
751.377	4067.16
751.565	4053.4
751.754	4019.11
751.942	4045.65
752.131	4098.93
752.319	4012.71
752.507	4011.36
752.696	4058.25
752.884	4053.4
753.072	4064.06
753.261	4075.49
753.449	4051.46
753.637	4027.83
753.825	4096.03
754.014	4041.58
754.202	4031.31
754.39	4076.65
754.578	4106.68
754.766	3969.12
754.955	4006.32
755.143	4129.93
755.331	4014.85
755.519	4020.27
755.707	3999.54
755.895	4006.13
756.083	3998.18
756.271	3974.93
756.459	4017.56
756.647	4006.32
756.835	3979.78
757.023	3969.7
757.211	3965.44
757.399	3951.68
757.587	3982.1
757.775	3854.04
757.963	3901.89
758.151	3903.25
758.339	3908.87
758.526	3846.48
758.714	3942.19
758.902	3792.81
759.09	3790.87
759.278	3605.85
759.465	3383.04
759.653	3040.49
759.841	2798.5
760.028	2460.99
760.216	2186.07
760.404	2047.15
760.591	1730.95
760.779	1536.24
760.967	1363.61
761.154	1184.97
761.342	1271
761.529	1252.01
761.717	1334.35
761.905	1349.27
762.092	1448.86
762.28	1421.73
762.467	1486.44
762.655	1407.59
762.842	1451.96
763.029	1484.12
763.217	1505.82
763.404	1519.19
763.592	1563.56
763.779	1508.14
763.966	1568.21
764.154	1592.23
764.341	1679.61
764.528	1680.39
764.716	1745.1
764.903	1793.53
765.09	1840.81
765.277	1902.03
765.465	2070.01
765.652	2102.75
765.839	2174.25
766.026	2325.56
766.213	2313.55
766.4	2438.52
766.588	2619.67
766.775	2636.92
766.962	2696.78
767.149	2779.71
767.336	2934.51
767.523	2870.19
767.71	2991.67
767.897	3099.39
768.084	3127.1
768.271	3166.43
768.458	3237.14
768.645	3308.06
768.832	3263.49
769.019	3313.67
769.206	3311.74
769.392	3408.61
769.579	3508
769.766	3437.67
769.953	3426.63
770.14	3496.38
770.327	3448.52
770.513	3506.65
770.7	3575.62
770.887	3498.32
771.073	3499.87
771.26	3507.42
771.447	3451.62
771.634	3432.05
771.82	3591.9
772.007	3457.63
772.193	3537.26
772.38	3543.46
772.567	3483.2
772.753	3520.21
772.94	3608.36
773.126	3518.85
773.313	3548.3
773.499	3527.38
773.686	3542.49
773.872	3433.02
774.059	3544.04
774.245	3449.3
774.432	3436.12
774.618	3413.45
774.804	3473.13
774.991	3427.4
775.177	3478.55
775.363	3425.66
775.55	3495.6
775.736	3431.86
775.922	3434.57
776.109	3448.33
776.295	3466.93
776.481	3480.69
776.667	3472.55
776.853	3427.21
777.04	3401.44
777.226	3386.14
777.412	3503.74
777.598	3399.31
777.784	3384.97
777.97	3342.16
778.156	3405.9
778.342	3356.11
778.528	3366.37
778.715	3312.13
778.901	3297.59
779.087	3408.8
779.272	3310.96
779.458	3305.34
779.644	3312.9
779.83	3283.64
780.016	3395.82
780.202	3294.69
780.388	3265.04
780.574	3210.99
780.76	3253.81
780.946	3314.64
781.131	3255.74
781.317	3235.79
781.503	3211.18
781.689	3234.43
781.874	3369.47
782.06	3228.04
782.246	3261.75
782.432	3249.93
782.617	3235.59
782.803	3287.33
782.989	3157.9
783.174	3191.81
783.36	3091.64
783.545	3155.96
783.731	3160.42
783.916	3050.76
784.102	3182.9
784.288	3129.23
784.473	3125.35
784.659	3113.34
784.844	3160.03
785.029	3088.15
785.215	3056.18
785.4	3002.71
785.586	3114.5
785.771	3020.73
785.956	3114.12
786.142	3043.01
786.327	3066.65
786.512	3025.19
786.698	3045.72
786.883	2992.44
787.068	3031.39
787.254	3000.19
787.439	2967.64
787.624	2997.48
787.809	2992.05
787.994	2960.86
788.18	3029.06
788.365	2929.86
788.55	2974.04
788.735	2938
788.92	2967.45
789.105	2923.47
789.29	2996.12
789.475	2890.53
789.66	2925.41
789.845	2900.02
790.03	2876.77
790.215	2938.39
790.4	2960.86
790.585	2938
790.77	2866.89
790.955	2806.25
791.14	2872.32
791.325	2921.34
791.51	2772.35
791.695	2863.99
791.879	2844.81
792.064	2758.98
792.249	2955.82
792.434	2819.43
792.618	2808.38
792.803	2913.78
792.988	2825.82
793.173	2826.4
793.357	2826.59
793.542	2816.33
793.727	2845.19
793.911	2846.36
794.096	2831.44
794.281	2841.51
794.465	2903.71
794.65	2840.54
794.834	2898.86
795.019	2876.97
795.203	2876
795.388	2900.02
795.572	2910.1
795.757	2909.32
795.941	2885.3
796.126	2895.37
796.31	2840.54
796.494	2861.28
796.679	2833.76
796.863	2845
797.048	2934.51
797.232	2882.97
797.416	2913.01
797.601	2888.4
797.785	2920.56
797.969	2933.93
798.153	2877.36
798.338	2917.85
798.522	2909.13
798.706	2975.59
798.89	2964.15
799.074	3018.02
799.258	2986.82
799.443	2940.13
799.627	2906.22
799.811	2958.34
799.995	2946.72
800.179	2873.48
800.363	2926.37
800.547	2928.51
800.731	2961.06
800.915	2845.39
801.099	2866.12
801.283	2917.27
801.467	2905.84
801.651	2881.62
801.835	2942.84
802.019	2882.78
802.202	2900.41
802.386	2877.36
802.57	2882.78
802.754	2896.15
802.938	2838.03
803.121	2880.84
803.305	2941.29
803.489	2911.07
803.673	2924.44
803.856	2926.37
804.04	2888.59
804.224	2912.81
804.407	2901.57
804.591	2885.49
804.775	2886.27
804.958	2883.56
805.142	3004.45
805.326	2894.02
805.509	2899.83
805.693	2959.12
805.876	2923.08
806.06	2839.58
806.243	2915.91
806.427	2939.36
806.61	2961.83
806.794	2869.22
806.977	2938
807.16	2854.11
807.344	2891.5
807.527	2893.05
807.71	2834.54
807.894	2894.6
808.077	2922.31
808.26	2874.64
808.444	2851.39
808.627	2866.89
808.81	2816.71
808.993	2772.15
809.177	2741.35
809.36	2854.88
809.543	2796.76
809.726	2756.46
809.909	2741.73
810.092	2737.28
810.276	2734.95
810.459	2757.62
810.642	2719.06
810.825	2708.21
811.008	2716.35
811.191	2612.7
811.374	2652.42
811.557	2665.4
811.74	2697.37
811.923	2595.26
812.106	2577.24
812.289	2555.93
812.472	2610.57
812.654	2610.76
812.837	2541.98
813.02	2500.91
813.203	2505.75
813.386	2387.37
813.569	2360.24
813.751	2247.68
813.934	2366.25
814.117	2337.38
814.3	2278.1
814.482	2214.35
814.665	2171.73
814.848	2160.49
815.03	2098.3
815.213	2150.22
815.396	2098.49
815.578	2091.32
815.761	2002.59
815.943	2053.74
816.126	1995.23
816.309	1963.26
816.491	1899.51
816.674	1857.66
816.856	1894.28
817.039	1852.05
817.221	1979.53
817.403	1923.34
817.586	1930.71
817.768	1932.64
817.951	1859.99
818.133	1865.61
818.315	1863.86
818.498	1890.41
818.68	1938.26
818.862	1945.24
819.045	1973.53
819.227	1929.74
819.409	1887.7
819.591	1958.61
819.774	1910.17
819.956	1861.93
820.138	1950.86
820.32	1915.79
820.502	1981.86
820.684	2057.03
820.866	2050.06
821.048	2130.46
821.231	2104.89
821.413	2131.82
821.595	2080.28
821.777	2096.17
821.959	2043.27
822.141	2153.52
822.323	2001.43
822.505	1973.14
822.686	1923.15
822.868	1858.63
823.05	1744.52
823.232	1686.97
823.414	1643.77
823.596	1722.04
823.778	1696.85
823.96	1723.2
824.141	1749.36
824.323	1735.22
824.505	1848.75
824.687	1871.81
824.868	1922.38
825.05	2012.66
825.232	2027
825.413	2112.05
825.595	2063.04
825.777	1966.55
825.958	2024.67
826.14	2017.51
826.321	2069.62
826.503	2036.11
826.685	2075.05
826.866	2057.22
827.048	2054.32
827.229	2004.91
827.411	1964.61
827.592	1933.03
827.773	1919.28
827.955	1867.93
828.136	1896.41
828.318	1852.82
828.499	1889.63
828.68	1803.22
828.862	1838.1
829.043	1872.97
829.224	1847.98
829.406	1847.98
829.587	1831.12
829.768	1828.02
829.949	1820.47
830.131	1786.37
830.312	1896.61
830.493	1849.14
830.674	1875.49
830.855	1792.76
831.036	1829.18
831.218	1869.87
831.399	1905.52
831.58	1843.52
831.761	1833.45
831.942	1842.16
832.123	1830.93
832.304	1799.54
832.485	1831.9
832.666	1817.75
832.847	1866
833.028	1845.85
833.209	1854.95
833.389	1805.35
833.57	1747.81
833.751	1782.1
833.932	1862.9
834.113	1833.64
834.294	1811.36
834.475	1833.06
834.655	1868.71
834.836	1830.35
835.017	1854.95
835.198	1801.87
835.378	1812.13
835.559	1879.17
835.74	1822.6
835.92	1783.27
836.101	1800.7
836.281	1865.8
836.462	1866.19
836.643	1876.07
836.823	1884.01
837.004	1851.27
837.184	1947.37
837.365	1882.46
837.545	1876.07
837.726	1859.02
837.906	1929.35
838.087	1839.84
838.267	1873.94
838.448	1809.81
838.628	1871.61
838.808	1850.5
838.989	1927.41
839.169	1815.82
839.349	1881.11
839.53	1899.51
839.71	1907.26
839.89	1838.68
840.07	1908.04
840.251	1836.35
840.431	1857.86
840.611	1841
840.791	1797.41
840.971	1868.9
841.151	1845.46
841.332	1781.13
841.512	1875.3
841.692	1761.76
841.872	1847.78
842.052	1816.2
842.232	1825.89
842.412	1773.97
842.592	1806.71
842.772	1832.09
842.952	1804.58
843.132	1801.28
843.312	1767.57
843.492	1752.85
843.672	1834.22
843.851	1749.17
844.031	1773
844.211	1752.46
844.391	1723.2
844.571	1787.72
844.751	1799.93
844.93	1776.68
845.11	1733.28
845.29	1761.76
845.47	1832.48
845.649	1764.08
845.829	1809.81
846.009	1753.82
846.188	1751.1
846.368	1772.8
846.547	1734.83
846.727	1809.81
846.907	1712.94
847.086	1742.38
847.266	1780.94
847.445	1753.82
847.625	1723.79
847.804	1735.6
847.984	1743.93
848.163	1719.52
848.343	1712.16
848.522	1751.68
848.701	1702.67
848.881	1723.79
849.06	1727.85
849.239	1741.8
849.419	1740.45
849.598	1643.38
849.777	1667.99
849.957	1618
850.136	1569.76
850.315	1534.49
850.494	1555.61
850.674	1564.72
850.853	1632.92
851.032	1582.16
851.211	1647.64
851.39	1627.88
851.569	1543.99
851.748	1551.74
851.927	1589.52
852.107	1606.76
852.286	1541.47
852.465	1529.65
852.644	1646.48
852.823	1587.77
853.002	1571.69
853.181	1610.64
853.359	1613.35
853.538	1543.21
853.717	1624.39
853.896	1492.45
854.075	1424.25
854.254	1402.36
854.433	1329.7
854.611	1372.33
854.79	1324.67
854.969	1387.25
855.148	1432
855.327	1362.25
855.505	1403.91
855.684	1397.32
855.863	1437.04
856.041	1435.1
856.22	1467.07
856.399	1421.35
856.577	1522.09
856.756	1529.07
856.934	1633.31
857.113	1627.88
857.291	1523.84
857.47	1512.41
857.648	1556.97
857.827	1530.81
858.005	1538.18
858.184	1501.75
858.362	1578.86
858.541	1532.75
858.719	1529.84
858.898	1498.07
859.076	1506.4
859.254	1574.6
859.433	1511.05
859.611	1486.06
859.789	1430.84
859.967	1546.51
860.146	1563.36
860.324	1452.73
860.502	1487.22
860.68	1414.95
860.859	1433.94
861.037	1471.91
861.215	1478.31
861.393	1469.2
861.571	1477.34
861.749	1414.18
861.927	1467.46
862.105	1471.33
862.283	1427.35
862.461	1444.4
862.639	1405.46
862.817	1416.31
862.995	1426.19
863.173	1392.28
863.351	1432.2
863.529	1424.45
863.707	1447.11
863.885	1431.42
864.063	1357.41
864.241	1392.28
864.418	1452.15
864.596	1419.6
864.774	1382.98
864.952	1396.93
865.129	1415.53
865.307	1358.38
865.485	1317.69
865.663	1416.31
865.84	1265.19
866.018	1333
866.196	1203.38
866.373	1255.89
866.551	1201.83
866.728	1109.03
866.906	1189.43
867.084	1227.79
867.261	1242.13
867.439	1249.3
867.616	1299.67
867.794	1262.67
867.971	1292.12
868.149	1278.36
868.326	1313.62
868.503	1309.75
868.681	1320.02
868.858	1258.6
869.035	1259.37
869.213	1317.5
869.39	1276.04
869.567	1372.33
869.745	1279.52
869.922	1291.15
870.099	1336.48
870.276	1318.47
870.454	1307.03
870.631	1275.65
870.808	1262.86
870.985	1327.77
871.162	1354.31
871.339	1305.87
871.517	1225.66
871.694	1244.45
871.871	1255.89
872.048	1257.24
872.225	1250.85
872.402	1280.3
872.579	1198.54
872.756	1248.33
872.933	1201.44
873.11	1228.76
873.287	1256.08
873.463	1226.82
873.64	1214.23
873.817	1265.77
873.994	1223.34
874.171	1205.9
874.348	1202.22
874.524	1158.82
874.701	1210.94
874.878	1138.86
875.055	1234.38
875.231	1197.57
875.408	1244.65
875.585	1130.34
875.762	1185.17
875.938	1160.17
876.115	1209.39
876.291	1170.44
876.468	1172.96
876.645	1110.19
876.821	1143.51
876.998	1147.19
877.174	1168.12
877.351	1170.25
877.527	1132.27
877.704	1153.78
877.88	1166.18
878.057	1123.75
878.233	1171.61
878.409	1102.83
878.586	1169.67
878.762	1153.2
878.938	1123.94
879.115	1054
879.291	1136.34
879.467	1086.16
879.644	1077.44
879.82	1164.24
879.996	1084.81
880.172	1019.32
880.349	1104.57
880.525	1142.93
880.701	1052.45
880.877	1060.59
881.053	1090.81
881.229	1094.49
881.405	1135.37
881.581	1067.37
881.757	1060.59
881.933	1075.89
882.109	1100.31
882.285	1097.79
882.461	1057.88
882.637	1048.96
882.813	1059.04
882.989	1076.86
883.165	1124.14
883.341	1052.06
883.517	1106.31
883.693	1083.64
883.869	1110.58
884.044	1060.39
884.22	1093.72
884.396	1127.04
884.572	1086.55
884.747	1116
884.923	1088.88
885.099	1124.91
885.275	1116.97
885.45	1066.01
885.626	1036.95
885.801	1051.68
885.977	1053.42
886.153	1015.06
886.328	1106.7
886.504	1053.23
886.679	1101.86
886.855	1046.44
887.03	1072.02
887.206	1099.14
887.381	1101.86
887.557	1052.45
887.732	1088.29
887.908	1062.14
888.083	1100.69
888.258	1056.33
888.434	1050.13
888.609	1050.51
888.784	1109.03
888.96	1079.77
889.135	1066.79
889.31	1048.38
889.485	1061.56
889.661	1062.91
889.836	1093.53
890.011	1100.5
890.186	1060.39
890.361	1038.5
890.537	1065.04
890.712	1064.46
890.887	1074.54
891.062	1056.13
891.237	1138.67
891.412	1049.35
891.587	1097.59
891.762	1097.4
891.937	1110.58
892.112	1037.34
892.287	1042.96
892.462	1016.8
892.637	1013.51
892.812	978.83
892.987	987.16
893.161	1004.01
893.336	997.23
893.511	1005.76
893.686	996.26
893.861	1009.05
894.035	997.43
894.21	998.01
894.385	954.8
894.56	1008.28
894.734	906.17
894.909	919.73
895.084	922.64
895.258	885.25
895.433	938.72
895.608	909.85
895.782	835.26
895.957	874.98
896.131	862.97
896.306	807.36
896.48	853.28
896.655	827.32
896.829	756.79
897.004	771.13
897.178	796.32
897.353	745.36
897.527	807.36
897.701	806
897.876	695.57
898.05	792.44
898.224	780.62
898.399	834.49
898.573	785.27
898.747	675.03
898.921	743.81
899.096	642.68
899.27	619.43
899.444	598.11
899.618	675.61
899.792	703.32
899.967	686.85
900.141	734.12
900.315	637.25
900.489	674.84
900.663	706.03
900.837	691.89
901.011	603.54
901.185	751.37
901.359	676.19
901.533	694.6
901.707	733.54
901.881	693.63
902.055	617.68
902.229	652.17
902.403	742.46
902.576	699.44
902.75	674.06
902.924	803.87
903.098	723.86
903.272	793.8
903.446	810.46
903.619	782.37
903.793	807.36
903.967	791.86
904.14	842.82
904.314	834.49
904.488	787.79
904.661	847.66
904.835	811.62
905.009	876.33
905.182	888.93
905.356	854.25
905.529	827.12
905.703	782.56
905.876	811.43
906.05	783.72
906.223	765.51
906.397	721.72
906.57	714.94
906.744	671.93
906.917	689.56
907.09	689.18
907.264	688.4
907.437	681.81
907.61	628.73
907.784	617.1
907.957	667.48
908.13	607.41
908.304	639.77
908.477	617.29
908.65	616.71
908.823	572.73
908.996	681.23
909.17	582.23
909.343	610.9
909.516	613.42
909.689	623.49
909.862	577.96
910.035	616.71
910.208	587.07
910.381	592.88
910.554	669.61
910.727	593.85
910.9	570.41
911.073	585.52
911.246	660.5
911.419	635.7
911.592	601.6
911.765	567.11
911.938	599.66
912.11	585.52
912.283	572.73
912.456	667.86
912.629	601.99
912.802	553.16
912.974	582.61
913.147	506.08
913.32	455.9
913.493	499.11
913.665	521.39
913.838	539.02
914.01	551.23
914.183	531.66
914.356	521.97
914.528	565.37
914.701	615.55
914.873	606.25
915.046	515.58
915.218	505.7
915.391	413.86
915.563	438.85
915.736	502.02
915.908	546.77
916.081	516.93
916.253	489.62
916.425	532.05
916.598	528.56
916.77	526.81
916.942	497.95
917.115	422.19
917.287	535.53
917.459	481.28
917.632	452.61
917.804	435.95
917.976	508.8
918.148	515.58
918.32	512.28
918.493	536.7
918.665	575.45
918.837	530.5
919.009	569.25
919.181	562.27
919.353	544.25
919.525	529.72
919.697	521.78
919.869	523.13
920.041	593.85
920.213	660.89
920.385	553.94
920.557	524.1
920.729	581.84
920.901	552.2
921.073	556.85
921.244	531.85
921.416	567.31
921.588	540.76
921.76	498.53
921.932	580.87
922.103	523.71
922.275	534.56
922.447	524.3
922.619	466.37
922.79	524.88
922.962	495.82
923.134	546.38
923.305	501.24
923.477	480.51
923.648	464.23
923.82	484.77
923.991	429.55
924.163	428.59
924.335	459.39
924.506	449.32
924.677	495.62
924.849	451.83
925.02	467.14
925.192	502.79
925.363	478.96
925.535	482.64
925.706	458.23
925.877	494.65
926.049	455.13
926.22	455.13
926.391	463.27
926.562	502.02
926.734	433.62
926.905	461.52
927.076	416.77
927.247	442.15
927.419	396.23
927.59	386.74
927.761	431.68
927.932	398.55
928.103	402.62
928.274	334.23
928.445	336.94
928.616	367.75
928.787	357.48
928.958	379.76
929.129	370.27
929.3	322.99
929.471	316.79
929.642	252.28
929.813	221.86
929.984	324.16
930.155	242.78
930.326	263.32
930.496	248.79
930.667	217.01
930.838	248.59
931.009	206.74
931.18	193.38
931.35	186.01
931.521	214.11
931.692	157.15
931.863	135.83
932.033	181.75
932.204	166.06
932.374	166.45
932.545	118.01
932.716	189.11
932.886	198.8
933.057	88.56
933.227	113.94
933.398	177.49
933.568	81.97
933.739	52.91
933.909	53.49
934.08	104.45
934.25	53.1
934.421	60.47
934.591	90.5
934.761	75.19
934.932	61.05
935.102	77.52
935.272	50.58
935.443	89.14
935.613	75.58
935.783	72.09
935.953	64.53
936.123	223.02
936.294	67.05
936.464	58.92
936.634	54.65
936.804	53.3
936.974	21.91
937.144	88.17
937.314	63.37
937.484	53.88
937.655	31.6
937.825	116.07
937.995	51.55
938.165	118.4
938.334	64.92
938.504	112.58
938.674	56.98
938.844	99.21
939.014	143.78
939.184	126.34
939.354	168.77
939.524	176.33
939.694	125.18
939.863	112.78
940.033	222.24
940.203	174.39
940.373	183.3
940.542	159.28
940.712	153.85
940.882	160.44
941.051	169.93
941.221	190.66
941.391	161.41
941.56	122.66
941.73	134.28
941.899	230.38
942.069	149.78
942.238	163.93
942.408	120.14
942.577	153.46
942.747	120.53
942.916	58.72
943.086	99.6
943.255	162.18
943.425	130.41
943.594	110.45
943.763	38.77
943.933	67.63
944.102	12.61
944.271	110.06
944.441	105.22
944.61	102.51
944.779	108.51
944.948	167.22
945.117	51.17
945.287	84.68
945.456	46.52
945.625	53.3
945.794	118.78
945.963	35.67
946.132	106.58
946.301	101.54
946.47	140.87
946.639	54.27
946.808	79.65
946.977	131.38
947.146	143.58
947.315	88.56
947.484	117.81
947.653	69.57
947.822	86.43
947.991	59.11
948.16	190.47
948.329	140.48
948.498	114.52
948.666	81.58
948.835	111.23
949.004	44.58
949.173	51.17
949.341	102.31
949.51	124.98
949.679	160.25
949.847	139.13
950.016	148.04
950.185	162.38
950.353	74.22
950.522	95.34
950.69	147.65
950.859	81.78
951.028	134.28
951.196	126.53
951.365	90.11
951.533	96.11
951.701	141.06
951.87	116.07
952.038	47.68
952.207	96.7
952.375	178.07
952.543	68.6
952.712	98.44
952.88	98.05
953.048	143.97
953.217	99.99
953.385	94.95
953.553	123.43
953.721	47.68
953.89	121.69
954.058	27.53
954.226	72.67
954.394	95.53
954.562	35.67
954.73	83.33
954.898	88.75
955.067	128.66
955.235	72.87
955.403	129.44
955.571	169.16
955.739	143.2
955.907	58.14
956.075	66.86
956.243	49.42
956.41	101.15
956.578	71.32
956.746	46.9
956.914	54.85
957.082	113.75
957.25	127.31
957.418	68.8
957.585	97.08
957.753	156.56
957.921	92.24
958.089	105.41
958.256	104.45
958.424	104.25
958.592	108.13
958.759	73.45
958.927	129.63
959.095	81.2
959.262	118.59
959.43	76.74
959.597	68.8
959.765	109.1
959.932	60.27
960.1	117.23
960.267	103.48
960.435	86.43
960.602	122.85
960.77	94.18
960.937	62.4
961.104	69.96
961.272	54.85
961.439	81.78
961.606	81.39
961.774	119.75
961.941	67.05
962.108	75.38
962.275	109.1
962.443	140.48
962.61	130.99
962.777	189.11
962.944	139.51
963.111	114.33
963.278	138.93
963.446	97.28
963.613	111.23
963.78	118.01
963.947	125.18
964.114	82.94
964.281	163.15
964.448	125.76
964.615	90.5
964.782	124.79
964.949	128.66
965.116	161.02
965.282	144.55
965.449	102.7
965.616	69.96
965.783	149.98
965.95	113.94
966.117	50
966.283	102.7
966.45	121.69
966.617	136.8
966.784	182.72
966.95	139.9
967.117	133.51
967.284	77.32
967.45	97.47
967.617	157.15
967.784	145.13
967.95	197.64
968.117	133.31
968.283	144.55
968.45	204.81
968.616	131.38
968.783	167.61
968.949	151.72
969.116	170.71
969.282	94.37
969.449	133.9
969.615	123.43
969.781	75.97
969.948	104.83
970.114	91.66
970.28	198.61
970.447	126.34
970.613	164.12
970.779	102.7
970.945	157.15
971.112	134.48
971.278	127.31
971.444	97.86
971.61	146.49
971.776	98.83
971.942	135.25
972.108	133.7
972.275	116.07
972.441	132.54
972.607	192.02
972.773	65.12
972.939	131.57
973.105	123.43
973.271	81.58
973.437	86.81
973.602	92.05
973.768	114.13
973.934	119.75
974.1	163.15
974.266	43.22
974.432	138.35
974.598	100.38
974.763	146.88
974.929	106.58
975.095	165.67
975.261	88.95
975.426	63.18
975.592	100.38
975.758	175.36
975.923	55.43
976.089	73.45
976.255	120.53
976.42	118.98
976.586	138.74
976.751	122.66
976.917	201.9
977.082	132.15
977.248	86.23
977.413	36.25
977.579	87.78
977.744	110.06
977.91	70.35
978.075	90.88
978.24	133.12
978.406	104.64
978.571	68.8
978.736	53.49
978.902	107.35
979.067	63.76
979.232	43.42
979.397	107.93
979.563	156.37
979.728	65.12
979.893	89.91
980.058	74.22
980.223	148.43
980.388	145.33
980.554	101.35
980.719	81.58
980.884	130.41
981.049	115.1
981.214	102.31
981.379	144.16
981.544	73.83
981.709	93.6
981.874	102.7
982.039	104.64
982.204	135.06
982.368	121.3
982.533	71.51
982.698	124.6
982.863	125.37
983.028	101.93
983.193	93.98
983.357	103.28
983.522	93.4
983.687	85.85
983.852	87.4
984.016	88.56
984.181	117.62
984.346	118.59
984.51	125.56
984.675	99.21
984.839	114.33
985.004	114.71
985.168	114.33
985.333	118.98
985.498	101.73
985.662	132.93
985.827	115.68
985.991	70.35
986.155	79.45
986.32	119.95
986.484	162.76
986.649	96.5
986.813	44.77
986.977	82.36
987.142	91.27
987.306	85.46
987.47	59.88
987.634	80.61
987.799	112.58
987.963	95.34
988.127	115.49
988.291	156.56
988.455	100.96
988.62	69.18
988.784	125.76
988.948	94.37
989.112	60.08
989.276	106.38
989.44	80.61
989.604	76.55
989.768	73.06
989.932	163.35
990.096	60.08
990.26	54.85
990.424	33.92
990.588	75.97
990.752	158.89
990.915	126.92
991.079	59.5
991.243	51.17
991.407	112.97
991.571	79.45
991.734	131.18
991.898	129.83
992.062	187.56
992.226	71.32
992.389	43.42
992.553	18.42
992.717	45.74
992.88	57.56
993.044	58.92
993.207	76.35
993.371	107.16
993.535	98.44
993.698	77.9
993.862	103.67
994.025	112.2
994.189	100.96
994.352	88.75
994.515	104.45
994.679	103.48
994.842	73.45
995.006	102.9
995.169	69.38
995.332	52.33
995.496	96.11
995.659	34.31
995.822	71.32
995.985	69.18
996.149	147.26
996.312	91.66
996.475	124.79
996.638	70.15
996.801	143.2
996.964	141.65
997.128	73.06
997.291	61.82
997.454	81.58
997.617	26.75
997.78	116.65
997.943	45.35
998.106	124.21
998.269	30.24
998.432	52.33
998.595	73.45
998.758	26.95
998.92	46.52
999.083	21.33
999.246	66.67
999.409	20.75
999.572	4.67
999.735	72.87
999.897	86.81
1000.06	43.03
1000.223	74.22
1000.386	84.3
1000.548	94.95
1000.711	88.36
1000.874	81.2
1001.036	22.68
1001.199	117.04
1001.361	1.95
1001.524	64.34
1001.687	92.24
1001.849	40.51
1002.012	73.83
1002.174	54.46
1002.337	96.89
1002.499	74.22
1002.661	93.01
1002.824	29.47
1002.986	25.59
1003.149	66.08
1003.311	27.33
1003.473	103.86
1003.636	35.47
1003.798	86.43
1003.96	80.61
1004.123	53.3
1004.285	20.17
1004.447	42.83
1004.609	46.9
1004.771	106.38
1004.933	15.52
1005.096	26.37
1005.258	-20.33
1005.42	45.35
1005.582	98.44
1005.744	63.95
1005.906	15.13
1006.068	65.31
1006.23	10.09
1006.392	-16.45
1006.554	42.64
1006.716	94.56
1006.878	86.43
1007.04	24.23
1007.202	13
1007.363	39.93
1007.525	62.21
1007.687	52.13
1007.849	83.13
1008.011	8.15
1008.172	-1.15
1008.334	-3.08
1008.496	48.84
1008.658	-9.09
1008.819	-5.6
1008.981	8.35
1009.143	16.1
1009.304	39.15
1009.466	75.38
1009.627	105.8
1009.789	157.15
1009.95	65.5
1010.112	18.62
1010.273	68.02
1010.435	4.67
1010.596	22.88
1010.758	27.14
1010.919	38.96
1011.081	-6.38
1011.242	31.6
1011.403	74.8
1011.565	59.3
1011.726	50
1011.887	5.44
1012.049	29.27
1012.21	72.87
1012.371	105.8
1012.532	-26.33
1012.693	22.68
1012.855	36.44
1013.016	29.27
1013.177	73.64
1013.338	33.34
1013.499	99.21
1013.66	49.42
1013.821	61.05
1013.982	49.03
1014.143	48.65
1014.304	38.38
1014.465	45.35
1014.626	64.34
1014.787	24.04
1014.948	127.89
1015.109	-53.46
1015.27	99.6
1015.431	40.12
1015.592	12.8
1015.752	88.56
1015.913	27.72
1016.074	63.57
1016.235	25.59
1016.395	30.05
1016.556	8.93
1016.717	43.8
1016.877	99.41
1017.038	10.87
1017.199	43.03
1017.359	36.83
1017.52	42.64
1017.681	21.91
1017.841	34.5
1018.002	26.37
1018.162	0.79
1018.323	87.01
1018.483	26.17
1018.644	13
1018.804	-13.35
1018.964	4.28
1019.125	37.02
1019.285	36.83
1019.446	5.25
1019.606	13.38
1019.766	-42.22
1019.926	55.23
1020.087	52.91
1020.247	-9.09
1020.407	51.75
1020.567	65.31
1020.728	0.6
1020.888	-22.85
1021.048	-6.77
1021.208	-5.8
1021.368	-9.48
1021.528	69.18
1021.688	62.02
1021.848	46.9
1022.008	61.63
1022.168	-1.53
1022.328	23.07
1022.488	43.03
1022.648	5.63
1022.808	20.94
1022.968	55.82
1023.128	8.73
1023.288	3.7
1023.448	36.63
1023.608	60.27
1023.767	20.17
1023.927	-4.83
1024.087	-12.19
1024.247	-42.03
1024.406	17.84
1024.566	8.35
1024.726	-18.97
1024.885	26.37
1025.045	53.3
1025.205	-9.09
1025.364	44.58
1025.524	50
1025.683	6.02
1025.843	18.62
1026.003	11.06
1026.162	64.73
1026.321	68.6
1026.481	31.21
1026.64	2.15
1026.8	30.24
1026.959	20.94
1027.119	35.86
1027.278	-6.57
1027.437	7.57
1027.597	9.9
1027.756	25.2
1027.915	48.07
1028.074	34.7
1028.234	-6.18
1028.393	41.28
1028.552	-2.5
1028.711	-55.4
1028.87	61.43
1029.03	-33.31
1029.189	18.42
1029.348	-30.79
1029.507	0.79
1029.666	-3.47
1029.825	-43.96
1029.984	-4.05
1030.143	12.42
1030.302	13.38
1030.461	-64.7
1030.62	4.08
1030.779	24.23
1030.938	-15.48
1031.097	-9.09
1031.255	41.28
1031.414	75.97
1031.573	54.85
1031.732	-45.51
1031.891	-13.16
1032.049	52.91
1032.208	13
1032.367	-3.67
1032.525	9.7
1032.684	-12.77
1032.843	-5.22
1033.001	-43.19
1033.16	189.89
1033.319	51.36
1033.477	35.67
1033.636	-9.09
1033.794	-41.25
1033.953	46.9
1034.111	35.28
1034.27	-6.77
1034.428	29.66
1034.587	-34.66
1034.745	26.95
1034.903	22.3
1035.062	5.25
1035.22	-20.33
1035.378	36.25
1035.537	-35.83
1035.695	51.75
1035.853	8.93
1036.011	17.84
1036.17	26.37
1036.328	-48.61
1036.486	-2.7
1036.644	2.92
1036.802	-66.05
1036.96	-22.85
1037.119	-32.53
1037.277	16.48
1037.435	-55.98
1037.593	-20.13
1037.751	-22.65
1037.909	16.68
1038.067	16.68
