Data from gum_old_FLMT105791__38__15-43-00-258.txt Node

Date: Mon Mar 20 15:43:00 GMT 2023
User: antho
Spectrometer: FLMT10579
Trigger mode: 0
Integration Time (sec): 1.000000E-1
Scans to average: 10
Electric dark correction enabled: true
Nonlinearity correction enabled: false
Boxcar width: 0
XAxis mode: Wavelengths
Number of Pixels in Spectrum: 3648
>>>>>Begin Spectral Data<<<<<
345.248	-147.04
345.464	-147.04
345.681	-147.04
345.898	-190.44
346.114	-175.52
346.331	-29.43
346.548	49.23
346.764	-36.99
346.981	2.53
347.197	-8.51
347.414	9.9
347.631	-45.9
347.847	74.22
348.064	15.32
348.28	24.04
348.497	-49.78
348.713	-4.63
348.93	20.75
349.146	41.28
349.363	25.98
349.579	38.96
349.796	52.52
350.012	13.58
350.229	48.45
350.445	22.88
350.661	-4.83
350.878	36.05
351.094	70.73
351.311	54.46
351.527	36.25
351.743	26.56
351.96	51.17
352.176	79.45
352.392	67.83
352.609	38.57
352.825	30.24
353.041	21.91
353.257	20.17
353.474	54.46
353.69	57.95
353.906	35.28
354.122	8.15
354.339	88.36
354.555	41.87
354.771	34.5
354.987	99.02
355.203	116.07
355.42	26.17
355.636	31.79
355.852	14.16
356.068	28.3
356.284	-2.89
356.5	82.94
356.716	77.32
356.932	38.57
357.148	57.95
357.364	46.32
357.58	60.08
357.796	84.3
358.012	76.16
358.228	39.35
358.444	-15.48
358.66	77.9
358.876	72.28
359.092	17.65
359.308	63.95
359.524	59.69
359.74	27.72
359.956	18.81
360.172	53.68
360.388	97.86
360.604	33.73
360.819	130.02
361.035	61.05
361.251	96.7
361.467	12.22
361.683	107.35
361.898	62.21
362.114	75.58
362.33	64.92
362.546	101.93
362.762	86.81
362.977	85.85
363.193	30.82
363.409	97.86
363.624	51.17
363.84	64.53
364.056	66.67
364.271	90.5
364.487	72.09
364.703	83.13
364.918	39.73
365.134	71.7
365.35	87.4
365.565	180.59
365.781	89.14
365.996	98.25
366.212	159.66
366.427	115.3
366.643	76.74
366.858	112.2
367.074	42.45
367.289	140.87
367.505	195.7
367.72	75.19
367.936	72.67
368.151	109.48
368.367	114.52
368.582	86.81
368.798	66.86
369.013	135.83
369.228	104.83
369.444	114.13
369.659	145.33
369.874	130.6
370.09	154.24
370.305	70.73
370.52	98.05
370.736	149.98
370.951	93.01
371.166	140.87
371.381	156.76
371.597	139.71
371.812	92.63
372.027	88.95
372.242	95.15
372.458	186.98
372.673	56.59
372.888	87.4
373.103	113.75
373.318	152.5
373.533	109.29
373.749	97.66
373.964	43.22
374.179	129.05
374.394	64.92
374.609	128.47
374.824	71.51
375.039	138.16
375.254	80.23
375.469	151.14
375.684	98.63
375.899	129.25
376.114	118.01
376.329	123.05
376.544	159.08
376.759	143.39
376.974	85.65
377.189	94.37
377.404	109.48
377.619	146.88
377.834	54.65
378.049	79.65
378.264	97.86
378.478	144.36
378.693	117.04
378.908	177.49
379.123	128.47
379.338	174.39
379.553	111.81
379.767	131.38
379.982	145.91
380.197	147.07
380.412	141.06
380.626	173.81
380.841	205.97
381.056	150.75
381.271	217.4
381.485	142.42
381.7	98.25
381.915	150.75
382.129	129.25
382.344	143.78
382.559	117.62
382.773	145.71
382.988	57.56
383.202	102.12
383.417	41.67
383.632	205.97
383.846	103.48
384.061	111.61
384.275	114.13
384.49	143.2
384.704	161.41
384.919	144.16
385.133	135.25
385.348	168.96
385.562	127.11
385.777	192.21
385.991	163.73
386.206	130.6
386.42	105.22
386.634	201.51
386.849	152.69
387.063	164.9
387.277	128.47
387.492	132.73
387.706	114.52
387.92	166.25
388.135	183.49
388.349	175.94
388.563	192.02
388.778	185.04
388.992	163.54
389.206	211.01
389.42	235.81
389.635	192.79
389.849	202.87
390.063	227.67
390.277	218.18
390.491	270.1
390.706	209.46
390.92	229.03
391.134	214.11
391.348	245.88
391.562	180.59
391.776	236
391.99	207.13
392.205	251.69
392.419	191.44
392.633	192.02
392.847	237.16
393.061	150.56
393.275	245.49
393.489	140.68
393.703	126.73
393.917	170.13
394.131	136.41
394.345	173.81
394.559	213.91
394.773	179.81
394.986	201.71
395.2	208.68
395.414	263.12
395.628	203.84
395.842	287.34
396.056	251.11
396.27	185.24
396.484	257.12
396.697	214.3
396.911	247.43
397.125	179.81
397.339	177.1
397.553	167.22
397.766	242.39
397.98	252.66
398.194	268.94
398.408	261.77
398.621	323.38
398.835	367.75
399.049	343.53
399.262	411.92
399.476	366.2
399.69	372.79
399.903	421.03
400.117	349.54
400.331	401.27
400.544	367.36
400.758	492.91
400.971	390.22
401.185	411.54
401.398	348.76
401.612	441.18
401.826	426.07
402.039	408.44
402.253	417.35
402.466	450.48
402.68	402.24
402.893	448.93
403.106	428.59
403.32	416.38
403.533	469.66
403.747	435.56
403.96	433.04
404.174	458.42
404.387	400.88
404.6	425.68
404.814	451.83
405.027	438.47
405.24	392.74
405.454	425.1
405.667	484.97
405.88	402.62
406.094	458.81
406.307	464.04
406.52	436.92
406.733	401.07
406.947	410.95
407.16	502.21
407.373	492.91
407.586	438.08
407.799	437.3
408.012	468.3
408.226	443.89
408.439	508.8
408.652	465.4
408.865	500.27
409.078	526.43
409.291	509.96
409.504	451.45
409.717	523.91
409.93	517.71
410.143	515
410.357	438.27
410.57	362.13
410.783	435.56
410.996	461.13
411.209	474.89
411.421	553.75
411.634	532.05
411.847	522.55
412.06	546.38
412.273	538.63
412.486	546.96
412.699	639.58
412.912	540.18
413.125	577.19
413.338	541.93
413.55	579.9
413.763	522.16
413.976	547.93
414.189	557.23
414.402	530.3
414.615	621.94
414.827	502.21
415.04	567.31
415.253	546.58
415.466	590.17
415.678	638.22
415.891	573.12
416.104	570.02
416.316	562.27
416.529	547.55
416.742	625.82
416.954	656.04
417.167	609.16
417.38	595.4
417.592	594.82
417.805	549.1
418.017	532.43
418.23	584.94
418.442	564.6
418.655	548.51
418.868	573.31
419.08	607.22
419.293	625.43
419.505	616.91
419.718	608.58
419.93	620.59
420.142	602.57
420.355	622.72
420.567	631.83
420.78	590.95
420.992	592.5
421.205	684.72
421.417	583.58
421.629	628.14
421.842	589.01
422.054	601.6
422.266	675.03
422.479	635.12
422.691	623.3
422.903	643.45
423.115	566.53
423.328	576.8
423.54	613.03
423.752	624.27
423.964	607.8
424.177	636.09
424.389	611.68
424.601	730.64
424.813	637.83
425.025	669.8
425.238	659.14
425.45	658.76
425.662	611.48
425.874	941.05
426.086	643.64
426.298	647.91
426.51	659.92
426.722	649.26
426.934	640.93
427.146	675.81
427.358	636.67
427.57	700.8
427.782	649.84
427.994	603.73
428.206	612.45
428.418	601.8
428.63	716.11
428.842	697.7
429.054	669.8
429.266	706.81
429.478	628.34
429.69	637.83
429.902	589.2
430.114	649.84
430.325	607.41
430.537	552.39
430.749	528.17
430.961	470.05
431.173	503.18
431.384	522.16
431.596	461.13
431.808	576.61
432.02	673.68
432.231	739.16
432.443	794.38
432.655	742.46
432.867	716.11
433.078	761.06
433.29	788.57
433.502	773.84
433.713	828.67
433.925	785.85
434.136	791.67
434.348	691.89
434.56	655.85
434.771	796.12
434.983	671.74
435.194	732.38
435.406	776.94
435.617	851.15
435.829	899.39
436.04	814.72
436.252	820.34
436.463	897.26
436.675	886.22
436.886	877.5
437.098	878.85
437.309	960.81
437.521	865.87
437.732	875.75
437.943	841.65
438.155	862.97
438.366	794.96
438.578	904.43
438.789	813.75
439	826.54
439.211	795.74
439.423	815.5
439.634	861.8
439.845	886.8
440.057	907.33
440.268	912.95
440.479	889.7
440.69	922.06
440.902	858.12
441.113	875.56
441.324	866.26
441.535	938.33
441.746	963.13
441.957	928.26
442.168	958.29
442.38	1014.86
442.591	1029.78
442.802	928.65
443.013	965.07
443.224	1017.19
443.435	979.6
443.646	982.12
443.857	972.43
444.068	965.85
444.279	965.26
444.49	1058.26
444.701	1007.89
444.912	1124.91
445.123	1072.02
445.334	1047.8
445.545	1036.76
445.756	990.65
445.967	952.09
446.178	997.81
446.388	992
446.599	1003.63
446.81	992.58
447.021	949.96
447.232	1040.44
447.443	1070.08
447.653	1042.18
447.864	1081.71
448.075	1085.58
448.286	1114.06
448.496	1064.27
448.707	1127.82
448.918	1054.19
449.129	1114.64
449.339	1059.62
449.55	1071.83
449.761	1074.73
449.971	1120.26
450.182	1097.98
450.393	1143.9
450.603	1065.63
450.814	1168.89
451.024	1170.83
451.235	1218.69
451.446	1233.22
451.656	1201.06
451.867	1145.84
452.077	1152.42
452.288	1206.29
452.498	1210.36
452.709	1154.75
452.919	1154.17
453.13	1060.2
453.34	1117.16
453.55	1039.08
453.761	1143.51
453.971	1085
454.182	1135.18
454.392	1144.67
454.602	1233.22
454.813	1191.76
455.023	1175.87
455.233	1091.2
455.444	1136.54
455.654	1044.12
455.864	1135.76
456.075	1136.92
456.285	1126.85
456.495	1144.29
456.705	1162.69
456.916	1220.82
457.126	1262.28
457.336	1175.29
457.546	1124.33
457.756	1173.54
457.967	1243.49
458.177	1183.42
458.387	1190.79
458.597	1130.72
458.807	1178.77
459.017	1134.99
459.227	1140.22
459.437	1140.8
459.647	1211.52
459.857	1225.85
460.068	1176.64
460.278	1264.8
460.488	1202.41
460.698	1228.37
460.908	1191.37
461.117	1203.57
461.327	1224.69
461.537	1255.69
461.747	1266.93
461.957	1240.97
462.167	1336.1
462.377	1280.3
462.587	1252.01
462.797	1320.4
463.007	1262.67
463.216	1319.43
463.426	1329.12
463.636	1289.6
463.846	1196.41
464.056	1246.97
464.265	1270.42
464.475	1220.62
464.685	1273.13
464.895	1287.47
465.104	1238.25
465.314	1314.59
465.524	1269.25
465.733	1226.82
465.943	1352.95
466.153	1356.63
466.362	1358.77
466.572	1304.32
466.782	1268.09
466.991	1341.33
467.201	1340.55
467.41	1196.02
467.62	1328.93
467.829	1331.06
468.039	1352.57
468.249	1314.98
468.458	1370.78
468.668	1355.08
468.877	1376.59
469.086	1432
469.296	1452.15
469.505	1393.83
469.715	1458.74
469.924	1393.83
470.134	1431.81
470.343	1459.13
470.552	1419.8
470.762	1374.65
470.971	1369.62
471.18	1400.23
471.39	1413.4
471.599	1370.2
471.808	1454.48
472.018	1440.33
472.227	1527.52
472.436	1576.54
472.645	1543.41
472.855	1499.23
473.064	1624.59
473.273	1595.52
473.482	1552.71
473.691	1575.96
473.901	1589.32
474.11	1534.3
474.319	1670.5
474.528	1569.95
474.737	1703.83
474.946	1649.58
475.155	1634.08
475.364	1717.59
475.573	1663.92
475.783	1712.55
475.992	1722.43
476.201	1715.65
476.41	1670.89
476.619	1655.2
476.828	1660.43
477.037	1655.39
477.245	1673.99
477.454	1709.64
477.663	1732.5
477.872	1752.46
478.081	1860.38
478.29	1736.96
478.499	1843.71
478.708	1834.61
478.917	1898.35
479.125	1782.1
479.334	1802.06
479.543	1805.35
479.752	1851.27
479.961	1850.88
480.169	1928.19
480.378	1870.65
480.587	2022.54
480.796	1967.13
481.004	1936.13
481.213	1940.39
481.422	1960.54
481.63	2021.96
481.839	2002.39
482.048	2072.72
482.256	2037.85
482.465	2101.59
482.674	2087.06
482.882	2122.13
483.091	2097.72
483.299	2050.06
483.508	2113.22
483.716	2125.42
483.925	2096.75
484.134	2054.9
484.342	2080.67
484.551	2138.21
484.759	2107.99
484.967	2159.52
485.176	2150.22
485.384	2189.55
485.593	2143.25
485.801	2185.1
486.01	2067.69
486.218	1953.57
486.426	1868.13
486.635	1814.85
486.843	1789.85
487.051	1892.15
487.26	1899.13
487.468	1996.19
487.676	2014.21
487.885	2031.46
488.093	2114.57
488.301	2158.55
488.509	2191.49
488.717	2250
488.926	2176.38
489.134	2177.35
489.342	2200.21
489.55	2179.48
489.758	2189.75
489.967	2229.85
490.175	2366.06
490.383	2324.6
490.591	2460.02
490.799	2361.21
491.007	2375.74
491.215	2335.25
491.423	2327.11
491.631	2364.51
491.839	2349.2
492.047	2361.6
492.255	2264.53
492.463	2232.18
492.671	2227.14
492.879	2363.54
493.087	2324.98
493.295	2347.65
493.503	2356.37
493.711	2426.31
493.919	2453.44
494.127	2430.77
494.334	2428.83
494.542	2388.73
494.75	2487.92
494.958	2439.68
495.166	2536.55
495.374	2543.72
495.581	2589.64
495.789	2543.14
495.997	2598.55
496.205	2492.77
496.412	2527.64
496.62	2488.89
496.828	2518.73
497.035	2522.22
497.243	2563.29
497.451	2612.7
497.658	2578.99
497.866	2598.94
498.074	2658.03
498.281	2552.64
498.489	2643.89
498.696	2542.37
498.904	2478.62
499.112	2489.28
499.319	2619.67
499.527	2540.82
499.734	2616.57
499.942	2551.67
500.149	2575.3
500.357	2618.32
500.564	2495.29
500.771	2521.83
500.979	2505.17
501.186	2511.76
501.394	2553.99
501.601	2496.64
501.808	2537.72
502.016	2523.19
502.223	2502.26
502.43	2528.03
502.638	2520.67
502.845	2480.37
503.052	2628.39
503.26	2558.45
503.467	2667.92
503.674	2633.82
503.881	2644.08
504.089	2702.21
504.296	2661.13
504.503	2540.62
504.71	2534.23
504.917	2532.87
505.125	2637.5
505.332	2629.17
505.539	2640.79
505.746	2718.87
505.953	2727.98
506.16	2741.93
506.367	2769.83
506.574	2850.23
506.781	2786.3
506.988	2762.08
507.195	2752.97
507.402	2738.25
507.609	2750.45
507.816	2665.78
508.023	2700.08
508.23	2641.18
508.437	2607.47
508.644	2675.08
508.851	2738.25
509.058	2717.13
509.265	2765.37
509.472	2757.43
509.679	2828.73
509.885	2755.1
510.092	2799.86
510.299	2766.73
510.506	2728.75
510.713	2743.86
510.92	2749.1
511.126	2763.05
511.333	2821.94
511.54	2822.14
511.746	2830.66
511.953	2884.52
512.16	2903.9
512.367	2897.31
512.573	2838.22
512.78	2833.76
512.987	2841.32
513.193	2797.14
513.4	2705.31
513.606	2766.34
513.813	2813.61
514.02	2737.08
514.226	2823.69
514.433	2792.11
514.639	2734.76
514.846	2750.45
515.052	2730.3
515.259	2791.33
515.465	2803.34
515.672	2812.64
515.878	2902.16
516.085	2854.49
516.291	2902.93
516.497	2833.57
516.704	2831.05
516.91	2698.53
517.117	2618.12
517.323	2476.49
517.529	2506.52
517.736	2498.97
517.942	2510.79
518.148	2578.21
518.354	2579.37
518.561	2609.79
518.767	2591.97
518.973	2672.37
519.179	2644.67
519.386	2687.29
519.592	2681.67
519.798	2700.85
520.004	2833.57
520.21	2790.94
520.417	2901.19
520.623	2908.94
520.829	2927.54
521.035	2888.79
521.241	2874.64
521.447	2938.19
521.653	3058.9
521.859	2937.22
522.065	2925.02
522.271	3097.07
522.477	3070.33
522.683	3068.97
522.889	3065.29
523.095	3021.5
523.301	2931.99
523.507	2938
523.713	2957.37
523.919	2961.64
524.125	3052.7
524.331	3063.16
524.537	3185.41
524.742	3151.51
524.948	3167.78
525.154	3133.1
525.36	3263.3
525.566	3138.72
525.772	3209.05
525.977	3118.77
526.183	3127.48
526.389	3193.16
526.595	3069.75
526.8	3074.2
527.006	2947.11
527.212	2892.47
527.417	2863.99
527.623	2867.09
527.829	2952.53
528.034	2980.04
528.24	3012.2
528.446	3047.47
528.651	3184.83
528.857	3176.7
529.062	3238.89
529.268	3275.89
529.473	3296.43
529.679	3316.58
529.884	3396.6
530.09	3306.12
530.295	3308.44
530.501	3306.89
530.706	3283.26
530.912	3311.93
531.117	3320.26
531.323	3327.62
531.528	3377.81
531.733	3427.6
531.939	3402.02
532.144	3393.11
532.35	3399.12
532.555	3434.96
532.76	3362.89
532.966	3320.46
533.171	3288.1
533.376	3204.4
533.581	3200.72
533.787	3272.79
533.992	3334.79
534.197	3313.29
534.402	3333.82
534.607	3339.44
534.813	3414.23
535.018	3353.97
535.223	3387.88
535.428	3359.21
535.633	3431.09
535.838	3468.29
536.043	3466.15
536.249	3610.69
536.454	3463.44
536.659	3536.87
536.864	3518.66
537.069	3421.98
537.274	3437.87
537.479	3418.1
537.684	3399.51
537.889	3322.78
538.094	3505.68
538.299	3439.22
538.504	3452.01
538.708	3440.77
538.913	3526.41
539.118	3514.2
539.323	3455.11
539.528	3399.12
539.733	3400.28
539.938	3431.28
540.142	3414.62
540.347	3373.35
540.552	3336.34
540.757	3335.76
540.962	3330.72
541.166	3298.95
541.371	3252.84
541.576	3346.81
541.781	3243.93
541.985	3388.07
542.19	3344.87
542.395	3523.5
542.599	3541.33
542.804	3416.36
543.008	3524.08
543.213	3436.12
543.418	3371.61
543.622	3477.2
543.827	3350.29
544.031	3510.91
544.236	3515.75
544.44	3474.49
544.645	3585.89
544.849	3530.28
545.054	3561.48
545.258	3619.8
545.463	3591.31
545.667	3447.36
545.872	3547.14
546.076	3508.2
546.281	3554.5
546.485	3467.32
546.689	3485.14
546.894	3533
547.098	3517.88
547.302	3472.94
547.507	3508.97
547.711	3515.17
547.915	3575.23
548.119	3437.48
548.324	3489.6
548.528	3523.31
548.732	3504.71
548.936	3514.4
549.141	3502
549.345	3536.48
549.549	3520.21
549.753	3515.95
549.957	3617.86
550.161	3594.61
550.366	3544.23
550.57	3536.87
550.774	3554.31
550.978	3554.5
551.182	3540.36
551.386	3492.31
551.59	3534.93
551.794	3475.65
551.998	3551.79
552.202	3541.72
552.406	3473.52
552.61	3634.91
552.814	3556.83
553.018	3597.13
553.222	3491.53
553.426	3486.69
553.63	3592.86
553.833	3507.62
554.037	3482.04
554.241	3488.24
554.445	3537.84
554.649	3495.22
554.853	3465.38
555.056	3554.12
555.26	3566.13
555.464	3535.32
555.668	3574.65
555.871	3564.97
556.075	3571.36
556.279	3483.98
556.483	3447.36
556.686	3501.22
556.89	3457.05
557.094	3457.05
557.297	3384.39
557.501	3478.17
557.704	3321.62
557.908	3438.25
558.112	3412.68
558.315	3469.45
558.519	3409.19
558.722	3401.44
558.926	3380.91
559.129	3294.49
559.333	3296.04
559.536	3299.92
559.74	3269.69
559.943	3252.06
560.147	3237.92
560.35	3306.12
560.553	3297.59
560.757	3241.79
560.96	3324.52
561.164	3334.02
561.367	3405.51
561.57	3355.33
561.774	3347.77
561.977	3295.46
562.18	3278.41
562.384	3390.59
562.587	3336.73
562.79	3314.06
562.993	3283.64
563.197	3354.56
563.4	3381.1
563.603	3377.03
563.806	3417.33
564.009	3318.52
564.212	3301.08
564.416	3277.64
564.619	3284.42
564.822	3246.83
565.025	3286.94
565.228	3271.63
565.431	3244.7
565.634	3160.03
565.837	3202.08
566.04	3138.14
566.243	3154.41
566.446	3045.72
566.649	3174.56
566.852	3056.38
567.055	3124.19
567.258	3165.07
567.461	3229.01
567.664	3219.32
567.867	3091.83
568.07	3095.71
568.273	3178.25
568.475	3217.58
568.678	3123.61
568.881	3098.23
569.084	3080.21
569.287	3016.27
569.489	3048.44
569.692	3116.25
569.895	3109.85
570.098	3028.87
570.3	3064.52
570.503	2961.64
570.706	3001.35
570.909	2983.14
571.111	2879.1
571.314	2888.01
571.516	2963.77
571.719	2968.8
571.922	2904.09
572.124	2954.47
572.327	2989.15
572.529	2928.31
572.732	2940.32
572.935	3018.79
573.137	3059.28
573.34	3023.83
573.542	3032.35
573.745	3015.5
573.947	3030.8
574.15	3012.01
574.352	2981.98
574.554	3027.32
574.757	2963.38
574.959	2931.22
575.162	2932.96
575.364	2908.55
575.566	2998.45
575.769	2897.51
575.971	2917.85
576.173	2771.18
576.376	2882.39
576.578	2939.16
576.78	2961.06
576.982	2839.38
577.185	2879.29
577.387	2849.84
577.589	2880.26
577.791	2905.64
577.993	2859.34
578.196	2867.09
578.398	2827.18
578.6	2866.89
578.802	2779.71
579.004	2773.7
579.206	2770.02
579.408	2834.54
579.61	2775.45
579.812	2882.39
580.014	2784.75
580.216	2804.12
580.418	2840.74
580.62	2792.88
580.822	2744.64
581.024	2814.39
581.226	2831.83
581.428	2791.91
581.63	2888.59
581.832	2761.3
582.034	2900.61
582.236	2821.75
582.438	2867.67
582.64	2898.09
582.841	2947.49
583.043	2947.88
583.245	2843.26
583.447	2857.79
583.649	2853.91
583.85	2873.09
584.052	2867.28
584.254	2796.95
584.456	2893.24
584.657	2793.85
584.859	2871.16
585.061	2808.19
585.262	2800.24
585.464	2781.45
585.666	2870.77
585.867	2722.55
586.069	2827.37
586.27	2759.75
586.472	2766.15
586.674	2744.45
586.875	2734.76
587.077	2763.43
587.278	2793.27
587.48	2753.94
587.681	2882.01
587.883	2790.94
588.084	2680.12
588.285	2715.58
588.487	2707.25
588.688	2727.2
588.89	2633.04
589.091	2571.24
589.292	2527.06
589.494	2490.25
589.695	2419.34
589.896	2346.49
590.098	2367.41
590.299	2414.3
590.5	2430.96
590.702	2437.55
590.903	2519.7
591.104	2578.4
591.305	2604.95
591.507	2655.9
591.708	2631.49
591.909	2575.89
592.11	2671.4
592.311	2622.19
592.512	2575.5
592.714	2534.04
592.915	2542.75
593.116	2553.8
593.317	2605.92
593.518	2577.63
593.719	2584.8
593.92	2666.95
594.121	2650.09
594.322	2585.38
594.523	2576.08
594.724	2548.18
594.925	2598.94
595.126	2572.59
595.327	2582.28
595.528	2546.44
595.729	2610.18
595.929	2582.47
596.13	2590.03
596.331	2630.33
596.532	2603.59
596.733	2696.98
596.934	2655.13
597.135	2661.91
597.335	2628
597.536	2570.27
597.737	2578.99
597.938	2590.8
598.138	2593.52
598.339	2592.16
598.54	2602.43
598.74	2531.32
598.941	2559.61
599.142	2642.34
599.342	2599.72
599.543	2540.82
599.744	2524.93
599.944	2571.24
600.145	2579.18
600.345	2577.82
600.546	2610.37
600.746	2617.15
600.947	2653
601.147	2600.88
601.348	2628.78
601.548	2536.75
601.749	2574.92
601.949	2479.21
602.15	2517.18
602.35	2521.06
602.551	2569.88
602.751	2452.08
602.951	2514.08
603.152	2470.49
603.352	2548.18
603.552	2549.73
603.753	2623.93
603.953	2604.17
604.153	2607.47
604.354	2568.52
604.554	2560.58
604.754	2556.12
604.954	2503.23
605.155	2581.5
605.355	2548.18
605.555	2609.21
605.755	2639.24
605.955	2549.34
606.155	2591.58
606.356	2531.9
606.556	2590.22
606.756	2536.55
606.956	2510.21
607.156	2607.08
607.356	2465.26
607.556	2548.37
607.756	2507.11
607.956	2579.95
608.156	2517.57
608.356	2444.91
608.556	2526.09
608.756	2492.77
608.956	2447.24
609.156	2498.39
609.356	2453.82
609.556	2424.18
609.755	2455.37
609.955	2451.5
610.155	2452.47
610.355	2470.29
610.555	2385.63
610.755	2443.56
610.954	2382.91
611.154	2441.62
611.354	2450.92
611.554	2404.61
611.753	2411.01
611.953	2377.49
612.153	2455.57
612.352	2443.17
612.552	2368.19
612.752	2327.89
612.951	2393.57
613.151	2373.03
613.351	2354.04
613.55	2411.2
613.75	2377.88
613.949	2376.33
614.149	2367.61
614.348	2375.74
614.548	2349.01
614.747	2255.43
614.947	2315.68
615.146	2246.71
615.346	2415.08
615.545	2360.05
615.745	2313.36
615.944	2364.51
616.144	2342.81
616.343	2350.75
616.542	2244.58
616.742	2271.9
616.941	2293.98
617.14	2184.9
617.34	2290.88
617.539	2298.05
617.738	2238.38
617.938	2352.3
618.137	2327.89
618.336	2251.55
618.535	2319.75
618.734	2305.03
618.934	2282.94
619.133	2308.51
619.332	2371.48
619.531	2288.56
619.73	2316.07
619.929	2334.09
620.128	2313.75
620.328	2324.01
620.527	2265.11
620.726	2324.4
620.925	2332.93
621.124	2310.65
621.323	2318.98
621.522	2246.32
621.721	2300.57
621.92	2246.52
622.119	2261.05
622.318	2219.78
622.517	2266.08
622.715	2247.87
622.914	2185.87
623.113	2245.93
623.312	2154.1
623.511	2221.91
623.71	2201.18
623.909	2189.55
624.107	2273.25
624.306	2127.55
624.505	2158.75
624.704	2122.13
624.902	2138.6
625.101	2189.94
625.3	2172.31
625.499	2154.68
625.697	2115.35
625.896	2107.4
626.095	2147.51
626.293	2055.67
626.492	2088.61
626.69	2119.42
626.889	2154.68
627.088	2152.55
627.286	2147.32
627.485	2121.55
627.683	2114.57
627.882	2135.89
628.08	2038.82
628.279	2084.16
628.477	2115.54
628.676	2008.79
628.874	2075.24
629.073	2031.65
629.271	2038.43
629.469	2098.49
629.668	2058.19
629.866	2036.88
630.065	2046.96
630.263	2064.01
630.461	1980.69
630.66	2044.05
630.858	2078.34
631.056	2117.48
631.254	2123.29
631.453	2019.64
631.651	2087.45
631.849	2026.03
632.047	2022.74
632.245	2055.48
632.444	2045.02
632.642	2094.62
632.84	2086.87
633.038	2050.83
633.236	2003.75
633.434	2045.79
633.632	1998.91
633.83	2013.82
634.028	2076.02
634.227	2048.7
634.425	2125.42
634.623	1968.1
634.821	2035.52
635.019	2048.12
635.216	1997.16
635.414	2090.55
635.612	2041.92
635.81	2041.92
636.008	2061.29
636.206	2052.96
636.404	2035.14
636.602	2038.04
636.8	2011.11
636.997	2036.11
637.195	2083.19
637.393	2015.37
637.591	2092.29
637.789	2061.49
637.986	2035.91
638.184	2060.32
638.382	2080.09
638.58	2094.23
638.777	2079.7
638.975	2039.98
639.173	2064.59
639.37	2051.61
639.568	2089.39
639.765	2033.59
639.963	1996
640.161	2051.61
640.358	2046.18
640.556	1965.19
640.753	1952.79
640.951	1968.1
641.148	1980.89
641.346	1945.82
641.543	1969.46
641.741	2006.85
641.938	1915.4
642.136	1966.16
642.333	1909.59
642.531	2020.22
642.728	2046.37
642.925	1971.39
643.123	1979.73
643.32	2007.04
643.517	1938.46
643.715	1960.54
643.912	1937.29
644.109	1970.43
644.306	1993.09
644.504	1921.02
644.701	1975.27
644.898	1991.16
645.095	1928.19
645.293	1958.99
645.49	1938.07
645.687	1945.63
645.884	1955.12
646.081	1894.48
646.278	1876.46
646.475	1897
646.672	1879.75
646.87	1865.61
647.067	1879.36
647.264	1871.03
647.461	1848.95
647.658	1797.02
647.855	1888.28
648.052	1824.15
648.249	1748
648.446	1827.25
648.642	1831.7
648.839	1796.83
649.036	1821.82
649.233	1787.14
649.43	1791.21
649.627	1723.2
649.824	1806.13
650.021	1768.15
650.217	1743.35
650.414	1741.22
650.611	1795.86
650.808	1789.08
651.004	1857.28
651.201	1840.23
651.398	1915.59
651.595	1816.78
651.791	1792.57
651.988	1859.02
652.185	1784.23
652.381	1808.45
652.578	1753.23
652.775	1769.9
652.971	1790.05
653.168	1784.04
653.364	1854.56
653.561	1769.32
653.757	1783.07
653.954	1814.85
654.15	1749.17
654.347	1836.16
654.543	1787.53
654.74	1708.29
654.936	1703.64
655.133	1744.52
655.329	1736.57
655.525	1692.79
655.722	1699.76
655.918	1671.09
656.115	1645.32
656.311	1578.28
656.507	1475.21
656.704	1470.56
656.9	1481.02
657.096	1517.83
657.292	1485.48
657.489	1581.19
657.685	1586.61
657.881	1586.61
658.077	1564.53
658.273	1610.25
658.47	1683.29
658.666	1628.66
658.862	1693.17
659.058	1655.97
659.254	1696.85
659.45	1680.97
659.646	1658.88
659.842	1715.84
660.038	1777.26
660.234	1652.29
660.43	1697.44
660.626	1750.52
660.822	1700.54
661.018	1737.54
661.214	1717.39
661.41	1677.09
661.606	1721.07
661.802	1773.38
661.998	1711.39
662.194	1682.9
662.39	1753.43
662.586	1729.02
662.781	1742.38
662.977	1757.88
663.173	1757.3
663.369	1724.95
663.564	1702.28
663.76	1726.89
663.956	1722.24
664.152	1727.85
664.347	1644.35
664.543	1683.29
664.739	1661.4
664.934	1646.87
665.13	1633.89
665.326	1746.65
665.521	1697.05
665.717	1658.3
665.912	1725.34
666.108	1619.94
666.304	1675.74
666.499	1648.22
666.695	1601.72
666.89	1661.01
667.086	1707.9
667.281	1683.1
667.477	1743.74
667.672	1683.68
667.867	1706.35
668.063	1724.95
668.258	1605.79
668.454	1664.69
668.649	1725.14
668.844	1681.94
669.04	1708.67
669.235	1663.72
669.43	1644.74
669.626	1586.81
669.821	1678.84
670.016	1629.04
670.211	1662.75
670.407	1627.11
670.602	1671.67
670.797	1637.96
670.992	1689.88
671.187	1639.12
671.382	1704.99
671.578	1618.97
671.773	1677.67
671.968	1561.81
672.163	1639.12
672.358	1622.26
672.553	1601.14
672.748	1600.17
672.943	1692.01
673.138	1669.54
673.333	1651.71
673.528	1570.34
673.723	1632.53
673.918	1638.54
674.113	1584.87
674.308	1728.44
674.503	1660.82
674.698	1662.56
674.892	1629.04
675.087	1643.38
675.282	1642.61
675.477	1576.73
675.672	1660.43
675.867	1571.31
676.061	1585.45
676.256	1549.8
676.451	1563.17
676.646	1621.29
676.84	1580.02
677.035	1529.65
677.23	1548.06
677.424	1636.6
677.619	1633.31
677.814	1655.39
678.008	1668.37
678.203	1548.06
678.397	1569.17
678.592	1587.39
678.787	1650.55
678.981	1595.52
679.176	1609.86
679.37	1561.23
679.565	1554.84
679.759	1537.59
679.954	1608.89
680.148	1583.32
680.342	1587.77
680.537	1589.71
680.731	1585.26
680.926	1566.07
681.12	1617.42
681.314	1559.88
681.509	1567.43
681.703	1547.28
681.897	1566.46
682.092	1557.36
682.286	1533.33
682.48	1641.83
682.674	1574.6
682.869	1572.86
683.063	1547.09
683.257	1652.68
683.451	1523.26
683.645	1574.6
683.839	1529.84
684.034	1538.56
684.228	1591.84
684.422	1485.86
684.616	1487.03
684.81	1571.5
685.004	1509.31
685.198	1494.97
685.392	1542.05
685.586	1498.65
685.78	1512.99
685.974	1488.77
686.168	1522.09
686.362	1543.79
686.556	1449.63
686.75	1431.23
686.944	1364.58
687.138	1367.87
687.331	1239.03
687.525	1277.78
687.719	1182.65
687.913	1210.94
688.107	1285.72
688.301	1221.98
688.494	1328.15
688.688	1237.48
688.882	1240.39
689.076	1206.09
689.269	1270.42
689.463	1349.08
689.657	1264.02
689.85	1264.22
690.044	1285.92
690.238	1297.54
690.431	1253.75
690.625	1285.53
690.818	1317.11
691.012	1342.1
691.205	1358.38
691.399	1296.96
691.593	1343.46
691.786	1412.05
691.98	1411.66
692.173	1432
692.366	1391.7
692.56	1397.51
692.753	1407.59
692.947	1353.73
693.14	1427.35
693.333	1438.4
693.527	1368.65
693.72	1432.39
693.914	1388.99
694.107	1360.51
694.3	1394.61
694.493	1367.29
694.687	1436.07
694.88	1378.33
695.073	1448.66
695.266	1412.05
695.46	1403.52
695.653	1439.56
695.846	1412.63
696.039	1348.3
696.232	1400.03
696.425	1470.75
696.618	1464.16
696.812	1431.23
697.005	1518.61
697.198	1588.36
697.391	1507.76
697.584	1549.03
697.777	1581.57
697.97	1552.71
698.163	1561.04
698.356	1557.74
698.549	1671.09
698.742	1586.81
698.935	1568.98
699.127	1600.76
699.32	1545.73
699.513	1555.03
699.706	1594.17
699.899	1648.22
700.092	1569.17
700.285	1630.01
700.477	1525.58
700.67	1656.55
700.863	1631.76
701.056	1705.19
701.248	1698.21
701.441	1669.54
701.634	1633.89
701.826	1785.4
702.019	1617.61
702.212	1723.59
702.404	1678.64
702.597	1654.04
702.79	1663.34
702.982	1737.74
703.175	1748.39
703.367	1733.47
703.56	1783.27
703.752	1873.16
703.945	1856.11
704.137	1831.9
704.33	1847.78
704.522	1895.45
704.715	1909.01
704.907	1929.93
705.1	1944.27
705.292	1956.28
705.484	1929.16
705.677	1958.22
705.869	1970.43
706.061	2033.59
706.254	2058
706.446	2013.24
706.638	2043.08
706.831	2086.29
707.023	2048.12
707.215	2137.63
707.407	2177.54
707.599	2145.96
707.792	2203.5
707.984	2170.37
708.176	2234.12
708.368	2192.65
708.56	2242.64
708.752	2198.08
708.944	2206.41
709.136	2280.81
709.329	2260.27
709.521	2378.84
709.713	2336.61
709.905	2331.18
710.097	2398.03
710.289	2345.33
710.481	2408.1
710.672	2414.3
710.864	2418.18
711.056	2490.83
711.248	2460.22
711.44	2454.02
711.632	2496.84
711.824	2534.42
712.016	2595.84
712.207	2539.07
712.399	2573.56
712.591	2614.05
712.783	2614.63
712.975	2657.07
713.166	2612.7
713.358	2655.32
713.55	2692.91
713.741	2665.59
713.933	2707.05
714.125	2719.84
714.316	2674.31
714.508	2800.63
714.7	2791.72
714.891	2796.56
715.083	2858.95
715.274	2811.48
715.466	2783.2
715.657	2908.74
715.849	2771.18
716.04	2828.53
716.232	2797.73
716.423	2829.5
716.615	2781.84
716.806	2750.06
716.998	2734.95
717.189	2616.18
717.381	2536.36
717.572	2541.2
717.763	2544.89
717.955	2523.57
718.146	2492.96
718.337	2468.16
718.528	2453.44
718.72	2342.23
718.911	2400.35
719.102	2340.68
719.293	2425.15
719.485	2374.58
719.676	2426.31
719.867	2380.59
720.058	2382.72
720.249	2368.77
720.44	2396.48
720.632	2438.33
720.823	2535.59
721.014	2613.67
721.205	2633.82
721.396	2772.73
721.587	2874.26
721.778	2925.21
721.969	2955.05
722.16	2993.41
722.351	3028.87
722.542	3170.88
722.733	3172.43
722.924	3086.8
723.115	3196.07
723.305	3159.65
723.496	3138.33
723.687	3040.88
723.878	3028.67
724.069	3022.86
724.26	3056.18
724.45	2967.25
724.641	2978.3
724.832	3060.25
725.023	2992.83
725.213	2973.07
725.404	3027.32
725.595	3005.81
725.785	2945.94
725.976	3096.48
726.167	3078.85
726.357	3091.25
726.548	3191.23
726.739	3080.98
726.929	3203.05
727.12	3214.48
727.31	3296.04
727.501	3232.88
727.691	3220.1
727.882	3239.66
728.072	3308.44
728.263	3287.52
728.453	3388.85
728.644	3378.39
728.834	3337.12
729.024	3333.82
729.215	3297.21
729.405	3383.04
729.596	3437.48
729.786	3436.9
729.976	3465.38
730.167	3507.03
730.357	3443.1
730.547	3458.79
730.737	3541.52
730.928	3550.05
731.118	3607.78
731.308	3571.94
731.498	3601.39
731.688	3727.71
731.879	3700.01
732.069	3732.94
732.259	3774.99
732.449	3811.41
732.639	3876.12
732.829	3921.27
733.019	3956.33
733.209	4057.47
733.399	4018.53
733.589	4118.89
733.779	4097.58
733.969	4154.15
734.159	4236.3
734.349	4278.92
734.539	4338.02
734.729	4298.49
734.919	4382.19
735.109	4433.34
735.299	4372.7
735.488	4401.76
735.678	4400.6
735.868	4356.81
736.058	4382.77
736.248	4396.72
736.437	4401.95
736.627	4360.3
736.817	4419.58
737.007	4429.66
737.196	4486.81
737.386	4476.74
737.576	4443.03
737.765	4497.47
737.955	4490.5
738.144	4658.47
738.334	4573.61
738.524	4490.69
738.713	4575.36
738.903	4565.67
739.092	4588.14
739.282	4570.9
739.471	4625.73
739.661	4550.56
739.85	4677.66
740.04	4628.64
740.229	4634.06
740.419	4688.7
740.608	4712.14
740.797	4652.66
740.987	4729
741.176	4697.03
741.365	4690.83
741.555	4656.73
741.744	4774.14
741.933	4678.04
742.123	4655.18
742.312	4763.87
742.501	4799.33
742.69	4822.19
742.88	4693.16
743.069	4835.37
743.258	4820.64
743.447	4893.88
743.636	4888.65
743.825	4851.06
744.014	4868.3
744.204	4889.61
744.393	4816.38
744.582	4917.13
744.771	4952.78
744.96	4854.16
745.149	4916.93
745.338	4834.4
745.527	4958.59
745.716	4893.1
745.905	4904.15
746.094	4975.83
746.283	4980.48
746.471	4930.69
746.66	4953.75
746.849	5039.77
747.038	5024.08
747.227	4960.72
747.416	4952.58
747.604	4908.8
747.793	4926.43
747.982	4951.23
748.171	4996.37
748.359	5003.93
748.548	4943.86
748.737	4972.73
748.926	4968.47
749.114	4855.13
749.303	4983
749.491	4955.88
749.68	4866.75
749.869	4972.93
750.057	4901.43
750.246	4933.79
750.434	4906.66
750.623	4914.8
750.811	4918.87
751	4916.93
751.188	4899.5
751.377	4830.91
751.565	4875.47
751.754	4877.6
751.942	4845.83
752.131	4942.7
752.319	4854.16
752.507	4844.08
752.696	4925.85
752.884	4880.9
753.072	4888.06
753.261	4871.21
753.449	4858.23
753.637	4802.43
753.825	4946.38
754.014	4881.28
754.202	4819.09
754.39	4884
754.578	4928.95
754.766	4806.3
754.955	4817.15
755.143	4898.14
755.331	4823.74
755.519	4895.62
755.707	4844.47
755.895	4792.74
756.083	4817.93
756.271	4767.94
756.459	4758.64
756.647	4880.32
756.835	4757.09
757.023	4780.54
757.211	4768.72
757.399	4754.96
757.587	4772.2
757.775	4701.1
757.963	4724.35
758.151	4744.3
758.339	4707.69
758.526	4657.7
758.714	4725.9
758.902	4609.26
759.09	4514.52
759.278	4292.87
759.465	4039.26
759.653	3588.02
759.841	3318.71
760.028	2944.97
760.216	2583.25
760.404	2416.24
760.591	2095.2
760.779	1839.45
760.967	1661.59
761.154	1466.88
761.342	1515.12
761.529	1538.56
761.717	1573.44
761.905	1622.26
762.092	1789.85
762.28	1752.27
762.467	1749.94
762.655	1694.92
762.842	1727.27
763.029	1788.69
763.217	1811.36
763.404	1816.01
763.592	1839.06
763.779	1799.54
763.966	1888.66
764.154	1946.4
764.341	1967.33
764.528	2008.79
764.716	2064.97
764.903	2169.02
765.09	2245.74
765.277	2293.79
765.465	2469.91
765.652	2516.21
765.839	2617.54
766.026	2751.03
766.213	2821.56
766.4	2900.99
766.588	3097.07
766.775	3127.48
766.962	3263.3
767.149	3356.11
767.336	3507.03
767.523	3488.24
767.71	3607.59
767.897	3753.09
768.084	3798.82
768.271	3818
768.458	3900.92
768.645	3944.71
768.832	3941.61
769.019	4002.25
769.206	4034.41
769.392	4098.35
769.579	4169.65
769.766	4148.14
769.953	4125.09
770.14	4144.85
770.327	4174.49
770.513	4194.06
770.7	4260.52
770.887	4161.51
771.073	4205.11
771.26	4215.37
771.447	4204.52
771.634	4166.94
771.82	4296.17
772.007	4127.22
772.193	4249.47
772.38	4221.38
772.567	4208.4
772.753	4182.05
772.94	4238.43
773.126	4231.26
773.313	4249.47
773.499	4213.44
773.686	4195.42
773.872	4181.66
774.059	4206.66
774.245	4122.96
774.432	4204.72
774.618	4091.18
774.804	4141.75
774.991	4103
775.177	4137.1
775.363	4109.59
775.55	4120.24
775.736	4026.28
775.922	4072
776.109	4097.19
776.295	4091.57
776.481	4104.36
776.667	4084.79
776.853	4067.93
777.04	4026.47
777.226	4050.5
777.412	4162.87
777.598	4041.78
777.784	4052.24
777.97	3973.77
778.156	4052.63
778.342	4011.75
778.528	4000.7
778.715	3926.11
778.901	3973.58
779.087	3979
779.272	3933.67
779.458	3921.46
779.644	3944.9
779.83	3953.23
780.016	3993.15
780.202	3934.83
780.388	3928.63
780.574	3825.94
780.76	3876.12
780.946	3940.06
781.131	3861.4
781.317	3848.8
781.503	3812.19
781.689	3861.59
781.874	3973.97
782.06	3800.17
782.246	3873.02
782.432	3854.62
782.617	3820.91
782.803	3884.45
782.989	3770.14
783.174	3783.9
783.36	3739.92
783.545	3793.01
783.731	3769.17
783.916	3696.13
784.102	3778.86
784.288	3747.09
784.473	3728.29
784.659	3669.01
784.844	3710.47
785.029	3695.36
785.215	3692.64
785.4	3661.26
785.586	3780.02
785.771	3588.41
785.956	3663.39
786.142	3604.49
786.327	3631.42
786.512	3638.2
786.698	3641.11
786.883	3508.2
787.068	3577.75
787.254	3601.97
787.439	3567.68
787.624	3563.03
787.809	3541.72
787.994	3529.7
788.18	3603.91
788.365	3468.48
788.55	3504.13
788.735	3502
788.92	3495.02
789.105	3494.44
789.29	3514.2
789.475	3420.04
789.66	3476.81
789.845	3380.91
790.03	3402.02
790.215	3477
790.4	3418.49
790.585	3472.74
790.77	3413.65
790.955	3364.24
791.14	3413.84
791.325	3534.74
791.51	3309.41
791.695	3397.57
791.879	3358.62
792.064	3338.28
792.249	3459.76
792.434	3427.4
792.618	3333.63
792.803	3403.38
792.988	3386.91
793.173	3394.47
793.357	3395.82
793.542	3348.94
793.727	3358.24
793.911	3403.77
794.096	3352.81
794.281	3379.94
794.465	3450.27
794.65	3334.99
794.834	3412.87
795.019	3447.17
795.203	3428.95
795.388	3439.22
795.572	3473.71
795.757	3454.53
795.941	3394.27
796.126	3449.3
796.31	3376.84
796.494	3416.36
796.679	3412.68
796.863	3328.01
797.048	3469.06
797.232	3431.28
797.416	3446.59
797.601	3460.34
797.785	3503.93
797.969	3498.12
798.153	3413.07
798.338	3497.15
798.522	3456.47
798.706	3487.47
798.89	3485.14
799.074	3563.03
799.258	3579.5
799.443	3490.57
799.627	3437.29
799.811	3526.99
799.995	3457.24
800.179	3447.94
800.363	3418.69
800.547	3466.93
800.731	3510.13
800.915	3410.74
801.099	3427.79
801.283	3420.04
801.467	3441.74
801.651	3446.2
801.835	3472.94
802.019	3486.69
802.202	3431.28
802.386	3388.85
802.57	3419.07
802.754	3391.37
802.938	3333.63
803.121	3408.8
803.305	3489.6
803.489	3421.2
803.673	3445.81
803.856	3455.5
804.04	3414.62
804.224	3450.07
804.407	3422.95
804.591	3378.58
804.775	3360.17
804.958	3409.39
805.142	3534.74
805.326	3396.21
805.509	3433.6
805.693	3496.96
805.876	3490.37
806.06	3450.65
806.243	3464.8
806.427	3511.49
806.61	3473.32
806.794	3451.43
806.977	3475.26
807.16	3449.3
807.344	3457.05
807.527	3441.74
807.71	3395.44
807.894	3395.24
808.077	3473.9
808.26	3392.14
808.444	3379.36
808.627	3475.45
808.81	3310.77
808.993	3310.77
809.177	3307.67
809.36	3304.18
809.543	3355.14
809.726	3240.44
809.909	3203.43
810.092	3228.62
810.276	3227.07
810.459	3205.18
810.642	3223.78
810.825	3134.27
811.008	3226.88
811.191	3101.91
811.374	3133.1
811.557	3173.79
811.74	3183.67
811.923	3086.99
812.106	3079.82
812.289	3101.33
812.472	3034.87
812.654	3027.12
812.837	3013.95
813.02	2965.12
813.203	2967.84
813.386	2859.73
813.569	2794.43
813.751	2728.95
813.934	2759.75
814.117	2718.48
814.3	2714.22
814.482	2668.5
814.665	2575.11
814.848	2539.46
815.03	2523.77
815.213	2485.21
815.396	2487.34
815.578	2456.73
815.761	2394.73
815.943	2475.33
816.126	2336.03
816.309	2359.28
816.491	2304.25
816.674	2188.97
816.856	2262.02
817.039	2277.32
817.221	2342.81
817.403	2260.66
817.586	2257.37
817.768	2301.15
817.951	2201.37
818.133	2200.98
818.315	2207.57
818.498	2286.04
818.68	2319.17
818.862	2306
819.045	2329.05
819.227	2286.23
819.409	2234.89
819.591	2320.72
819.774	2259.3
819.956	2227.33
820.138	2313.55
820.32	2284.1
820.502	2386.79
820.684	2428.64
820.866	2418.37
821.048	2512.34
821.231	2491.22
821.413	2508.46
821.595	2466.61
821.777	2480.17
821.959	2486.18
822.141	2546.05
822.323	2409.65
822.505	2340.68
822.686	2274.61
822.868	2177.35
823.05	2121.94
823.232	2072.72
823.414	1960.93
823.596	2064.01
823.778	2027.58
823.96	2041.14
824.141	2041.92
824.323	2070.01
824.505	2181.42
824.687	2175.8
824.868	2234.89
825.05	2343.2
825.232	2393.38
825.413	2474.75
825.595	2425.34
825.777	2341.06
825.958	2422.05
826.14	2382.72
826.321	2454.79
826.503	2444.91
826.685	2391.44
826.866	2459.64
827.048	2437.55
827.229	2403.26
827.411	2375.94
827.592	2304.25
827.773	2289.91
827.955	2254.07
828.136	2268.41
828.318	2225.98
828.499	2241.67
828.68	2152.74
828.862	2214.35
829.043	2226.75
829.224	2180.64
829.406	2164.56
829.587	2175.02
829.768	2163.01
829.949	2188.97
830.131	2178.12
830.312	2259.69
830.493	2206.8
830.674	2155.07
830.855	2147.32
831.036	2184.32
831.218	2248.45
831.399	2257.17
831.58	2240.9
831.761	2189.17
831.942	2188.78
832.123	2208.54
832.304	2069.24
832.485	2128.91
832.666	2157.78
832.847	2200.98
833.028	2187.23
833.209	2120.77
833.389	2114.77
833.57	2093.45
833.751	2144.22
833.932	2186.65
834.113	2169.21
834.294	2155.45
834.475	2169.6
834.655	2233.73
834.836	2183.55
835.017	2200.21
835.198	2149.45
835.378	2172.5
835.559	2279.26
835.74	2141.7
835.92	2218.23
836.101	2172.5
836.281	2219.39
836.462	2198.47
836.643	2249.81
836.823	2250.97
837.004	2251.17
837.184	2254.27
837.365	2264.34
837.545	2246.71
837.726	2201.18
837.906	2299.99
838.087	2237.6
838.267	2253.3
838.448	2195.17
838.628	2188.78
838.808	2213.19
838.989	2248.65
839.169	2175.22
839.349	2236.83
839.53	2262.98
839.71	2258.72
839.89	2175.02
840.07	2238.77
840.251	2180.64
840.431	2275.77
840.611	2197.3
840.791	2154.68
840.971	2260.66
841.151	2166.69
841.332	2201.18
841.512	2233.34
841.692	2138.21
841.872	2195.17
842.052	2156.23
842.232	2205.44
842.412	2136.47
842.592	2142.47
842.772	2203.5
842.952	2171.54
843.132	2157.2
843.312	2135.89
843.492	2116.9
843.672	2191.1
843.851	2083.77
844.031	2150.42
844.211	2094.23
844.391	2093.26
844.571	2147.9
844.751	2149.84
844.93	2094.42
845.11	2106.05
845.29	2095.97
845.47	2142.67
845.649	2083.77
845.829	2138.02
846.009	2089.39
846.188	2127.17
846.368	2087.26
846.547	2106.24
846.727	2154.87
846.907	2047.34
847.086	2085.51
847.266	2091.13
847.445	2054.9
847.625	2089.19
847.804	2063.62
847.984	2066.72
848.163	2018.09
848.343	2060.91
848.522	2096.55
848.701	2037.27
848.881	2013.05
849.06	2036.69
849.239	2055.29
849.419	2035.33
849.598	1961.71
849.777	1955.51
849.957	1898.93
850.136	1878.59
850.315	1841.78
850.494	1860.57
850.674	1870.65
850.853	1935.55
851.032	1914.82
851.211	1955.51
851.39	1929.16
851.569	1844.68
851.748	1858.83
851.927	1936.13
852.107	1890.41
852.286	1875.49
852.465	1863.48
852.644	1934.19
852.823	1915.21
853.002	1899.71
853.181	1894.67
853.359	1885.76
853.538	1804.77
853.717	1911.33
853.896	1749.17
854.075	1694.34
854.254	1692.4
854.433	1619.74
854.611	1614.12
854.79	1574.41
854.969	1659.27
855.148	1670.12
855.327	1613.35
855.505	1689.49
855.684	1703.25
855.863	1714.68
856.041	1710.03
856.22	1725.14
856.399	1721.85
856.577	1811.94
856.756	1828.8
856.934	1904.75
857.113	1894.86
857.291	1803.42
857.47	1793.34
857.648	1789.47
857.827	1787.33
858.005	1839.84
858.184	1764.28
858.362	1908.81
858.541	1819.69
858.719	1769.12
858.898	1766.99
859.076	1769.51
859.254	1855.15
859.433	1773.58
859.611	1766.41
859.789	1735.02
859.967	1816.98
860.146	1834.61
860.324	1721.46
860.502	1758.85
860.68	1703.64
860.859	1732.89
861.037	1735.6
861.215	1741.61
861.393	1714.1
861.571	1737.54
861.749	1701.7
861.927	1726.69
862.105	1764.67
862.283	1709.45
862.461	1707.7
862.639	1676.51
862.817	1685.23
862.995	1705.19
863.173	1692.2
863.351	1690.27
863.529	1702.28
863.707	1741.03
863.885	1724.75
864.063	1644.54
864.241	1671.67
864.418	1723.2
864.596	1651.52
864.774	1624.2
864.952	1636.41
865.129	1655
865.307	1632.72
865.485	1590.29
865.663	1634.47
865.84	1571.5
866.018	1566.66
866.196	1447.31
866.373	1459.71
866.551	1375.82
866.728	1381.24
866.906	1432
867.084	1436.26
867.261	1477.15
867.439	1492.84
867.616	1519.38
867.794	1502.33
867.971	1544.57
868.149	1543.79
868.326	1586.03
868.503	1566.27
868.681	1550.96
868.858	1552.71
869.035	1496.13
869.213	1546.51
869.39	1560.46
869.567	1612.77
869.745	1528.68
869.922	1544.96
870.099	1538.76
870.276	1532.75
870.454	1543.6
870.631	1553.68
870.808	1540.89
870.985	1562.78
871.162	1558.71
871.339	1560.07
871.517	1478.89
871.694	1494.97
871.871	1497.88
872.048	1472.5
872.225	1513.96
872.402	1498.84
872.579	1449.83
872.756	1539.14
872.933	1482.18
873.11	1464.16
873.287	1492.26
873.463	1460.48
873.64	1436.07
873.817	1471.72
873.994	1452.35
874.171	1442.08
874.348	1485.48
874.524	1398.68
874.701	1436.85
874.878	1351.4
875.055	1407.4
875.231	1404.49
875.408	1440.53
875.585	1361.48
875.762	1379.3
875.938	1398.29
876.115	1362.45
876.291	1353.73
876.468	1399.06
876.645	1360.12
876.821	1347.72
876.998	1376.4
877.174	1392.28
877.351	1364.38
877.527	1357.6
877.704	1356.25
877.88	1342.68
878.057	1345.2
878.233	1377.75
878.409	1368.45
878.586	1375.43
878.762	1367.48
878.938	1330.87
879.115	1311.88
879.291	1362.83
879.467	1248.72
879.644	1346.56
879.82	1348.5
879.996	1309.55
880.172	1252.4
880.349	1315.95
880.525	1333
880.701	1255.69
880.877	1256.08
881.053	1300.06
881.229	1286.89
881.405	1354.5
881.581	1262.86
881.757	1253.56
881.933	1305.1
882.109	1295.99
882.285	1333.97
882.461	1266.35
882.637	1293.28
882.813	1247.75
882.989	1288.82
883.165	1348.5
883.341	1252.4
883.517	1344.82
883.693	1303.93
883.869	1324.86
884.044	1279.52
884.22	1312.07
884.396	1321.57
884.572	1291.34
884.747	1333.97
884.923	1291.54
885.099	1338.23
885.275	1331.45
885.45	1274.87
885.626	1286.89
885.801	1256.08
885.977	1269.25
886.153	1221.59
886.328	1301.22
886.504	1248.14
886.679	1279.72
886.855	1216.36
887.03	1290.95
887.206	1307.81
887.381	1241.35
887.557	1293.86
887.732	1296.57
887.908	1307.23
888.083	1339.58
888.258	1271.58
888.434	1262.67
888.609	1269.25
888.784	1325.83
888.96	1293.47
889.135	1242.52
889.31	1239.22
889.485	1286.3
889.661	1242.52
889.836	1304.13
890.011	1311.88
890.186	1246.39
890.361	1232.44
890.537	1272.16
890.712	1284.95
890.887	1294.83
891.062	1294.83
891.237	1302.58
891.412	1247.94
891.587	1283.4
891.762	1298.12
891.937	1290.76
892.112	1250.27
892.287	1265.19
892.462	1215.78
892.637	1181.87
892.812	1166.18
892.987	1193.5
893.161	1171.22
893.336	1208.81
893.511	1187.3
893.686	1194.08
893.861	1159.4
894.035	1175.67
894.21	1189.24
894.385	1121.23
894.56	1181.68
894.734	1100.5
894.909	1114.26
895.084	1099.92
895.258	1083.45
895.433	1081.71
895.608	1072.79
895.782	1003.05
895.957	1051.48
896.131	1021.45
896.306	986
896.48	966.23
896.655	979.41
896.829	894.16
897.004	889.9
897.178	913.34
897.353	921.09
897.527	918.77
897.701	947.25
897.876	858.7
898.05	966.62
898.224	949.57
898.399	976.7
898.573	920.7
898.747	798.25
898.921	837.78
899.096	769.58
899.27	734.32
899.444	787.4
899.618	831
899.792	822.67
899.967	807.36
900.141	878.85
900.315	804.84
900.489	767.06
900.663	830.8
900.837	795.93
901.011	745.75
901.185	856.19
901.359	794.57
901.533	810.07
901.707	793.99
901.881	809.3
902.055	752.92
902.229	780.62
902.403	857.74
902.576	815.5
902.75	834.49
902.924	920.32
903.098	867.62
903.272	918.38
903.446	935.23
903.619	942.02
903.793	930.2
903.967	953.83
904.14	988.51
904.314	1007.5
904.488	972.63
904.661	1029.98
904.835	955.58
905.009	1029.78
905.182	1043.73
905.356	1012.93
905.529	992.58
905.703	983.48
905.876	957.71
906.05	909.27
906.223	895.13
906.397	880.21
906.57	849.79
906.744	801.55
906.917	829.84
907.09	816.66
907.264	798.84
907.437	757.57
907.61	727.54
907.784	759.12
907.957	804.45
908.13	743.04
908.304	768.22
908.477	717.27
908.65	731.61
908.823	708.16
908.996	783.72
909.17	721.53
909.343	690.92
909.516	739.55
909.689	712.42
909.862	704.09
910.035	700.22
910.208	694.41
910.381	679.1
910.554	794.96
910.727	708.74
910.9	700.02
911.073	688.59
911.246	786.82
911.419	790.89
911.592	762.8
911.765	701.38
911.938	709.52
912.11	711.65
912.283	694.02
912.456	770.55
912.629	723.86
912.802	687.63
912.974	635.51
913.147	625.63
913.32	573.9
913.493	576.8
913.665	622.33
913.838	648.88
914.01	586.88
914.183	657.79
914.356	655.85
914.528	683.17
914.701	721.14
914.873	689.56
915.046	623.69
915.218	599.66
915.391	552.39
915.563	531.08
915.736	596.76
915.908	647.13
916.081	619.62
916.253	610.13
916.425	600.44
916.598	629.11
916.77	617.49
916.942	605.48
917.115	565.56
917.287	614.39
917.459	593.85
917.632	531.85
917.804	498.33
917.976	570.6
918.148	575.45
918.32	605.48
918.493	634.93
918.665	646.36
918.837	641.9
919.009	657.4
919.181	685.49
919.353	664.18
919.525	623.69
919.697	640.74
919.869	643.06
920.041	703.9
920.213	772.49
920.385	687.24
920.557	649.46
920.729	668.44
920.901	632.02
921.073	641.71
921.244	622.72
921.416	656.82
921.588	640.35
921.76	598.31
921.932	699.64
922.103	594.63
922.275	634.34
922.447	645.97
922.619	537.47
922.79	628.14
922.962	601.8
923.134	646.16
923.305	593.66
923.477	547.74
923.648	577.58
923.82	564.98
923.991	530.5
924.163	549.1
924.335	564.79
924.506	552.78
924.677	576.8
924.849	544.06
925.02	570.41
925.192	605.67
925.363	531.08
925.535	564.6
925.706	546.19
925.877	602.18
926.049	518.1
926.22	589.98
926.391	567.5
926.562	589.01
926.734	551.42
926.905	578.35
927.076	496.4
927.247	548.13
927.419	465.4
927.59	468.5
927.761	476.44
927.932	466.37
928.103	473.73
928.274	395.07
928.445	418.7
928.616	455.9
928.787	422.58
928.958	447.77
929.129	415.22
929.3	411.15
929.471	360.97
929.642	287.73
929.813	298
929.984	397.2
930.155	281.53
930.326	342.95
930.496	289.67
930.667	251.89
930.838	324.74
931.009	226.51
931.18	265.64
931.35	238.33
931.521	248.01
931.692	184.66
931.863	169.16
932.033	184.85
932.204	199.58
932.374	205.39
932.545	158.89
932.716	212.36
932.886	230.58
933.057	133.51
933.227	113.55
933.398	194.54
933.568	120.53
933.739	102.51
933.909	85.26
934.08	158.89
934.25	39.73
934.421	76.93
934.591	127.5
934.761	106.19
934.932	59.5
935.102	141.45
935.272	97.47
935.443	102.31
935.613	88.95
935.783	113.55
935.953	68.02
936.123	246.27
936.294	94.18
936.464	76.35
936.634	92.24
936.804	74.61
936.974	46.52
937.144	131.38
937.314	97.86
937.484	80.03
937.655	67.05
937.825	131.38
937.995	70.54
938.165	115.3
938.334	96.89
938.504	150.95
938.674	96.5
938.844	139.9
939.014	202.09
939.184	187.76
939.354	224.57
939.524	217.21
939.694	128.47
939.863	164.7
940.033	211.59
940.203	210.23
940.373	214.88
940.542	216.43
940.712	176.71
940.882	184.85
941.051	222.05
941.221	170.32
941.391	189.11
941.56	157.15
941.73	146.68
941.899	268.36
942.069	161.21
942.238	164.12
942.408	131.96
942.577	190.66
942.747	156.95
942.916	94.37
943.086	119.56
943.255	176.71
943.425	158.5
943.594	123.82
943.763	67.25
943.933	76.35
944.102	42.45
944.271	131.18
944.441	126.15
944.61	143.97
944.779	131.57
944.948	202.48
945.117	103.86
945.287	93.98
945.456	65.12
945.625	111.81
945.794	142.42
945.963	101.93
946.132	135.64
946.301	90.3
946.47	151.33
946.639	85.65
946.808	112.2
946.977	133.31
947.146	156.76
947.315	80.23
947.484	128.86
947.653	144.55
947.822	103.09
947.991	94.56
948.16	193.96
948.329	162.76
948.498	102.31
948.666	117.04
948.835	152.88
949.004	84.88
949.173	90.88
949.341	101.73
949.51	131.38
949.679	150.36
949.847	167.22
950.016	198.22
950.185	166.06
950.353	117.04
950.522	120.33
950.69	160.63
950.859	85.46
951.028	166.83
951.196	147.46
951.365	137
951.533	128.28
951.701	162.96
951.87	159.08
952.038	75.19
952.207	115.88
952.375	176.91
952.543	105.61
952.712	122.08
952.88	96.7
953.048	171.29
953.217	101.15
953.385	126.53
953.553	182.91
953.721	81.2
953.89	143.97
954.058	69.96
954.226	78.29
954.394	117.81
954.562	80.42
954.73	99.21
954.898	133.31
955.067	131.76
955.235	106.77
955.403	161.6
955.571	179.04
955.739	117.43
955.907	70.35
956.075	80.61
956.243	109.87
956.41	128.66
956.578	96.5
956.746	67.63
956.914	122.46
957.082	141.45
957.25	127.5
957.418	129.25
957.585	128.66
957.753	176.13
957.921	93.6
958.089	124.21
958.256	126.73
958.424	149.59
958.592	146.1
958.759	105.61
958.927	165.67
959.095	84.49
959.262	112.39
959.43	109.87
959.597	92.05
959.765	118.98
959.932	83.52
960.1	149.4
960.267	138.35
960.435	112.78
960.602	144.55
960.77	117.43
960.937	88.95
961.104	103.67
961.272	55.04
961.439	103.28
961.606	133.31
961.774	137.38
961.941	110.65
962.108	122.27
962.275	139.71
962.443	142.42
962.61	140.1
962.777	183.69
962.944	162.57
963.111	148.04
963.278	157.15
963.446	127.89
963.613	128.28
963.78	159.28
963.947	149.2
964.114	151.33
964.281	215.27
964.448	168.19
964.615	119.56
964.782	149.4
964.949	154.24
965.116	176.71
965.282	168.38
965.449	129.63
965.616	115.1
965.783	166.45
965.95	154.24
966.117	85.26
966.283	138.35
966.45	127.31
966.617	126.34
966.784	165.67
966.95	164.9
967.117	173.42
967.284	133.31
967.45	124.98
967.617	201.51
967.784	157.53
967.95	211.78
968.117	161.99
968.283	187.56
968.45	245.69
968.616	162.76
968.783	172.26
968.949	176.33
969.116	210.62
969.282	138.74
969.449	184.46
969.615	185.04
969.781	109.68
969.948	141.26
970.114	129.63
970.28	187.18
970.447	122.66
970.613	192.6
970.779	148.23
970.945	182.33
971.112	156.95
971.278	177.29
971.444	175.36
971.61	166.64
971.776	134.86
971.942	179.62
972.108	172.26
972.275	151.53
972.441	188.53
972.607	220.89
972.773	129.25
972.939	178.84
973.105	156.56
973.271	124.79
973.437	126.73
973.602	102.12
973.768	162.38
973.934	117.04
974.1	175.94
974.266	79.65
974.432	165.28
974.598	120.53
974.763	175.94
974.929	129.05
975.095	163.93
975.261	105.03
975.426	80.03
975.592	117.04
975.758	195.12
975.923	95.34
976.089	131.76
976.255	171.09
976.42	137.77
976.586	174
976.751	160.83
976.917	209.46
977.082	157.92
977.248	89.72
977.413	71.7
977.579	124.79
977.744	149.78
977.91	99.8
978.075	133.51
978.24	150.36
978.406	121.11
978.571	113.75
978.736	112.39
978.902	137.58
979.067	92.82
979.232	93.79
979.397	143.2
979.563	191.24
979.728	97.66
979.893	134.86
980.058	103.67
980.223	147.65
980.388	157.15
980.554	123.63
980.719	94.76
980.884	140.48
981.049	180.39
981.214	111.03
981.379	145.33
981.544	94.37
981.709	123.05
981.874	96.7
982.039	132.54
982.204	135.25
982.368	109.68
982.533	78.87
982.698	146.1
982.863	160.44
983.028	111.81
983.193	123.24
983.357	151.53
983.522	111.81
983.687	124.01
983.852	113.55
984.016	112.2
984.181	121.88
984.346	136.22
984.51	177.88
984.675	114.13
984.839	135.64
985.004	116.07
985.168	141.84
985.333	141.06
985.498	109.48
985.662	147.07
985.827	125.37
985.991	99.41
986.155	107.16
986.32	160.83
986.484	177.1
986.649	151.14
986.813	87.59
986.977	138.74
987.142	137.58
987.306	98.44
987.47	64.73
987.634	89.91
987.799	130.02
987.963	114.91
988.127	133.12
988.291	208.49
988.455	125.76
988.62	126.53
988.784	143.97
988.948	117.04
989.112	59.3
989.276	128.47
989.44	116.85
989.604	92.24
989.768	108.9
989.932	183.88
990.096	98.63
990.26	76.93
990.424	56.2
990.588	88.75
990.752	177.49
990.915	149.98
991.079	92.24
991.243	72.09
991.407	131.57
991.571	100.96
991.734	99.41
991.898	140.87
992.062	180.2
992.226	84.88
992.389	63.76
992.553	45.55
992.717	66.08
992.88	82.94
993.044	108.71
993.207	73.64
993.371	133.12
993.535	96.5
993.698	114.91
993.862	143.2
994.025	152.5
994.189	103.28
994.352	116.85
994.515	80.61
994.679	146.1
994.842	90.69
995.006	134.28
995.169	54.07
995.332	80.81
995.496	121.3
995.659	43.22
995.822	86.23
995.985	109.29
996.149	142.03
996.312	90.5
996.475	152.11
996.638	98.83
996.801	108.71
996.964	178.84
997.128	91.66
997.291	118.01
997.454	122.46
997.617	32.37
997.78	118.2
997.943	68.6
998.106	95.15
998.269	66.47
998.432	92.05
998.595	67.63
998.758	54.46
998.92	45.93
999.083	25.4
999.246	82.94
999.409	51.94
999.572	28.69
999.735	55.82
999.897	105.8
1000.06	66.08
1000.223	74.22
1000.386	130.99
1000.548	94.18
1000.711	75
1000.874	112.39
1001.036	32.37
1001.199	125.56
1001.361	67.25
1001.524	74.42
1001.687	108.9
1001.849	64.15
1002.012	82.75
1002.174	103.09
1002.337	116.26
1002.499	54.65
1002.661	104.64
1002.824	38.96
1002.986	59.88
1003.149	76.16
1003.311	55.04
1003.473	118.59
1003.636	53.3
1003.798	89.72
1003.96	86.04
1004.123	54.07
1004.285	78.68
1004.447	63.57
1004.609	69.57
1004.771	128.08
1004.933	23.85
1005.096	45.16
1005.258	20.17
1005.42	44.97
1005.582	116.46
1005.744	90.3
1005.906	32.76
1006.068	75.38
1006.23	21.72
1006.392	14.16
1006.554	37.02
1006.716	111.03
1006.878	78.48
1007.04	24.23
1007.202	54.27
1007.363	105.61
1007.525	84.88
1007.687	84.1
1007.849	100.57
1008.011	20.94
1008.172	-7.73
1008.334	42.83
1008.496	69.57
1008.658	22.49
1008.819	13.77
1008.981	4.86
1009.143	52.72
1009.304	37.22
1009.466	52.13
1009.627	103.48
1009.789	159.28
1009.95	83.71
1010.112	57.75
1010.273	71.12
1010.435	50.78
1010.596	68.6
1010.758	43.61
1010.919	36.05
1011.081	28.88
1011.242	60.85
1011.403	63.95
1011.565	52.33
1011.726	54.65
1011.887	10.09
1012.049	29.27
1012.21	79.84
1012.371	110.06
1012.532	-32.92
1012.693	71.32
1012.855	8.35
1013.016	23.65
1013.177	97.66
1013.338	55.04
1013.499	123.82
1013.66	56.98
1013.821	62.21
1013.982	72.87
1014.143	29.85
1014.304	14.74
1014.465	53.88
1014.626	87.01
1014.787	51.36
1014.948	124.79
1015.109	-10.64
1015.27	75.19
1015.431	11.64
1015.592	11.83
1015.752	100.38
1015.913	66.67
1016.074	56.4
1016.235	81
1016.395	43.22
1016.556	18.62
1016.717	39.93
1016.877	87.4
1017.038	17.65
1017.199	63.18
1017.359	45.55
1017.52	42.45
1017.681	11.25
1017.841	28.5
1018.002	31.02
1018.162	35.08
1018.323	88.17
1018.483	37.22
1018.644	12.42
1018.804	1.76
1018.964	12.42
1019.125	26.75
1019.285	50
1019.446	13.19
1019.606	26.75
1019.766	-30.21
1019.926	45.16
1020.087	62.6
1020.247	17.84
1020.407	39.93
1020.567	82.75
1020.728	16.29
1020.888	-3.86
1021.048	28.69
1021.208	22.88
1021.368	17.07
1021.528	76.93
1021.688	60.27
1021.848	55.43
1022.008	40.7
1022.168	24.62
1022.328	4.67
1022.488	83.71
1022.648	24.04
1022.808	28.5
1022.968	58.92
1023.128	13.58
1023.288	24.04
1023.448	34.7
1023.608	48.26
1023.767	72.48
1023.927	-2.12
1024.087	-11.22
1024.247	0.79
1024.406	0.4
1024.566	-16.06
1024.726	-2.7
1024.885	18.23
1025.045	58.33
1025.205	32.76
1025.364	26.75
1025.524	44.77
1025.683	19.78
1025.843	46.13
1026.003	29.08
1026.162	105.61
1026.321	57.17
1026.481	36.44
1026.64	27.53
1026.8	17.26
1026.959	43.22
1027.119	51.75
1027.278	1.57
1027.437	5.05
1027.597	32.37
1027.756	25.98
1027.915	38.96
1028.074	46.71
1028.234	-3.08
1028.393	39.54
1028.552	39.93
1028.711	-48.23
1028.87	69.38
1029.03	-21.3
1029.189	23.46
1029.348	-37.96
1029.507	7.18
1029.666	17.65
1029.825	-2.5
1029.984	-3.08
1030.143	28.5
1030.302	18.62
1030.461	-19.94
1030.62	19.2
1030.779	62.21
1030.938	18.81
1031.097	9.7
1031.255	48.84
1031.414	74.22
1031.573	60.85
1031.732	-20.91
1031.891	-21.1
1032.049	71.9
1032.208	32.37
1032.367	10.09
1032.525	27.53
1032.684	19.78
1032.843	19.78
1033.001	-22.65
1033.16	176.71
1033.319	58.72
1033.477	31.6
1033.636	-3.47
1033.794	-37.38
1033.953	68.8
1034.111	44.97
1034.27	-24.2
1034.428	38.38
1034.587	-16.45
1034.745	24.23
1034.903	31.79
1035.062	41.09
1035.22	-48.42
1035.378	53.1
1035.537	4.08
1035.695	26.56
1035.853	28.88
1036.011	43.61
1036.17	48.26
1036.328	-50.75
1036.486	21.52
1036.644	40.7
1036.802	-70.31
1036.96	-14.32
1037.119	29.85
1037.277	-5.41
1037.435	-30.6
1037.593	-38.35
1037.751	19.39
1037.909	31.21
1038.067	31.21
