Data from gum_old_FLMT105791__53__15-43-41-257.txt Node

Date: Mon Mar 20 15:43:41 GMT 2023
User: antho
Spectrometer: FLMT10579
Trigger mode: 0
Integration Time (sec): 1.000000E-1
Scans to average: 10
Electric dark correction enabled: true
Nonlinearity correction enabled: false
Boxcar width: 0
XAxis mode: Wavelengths
Number of Pixels in Spectrum: 3648
>>>>>Begin Spectral Data<<<<<
345.248	-179.83
345.464	-179.83
345.681	-179.83
345.898	-193.97
346.114	-180.8
346.331	-39.17
346.548	27.29
346.764	3.84
346.981	0.94
347.197	-19.79
347.414	33.1
347.631	-28.71
347.847	65.65
348.064	4.42
348.28	22.83
348.497	-55.64
348.713	-14.76
348.93	39.3
349.146	19.73
349.363	10.62
349.579	17.6
349.796	27.67
350.012	30
350.229	58.87
350.445	40.65
350.661	17.6
350.878	40.07
351.094	42.98
351.311	33.29
351.527	37.36
351.743	9.07
351.96	55.57
352.176	29.22
352.392	47.82
352.609	60.61
352.825	28.64
353.041	39.49
353.257	32.52
353.474	17.21
353.69	33.1
353.906	23.41
354.122	7.52
354.339	86.77
354.555	31.16
354.771	15.85
354.987	104.01
355.203	109.05
355.42	-1.97
355.636	11.4
355.852	-1.58
356.068	40.07
356.284	-12.43
356.5	80.37
356.716	45.11
356.932	46.08
357.148	59.25
357.364	32.13
357.58	59.45
357.796	74.17
358.012	70.3
358.228	48.21
358.444	-27.74
358.66	71.07
358.876	39.88
359.092	-1
359.308	40.27
359.524	43.56
359.74	14.89
359.956	6.17
360.172	34.07
360.388	84.05
360.604	10.24
360.819	86.57
361.035	52.09
361.251	62.16
361.467	6.17
361.683	75.14
361.898	47.82
362.114	106.33
362.33	57.12
362.546	76.11
362.762	40.85
362.977	53.44
363.193	6.94
363.409	48.4
363.624	12.17
363.84	4.62
364.056	30
364.271	44.34
364.487	68.94
364.703	51.89
364.918	15.27
365.134	33.87
365.35	43.95
365.565	146.25
365.781	41.24
365.996	49.18
366.212	120.28
366.427	69.52
366.643	65.84
366.858	68.75
367.074	43.56
367.289	101.1
367.505	141.79
367.72	30
367.936	62.16
368.151	79.21
368.367	66.04
368.582	68.55
368.798	59.84
369.013	113.12
369.228	67
369.444	69.52
369.659	121.64
369.874	76.89
370.09	124.16
370.305	-10.49
370.52	47.24
370.736	107.88
370.951	54.6
371.166	104.2
371.381	119.32
371.597	97.62
371.812	47.63
372.027	37.17
372.242	90.06
372.458	144.12
372.673	54.8
372.888	53.64
373.103	62.74
373.318	156.71
373.533	90.64
373.749	73.79
373.964	5.78
374.179	98.39
374.394	12.76
374.609	117.18
374.824	25.93
375.039	114.67
375.254	43.17
375.469	102.27
375.684	83.28
375.899	95.68
376.114	81.15
376.329	73.2
376.544	100.33
376.759	110.79
376.974	48.6
377.189	56.93
377.404	61.77
377.619	95.68
377.834	41.04
378.049	50.34
378.264	61.39
378.478	98.97
378.693	87.74
378.908	127.84
379.123	92.39
379.338	108.27
379.553	93.74
379.767	108.85
379.982	92.97
380.197	107.69
380.412	84.44
380.626	98.97
380.841	177.63
381.056	118.15
381.271	150.32
381.485	59.45
381.7	50.15
381.915	93.74
382.129	62.94
382.344	88.51
382.559	80.18
382.773	105.17
382.988	15.66
383.202	78.82
383.417	54.41
383.632	180.35
383.846	66.62
384.061	80.18
384.275	36.78
384.49	118.35
384.704	88.51
384.919	96.07
385.133	98
385.348	105.95
385.562	76.11
385.777	147.22
385.991	97.81
386.206	84.05
386.42	88.51
386.634	138.69
386.849	122.03
387.063	125.13
387.277	84.44
387.492	61.58
387.706	53.44
387.92	27.67
388.135	132.88
388.349	114.67
388.563	99.75
388.778	105.17
388.992	122.61
389.206	115.63
389.42	201.66
389.635	94.52
389.849	120.28
390.063	173.57
390.277	120.28
390.491	193.33
390.706	164.27
390.92	166.78
391.134	123.77
391.348	158.65
391.562	94.52
391.776	135.01
391.99	119.7
392.205	166.2
392.419	102.65
392.633	129.97
392.847	180.15
393.061	93.35
393.275	170.85
393.489	127.65
393.703	105.95
393.917	122.8
394.131	68.55
394.345	121.45
394.559	166.59
394.773	120.28
394.986	145.08
395.2	132.68
395.414	176.28
395.628	129.78
395.842	160.58
396.056	150.12
396.27	114.86
396.484	161.55
396.697	158.65
396.911	179.77
397.125	147.8
397.339	134.23
397.553	116.6
397.766	158.45
397.98	185.77
398.194	195.85
398.408	176.08
398.621	211.15
398.835	255.91
399.049	194.88
399.262	262.69
399.476	262.5
399.69	254.55
399.903	303.96
400.117	216
400.331	248.55
400.544	214.64
400.758	350.07
400.971	252.42
401.185	282.26
401.398	218.13
401.612	286.52
401.826	285.36
402.039	277.03
402.253	247.58
402.466	282.26
402.68	261.91
402.893	263.66
403.106	286.13
403.32	275.28
403.533	296.79
403.747	249.32
403.96	279.74
404.174	317.33
404.387	255.33
404.6	253.97
404.814	291.36
405.027	284.97
405.24	265.6
405.454	269.28
405.667	325.46
405.88	210.96
406.094	282.64
406.307	302.21
406.52	275.48
406.733	235.18
406.947	216.77
407.16	370.41
407.373	311.51
407.586	259.4
407.799	254.55
408.012	339.22
408.226	266.37
408.439	325.85
408.652	264.43
408.865	298.34
409.078	353.56
409.291	347.36
409.504	291.36
409.717	326.43
409.93	314.61
410.143	328.95
410.357	260.56
410.57	240.6
410.783	275.28
410.996	289.81
411.209	283.42
411.421	336.89
411.634	325.27
411.847	311.51
412.06	347.16
412.273	344.84
412.486	344.84
412.699	447.33
412.912	320.43
413.125	374.67
413.338	341.35
413.55	390.37
413.763	339.61
413.976	342.13
414.189	316.94
414.402	318.1
414.615	403.54
414.827	349.49
415.04	384.75
415.253	386.3
415.466	389.21
415.678	435.32
415.891	338.83
416.104	340.96
416.316	323.33
416.529	342.71
416.742	413.23
416.954	409.74
417.167	396.37
417.38	389.59
417.592	400.64
417.805	335.93
418.017	323.33
418.23	358.59
418.442	317.13
418.655	340.58
418.868	383.39
419.08	394.63
419.293	401.22
419.505	376.22
419.718	387.07
419.93	423.31
420.142	354.72
420.355	426.79
420.567	426.02
420.78	400.44
420.992	388.62
421.205	461.86
421.417	370.61
421.629	389.4
421.842	404.32
422.054	333.21
422.266	439.19
422.479	428.54
422.691	362.28
422.903	404.71
423.115	367.51
423.328	370.22
423.54	401.02
423.752	396.37
423.964	391.53
424.177	402.77
424.389	380.29
424.601	491.7
424.813	421.37
425.025	444.62
425.238	425.05
425.45	388.24
425.662	381.46
425.874	709.66
426.086	393.27
426.298	446.36
426.51	412.46
426.722	429.12
426.934	414.78
427.146	425.63
427.358	388.62
427.57	452.56
427.782	401.22
427.994	399.67
428.206	405.48
428.418	364.02
428.63	466.12
428.842	455.47
429.054	460.5
429.266	424.08
429.478	384.75
429.69	397.15
429.902	358.79
430.114	430.28
430.325	400.64
430.537	336.51
430.749	368.47
430.961	269.47
431.173	312.68
431.384	374.09
431.596	260.56
431.808	375.84
432.02	452.37
432.231	480.65
432.443	531.61
432.655	487.24
432.867	422.14
433.078	488.6
433.29	525.6
433.502	506.04
433.713	480.85
433.925	501.97
434.136	545.37
434.348	441.52
434.56	413.23
434.771	545.75
434.983	399.47
435.194	437.26
435.406	473.29
435.617	538.78
435.829	587.99
436.04	548.47
436.252	531.22
436.463	577.33
436.675	563.77
436.886	588.18
437.098	553.31
437.309	621.9
437.521	573.85
437.732	552.92
437.943	545.95
438.155	542.27
438.366	511.85
438.578	596.32
438.789	518.24
439	546.14
439.211	500.61
439.423	515.34
439.634	561.25
439.845	566.87
440.057	571.13
440.268	616.67
440.479	557.18
440.69	594
440.902	548.08
441.113	569.78
441.324	557.77
441.535	588.57
441.746	649.02
441.957	558.35
442.168	571.13
442.38	631.2
442.591	615.31
442.802	590.32
443.013	611.82
443.224	626.93
443.435	591.67
443.646	624.42
443.857	603.3
444.068	571.72
444.279	592.06
444.49	700.95
444.701	623.83
444.912	737.37
445.123	684.28
445.334	664.13
445.545	664.13
445.756	610.47
445.967	606.2
446.178	634.1
446.388	655.8
446.599	650.38
446.81	640.88
447.021	584.7
447.232	660.65
447.443	697.26
447.653	596.71
447.864	706.76
448.075	673.63
448.286	683.31
448.496	678.47
448.707	739.5
448.918	632.16
449.129	766.43
449.339	646.5
449.55	696.68
449.761	662.2
449.971	701.33
450.182	695.91
450.393	710.44
450.603	679.05
450.814	732.53
451.024	713.73
451.235	762.17
451.446	794.91
451.656	767.4
451.867	718.96
452.077	713.93
452.288	755.58
452.498	741.63
452.709	710.63
452.919	729.43
453.13	682.35
453.34	732.33
453.55	627.71
453.761	727.29
453.971	698.62
454.182	706.95
454.392	702.88
454.602	743.38
454.813	752.09
455.023	726.71
455.233	693.39
455.444	706.95
455.654	637.2
455.864	710.83
456.075	708.31
456.285	682.54
456.495	714.31
456.705	743.96
456.916	797.24
457.126	784.45
457.336	759.26
457.546	689.9
457.756	734.66
457.967	801.31
458.177	732.91
458.387	764.49
458.597	707.15
458.807	720.51
459.017	712.96
459.227	724.39
459.437	705.01
459.647	794.14
459.857	789.29
460.068	689.51
460.278	810.61
460.488	742.79
460.698	797.63
460.908	749.77
461.117	758.29
461.327	748.22
461.537	788.52
461.747	784.64
461.957	801.89
462.167	899.34
462.377	811.96
462.587	773.21
462.797	828.43
463.007	798.21
463.216	826.11
463.426	861.37
463.636	836.96
463.846	741.44
464.056	779.99
464.265	833.66
464.475	757.71
464.685	805.18
464.895	807.31
465.104	775.73
465.314	829.98
465.524	786.97
465.733	768.76
465.943	896.05
466.153	895.08
466.362	834.63
466.572	831.34
466.782	800.14
466.991	825.14
467.201	871.83
467.41	755.58
467.62	825.14
467.829	807.31
468.039	860.59
468.249	811.77
468.458	863.89
468.668	870.28
468.877	871.25
469.086	930.73
469.296	920.65
469.505	878.03
469.715	930.92
469.924	882.29
470.134	917.36
470.343	921.43
470.552	860.01
470.762	897.79
470.971	855.17
471.18	878.03
471.39	883.07
471.599	837.54
471.808	918.91
472.018	886.17
472.227	975.29
472.436	973.55
472.645	948.94
472.855	924.34
473.064	1055.12
473.273	986.14
473.482	1003.77
473.691	1003.77
473.901	996.99
474.11	964.25
474.319	1048.72
474.528	970.25
474.737	1081.27
474.946	1035.16
475.155	990.21
475.364	1096.38
475.573	1053.95
475.783	1081.27
475.992	1075.26
476.201	1119.25
476.41	1054.15
476.619	1016.75
476.828	1041.75
477.037	1026.83
477.245	1079.14
477.454	1094.45
477.663	1093.28
477.872	1121.76
478.081	1170.59
478.29	1083.98
478.499	1208.56
478.708	1164.39
478.917	1250.02
479.125	1151.99
479.334	1162.45
479.543	1172.91
479.752	1225.03
479.961	1206.24
480.169	1224.26
480.378	1167.88
480.587	1325.78
480.796	1255.26
481.004	1226.78
481.213	1253.9
481.422	1244.21
481.63	1229.29
481.839	1281.41
482.048	1314.35
482.256	1260.29
482.465	1297.3
482.674	1313.77
482.882	1336.05
483.091	1370.15
483.299	1308.92
483.508	1338.95
483.716	1324.42
483.925	1382.55
484.134	1285.29
484.342	1318.03
484.551	1378.67
484.759	1361.43
484.967	1383.52
485.176	1370.73
485.384	1363.56
485.593	1389.14
485.801	1360.65
486.01	1342.05
486.218	1279.28
486.426	1186.86
486.635	1175.24
486.843	1157.03
487.051	1205.85
487.26	1219.22
487.468	1249.83
487.676	1329.07
487.885	1268.82
488.093	1317.26
488.301	1386.42
488.509	1399.6
488.717	1448.23
488.926	1422.65
489.134	1370.54
489.342	1405.99
489.55	1363.56
489.758	1418
489.967	1410.25
490.175	1537.35
490.383	1458.11
490.591	1576.49
490.799	1470.32
491.007	1535.41
491.215	1489.69
491.423	1507.13
491.631	1513.13
491.839	1525.73
492.047	1519.14
492.255	1443.38
492.463	1414.32
492.671	1435.63
492.879	1522.43
493.087	1451.72
493.295	1506.55
493.503	1529.99
493.711	1568.93
493.919	1578.23
494.127	1573
494.334	1567.96
494.542	1470.12
494.75	1564.48
494.958	1559.83
495.166	1666.58
495.374	1613.88
495.581	1609.81
495.789	1633.26
495.997	1655.34
496.205	1585.4
496.412	1554.21
496.62	1596.06
496.828	1632.09
497.035	1597.41
497.243	1618.73
497.451	1654.57
497.658	1665.23
497.866	1636.74
498.074	1707.07
498.281	1611.75
498.489	1694.09
498.696	1620.86
498.904	1633.06
499.112	1599.93
499.319	1682.86
499.527	1629.77
499.734	1675.11
499.942	1600.51
500.149	1614.27
500.357	1683.63
500.564	1601.48
500.771	1664.64
500.979	1594.89
501.186	1588.69
501.394	1597.03
501.601	1576.88
501.808	1603.61
502.016	1607.68
502.223	1557.7
502.43	1578.81
502.638	1613.3
502.845	1596.83
503.052	1700.29
503.26	1643.14
503.467	1749.89
503.674	1656.12
503.881	1729.36
504.089	1764.04
504.296	1696.03
504.503	1573
504.71	1669.68
504.917	1585.21
505.125	1667.94
505.332	1683.63
505.539	1702.62
505.746	1787.09
505.953	1736.52
506.16	1738.46
506.367	1780.7
506.574	1821.77
506.781	1811.7
506.988	1751.83
507.195	1759.77
507.402	1735.94
507.609	1772.56
507.816	1740.98
508.023	1730.91
508.23	1700.29
508.437	1680.72
508.644	1713.66
508.851	1764.23
509.058	1764.04
509.265	1773.72
509.472	1769.65
509.679	1894.43
509.885	1806.47
510.092	1785.93
510.299	1759.77
510.506	1746.6
510.713	1765.97
510.92	1777.21
511.126	1828.94
511.333	1840.57
511.54	1847.35
511.746	1875.83
511.953	1862.07
512.16	1911.28
512.367	1827.59
512.573	1787.09
512.78	1853.93
512.987	1826.81
513.193	1846.19
513.4	1754.16
513.606	1778.18
513.813	1787.48
514.02	1812.67
514.226	1844.25
514.433	1833.01
514.639	1746.79
514.846	1779.54
515.052	1772.56
515.259	1809.37
515.465	1839.02
515.672	1831.07
515.878	1874.47
516.085	1843.28
516.291	1881.64
516.497	1813.25
516.704	1816.93
516.91	1783.8
517.117	1686.54
517.323	1616.59
517.529	1639.07
517.736	1666
517.942	1680.34
518.148	1686.54
518.354	1755.12
518.561	1735.94
518.767	1723.35
518.973	1752.02
519.179	1804.53
519.386	1756.09
519.592	1715.02
519.798	1734.2
520.004	1874.86
520.21	1817.32
520.417	1913.03
520.623	1930.85
520.829	1977.55
521.035	1923.49
521.241	1904.89
521.447	1940.73
521.653	2061.44
521.859	1956.04
522.065	1975.61
522.271	2040.9
522.477	2030.24
522.683	2089.14
522.889	1981.61
523.095	1978.32
523.301	1961.46
523.507	1972.31
523.713	1979.29
523.919	1965.15
524.125	2028.69
524.331	2032.96
524.537	2121.31
524.742	2143.59
524.948	2141.84
525.154	2130.61
525.36	2247.24
525.566	2105.23
525.772	2181.17
525.977	2109.88
526.183	2122.66
526.389	2199
526.595	2087.4
526.8	2056.79
527.006	1967.86
527.212	1901.02
527.417	1920.39
527.623	1886.68
527.829	1970.18
528.034	2073.06
528.24	2020.95
528.446	2049.23
528.651	2160.06
528.857	2140.29
529.062	2209.46
529.268	2194.93
529.473	2209.85
529.679	2200.94
529.884	2235.23
530.09	2259.25
530.295	2252.67
530.501	2230.97
530.706	2222.64
530.912	2164.12
531.117	2236.59
531.323	2267.97
531.528	2322.8
531.733	2319.9
531.939	2295.1
532.144	2340.24
532.35	2282.12
532.555	2325.71
532.76	2280.57
532.966	2281.54
533.171	2257.32
533.376	2219.92
533.581	2182.14
533.787	2229.22
533.992	2299.55
534.197	2314.86
534.402	2287.35
534.607	2298.78
534.813	2349.54
535.018	2278.44
535.223	2318.93
535.428	2326.68
535.633	2333.65
535.838	2384.61
536.043	2393.71
536.249	2439.63
536.454	2348.96
536.659	2394.3
536.864	2403.01
537.069	2361.36
537.274	2364.85
537.479	2357.68
537.684	2361.94
537.889	2302.27
538.094	2430.91
538.299	2398.36
538.504	2356.52
538.708	2406.5
538.913	2379.96
539.118	2410.18
539.323	2412.31
539.528	2373.37
539.733	2357.87
539.938	2372.21
540.142	2376.28
540.347	2334.04
540.552	2335.4
540.757	2295.68
540.962	2325.71
541.166	2244.92
541.371	2268.17
541.576	2274.17
541.781	2211.01
541.985	2362.13
542.19	2355.35
542.395	2416.19
542.599	2457.07
542.804	2429.56
543.008	2431.11
543.213	2371.43
543.418	2328.23
543.622	2396.81
543.827	2330.36
544.031	2410.96
544.236	2423.75
544.44	2384.03
544.645	2518.49
544.849	2432.85
545.054	2401.66
545.258	2523.33
545.463	2498.73
545.667	2407.66
545.872	2476.83
546.076	2441.57
546.281	2437.5
546.485	2400.3
546.689	2484.39
546.894	2457.65
547.098	2472.96
547.302	2402.24
547.507	2435.18
547.711	2451.65
547.915	2497.18
548.119	2391.39
548.324	2394.3
548.528	2459.2
548.732	2419.29
548.936	2420.06
549.141	2516.55
549.345	2456.1
549.549	2452.61
549.753	2488.26
549.957	2558.59
550.161	2547.16
550.366	2489.62
550.57	2444.09
550.774	2517.13
550.978	2456.49
551.182	2482.06
551.386	2441.57
551.59	2445.64
551.794	2445.06
551.998	2507.44
552.202	2441.18
552.406	2415.22
552.61	2515.97
552.814	2459.4
553.018	2557.43
553.222	2424.13
553.426	2416.19
553.63	2548.52
553.833	2470.24
554.037	2390.03
554.241	2449.71
554.445	2444.86
554.649	2453.97
554.853	2423.16
555.056	2482.45
555.26	2471.99
555.464	2471.99
555.668	2506.28
555.871	2495.04
556.075	2521.01
556.279	2409.99
556.483	2369.88
556.686	2409.99
556.89	2448.55
557.094	2431.11
557.297	2365.23
557.501	2465.59
557.704	2326.48
557.908	2444.09
558.112	2382.67
558.315	2442.35
558.519	2389.84
558.722	2364.07
558.926	2375.5
559.129	2291.61
559.333	2288.32
559.536	2254.8
559.74	2300.33
559.943	2229.61
560.147	2276.3
560.35	2272.82
560.553	2282.5
560.757	2246.47
560.96	2374.15
561.164	2249.57
561.367	2373.18
561.57	2316.02
561.774	2330.17
561.977	2314.86
562.18	2317.18
562.384	2356.52
562.587	2284.64
562.79	2278.82
562.993	2293.93
563.197	2348.57
563.4	2390.61
563.603	2352.25
563.806	2405.73
564.009	2309.24
564.212	2355.35
564.416	2224.77
564.619	2320.09
564.822	2262.16
565.025	2355.74
565.228	2269.91
565.431	2260.8
565.634	2176.14
565.837	2204.42
566.04	2178.46
566.243	2188.54
566.446	2118.21
566.649	2229.61
566.852	2130.02
567.055	2167.61
567.258	2224.96
567.461	2236.39
567.664	2242.01
567.867	2142.62
568.07	2199.97
568.273	2205.78
568.475	2241.24
568.678	2194.35
568.881	2157.54
569.084	2139.71
569.287	2038.77
569.489	2104.84
569.692	2168.58
569.895	2136.03
570.098	2099.22
570.3	2075.78
570.503	2041.87
570.706	2021.53
570.909	2033.34
571.111	2000.6
571.314	1999.05
571.516	2001.96
571.719	2025.79
571.922	1977.93
572.124	2020.75
572.327	2067.44
572.529	1997.11
572.732	1992.66
572.935	2038.77
573.137	2095.73
573.34	2032.96
573.542	2081.59
573.745	2100.77
573.947	2078.49
574.15	2007.77
574.352	1984.71
574.554	2081.39
574.757	2006.22
574.959	1951
575.162	1989.56
575.364	1984.91
575.566	2063.96
575.769	1946.35
575.971	1948.68
576.173	1860.72
576.376	1943.45
576.578	1984.13
576.78	1983.75
576.982	1898.88
577.185	1934.53
577.387	1905.28
577.589	1922.91
577.791	1952.55
577.993	1935.7
578.196	1883.97
578.398	1936.47
578.6	1948.1
578.802	1877.96
579.004	1874.08
579.206	1828.17
579.408	1897.14
579.61	1830.88
579.812	1950.23
580.014	1875.25
580.216	1883.38
580.418	1891.52
580.62	1891.91
580.822	1823.71
581.024	1893.46
581.226	1932.21
581.428	1862.65
581.63	1974.25
581.832	1822.55
582.034	1951.78
582.236	1865.95
582.438	1938.02
582.64	1943.83
582.841	1946.16
583.043	2022.69
583.245	1958.95
583.447	1933.18
583.649	1929.88
583.85	1911.67
584.052	1949.26
584.254	1862.27
584.456	1965.15
584.657	1847.35
584.859	1901.98
585.061	1870.79
585.262	1859.94
585.464	1778.18
585.666	1884.35
585.867	1844.25
586.069	1889.97
586.27	1869.24
586.472	1822.35
586.674	1814.02
586.875	1810.34
587.077	1839.21
587.278	1844.83
587.48	1844.64
587.681	1933.18
587.883	1857.42
588.084	1808.21
588.285	1842.89
588.487	1806.66
588.688	1827.2
588.89	1721.99
589.091	1709.59
589.292	1732.26
589.494	1660.19
589.695	1633.06
589.896	1562.54
590.098	1591.02
590.299	1621.05
590.5	1589.66
590.702	1604.58
590.903	1684.99
591.104	1731.29
591.305	1750.67
591.507	1726.84
591.708	1730.32
591.909	1688.47
592.11	1767.52
592.311	1759
592.512	1718.51
592.714	1634.42
592.915	1660.38
593.116	1671.62
593.317	1697.97
593.518	1680.34
593.719	1708.43
593.92	1735.75
594.121	1751.25
594.322	1714.63
594.523	1715.99
594.724	1689.83
594.925	1714.63
595.126	1705.33
595.327	1695.26
595.528	1708.24
595.729	1695.26
595.929	1675.49
596.13	1701.26
596.331	1699.32
596.532	1731.68
596.733	1745.24
596.934	1756.29
597.135	1742.34
597.335	1732.26
597.536	1652.63
597.737	1712.31
597.938	1670.26
598.138	1746.41
598.339	1650.11
598.54	1705.33
598.74	1663.48
598.941	1647.98
599.142	1732.65
599.342	1690.99
599.543	1690.02
599.744	1659.99
599.944	1640.43
600.145	1690.22
600.345	1705.33
600.546	1728.97
600.746	1711.72
600.947	1774.69
601.147	1667.94
601.348	1707.66
601.548	1630.35
601.749	1658.25
601.949	1645.08
602.15	1639.65
602.35	1642.17
602.551	1678.59
602.751	1624.15
602.951	1642.36
603.152	1601.48
603.352	1679.56
603.552	1647.4
603.753	1687.12
603.953	1643.14
604.153	1664.45
604.354	1671.81
604.554	1660.96
604.754	1648.76
604.954	1598.19
605.155	1703.97
605.355	1639.46
605.555	1702.42
605.755	1694.67
605.955	1653.6
606.155	1669.68
606.356	1652.83
606.556	1666.58
606.756	1716.76
606.956	1609.04
607.156	1687.12
607.356	1617.95
607.556	1641.78
607.756	1665.03
607.956	1689.44
608.156	1660.77
608.356	1607.68
608.556	1666.58
608.756	1623.38
608.956	1587.15
609.156	1606.33
609.356	1573.2
609.556	1575.52
609.755	1603.03
609.955	1529.02
610.155	1606.52
610.355	1625.7
610.555	1564.48
610.755	1547.62
610.954	1489.69
611.154	1611.36
611.354	1611.17
611.554	1570.1
611.753	1595.28
611.953	1536.96
612.153	1604.19
612.352	1576.49
612.552	1509.26
612.752	1477.1
612.951	1546.07
613.151	1555.56
613.351	1515.46
613.55	1526.5
613.75	1569.9
613.949	1535.22
614.149	1546.26
614.348	1490.27
614.548	1470.9
614.747	1436.6
614.947	1532.31
615.146	1421.3
615.346	1573.2
615.545	1487.56
615.745	1500.73
615.944	1530.38
616.144	1504.8
616.343	1522.24
616.542	1474.77
616.742	1505.58
616.941	1468.38
617.14	1403.86
617.34	1470.7
617.539	1483.49
617.738	1444.16
617.938	1511
618.137	1477.48
618.336	1432.92
618.535	1495.7
618.734	1456.75
618.934	1456.56
619.133	1486.4
619.332	1510.23
619.531	1429.82
619.73	1450.94
619.929	1499.38
620.128	1494.53
620.328	1516.43
620.527	1436.99
620.726	1477.29
620.925	1490.85
621.124	1422.46
621.323	1472.06
621.522	1426.72
621.721	1424.78
621.92	1415.48
622.119	1479.81
622.318	1394.17
622.517	1426.92
622.715	1417.81
622.914	1390.88
623.113	1409.48
623.312	1352.32
623.511	1413.16
623.71	1376.35
623.909	1377.12
624.107	1469.54
624.306	1344.96
624.505	1379.84
624.704	1395.34
624.902	1365.11
625.101	1449.39
625.3	1422.07
625.499	1372.28
625.697	1383.13
625.896	1365.3
626.095	1390.69
626.293	1320.16
626.492	1384.87
626.69	1402.31
626.889	1360.27
627.088	1416.65
627.286	1333.92
627.485	1344.96
627.683	1354.26
627.882	1398.63
628.08	1302.53
628.279	1321.32
628.477	1406.38
628.676	1335.66
628.874	1330.24
629.073	1288.97
629.271	1274.44
629.469	1369.95
629.668	1328.3
629.866	1316.48
630.065	1295.75
630.263	1354.45
630.461	1266.88
630.66	1354.07
630.858	1314.54
631.056	1385.26
631.254	1326.94
631.453	1247.7
631.651	1333.53
631.849	1308.73
632.047	1315.9
632.245	1270.17
632.444	1314.54
632.642	1344.19
632.84	1341.09
633.038	1280.44
633.236	1264.75
633.434	1283.35
633.632	1259.71
633.83	1284.71
634.028	1318.42
634.227	1265.33
634.425	1352.52
634.623	1293.62
634.821	1336.82
635.019	1289.74
635.216	1276.37
635.414	1328.1
635.612	1298.46
635.81	1268.04
636.008	1344.77
636.206	1274.44
636.404	1301.95
636.602	1281.22
636.8	1319
636.997	1303.89
637.195	1308.15
637.393	1282.57
637.591	1330.24
637.789	1298.07
637.986	1325.01
638.184	1313.77
638.382	1359.49
638.58	1361.43
638.777	1363.56
638.975	1313.19
639.173	1283.16
639.37	1288.77
639.568	1278.89
639.765	1337.79
639.963	1276.18
640.161	1335.08
640.358	1331.79
640.556	1211.66
640.753	1257.19
640.951	1208.18
641.148	1281.8
641.346	1228.71
641.543	1239.37
641.741	1262.04
641.938	1189.58
642.136	1234.91
642.333	1207.59
642.531	1269.21
642.728	1288.58
642.925	1247.31
643.123	1235.88
643.32	1238.98
643.517	1224.45
643.715	1234.53
643.912	1232.39
644.109	1263.2
644.306	1206.04
644.504	1187.64
644.701	1239.76
644.898	1273.47
645.095	1215.54
645.293	1198.1
645.49	1239.56
645.687	1220.77
645.884	1236.27
646.081	1153.93
646.278	1195.78
646.475	1188.61
646.672	1200.23
646.87	1211.47
647.067	1179.69
647.264	1214.18
647.461	1128.35
647.658	1132.23
647.855	1198.88
648.052	1159.93
648.249	1088.44
648.446	1177.18
648.642	1135.52
648.839	1124.28
649.036	1126.22
649.233	1076.81
649.43	1100.06
649.627	1084.37
649.824	1102.58
650.021	1109.17
650.217	1113.05
650.414	1093.09
650.611	1149.47
650.808	1097.35
651.004	1162.64
651.201	1123.9
651.398	1177.95
651.595	1142.69
651.791	1095.61
651.988	1152.57
652.185	1092.51
652.381	1155.67
652.578	1093.09
652.775	1146.18
652.971	1104.71
653.168	1071.97
653.364	1175.43
653.561	1058.02
653.757	1087.86
653.954	1110.91
654.15	1094.45
654.347	1173.88
654.543	1095.41
654.74	1087.47
654.936	1061.32
655.133	1080.88
655.329	1141.33
655.525	1053.95
655.722	1098.51
655.918	1031.67
656.115	1066.74
656.311	966.96
656.507	935.19
656.704	886.94
656.9	947.59
657.096	933.64
657.292	944.87
657.489	1021.21
657.685	993.31
657.881	983.62
658.077	1002.03
658.273	1021.98
658.47	1076.04
658.666	1030.7
658.862	1074.49
659.058	1054.34
659.254	1093.67
659.45	1060.35
659.646	1063.64
659.842	1029.54
660.038	1082.43
660.234	1015.2
660.43	1050.08
660.626	1119.63
660.822	1077.2
661.018	1101.61
661.214	1080.69
661.41	1024.89
661.606	1083.21
661.802	1117.89
661.998	1088.83
662.194	1040.78
662.39	1084.76
662.586	1088.44
662.781	1072.36
662.977	1094.25
663.173	1069.26
663.369	1079.53
663.564	1091.73
663.76	1080.11
663.956	1069.84
664.152	1109.17
664.347	988.08
664.543	1039.23
664.739	1019.08
664.934	983.04
665.13	1019.08
665.326	1110.91
665.521	1072.36
665.717	1021.02
665.912	1009.58
666.108	976.84
666.304	1055.5
666.499	1039.03
666.695	975.87
666.89	1034.58
667.086	1069.26
667.281	1062.28
667.477	1099.1
667.672	1055.31
667.867	1026.63
668.063	1045.43
668.258	1009.78
668.454	1020.24
668.649	1104.13
668.844	1012.1
669.04	1039.42
669.235	1028.38
669.43	1015.2
669.626	957.08
669.821	1010.75
670.016	995.83
670.211	1040.97
670.407	987.11
670.602	1051.63
670.797	1010.55
670.992	1038.65
671.187	963.67
671.382	1029.93
671.578	976.07
671.773	1013.07
671.968	980.33
672.163	990.02
672.358	1013.85
672.553	979.36
672.748	989.05
672.943	1076.23
673.138	1011.33
673.333	1015.4
673.528	927.44
673.723	999.32
673.918	974.32
674.113	939.45
674.308	1047.75
674.503	1024.31
674.698	1018.69
674.892	1002.42
675.087	1027.8
675.282	1003.58
675.477	955.92
675.672	998.54
675.867	953.01
676.061	931.7
676.256	943.13
676.451	983.43
676.646	973.35
676.84	950.69
677.035	927.44
677.23	934.6
677.424	993.31
677.619	1012.1
677.814	991.57
678.008	1003.97
678.203	915.23
678.397	939.25
678.592	972.58
678.787	1012.88
678.981	974.71
679.176	965.22
679.37	961.34
679.565	974.9
679.759	940.8
679.954	974.71
680.148	1025.86
680.342	1013.46
680.537	996.99
680.731	971.61
680.926	947.59
681.12	1010.36
681.314	926.66
681.509	974.13
681.703	940.42
681.897	977.42
682.092	938.09
682.286	959.6
682.48	1026.83
682.674	970.25
682.869	938.87
683.063	970.25
683.257	1020.05
683.451	905.15
683.645	976.84
683.839	932.47
684.034	947
684.228	971.22
684.422	899.92
684.616	915.04
684.81	961.92
685.004	938.48
685.198	960.95
685.392	982.46
685.586	912.52
685.78	945.26
685.974	958.82
686.168	952.82
686.362	986.14
686.556	856.52
686.75	853.81
686.944	884.23
687.138	889.07
687.331	783.48
687.525	803.44
687.719	711.41
687.913	794.72
688.107	785.03
688.301	756.36
688.494	811.96
688.688	755.97
688.882	731.75
689.076	716.83
689.269	774.38
689.463	856.52
689.657	743.57
689.85	775.34
690.044	804.6
690.238	787.36
690.431	792.78
690.625	782.9
690.818	831.53
691.012	866.21
691.205	837.34
691.399	812.16
691.593	830.56
691.786	858.46
691.98	899.92
692.173	920.27
692.366	871.64
692.56	861.37
692.753	919.69
692.947	850.13
693.14	909.61
693.333	924.34
693.527	841.41
693.72	922.59
693.914	898.95
694.107	839.09
694.3	901.67
694.493	857.49
694.687	893.53
694.88	838.51
695.073	984.98
695.266	918.52
695.46	877.84
695.653	936.15
695.846	914.45
696.039	861.95
696.232	899.92
696.425	944.87
696.618	935.77
696.812	965.02
697.005	1009.2
697.198	1061.9
697.391	992.53
697.584	1030.7
697.777	1046.4
697.97	1026.63
698.163	1033.61
698.356	1056.67
698.549	1085.73
698.742	1055.5
698.935	1012.68
699.127	1054.73
699.32	1015.59
699.513	1015.78
699.706	1054.53
699.899	1071.39
700.092	1052.98
700.285	1100.06
700.477	997.57
700.67	1110.72
700.863	1131.65
701.056	1203.53
701.248	1138.81
701.441	1162.26
701.634	1131.84
701.826	1206.04
702.019	1121.38
702.212	1170.98
702.404	1144.43
702.597	1120.8
702.79	1150.63
702.982	1181.24
703.175	1206.82
703.367	1193.06
703.56	1239.56
703.752	1331.4
703.945	1285.87
704.137	1315.9
704.33	1343.8
704.522	1332.37
704.715	1315.32
704.907	1362.79
705.1	1382.35
705.292	1366.08
705.484	1351.35
705.677	1420.52
705.869	1402.31
706.061	1451.72
706.254	1483.88
706.446	1420.91
706.638	1442.61
706.831	1523.79
707.023	1513.33
707.215	1560.41
707.407	1554.6
707.599	1548.2
707.792	1596.64
707.984	1585.79
708.176	1653.99
708.368	1585.21
708.56	1654.96
708.752	1594.89
708.944	1622.6
709.136	1649.92
709.329	1658.83
709.521	1756.09
709.713	1765.59
709.905	1757.06
710.097	1774.5
710.289	1720.06
710.481	1771.4
710.672	1799.49
710.864	1800.07
711.056	1837.85
711.248	1854.71
711.44	1836.3
711.632	1833.4
711.824	1890.55
712.016	1960.11
712.207	1914.77
712.399	1920.78
712.591	2010.1
712.783	1927.56
712.975	2014.36
713.166	1946.55
713.358	1962.63
713.55	2059.11
713.741	2043.03
713.933	2025.98
714.125	2087.21
714.316	2005.45
714.508	2129.06
714.7	2155.99
714.891	2135.26
715.083	2173.23
715.274	2115.11
715.466	2153.86
715.657	2221.28
715.849	2113.56
716.04	2198.81
716.232	2170.91
716.423	2233.49
716.615	2143.97
716.806	2152.89
716.998	2105.61
717.189	2048.84
717.381	2004.48
717.572	1951.58
717.763	2025.21
717.955	2001.38
718.146	1963.6
718.337	1939.57
718.528	1879.32
718.72	1822.74
718.911	1898.11
719.102	1833.2
719.293	1898.3
719.485	1907.8
719.676	1870.02
719.867	1848.7
720.058	1851.03
720.249	1862.65
720.44	1863.04
720.632	1943.06
720.823	2011.65
721.014	2111.62
721.205	2106.39
721.396	2185.63
721.587	2303.23
721.778	2324.74
721.969	2348.96
722.16	2403.98
722.351	2435.76
722.542	2534.96
722.733	2533.41
722.924	2533.6
723.115	2560.92
723.305	2526.82
723.496	2562.86
723.687	2440.02
723.878	2486.52
724.069	2467.14
724.26	2477.41
724.45	2430.33
724.641	2415.22
724.832	2461.14
725.023	2451.45
725.213	2442.15
725.404	2419.68
725.595	2427.23
725.785	2430.14
725.976	2475.09
726.167	2516.94
726.357	2492.72
726.548	2597.54
726.739	2507.06
726.929	2626.02
727.12	2620.01
727.31	2667.87
727.501	2607.42
727.691	2665.74
727.882	2665.54
728.072	2723.67
728.263	2681.43
728.453	2779.66
728.644	2767.84
728.834	2746.92
729.024	2739.94
729.215	2743.23
729.405	2746.72
729.596	2881.38
729.786	2830.42
729.976	2849.6
730.167	2873.24
730.357	2870.72
730.547	2859.1
730.737	2894.55
730.928	2944.34
731.118	2963.53
731.308	2912.76
731.498	2945.31
731.688	3015.84
731.879	3032.5
732.069	3084.04
732.259	3101.86
732.449	3170.64
732.639	3260.93
732.829	3248.33
733.019	3244.07
733.209	3374.85
733.399	3356.25
733.589	3457
733.779	3434.72
733.969	3434.72
734.159	3507.76
734.349	3509.51
734.539	3606.38
734.729	3615.48
734.919	3594.75
735.109	3689.3
735.299	3601.92
735.488	3657.53
735.678	3673.61
735.868	3631.57
736.058	3678.84
736.248	3625.75
736.437	3610.25
736.627	3581.77
736.817	3724.37
737.007	3686.98
737.196	3736.77
737.386	3732.7
737.576	3674.38
737.765	3775.91
737.955	3754.98
738.144	3879.76
738.334	3808.26
738.524	3783.08
738.713	3807.88
738.903	3810.59
739.092	3836.16
739.282	3824.15
739.471	3871.42
739.661	3860.19
739.85	3895.26
740.04	3899.91
740.229	3934.2
740.419	3977.02
740.608	3910.95
740.797	3949.89
740.987	3991.74
741.176	4002.01
741.365	3934.2
741.555	3909.59
741.744	4011.5
741.933	3974.89
742.123	4003.37
742.312	3991.16
742.501	4047.15
742.69	4058.78
742.88	3963.45
743.069	4112.45
743.258	4057.81
743.447	4117.1
743.636	4103.53
743.825	4052.38
744.014	4107.6
744.204	4192.08
744.393	4066.33
744.582	4165.15
744.771	4189.75
744.96	4123.1
745.149	4139.57
745.338	4129.88
745.527	4227.73
745.716	4132.6
745.905	4109.54
746.094	4251.17
746.283	4189.56
746.471	4167.28
746.66	4255.63
746.849	4237.61
747.038	4254.08
747.227	4202.15
747.416	4234.7
747.604	4176.58
747.793	4183.75
747.982	4170.57
748.171	4211.45
748.359	4200.21
748.548	4207
748.737	4190.91
748.926	4214.36
749.114	4109.15
749.303	4149.65
749.491	4197.11
749.68	4097.72
749.869	4217.46
750.057	4200.6
750.246	4176.96
750.434	4156.62
750.623	4141.9
750.811	4157.59
751	4163.21
751.188	4166.31
751.377	4150.42
751.565	4120.39
751.754	4070.6
751.942	4092.1
752.131	4164.56
752.319	4099.66
752.507	4098.3
752.696	4138.8
752.884	4177.55
753.072	4130.46
753.261	4154.49
753.449	4150.61
753.637	4097.92
753.825	4257.95
754.014	4098.88
754.202	4128.33
754.39	4208.74
754.578	4172.12
754.766	4091.72
754.955	4099.27
755.143	4203.12
755.331	4090.36
755.519	4137.83
755.707	4139.38
755.895	4102.37
756.083	4111.87
756.271	4015.57
756.459	4052
756.647	4091.52
756.835	4059.55
757.023	4049.67
757.211	4026.04
757.399	4070.02
757.587	4047.93
757.775	3985.74
757.963	4036.5
758.151	4026.62
758.339	3985.54
758.526	3964.81
758.714	4026.42
758.902	3902.23
759.09	3813.49
759.278	3678.84
759.465	3427.94
759.653	3130.73
759.841	2853.28
760.028	2476.44
760.216	2214.5
760.404	2109.29
760.591	1789.03
760.779	1562.15
760.967	1413.74
761.154	1227.94
761.342	1292.65
761.529	1265.14
761.717	1343.22
761.905	1386.81
762.092	1485.04
762.28	1489.11
762.467	1476.52
762.655	1449.2
762.842	1495.12
763.029	1491.82
763.217	1535.41
763.404	1497.25
763.592	1587.92
763.779	1552.27
763.966	1578.81
764.154	1638.49
764.341	1684.6
764.528	1692.54
764.716	1766.17
764.903	1812.86
765.09	1920
765.277	1976.96
765.465	2098.44
765.652	2151.92
765.839	2237.17
766.026	2360.97
766.213	2412.7
766.4	2493.69
766.588	2688.6
766.775	2673.49
766.962	2816.47
767.149	2843.21
767.336	2998.98
767.523	2919.16
767.71	3074.35
767.897	3202.42
768.084	3293.48
768.271	3271.39
768.458	3322.54
768.645	3377.95
768.832	3357.41
769.019	3426.58
769.206	3418.83
769.392	3502.53
769.579	3571.5
769.766	3540.7
769.953	3519.77
770.14	3531.01
770.327	3531.98
770.513	3571.12
770.7	3652.3
770.887	3549.42
771.073	3599.4
771.26	3624.98
771.447	3542.05
771.634	3556.78
771.82	3656.56
772.007	3553.68
772.193	3590.49
772.38	3617.81
772.567	3580.03
772.753	3599.02
772.94	3578.48
773.126	3622.46
773.313	3663.92
773.499	3584.49
773.686	3643.58
773.872	3561.62
774.059	3547.29
774.245	3552.71
774.432	3577.12
774.618	3450.41
774.804	3562.59
774.991	3463.39
775.177	3552.52
775.363	3510.86
775.55	3546.7
775.736	3470.37
775.922	3508.15
776.109	3493.62
776.295	3522.68
776.481	3534.3
776.667	3599.4
776.853	3465.72
777.04	3480.64
777.226	3484.12
777.412	3534.11
777.598	3462.81
777.784	3448.47
777.97	3397.52
778.156	3494.78
778.342	3473.66
778.528	3386.67
778.715	3363.42
778.901	3386.48
779.087	3367.49
779.272	3349.66
779.458	3374.85
779.644	3394.42
779.83	3325.45
780.016	3469.59
780.202	3371.56
780.388	3389.77
780.574	3246.98
780.76	3330.87
780.946	3365.36
781.131	3366.33
781.317	3337.26
781.503	3280.3
781.689	3290.96
781.874	3428.91
782.06	3290.38
782.246	3305.1
782.432	3316.92
782.617	3304.13
782.803	3403.33
782.989	3253.76
783.174	3236.52
783.36	3155.14
783.545	3249.5
783.731	3218.69
783.916	3126.47
784.102	3262.86
784.288	3202.61
784.473	3239.03
784.659	3189.63
784.844	3234.77
785.029	3157.66
785.215	3149.14
785.4	3103.22
785.586	3205.9
785.771	3125.69
785.956	3199.32
786.142	3085.2
786.327	3128.02
786.512	3135.96
786.698	3129.57
786.883	3056.33
787.068	3073.96
787.254	3110.97
787.439	3044.71
787.624	3063.11
787.809	3046.84
787.994	3065.82
788.18	3107.48
788.365	2956.74
788.55	2972.24
788.735	3009.64
788.92	3014.67
789.105	3012.74
789.29	3038.51
789.475	2928.46
789.66	2976.89
789.845	2900.17
790.03	2924.39
790.215	2997.43
790.4	3011.19
790.585	2979.61
790.77	2945.12
790.955	2855.41
791.14	2946.48
791.325	3011.96
791.51	2840.3
791.695	2935.63
791.879	2927.68
792.064	2868.78
792.249	2950.93
792.434	2912.96
792.618	2906.37
792.803	2970.31
792.988	2869.17
793.173	2911.02
793.357	2929.62
793.542	2829.26
793.727	2878.86
793.911	2894.55
794.096	2899.39
794.281	2911.21
794.465	2990.84
794.65	2865.3
794.834	2942.21
795.019	2974.76
795.203	2946.67
795.388	2958.68
795.572	3011.96
795.757	2938.73
795.941	2983.87
796.126	2947.06
796.31	2863.75
796.494	2908.5
796.679	2930.98
796.863	2866.65
797.048	2964.69
797.232	2972.44
797.416	2994.14
797.601	2948.8
797.785	3023.59
797.969	3009.06
798.153	2863.55
798.338	3011.38
798.522	3003.63
798.706	2991.81
798.89	2987.55
799.074	3095.08
799.258	3008.47
799.443	2982.32
799.627	2986.77
799.811	3051.29
799.995	2965.46
800.179	2964.49
800.363	2979.22
800.547	3002.08
800.731	3007.51
800.915	2926.52
801.099	2946.86
801.283	2972.83
801.467	2978.64
801.651	2988.71
801.835	3008.09
802.019	2977.28
802.202	3009.64
802.386	2926.91
802.57	2927.1
802.754	2907.73
802.938	2911.79
803.121	2924
803.305	2981.74
803.489	2944.34
803.673	2957.91
803.856	2928.84
804.04	2938.92
804.224	2973.79
804.407	2949.58
804.591	2926.91
804.775	2910.83
804.958	2930.98
805.142	3062.92
805.326	2914.12
805.509	2965.27
805.693	2964.3
805.876	2975.15
806.06	2942.79
806.243	2982.51
806.427	3050.91
806.61	3010.61
806.794	2938.73
806.977	3004.21
807.16	2967.01
807.344	2934.46
807.527	2975.15
807.71	2941.24
807.894	2928.07
808.077	3011.19
808.26	2907.34
808.444	2921.48
808.627	2977.09
808.81	2893.97
808.993	2838.36
809.177	2815.89
809.36	2890.48
809.543	2883.12
809.726	2793.22
809.909	2808.72
810.092	2777.53
810.276	2751.95
810.459	2771.13
810.642	2755.44
810.825	2741.49
811.008	2749.82
811.191	2671.94
811.374	2709.33
811.557	2687.24
811.74	2752.53
811.923	2628.54
812.106	2621.37
812.289	2624.66
812.472	2628.34
812.654	2615.56
812.837	2603.35
813.02	2559.95
813.203	2531.08
813.386	2439.25
813.569	2427.43
813.751	2383.64
813.934	2373.76
814.117	2375.11
814.3	2339.85
814.482	2252.09
814.665	2215.27
814.848	2229.61
815.03	2125.76
815.213	2147.27
815.396	2174.2
815.578	2103.48
815.761	2071.51
815.943	2137.58
816.126	2035.09
816.309	2024.24
816.491	1952.75
816.674	1904.5
816.856	1929.69
817.039	1915.16
817.221	1988.59
817.403	1945.77
817.586	1968.44
817.768	1975.22
817.951	1906.05
818.133	1889.39
818.315	1904.5
818.498	1973.48
818.68	1996.15
818.862	1959.33
819.045	2006.8
819.227	1979.87
819.409	1967.28
819.591	1985.68
819.774	1937.63
819.956	1931.43
820.138	2020.17
820.32	1977.74
820.502	2050.2
820.684	2090.11
820.866	2104.06
821.048	2172.26
821.231	2149.79
821.413	2136.42
821.595	2140.68
821.777	2144.94
821.959	2128.67
822.141	2198.22
822.323	2055.82
822.505	2010.29
822.686	1984.52
822.868	1884.93
823.05	1813.05
823.232	1746.02
823.414	1676.07
823.596	1760.16
823.778	1713.08
823.96	1817.12
824.141	1766.94
824.323	1788.84
824.505	1860.91
824.687	1939.57
824.868	1914.19
825.05	2060.66
825.232	2072.29
825.413	2147.66
825.595	2105.03
825.777	2010.48
825.958	2058.34
826.14	2062.02
826.321	2099.03
826.503	2064.34
826.685	2089.14
826.866	2143.97
827.048	2091.28
827.229	2061.63
827.411	1989.75
827.592	1944.22
827.773	1939.38
827.955	1975.03
828.136	1915.16
828.318	1871.76
828.499	1918.84
828.68	1853.16
828.862	1896.17
829.043	1935.7
829.224	1877.57
829.406	1860.52
829.587	1888.81
829.768	1885.71
829.949	1874.86
830.131	1852.97
830.312	1950.81
830.493	1888.42
830.674	1874.28
830.855	1889.39
831.036	1866.72
831.218	1950.23
831.399	1945.58
831.58	1939.96
831.761	1885.71
831.942	1897.92
832.123	1917.68
832.304	1811.31
832.485	1834.75
832.666	1826.23
832.847	1897.92
833.028	1865.95
833.209	1893.65
833.389	1821.19
833.57	1801.43
833.751	1825.07
833.932	1924.65
834.113	1842.31
834.294	1819.25
834.475	1864.59
834.655	1885.52
834.836	1924.46
835.017	1900.63
835.198	1807.24
835.378	1887.07
835.559	1918.84
835.74	1848.51
835.92	1869.24
836.101	1815.19
836.281	1931.63
836.462	1890.17
836.643	1925.82
836.823	1925.62
837.004	1947.71
837.184	1989.75
837.365	1910.32
837.545	1931.82
837.726	1904.12
837.906	1939.76
838.087	1892.68
838.267	1906.44
838.448	1869.63
838.628	1849.29
838.808	1887.26
838.989	1932.79
839.169	1867.3
839.349	1907.41
839.53	1924.65
839.71	1924.85
839.89	1867.3
840.07	1955.85
840.251	1858.2
840.431	1953.71
840.611	1904.31
840.791	1858.2
840.971	1917.87
841.151	1892.1
841.332	1851.61
841.512	1905.28
841.692	1812.28
841.872	1897.92
842.052	1837.47
842.232	1901.02
842.412	1817.32
842.592	1822.74
842.772	1864.4
842.952	1868.08
843.132	1818.67
843.312	1812.67
843.492	1798.72
843.672	1870.98
843.851	1756.67
844.031	1818.29
844.211	1822.74
844.391	1801.82
844.571	1820.42
844.751	1847.15
844.93	1822.16
845.11	1791.16
845.29	1824.68
845.47	1828.36
845.649	1802.98
845.829	1810.15
846.009	1814.99
846.188	1842.12
846.368	1797.17
846.547	1792.52
846.727	1814.41
846.907	1742.92
847.086	1817.12
847.266	1814.8
847.445	1764.62
847.625	1756.48
847.804	1772.95
847.984	1777.99
848.163	1762.49
848.343	1763.26
848.522	1758.22
848.701	1758.03
848.881	1720.25
849.06	1766.36
849.239	1748.73
849.419	1769.27
849.598	1685.37
849.777	1670.26
849.957	1637.71
850.136	1606.52
850.315	1593.93
850.494	1568.55
850.674	1587.34
850.853	1666.58
851.032	1617.56
851.211	1649.14
851.39	1628.99
851.569	1602.06
851.748	1583.66
851.927	1659.03
852.107	1642.36
852.286	1588.31
852.465	1619.31
852.644	1637.33
852.823	1620.47
853.002	1625.51
853.181	1630.16
853.359	1660.58
853.538	1592.18
853.717	1665.61
853.896	1521.46
854.075	1447.45
854.254	1480.58
854.433	1370.73
854.611	1426.53
854.79	1333.53
854.969	1427.69
855.148	1439.32
855.327	1404.25
855.505	1467.41
855.684	1430.98
855.863	1477.29
856.041	1437.96
856.22	1507.32
856.399	1483.88
856.577	1589.86
856.756	1567.38
856.934	1628.22
857.113	1660.19
857.291	1553.24
857.47	1523.21
857.648	1586.56
857.827	1545.3
858.005	1586.56
858.184	1516.04
858.362	1598.38
858.541	1580.17
858.719	1536.58
858.898	1541.81
859.076	1530.18
859.254	1601.29
859.433	1515.65
859.611	1517.98
859.789	1478.84
859.967	1558.86
860.146	1609.23
860.324	1470.9
860.502	1521.66
860.68	1439.12
860.859	1501.31
861.037	1496.67
861.215	1514.1
861.393	1509.65
861.571	1496.86
861.749	1452.88
861.927	1469.15
862.105	1502.67
862.283	1463.53
862.461	1439.32
862.639	1417.42
862.817	1400.37
862.995	1464.31
863.173	1435.63
863.351	1452.49
863.529	1455.2
863.707	1496.86
863.885	1431.57
864.063	1412.19
864.241	1422.65
864.418	1493.76
864.596	1434.86
864.774	1371.5
864.952	1421.49
865.129	1441.64
865.307	1393.59
865.485	1342.83
865.663	1421.3
865.84	1335.47
866.018	1375.96
866.196	1238.21
866.373	1263.59
866.551	1263.2
866.728	1164.78
866.906	1213.02
867.084	1258.16
867.261	1277.34
867.439	1294.01
867.616	1310.47
867.794	1304.27
867.971	1324.81
868.149	1283.93
868.326	1380.03
868.503	1343.6
868.681	1338.76
868.858	1325.78
869.035	1276.57
869.213	1341.09
869.39	1334.5
869.567	1380.03
869.745	1300.79
869.922	1308.34
870.099	1337.4
870.276	1361.43
870.454	1326.36
870.631	1348.64
870.808	1308.34
870.985	1378.29
871.162	1361.43
871.339	1333.72
871.517	1244.99
871.694	1254.09
871.871	1278.89
872.048	1266.88
872.225	1257.58
872.402	1284.71
872.579	1229.68
872.756	1315.12
872.933	1236.85
873.11	1261.26
873.287	1270.37
873.463	1253.12
873.64	1224.06
873.817	1263.01
873.994	1232.98
874.171	1229.29
874.348	1249.06
874.524	1162.84
874.701	1245.37
874.878	1189.19
875.055	1268.62
875.231	1198.68
875.408	1236.08
875.585	1162.84
875.762	1194.81
875.938	1179.31
876.115	1167.88
876.291	1182.6
876.468	1198.49
876.645	1149.86
876.821	1162.64
876.998	1167.29
877.174	1190.54
877.351	1159.74
877.527	1162.84
877.704	1174.46
877.88	1169.43
878.057	1163.81
878.233	1203.53
878.409	1172.91
878.586	1140.56
878.762	1145.6
878.938	1166.33
879.115	1112.66
879.291	1167.49
879.467	1082.24
879.644	1108.59
879.82	1138.23
879.996	1116.34
880.172	1060.35
880.349	1153.73
880.525	1145.21
880.701	1061.9
880.877	1093.67
881.053	1116.34
881.229	1113.82
881.405	1170.78
881.581	1058.02
881.757	1083.4
881.933	1116.53
882.109	1145.4
882.285	1115.18
882.461	1074.49
882.637	1118.86
882.813	1086.5
882.989	1083.01
883.165	1151.79
883.341	1056.28
883.517	1133.58
883.693	1123.51
883.869	1150.44
884.044	1069.65
884.22	1121.76
884.396	1135.52
884.572	1117.11
884.747	1150.44
884.923	1128.93
885.099	1114.79
885.275	1158.58
885.45	1082.05
885.626	1108.4
885.801	1104.71
885.977	1111.11
886.153	1041.94
886.328	1117.7
886.504	1076.62
886.679	1116.73
886.855	1085.73
887.03	1095.03
887.206	1125.64
887.381	1130.1
887.557	1127.58
887.732	1113.24
887.908	1112.08
888.083	1140.17
888.258	1068.87
888.434	1078.95
888.609	1114.4
888.784	1128.35
888.96	1057.83
889.135	1063.64
889.31	1080.69
889.485	1101.42
889.661	1091.93
889.836	1136.88
890.011	1102.97
890.186	1102.58
890.361	1071.39
890.537	1107.43
890.712	1110.33
890.887	1096.38
891.062	1087.28
891.237	1144.82
891.412	1069.84
891.587	1097.35
891.762	1088.25
891.937	1130.1
892.112	1052.98
892.287	1097.55
892.462	1046.01
892.637	1014.62
892.812	1003.38
892.987	1032.64
893.161	1008.23
893.336	1025.08
893.511	992.73
893.686	1020.24
893.861	1007.84
894.035	1028.18
894.21	1010.94
894.385	976.65
894.56	985.37
894.734	944.87
894.909	948.94
895.084	944.29
895.258	934.8
895.433	973.74
895.608	902.05
895.782	850.32
895.957	899.15
896.131	895.47
896.306	838.89
896.48	836.18
896.655	835.79
896.829	772.05
897.004	758.88
897.178	791.62
897.353	769.14
897.527	831.53
897.701	784.84
897.876	724.39
898.05	826.11
898.224	817.77
898.399	884.81
898.573	806.54
898.747	677.11
898.921	719.93
899.096	652.12
899.27	664.91
899.444	670.72
899.618	684.28
899.792	712.38
899.967	709.08
900.141	760.43
900.315	656.58
900.489	681.57
900.663	724
900.837	701.14
901.011	647.86
901.185	750.35
901.359	691.84
901.533	699.59
901.707	723.23
901.881	704.43
902.055	646.31
902.229	704.43
902.403	763.53
902.576	700.56
902.75	722.84
902.924	841.8
903.098	755.78
903.272	781.93
903.446	809.83
903.619	788.33
903.793	843.16
903.967	797.24
904.14	883.46
904.314	857.11
904.488	824.17
904.661	879.97
904.835	849.36
905.009	878.42
905.182	937.32
905.356	837.54
905.529	870.28
905.703	794.91
905.876	820.87
906.05	779.03
906.223	783.68
906.397	718.38
906.57	721.29
906.744	687
906.917	724
907.09	680.21
907.264	711.99
907.437	667.62
907.61	608.33
907.784	647.28
907.957	679.05
908.13	622.28
908.304	670.14
908.477	618.02
908.65	644.76
908.823	581.98
908.996	691.26
909.17	631.78
909.343	630.81
909.516	613.18
909.689	616.86
909.862	582.18
910.035	617.63
910.208	590.32
910.381	580.82
910.554	705.79
910.727	639.14
910.9	597.1
911.073	610.47
911.246	652.7
911.419	679.05
911.592	641.66
911.765	597.68
911.938	580.05
912.11	600.2
912.283	617.83
912.456	661.03
912.629	609.69
912.802	601.75
912.974	524.05
913.147	566.1
913.32	487.63
913.493	532.58
913.665	555.83
913.838	522.5
914.01	524.83
914.183	527.54
914.356	527.93
914.528	606.4
914.701	594
914.873	566.87
915.046	544.78
915.218	516.3
915.391	462.83
915.563	476.59
915.736	517.47
915.908	548.66
916.081	523.47
916.253	535.49
916.425	536.45
916.598	556.6
916.77	513.59
916.942	527.15
917.115	449.27
917.287	555.25
917.459	497.7
917.632	455.27
917.804	452.56
917.976	500.22
918.148	509.14
918.32	486.08
918.493	548.47
918.665	566.68
918.837	530.84
919.009	612.79
919.181	577.92
919.353	537.81
919.525	536.65
919.697	528.7
919.869	530.06
920.041	614.73
920.213	644.18
920.385	564.74
920.557	564.74
920.729	589.35
920.901	558.35
921.073	559.7
921.244	520.76
921.416	611.24
921.588	546.33
921.76	505.84
921.932	600.2
922.103	531.03
922.275	532.97
922.447	579.85
922.619	474.07
922.79	547.5
922.962	496.74
923.134	536.65
923.305	467.48
923.477	446.36
923.648	493.25
923.82	522.12
923.991	454.5
924.163	441.52
924.335	487.82
924.506	467.09
924.677	533.35
924.849	447.14
925.02	496.35
925.192	525.6
925.363	477.94
925.535	501.97
925.706	462.83
925.877	525.6
926.049	473.49
926.22	467.87
926.391	473.87
926.562	506.62
926.734	476
926.905	492.67
927.076	427.18
927.247	457.99
927.419	417.69
927.59	411.49
927.761	413.04
927.932	396.57
928.103	405.87
928.274	365.18
928.445	358.79
928.616	371.96
928.787	365.18
928.958	388.62
929.129	370.22
929.3	343.87
929.471	309.19
929.642	263.46
929.813	224.52
929.984	312.68
930.155	262.11
930.326	297.76
930.496	231.69
930.667	172.21
930.838	279.35
931.009	195.85
931.18	213.67
931.35	219.48
931.521	232.85
931.692	161.75
931.863	133.46
932.033	195.85
932.204	139.27
932.374	175.7
932.545	127.84
932.716	188.29
932.886	159.03
933.057	101.1
933.227	125.9
933.398	207.08
933.568	98.78
933.739	63.52
933.909	84.64
934.08	147.22
934.25	45.69
934.421	50.34
934.591	84.25
934.761	87.35
934.932	37.17
935.102	109.82
935.272	69.52
935.443	96.84
935.613	68.94
935.783	101.3
935.953	74.75
936.123	221.61
936.294	59.45
936.464	75.72
936.634	55.77
936.804	63.52
936.974	22.44
937.144	98
937.314	72.04
937.484	70.88
937.655	42.98
937.825	106.53
937.995	54.99
938.165	128.81
938.334	82.7
938.504	102.07
938.674	75.92
938.844	95.29
939.014	159.23
939.184	152.64
939.354	189.65
939.524	176.28
939.694	160.39
939.863	128.23
940.033	203.01
940.203	185.38
940.373	155.35
940.542	183.06
940.712	131.52
940.882	180.15
941.051	167.75
941.221	180.54
941.391	176.67
941.56	115.05
941.73	148.38
941.899	240.02
942.069	145.08
942.238	172.98
942.408	136.95
942.577	171.82
942.747	116.41
942.916	72.04
943.086	96.65
943.255	158.07
943.425	141.02
943.594	96.26
943.763	34.84
943.933	63.32
944.102	36.78
944.271	104.78
944.441	117.38
944.61	82.5
944.779	88.12
944.948	207.08
945.117	55.38
945.287	91.8
945.456	41.43
945.625	75.72
945.794	107.11
945.963	73.01
946.132	101.1
946.301	99.94
946.47	118.54
946.639	43.56
946.808	87.15
946.977	109.05
947.146	143.73
947.315	84.44
947.484	147.99
947.653	67.97
947.822	111.37
947.991	74.56
948.16	171.43
948.329	146.05
948.498	122.03
948.666	105.17
948.835	133.27
949.004	74.95
949.173	63.32
949.341	104.01
949.51	117.18
949.679	139.27
949.847	109.05
950.016	193.52
950.185	164.85
950.353	76.11
950.522	110.02
950.69	154.38
950.859	93.16
951.028	137.14
951.196	128.81
951.365	90.45
951.533	101.69
951.701	114.47
951.87	140.63
952.038	74.17
952.207	76.89
952.375	151.48
952.543	106.14
952.712	69.14
952.88	70.1
953.048	195.85
953.217	131.72
953.385	105.75
953.553	180.54
953.721	63.52
953.89	91.8
954.058	52.28
954.226	52.09
954.394	112.34
954.562	53.05
954.73	95.68
954.898	94.13
955.067	128.62
955.235	58.67
955.403	135.59
955.571	159.81
955.739	130.55
955.907	67.39
956.075	70.88
956.243	63.71
956.41	133.65
956.578	48.4
956.746	32.71
956.914	97.04
957.082	154.19
957.25	105.56
957.418	71.65
957.585	112.73
957.753	153.8
957.921	81.15
958.089	87.54
958.256	121.64
958.424	104.4
958.592	116.6
958.759	97.62
958.927	122.61
959.095	76.69
959.262	95.49
959.43	109.82
959.597	75.53
959.765	94.32
959.932	77.66
960.1	135.59
960.267	104.98
960.435	118.93
960.602	133.46
960.77	84.05
960.937	63.13
961.104	102.46
961.272	44.53
961.439	72.62
961.606	127.26
961.774	136.37
961.941	83.67
962.108	80.18
962.275	95.68
962.443	153.8
962.61	122.8
962.777	187.13
962.944	138.5
963.111	104.59
963.278	113.12
963.446	130.55
963.613	104.59
963.78	150.7
963.947	120.67
964.114	147.02
964.281	229.56
964.448	118.15
964.615	90.64
964.782	144.5
964.949	144.5
965.116	149.35
965.282	141.79
965.449	121.64
965.616	101.3
965.783	145.86
965.95	121.64
966.117	64.68
966.283	96.84
966.45	126.29
966.617	118.35
966.784	154.19
966.95	150.32
967.117	137.33
967.284	90.25
967.45	102.65
967.617	169.88
967.784	147.02
967.95	160.58
968.117	124.55
968.283	182.28
968.45	215.22
968.616	127.84
968.783	167.17
968.949	128.23
969.116	162.72
969.282	135.2
969.449	148.18
969.615	111.95
969.781	81.15
969.948	118.35
970.114	64.68
970.28	164.85
970.447	145.67
970.613	188.68
970.779	131.72
970.945	157.29
971.112	128.62
971.278	139.85
971.444	140.82
971.61	157.87
971.776	110.02
971.942	146.05
972.108	125.52
972.275	140.05
972.441	139.08
972.607	193.52
972.773	103.82
972.939	140.05
973.105	149.35
973.271	103.82
973.437	107.5
973.602	98.39
973.768	125.13
973.934	98.78
974.1	143.15
974.266	32.9
974.432	131.13
974.598	106.92
974.763	122.8
974.929	120.87
975.095	168.33
975.261	84.64
975.426	93.74
975.592	97.04
975.758	187.32
975.923	67.59
976.089	76.69
976.255	136.17
976.42	126.48
976.586	119.12
976.751	123.19
976.917	218.9
977.082	138.69
977.248	77.66
977.413	44.53
977.579	106.72
977.744	98.2
977.91	78.63
978.075	92.39
978.24	128.81
978.406	93.35
978.571	73.01
978.736	74.17
978.902	116.8
979.067	75.92
979.232	75.14
979.397	96.84
979.563	149.35
979.728	90.06
979.893	102.65
980.058	82.12
980.223	150.12
980.388	114.08
980.554	117.96
980.719	93.16
980.884	122.61
981.049	156.13
981.214	105.17
981.379	95.29
981.544	94.9
981.709	108.47
981.874	97.23
982.039	112.73
982.204	113.5
982.368	94.13
982.533	81.92
982.698	125.32
982.863	141.21
983.028	92
983.193	131.13
983.357	94.71
983.522	108.08
983.687	116.02
983.852	80.18
984.016	109.05
984.181	104.01
984.346	144.5
984.51	118.15
984.675	107.88
984.839	123.97
985.004	103.62
985.168	118.54
985.333	107.5
985.498	110.79
985.662	134.04
985.827	132.88
985.991	97.62
986.155	72.24
986.32	125.71
986.484	155.55
986.649	101.88
986.813	46.85
986.977	103.82
987.142	109.43
987.306	75.53
987.47	67.97
987.634	86.57
987.799	102.27
987.963	114.28
988.127	85.8
988.291	181.7
988.455	107.69
988.62	88.12
988.784	121.06
988.948	122.61
989.112	91.61
989.276	122.03
989.44	104.4
989.604	73.98
989.768	78.82
989.932	178.41
990.096	59.84
990.26	81.15
990.424	65.26
990.588	77.27
990.752	140.43
990.915	132.88
991.079	65.26
991.243	75.53
991.407	116.6
991.571	88.9
991.734	108.47
991.898	91.8
992.062	182.87
992.226	83.67
992.389	84.64
992.553	36.97
992.717	65.45
992.88	68.75
993.044	94.52
993.207	69.14
993.371	93.16
993.535	134.43
993.698	92.77
993.862	96.45
994.025	151.48
994.189	124.35
994.352	98.39
994.515	93.94
994.679	133.65
994.842	82.31
995.006	129.39
995.169	63.9
995.332	70.49
995.496	110.4
995.659	39.3
995.822	61.19
995.985	70.3
996.149	113.31
996.312	64.29
996.475	143.34
996.638	64.49
996.801	130.36
996.964	151.09
997.128	88.32
997.291	113.12
997.454	104.78
997.617	30.19
997.78	114.08
997.943	43.37
998.106	124.55
998.269	42.98
998.432	79.21
998.595	79.6
998.758	38.72
998.92	64.49
999.083	21.67
999.246	78.44
999.409	18.57
999.572	21.09
999.735	33.68
999.897	83.67
1000.06	47.05
1000.223	75.14
1000.386	116.8
1000.548	105.75
1000.711	86.57
1000.874	82.7
1001.036	11.4
1001.199	109.63
1001.361	25.35
1001.524	79.21
1001.687	106.72
1001.849	46.27
1002.012	99.75
1002.174	58.87
1002.337	97.23
1002.499	21.28
1002.661	129.97
1002.824	31.94
1002.986	36.2
1003.149	52.86
1003.311	38.91
1003.473	95.68
1003.636	11.21
1003.798	75.92
1003.96	80.76
1004.123	54.8
1004.285	48.6
1004.447	67
1004.609	51.7
1004.771	120.67
1004.933	3.07
1005.096	46.08
1005.258	6.36
1005.42	50.73
1005.582	81.34
1005.744	57.51
1005.906	17.99
1006.068	53.25
1006.23	21.86
1006.392	5.59
1006.554	-2.94
1006.716	106.92
1006.878	74.37
1007.04	21.86
1007.202	30.77
1007.363	65.65
1007.525	54.8
1007.687	84.64
1007.849	115.63
1008.011	-16.89
1008.172	17.79
1008.334	30.97
1008.496	70.49
1008.658	7.52
1008.819	3.07
1008.981	1.52
1009.143	27.09
1009.304	17.79
1009.466	76.5
1009.627	106.33
1009.789	161.55
1009.95	60.03
1010.112	36.78
1010.273	56.74
1010.435	15.27
1010.596	25.15
1010.758	36.59
1010.919	14.89
1011.081	2.68
1011.242	34.45
1011.403	81.73
1011.565	44.14
1011.726	48.6
1011.887	14.89
1012.049	21.86
1012.21	64.87
1012.371	102.65
1012.532	-37.23
1012.693	52.86
1012.855	17.79
1013.016	40.46
1013.177	94.71
1013.338	32.13
1013.499	97.04
1013.66	67.2
1013.821	51.31
1013.982	54.41
1014.143	36.39
1014.304	27.87
1014.465	44.53
1014.626	72.82
1014.787	24.96
1014.948	114.86
1015.109	-30.26
1015.27	70.3
1015.431	6.75
1015.592	20.31
1015.752	105.75
1015.913	30.39
1016.074	59.45
1016.235	36
1016.395	30.58
1016.556	43.95
1016.717	49.57
1016.877	82.89
1017.038	-18.24
1017.199	26.32
1017.359	19.92
1017.52	45.3
1017.681	33.1
1017.841	37.75
1018.002	26.12
1018.162	36.39
1018.323	92
1018.483	23.02
1018.644	22.83
1018.804	5.01
1018.964	-5.07
1019.125	15.66
1019.285	28.84
1019.446	-9.33
1019.606	9.66
1019.766	-26.77
1019.926	47.44
1020.087	48.79
1020.247	-6.62
1020.407	56.93
1020.567	62.55
1020.728	18.18
1020.888	-8.36
1021.048	11.21
1021.208	24.19
1021.368	8.88
1021.528	72.62
1021.688	59.06
1021.848	79.4
1022.008	42.2
1022.168	-9.33
1022.328	39.3
1022.488	28.06
1022.648	24.19
1022.808	34.26
1022.968	44.53
1023.128	11.79
1023.288	16.05
1023.448	35.81
1023.608	47.63
1023.767	42.2
1023.927	-7.59
1024.087	-4.88
1024.247	-41.11
1024.406	3.26
1024.566	-28.13
1024.726	0.94
1024.885	10.62
1025.045	47.44
1025.205	13.53
1025.364	19.34
1025.524	25.35
1025.683	14.11
1025.843	37.36
1026.003	21.47
1026.162	65.65
1026.321	65.84
1026.481	16.05
1026.64	26.32
1026.8	33.68
1026.959	30
1027.119	46.27
1027.278	-6.04
1027.437	-20.18
1027.597	45.89
1027.756	31.35
1027.915	30.19
1028.074	43.75
1028.234	-7.98
1028.393	27.87
1028.552	-9.33
1028.711	-39.36
1028.87	74.56
1029.03	-33.74
1029.189	16.05
1029.348	-49.83
1029.507	-3.52
1029.666	41.82
1029.825	-17.28
1029.984	11.59
1030.143	17.99
1030.302	1.52
1030.461	-46.53
1030.62	39.69
1030.779	33.1
1030.938	-27.35
1031.097	-13.21
1031.255	37.36
1031.414	80.57
1031.573	42.4
1031.732	-39.36
1031.891	17.79
1032.049	80.95
1032.208	26.7
1032.367	-22.31
1032.525	1.13
1032.684	-10.88
1032.843	17.02
1033.001	-37.23
1033.16	141.98
1033.319	40.27
1033.477	20.12
1033.636	-2.55
1033.794	-12.24
1033.953	39.88
1034.111	34.07
1034.27	2.1
1034.428	8.69
1034.587	-6.43
1034.745	33.68
1034.903	1.71
1035.062	12.95
1035.22	-9.72
1035.378	46.85
1035.537	-21.54
1035.695	33.87
1035.853	33.87
1036.011	36
1036.17	27.09
1036.328	-63.78
1036.486	38.72
1036.644	37.75
1036.802	-75.98
1036.96	-34.52
1037.119	8.49
1037.277	4.81
1037.435	-42.27
1037.593	-15.73
1037.751	3.84
1037.909	50.92
1038.067	50.92
