Data from gum_old_FLMT105791__180__15-48-07-249.txt Node

Date: Mon Mar 20 15:48:07 GMT 2023
User: antho
Spectrometer: FLMT10579
Trigger mode: 0
Integration Time (sec): 1.000000E-1
Scans to average: 10
Electric dark correction enabled: true
Nonlinearity correction enabled: false
Boxcar width: 0
XAxis mode: Wavelengths
Number of Pixels in Spectrum: 3648
>>>>>Begin Spectral Data<<<<<
345.248	-185.72
345.464	-185.72
345.681	-185.72
345.898	-205.29
346.114	-193.86
346.331	-34.41
346.548	19.26
346.764	-7.28
346.981	-7.48
347.197	-28.59
347.414	10.35
347.631	-28.98
347.847	70.6
348.064	5.89
348.28	29.34
348.497	-26.66
348.713	-2.05
348.93	33.99
349.146	39.22
349.363	0.86
349.579	39.99
349.796	21.97
350.012	-2.24
350.229	56.85
350.445	-9.99
350.661	-24.14
350.878	2.02
351.094	26.43
351.311	45.81
351.527	36.12
351.743	-8.44
351.96	40.77
352.176	58.98
352.392	22.94
352.609	71.57
352.825	-9.99
353.041	18.68
353.257	6.86
353.474	19.46
353.69	28.17
353.906	26.24
354.122	-15.81
354.339	66.34
354.555	41.54
354.771	14.22
354.987	97.73
355.203	93.85
355.42	7.83
355.636	34.18
355.852	2.6
356.068	21.78
356.284	-22.98
356.5	66.92
356.716	46.39
356.932	23.91
357.148	55.3
357.364	17.52
357.58	63.05
357.796	85.91
358.012	75.84
358.228	39.41
358.444	-61.92
358.66	87.85
358.876	47.55
359.092	4.34
359.308	18.29
359.524	51.62
359.74	32.82
359.956	20.42
360.172	36.89
360.388	52.59
360.604	-15.42
360.819	105.29
361.035	47.74
361.251	64.6
361.467	2.02
361.683	87.46
361.898	48.71
362.114	71.38
362.33	35.15
362.546	85.91
362.762	37.28
362.977	55.3
363.193	5.89
363.409	81.65
363.624	16.16
363.84	11.9
364.056	20.23
364.271	61.3
364.487	33.41
364.703	24.88
364.918	2.99
365.134	26.62
365.35	33.41
365.565	146.55
365.781	51.62
365.996	56.27
366.212	113.23
366.427	57.43
366.643	49.87
366.858	25.46
367.074	44.84
367.289	102.19
367.505	151.01
367.72	2.6
367.936	43.09
368.151	81.07
368.367	76.61
368.582	49.29
368.798	36.89
369.013	79.52
369.228	55.49
369.444	65.37
369.659	90.75
369.874	70.22
370.09	127.37
370.305	-16.58
370.52	35.34
370.736	116.14
370.951	48.71
371.166	102.19
371.381	120.59
371.597	115.17
371.812	39.22
372.027	36.7
372.242	49.1
372.458	138.61
372.673	31.08
372.888	49.68
373.103	123.11
373.318	111.49
373.533	78.94
373.749	63.24
373.964	28.17
374.179	131.83
374.394	15.39
374.609	104.51
374.824	4.15
375.039	85.52
375.254	40.19
375.469	113.42
375.684	67.89
375.899	117.1
376.114	72.15
376.329	60.92
376.544	102.77
376.759	100.83
376.974	36.12
377.189	66.34
377.404	66.73
377.619	113.62
377.834	15.77
378.049	7.83
378.264	41.93
378.478	95.4
378.693	52.59
378.908	94.63
379.123	78.74
379.338	128.54
379.553	72.15
379.767	66.15
379.982	102.96
380.197	87.07
380.412	64.02
380.626	102.77
380.841	173.68
381.056	87.46
381.271	138.61
381.485	58.79
381.7	53.75
381.915	91.72
382.129	44.45
382.344	85.52
382.559	78.74
382.773	104.9
382.988	16.94
383.202	70.6
383.417	28.37
383.632	157.6
383.846	70.02
384.061	54.14
384.275	62.27
384.49	82.23
384.704	120.79
384.919	79.13
385.133	85.72
385.348	137.25
385.562	49.68
385.777	121.37
385.991	64.4
386.206	60.14
386.42	50.65
386.634	135.9
386.849	97.92
387.063	93.27
387.277	65.18
387.492	75.06
387.706	40.96
387.92	54.91
388.135	150.04
388.349	116.52
388.563	121.75
388.778	107.42
388.992	120.79
389.206	106.25
389.42	183.17
389.635	103.54
389.849	126.6
390.063	155.85
390.277	115.36
390.491	160.7
390.706	152.56
390.92	162.25
391.134	115.17
391.348	155.08
391.562	63.63
391.776	119.62
391.99	94.63
392.205	185.5
392.419	90.56
392.633	106.25
392.847	163.6
393.061	98.7
393.275	154.3
393.489	90.17
393.703	93.27
393.917	127.37
394.131	44.64
394.345	102.38
394.559	120.98
394.773	96.18
394.986	124.85
395.2	132.8
395.414	196.15
395.628	108.77
395.842	154.3
396.056	150.43
396.27	102.38
396.484	152.37
396.697	161.86
396.911	141.52
397.125	155.27
397.339	115.75
397.553	134.54
397.766	198.67
397.98	127.37
398.194	215.53
398.408	162.63
398.621	190.73
398.835	212.82
399.049	181.04
399.262	238.78
399.476	208.75
399.69	213.4
399.903	282.56
400.117	226.18
400.331	241.1
400.544	172.9
400.758	335.84
400.971	227.54
401.185	240.52
401.398	186.47
401.612	285.47
401.826	256.99
402.039	251.76
402.253	200.61
402.466	247.88
402.68	227.35
402.893	259.51
403.106	266.1
403.32	229.86
403.533	281.98
403.747	219.79
403.96	261.45
404.174	255.83
404.387	191.12
404.6	252.92
404.814	281.6
405.027	257.38
405.24	246.33
405.454	242.46
405.667	304.85
405.88	187.63
406.094	262.03
406.307	292.25
406.52	271.33
406.733	213.59
406.947	192.08
407.16	316.66
407.373	336.23
407.586	199.45
407.799	224.25
408.012	272.49
408.226	259.9
408.439	344.95
408.652	238.39
408.865	282.18
409.078	343.98
409.291	280.43
409.504	238
409.717	313.76
409.93	343.21
410.143	288.18
410.357	219.79
410.57	203.52
410.783	242.65
410.996	282.56
411.209	279.27
411.421	334.29
411.634	288.38
411.847	280.43
412.06	302.33
412.273	314.53
412.486	296.51
412.699	391.06
412.912	304.85
413.125	317.05
413.338	321.89
413.55	347.66
413.763	339.14
413.976	346.5
414.189	299.81
414.402	308.72
414.615	388.16
414.827	299.23
415.04	380.21
415.253	333.71
415.466	368.59
415.678	383.89
415.891	334.49
416.104	333.33
416.316	342.43
416.529	310.27
416.742	362.78
416.954	380.21
417.167	343.01
417.38	341.27
417.592	381.96
417.805	300.97
418.017	300
418.23	355.41
418.442	287.8
418.655	333.71
418.868	336.04
419.08	384.86
419.293	382.15
419.505	350.38
419.718	372.85
419.93	384.09
420.142	349.41
420.355	383.7
420.567	404.04
420.78	355.61
420.992	346.31
421.205	419.74
421.417	339.72
421.629	340.3
421.842	329.84
422.054	347.28
422.266	390.68
422.479	429.81
422.691	342.63
422.903	409.27
423.115	326.16
423.328	340.49
423.54	352.12
423.752	379.44
423.964	375.37
424.177	399.39
424.389	382.73
424.601	497.43
424.813	406.56
425.025	425.36
425.238	429.81
425.45	385.06
425.662	380.6
425.874	723.15
426.086	375.76
426.298	419.74
426.51	386.22
426.722	392.23
426.934	396.29
427.146	438.14
427.358	354.44
427.57	441.24
427.782	400.75
427.994	408.11
428.206	387.96
428.418	341.08
428.63	423.42
428.842	440.86
429.054	434.85
429.266	443.57
429.478	384.48
429.69	373.43
429.902	339.14
430.114	411.21
430.325	391.45
430.537	327.32
430.749	326.93
430.961	260.67
431.173	311.24
431.384	353.86
431.596	270.94
431.808	354.83
432.02	440.27
432.231	472.63
432.443	511.96
432.655	447.64
432.867	427.49
433.078	438.92
433.29	496.46
433.502	481.74
433.713	513.7
433.925	483.09
434.136	535.21
434.348	389.51
434.56	386.8
434.771	544.7
434.983	382.54
435.194	437.17
435.406	478.25
435.617	537.15
435.829	551.1
436.04	508.86
436.252	544.51
436.463	554.97
436.675	571.44
436.886	500.34
437.098	558.85
437.309	597.79
437.521	543.74
437.732	543.35
437.943	543.15
438.155	519.52
438.366	457.13
438.578	568.15
438.789	521.84
439	528.62
439.211	492.2
439.423	511.19
439.634	536.95
439.845	556.33
440.057	553.04
440.268	585.39
440.479	530.75
440.69	588.1
440.902	542.38
441.113	552.07
441.324	539.47
441.535	590.43
441.746	633.44
441.957	549.35
442.168	578.42
442.38	596.63
442.591	612.52
442.802	554.59
443.013	611.93
443.224	655.33
443.435	573.77
443.646	572.02
443.857	592.37
444.068	593.72
444.279	561.56
444.49	678.2
444.701	607.09
444.912	729.93
445.123	648.17
445.334	665.02
445.545	645.45
445.756	606.7
445.967	594.5
446.178	648.55
446.388	639.64
446.599	634.02
446.81	643.9
447.021	589.65
447.232	680.71
447.443	710.36
447.653	620.46
447.864	702.22
448.075	643.71
448.286	692.34
448.496	677.42
448.707	702.22
448.918	630.73
449.129	755.69
449.339	660.76
449.55	673.55
449.761	683.62
449.971	737.48
450.182	671.41
450.393	722.95
450.603	669.86
450.814	750.46
451.024	699.7
451.235	778.75
451.446	807.81
451.656	807.43
451.867	681.3
452.077	731.28
452.288	818.86
452.498	787.86
452.709	723.34
452.919	707.26
453.13	691.18
453.34	712.88
453.55	644.29
453.761	694.28
453.971	718.3
454.182	730.9
454.392	727.21
454.602	791.93
454.813	731.28
455.023	748.33
455.233	688.66
455.444	710.16
455.654	628.4
455.864	726.05
456.075	715.59
456.285	721.01
456.495	741.75
456.705	722.76
456.916	791.34
457.126	826.8
457.336	752.21
457.546	672.19
457.756	735.93
457.967	764.03
458.177	731.67
458.387	738.84
458.597	740.78
458.807	728.57
459.017	705.9
459.227	731.48
459.437	711.33
459.647	794.44
459.857	787.47
460.068	727.41
460.278	812.27
460.488	768.09
460.698	862.06
460.908	733.8
461.117	740.2
461.327	747.95
461.537	796.38
461.747	809.17
461.957	800.84
462.167	891.71
462.377	855.67
462.587	771.97
462.797	843.27
463.007	819.63
463.216	836.88
463.426	887.25
463.636	850.82
463.846	766.74
464.056	788.63
464.265	852.57
464.475	765.77
464.685	822.34
464.895	839.2
465.104	785.34
465.314	852.18
465.524	816.53
465.733	762.48
465.943	901.78
466.153	916.89
466.362	901.2
466.572	865.36
466.782	810.91
466.991	876.01
467.201	879.69
467.41	797.35
467.62	832.61
467.829	863.03
468.039	845.21
468.249	833.97
468.458	880.27
468.668	883.96
468.877	919.99
469.086	914.96
469.296	921.35
469.505	858.77
469.715	966.49
469.924	929.87
470.134	926.97
470.343	969.01
470.552	910.5
470.762	895
470.971	834.55
471.18	890.35
471.39	914.96
471.599	853.92
471.808	898.87
472.018	901.59
472.227	992.26
472.436	978.31
472.645	955.25
472.855	964.55
473.064	1049.8
473.273	1006.99
473.482	1005.44
473.691	1041.67
473.901	1040.89
474.11	965.91
474.319	1073.25
474.528	1019.38
474.737	1108.12
474.946	1046.7
475.155	1079.45
475.364	1109.86
475.573	1055.81
475.783	1070.53
475.992	1097.85
476.201	1112
476.41	1078.67
476.619	1066.85
476.828	1090.68
477.037	1055.81
477.245	1072.28
477.454	1132.73
477.663	1101.34
477.872	1118.39
478.081	1203.25
478.29	1111.61
478.499	1205.19
478.708	1188.33
478.917	1242.39
479.125	1148.23
479.334	1150.75
479.543	1182.33
479.752	1216.23
479.961	1206.35
480.169	1243.55
480.378	1220.88
480.587	1383.63
480.796	1282.49
481.004	1244.52
481.213	1262.34
481.422	1261.57
481.63	1257.69
481.839	1280.17
482.048	1351.66
482.256	1299.74
482.465	1323.18
482.674	1375.88
482.882	1344.69
483.091	1428.58
483.299	1328.02
483.508	1363.67
483.716	1363.09
483.925	1361.16
484.134	1330.54
484.342	1346.62
484.551	1380.34
484.759	1368.13
484.967	1401.45
485.176	1400.1
485.384	1414.82
485.593	1395.25
485.801	1403.78
486.01	1345.66
486.218	1290.24
486.426	1212.36
486.635	1201.7
486.843	1185.04
487.051	1258.47
487.26	1247.43
487.468	1301.09
487.676	1328.99
487.885	1321.82
488.093	1403.39
488.301	1423.54
488.509	1396.22
488.717	1465.58
488.926	1447.37
489.134	1408.24
489.342	1432.45
489.55	1410.56
489.758	1448.73
489.967	1420.64
490.175	1560.71
490.383	1505.5
490.591	1610.9
490.799	1482.44
491.007	1594.43
491.215	1546.18
491.423	1542.31
491.631	1523.52
491.839	1545.6
492.047	1543.86
492.255	1477.79
492.463	1461.52
492.671	1463.07
492.879	1586.29
493.087	1544.83
493.295	1517.12
493.503	1566.33
493.711	1644.41
493.919	1632.21
494.127	1635.89
494.334	1642.67
494.542	1563.62
494.75	1612.45
494.958	1608.57
495.166	1705.25
495.374	1657.98
495.581	1661.27
495.789	1677.74
495.997	1706.22
496.205	1642.48
496.412	1658.17
496.62	1628.91
496.828	1663.79
497.035	1705.25
497.243	1712.81
497.451	1705.25
497.658	1731.6
497.866	1711.26
498.074	1768.99
498.281	1644.8
498.489	1780.04
498.696	1701.18
498.904	1634.14
499.112	1620.78
499.319	1759.69
499.527	1669.21
499.734	1743.42
499.942	1650.42
500.149	1688.59
500.357	1734.7
500.564	1634.14
500.771	1689.94
500.979	1653.91
501.186	1650.81
501.394	1688.98
501.601	1659.72
501.808	1708.54
502.016	1673.48
502.223	1662.24
502.43	1700.6
502.638	1647.71
502.845	1664.18
503.052	1793.41
503.26	1708.74
503.467	1813.55
503.674	1753.3
503.881	1745.16
504.089	1857.34
504.296	1755.04
504.503	1693.24
504.71	1707.96
504.917	1714.74
505.125	1748.65
505.332	1746.13
505.539	1813.55
505.746	1843.97
505.953	1827.12
506.16	1846.3
506.367	1881.95
506.574	1905.97
506.781	1887.95
506.988	1851.53
507.195	1851.14
507.402	1882.34
507.609	1875.94
507.816	1848.82
508.023	1786.04
508.23	1792.63
508.437	1769.57
508.644	1846.69
508.851	1918.95
509.058	1881.56
509.265	1845.33
509.472	1914.11
509.679	1987.73
509.885	1892.22
510.092	1915.27
510.299	1901.71
510.506	1917.98
510.713	1924.77
510.92	1878.07
511.126	1957.7
511.333	1966.62
511.54	1942.59
511.746	1988.7
511.953	2010.4
512.16	2031.13
512.367	1983.08
512.573	1955.77
512.78	1973.78
512.987	1955.38
513.193	1956.93
513.4	1869.94
513.606	1938.52
513.813	1961.97
514.02	1948.79
514.226	2010.21
514.433	1987.73
514.639	1887.37
514.846	1934.26
515.052	1886.4
515.259	1949.95
515.465	1988.9
515.672	1996.06
515.878	2086.54
516.085	2024.74
516.291	2059.81
516.497	2033.46
516.704	1979.4
516.91	1915.47
517.117	1856.37
517.323	1746.71
517.529	1781.78
517.736	1790.89
517.942	1812.59
518.148	1856.57
518.354	1880.01
518.561	1901.13
518.767	1931.93
518.973	1953.83
519.179	1956.54
519.386	1928.45
519.592	1920.89
519.798	1956.15
520.004	2062.91
520.21	2029.58
520.417	2099.91
520.623	2103.01
520.829	2153.77
521.035	2146.22
521.241	2112.12
521.447	2159.2
521.653	2282.62
521.859	2147.19
522.065	2169.08
522.271	2268.67
522.477	2239.22
522.683	2283
522.889	2220.23
523.095	2235.92
523.301	2239.8
523.507	2160.75
523.713	2214.03
523.919	2165.21
524.125	2267.89
524.331	2267.5
524.537	2385.69
524.742	2364.18
524.948	2412.04
525.154	2386.66
525.36	2443.23
525.566	2346.36
525.772	2417.66
525.977	2334.54
526.183	2359.34
526.389	2413.78
526.595	2326.6
526.8	2297.34
527.006	2202.99
527.212	2120.26
527.417	2119.87
527.623	2127.81
527.829	2249.87
528.034	2266.54
528.24	2287.07
528.446	2315.75
528.651	2423.08
528.857	2415.91
529.062	2498.45
529.268	2434.32
529.473	2486.44
529.679	2485.08
529.884	2626.32
530.09	2533.52
530.295	2543.4
530.501	2547.86
530.706	2510.27
530.912	2494.96
531.117	2539.72
531.323	2507.36
531.528	2607.34
531.733	2616.06
531.939	2598.81
532.144	2610.05
532.35	2556.77
532.555	2600.94
532.76	2558.9
532.966	2527.13
533.171	2520.93
533.376	2473.46
533.581	2423.08
533.787	2512.79
533.992	2559.29
534.197	2557.93
534.402	2546.31
534.607	2606.37
534.813	2700.53
535.018	2578.08
535.223	2586.8
535.428	2566.26
535.633	2660.81
535.838	2651.71
536.043	2673.21
536.249	2803.8
536.454	2685.22
536.659	2705.37
536.864	2657.71
537.069	2672.63
537.274	2673.6
537.479	2681.54
537.684	2650.16
537.889	2569.17
538.094	2723
538.299	2651.51
538.504	2672.63
538.708	2707.7
538.913	2735.4
539.118	2655.58
539.323	2698.79
539.528	2647.25
539.733	2671.86
539.938	2683.48
540.142	2689.68
540.347	2623.42
540.552	2620.12
540.757	2590.29
540.962	2626.52
541.166	2527.9
541.371	2576.34
541.576	2609.86
541.781	2473.26
541.985	2609.47
542.19	2630.2
542.395	2743.54
542.599	2749.55
542.804	2688.52
543.008	2753.81
543.213	2674.95
543.418	2657.52
543.622	2713.12
543.827	2658.87
544.031	2749.35
544.236	2785.2
544.44	2716.42
544.645	2836.15
544.849	2738.31
545.054	2805.93
545.258	2843.13
545.463	2856.88
545.667	2734.82
545.872	2806.51
546.076	2784.03
546.281	2772.02
546.485	2736.18
546.689	2765.63
546.894	2785.78
547.098	2788.49
547.302	2714.87
547.507	2767.95
547.711	2792.75
547.915	2825.5
548.119	2710.41
548.324	2735.79
548.528	2819.68
548.732	2784.42
548.936	2788.49
549.141	2796.05
549.345	2759.24
549.549	2760.4
549.753	2754.97
549.957	2895.25
550.161	2897.38
550.366	2781.52
550.57	2739.86
550.774	2802.63
550.978	2795.08
551.182	2780.74
551.386	2772.99
551.59	2722.42
551.794	2768.15
551.998	2796.43
552.202	2777.45
552.406	2738.12
552.61	2838.87
552.814	2836.35
553.018	2842.16
553.222	2766.98
553.426	2786.75
553.63	2872
553.833	2784.03
554.037	2679.99
554.241	2751.49
554.445	2795.27
554.649	2803.99
554.853	2754
555.056	2845.65
555.26	2832.28
555.464	2793.72
555.668	2773.77
555.871	2810.97
556.075	2844.29
556.279	2729.2
556.483	2721.45
556.686	2765.05
556.89	2768.34
557.094	2751.29
557.297	2661.97
557.501	2787.72
557.704	2637.76
557.908	2781.32
558.112	2673.99
558.315	2756.52
558.519	2709.05
558.722	2657.32
558.926	2641.44
559.129	2582.93
559.333	2576.53
559.536	2606.95
559.74	2553.86
559.943	2548.63
560.147	2589.71
560.35	2580.99
560.553	2602.11
560.757	2538.36
560.96	2651.9
561.164	2581.57
561.367	2683.29
561.57	2631.36
561.774	2637.56
561.977	2617.41
562.18	2554.64
562.384	2655.39
562.587	2589.71
562.79	2554.44
562.993	2583.51
563.197	2605.4
563.4	2660.04
563.603	2655.19
563.806	2679.22
564.009	2554.64
564.212	2601.14
564.416	2532.16
564.619	2574.21
564.822	2478.3
565.025	2616.25
565.228	2542.04
565.431	2561.23
565.634	2413.98
565.837	2481.4
566.04	2472.88
566.243	2482.37
566.446	2405.45
566.649	2545.73
566.852	2424.83
567.055	2468.03
567.258	2473.46
567.461	2574.21
567.664	2540.88
567.867	2436.26
568.07	2460.09
568.273	2476.17
568.475	2541.08
568.678	2416.5
568.881	2412.62
569.084	2412.62
569.287	2329.5
569.489	2367.87
569.692	2408.55
569.895	2407
570.098	2328.34
570.3	2292.11
570.503	2286.1
570.706	2294.05
570.909	2294.63
571.111	2233.79
571.314	2214.22
571.516	2270.8
571.719	2297.54
571.922	2262.66
572.124	2263.24
572.327	2282.23
572.529	2242.51
572.732	2238.83
572.935	2285.91
573.137	2339
573.34	2270.6
573.542	2294.05
573.745	2325.05
573.947	2349.07
574.15	2276.61
574.352	2284.17
574.554	2317.88
574.757	2198.72
574.959	2209.77
575.162	2224.69
575.364	2153
575.566	2293.08
575.769	2160.56
575.971	2240.96
576.173	2081.31
576.376	2182.26
576.578	2209.96
576.78	2235.15
576.982	2092.36
577.185	2179.93
577.387	2148.35
577.589	2113.28
577.791	2193.88
577.993	2179.16
578.196	2145.06
578.398	2195.24
578.6	2140.02
578.802	2052.64
579.004	2039.08
579.206	2093.52
579.408	2153.19
579.61	2080.54
579.812	2179.16
580.014	2061.36
580.216	2063.88
580.418	2122.97
580.62	2109.99
580.822	2052.06
581.024	2107.08
581.226	2140.02
581.428	2080.34
581.63	2200.66
581.832	2088.48
582.034	2126.07
582.236	2116.38
582.438	2133.63
582.64	2184.97
582.841	2192.52
583.043	2224.11
583.245	2133.24
583.447	2131.11
583.649	2083.44
583.85	2135.18
584.052	2155.13
584.254	2070.66
584.456	2152.81
584.657	2033.46
584.859	2110.18
585.061	2080.93
585.262	2075.89
585.464	2031.52
585.666	2063.49
585.867	2007.11
586.069	2103.79
586.27	2011.76
586.472	2050.9
586.674	2018.93
586.875	1976.3
587.077	2005.95
587.278	2026.29
587.48	2004.59
587.681	2130.53
587.883	2062.33
588.084	1943.56
588.285	2000.91
588.487	1977.66
588.688	2022.61
588.89	1908.49
589.091	1872.65
589.292	1865.67
589.494	1815.49
589.695	1781.39
589.896	1728.5
590.098	1686.26
590.299	1778.29
590.5	1741.48
590.702	1796.89
590.903	1810.26
591.104	1889.7
591.305	1881.75
591.507	1945.11
591.708	1884.66
591.909	1878.85
592.11	1963.52
592.311	1897.06
592.512	1843
592.714	1767.44
592.915	1847.65
593.116	1812.2
593.317	1871.68
593.518	1876.52
593.719	1882.34
593.92	1900.16
594.121	1942.2
594.322	1886.98
594.523	1875.17
594.724	1808.32
594.925	1865.09
595.126	1877.1
595.327	1880.98
595.528	1903.07
595.729	1870.32
595.929	1880.79
596.13	1893.96
596.331	1852.69
596.532	1865.48
596.733	1944.33
596.934	1890.67
597.135	1896.67
597.335	1890.67
597.536	1851.92
597.737	1863.35
597.938	1807.74
598.138	1878.07
598.339	1829.83
598.54	1892.6
598.74	1858.31
598.941	1848.43
599.142	1918.18
599.342	1853.85
599.543	1823.44
599.744	1872.07
599.944	1863.35
600.145	1811.23
600.345	1859.28
600.546	1936
600.746	1883.69
600.947	1935.62
601.147	1849.4
601.348	1880.01
601.548	1804.25
601.749	1860.44
601.949	1801.74
602.15	1819.95
602.35	1821.11
602.551	1879.43
602.751	1763.57
602.951	1810.26
603.152	1770.35
603.352	1873.04
603.552	1806.39
603.753	1868.19
603.953	1837.97
604.153	1848.24
604.354	1822.47
604.554	1791.47
604.754	1832.74
604.954	1794.18
605.155	1813.75
605.355	1796.7
605.555	1870.52
605.755	1892.6
605.955	1789.34
606.155	1852.3
606.356	1788.17
606.556	1835.25
606.756	1841.45
606.956	1765.51
607.156	1901.9
607.356	1765.31
607.556	1802.32
607.756	1781.01
607.956	1889.31
608.156	1815.1
608.356	1756.21
608.556	1826.92
608.756	1779.65
608.956	1758.72
609.156	1787.79
609.356	1699.83
609.556	1744.19
609.755	1756.4
609.955	1689.36
610.155	1740.32
610.355	1762.21
610.555	1718.04
610.755	1731.02
610.954	1607.8
611.154	1722.3
611.354	1773.64
611.554	1665.73
611.753	1731.41
611.953	1650.23
612.153	1744.77
612.352	1715.32
612.552	1707.58
612.752	1633.18
612.951	1696.34
613.151	1672.51
613.351	1643.06
613.55	1644.41
613.75	1666.89
613.949	1685.68
614.149	1663.4
614.348	1644.8
614.548	1612.25
614.747	1578.54
614.947	1614.19
615.146	1584.74
615.346	1659.33
615.545	1669.6
615.745	1644.41
615.944	1671.34
616.144	1642.67
616.343	1658.94
616.542	1596.75
616.742	1583
616.941	1590.55
617.14	1546.76
617.34	1562.26
617.539	1556.26
617.738	1553.16
617.938	1649.06
618.137	1571.37
618.336	1527.39
618.535	1613.8
618.734	1592.49
618.934	1590.75
619.133	1611.86
619.332	1607.99
619.531	1568.46
619.73	1600.05
619.929	1644.8
620.128	1595.2
620.328	1644.03
620.527	1558.58
620.726	1567.5
620.925	1579.12
621.124	1565.36
621.323	1606.63
621.522	1547.54
621.721	1535.72
621.92	1531.46
622.119	1562.07
622.318	1536.69
622.517	1539.01
622.715	1546.96
622.914	1477.4
623.113	1533.78
623.312	1470.62
623.511	1512.67
623.71	1498.33
623.909	1500.46
624.107	1589.97
624.306	1491.74
624.505	1458.03
624.704	1519.06
624.902	1475.66
625.101	1536.11
625.3	1514.02
625.499	1430.32
625.697	1450.67
625.896	1426.06
626.095	1488.06
626.293	1419.67
626.492	1445.44
626.69	1469.46
626.889	1454.73
627.088	1502.2
627.286	1449.5
627.485	1420.64
627.683	1439.04
627.882	1495.23
628.08	1381.5
628.279	1424.7
628.477	1500.85
628.676	1396.42
628.874	1459
629.073	1404.94
629.271	1384.21
629.469	1444.66
629.668	1402.23
629.866	1408.82
630.065	1397
630.263	1452.6
630.461	1366.97
630.66	1424.32
630.858	1424.32
631.056	1458.42
631.254	1460.55
631.453	1352.82
631.651	1419.09
631.849	1406.49
632.047	1394.87
632.245	1398.74
632.444	1383.63
632.642	1429.74
632.84	1436.91
633.038	1378.79
633.236	1341.2
633.434	1366.39
633.632	1351.27
633.83	1350.31
634.028	1447.57
634.227	1387.31
634.425	1457.25
634.623	1370.45
634.821	1435.55
635.019	1381.89
635.216	1383.24
635.414	1440.59
635.612	1396.61
635.81	1362.12
636.008	1441.56
636.206	1400.87
636.404	1398.94
636.602	1374.91
636.8	1387.12
636.997	1394.87
637.195	1412.11
637.393	1375.69
637.591	1433.81
637.789	1397.58
637.986	1385.57
638.184	1393.12
638.382	1420.64
638.58	1434.78
638.777	1454.54
638.975	1365.8
639.173	1391.96
639.37	1391.19
639.568	1382.85
639.765	1428.97
639.963	1361.16
640.161	1403.59
640.358	1412.11
640.556	1311.56
640.753	1310.01
640.951	1318.53
641.148	1366
641.346	1320.27
641.543	1321.24
641.741	1364.06
641.938	1291.21
642.136	1336.16
642.333	1300.9
642.531	1386.34
642.728	1391.19
642.925	1339.84
643.123	1300.51
643.32	1352.82
643.517	1298.57
643.715	1341.97
643.912	1299.16
644.109	1322.21
644.306	1296.25
644.504	1278.04
644.701	1341.2
644.898	1330.16
645.095	1280.36
645.293	1284.62
645.49	1316.79
645.687	1332.29
645.884	1326.67
646.081	1230.96
646.278	1248.01
646.475	1248.2
646.672	1246.84
646.87	1282.3
647.067	1287.14
647.264	1238.51
647.461	1214.88
647.658	1165.08
647.855	1285.79
648.052	1221.27
648.249	1116.45
648.446	1214.29
648.642	1208.87
648.839	1169.93
649.036	1218.17
649.233	1145.9
649.43	1150.36
649.627	1125.17
649.824	1175.35
650.021	1140.67
650.217	1150.16
650.414	1135.83
650.611	1203.64
650.808	1206.35
651.004	1165.08
651.201	1216.43
651.398	1251.3
651.595	1193.18
651.791	1142.22
651.988	1219.33
652.185	1144.55
652.381	1193.18
652.578	1088.17
652.775	1185.04
652.971	1166.63
653.168	1196.08
653.364	1218.94
653.561	1097.08
653.757	1155.2
653.954	1187.17
654.15	1152.68
654.347	1231.34
654.543	1183.49
654.74	1088.36
654.936	1123.81
655.133	1156.56
655.329	1142.03
655.525	1116.26
655.722	1172.45
655.918	1080.03
656.115	1113.35
656.311	1004.08
656.507	956.8
656.704	945.18
656.9	971.92
657.096	974.63
657.292	987.42
657.489	1012.22
657.685	1062.2
657.881	1037.79
658.077	1017.64
658.273	1024.42
658.47	1122.65
658.666	1054.45
658.862	1090.49
659.058	1110.83
659.254	1130.79
659.45	1087
659.646	1097.47
659.842	1092.43
660.038	1125.95
660.234	1053.48
660.43	1088.17
660.626	1174.58
660.822	1149.97
661.018	1137.57
661.214	1116.26
661.41	1047.67
661.606	1125.95
661.802	1132.53
661.998	1088.75
662.194	1088.75
662.39	1116.65
662.586	1125.75
662.781	1121.3
662.977	1124.01
663.173	1157.14
663.369	1107.15
663.564	1094.17
663.76	1120.52
663.956	1058.72
664.152	1129.82
664.347	1021.52
664.543	1056.39
664.739	1084.87
664.934	999.04
665.13	991.49
665.326	1085.45
665.521	1062.59
665.717	1029.46
665.912	1035.66
666.108	998.07
666.304	1046.51
666.499	1050.38
666.695	966.69
666.89	1042.83
667.086	1087.2
667.281	1034.11
667.477	1098.05
667.672	1052.13
667.867	1047.67
668.063	1022.68
668.258	990.71
668.454	1032.95
668.649	1085.84
668.844	1037.21
669.04	1053.87
669.235	1034.88
669.43	1010.28
669.626	965.33
669.821	992.26
670.016	963.2
670.211	1015.7
670.407	986.25
670.602	1040.7
670.797	996.14
670.992	1046.12
671.187	994.39
671.382	1067.05
671.578	978.31
671.773	1033.53
671.968	954.87
672.163	997.69
672.358	1023.07
672.553	969.98
672.748	975.99
672.943	1073.25
673.138	982.19
673.333	1019
673.528	947.89
673.723	987.42
673.918	988.58
674.113	975.99
674.308	1086.62
674.503	973.27
674.698	1017.25
674.892	988.77
675.087	1001.75
675.282	1014.93
675.477	985.87
675.672	995.36
675.867	975.21
676.061	933.75
676.256	942.85
676.451	971.72
676.646	991.1
676.84	944.6
677.035	921.35
677.23	907.98
677.424	994.39
677.619	1017.06
677.814	1014.15
678.008	1008.34
678.203	887.44
678.397	937.82
678.592	977.15
678.787	1041.67
678.981	935.88
679.176	965.33
679.37	1006.4
679.565	946.54
679.759	927.74
679.954	959.52
680.148	1031.98
680.342	1027.33
680.537	976.57
680.731	966.3
680.926	974.05
681.12	983.93
681.314	901.97
681.509	923.87
681.703	972.69
681.897	998.85
682.092	953.9
682.286	941.11
682.48	1025.78
682.674	984.9
682.869	968.43
683.063	941.11
683.257	1022.48
683.451	931.23
683.645	992.26
683.839	941.3
684.034	950.02
684.228	969.79
684.422	904.88
684.616	913.21
684.81	996.91
685.004	926.19
685.198	929.29
685.392	970.17
685.586	936.85
685.78	969.59
685.974	951.19
686.168	983.35
686.362	1016.87
686.556	900.23
686.75	871.17
686.944	874.46
687.138	875.04
687.331	766.54
687.525	815.95
687.719	717.53
687.913	815.56
688.107	787.08
688.301	779.72
688.494	845.01
688.688	798.51
688.882	765.19
689.076	765.19
689.269	775.26
689.463	913.02
689.657	812.46
689.85	796.77
690.044	844.24
690.238	794.25
690.431	831.84
690.625	796.58
690.818	875.82
691.012	849.86
691.205	886.28
691.399	857.41
691.593	850.44
691.786	910.11
691.98	927.74
692.173	946.73
692.366	925.8
692.56	910.31
692.753	982.57
692.947	885.51
693.14	956.42
693.333	972.89
693.527	896.94
693.72	961.84
693.914	921.74
694.107	891.32
694.3	949.05
694.493	920.57
694.687	961.84
694.88	908.56
695.073	1011.83
695.266	986.64
695.46	956.03
695.653	1000.2
695.846	1017.64
696.039	904.11
696.232	963.39
696.425	1037.02
696.618	1015.32
696.812	1017.45
697.005	1097.08
697.198	1156.17
697.391	1069.37
697.584	1073.63
697.777	1131.18
697.97	1148.81
698.163	1130.6
698.356	1078.09
698.549	1209.26
698.742	1170.9
698.935	1140.67
699.127	1116.06
699.32	1116.84
699.513	1141.83
699.706	1150.94
699.899	1154.23
700.092	1162.37
700.285	1192.21
700.477	1148.81
700.67	1211.19
700.863	1210.42
701.056	1286.17
701.248	1282.11
701.441	1281.91
701.634	1217.78
701.826	1334.61
702.019	1214.1
702.212	1316.21
702.404	1237.16
702.597	1253.43
702.79	1289.47
702.982	1293.34
703.175	1351.66
703.367	1345.07
703.56	1390.02
703.752	1476.24
703.945	1404.55
704.137	1410.56
704.33	1479.73
704.522	1479.15
704.715	1465.78
704.907	1497.17
705.1	1550.25
705.292	1539.98
705.484	1516.93
705.677	1556.65
705.869	1601.6
706.061	1597.33
706.254	1672.7
706.446	1618.84
706.638	1635.69
706.831	1662.43
707.023	1654.88
707.215	1764.92
707.407	1700.02
707.599	1721.72
707.792	1810.07
707.984	1740.32
708.176	1826.73
708.368	1761.82
708.56	1819.17
708.752	1811.23
708.944	1822.85
709.136	1880.79
709.329	1849.2
709.521	1996.06
709.713	1942.4
709.905	1951.89
710.097	1979.21
710.289	1962.74
710.481	1987.54
710.672	1996.06
710.864	2015.63
711.056	2048.38
711.248	2083.44
711.44	2090.61
711.632	2095.07
711.824	2110.38
712.016	2170.44
712.207	2180.32
712.399	2172.96
712.591	2256.85
712.783	2239.8
712.975	2233.79
713.166	2239.02
713.358	2274.09
713.55	2285.33
713.741	2308.97
713.933	2343.45
714.125	2330.28
714.316	2329.7
714.508	2427.73
714.7	2434.13
714.891	2432
715.083	2479.27
715.274	2423.28
715.466	2448.27
715.657	2509.49
715.849	2392.47
716.04	2503.29
716.232	2446.53
716.423	2507.75
716.615	2431.61
716.806	2375.62
716.998	2347.13
717.189	2331.44
717.381	2229.14
717.572	2217.71
717.763	2266.34
717.955	2285.52
718.146	2210.16
718.337	2124.13
718.528	2091.78
718.72	2059.61
718.911	2146.61
719.102	2081.12
719.293	2185.74
719.485	2138.47
719.676	2136.53
719.867	2096.62
720.058	2140.99
720.249	2133.04
720.44	2167.34
720.632	2230.5
720.823	2273.7
721.014	2399.25
721.205	2389.37
721.396	2453.31
721.587	2581.76
721.778	2627.87
721.969	2663.91
722.16	2746.25
722.351	2736.18
722.542	2918.88
722.733	2924.7
722.924	2816
723.115	2907.65
723.305	2865.21
723.496	2945.04
723.687	2736.76
723.878	2792.17
724.069	2772.8
724.26	2802.05
724.45	2735.99
724.641	2734.63
724.832	2776.28
725.023	2765.82
725.213	2797.4
725.404	2741.8
725.595	2759.43
725.785	2776.28
725.976	2829.57
726.167	2820.27
726.357	2878.39
726.548	2978.75
726.739	2849.52
726.929	2942.71
727.12	2984.37
727.31	3014.59
727.501	2984.56
727.691	2969.26
727.882	3002.97
728.072	3045.4
728.263	3020.21
728.453	3115.15
728.644	3144.79
728.834	3104.69
729.024	3074.85
729.215	3071.17
729.405	3099.84
729.596	3189.74
729.786	3232.56
729.976	3223.26
730.167	3267.82
730.357	3219.19
730.547	3193.42
730.737	3285.45
730.928	3340.67
731.118	3382.71
731.308	3318.58
731.498	3327.69
731.688	3436.58
731.879	3434.64
732.069	3483.46
732.259	3514.07
732.449	3559.22
732.639	3637.88
732.829	3653.77
733.019	3683.41
733.209	3766.33
733.399	3754.32
733.589	3883.55
733.779	3868.05
733.969	3878.9
734.159	3902.54
734.349	4024.99
734.539	4042.42
734.729	4100.35
734.919	4052.11
735.109	4110.62
735.299	4028.47
735.488	4074.2
735.678	4074.58
735.868	4133.68
736.058	4089.31
736.248	4121.67
736.437	4046.49
736.627	4060.64
736.817	4263.29
737.007	4114.11
737.196	4218.73
737.386	4147.05
737.576	4123.41
737.765	4191.22
737.955	4193.93
738.144	4334.98
738.334	4260.39
738.524	4187.15
738.713	4272.4
738.903	4214.47
739.092	4302.24
739.282	4319.68
739.471	4327.23
739.661	4296.81
739.85	4358.81
740.04	4345.44
740.229	4426.62
740.419	4414.81
740.608	4406.47
740.797	4417.71
740.987	4513.62
741.176	4430.69
741.365	4418.1
741.555	4372.76
741.744	4463.44
741.933	4378.96
742.123	4471.19
742.312	4499.09
742.501	4483
742.69	4550.82
742.88	4402.41
743.069	4558.57
743.258	4494.05
743.447	4576.58
743.636	4537.06
743.825	4547.52
744.014	4606.81
744.204	4587.05
744.393	4530.08
744.582	4641.1
744.771	4657.38
744.96	4570.38
745.149	4623.86
745.338	4565.15
745.527	4625.41
745.716	4568.25
745.905	4572.52
746.094	4640.91
746.283	4617.66
746.471	4635.87
746.66	4747.66
746.849	4701.16
747.038	4700
747.227	4634.32
747.416	4654.28
747.604	4610.49
747.793	4704.26
747.982	4666.1
748.171	4688.57
748.359	4663.38
748.548	4680.82
748.737	4648.08
748.926	4636.45
749.114	4530.86
749.303	4643.81
749.491	4620.76
749.68	4561.08
749.869	4663.96
750.057	4622.31
750.246	4603.71
750.434	4636.45
750.623	4570.97
750.811	4565.93
751	4649.24
751.188	4578.72
751.377	4588.79
751.565	4594.41
751.754	4543.26
751.942	4499.67
752.131	4639.94
752.319	4512.45
752.507	4493.47
752.696	4561.86
752.884	4617.85
753.072	4530.67
753.261	4606.42
753.449	4530.47
753.637	4493.08
753.825	4677.72
754.014	4525.82
754.202	4557.21
754.39	4611.85
754.578	4587.82
754.766	4515.55
754.955	4507.42
755.143	4583.17
755.331	4496.37
755.519	4531.63
755.707	4540.74
755.895	4509.35
756.083	4493.66
756.271	4460.53
756.459	4514.39
756.647	4509.93
756.835	4450.84
757.023	4454.14
757.211	4479.32
757.399	4402.21
757.587	4494.24
757.775	4384.77
757.963	4427.01
758.151	4390.59
758.339	4369.86
758.526	4390.2
758.714	4422.75
758.902	4322.19
759.09	4208.27
759.278	4038.74
759.465	3768.85
759.653	3338.35
759.841	3082.21
760.028	2708.67
760.216	2429.86
760.404	2249.68
760.591	1926.51
760.779	1687.81
760.967	1528.94
761.154	1348.56
761.342	1386.73
761.529	1396.61
761.717	1469.85
761.905	1516.93
762.092	1627.36
762.28	1564.01
762.467	1622.52
762.655	1587.84
762.842	1595.2
763.029	1633.56
763.217	1661.66
763.404	1683.16
763.592	1685.49
763.779	1675.41
763.966	1731.02
764.154	1804.84
764.341	1830.99
764.528	1879.04
764.716	1952.67
764.903	1974.17
765.09	2078.41
765.277	2147.19
765.465	2291.14
765.652	2371.55
765.839	2410.88
766.026	2572.08
766.213	2629.62
766.4	2727.46
766.588	2925.66
766.775	2957.63
766.962	3058.19
767.149	3144.21
767.336	3251.93
767.523	3254.07
767.71	3401.31
767.897	3472.03
768.084	3547.98
768.271	3618.31
768.458	3633.23
768.645	3745.8
768.832	3655.32
769.019	3730.1
769.206	3766.53
769.392	3820.19
769.579	3940.32
769.766	3852.16
769.953	3884.71
770.14	3933.34
770.327	3898.86
770.513	3966.67
770.7	4025.76
770.887	3900.6
771.073	3927.34
771.26	3950.39
771.447	3900.6
771.634	3888.2
771.82	3974.22
772.007	3870.18
772.193	3912.61
772.38	3977.52
772.567	3939.16
772.753	3918.04
772.94	3995.15
773.126	3976.74
773.313	3953.3
773.499	3914.16
773.686	3988.95
773.872	3853.52
774.059	3962.99
774.245	3888.39
774.432	3912.22
774.618	3783.96
774.804	3873.86
774.991	3800.63
775.177	3871.15
775.363	3873.86
775.55	3886.84
775.736	3861.66
775.922	3816.51
776.109	3835.5
776.295	3788.42
776.481	3879.68
776.667	3828.33
776.853	3831.04
777.04	3804.89
777.226	3837.63
777.412	3886.46
777.598	3757.03
777.784	3747.15
777.97	3738.63
778.156	3789.97
778.342	3765.36
778.528	3744.83
778.715	3687.28
778.901	3682.05
779.087	3737.27
779.272	3700.85
779.458	3713.63
779.644	3701.43
779.83	3693.29
780.016	3782.22
780.202	3657.25
780.388	3662.1
780.574	3604.75
780.76	3627.8
780.946	3708.98
781.131	3641.95
781.317	3592.35
781.503	3584.99
781.689	3607.65
781.874	3728.55
782.06	3611.53
782.246	3633.04
782.432	3549.34
782.617	3580.72
782.803	3657.83
782.989	3535
783.174	3549.53
783.36	3516.79
783.545	3516.59
783.731	3545.27
783.916	3447.62
784.102	3521.82
784.288	3462.15
784.473	3514.27
784.659	3431.15
784.844	3541.97
785.029	3492.37
785.215	3452.46
785.4	3380.19
785.586	3506.71
785.771	3408.48
785.956	3454.98
786.142	3458.08
786.327	3403.44
786.512	3382.91
786.698	3385.23
786.883	3342.8
787.068	3371.86
787.254	3386.39
787.439	3354.04
787.624	3344.93
787.809	3307.54
787.994	3315.1
788.18	3401.12
788.365	3267.43
788.55	3277.7
788.735	3294.75
788.92	3287.39
789.105	3288.36
789.29	3317.61
789.475	3237.21
789.66	3236.63
789.845	3224.42
790.03	3227.72
790.215	3226.75
790.4	3320.33
790.585	3252.9
790.77	3204.85
790.955	3134.52
791.14	3204.66
791.325	3269.57
791.51	3123.09
791.695	3200.4
791.879	3175.99
792.064	3119.02
792.249	3235.85
792.434	3154.67
792.618	3141.89
792.803	3197.68
792.988	3130.65
793.173	3152.35
793.357	3166.49
793.542	3127.16
793.727	3150.41
793.911	3219
794.096	3140.34
794.281	3184.51
794.465	3234.88
794.65	3132.39
794.834	3238.37
795.019	3241.86
795.203	3267.05
795.388	3257.55
795.572	3229.85
795.757	3221.52
795.941	3241.08
796.126	3237.98
796.31	3178.31
796.494	3217.25
796.679	3211.83
796.863	3175.6
797.048	3254.07
797.232	3226.17
797.416	3274.41
797.601	3232.37
797.785	3264.92
797.969	3262.78
798.153	3196.33
798.338	3255.62
798.522	3289.33
798.706	3256.58
798.89	3307.54
799.074	3376.9
799.258	3341.06
799.443	3283.32
799.627	3262.2
799.811	3353.46
799.995	3262.01
800.179	3240.12
800.363	3228.68
800.547	3285.26
800.731	3314.32
800.915	3198.65
801.099	3226.94
801.283	3257.55
801.467	3255.23
801.651	3201.37
801.835	3297.46
802.019	3272.67
802.202	3236.63
802.386	3197.49
802.57	3152.74
802.754	3213.18
802.938	3163.39
803.121	3222.68
803.305	3257.17
803.489	3237.98
803.673	3243.6
803.856	3254.84
804.04	3235.85
804.224	3252.52
804.407	3202.53
804.591	3211.05
804.775	3230.62
804.958	3212.41
805.142	3291.85
805.326	3193.42
805.509	3192.84
805.693	3279.25
805.876	3237.02
806.06	3248.25
806.243	3233.14
806.427	3300.18
806.61	3267.05
806.794	3217.06
806.977	3305.6
807.16	3270.53
807.344	3223.26
807.527	3220.16
807.71	3197.88
807.894	3219.58
808.077	3256.97
808.26	3217.64
808.444	3178.89
808.627	3277.7
808.81	3169.01
808.993	3115.92
809.177	3127.94
809.36	3108.76
809.543	3163.97
809.726	3061.67
809.909	3027.19
810.092	3032.81
810.276	3048.31
810.459	3040.17
810.642	3027.19
810.825	2998.9
811.008	3014.59
811.191	2925.86
811.374	2940.58
811.557	2934.58
811.74	3031.84
811.923	2886.53
812.106	2880.52
812.289	2873.55
812.472	2878.58
812.654	2904.35
812.837	2838.87
813.02	2778.8
813.203	2764.47
813.386	2647.44
813.569	2638.34
813.751	2566.26
813.934	2624.97
814.117	2580.41
814.3	2510.27
814.482	2492.06
814.665	2444.78
814.848	2438.58
815.03	2350.82
815.213	2330.86
815.396	2349.07
815.578	2334.35
815.761	2259.56
815.943	2308
816.126	2218.1
816.309	2210.35
816.491	2121.61
816.674	2108.05
816.856	2088.68
817.039	2133.63
817.221	2198.92
817.403	2123.36
817.586	2156.87
817.768	2181.29
817.951	2126.46
818.133	2054.96
818.315	2095.65
818.498	2146.22
818.68	2240.38
818.862	2155.13
819.045	2190.2
819.227	2217.91
819.409	2141.96
819.591	2161.14
819.774	2156.29
819.956	2101.27
820.138	2214.42
820.32	2172.18
820.502	2233.79
820.684	2322.53
820.866	2306.64
821.048	2362.44
821.231	2350.62
821.413	2366.9
821.595	2344.62
821.777	2345.97
821.959	2311.68
822.141	2436.84
822.323	2299.67
822.505	2226.82
822.686	2142.93
822.868	2066.98
823.05	1958.48
823.232	1936.2
823.414	1818.4
823.596	1898.22
823.778	1905.58
823.96	1927.28
824.141	1962.35
824.323	1958.28
824.505	2005.95
824.687	2088.09
824.868	2116.77
825.05	2208.99
825.232	2262.27
825.413	2347.13
825.595	2287.27
825.777	2215.97
825.958	2249.49
826.14	2257.43
826.321	2271.19
826.503	2258.59
826.685	2246
826.866	2325.43
827.048	2313.04
827.229	2261.5
827.411	2184.39
827.592	2120.06
827.773	2204.73
827.955	2065.62
828.136	2132.85
828.318	2041.6
828.499	2100.11
828.68	2070.08
828.862	2068.72
829.043	2097.39
829.224	2041.79
829.406	2009.63
829.587	2067.17
829.768	2038.3
829.949	2067.56
830.131	2061.36
830.312	2149.9
830.493	2072.01
830.674	2044.89
830.855	2055.16
831.036	2048.76
831.218	2113.67
831.399	2112.51
831.58	2092.36
831.761	2077.05
831.942	2086.74
832.123	2079.57
832.304	1956.35
832.485	2009.82
832.666	2037.72
832.847	2050.12
833.028	2046.63
833.209	2036.95
833.389	2022.8
833.57	1963.32
833.751	2009.43
833.932	2088.68
834.113	2044.31
834.294	2011.76
834.475	2078.99
834.655	2130.14
834.836	2063.1
835.017	2074.14
835.198	2020.48
835.378	2074.14
835.559	2096.43
835.74	2049.93
835.92	2072.4
836.101	2044.31
836.281	2075.5
836.462	2086.74
836.643	2083.83
836.823	2152.81
837.004	2145.83
837.184	2161.33
837.365	2124.33
837.545	2110.18
837.726	2068.72
837.906	2165.59
838.087	2120.64
838.267	2074.14
838.448	2060.97
838.628	2047.6
838.808	2087.9
838.989	2128.2
839.169	2035.78
839.349	2073.95
839.53	2092.55
839.71	2098.56
839.89	2046.44
840.07	2145.64
840.251	2051.67
840.431	2137.69
840.611	2107.86
840.791	2041.4
840.971	2082.09
841.151	2036.95
841.332	2042.95
841.512	2109.79
841.692	2005.95
841.872	2086.35
842.052	2018.73
842.232	2099.72
842.412	2000.91
842.592	2010.4
842.772	2046.83
842.952	2031.33
843.132	2010.79
843.312	2010.98
843.492	1977.27
843.672	2078.02
843.851	1941.23
844.031	2001.3
844.211	2004.78
844.391	1979.79
844.571	2020.86
844.751	1985.21
844.93	1982.11
845.11	1976.88
845.29	2009.43
845.47	2004.2
845.649	1981.92
845.829	2039.66
846.009	1985.02
846.188	2016.02
846.368	1997.23
846.547	1965.84
846.727	2017.76
846.907	1934.84
847.086	1947.43
847.266	1996.45
847.445	1939.1
847.625	1939.1
847.804	1933.1
847.984	1969.91
848.163	1931.93
848.343	1919.73
848.522	1933.68
848.701	1930.19
848.881	1919.15
849.06	1927.87
849.239	1954.22
849.419	1938.52
849.598	1863.35
849.777	1877.3
849.957	1810.07
850.136	1768.41
850.315	1716.29
850.494	1720.17
850.674	1762.41
850.853	1847.85
851.032	1789.14
851.211	1848.62
851.39	1823.05
851.569	1756.59
851.748	1761.63
851.927	1863.54
852.107	1790.69
852.286	1717.84
852.465	1721.72
852.644	1835.25
852.823	1831.77
853.002	1781.59
853.181	1787.4
853.359	1789.34
853.538	1701.18
853.717	1806.97
853.896	1667.86
854.075	1647.13
854.254	1593.46
854.433	1490.97
854.611	1564.4
854.79	1479.92
854.969	1542.89
855.148	1601.6
855.327	1528.17
855.505	1612.25
855.684	1566.33
855.863	1637.24
856.041	1575.05
856.22	1634.73
856.399	1621.94
856.577	1712.61
856.756	1724.62
856.934	1827.12
857.113	1864.7
857.291	1695.76
857.47	1650.42
857.648	1717.84
857.827	1719.01
858.005	1771.71
858.184	1702.93
858.362	1795.73
858.541	1701.57
858.719	1704.86
858.898	1707.19
859.076	1677.35
859.254	1772.09
859.433	1702.54
859.611	1643.64
859.789	1622.91
859.967	1707.96
860.146	1725.98
860.324	1615.16
860.502	1650.23
860.68	1599.08
860.859	1613.61
861.037	1637.24
861.215	1652.36
861.393	1658.36
861.571	1611.86
861.749	1623.49
861.927	1640.93
862.105	1632.98
862.283	1582.03
862.461	1603.34
862.639	1531.65
862.817	1606.63
862.995	1610.12
863.173	1588.42
863.351	1613.41
863.529	1604.89
863.707	1628.14
863.885	1643.64
864.063	1546.57
864.241	1557.23
864.418	1632.4
864.596	1570.98
864.774	1530.1
864.952	1571.37
865.129	1609.73
865.307	1534.56
865.485	1481.86
865.663	1552.77
865.84	1447.95
866.018	1507.43
866.196	1306.52
866.373	1384.02
866.551	1310.97
866.728	1265.64
866.906	1340.04
867.084	1375.3
867.261	1412.5
867.439	1438.46
867.616	1464.42
867.794	1465.78
867.971	1439.24
868.149	1442.53
868.326	1491.35
868.503	1456.09
868.681	1459.19
868.858	1429.55
869.035	1402.62
869.213	1446.99
869.39	1466.55
869.567	1509.57
869.745	1427.22
869.922	1466.17
870.099	1482.63
870.276	1472.75
870.454	1464.62
870.631	1434.2
870.808	1439.24
870.985	1465.39
871.162	1520.42
871.339	1470.04
871.517	1369.29
871.694	1381.89
871.871	1416.57
872.048	1433.42
872.225	1403.39
872.402	1407.46
872.579	1358.44
872.756	1429.55
872.933	1368.13
873.11	1401.26
873.287	1391.57
873.463	1355.73
873.64	1362.7
873.817	1409.59
873.994	1364.45
874.171	1345.07
874.348	1362.7
874.524	1294.89
874.701	1332.67
874.878	1293.34
875.055	1369.87
875.231	1338.87
875.408	1365.8
875.585	1303.61
875.762	1334.42
875.938	1290.44
876.115	1295.86
876.291	1341.59
876.468	1288.5
876.645	1271.45
876.821	1272.61
876.998	1278.42
877.174	1320.08
877.351	1286.76
877.527	1284.24
877.704	1322.21
877.88	1297.8
878.057	1257.11
878.233	1330.93
878.409	1270.68
878.586	1289.47
878.762	1275.91
878.938	1315.24
879.115	1187.17
879.291	1260.79
879.467	1192.98
879.644	1239.29
879.82	1260.21
879.996	1230.18
880.172	1187.36
880.349	1228.24
880.525	1283.27
880.701	1189.49
880.877	1186.78
881.053	1261.76
881.229	1223.79
881.405	1282.88
881.581	1196.28
881.757	1189.69
881.933	1205.77
882.109	1244.71
882.285	1255.37
882.461	1180
882.637	1235.99
882.813	1195.69
882.989	1220.88
883.165	1261.18
883.341	1174.96
883.517	1257.11
883.693	1253.24
883.869	1245.68
884.044	1197.24
884.22	1226.11
884.396	1298.38
884.572	1237.74
884.747	1262.73
884.923	1243.16
885.099	1257.5
885.275	1267.77
885.45	1177.48
885.626	1180.58
885.801	1192.59
885.977	1171.28
886.153	1140.48
886.328	1230.76
886.504	1196.28
886.679	1228.63
886.855	1204.41
887.03	1193.37
887.206	1248.59
887.381	1210.61
887.557	1257.5
887.732	1210.61
887.908	1200.93
888.083	1252.27
888.258	1232.51
888.434	1165.66
888.609	1215.65
888.784	1252.08
888.96	1198.79
889.135	1191.04
889.31	1126.14
889.485	1205.58
889.661	1185.23
889.836	1244.13
890.011	1221.46
890.186	1183.88
890.361	1168.76
890.537	1169.54
890.712	1202.67
890.887	1221.46
891.062	1209.84
891.237	1225.14
891.412	1167.6
891.587	1180.97
891.762	1214.68
891.937	1231.15
892.112	1131.95
892.287	1174.77
892.462	1157.91
892.637	1121.88
892.812	1123.81
892.987	1134.66
893.161	1101.92
893.336	1130.01
893.511	1120.13
893.686	1123.04
893.861	1122.85
894.035	1141.64
894.21	1150.55
894.385	1073.25
894.56	1104.44
894.734	1043.41
894.909	1035.66
895.084	1038.76
895.258	1044.18
895.433	1067.63
895.608	995.36
895.782	959.32
895.957	1009.12
896.131	960.49
896.306	923.29
896.48	909.34
896.655	953.7
896.829	831.45
897.004	853.73
897.178	841.14
897.353	870.78
897.527	916.12
897.701	870.78
897.876	840.56
898.05	932.2
898.224	912.05
898.399	924.45
898.573	888.61
898.747	757.44
898.921	820.79
899.096	733.03
899.27	715.01
899.444	711.33
899.618	762.86
899.792	748.53
899.967	758.99
900.141	834.16
900.315	745.62
900.489	768.09
900.663	783.4
900.837	795.99
901.011	702.22
901.185	813.43
901.359	787.66
901.533	794.06
901.707	784.95
901.881	766.16
902.055	711.13
902.229	723.15
902.403	835.91
902.576	775.26
902.75	806.84
902.924	878.53
903.098	844.04
903.272	878.53
903.446	906.24
903.619	885.89
903.793	942.66
903.967	917.09
904.14	948.28
904.314	946.73
904.488	948.86
904.661	936.46
904.835	929.87
905.009	957.97
905.182	1003.3
905.356	955.06
905.529	923.48
905.703	870.78
905.876	893.45
906.05	876.98
906.223	863.22
906.397	800.64
906.57	833
906.744	767.9
906.917	750.27
907.09	785.34
907.264	744.85
907.437	732.25
907.61	694.86
907.784	705.13
907.957	735.74
908.13	704.93
908.304	748.14
908.477	703.77
908.65	701.06
908.823	655.33
908.996	772.74
909.17	682.65
909.343	668.31
909.516	698.93
909.689	684.2
909.862	666.76
910.035	688.66
910.208	661.53
910.381	654.56
910.554	767.9
910.727	658.63
910.9	680.71
911.073	652.23
911.246	725.47
911.419	748.33
911.592	709.58
911.765	675.29
911.938	678.78
912.11	676.84
912.283	679.36
912.456	729.15
912.629	690.98
912.802	631.12
912.974	641.77
913.147	579
913.32	534.44
913.493	568.34
913.665	591.98
913.838	587.91
914.01	585.58
914.183	600.7
914.356	576.28
914.528	659.6
914.701	705.32
914.873	650.68
915.046	622.01
915.218	549.16
915.391	466.43
915.563	520.1
915.736	589.07
915.908	578.22
916.081	581.32
916.253	588.49
916.425	603.02
916.598	646.81
916.77	615.03
916.942	581.52
917.115	516.61
917.287	597.98
917.459	530.56
917.632	525.33
917.804	463.91
917.976	538.31
918.148	550.13
918.32	567.18
918.493	604.38
918.665	649.72
918.837	600.5
919.009	669.48
919.181	633.63
919.353	599.34
919.525	611.74
919.697	567.76
919.869	586.17
920.041	653.4
920.213	741.55
920.385	652.04
920.557	617.75
920.729	648.75
920.901	621.82
921.073	614.45
921.244	605.35
921.416	630.15
921.588	599.73
921.76	579.19
921.932	686.14
922.103	585.97
922.275	599.92
922.447	598.18
922.619	526.49
922.79	591.98
922.962	568.92
923.134	608.25
923.305	567.95
923.477	534.63
923.648	508.28
923.82	539.86
923.991	497.62
924.163	503.63
924.335	500.14
924.506	503.05
924.677	560.59
924.849	511.19
925.02	527.65
925.192	565.05
925.363	521.45
925.535	540.25
925.706	512.35
925.877	541.41
926.049	517
926.22	531.53
926.391	542.96
926.562	538.7
926.734	508.09
926.905	545.87
927.076	485.03
927.247	498.01
927.419	444.34
927.59	430.59
927.761	462.36
927.932	436.98
928.103	463.91
928.274	405.59
928.445	401.33
928.616	389.51
928.787	381.38
928.958	432.91
929.129	404.24
929.3	396.49
929.471	339.33
929.642	299.61
929.813	266.87
929.984	366.26
930.155	273.07
930.326	327.71
930.496	276.36
930.667	222.12
930.838	257.38
931.009	211.46
931.18	261.06
931.35	266.29
931.521	237.03
931.692	195.57
931.863	116.91
932.033	195.77
932.204	245.56
932.374	213.78
932.545	144.23
932.716	200.8
932.886	191.31
933.057	118.46
933.227	146.17
933.398	193.63
933.568	106.25
933.739	48.13
933.909	64.4
934.08	138.61
934.25	18.49
934.421	83.78
934.591	107.8
934.761	102.77
934.932	60.92
935.102	106.84
935.272	79.71
935.443	94.82
935.613	75.64
935.783	96.95
935.953	52.59
936.123	227.73
936.294	78.55
936.464	84.55
936.634	84.75
936.804	69.83
936.974	56.46
937.144	102.19
937.314	111.29
937.484	56.07
937.655	64.79
937.825	117.1
937.995	49.29
938.165	151.78
938.334	72.15
938.504	96.18
938.674	79.71
938.844	119.82
939.014	184.14
939.184	180.27
939.354	208.94
939.524	175.23
939.694	152.95
939.863	134.15
940.033	233.35
940.203	225.99
940.373	172.71
940.542	172.13
940.712	154.3
940.882	200.22
941.051	170.38
941.221	188.21
941.391	216.69
941.56	159.53
941.73	133.38
941.899	239.94
942.069	133.57
942.238	208.75
942.408	141.71
942.577	162.25
942.747	152.17
942.916	87.65
943.086	121.17
943.255	210.3
943.425	124.08
943.594	113.42
943.763	40.96
943.933	69.05
944.102	44.64
944.271	110.71
944.441	104.12
944.61	117.3
944.779	138.03
944.948	222.12
945.117	89.59
945.287	121.95
945.456	56.27
945.625	80.87
945.794	132.02
945.963	89.2
946.132	138.8
946.301	104.9
946.47	135.12
946.639	32.24
946.808	117.3
946.977	105.67
947.146	175.81
947.315	83.59
947.484	147.91
947.653	91.72
947.822	92.69
947.991	84.36
948.16	178.33
948.329	153.14
948.498	123.69
948.666	117.1
948.835	169.8
949.004	38.44
949.173	70.8
949.341	96.18
949.51	124.27
949.679	140.16
949.847	145.78
950.016	188.6
950.185	196.15
950.353	116.14
950.522	135.12
950.69	178.91
950.859	96.95
951.028	176.58
951.196	119.24
951.365	115.75
951.533	110.13
951.701	140.93
951.87	129.5
952.038	83.2
952.207	105.87
952.375	173.48
952.543	82.04
952.712	112.26
952.88	63.63
953.048	179.68
953.217	104.32
953.385	134.35
953.553	183.95
953.721	56.85
953.89	99.67
954.058	50.07
954.226	104.12
954.394	130.28
954.562	44.64
954.73	96.37
954.898	109.94
955.067	160.5
955.235	73.32
955.403	135.51
955.571	184.92
955.739	152.75
955.907	78.74
956.075	86.49
956.243	83.97
956.41	118.65
956.578	57.43
956.746	52.59
956.914	85.33
957.082	128.34
957.25	120.79
957.418	57.43
957.585	98.5
957.753	138.03
957.921	76.61
958.089	114.59
958.256	148.68
958.424	108
958.592	107.42
958.759	98.31
958.927	135.7
959.095	97.92
959.262	97.92
959.43	121.95
959.597	78.35
959.765	73.9
959.932	91.53
960.1	144.03
960.267	114.59
960.435	85.52
960.602	152.95
960.77	75.84
960.937	59.17
961.104	135.9
961.272	51.81
961.439	88.04
961.606	120.98
961.774	138.03
961.941	98.89
962.108	136.29
962.275	109.74
962.443	175.03
962.61	124.08
962.777	205.84
962.944	151.78
963.111	146.94
963.278	144.23
963.446	152.95
963.613	125.63
963.78	155.85
963.947	140.93
964.114	127.95
964.281	197.12
964.448	133.57
964.615	97.54
964.782	138.61
964.949	181.23
965.116	159.34
965.282	179.88
965.449	103.15
965.616	69.25
965.783	157.79
965.95	159.53
966.117	83.39
966.283	126.4
966.45	134.35
966.617	133.57
966.784	152.17
966.95	168.83
967.117	147.13
967.284	94.82
967.45	116.52
967.617	186.27
967.784	190.92
967.95	193.44
968.117	136.67
968.283	186.08
968.45	268.03
968.616	145.97
968.783	205.07
968.949	158.57
969.116	185.69
969.282	115.55
969.449	168.45
969.615	164.77
969.781	114.78
969.948	115.75
970.114	116.52
970.28	213.59
970.447	154.3
970.613	190.92
970.779	139.38
970.945	173.87
971.112	148.3
971.278	148.68
971.444	140.16
971.61	166.32
971.776	140.16
971.942	185.69
972.108	159.34
972.275	128.15
972.441	178.13
972.607	236.06
972.773	103.54
972.939	159.53
973.105	129.89
973.271	100.25
973.437	145.97
973.602	100.25
973.768	176.78
973.934	114.97
974.1	141.52
974.266	43.29
974.432	147.33
974.598	131.83
974.763	157.6
974.929	106.45
975.095	184.33
975.261	79.9
975.426	96.37
975.592	104.32
975.758	206.81
975.923	74.67
976.089	82.62
976.255	168.06
976.42	153.53
976.586	130.09
976.751	131.64
976.917	205.84
977.082	127.37
977.248	86.1
977.413	79.52
977.579	91.34
977.744	150.04
977.91	59.37
978.075	109.74
978.24	147.52
978.406	118.07
978.571	98.12
978.736	70.22
978.902	169.8
979.067	85.91
979.232	49.68
979.397	119.82
979.563	171.55
979.728	82.04
979.893	97.92
980.058	79.13
980.223	159.73
980.388	141.32
980.554	119.62
980.719	111.49
980.884	103.54
981.049	140.93
981.214	103.74
981.379	141.32
981.544	90.56
981.709	121.37
981.874	118.65
982.039	102.38
982.204	175.42
982.368	98.5
982.533	111.29
982.698	162.44
982.863	151.4
983.028	82.81
983.193	110.32
983.357	123.3
983.522	114.39
983.687	84.55
983.852	109.74
984.016	104.51
984.181	121.75
984.346	168.64
984.51	142.68
984.675	114.97
984.839	130.47
985.004	131.83
985.168	165.35
985.333	125.63
985.498	106.64
985.662	151.98
985.827	119.82
985.991	96.37
986.155	116.91
986.32	158.57
986.484	180.27
986.649	119.82
986.813	60.14
986.977	98.5
987.142	141.13
987.306	65.18
987.47	121.95
987.634	90.75
987.799	99.09
987.963	122.72
988.127	129.12
988.291	171.74
988.455	114.78
988.62	86.69
988.784	104.9
988.948	142.29
989.112	68.86
989.276	148.88
989.44	98.7
989.604	69.44
989.768	81.45
989.932	187.82
990.096	86.88
990.26	65.18
990.424	72.35
990.588	99.09
990.752	153.72
990.915	151.01
991.079	78.35
991.243	73.9
991.407	108.19
991.571	68.09
991.734	129.31
991.898	118.27
992.062	188.4
992.226	79.13
992.389	48.13
992.553	9.96
992.717	107.22
992.88	60.14
993.044	116.33
993.207	93.47
993.371	125.05
993.535	104.51
993.698	119.62
993.862	131.25
994.025	131.64
994.189	90.37
994.352	108.19
994.515	104.9
994.679	141.9
994.842	90.56
995.006	131.44
995.169	62.85
995.332	42.51
995.496	116.91
995.659	47.36
995.822	101.22
995.985	104.51
996.149	133.38
996.312	77.58
996.475	168.83
996.638	98.5
996.801	131.83
996.964	182.59
997.128	63.63
997.291	69.44
997.454	100.64
997.617	35.92
997.78	151.59
997.943	58.59
998.106	116.52
998.269	37.86
998.432	72.93
998.595	66.34
998.758	32.82
998.92	41.74
999.083	33.79
999.246	63.44
999.409	9.38
999.572	2.99
999.735	54.91
999.897	66.15
1000.06	50.65
1000.223	83.2
1000.386	99.09
1000.548	97.34
1000.711	106.06
1000.874	107.61
1001.036	17.52
1001.199	103.54
1001.361	66.92
1001.524	65.57
1001.687	105.67
1001.849	77.58
1002.012	88.62
1002.174	84.55
1002.337	95.6
1002.499	43.87
1002.661	108.39
1002.824	19.26
1002.986	48.13
1003.149	52.78
1003.311	45.61
1003.473	132.99
1003.636	38.64
1003.798	68.09
1003.96	97.15
1004.123	70.22
1004.285	56.07
1004.447	52.97
1004.609	39.41
1004.771	129.5
1004.933	15.39
1005.096	35.15
1005.258	28.76
1005.42	60.14
1005.582	97.34
1005.744	54.72
1005.906	10.93
1006.068	58.98
1006.23	17.52
1006.392	8.41
1006.554	30.89
1006.716	101.99
1006.878	90.56
1007.04	25.46
1007.202	24.49
1007.363	62.66
1007.525	89.2
1007.687	89.98
1007.849	100.64
1008.011	15
1008.172	19.46
1008.334	49.68
1008.496	81.65
1008.658	-1.66
1008.819	40.57
1008.981	8.61
1009.143	19.07
1009.304	44.06
1009.466	65.76
1009.627	116.52
1009.789	157.6
1009.95	49.68
1010.112	19.84
1010.273	67.31
1010.435	2.99
1010.596	34.76
1010.758	33.99
1010.919	25.07
1011.081	-3.79
1011.242	48.71
1011.403	55.3
1011.565	47.74
1011.726	59.56
1011.887	26.82
1012.049	39.8
1012.21	84.94
1012.371	122.53
1012.532	-16.97
1012.693	55.49
1012.855	25.46
1013.016	33.79
1013.177	84.94
1013.338	42.12
1013.499	82.62
1013.66	44.26
1013.821	55.69
1013.982	79.52
1014.143	42.32
1014.304	31.27
1014.465	66.15
1014.626	65.57
1014.787	39.02
1014.948	112.26
1015.109	-56.3
1015.27	96.76
1015.431	41.54
1015.592	3.96
1015.752	77.19
1015.913	55.69
1016.074	57.04
1016.235	54.91
1016.395	43.09
1016.556	27.4
1016.717	20.81
1016.877	77.77
1017.038	-1.28
1017.199	31.66
1017.359	34.76
1017.52	42.9
1017.681	33.21
1017.841	26.62
1018.002	12.48
1018.162	24.69
1018.323	82.42
1018.483	30.89
1018.644	10.93
1018.804	-0.5
1018.964	12.87
1019.125	10.54
1019.285	51.23
1019.446	-4.18
1019.606	-0.89
1019.766	-14.26
1019.926	34.18
1020.087	64.4
1020.247	-22.59
1020.407	53.17
1020.567	64.21
1020.728	29.34
1020.888	17.32
1021.048	13.06
1021.208	-20.65
1021.368	23.14
1021.528	91.92
1021.688	63.82
1021.848	58.01
1022.008	33.02
1022.168	21.01
1022.328	35.92
1022.488	62.08
1022.648	11.51
1022.808	52.39
1022.968	23.91
1023.128	21.39
1023.288	5.31
1023.448	40.96
1023.608	45.81
1023.767	59.75
1023.927	13.84
1024.087	-16.58
1024.247	-27.63
1024.406	12.09
1024.566	-24.91
1024.726	21.97
1024.885	11.51
1025.045	89.98
1025.205	18.49
1025.364	9.96
1025.524	29.34
1025.683	1.63
1025.843	49.87
1026.003	17.32
1026.162	60.14
1026.321	51.62
1026.481	11.32
1026.64	8.99
1026.8	33.02
1026.959	27.01
1027.119	40.57
1027.278	17.91
1027.437	-8.25
1027.597	18.49
1027.756	12.48
1027.915	36.89
1028.074	35.34
1028.234	-13.29
1028.393	40.77
1028.552	11.71
1028.711	-50.1
1028.87	51.81
1029.03	-23.17
1029.189	24.88
1029.348	-50.49
1029.507	16.55
1029.666	18.87
1029.825	7.06
1029.984	12.87
1030.143	33.99
1030.302	9.19
1030.461	-34.41
1030.62	16.36
1030.779	70.8
1030.938	-5.54
1031.097	-3.99
1031.255	38.64
1031.414	72.15
1031.573	37.28
1031.732	-23.56
1031.891	-17.55
1032.049	67.31
1032.208	66.92
1032.367	-18.13
1032.525	-16.78
1032.684	-13.09
1032.843	15.39
1033.001	-44.09
1033.16	169.8
1033.319	55.88
1033.477	43.09
1033.636	3.37
1033.794	-36.73
1033.953	46
1034.111	46.19
1034.27	-16.39
1034.428	39.99
1034.587	-11.54
1034.745	37.09
1034.903	19.07
1035.062	39.99
1035.22	-18.52
1035.378	70.99
1035.537	5.51
1035.695	37.28
1035.853	12.09
1036.011	61.11
1036.17	42.32
1036.328	-62.31
1036.486	29.14
1036.644	23.14
1036.802	-49.52
1036.96	-26.08
1037.119	-4.96
1037.277	-14.84
1037.435	-28.59
1037.593	-6.51
1037.751	19.07
1037.909	45.81
1038.067	45.81
