Data from gum_old_FLMT105791__67__15-43-55-257.txt Node

Date: Mon Mar 20 15:43:55 GMT 2023
User: antho
Spectrometer: FLMT10579
Trigger mode: 0
Integration Time (sec): 1.000000E-1
Scans to average: 10
Electric dark correction enabled: true
Nonlinearity correction enabled: false
Boxcar width: 0
XAxis mode: Wavelengths
Number of Pixels in Spectrum: 3648
>>>>>Begin Spectral Data<<<<<
345.248	-173.73
345.464	-173.73
345.681	-173.73
345.898	-152.03
346.114	-174.5
346.331	-39.85
346.548	32.03
346.764	2.58
346.981	-8.07
347.197	-0.13
347.414	29.71
347.631	-15.63
347.847	55.86
348.064	-4
348.28	25.25
348.497	-61.16
348.713	-16.6
348.93	6.07
349.146	53.93
349.363	28.55
349.579	15.18
349.796	13.63
350.012	24.28
350.229	58.58
350.445	18.47
350.661	14.21
350.878	34.36
351.094	20.02
351.311	40.75
351.527	46.18
351.743	19.05
351.96	72.53
352.176	58.58
352.392	58.77
352.609	46.76
352.825	19.83
353.041	15.76
353.257	27.58
353.474	21.57
353.69	40.56
353.906	40.36
354.122	-1.29
354.339	70.39
354.555	18.28
354.771	8.2
354.987	79.5
355.203	107.98
355.42	8.59
355.636	23.12
355.852	0.06
356.068	43.66
356.284	-15.24
356.5	95.19
356.716	61.29
356.932	43.85
357.148	73.88
357.364	1.81
357.58	98.49
357.796	64.39
358.012	38.62
358.228	49.08
358.444	-34.03
358.66	89.19
358.876	34.16
359.092	22.93
359.308	29.51
359.524	49.86
359.74	21.18
359.956	32.42
360.172	17.5
360.388	73.49
360.604	-9.82
360.819	118.83
361.035	29.13
361.251	64.19
361.467	11.5
361.683	64.58
361.898	58.58
362.114	57.22
362.33	77.56
362.546	87.44
362.762	32.61
362.977	32.81
363.193	14.4
363.409	78.92
363.624	29.32
363.84	32.61
364.056	38.43
364.271	44.43
364.487	66.52
364.703	37.46
364.918	9.56
365.134	43.46
365.35	36.1
365.565	142.47
365.781	61.87
365.996	89.96
366.212	97.71
366.427	89.38
366.643	46.37
366.858	33.78
367.074	43.66
367.289	123.09
367.505	138.98
367.72	29.71
367.936	59.54
368.151	105.27
368.367	81.05
368.582	99.65
368.798	48.31
369.013	107.4
369.228	70.01
369.444	82.02
369.659	85.7
369.874	79.69
370.09	128.13
370.305	-13.5
370.52	42.88
370.736	155.84
370.951	72.33
371.166	101.2
371.381	110.69
371.597	109.34
371.812	35.71
372.027	50.83
372.242	59.54
372.458	134.91
372.673	34.55
372.888	58.19
373.103	70.39
373.318	154.09
373.533	85.31
373.749	64.78
373.964	1.03
374.179	99.26
374.394	39.98
374.609	88.8
374.824	28.35
375.039	93.84
375.254	65.55
375.469	104.88
375.684	68.84
375.899	98.29
376.114	70.78
376.329	93.64
376.544	107.79
376.759	122.71
376.974	75.82
377.189	67.88
377.404	84.93
377.619	119.61
377.834	12.27
378.049	47.53
378.264	58.96
378.478	71.56
378.693	72.53
378.908	121.74
379.123	114.76
379.338	118.44
379.553	99.65
379.767	72.53
379.982	92.29
380.197	87.44
380.412	86.28
380.626	116.89
380.841	150.8
381.056	118.64
381.271	147.89
381.485	60.51
381.7	57.03
381.915	104.3
382.129	75.04
382.344	100.43
382.559	99.07
382.773	137.82
382.988	17.7
383.202	87.25
383.417	33.97
383.632	157.77
383.846	60.32
384.061	92.87
384.275	74.85
384.49	72.14
384.704	117.67
384.919	105.27
385.133	84.34
385.348	105.27
385.562	69.62
385.777	117.28
385.991	103.91
386.206	74.08
386.42	63.23
386.634	135.49
386.849	128.13
387.063	116.7
387.277	79.31
387.492	96.16
387.706	73.49
387.92	86.67
388.135	155.84
388.349	114.57
388.563	118.44
388.778	124.84
388.992	135.3
389.206	141.69
389.42	184.12
389.635	113.41
389.849	133.56
390.063	166.69
390.277	132.98
390.491	187.22
390.706	171.92
390.92	159.91
391.134	151.77
391.348	183.93
391.562	111.86
391.776	140.73
391.99	145.38
392.205	187.42
392.419	140.14
392.633	120.96
392.847	186.45
393.061	95
393.275	185.67
393.489	111.66
393.703	102.17
393.917	125.61
394.131	59.74
394.345	140.14
394.559	141.89
394.773	105.85
394.986	157.58
395.2	140.53
395.414	177.34
395.628	138.21
395.842	160.68
396.056	156.61
396.27	108.18
396.484	164.56
396.697	146.34
396.911	186.45
397.125	130.84
397.339	146.92
397.553	137.43
397.766	234.3
397.98	166.69
398.194	165.14
398.408	164.17
398.621	225.97
398.835	235.27
399.049	229.46
399.262	279.84
399.476	265.11
399.69	242.64
399.903	284.29
400.117	211.06
400.331	268.6
400.544	220.55
400.758	362.57
400.971	254.45
401.185	291.07
401.398	240.89
401.612	300.37
401.826	288.75
402.039	283.52
402.253	238.57
402.466	308.12
402.68	258.52
402.893	297.85
403.106	271.31
403.32	268.6
403.533	287.2
403.747	269.18
403.96	289.91
404.174	341.45
404.387	237.6
404.6	260.65
404.814	325.75
405.027	286.04
405.24	305.99
405.454	268.6
405.667	344.35
405.88	227.52
406.094	312
406.307	296.69
406.52	317.42
406.733	253.49
406.947	230.82
407.16	345.71
407.373	333.12
407.586	280.22
407.799	260.07
408.012	313.55
408.226	319.55
408.439	369.93
408.652	262.4
408.865	330.21
409.078	363.34
409.291	345.9
409.504	276.15
409.717	332.92
409.93	353.07
410.143	336.99
410.357	278.09
410.57	248.25
410.783	295.72
410.996	305.41
411.209	304.64
411.421	381.36
411.634	366.63
411.847	336.02
412.06	353.65
412.273	343.97
412.486	310.06
412.699	441.61
412.912	357.92
413.125	400.54
413.338	368.57
413.55	355.59
413.763	367.41
413.976	361.02
414.189	354.82
414.402	346.68
414.615	425.73
414.827	318.2
415.04	419.91
415.253	388.92
415.466	400.93
415.678	447.81
415.891	379.23
416.104	396.86
416.316	380.58
416.529	379.81
416.742	432.31
416.954	433.86
417.167	363.92
417.38	383.3
417.592	434.45
417.805	335.05
418.017	334.67
418.23	423.98
418.442	365.67
418.655	396.28
418.868	390.27
419.08	424.56
419.293	414.3
419.505	392.02
419.718	427.47
419.93	447.23
420.142	377.68
420.355	395.31
420.567	435.61
420.78	428.83
420.992	398.6
421.205	462.15
421.417	359.47
421.629	416.43
421.842	413.13
422.054	377.29
422.266	457.5
422.479	476.1
422.691	424.18
422.903	438.32
423.115	391.05
423.328	401.9
423.54	404.22
423.752	416.23
423.964	373.8
424.177	420.3
424.389	416.43
424.601	535.58
424.813	425.53
425.025	495.28
425.238	459.63
425.45	424.37
425.662	417.59
425.874	711.31
426.086	449.17
426.298	425.53
426.51	453.63
426.722	418.95
426.934	426.7
427.146	474.55
427.358	424.37
427.57	471.84
427.782	421.85
427.994	419.53
428.206	403.45
428.418	391.05
428.63	457.11
428.842	476.88
429.054	442.78
429.266	468.35
429.478	395.5
429.69	435.8
429.902	366.25
430.114	444.13
430.325	422.63
430.537	338.15
430.749	367.8
430.961	314.13
431.173	326.72
431.384	386.4
431.596	288.75
431.808	371.67
432.02	460.41
432.231	490.44
432.443	561.54
432.655	522.21
432.867	470.29
433.078	509.43
433.29	568.91
433.502	520.28
433.713	526.09
433.925	546.82
434.136	552.63
434.348	457.31
434.56	435.41
434.771	545.46
434.983	420.11
435.194	478.04
435.406	524.34
435.617	541.39
435.829	630.71
436.04	555.73
436.252	543.14
436.463	601.07
436.675	604.94
436.886	565.61
437.098	592.93
437.309	638.46
437.521	579.76
437.732	588.86
437.943	562.9
438.155	557.28
438.366	533.26
438.578	601.07
438.789	546.63
439	547.01
439.211	514.85
439.423	533.84
439.634	574.72
439.845	575.11
440.057	574.91
440.268	619.67
440.479	575.49
440.69	618.89
440.902	593.12
441.113	560.96
441.324	602.62
441.535	632.07
441.746	669.27
441.957	607.85
442.168	637.3
442.38	641.95
442.591	658.42
442.802	601.07
443.013	639.24
443.224	646.6
443.435	660.16
443.646	630.71
443.857	633.42
444.068	625.09
444.279	571.43
444.49	705.5
444.701	650.67
444.912	749.48
445.123	727
445.334	684.96
445.545	722.16
445.756	634.59
445.967	656.09
446.178	677.6
446.388	683.8
446.599	661.71
446.81	670.24
447.021	629.16
447.232	688.84
447.443	734.17
447.653	672.37
447.864	747.35
448.075	721.77
448.286	726.62
448.496	688.64
448.707	740.37
448.918	678.95
449.129	793.27
449.339	687.48
449.55	716.74
449.761	702.01
449.971	759.36
450.182	742.31
450.393	748.9
450.603	713.64
450.814	747.54
451.024	768.85
451.235	809.35
451.446	839.77
451.656	815.35
451.867	728.94
452.077	760.72
452.288	825.62
452.498	792.88
452.709	767.3
452.919	751.8
453.13	709.37
453.34	747.93
453.55	701.43
453.761	751.42
453.971	752
454.182	769.05
454.392	755.87
454.602	825.62
454.813	792.88
455.023	812.25
455.233	706.85
455.444	772.53
455.654	667.14
455.864	725.84
456.075	738.24
456.285	713.83
456.495	744.25
456.705	815.74
456.916	850.42
457.126	854.88
457.336	806.83
457.546	714.41
457.756	755.49
457.967	869.6
458.177	759.17
458.387	796.56
458.597	768.66
458.807	752.77
459.017	743.09
459.227	766.92
459.437	761.3
459.647	812.06
459.857	810.51
460.068	770.6
460.278	840.73
460.488	836.28
460.698	846.16
460.908	795.78
461.117	748.51
461.327	800.24
461.537	833.76
461.747	846.93
461.957	826.2
462.167	947.49
462.377	881.42
462.587	829.69
462.797	882.58
463.007	852.94
463.216	900.02
463.426	928.7
463.636	885.49
463.846	798.11
464.056	850.61
464.265	860.69
464.475	822.13
464.685	841.7
464.895	875.8
465.104	845
465.314	881.61
465.524	828.92
465.733	816.71
465.943	932.57
466.153	937.8
466.362	933.54
466.572	876.19
466.782	830.66
466.991	862.63
467.201	937.8
467.41	786.1
467.62	894.6
467.829	849.26
468.039	907.58
468.249	894.79
468.458	880.45
468.668	904.67
468.877	920.75
469.086	955.63
469.296	958.34
469.505	878.9
469.715	998.25
469.924	935.48
470.134	995.54
470.343	987.01
470.552	940.32
470.762	884.33
470.971	877.16
471.18	934.12
471.39	919.4
471.599	887.43
471.808	944
472.018	940.9
472.227	1030.61
472.436	1037.97
472.645	1002.71
472.855	959.31
473.064	1084.08
473.273	1038.36
473.482	1063.35
473.691	1101.71
473.901	1051.92
474.11	995.15
474.319	1110.62
474.528	1030.02
474.737	1122.25
474.946	1095.51
475.155	1105.01
475.364	1111.79
475.573	1115.08
475.783	1145.5
475.992	1130.19
476.201	1154.6
476.41	1130.97
476.619	1070.13
476.828	1113.53
477.037	1081.76
477.245	1113.14
477.454	1143.56
477.663	1155.19
477.872	1155.96
478.081	1248.38
478.29	1129.42
478.499	1257.87
478.708	1240.05
478.917	1264.07
479.125	1199.94
479.334	1224.93
479.543	1195.48
479.752	1251.48
479.961	1249.73
480.169	1280.54
480.378	1227.45
480.587	1402.21
480.796	1309.41
481.004	1308.05
481.213	1290.42
481.422	1269.88
481.63	1321.81
481.839	1329.95
482.048	1388.26
482.256	1373.93
482.465	1397.18
482.674	1388.65
482.882	1381.68
483.091	1476.42
483.299	1340.21
483.508	1413.84
483.716	1405.7
483.925	1398.53
484.134	1345.06
484.342	1399.31
484.551	1393.49
484.759	1410.35
484.967	1444.26
485.176	1455.3
485.384	1474.67
485.593	1445.03
485.801	1442.9
486.01	1388.07
486.218	1336.73
486.426	1246.25
486.635	1230.94
486.843	1208.85
487.051	1264.27
487.26	1278.8
487.468	1327.23
487.676	1359.98
487.885	1360.56
488.093	1414.81
488.301	1467.31
488.509	1468.47
488.717	1510.71
488.926	1498.7
489.134	1471.38
489.342	1475.06
489.55	1416.36
489.758	1475.84
489.967	1508.19
490.175	1593.44
490.383	1560.12
490.591	1644.4
490.799	1561.09
491.007	1615.72
491.215	1585.11
491.423	1548.88
491.631	1559.92
491.839	1554.11
492.047	1597.9
492.255	1524.08
492.463	1496.18
492.671	1507.03
492.879	1592.67
493.087	1552.95
493.295	1576.2
493.503	1619.4
493.711	1664.55
493.919	1651.18
494.127	1645.56
494.334	1655.63
494.542	1594.8
494.75	1662.42
494.958	1628.9
495.166	1706.01
495.374	1695.16
495.581	1729.65
495.789	1704.65
495.997	1728.1
496.205	1666.29
496.412	1653.5
496.62	1654.47
496.828	1720.73
497.035	1685.08
497.243	1733.13
497.451	1740.3
497.658	1721.12
497.866	1710.66
498.074	1791.45
498.281	1686.05
498.489	1764.52
498.696	1712.98
498.904	1660.09
499.112	1676.95
499.319	1782.35
499.527	1733.71
499.734	1757.35
499.942	1704.46
500.149	1700.39
500.357	1771.5
500.564	1691.87
500.771	1719.96
500.979	1657.77
501.186	1686.44
501.394	1699.81
501.601	1671.52
501.808	1710.08
502.016	1702.91
502.223	1644.59
502.43	1700.39
502.638	1681.4
502.845	1679.27
503.052	1782.93
503.26	1709.88
503.467	1841.05
503.674	1759.29
503.881	1779.44
504.089	1839.5
504.296	1784.28
504.503	1671.72
504.71	1714.34
504.917	1692.45
505.125	1746.7
505.332	1771.88
505.539	1779.25
505.746	1875.15
505.953	1839.11
506.16	1869.14
506.367	1929.4
506.574	1928.62
506.781	1954.39
506.988	1845.7
507.195	1836.59
507.402	1848.61
507.609	1855
507.816	1820.32
508.023	1840.86
508.23	1796.1
508.437	1785.83
508.644	1838.73
508.851	1860.62
509.058	1921.65
509.265	1855.78
509.472	1894.52
509.679	1964.08
509.885	1898.21
510.092	1907.7
510.299	1903.63
510.506	1871.47
510.713	1893.36
510.92	1859.26
511.126	1899.95
511.333	1953.42
511.54	1904.21
511.746	1964.47
511.953	1987.14
512.16	2013.49
512.367	1949.16
512.573	1924.75
512.78	1970.86
512.987	1895.69
513.193	1892.39
513.4	1809.47
513.606	1911.77
513.813	1920.49
514.02	1864.11
514.226	1981.9
514.433	1948.97
514.639	1855.39
514.846	1848.41
515.052	1852.29
515.259	1911.96
515.465	1863.33
515.672	1900.14
515.878	1976.29
516.085	1959.62
516.291	1965.24
516.497	1898.4
516.704	1898.01
516.91	1805.98
517.117	1792.23
517.323	1695.74
517.529	1721.7
517.736	1692.83
517.942	1720.73
518.148	1757.55
518.354	1819.93
518.561	1815.86
518.767	1798.81
518.973	1864.11
519.179	1874.18
519.386	1798.62
519.592	1874.57
519.798	1838.34
520.004	1957.11
520.21	1941.61
520.417	1998.76
520.623	2026.08
520.829	2046.42
521.035	2017.36
521.241	2022.01
521.447	2013.87
521.653	2175.85
521.859	2013.1
522.065	2107.84
522.271	2170.23
522.477	2113.27
522.683	2161.7
522.889	2126.25
523.095	2075.29
523.301	2088.47
523.507	2051.07
523.713	2086.53
523.919	2027.63
524.125	2134.77
524.331	2125.67
524.537	2204.13
524.742	2207.23
524.948	2180.88
525.154	2206.85
525.36	2320.58
525.566	2213.43
525.772	2281.05
525.977	2180.11
526.183	2217.7
526.389	2264.58
526.595	2175.26
526.8	2202
527.006	2095.44
527.212	2028.6
527.417	2000.12
527.623	2022.01
527.829	2069.67
528.034	2133.61
528.24	2115.78
528.446	2140.2
528.651	2279.69
528.857	2226.61
529.062	2317.48
529.268	2249.47
529.473	2308.95
529.679	2295.97
529.884	2412.41
530.09	2343.63
530.295	2331.04
530.501	2351.19
530.706	2323.87
530.912	2305.08
531.117	2353.9
531.323	2350.8
531.528	2396.91
531.733	2399.62
531.939	2350.22
532.144	2375.99
532.35	2415.71
532.555	2427.14
532.76	2363.01
532.966	2375.79
533.171	2330.46
533.376	2316.51
533.581	2243.08
533.787	2319.22
533.992	2331.81
534.197	2367.07
534.402	2360.87
534.607	2384.12
534.813	2468.6
535.018	2378.12
535.223	2385.09
535.428	2365.72
535.633	2453.29
535.838	2445.35
536.043	2451.74
536.249	2572.25
536.454	2486.81
536.659	2492.04
536.864	2449.61
537.069	2457.75
537.274	2457.75
537.479	2447.09
537.684	2450.39
537.889	2379.28
538.094	2515.48
538.299	2452.52
538.504	2450.39
538.708	2478.87
538.913	2493.01
539.118	2461.43
539.323	2504.05
539.528	2423.65
539.733	2434.5
539.938	2485.26
540.142	2466.47
540.347	2395.75
540.552	2387.42
540.757	2398.66
540.962	2397.49
541.166	2341.69
541.371	2357
541.576	2380.44
541.781	2305.46
541.985	2432.56
542.19	2396.72
542.395	2497.66
542.599	2527.11
542.804	2480.61
543.008	2526.33
543.213	2437.21
543.418	2398.85
543.622	2513.16
543.827	2411.44
544.031	2537.38
544.236	2529.82
544.44	2505.02
544.645	2594.15
544.849	2518.39
545.054	2526.72
545.258	2607.13
545.463	2558.88
545.667	2487.78
545.872	2521.3
546.076	2563.34
546.281	2559.27
546.485	2486.62
546.689	2545.9
546.894	2580.39
547.098	2561.02
547.302	2484.49
547.507	2546.29
547.711	2583.1
547.915	2588.53
548.119	2511.42
548.324	2488.36
548.528	2582.52
548.732	2514.52
548.936	2548.42
549.141	2574
549.345	2552.68
549.549	2556.37
549.753	2565.47
549.957	2678.62
550.161	2634.06
550.366	2570.12
550.57	2546.87
550.774	2561.6
550.978	2552.3
551.182	2554.43
551.386	2539.9
551.59	2530.4
551.794	2559.27
551.998	2558.69
552.202	2542.8
552.406	2524.78
552.61	2611.39
552.814	2552.3
553.018	2635.61
553.222	2590.85
553.426	2562.18
553.63	2646.65
553.833	2537.18
554.037	2490.3
554.241	2554.82
554.445	2545.13
554.649	2561.21
554.853	2543.19
555.056	2587.75
555.26	2619.91
555.464	2630.38
555.668	2567.41
555.871	2609.06
556.075	2620.11
556.279	2549.97
556.483	2487.97
556.686	2533.89
556.89	2530.4
557.094	2505.6
557.297	2450.77
557.501	2579.23
557.704	2400.59
557.908	2501.15
558.112	2433.72
558.315	2566.25
558.519	2483.32
558.722	2457.94
558.926	2458.52
559.129	2432.37
559.333	2362.62
559.536	2352.54
559.74	2368.24
559.943	2377.73
560.147	2359.71
560.35	2393.23
560.553	2399.62
560.757	2349.83
560.96	2479.06
561.164	2373.66
561.367	2480.22
561.57	2381.41
561.774	2449.61
561.977	2386.64
562.18	2392.07
562.384	2485.45
562.587	2386.06
562.79	2396.14
562.993	2361.07
563.197	2414.35
563.4	2467.24
563.603	2444.96
563.806	2514.13
564.009	2384.51
564.212	2413.19
564.416	2319.61
564.619	2386.06
564.822	2353.9
565.025	2401.17
565.228	2374.05
565.431	2363.97
565.634	2263.81
565.837	2296.55
566.04	2301.39
566.243	2268.84
566.446	2212.08
566.649	2285.31
566.852	2205.49
567.055	2272.91
567.258	2272.91
567.461	2356.03
567.664	2334.33
567.867	2236.1
568.07	2333.75
568.273	2284.93
568.475	2368.62
568.678	2256.83
568.881	2240.95
569.084	2229.71
569.287	2126.25
569.489	2173.71
569.692	2268.46
569.895	2275.04
570.098	2164.8
570.3	2166.16
570.503	2117.53
570.706	2138.65
570.909	2136.32
571.111	2083.04
571.314	2086.14
571.516	2113.85
571.719	2161.9
571.922	2069.48
572.124	2090.02
572.327	2107.65
572.529	2088.08
572.732	2099.7
572.935	2107.65
573.137	2201.23
573.34	2118.69
573.542	2202
573.745	2140.2
573.947	2160.15
574.15	2125.47
574.352	2113.85
574.554	2177.78
574.757	2070.83
574.959	2067.15
575.162	2097.77
575.364	2084.01
575.566	2183.98
575.769	2043.9
575.971	2064.25
576.173	1956.33
576.376	2041.39
576.578	2085.75
576.78	2125.86
576.982	1974.35
577.185	2036.35
577.387	1981.71
577.589	2012.71
577.791	2031.7
577.993	2057.47
578.196	2029.18
578.398	2032.86
578.6	2016
578.802	1969.31
579.004	1960.21
579.206	1956.14
579.408	2000.5
579.61	1929.59
579.812	2037.51
580.014	1958.66
580.216	1953.42
580.418	1948
580.62	1961.76
580.822	1925.72
581.024	1957.11
581.226	2001.67
581.428	1988.3
581.63	2068.32
581.832	1969.7
582.034	1989.46
582.236	1943.74
582.438	2017.94
582.64	2025.69
582.841	2028.6
583.043	2080.52
583.245	1978.81
583.447	2020.27
583.649	1959.82
583.85	1976.09
584.052	2034.02
584.254	1985.59
584.456	2057.66
584.657	1962.92
584.859	2013.87
585.061	1972.8
585.262	1965.24
585.464	1903.63
585.666	2025.11
585.867	1942.77
586.069	2024.72
586.27	1972.22
586.472	1964.27
586.674	1924.56
586.875	1922.62
587.077	1914.09
587.278	1957.69
587.48	1906.73
587.681	2037.51
587.883	1924.94
588.084	1862.17
588.285	1905.37
588.487	1910.61
588.688	1954.01
588.89	1809.86
589.091	1773.43
589.292	1809.66
589.494	1721.31
589.695	1718.6
589.896	1646.72
590.098	1693.03
590.299	1663.97
590.5	1672.3
590.702	1731.97
590.903	1734.68
591.104	1831.56
591.305	1777.89
591.507	1824.19
591.708	1843.18
591.909	1767.04
592.11	1868.76
592.311	1841.24
592.512	1787.58
592.714	1751.93
592.915	1780.21
593.116	1757.74
593.317	1816.83
593.518	1801.14
593.719	1774.98
593.92	1819.16
594.121	1852.09
594.322	1808.69
594.523	1798.81
594.724	1751.15
594.925	1766.26
595.126	1814.89
595.327	1809.47
595.528	1788.35
595.729	1807.92
595.929	1765.49
596.13	1808.11
596.331	1781.38
596.532	1782.93
596.733	1870.11
596.934	1826.33
597.135	1842.02
597.335	1832.33
597.536	1787.58
597.737	1805.21
597.938	1744.95
598.138	1784.28
598.339	1764.71
598.54	1766.46
598.74	1759.68
598.941	1755.61
599.142	1820.71
599.342	1806.37
599.543	1745.15
599.744	1755.61
599.944	1753.48
600.145	1760.45
600.345	1770.33
600.546	1847.64
600.746	1810.24
600.947	1855
601.147	1767.81
601.348	1783.31
601.548	1736.23
601.749	1747.08
601.949	1731.39
602.15	1727.9
602.35	1754.45
602.551	1761.03
602.751	1727.71
602.951	1723.45
603.152	1676.56
603.352	1778.08
603.552	1725.19
603.753	1769.95
603.953	1777.89
604.153	1810.44
604.354	1768.78
604.554	1725
604.754	1772.85
604.954	1685.28
605.155	1776.15
605.355	1762.58
605.555	1814.31
605.755	1820.32
605.955	1731.58
606.155	1787
606.356	1770.91
606.556	1758.71
606.756	1800.36
606.956	1707.17
607.156	1807.53
607.356	1726.35
607.556	1768.2
607.756	1744.95
607.956	1774.21
608.156	1764.71
608.356	1698.26
608.556	1798.43
608.756	1719.38
608.956	1681.6
609.156	1743.79
609.356	1664.16
609.556	1675.2
609.755	1738.95
609.955	1679.85
610.155	1724.41
610.355	1691.09
610.555	1652.92
610.755	1675.01
610.954	1594.22
611.154	1693.61
611.354	1725
611.554	1641.1
611.753	1651.18
611.953	1642.85
612.153	1702.91
612.352	1697.48
612.552	1627.54
612.752	1587.05
612.951	1640.91
613.151	1645.75
613.351	1585.69
613.55	1632.58
613.75	1674.62
613.949	1628.12
614.149	1610.3
614.348	1633.55
614.548	1573.29
614.747	1554.89
614.947	1605.26
615.146	1520.79
615.346	1632.58
615.545	1634.13
615.745	1620.18
615.944	1645.75
616.144	1600.61
616.343	1599.25
616.542	1600.22
616.742	1571.94
616.941	1545.2
617.14	1479.52
617.34	1536.87
617.539	1576.78
617.738	1511.49
617.938	1647.11
618.137	1517.3
618.336	1514.2
618.535	1621.92
618.734	1570.97
618.934	1594.41
619.133	1562.83
619.332	1567.87
619.531	1509.94
619.73	1568.84
619.929	1613.79
620.128	1563.02
620.328	1632.58
620.527	1549.07
620.726	1568.25
620.925	1587.05
621.124	1576.78
621.323	1587.82
621.522	1525.05
621.721	1510.71
621.92	1521.56
622.119	1558.37
622.318	1476.61
622.517	1525.44
622.715	1518.27
622.914	1460.92
623.113	1521.95
623.312	1467.51
623.511	1518.85
623.71	1500.44
623.909	1510.52
624.107	1577.75
624.306	1452.59
624.505	1472.54
624.704	1424.69
624.902	1436.12
625.101	1571.55
625.3	1480.87
625.499	1446.78
625.697	1463.05
625.896	1426.82
626.095	1468.86
626.293	1403.57
626.492	1458.59
626.69	1436.12
626.889	1431.86
627.088	1475.84
627.286	1409.58
627.485	1440.77
627.683	1381.87
627.882	1471.96
628.08	1353
628.279	1399.69
628.477	1473.32
628.676	1380.13
628.874	1436.51
629.073	1391.17
629.271	1372.38
629.469	1425.85
629.668	1373.73
629.866	1391.75
630.065	1397.37
630.263	1413.45
630.461	1352.81
630.66	1409.96
630.858	1388.46
631.056	1428.56
631.254	1438.06
631.453	1362.69
631.651	1413.06
631.849	1393.11
632.047	1379.74
632.245	1376.06
632.444	1432.05
632.642	1423.33
632.84	1401.83
633.038	1386.13
633.236	1352.81
633.434	1364.82
633.632	1341.96
633.83	1340.21
634.028	1421.01
634.227	1378.38
634.425	1449.88
634.623	1378.58
634.821	1385.55
635.019	1380.13
635.216	1336.34
635.414	1409.96
635.612	1382.84
635.81	1368.5
636.008	1434.18
636.206	1399.31
636.404	1376.83
636.602	1357.26
636.8	1339.83
636.997	1404.93
637.195	1409.96
637.393	1402.6
637.591	1419.07
637.789	1365.4
637.986	1367.92
638.184	1375.86
638.382	1411.32
638.58	1417.91
638.777	1440.77
638.975	1370.44
639.173	1393.69
639.37	1400.47
639.568	1408.99
639.765	1395.82
639.963	1359.01
640.161	1416.36
640.358	1376.25
640.556	1306.5
640.753	1329.36
640.951	1304.56
641.148	1346.8
641.346	1337.5
641.543	1303.6
641.741	1329.17
641.938	1319.68
642.136	1290.81
642.333	1289.84
642.531	1347.58
642.728	1389.43
642.925	1307.08
643.123	1307.28
643.32	1327.43
643.517	1308.83
643.715	1339.25
643.912	1325.49
644.109	1328.59
644.306	1306.7
644.504	1250.12
644.701	1353.39
644.898	1353
645.095	1282.86
645.293	1303.21
645.49	1301.27
645.687	1304.76
645.884	1332.46
646.081	1233.65
646.278	1267.95
646.475	1248.96
646.672	1249.54
646.87	1274.53
647.067	1255.35
647.264	1290.23
647.461	1210.98
647.658	1187.35
647.855	1275.89
648.052	1253.8
648.249	1150.15
648.446	1227.26
648.642	1229.2
648.839	1193.74
649.036	1211.37
649.233	1175.92
649.43	1174.37
649.627	1155.77
649.824	1179.4
650.021	1175.53
650.217	1188.32
650.414	1157.7
650.611	1200.52
650.808	1208.47
651.004	1212.53
651.201	1223.38
651.398	1265.43
651.595	1216.8
651.791	1198.58
651.988	1230.94
652.185	1186.19
652.381	1214.28
652.578	1186.19
652.775	1166.23
652.971	1186.38
653.168	1179.02
653.364	1245.86
653.561	1149.95
653.757	1164.49
653.954	1187.93
654.15	1160.22
654.347	1229.2
654.543	1181.54
654.74	1143.17
654.936	1169.33
655.133	1162.16
655.329	1185.6
655.525	1147.44
655.722	1190.45
655.918	1109.46
656.115	1136.2
656.311	1025.37
656.507	1012.2
656.704	981.01
656.9	1015.88
657.096	1048.43
657.292	986.63
657.489	1084.08
657.685	1045.72
657.881	1057.15
658.077	1078.66
658.273	1096.48
658.47	1149.95
658.666	1114.89
658.862	1128.64
659.058	1111.01
659.254	1140.27
659.45	1125.35
659.646	1153.05
659.842	1140.65
660.038	1177.27
660.234	1146.85
660.43	1154.8
660.626	1215.25
660.822	1154.02
661.018	1206.92
661.214	1151.89
661.41	1094.93
661.606	1173.59
661.802	1170.3
661.998	1152.47
662.194	1122.25
662.39	1123.41
662.586	1180.76
662.781	1189.09
662.977	1168.55
663.173	1165.26
663.369	1122.44
663.564	1170.1
663.76	1206.14
663.956	1148.4
664.152	1174.95
664.347	1083.11
664.543	1131.55
664.739	1112.37
664.934	1088.15
665.13	1051.53
665.326	1139.88
665.521	1141.04
665.717	1069.36
665.912	1080.4
666.108	1050.76
666.304	1112.75
666.499	1125.54
666.695	1030.41
666.89	1105.2
667.086	1131.74
667.281	1118.95
667.477	1143.56
667.672	1121.47
667.867	1110.62
668.063	1097.26
668.258	1067.61
668.454	1125.54
668.649	1149.57
668.844	1104.23
669.04	1132.13
669.235	1096.67
669.43	1058.51
669.626	1033.51
669.821	1044.17
670.016	1032.35
670.211	1099.19
670.407	1043.2
670.602	1103.26
670.797	1061.22
670.992	1101.13
671.187	1026.73
671.382	1110.24
671.578	1065.87
671.773	1076.91
671.968	1019.37
672.163	1070.13
672.358	1049.98
672.553	1019.95
672.748	1033.71
672.943	1099.77
673.138	1082.53
673.333	1045.52
673.528	994.57
673.723	1082.34
673.918	1037.19
674.113	991.86
674.308	1103.84
674.503	1074.78
674.698	1075.56
674.892	1055.21
675.087	1095.51
675.282	1077.11
675.477	1072.84
675.672	1061.61
675.867	1003.68
676.061	1011.23
676.256	989.92
676.451	1036.61
676.646	1048.82
676.84	1027.12
677.035	989.34
677.23	1025.18
677.424	1013.17
677.619	1031.38
677.814	1062.38
678.008	1092.22
678.203	981.78
678.397	1015.69
678.592	1011.23
678.787	1076.52
678.981	971.13
679.176	1056.57
679.37	1051.53
679.565	975.78
679.759	988.76
679.954	1053.47
680.148	1070.13
680.342	1062.96
680.537	1033.12
680.731	1016.85
680.926	1050.56
681.12	1059.09
681.314	968.8
681.509	1012.59
681.703	1018.79
681.897	1021.69
682.092	981.98
682.286	993.6
682.48	1071.49
682.674	1039.52
682.869	1014.14
683.063	995.34
683.257	1049.01
683.451	971.13
683.645	1027.89
683.839	998.25
684.034	984.3
684.228	1053.27
684.422	951.17
684.616	973.26
684.81	998.44
685.004	1003.48
685.198	998.25
685.392	1035.84
685.586	954.85
685.78	985.85
685.974	999.41
686.168	1011.23
686.362	1039.71
686.556	911.84
686.75	902.35
686.944	903.51
687.138	907.58
687.331	789.97
687.525	839.18
687.719	761.88
687.913	813.8
688.107	845.96
688.301	776.22
688.494	858.17
688.688	787.65
688.882	780.67
689.076	772.15
689.269	816.52
689.463	899.63
689.657	825.62
689.85	801.98
690.044	845.19
690.238	823.49
690.431	867.47
690.625	834.73
690.818	892.08
691.012	881.61
691.205	914.75
691.399	863.01
691.593	873.09
691.786	923.85
691.98	945.16
692.173	967.83
692.366	925.98
692.56	956.4
692.753	982.56
692.947	876.38
693.14	956.98
693.333	987.79
693.527	904.28
693.72	941.29
693.914	939.74
694.107	929.86
694.3	919.4
694.493	887.23
694.687	967.64
694.88	915.71
695.073	1007.94
695.266	972.87
695.46	940.32
695.653	996.7
695.846	980.43
696.039	915.52
696.232	933.15
696.425	991.47
696.618	1002.71
696.812	1004.06
697.005	1054.44
697.198	1086.99
697.391	1039.52
697.584	1086.02
697.777	1135.42
697.97	1100.36
698.163	1093.19
698.356	1081.95
698.549	1167.39
698.742	1146.08
698.935	1087.57
699.127	1156.54
699.32	1086.02
699.513	1082.53
699.706	1101.91
699.899	1126.12
700.092	1129.42
700.285	1139.69
700.477	1051.34
700.67	1154.99
700.863	1169.14
701.056	1240.82
701.248	1212.34
701.441	1241.4
701.634	1223.97
701.826	1303.4
702.019	1181.15
702.212	1255.16
702.404	1216.22
702.597	1211.76
702.79	1245.47
702.982	1270.08
703.175	1300.69
703.367	1271.05
703.56	1324.13
703.752	1410.93
703.945	1353.58
704.137	1369.28
704.33	1378.38
704.522	1384
704.715	1424.11
704.907	1390.78
705.1	1487.27
705.292	1441.93
705.484	1450.46
705.677	1488.62
705.869	1466.15
706.061	1533.38
706.254	1541.71
706.446	1510.32
706.638	1518.66
706.831	1558.18
707.023	1539.19
707.215	1668.23
707.407	1659.51
707.599	1584.53
707.792	1711.82
707.984	1685.86
708.176	1670.17
708.368	1672.3
708.56	1733.33
708.752	1695.93
708.944	1679.27
709.136	1741.85
709.329	1726.93
709.521	1835.24
709.713	1807.73
709.905	1847.44
710.097	1846.67
710.289	1783.31
710.481	1839.11
710.672	1844.93
710.864	1888.71
711.056	1914.48
711.248	1889.68
711.44	1931.34
711.632	1935.79
711.824	1941.41
712.016	2024.53
712.207	1989.07
712.399	1995.27
712.591	2045.26
712.783	2041.58
712.975	2046.23
713.166	2003.41
713.358	2047.2
713.55	2113.07
713.741	2117.53
713.933	2134.38
714.125	2125.08
714.316	2113.27
714.508	2248.31
714.7	2200.06
714.891	2170.61
715.083	2207.23
715.274	2199.68
715.466	2246.18
715.657	2264.58
715.849	2222.35
716.04	2276.4
716.232	2209.75
716.423	2303.91
716.615	2173.52
716.806	2208.59
716.998	2172.55
717.189	2138.45
717.381	2048.75
717.572	2051.27
717.763	2064.05
717.955	2013.68
718.146	1997.21
718.337	1967.76
718.528	1938.31
718.72	1877.48
718.911	1970.28
719.102	1923.97
719.293	1941.02
719.485	1949.55
719.676	1941.02
719.867	1910.41
720.058	1952.07
720.249	1908.09
720.44	1937.34
720.632	1987.72
720.823	2064.83
721.014	2140.2
721.205	2181.27
721.396	2258.19
721.587	2325.23
721.778	2343.24
721.969	2393.62
722.16	2452.71
722.351	2442.64
722.542	2554.23
722.733	2614.3
722.924	2524.2
723.115	2598.8
723.305	2559.47
723.496	2616.43
723.687	2462.4
723.878	2492.43
724.069	2493.59
724.26	2526.33
724.45	2435.08
724.641	2437.6
724.832	2494.37
725.023	2512.77
725.213	2470.15
725.404	2463.95
725.595	2426.17
725.785	2445.35
725.976	2549.78
726.167	2521.68
726.357	2518.39
726.548	2672.42
726.739	2542.61
726.929	2616.43
727.12	2640.26
727.31	2754.76
727.501	2660.41
727.691	2648.59
727.882	2701.29
728.072	2731.51
728.263	2720.28
728.453	2748.56
728.644	2788.09
728.834	2784.41
729.024	2752.63
729.215	2703.42
729.405	2799.32
729.596	2844.08
729.786	2846.41
729.976	2880.7
730.167	2918.87
730.357	2879.73
730.547	2918.48
730.737	2940.18
730.928	2972.15
731.118	3027.17
731.308	2962.46
731.498	3004.12
731.688	3060.69
731.879	3062.24
732.069	3136.83
732.259	3150.59
732.449	3181.39
732.639	3229.83
732.829	3249.98
733.019	3295.9
733.209	3333.49
733.399	3371.07
733.589	3470.27
733.779	3489.45
733.969	3421.25
734.159	3516.19
734.349	3563.85
734.539	3602.6
734.729	3633.02
734.919	3663.05
735.109	3699.67
735.299	3624.49
735.488	3664.02
735.678	3700.83
735.868	3689.98
736.058	3638.06
736.248	3674.09
736.437	3608.03
736.627	3643.09
736.817	3787.44
737.007	3674.48
737.196	3770.97
737.386	3719.82
737.576	3698.51
737.765	3835.48
737.955	3748.1
738.144	3915.5
738.334	3846.14
738.524	3807.59
738.713	3832
738.903	3811.65
739.092	3818.05
739.282	3846.53
739.471	3882.76
739.661	3807
739.85	3881.21
740.04	3863.77
740.229	3982.35
740.419	3897.48
740.608	3951.93
740.797	3920.35
740.987	4032.14
741.176	3992.23
741.365	3973.05
741.555	3877.53
741.744	3993.58
741.933	3962
742.123	4004.43
742.312	4045.89
742.501	4076.31
742.69	4092.2
742.88	3984.48
743.069	4110.61
743.258	4047.83
743.447	4100.72
743.636	4135.99
743.825	4102.27
744.014	4087.94
744.204	4166.02
744.393	4088.71
744.582	4167.57
744.771	4194.5
744.96	4124.94
745.149	4146.84
745.338	4091.23
745.527	4183.07
745.716	4181.52
745.905	4129.4
746.094	4220.85
746.283	4226.27
746.471	4188.49
746.66	4272.58
746.849	4230.54
747.038	4237.12
747.227	4158.07
747.416	4206.51
747.604	4158.66
747.793	4157.69
747.982	4194.11
748.171	4176.48
748.359	4213.87
748.548	4251.27
748.737	4219.3
748.926	4162.72
749.114	4099.95
749.303	4186.36
749.491	4197.99
749.68	4112.16
749.869	4228.99
750.057	4167.76
750.246	4110.41
750.434	4160.79
750.623	4194.11
750.811	4098.01
751	4209.8
751.188	4150.32
751.377	4206.12
751.565	4155.17
751.754	4152.65
751.942	4095.11
752.131	4161.37
752.319	4134.63
752.507	4074.57
752.696	4159.24
752.884	4137.54
753.072	4125.33
753.261	4132.11
753.449	4160.59
753.637	4098.21
753.825	4169.31
754.014	4111.38
754.202	4155.17
754.39	4193.34
754.578	4164.08
754.766	4120.68
754.955	4050.93
755.143	4194.11
755.331	4082.71
755.519	4150.91
755.707	4090.46
755.895	4066.82
756.083	4116.61
756.271	4060.23
756.459	4069.73
756.647	4085.42
756.835	4046.86
757.023	4024
757.211	4062.56
757.399	4004.82
757.587	4055.39
757.775	3958.71
757.963	4009.08
758.151	4002.49
758.339	3919.18
758.526	3960.65
758.714	4014.89
758.902	3895.93
759.09	3865.9
759.278	3665.57
759.465	3492.16
759.653	3084.91
759.841	2841.37
760.028	2495.14
760.216	2215.56
760.404	2089.82
760.591	1774.21
760.779	1549.07
760.967	1411.13
761.154	1228.03
761.342	1290.42
761.529	1308.44
761.717	1369.86
761.905	1379.93
762.092	1487.66
762.28	1444.06
762.467	1500.06
762.655	1433.02
762.842	1473.71
763.029	1498.89
763.217	1524.27
763.404	1506.45
763.592	1569.03
763.779	1513.42
763.966	1610.49
764.154	1642.65
764.341	1724.22
764.528	1697.87
764.716	1760.65
764.903	1809.66
765.09	1895.88
765.277	1984.62
765.465	2131.48
765.652	2143.3
765.839	2246.76
766.026	2358.36
766.213	2437.6
766.4	2498.44
766.588	2666.8
766.775	2647.81
766.962	2804.17
767.149	2848.15
767.336	3004.5
767.523	2935.92
767.71	3065.53
767.897	3196.51
768.084	3243.2
768.271	3262.77
768.458	3328.25
768.645	3386.96
768.832	3338.91
769.019	3387.35
769.206	3395.29
769.392	3440.63
769.579	3599.69
769.766	3564.43
769.953	3538.47
770.14	3559.01
770.327	3509.8
770.513	3590.78
770.7	3659.56
770.887	3538.86
771.073	3612.68
771.26	3647.16
771.447	3550.87
771.634	3557.26
771.82	3670.02
772.007	3517.93
772.193	3602.21
772.38	3637.86
772.567	3577.8
772.753	3555.33
772.94	3633.41
773.126	3610.93
773.313	3634.96
773.499	3596.98
773.686	3604.93
773.872	3517.93
774.059	3541.96
774.245	3499.53
774.432	3526.26
774.618	3497.2
774.804	3551.65
774.991	3460
775.177	3555.13
775.363	3506.5
775.55	3556.88
775.736	3445.28
775.922	3494.88
776.109	3498.75
776.295	3476.66
776.481	3529.75
776.667	3549.71
776.853	3428.62
777.04	3444.7
777.226	3434.23
777.412	3547
777.598	3451.09
777.784	3390.06
777.97	3398
778.156	3449.15
778.342	3458.07
778.528	3401.3
778.715	3357.9
778.901	3378.44
779.087	3420.48
779.272	3403.23
779.458	3343.17
779.644	3348.4
779.83	3327.29
780.016	3439.47
780.202	3359.25
780.388	3331.35
780.574	3265.09
780.76	3295.51
780.946	3361.58
781.131	3330.77
781.317	3322.83
781.503	3319.15
781.689	3310.62
781.874	3426.68
782.06	3259.09
782.246	3325.93
782.432	3285.82
782.617	3312.56
782.803	3353.25
782.989	3213.36
783.174	3224.99
783.36	3184.88
783.545	3259.67
783.731	3209.29
783.916	3160.08
784.102	3221.5
784.288	3148.84
784.473	3206.39
784.659	3134.12
784.844	3200.58
785.029	3205.42
785.215	3170.35
785.4	3105.64
785.586	3191.66
785.771	3102.35
785.956	3174.03
786.142	3121.33
786.327	3110.68
786.512	3066.89
786.698	3082.97
786.883	3037.83
787.068	3065.15
787.254	3109.71
787.439	3107.19
787.624	3062.63
787.809	3008.77
787.994	3022.91
788.18	3087.04
788.365	2962.46
788.55	3035.5
788.735	3014.97
788.92	3025.43
789.105	2990.17
789.29	3054.49
789.475	2948.9
789.66	2989.78
789.845	2939.02
790.03	2955.29
790.215	2951.42
790.4	2997.53
790.585	2973.89
790.77	2940.37
790.955	2896.59
791.14	2931.27
791.325	3013.22
791.51	2794.29
791.695	2914.22
791.879	2918.09
792.064	2864.62
792.249	2934.17
792.434	2877.02
792.618	2849.12
792.803	2939.99
792.988	2878.18
793.173	2871.4
793.357	2903.95
793.542	2826.64
793.727	2896.2
793.911	2900.46
794.096	2861.52
794.281	2875.66
794.465	2998.88
794.65	2878.76
794.834	2922.74
795.019	2951.8
795.203	2925.26
795.388	2958.2
795.572	2998.11
795.757	2934.95
795.941	2968.85
796.126	2951.03
796.31	2900.65
796.494	2942.7
796.679	2883.02
796.863	2890.39
797.048	2989.58
797.232	2917.7
797.416	2946.57
797.601	2931.85
797.785	3028.33
797.969	3017.1
798.153	2955.1
798.338	2979.51
798.522	3043.06
798.706	3015.35
798.89	2993.27
799.074	3051
799.258	3009.73
799.443	3003.73
799.627	2973.12
799.811	3056.62
799.995	2989
800.179	2918.09
800.363	2937.85
800.547	3016.52
800.731	2997.92
800.915	2920.8
801.099	2915.96
801.283	2927
801.467	2935.72
801.651	2957.81
801.835	2963.43
802.019	2992.3
802.202	2967.88
802.386	2921
802.57	2895.42
802.754	2940.95
802.938	2881.28
803.121	2882.05
803.305	2983.58
803.489	2924.49
803.673	2987.26
803.856	2958.97
804.04	2934.17
804.224	2967.88
804.407	2921.58
804.591	2902.01
804.775	2914.02
804.958	2917.12
805.142	3023.1
805.326	2945.02
805.509	2960.72
805.693	2989.58
805.876	2941.54
806.06	2922.94
806.243	2991.52
806.427	3004.12
806.61	3035.31
806.794	2932.04
806.977	2988.62
807.16	2930.1
807.344	2948.9
807.527	2945.6
807.71	2917.32
807.894	2936.3
808.077	2991.52
808.26	2911.31
808.444	2908.4
808.627	2956.26
808.81	2914.02
808.993	2827.03
809.177	2846.02
809.36	2861.32
809.543	2870.82
809.726	2799.13
809.909	2767.94
810.092	2764.26
810.276	2765.61
810.459	2783.24
810.642	2798.16
810.825	2714.66
811.008	2738.88
811.191	2681.72
811.374	2679.78
811.557	2700.51
811.74	2738.1
811.923	2622.05
812.106	2643.36
812.289	2603.45
812.472	2621.08
812.654	2629.6
812.837	2589.69
813.02	2561.02
813.203	2525.56
813.386	2380.44
813.569	2404.08
813.751	2325.81
813.934	2393.23
814.117	2369.21
814.3	2313.21
814.482	2263.23
814.665	2251.99
814.848	2226.8
815.03	2161.7
815.213	2146.98
815.396	2127.41
815.578	2089.05
815.761	2066.77
815.943	2126.63
816.126	2012.9
816.309	2006.32
816.491	1977.64
816.674	1897.43
816.856	1945.48
817.039	1933.66
817.221	2000.12
817.403	1969.31
817.586	1961.17
817.768	1990.43
817.951	1896.85
818.133	1898.79
818.315	1890.46
818.498	1960.21
818.68	1998.57
818.862	1969.7
819.045	2000.31
819.227	1992.56
819.409	1936.96
819.591	2004.38
819.774	1942.96
819.956	1937.54
820.138	2016.39
820.32	1984.42
820.502	2010.19
820.684	2051.07
820.866	2070.45
821.048	2181.08
821.231	2145.23
821.413	2152.79
821.595	2141.75
821.777	2171.2
821.959	2105.32
822.141	2210.72
822.323	2080.91
822.505	2005.54
822.686	2005.15
822.868	1877.67
823.05	1792.03
823.232	1768.01
823.414	1656.8
823.596	1757.55
823.778	1718.22
823.96	1746.31
824.141	1734.88
824.323	1759.29
824.505	1867.21
824.687	1904.79
824.868	1940.64
825.05	2042.94
825.232	2067.74
825.413	2124.89
825.595	2095.83
825.777	1998.76
825.958	2021.82
826.14	2022.79
826.321	2066.19
826.503	2071.8
826.685	2108.23
826.866	2067.54
827.048	2072.38
827.229	2041.39
827.411	1992.17
827.592	1950.32
827.773	1966.41
827.955	1902.27
828.136	1902.08
828.318	1874.76
828.499	1904.21
828.68	1855.97
828.862	1887.16
829.043	1928.82
829.224	1869.14
829.406	1856.36
829.587	1870.69
829.768	1841.83
829.949	1912.74
830.131	1864.49
830.312	1918.16
830.493	1885.23
830.674	1883.09
830.855	1847.44
831.036	1850.93
831.218	1916.81
831.399	1947.03
831.58	1872.05
831.761	1883.48
831.942	1871.66
832.123	1850.16
832.304	1803.27
832.485	1823.23
832.666	1863.91
832.847	1859.65
833.028	1878.44
833.209	1838.73
833.389	1869.14
833.57	1796.1
833.751	1809.86
833.932	1853.26
834.113	1856.94
834.294	1816.64
834.475	1864.69
834.655	1896.46
834.836	1899.76
835.017	1881.16
835.198	1820.51
835.378	1837.95
835.559	1897.82
835.74	1901.5
835.92	1847.06
836.101	1840.86
836.281	1922.81
836.462	1889.88
836.643	1895.11
836.823	1912.93
837.004	1938.51
837.184	1968.54
837.365	1957.49
837.545	1938.12
837.726	1914.09
837.906	1985.59
838.087	1900.72
838.267	1895.88
838.448	1892.01
838.628	1880.58
838.808	1884.64
838.989	1967.18
839.169	1877.48
839.349	1919.52
839.53	1953.42
839.71	1940.64
839.89	1848.61
840.07	1963.11
840.251	1879.8
840.431	1957.11
840.611	1855.78
840.791	1883.87
840.971	1902.47
841.151	1907.89
841.332	1813.93
841.512	1944.9
841.692	1816.44
841.872	1868.37
842.052	1858.29
842.232	1865.08
842.412	1785.83
842.592	1841.83
842.772	1865.85
842.952	1855.78
843.132	1846.86
843.312	1795.71
843.492	1787
843.672	1868.56
843.851	1746.89
844.031	1803.46
844.211	1801.91
844.391	1807.34
844.571	1828.65
844.751	1828.07
844.93	1840.66
845.11	1764.52
845.29	1785.83
845.47	1812.18
845.649	1843.76
845.829	1849.77
846.009	1804.05
846.188	1792.03
846.368	1834.46
846.547	1803.66
846.727	1855
846.907	1782.73
847.086	1809.28
847.266	1784.48
847.445	1795.91
847.625	1739.14
847.804	1773.63
847.984	1785.83
848.163	1751.54
848.343	1734.1
848.522	1772.08
848.701	1761.03
848.881	1710.85
849.06	1765.68
849.239	1765.49
849.419	1754.06
849.598	1654.08
849.777	1709.69
849.957	1664.35
850.136	1570.77
850.315	1588.99
850.494	1567.48
850.674	1604.49
850.853	1675.01
851.032	1599.84
851.211	1690.7
851.39	1644.98
851.569	1563.6
851.748	1622.12
851.927	1657.77
852.107	1631.03
852.286	1588.02
852.465	1572.71
852.644	1656.41
852.823	1674.43
853.002	1613.79
853.181	1600.61
853.359	1652.15
853.538	1553.14
853.717	1643.04
853.896	1551.79
854.075	1431.86
854.254	1432.05
854.433	1377.99
854.611	1424.11
854.79	1374.89
854.969	1389.81
855.148	1437.86
855.327	1406.09
855.505	1439.8
855.684	1459.37
855.863	1457.82
856.041	1467.89
856.22	1481.07
856.399	1451.81
856.577	1553.34
856.756	1546.94
856.934	1665.13
857.113	1650.79
857.291	1576.2
857.47	1532.8
857.648	1566.9
857.827	1573.29
858.005	1620.18
858.184	1503.74
858.362	1606.81
858.541	1557.02
858.719	1574.65
858.898	1542.1
859.076	1536.67
859.254	1601.39
859.433	1529.89
859.611	1504.9
859.789	1458.01
859.967	1556.05
860.146	1597.7
860.324	1478.55
860.502	1475.84
860.68	1467.89
860.859	1468.86
861.037	1504.51
861.215	1504.12
861.393	1511.87
861.571	1497.54
861.749	1430.11
861.927	1481.65
862.105	1502.38
862.283	1465.37
862.461	1429.14
862.639	1417.52
862.817	1434.96
862.995	1453.36
863.173	1438.06
863.351	1416.55
863.529	1467.12
863.707	1519.04
863.885	1459.56
864.063	1384.78
864.241	1422.17
864.418	1496.18
864.596	1410.93
864.774	1376.44
864.952	1410.93
865.129	1452.2
865.307	1369.08
865.485	1325.68
865.663	1411.71
865.84	1335.76
866.018	1363.08
866.196	1235.78
866.373	1256.9
866.551	1210.21
866.728	1186.77
866.906	1188.32
867.084	1255.16
867.261	1247.22
867.439	1297.59
867.616	1331.11
867.794	1287.32
867.971	1323.16
868.149	1326.07
868.326	1353
868.503	1344.86
868.681	1297.01
868.858	1311.35
869.035	1283.25
869.213	1335.76
869.39	1318.32
869.567	1377.8
869.745	1303.21
869.922	1332.85
870.099	1344.28
870.276	1342.15
870.454	1347.58
870.631	1315.41
870.808	1334.6
870.985	1329.56
871.162	1343.51
871.339	1337.31
871.517	1271.05
871.694	1270.85
871.871	1302.05
872.048	1274.15
872.225	1275.89
872.402	1335.76
872.579	1247.02
872.756	1299.14
872.933	1241.98
873.11	1250.51
873.287	1303.98
873.463	1254.38
873.64	1245.47
873.817	1287.51
873.994	1244.89
874.171	1215.05
874.348	1271.82
874.524	1161.19
874.701	1229.39
874.878	1174.37
875.055	1237.92
875.231	1233.85
875.408	1228.81
875.585	1180.18
875.762	1223.77
875.938	1198.58
876.115	1213.7
876.291	1188.12
876.468	1191.61
876.645	1135.81
876.821	1179.99
876.998	1186.96
877.174	1198.78
877.351	1162.94
877.527	1191.61
877.704	1190.25
877.88	1167
878.057	1150.73
878.233	1223.58
878.409	1163.71
878.586	1173.79
878.762	1141.04
878.938	1145.11
879.115	1068.58
879.291	1137.94
879.467	1095.51
879.644	1112.95
879.82	1150.92
879.996	1114.3
880.172	1090.09
880.349	1146.66
880.525	1140.46
880.701	1092.8
880.877	1064.51
881.053	1106.17
881.229	1091.25
881.405	1174.95
881.581	1085.44
881.757	1106.94
881.933	1128.25
882.109	1151.7
882.285	1143.37
882.461	1056.18
882.637	1127.67
882.813	1067.61
882.989	1113.14
883.165	1159.45
883.341	1066.84
883.517	1108.1
883.693	1111.59
883.869	1138.72
884.044	1103.26
884.22	1135.81
884.396	1141.04
884.572	1097.06
884.747	1121.86
884.923	1112.75
885.099	1119.92
885.275	1150.92
885.45	1108.88
885.626	1093.77
885.801	1054.63
885.977	1096.29
886.153	1053.66
886.328	1127.29
886.504	1077.3
886.679	1096.48
886.855	1087.76
887.03	1092.02
887.206	1132.32
887.381	1081.95
887.557	1120.89
887.732	1108.1
887.908	1135.23
888.083	1131.74
888.258	1091.25
888.434	1082.34
888.609	1105.97
888.784	1156.74
888.96	1100.55
889.135	1064.9
889.31	1052.11
889.485	1134.07
889.661	1058.89
889.836	1137.17
890.011	1110.04
890.186	1075.17
890.361	1050.56
890.537	1116.63
890.712	1117.21
890.887	1120.7
891.062	1097.26
891.237	1132.71
891.412	1059.67
891.587	1111.2
891.762	1110.82
891.937	1143.56
892.112	1068.19
892.287	1083.69
892.462	1041.46
892.637	1031.96
892.812	1014.91
892.987	1019.56
893.161	1009.1
893.336	1051.14
893.511	1036.81
893.686	1014.33
893.861	1030.02
894.035	1012.98
894.21	1026.73
894.385	999.8
894.56	1010.07
894.734	940.9
894.909	945.55
895.084	956.4
895.258	936.83
895.433	936.64
895.608	914.36
895.782	894.21
895.957	897.5
896.131	882.78
896.306	828.33
896.48	843.45
896.655	853.52
896.829	790.36
897.004	767.3
897.178	795.78
897.353	772.53
897.527	811.67
897.701	769.82
897.876	743.09
898.05	832.02
898.224	821.94
898.399	850.81
898.573	774.08
898.747	697.17
898.921	749.29
899.096	627.61
899.27	632.07
899.444	660.55
899.618	702.98
899.792	720.8
899.967	682.64
900.141	745.6
900.315	684.19
900.489	693.49
900.663	709.18
900.837	712.86
901.011	634.01
901.185	772.73
901.359	706.66
901.533	721.97
901.707	710.73
901.881	708.21
902.055	664.81
902.229	678.95
902.403	736.89
902.576	712.28
902.75	711.89
902.924	825.04
903.098	772.34
903.272	784.74
903.446	826.78
903.619	789.78
903.793	826.2
903.967	806.83
904.14	864.37
904.314	851
904.488	852.55
904.661	874.64
904.835	840.73
905.009	870.76
905.182	900.99
905.356	868.83
905.529	855.26
905.703	795.2
905.876	807.02
906.05	790.17
906.223	794.43
906.397	686.9
906.57	718.48
906.744	702.4
906.917	710.73
907.09	692.9
907.264	695.04
907.437	639.04
907.61	637.49
907.784	651.64
907.957	661.32
908.13	628.58
908.304	660.74
908.477	608.24
908.65	639.24
908.823	585.57
908.996	683.6
909.17	635.75
909.343	640.59
909.516	655.32
909.689	653.19
909.862	571.62
910.035	619.67
910.208	579.37
910.381	595.64
910.554	659.77
910.727	635.75
910.9	580.14
911.073	573.94
911.246	671.2
911.419	651.44
911.592	653.77
911.765	586.92
911.938	586.34
912.11	596.61
912.283	610.37
912.456	660.16
912.629	623.16
912.802	599.32
912.974	557.67
913.147	507.68
913.32	469.71
913.493	499.16
913.665	548.76
913.838	548.37
914.01	546.63
914.183	552.24
914.356	572.98
914.528	564.06
914.701	605.33
914.873	605.14
915.046	552.05
915.218	485.98
915.391	449.56
915.563	457.11
915.736	516.21
915.908	555.93
916.081	574.14
916.253	549.34
916.425	531.13
916.598	533.84
916.77	533.84
916.942	513.49
917.115	460.21
917.287	525.12
917.459	492.96
917.632	442.97
917.804	438.9
917.976	507.29
918.148	520.28
918.32	495.67
918.493	546.82
918.665	577.04
918.837	549.92
919.009	590.22
919.181	603.59
919.353	527.06
919.525	568.91
919.697	553.99
919.869	547.59
920.041	590.41
920.213	685.93
920.385	592.54
920.557	536.36
920.729	581.89
920.901	593.71
921.073	556.31
921.244	547.98
921.416	592.35
921.588	562.13
921.76	506.52
921.932	603.59
922.103	522.6
922.275	556.89
922.447	545.08
922.619	486.76
922.79	510.78
922.962	518.34
923.134	536.74
923.305	472.42
923.477	464.67
923.648	470.48
923.82	528.41
923.991	490.05
924.163	431.35
924.335	490.83
924.506	466.41
924.677	505.74
924.849	469.51
925.02	497.41
925.192	513.3
925.363	462.73
925.535	459.25
925.706	456.15
925.877	515.43
926.049	462.35
926.22	468.16
926.391	492.76
926.562	490.63
926.734	462.35
926.905	466.61
927.076	426.31
927.247	445.49
927.419	403.06
927.59	414.88
927.761	421.08
927.932	398.8
928.103	387.95
928.274	351.91
928.445	365.86
928.616	356.95
928.787	351.13
928.958	417.59
929.129	366.44
929.3	344.74
929.471	300.18
929.642	260.85
929.813	225.59
929.984	321.3
930.155	261.82
930.326	291.07
930.496	245.35
930.667	178.12
930.838	241.86
931.009	197.49
931.18	206.21
931.35	219.97
931.521	222.49
931.692	195.36
931.863	148.28
932.033	223.46
932.204	190.71
932.374	193.04
932.545	108.56
932.716	217.64
932.886	193.62
933.057	72.33
933.227	113.21
933.398	192.84
933.568	112.63
933.739	51.02
933.909	82.02
934.08	145.38
934.25	50.44
934.421	57.03
934.591	108.56
934.761	60.32
934.932	60.32
935.102	97.91
935.272	75.43
935.443	102.36
935.613	76.79
935.783	69.23
935.953	64.39
936.123	242.44
936.294	52.57
936.464	77.37
936.634	94.81
936.804	37.85
936.974	25.83
937.144	93.84
937.314	70.59
937.484	78.53
937.655	44.24
937.825	101.39
937.995	44.82
938.165	120.77
938.334	93.06
938.504	128.52
938.674	102.17
938.844	116.89
939.014	163.97
939.184	156.81
939.354	197.49
939.524	196.14
939.694	156.22
939.863	138.98
940.033	216.67
940.203	207.18
940.373	174.82
940.542	178.7
940.712	115.54
940.882	168.43
941.051	185.48
941.221	159.71
941.391	185.29
941.56	127.36
941.73	129.88
941.899	237.02
942.069	132.39
942.238	158.16
942.408	151.57
942.577	188.58
942.747	109.92
942.916	91.9
943.086	92.29
943.255	158.16
943.425	146.73
943.594	107.79
943.763	64.78
943.933	65.74
944.102	40.95
944.271	96.16
944.441	133.56
944.61	89.77
944.779	106.04
944.948	215.51
945.117	69.62
945.287	123.68
945.456	27.58
945.625	83.57
945.794	97.33
945.963	55.09
946.132	120.77
946.301	84.15
946.47	146.34
946.639	45.79
946.808	79.31
946.977	128.13
947.146	151.38
947.315	92.68
947.484	144.99
947.653	103.53
947.822	103.33
947.991	81.83
948.16	184.12
948.329	123.29
948.498	113.02
948.666	98.68
948.835	140.34
949.004	48.31
949.173	79.89
949.341	107.01
949.51	129.88
949.679	140.73
949.847	144.6
950.016	169.79
950.185	150.99
950.353	93.26
950.522	126.19
950.69	179.86
950.859	76.21
951.028	162.62
951.196	141.69
951.365	78.92
951.533	101.39
951.701	148.09
951.87	116.7
952.038	56.83
952.207	95.58
952.375	179.67
952.543	76.79
952.712	111.28
952.88	113.02
953.048	150.8
953.217	117.28
953.385	109.73
953.553	151.57
953.721	67.1
953.89	116.51
954.058	73.11
954.226	72.72
954.394	82.02
954.562	63.23
954.73	90.35
954.898	90.16
955.067	143.05
955.235	95
955.403	127.74
955.571	148.28
955.739	129.1
955.907	65.74
956.075	83.18
956.243	77.37
956.41	125.42
956.578	40.75
956.746	77.95
956.914	63.81
957.082	116.89
957.25	118.25
957.418	75.82
957.585	96.74
957.753	159.13
957.921	80.08
958.089	103.14
958.256	136.27
958.424	134.72
958.592	113.21
958.759	77.18
958.927	109.73
959.095	81.44
959.262	78.92
959.43	112.83
959.597	66.33
959.765	131.43
959.932	44.82
960.1	138.4
960.267	117.28
960.435	97.13
960.602	132.59
960.77	92.09
960.937	67.49
961.104	112.44
961.272	59.74
961.439	69.23
961.606	107.01
961.774	127.74
961.941	90.35
962.108	92.29
962.275	97.71
962.443	171.14
962.61	115.73
962.777	176.76
962.944	132.39
963.111	117.48
963.278	132.2
963.446	122.32
963.613	89.38
963.78	150.41
963.947	124.26
964.114	122.13
964.281	192.26
964.448	119.8
964.615	89.77
964.782	146.92
964.949	166.11
965.116	151.38
965.282	142.66
965.449	131.62
965.616	113.02
965.783	144.99
965.95	126.97
966.117	75.04
966.283	119.61
966.45	128.71
966.617	130.26
966.784	154.87
966.95	172.11
967.117	151.19
967.284	84.34
967.45	109.34
967.617	170.56
967.784	132.01
967.95	200.4
968.117	129.68
968.283	147.12
968.45	228.3
968.616	168.43
968.783	153.12
968.949	143.05
969.116	172.89
969.282	124.06
969.449	142.28
969.615	148.47
969.781	98.1
969.948	110.31
970.114	71.17
970.28	211.44
970.447	112.83
970.613	183.74
970.779	115.93
970.945	134.91
971.112	148.47
971.278	151.96
971.444	127.16
971.61	165.91
971.776	108.37
971.942	158.16
972.108	174.82
972.275	137.24
972.441	139.76
972.607	189.55
972.773	99.84
972.939	145.38
973.105	114.38
973.271	103.14
973.437	112.83
973.602	88.22
973.768	136.66
973.934	118.83
974.1	135.88
974.266	51.02
974.432	130.07
974.598	87.64
974.763	145.38
974.929	112.05
975.095	191.87
975.261	103.91
975.426	83.18
975.592	112.05
975.758	176.76
975.923	63.42
976.089	93.64
976.255	120.19
976.42	137.43
976.586	161.84
976.751	120.19
976.917	194.78
977.082	155.06
977.248	81.24
977.413	66.91
977.579	110.31
977.744	120.96
977.91	76.4
978.075	105.46
978.24	140.53
978.406	121.54
978.571	105.27
978.736	73.69
978.902	146.54
979.067	57.22
979.232	40.36
979.397	127.16
979.563	156.61
979.728	101.01
979.893	103.14
980.058	102.75
980.223	153.51
980.388	118.25
980.554	111.28
980.719	78.92
980.884	106.04
981.049	128.71
981.214	87.83
981.379	108.37
981.544	79.69
981.709	92.48
981.874	124.64
982.039	104.49
982.204	124.26
982.368	90.54
982.533	101.01
982.698	146.15
982.863	155.45
983.028	87.64
983.193	113.79
983.357	120.38
983.522	116.31
983.687	103.53
983.852	93.26
984.016	103.14
984.181	103.53
984.346	150.22
984.51	126.97
984.675	121.74
984.839	143.44
985.004	120.96
985.168	128.91
985.333	107.4
985.498	100.81
985.662	143.83
985.827	152.74
985.991	100.04
986.155	91.13
986.32	142.47
986.484	164.94
986.649	95.19
986.813	46.37
986.977	115.73
987.142	105.85
987.306	81.24
987.47	80.66
987.634	114.38
987.799	107.79
987.963	120.58
988.127	164.17
988.291	164.36
988.455	125.42
988.62	113.79
988.784	94.03
988.948	107.01
989.112	83.76
989.276	104.11
989.44	87.25
989.604	112.44
989.768	91.13
989.932	172.69
990.096	71.94
990.26	69.23
990.424	76.79
990.588	97.71
990.752	172.69
990.915	122.9
991.079	81.63
991.243	81.83
991.407	114.57
991.571	62.06
991.734	114.96
991.898	117.86
992.062	155.26
992.226	86.86
992.389	68.07
992.553	18.86
992.717	75.04
992.88	98.88
993.044	92.29
993.207	83.38
993.371	107.59
993.535	96.36
993.698	102.56
993.862	126.58
994.025	109.92
994.189	97.13
994.352	89.58
994.515	91.9
994.679	122.71
994.842	78.92
995.006	121.54
995.169	53.73
995.332	69.23
995.496	121.54
995.659	35.52
995.822	69.62
995.985	92.87
996.149	128.33
996.312	112.24
996.475	162.23
996.638	52.57
996.801	128.52
996.964	159.13
997.128	65.74
997.291	62.26
997.454	75.24
997.617	40.75
997.78	115.93
997.943	51.8
998.106	97.52
998.269	69.81
998.432	96.36
998.595	95.19
998.758	17.89
998.92	21.76
999.083	2.78
999.246	65.94
999.409	43.08
999.572	34.94
999.735	49.47
999.897	95
1000.06	71.75
1000.223	80.86
1000.386	76.4
1000.548	101.98
1000.711	84.54
1000.874	95.39
1001.036	27
1001.199	128.52
1001.361	55.28
1001.524	70.78
1001.687	87.44
1001.849	28.74
1002.012	55.48
1002.174	60.51
1002.337	92.29
1002.499	53.35
1002.661	98.68
1002.824	38.81
1002.986	51.21
1003.149	88.41
1003.311	27
1003.473	133.36
1003.636	76.01
1003.798	59.35
1003.96	89.96
1004.123	69.81
1004.285	40.95
1004.447	79.89
1004.609	75.04
1004.771	111.86
1004.933	8.78
1005.096	34.55
1005.258	6.26
1005.42	41.72
1005.582	78.92
1005.744	58.77
1005.906	42.3
1006.068	52.18
1006.23	34.36
1006.392	-13.11
1006.554	33.97
1006.716	101.78
1006.878	84.34
1007.04	12.46
1007.202	31.84
1007.363	51.02
1007.525	62.45
1007.687	105.85
1007.849	126.58
1008.011	20.6
1008.172	23.12
1008.334	41.91
1008.496	80.47
1008.658	-3.62
1008.819	6.85
1008.981	16.73
1009.143	2.97
1009.304	58
1009.466	72.33
1009.627	102.75
1009.789	146.92
1009.95	68.65
1010.112	24.09
1010.273	72.14
1010.435	45.98
1010.596	9.17
1010.758	33.97
1010.919	8.98
1011.081	5.88
1011.242	31.45
1011.403	63.23
1011.565	55.86
1011.726	56.83
1011.887	18.08
1012.049	29.71
1012.21	74.46
1012.371	97.52
1012.532	-14.85
1012.693	21.38
1012.855	41.53
1013.016	51.02
1013.177	83.18
1013.338	50.25
1013.499	98.68
1013.66	64.39
1013.821	43.85
1013.982	57.61
1014.143	44.82
1014.304	25.06
1014.465	54.12
1014.626	76.21
1014.787	46.37
1014.948	124.45
1015.109	-34.42
1015.27	73.88
1015.431	20.02
1015.592	5.68
1015.752	83.96
1015.913	25.25
1016.074	27.19
1016.235	51.99
1016.395	55.28
1016.556	23.7
1016.717	43.66
1016.877	90.16
1017.038	3.55
1017.199	69.62
1017.359	34.36
1017.52	19.83
1017.681	0.65
1017.841	25.83
1018.002	15.18
1018.162	38.81
1018.323	74.46
1018.483	32.03
1018.644	26.22
1018.804	-21.64
1018.964	-14.85
1019.125	11.5
1019.285	39.59
1019.446	2.2
1019.606	14.6
1019.766	-31.52
1019.926	42.5
1020.087	51.21
1020.247	-17.18
1020.407	48.89
1020.567	74.85
1020.728	17.11
1020.888	3.55
1021.048	-0.32
1021.208	3.16
1021.368	-8.07
1021.528	89.96
1021.688	45.98
1021.848	55.67
1022.008	38.62
1022.168	26.22
1022.328	20.6
1022.488	62.06
1022.648	3.55
1022.808	29.51
1022.968	47.73
1023.128	-10.79
1023.288	-11.37
1023.448	21.76
1023.608	68.07
1023.767	45.01
1023.927	14.6
1024.087	-6.52
1024.247	-28.03
1024.406	23.31
1024.566	10.53
1024.726	8.98
1024.885	53.54
1025.045	59.35
1025.205	29.32
1025.364	4.52
1025.524	29.71
1025.683	30.68
1025.843	34.36
1026.003	-3.23
1026.162	73.88
1026.321	59.35
1026.481	41.14
1026.64	13.24
1026.8	27.38
1026.959	53.93
1027.119	28.16
1027.278	-4
1027.437	-2.45
1027.597	37.85
1027.756	46.37
1027.915	35.52
1028.074	15.95
1028.234	-18.73
1028.393	52.38
1028.552	1.61
1028.711	-47.79
1028.87	53.35
1029.03	-13.3
1029.189	19.63
1029.348	-39.46
1029.507	9.36
1029.666	13.82
1029.825	-5.55
1029.984	-12.14
1030.143	30.87
1030.302	25.83
1030.461	-18.54
1030.62	18.86
1030.779	53.15
1030.938	-26.87
1031.097	-8.46
1031.255	55.09
1031.414	93.06
1031.573	57.22
1031.732	-28.61
1031.891	-7.49
1032.049	46.56
1032.208	51.6
1032.367	-8.27
1032.525	2.2
1032.684	7.43
1032.843	37.07
1033.001	-32.68
1033.16	170.17
1033.319	76.98
1033.477	32.03
1033.636	7.04
1033.794	-15.05
1033.953	14.98
1034.111	45.4
1034.27	7.62
1034.428	30.1
1034.587	-10.98
1034.745	37.65
1034.903	30.87
1035.062	21.57
1035.22	-23.96
1035.378	33.97
1035.537	-38.49
1035.695	53.54
1035.853	-15.44
1036.011	57.61
1036.17	49.28
1036.328	-21.64
1036.486	3.55
1036.644	19.05
1036.802	-75.5
1036.96	-1.49
1037.119	1.23
1037.277	-1.29
1037.435	-39.46
1037.593	16.73
1037.751	4.13
1037.909	43.85
1038.067	43.85
