Data from gum_old_FLMT105791__83__15-44-11-256.txt Node

Date: Mon Mar 20 15:44:11 GMT 2023
User: antho
Spectrometer: FLMT10579
Trigger mode: 0
Integration Time (sec): 1.000000E-1
Scans to average: 10
Electric dark correction enabled: true
Nonlinearity correction enabled: false
Boxcar width: 0
XAxis mode: Wavelengths
Number of Pixels in Spectrum: 3648
>>>>>Begin Spectral Data<<<<<
345.248	-176.76
345.464	-176.76
345.681	-176.76
345.898	-174.82
346.114	-169.21
346.331	-49.08
346.548	32.87
346.764	-12.08
346.981	2.45
347.197	-13.43
347.414	29.19
347.631	-22.35
347.847	80.53
348.064	-4.91
348.28	4.39
348.497	-43.66
348.713	-3.94
348.93	49.15
349.146	40.43
349.363	9.24
349.579	14.47
349.796	29
350.012	22.22
350.229	45.85
350.445	41.4
350.661	-8.01
350.878	23.38
351.094	7.69
351.311	29.19
351.527	30.55
351.743	20.28
351.96	46.43
352.176	62.71
352.392	40.82
352.609	59.61
352.825	22.99
353.041	28.42
353.257	32.1
353.474	18.92
353.69	37.91
353.906	8.27
354.122	5.17
354.339	64.65
354.555	34.03
354.771	16.6
354.987	63.68
355.203	85.77
355.42	-0.26
355.636	8.65
355.852	14.08
356.068	54.77
356.284	-15.95
356.5	77.82
356.716	39.07
356.932	29.97
357.148	50.12
357.364	29.58
357.58	63.48
357.796	81.89
358.012	66.39
358.228	73.17
358.444	-40.36
358.66	73.17
358.876	60.77
359.092	2.84
359.308	47.98
359.524	53.8
359.74	18.92
359.956	0.71
360.172	23.57
360.388	51.67
360.604	28.42
360.819	136.14
361.035	66.97
361.251	67.36
361.467	25.51
361.683	72.78
361.898	53.8
362.114	54.18
362.33	39.46
362.546	71.82
362.762	9.43
362.977	64.07
363.193	-0.84
363.409	56.12
363.624	3.23
363.84	36.75
364.056	21.44
364.271	36.17
364.487	72.78
364.703	31.52
364.918	2.07
365.134	27.06
365.35	37.52
365.565	175.86
365.781	53.02
365.996	89.45
366.212	109.6
366.427	87.7
366.643	28.03
366.858	56.7
367.074	12.53
367.289	96.81
367.505	170.05
367.72	28.61
367.936	61.55
368.151	89.83
368.367	70.65
368.582	70.27
368.798	43.72
369.013	107.08
369.228	35
369.444	83.05
369.659	109.79
369.874	69.49
370.09	110.76
370.305	21.25
370.52	40.43
370.736	121.8
370.951	54.77
371.166	116.57
371.381	144.47
371.597	106.88
371.812	40.43
372.027	50.7
372.242	61.93
372.458	147.18
372.673	83.05
372.888	34.23
373.103	95.26
373.318	151.06
373.533	84.99
373.749	80.34
373.964	6.33
374.179	130.52
374.394	37.72
374.609	115.6
374.824	12.72
375.039	127.03
375.254	30.74
375.469	116.18
375.684	82.47
375.899	115.8
376.114	69.68
376.329	87.9
376.544	131.68
376.759	132.65
376.974	74.14
377.189	61.93
377.404	63.87
377.619	158.03
377.834	32.29
378.049	36.36
378.264	47.79
378.478	96.03
378.693	75.11
378.908	126.65
379.123	69.88
379.338	109.4
379.553	89.64
379.767	97.97
379.982	90.42
380.197	100.88
380.412	53.22
380.626	100.3
380.841	171.79
381.056	114.44
381.271	142.34
381.485	64.65
381.7	54.57
381.915	95.84
382.129	60
382.344	95.65
382.559	57.28
382.773	115.22
382.988	23.96
383.202	85.57
383.417	67.17
383.632	168.11
383.846	65.03
384.061	82.86
384.275	86.35
384.49	97.2
384.704	107.08
384.919	124.9
385.133	99.52
385.348	113.86
385.562	52.05
385.777	159
385.991	90.61
386.206	58.83
386.42	56.51
386.634	130.71
386.849	127.61
387.063	117.93
387.277	88.67
387.492	78.98
387.706	69.1
387.92	79.57
388.135	130.71
388.349	109.4
388.563	94.29
388.778	121.61
388.992	114.83
389.206	126.84
389.42	190.58
389.635	85.57
389.849	148.93
390.063	163.07
390.277	123.74
390.491	192.91
390.706	149.31
390.92	152.22
391.134	130.13
391.348	149.51
391.562	72.78
391.776	145.25
391.99	114.25
392.205	191.75
392.419	99.72
392.633	129.36
392.847	190.97
393.061	102.82
393.275	190
393.489	99.91
393.703	98.94
393.917	128
394.131	86.15
394.345	132.46
394.559	129.94
394.773	117.54
394.986	173.92
395.2	136.72
395.414	187.48
395.628	128.58
395.842	163.26
396.056	152.22
396.27	93.13
396.484	189.23
396.697	167.53
396.911	169.46
397.125	132.07
397.339	132.65
397.553	126.84
397.766	183.41
397.98	159.58
398.194	172.18
398.408	169.08
398.621	212.09
398.835	223.13
399.049	207.63
399.262	257.43
399.476	254.33
399.69	228.36
399.903	301.41
400.117	228.56
400.331	245.03
400.544	204.14
400.758	359.34
400.971	249.09
401.185	256.65
401.398	233.21
401.612	308.96
401.826	257.62
402.039	279.51
402.253	249.29
402.466	296.76
402.68	244.83
402.893	262.85
403.106	276.8
403.32	240.18
403.533	282.42
403.747	256.46
403.96	260.14
404.174	258.39
404.387	227.01
404.6	259.17
404.814	312.26
405.027	278.74
405.24	271.76
405.454	267.69
405.667	310.32
405.88	236.69
406.094	307.99
406.307	340.16
406.52	283.58
406.733	230.11
406.947	235.34
407.16	336.47
407.373	305.28
407.586	259.75
407.799	250.64
408.012	325.24
408.226	300.63
408.439	350.62
408.652	266.14
408.865	351.97
409.078	363.99
409.291	355.66
409.504	306.64
409.717	352.94
409.93	336.28
410.143	315.55
410.357	252.19
410.57	245.61
410.783	259.75
410.996	301.6
411.209	295.4
411.421	357.01
411.634	363.02
411.847	332.79
412.06	334.54
412.273	351.2
412.486	327.37
412.699	428.89
412.912	348.29
413.125	353.91
413.338	352.17
413.55	365.73
413.763	353.72
413.976	351.97
414.189	352.36
414.402	319.23
414.615	421.72
414.827	303.92
415.04	394.21
415.253	363.6
415.466	387.62
415.678	434.32
415.891	342.48
416.104	343.84
416.316	359.92
416.529	354.88
416.742	395.76
416.954	392.85
417.167	374.06
417.38	345.58
417.592	406.42
417.805	349.07
418.017	322.91
418.23	392.27
418.442	321.94
418.655	355.66
418.868	379.68
419.08	414.75
419.293	422.5
419.505	423.66
419.718	383.55
419.93	415.14
420.142	379.1
420.355	405.64
420.567	400.99
420.78	376.77
420.992	344.61
421.205	458.92
421.417	350.42
421.629	352.75
421.842	337.83
422.054	360.31
422.266	474.03
422.479	438.58
422.691	359.53
422.903	400.22
423.115	365.15
423.328	377.74
423.54	402.54
423.752	392.08
423.964	368.44
424.177	434.7
424.389	390.14
424.601	512.78
424.813	446.14
425.025	450.79
425.238	414.55
425.45	393.05
425.662	414.55
425.874	750.9
426.086	423.27
426.298	425.99
426.51	416.1
426.722	422.3
426.934	405.84
427.146	474.81
427.358	394.21
427.57	435.09
427.782	408.35
427.994	399.25
428.206	385.3
428.418	394.02
428.63	453.89
428.842	477.52
429.054	412.42
429.266	445.17
429.478	380.45
429.69	400.6
429.902	344.42
430.114	455.05
430.325	397.89
430.537	340.74
430.749	392.27
430.961	273.12
431.173	316.71
431.384	358.37
431.596	312.06
431.808	347.91
432.02	423.85
432.231	462.6
432.443	524.22
432.655	485.27
432.867	430.05
433.078	494.57
433.29	512.4
433.502	503.87
433.713	512.2
433.925	499.03
434.136	526.15
434.348	415.72
434.56	391.5
434.771	571.1
434.983	417.85
435.194	465.7
435.406	462.02
435.617	542.62
435.829	579.05
436.04	520.34
436.252	544.37
436.463	597.06
436.675	571.68
436.886	560.64
437.098	587.18
437.309	596.68
437.521	555.8
437.732	551.73
437.943	537.97
438.155	559.09
438.366	498.64
438.578	602.88
438.789	518.4
439	524.41
439.211	483.14
439.423	490.7
439.634	549.4
439.845	549.4
440.057	561.41
440.268	587.57
440.479	524.6
440.69	563.35
440.902	547.08
441.113	533.52
441.324	546.3
441.535	579.05
441.746	618.38
441.957	549.79
442.168	587.38
442.38	620.31
442.591	634.26
442.802	581.56
443.013	574.4
443.224	626.9
443.435	613.53
443.646	582.34
443.857	599.97
444.068	583.5
444.279	582.34
444.49	680.57
444.701	644.34
444.912	707.89
445.123	678.24
445.334	655.77
445.545	656.74
445.756	654.22
445.967	604.62
446.178	630.39
446.388	625.93
446.599	641.04
446.81	663.71
447.021	562.77
447.232	663.13
447.443	687.16
447.653	613.34
447.864	672.43
448.075	670.3
448.286	690.45
448.496	668.36
448.707	714.09
448.918	656.54
449.129	754.58
449.339	648.02
449.55	689.87
449.761	679.41
449.971	708.28
450.182	674.76
450.393	725.52
450.603	642.98
450.814	730.17
451.024	715.83
451.235	776.28
451.446	787.91
451.656	787.52
451.867	707.31
452.077	728.81
452.288	782.67
452.498	772.41
452.709	738.5
452.919	730.56
453.13	690.84
453.34	715.06
453.55	668.75
453.761	735.01
453.971	716.03
454.182	686.38
454.392	712.73
454.602	797.4
454.813	732.88
455.023	754.97
455.233	672.24
455.444	717.38
455.654	629.03
455.864	725.52
456.075	726.29
456.285	720.48
456.495	726.68
456.705	744.7
456.916	797.79
457.126	804.57
457.336	767.37
457.546	656.35
457.756	748.57
457.967	768.34
458.177	771.44
458.387	751.48
458.597	710.99
458.807	733.46
459.017	725.33
459.227	725.13
459.437	713.12
459.647	759.23
459.857	751.48
460.068	755.36
460.278	787.13
460.488	798.17
460.698	827.43
460.908	746.83
461.117	739.86
461.327	727.26
461.537	788.1
461.747	798.76
461.957	784.61
462.167	873.93
462.377	805.92
462.587	797.79
462.797	869.28
463.007	761.36
463.216	838.28
463.426	899.12
463.636	843.12
463.846	757.87
464.056	805.15
464.265	832.66
464.475	782.09
464.685	828.98
464.895	784.42
465.104	752.45
465.314	836.34
465.524	782.87
465.733	782.67
465.943	864.05
466.153	867.15
466.362	835.95
466.572	831.69
466.782	809.41
466.991	814.84
467.201	879.35
467.41	763.88
467.62	809.61
467.829	838.09
468.039	875.87
468.249	820.07
468.458	863.66
468.668	850.49
468.877	877.03
469.086	895.82
469.296	909.77
469.505	860.56
469.715	953.17
469.924	915.78
470.134	949.1
470.343	906.09
470.552	878.77
470.762	888.85
470.971	862.5
471.18	890.01
471.39	878.58
471.599	852.81
471.808	925.08
472.018	900.09
472.227	995.8
472.436	991.53
472.645	946.78
472.855	932.05
473.064	1032.03
473.273	961.31
473.482	990.18
473.691	982.04
473.901	1028.54
474.11	957.82
474.319	1090.54
474.528	968.28
474.737	1093.44
474.946	1067.87
475.155	1044.62
475.364	1100.03
475.573	1043.07
475.783	1092.48
475.992	1057.02
476.201	1118.05
476.41	1068.26
476.619	1035.32
476.828	1070.78
477.037	1060.12
477.245	1059.73
477.454	1057.8
477.663	1053.53
477.872	1103.52
478.081	1164.55
478.29	1070
478.499	1230.23
478.708	1167.07
478.917	1213.37
479.125	1136.46
479.334	1194.77
479.543	1119.79
479.752	1183.15
479.961	1173.85
480.169	1230.81
480.378	1219.38
480.587	1326.14
480.796	1249.99
481.004	1209.31
481.213	1250.19
481.422	1256.77
481.63	1252.9
481.839	1295.52
482.048	1355.78
482.256	1306.37
482.465	1304.82
482.674	1334.08
482.882	1336.79
483.091	1386.97
483.299	1354.23
483.508	1347.45
483.716	1352.1
483.925	1350.74
484.134	1295.72
484.342	1331.37
484.551	1360.23
484.759	1358.1
484.967	1438.7
485.176	1397.82
485.384	1382.9
485.593	1424.56
485.801	1340.08
486.01	1345.32
486.218	1241.86
486.426	1183.54
486.635	1186.44
486.843	1142.08
487.051	1241.66
487.26	1191.29
487.468	1266.65
487.676	1311.02
487.885	1323.42
488.093	1325.94
488.301	1379.61
488.509	1390.07
488.717	1458.85
488.926	1391.04
489.134	1402.28
489.342	1431.53
489.55	1359.46
489.758	1405.18
489.967	1406.73
490.175	1533.64
490.383	1475.71
490.591	1539.64
490.799	1465.05
491.007	1562.12
491.215	1528.02
491.423	1517.36
491.631	1480.36
491.839	1493.34
492.047	1528.21
492.255	1423.78
492.463	1403.63
492.671	1431.53
492.879	1488.88
493.087	1454.78
493.295	1469.9
493.503	1525.5
493.711	1619.66
493.919	1599.13
494.127	1595.25
494.334	1596.03
494.542	1515.62
494.75	1544.88
494.958	1555.53
495.166	1666.36
495.374	1610.17
495.581	1605.91
495.789	1617.92
495.997	1670.23
496.205	1560.18
496.412	1575.1
496.62	1607.46
496.828	1591.18
497.035	1611.91
497.243	1640.59
497.451	1594.67
497.658	1672.94
497.866	1634.58
498.074	1739.79
498.281	1609.97
498.489	1728.94
498.696	1624.51
498.904	1590.02
499.112	1599.51
499.319	1683.02
499.527	1634.77
499.734	1697.74
499.942	1579.36
500.149	1640.01
500.357	1645.43
500.564	1601.64
500.771	1640.78
500.979	1609.2
501.186	1564.83
501.394	1618.31
501.601	1576.46
501.808	1630.9
502.016	1609.39
502.223	1573.16
502.43	1627.02
502.638	1594.09
502.845	1627.02
503.052	1726.22
503.26	1639.04
503.467	1758
503.674	1661.71
503.881	1719.83
504.089	1743.27
504.296	1708.79
504.503	1642.91
504.71	1659.96
504.917	1611.72
505.125	1666.94
505.332	1658.22
505.539	1703.36
505.746	1778.73
505.953	1753.54
506.16	1756.84
506.367	1805.66
506.574	1831.04
506.781	1813.02
506.988	1712.08
507.195	1780.47
507.402	1754.32
507.609	1823.29
507.816	1711.69
508.023	1716.34
508.23	1695.22
508.437	1669.26
508.644	1718.67
508.851	1782.41
509.058	1787.06
509.265	1807.79
509.472	1820.38
509.679	1870.18
509.885	1825.03
510.092	1802.17
510.299	1826.58
510.506	1772.14
510.713	1798.1
510.92	1820
511.126	1841.5
511.333	1864.36
511.54	1789
511.746	1862.23
511.953	1913.77
512.16	1932.56
512.367	1866.11
512.573	1877.15
512.78	1827.75
512.987	1854.1
513.193	1814.38
513.4	1761.68
513.606	1810.5
513.813	1843.05
514.02	1823.29
514.226	1918.03
514.433	1871.53
514.639	1817.09
514.846	1818.06
515.052	1795.58
515.259	1840.15
515.465	1862.82
515.672	1893.43
515.878	1908.54
516.085	1906.99
516.291	1902.15
516.497	1864.17
516.704	1823.48
516.91	1806.24
517.117	1736.3
517.323	1654.54
517.529	1650.47
517.736	1689.6
517.942	1678.17
518.148	1678.17
518.354	1764.39
518.561	1789.19
518.767	1756.45
518.973	1800.23
519.179	1823.29
519.386	1768.27
519.592	1785.32
519.798	1790.16
520.004	1894.78
520.21	1854.48
520.417	1964.14
520.623	2017.04
520.829	1945.16
521.035	1959.11
521.241	1945.55
521.447	1976.54
521.653	2085.62
521.859	1962.01
522.065	2052.69
522.271	2112.17
522.477	2037.96
522.683	2078.07
522.889	2037.19
523.095	2002.51
523.301	1996.5
523.507	1961.04
523.713	2002.31
523.919	1992.43
524.125	2064.12
524.331	2050.17
524.537	2159.83
524.742	2113.33
524.948	2109.26
525.154	2106.74
525.36	2222.41
525.566	2132.51
525.772	2197.42
525.977	2068.96
526.183	2145.49
526.389	2202.45
526.595	2108.68
526.8	2064.89
527.006	1984.49
527.212	1950.97
527.417	1938.57
527.623	1907.57
527.829	2014.13
528.034	2075.74
528.24	2036.22
528.446	2042.03
528.651	2175.91
528.857	2195.87
529.062	2257.67
529.268	2181.34
529.473	2250.89
529.679	2222.02
529.884	2320.64
530.09	2301.07
530.295	2268.91
530.501	2250.7
530.706	2255.54
530.912	2199.55
531.117	2274.14
531.323	2282.47
531.528	2331.88
531.733	2325.48
531.939	2277.05
532.144	2320.64
532.35	2328.58
532.555	2342.92
532.76	2319.67
532.966	2287.51
533.171	2266.39
533.376	2223.18
533.581	2178.43
533.787	2267.75
533.992	2286.35
534.197	2297.2
534.402	2322.19
534.607	2288.48
534.813	2346.8
535.018	2272.2
535.223	2317.15
535.428	2349.51
535.633	2373.34
535.838	2371.79
536.043	2384.96
536.249	2507.41
536.454	2391.74
536.659	2422.36
536.864	2414.22
537.069	2378.57
537.274	2366.36
537.479	2378.96
537.684	2383.41
537.889	2321.22
538.094	2469.44
538.299	2375.66
538.504	2409.96
538.708	2408.21
538.913	2408.21
539.118	2400.46
539.323	2403.37
539.528	2368.88
539.733	2398.72
539.938	2435.14
540.142	2386.71
540.347	2355.71
540.552	2322.96
540.757	2343.7
540.962	2345.83
541.166	2288.87
541.371	2268.72
541.576	2337.11
541.781	2226.09
541.985	2421.19
542.19	2357.06
542.395	2430.69
542.599	2519.81
542.804	2422.74
543.008	2426.62
543.213	2389.03
543.418	2398.72
543.622	2414.41
543.827	2345.05
544.031	2455.49
544.236	2488.42
544.44	2475.44
544.645	2538.22
544.849	2459.17
545.054	2473.7
545.258	2558.37
545.463	2526.4
545.667	2444.44
545.872	2484.16
546.076	2498.11
546.281	2501.02
546.485	2482.22
546.689	2509.74
546.894	2510.32
547.098	2495.4
547.302	2435.34
547.507	2445.03
547.711	2488.04
547.915	2525.43
548.119	2435.73
548.324	2462.85
548.528	2539.19
548.732	2451.81
548.936	2499.27
549.141	2535.7
549.345	2470.6
549.549	2519.04
549.753	2515.36
549.957	2612.42
550.161	2559.34
550.366	2503.54
550.57	2461.88
550.774	2479.71
550.978	2542.87
551.182	2498.69
551.386	2427.39
551.59	2456.84
551.794	2466.53
551.998	2531.44
552.202	2515.74
552.406	2498.11
552.61	2535.51
552.814	2565.73
553.018	2569.41
553.222	2513.61
553.426	2490.56
553.63	2584.33
553.833	2529.5
554.037	2475.06
554.241	2520.2
554.445	2504.51
554.649	2485.91
554.853	2485.71
555.056	2526.79
555.26	2521.75
555.464	2510.51
555.668	2540.54
555.871	2555.27
556.075	2567.28
556.279	2494.43
556.483	2471.76
556.686	2485.91
556.89	2440.76
557.094	2548.49
557.297	2369.27
557.501	2518.46
557.704	2381.48
557.908	2451.03
558.112	2416.74
558.315	2489.01
558.519	2442.89
558.722	2442.31
558.926	2403.56
559.129	2328.58
559.333	2316.18
559.536	2373.73
559.74	2290.8
559.943	2316.18
560.147	2312.11
560.35	2388.84
560.553	2373.73
560.757	2277.05
560.96	2371.01
561.164	2348.35
561.367	2444.25
561.57	2368.88
561.774	2390.97
561.977	2360.16
562.18	2322
562.384	2456.84
562.587	2369.08
562.79	2304.36
562.993	2296.81
563.197	2402.21
563.4	2387.29
563.603	2421.58
563.806	2460.14
564.009	2312.7
564.212	2345.05
564.416	2265.42
564.619	2328.58
564.822	2271.23
565.025	2360.94
565.228	2321.41
565.431	2342.92
565.634	2247.02
565.837	2248.18
566.04	2221.05
566.243	2210.01
566.446	2153.05
566.649	2258.06
566.852	2165.84
567.055	2248.76
567.258	2267.94
567.461	2274.33
567.664	2297.39
567.867	2180.56
568.07	2241.4
568.273	2238.88
568.475	2259.8
568.678	2173.39
568.881	2216.79
569.084	2200.32
569.287	2043.58
569.489	2140.45
569.692	2179.59
569.895	2206.14
570.098	2109.65
570.3	2105.77
570.503	2060.63
570.706	2055.59
570.909	2092.79
571.111	2010.64
571.314	1990.3
571.516	2022.85
571.719	2071.87
571.922	2021.3
572.124	2040.87
572.327	2035.83
572.529	2058.89
572.732	2025.56
572.935	2097.83
573.137	2180.37
573.34	2060.05
573.542	2104.03
573.745	2111.2
573.947	2108.49
574.15	2052.88
574.352	2039.71
574.554	2131.93
574.757	2040.48
574.959	2044.74
575.162	2023.82
575.364	2006.38
575.566	2082.14
575.769	2021.88
575.971	1986.23
576.173	1907.76
576.376	2006.58
576.578	2033.89
576.78	2055.4
576.982	1888
577.185	1986.62
577.387	1967.44
577.589	1932.76
577.791	1980.23
577.993	1948.84
578.196	1920.75
578.398	1979.84
578.6	1972.48
578.802	1901.76
579.004	1887.81
579.206	1894.98
579.408	1971.7
579.61	1891.1
579.812	1935.66
580.014	1918.03
580.216	1873.28
580.418	1939.54
580.62	1890.71
580.822	1875.02
581.024	1901.56
581.226	1958.53
581.428	1928.69
581.63	2028.66
581.832	1927.53
582.034	1989.72
582.236	1908.35
582.438	1955.81
582.64	1977.9
582.841	1996.89
583.043	2010.06
583.245	1893.81
583.447	1961.43
583.649	1949.61
583.85	1933.15
584.052	1983.91
584.254	1905.83
584.456	1948.26
584.657	1872.11
584.859	1903.89
585.061	1885.1
585.262	1843.63
585.464	1871.73
585.666	1912.8
585.867	1854.1
586.069	1892.26
586.27	1898.46
586.472	1855.26
586.674	1839.37
586.875	1836.85
587.077	1807.98
587.278	1885.1
587.48	1860.1
587.681	1939.15
587.883	1868.05
588.084	1809.73
588.285	1805.27
588.487	1824.84
588.688	1831.43
588.89	1743.47
589.091	1698.32
589.292	1740.37
589.494	1684.96
589.695	1661.51
589.896	1595.06
590.098	1606.87
590.299	1689.22
590.5	1599.32
590.702	1645.04
590.903	1672.17
591.104	1751.8
591.305	1710.53
591.507	1790.74
591.708	1738.82
591.909	1731.07
592.11	1803.72
592.311	1749.67
592.512	1707.04
592.714	1689.41
592.915	1688.64
593.116	1716.73
593.317	1740.56
593.518	1687.86
593.719	1710.92
593.92	1747.73
594.121	1776.79
594.322	1729.13
594.523	1699.87
594.724	1691.35
594.925	1698.9
595.126	1699.87
595.327	1732.62
595.528	1723.51
595.729	1725.64
595.929	1688.44
596.13	1688.25
596.331	1699.29
596.532	1714.6
596.733	1799.65
596.934	1788.42
597.135	1773.69
597.335	1749.86
597.536	1710.92
597.737	1736.88
597.938	1702.78
598.138	1738.43
598.339	1724.67
598.54	1723.12
598.74	1695.03
598.941	1722.74
599.142	1822.71
599.342	1722.93
599.543	1716.73
599.744	1721.96
599.944	1729.32
600.145	1730.1
600.345	1736.49
600.546	1762.45
600.746	1769.82
600.947	1793.65
601.147	1728.55
601.348	1770.59
601.548	1694.45
601.749	1724.29
601.949	1667.52
602.15	1684.18
602.35	1677.4
602.551	1717.5
602.751	1654.15
602.951	1646.79
603.152	1620.63
603.352	1720.22
603.552	1678.76
603.753	1744.24
603.953	1736.69
604.153	1716.34
604.354	1700.26
604.554	1691.35
604.754	1730.49
604.954	1663.06
605.155	1705.3
605.355	1694.06
605.555	1737.46
605.755	1778.34
605.955	1730.68
606.155	1731.84
606.356	1710.53
606.556	1694.45
606.756	1734.55
606.956	1656.67
607.156	1718.86
607.356	1686.89
607.556	1689.6
607.756	1708.79
607.956	1767.3
608.156	1679.92
608.356	1651.05
608.556	1696.58
608.756	1634.39
608.956	1630.32
609.156	1648.34
609.356	1612.11
609.556	1581.11
609.755	1631.48
609.955	1638.07
610.155	1654.15
610.355	1659.19
610.555	1602.61
610.755	1632.26
610.954	1603.39
611.154	1592.73
611.354	1675.27
611.554	1575.68
611.753	1596.22
611.953	1538.87
612.153	1614.43
612.352	1592.54
612.552	1528.02
612.752	1496.63
612.951	1549.14
613.151	1603.77
613.351	1537.9
613.55	1547.2
613.75	1594.09
613.949	1554.37
614.149	1583.63
614.348	1578.78
614.548	1521.63
614.747	1485.59
614.947	1508.84
615.146	1484.43
615.346	1580.33
615.545	1566.58
615.745	1531.12
615.944	1550.3
616.144	1532.67
616.343	1548.17
616.542	1500.51
616.742	1501.86
616.941	1497.02
617.14	1416.42
617.34	1517.17
617.539	1490.63
617.738	1432.89
617.938	1538.09
618.137	1443.93
618.336	1422.82
618.535	1511.36
618.734	1499.54
618.934	1523.18
619.133	1524.92
619.332	1514.26
619.531	1480.36
619.73	1464.28
619.929	1547.39
620.128	1513.1
620.328	1543.33
620.527	1479
620.726	1493.53
620.925	1515.81
621.124	1510.78
621.323	1497.02
621.522	1402.86
621.721	1450.71
621.92	1446.84
622.119	1480.16
622.318	1396.27
622.517	1447.61
622.715	1427.27
622.914	1418.36
623.113	1470.09
623.312	1382.71
623.511	1448.2
623.71	1433.86
623.909	1415.45
624.107	1448.39
624.306	1352.68
624.505	1382.9
624.704	1428.82
624.902	1366.63
625.101	1456.14
625.3	1400.92
625.499	1351.32
625.697	1408.28
625.896	1379.8
626.095	1422.62
626.293	1325.94
626.492	1336.79
626.69	1425.14
626.889	1358.68
627.088	1415.84
627.286	1325.36
627.485	1386.2
627.683	1359.07
627.882	1393.56
628.08	1316.64
628.279	1339.12
628.477	1380.58
628.676	1308.89
628.874	1360.62
629.073	1329.04
629.271	1294.36
629.469	1361.78
629.668	1346.67
629.866	1302.69
630.065	1274.02
630.263	1325.94
630.461	1307.15
630.66	1297.27
630.858	1303.27
631.056	1353.07
631.254	1360.82
631.453	1266.07
631.651	1346.87
631.849	1316.06
632.047	1298.43
632.245	1290.49
632.444	1301.14
632.642	1356.94
632.84	1353.84
633.038	1299.79
633.236	1258.52
633.434	1305.21
633.632	1268.59
633.83	1274.6
634.028	1353.84
634.227	1321.68
634.425	1368.95
634.623	1279.44
634.821	1271.69
635.019	1321.1
635.216	1297.27
635.414	1332.53
635.612	1293.97
635.81	1292.04
636.008	1366.05
636.206	1257.74
636.404	1322.45
636.602	1235.27
636.8	1264.72
636.997	1318.39
637.195	1345.7
637.393	1289.9
637.591	1337.76
637.789	1325.55
637.986	1274.4
638.184	1346.09
638.382	1337.57
638.58	1311.02
638.777	1369.73
638.975	1288.94
639.173	1271.5
639.37	1291.07
639.568	1313.74
639.765	1307.15
639.963	1264.52
640.161	1298.43
640.358	1329.43
640.556	1262.39
640.753	1245.34
640.951	1238.76
641.148	1282.74
641.346	1243.02
641.543	1231.2
641.741	1273.44
641.938	1200.97
642.136	1269.56
642.333	1196.71
642.531	1273.63
642.728	1306.76
642.925	1262.39
643.123	1223.84
643.32	1256.58
643.517	1224.22
643.715	1256.39
643.912	1223.84
644.109	1244.76
644.306	1223.26
644.504	1175.59
644.701	1250.38
644.898	1255.8
645.095	1201.36
645.293	1235.85
645.49	1251.16
645.687	1249.41
645.884	1263.17
646.081	1142.08
646.278	1194.58
646.475	1180.44
646.672	1166.87
646.87	1241.08
647.067	1223.45
647.264	1197.29
647.461	1153.51
647.658	1119.41
647.855	1191.48
648.052	1147.89
648.249	1073.68
648.446	1161.84
648.642	1125.61
648.839	1109.72
649.036	1122.12
649.233	1097.51
649.43	1097.71
649.627	1057.02
649.824	1146.34
650.021	1090.93
650.217	1093.44
650.414	1083.76
650.611	1131.03
650.808	1132.58
651.004	1116.5
651.201	1115.34
651.398	1163.78
651.595	1102.74
651.791	1080.85
651.988	1169.78
652.185	1112.63
652.381	1144.98
652.578	1082.01
652.775	1110.88
652.971	1117.86
653.168	1121.15
653.364	1149.24
653.561	1069.03
653.757	1117.28
653.954	1110.3
654.15	1062.25
654.347	1189.16
654.543	1101.39
654.74	1033.77
654.936	1068.26
655.133	1085.89
655.329	1092.67
655.525	1068.26
655.722	1107.01
655.918	1025.25
656.115	1080.08
656.311	987.66
656.507	925.66
656.704	905.9
656.9	933.02
657.096	914.81
657.292	925.08
657.489	977
657.685	990.56
657.881	996.76
658.077	987.47
658.273	1017.5
658.47	1069.81
658.666	1028.73
658.862	1079.69
659.058	995.8
659.254	1062.25
659.45	1064.96
659.646	1052.56
659.842	1039
660.038	1094.22
660.234	999.86
660.43	1062.83
660.626	1159.13
660.822	1116.89
661.018	1101.19
661.214	1038.61
661.41	1032.41
661.606	1076.4
661.802	1097.71
661.998	1053.92
662.194	1027.76
662.39	1048.3
662.586	1082.21
662.781	1069.03
662.977	1083.76
663.173	1089.96
663.369	1045.2
663.564	1066.71
663.76	1085.5
663.956	1033.77
664.152	1093.25
664.347	998.51
664.543	1068.06
664.739	1029.9
664.934	985.72
665.13	981.27
665.326	1069.23
665.521	1026.21
665.717	1015.75
665.912	1009.16
666.108	947.36
666.304	1039.2
666.499	1039.58
666.695	931.47
666.89	1040.55
667.086	1069.42
667.281	1020.6
667.477	1094.41
667.672	1054.7
667.867	989.79
668.063	1045.78
668.258	959.37
668.454	1027.96
668.649	1078.72
668.844	1015.95
669.04	1055.47
669.235	1026.6
669.43	993.66
669.626	966.35
669.821	999.67
670.016	990.95
670.211	1002.58
670.407	958.98
670.602	1016.33
670.797	1003.16
670.992	1046.75
671.187	1011.3
671.382	1007.61
671.578	986.3
671.773	1002.19
671.968	971.97
672.163	1010.91
672.358	1034.55
672.553	960.73
672.748	985.72
672.943	1075.43
673.138	1018.46
673.333	1021.18
673.528	926.43
673.723	988.43
673.918	970.42
674.113	942.71
674.308	1042.49
674.503	1001.61
674.698	1000.64
674.892	1010.52
675.087	1011.3
675.282	1002.38
675.477	975.84
675.672	992.31
675.867	954.53
676.061	919.46
676.256	936.32
676.451	972.16
676.646	996.18
676.84	1007.23
677.035	892.92
677.23	944.26
677.424	982.82
677.619	994.63
677.814	1041.91
678.008	1003.55
678.203	935.15
678.397	925.08
678.592	972.16
678.787	1026.41
678.981	964.41
679.176	996.18
679.37	952.59
679.565	934.18
679.759	940.38
679.954	986.3
680.148	987.66
680.342	1012.46
680.537	962.86
680.731	940.77
680.926	960.73
681.12	991.34
681.314	918.3
681.509	958.02
681.703	947.94
681.897	972.55
682.092	971.58
682.286	949.68
682.48	1031.45
682.674	994.63
682.869	955.69
683.063	950.46
683.257	1010.91
683.451	923.53
683.645	951.23
683.839	932.44
684.034	930.89
684.228	997.15
684.422	900.28
684.616	911.9
684.81	976.03
685.004	914.62
685.198	919.46
685.392	976.81
685.586	882.45
685.78	952.98
685.974	974.29
686.168	979.33
686.362	1008
686.556	889.24
686.75	869.67
686.944	870.25
687.138	889.62
687.331	769.31
687.525	800.69
687.719	723.19
687.913	813.09
688.107	794.3
688.301	762.72
688.494	821.04
688.688	777.83
688.882	739.86
689.076	745.09
689.269	772.41
689.463	889.24
689.657	799.14
689.85	772.02
690.044	805.15
690.238	795.46
690.431	815.03
690.625	801.47
690.818	813.29
691.012	831.69
691.205	846.61
691.399	792.17
691.593	839.83
691.786	902.41
691.98	908.22
692.173	922.75
692.366	886.14
692.56	911.9
692.753	939.22
692.947	861.34
693.14	945.62
693.333	935.15
693.527	890.98
693.72	920.23
693.914	867.15
694.107	867.73
694.3	915.39
694.493	890.4
694.687	935.54
694.88	885.75
695.073	959.18
695.266	950.65
695.46	929.15
695.653	942.32
695.846	954.92
696.039	904.54
696.232	905.51
696.425	976.23
696.618	965.38
696.812	1000.45
697.005	1030.67
697.198	1085.5
697.391	1032.03
697.584	1045.78
697.777	1084.14
697.97	1065.16
698.163	1053.53
698.356	1070.78
698.549	1159.71
698.742	1103.71
698.935	1056.44
699.127	1126.38
699.32	1086.47
699.513	1068.06
699.706	1105.26
699.899	1136.46
700.092	1081.24
700.285	1170.17
700.477	1063.03
700.67	1142.85
700.863	1178.11
701.056	1218.41
701.248	1196.52
701.441	1201.75
701.634	1158.54
701.826	1276.92
702.019	1193.42
702.212	1226.36
702.404	1179.66
702.597	1189.54
702.79	1222.29
702.982	1265.88
703.175	1288.55
703.367	1299.4
703.56	1309.67
703.752	1371.08
703.945	1334.47
704.137	1357.52
704.33	1384.26
704.522	1369.34
704.715	1404.99
704.907	1449.36
705.1	1421.65
705.292	1469.12
705.484	1433.28
705.677	1488.11
705.869	1484.81
706.061	1506.9
706.254	1535.19
706.446	1497.02
706.638	1480.75
706.831	1611.33
707.023	1535.96
707.215	1655.7
707.407	1622.76
707.599	1605.52
707.792	1689.99
707.984	1660.93
708.176	1679.72
708.368	1662.29
708.56	1696.58
708.752	1702
708.944	1695.22
709.136	1773.69
709.329	1739.59
709.521	1842.47
709.713	1816.51
709.905	1804.11
710.097	1881.61
710.289	1818.25
710.481	1819.22
710.672	1876.18
710.864	1876.18
711.056	1909.51
711.248	1930.05
711.44	1920.75
711.632	1943.22
711.824	1945.55
712.016	2029.63
712.207	1984.29
712.399	2008.32
712.591	2087.37
712.783	2054.62
712.975	2090.47
713.166	2039.51
713.358	2081.36
713.55	2159.64
713.741	2136.77
713.933	2140.07
714.125	2135.8
714.316	2127.09
714.508	2195.48
714.7	2222.02
714.891	2238.68
715.083	2277.24
715.274	2240.23
715.466	2257.67
715.657	2336.72
715.849	2185.99
716.04	2216.6
716.232	2211.17
716.423	2278.98
716.615	2222.02
716.806	2210.4
716.998	2190.44
717.189	2089.89
717.381	2055.98
717.572	2008.9
717.763	2061.79
717.955	2007.74
718.146	2024.21
718.337	1952.52
718.528	1964.73
718.72	1843.05
718.911	1942.06
719.102	1905.44
719.293	1985.65
719.485	1951.16
719.676	1928.69
719.867	1909.9
720.058	1951.94
720.249	1892.65
720.44	1935.66
720.632	2019.75
720.823	2023.24
721.014	2150.34
721.205	2185.02
721.396	2239.07
721.587	2362.88
721.778	2372.18
721.969	2396.59
722.16	2474.09
722.351	2467.89
722.542	2607.97
722.733	2618.43
722.924	2511.29
723.115	2592.47
723.305	2599.83
723.496	2641.68
723.687	2511.29
723.878	2506.06
724.069	2488.42
724.26	2502.96
724.45	2463.82
724.641	2444.64
724.832	2522.72
725.023	2456.46
725.213	2483.58
725.404	2483.77
725.595	2568.83
725.785	2495.4
725.976	2571.54
726.167	2568.25
726.357	2542.48
726.548	2676.94
726.739	2553.91
726.929	2636.45
727.12	2656.02
727.31	2746.3
727.501	2659.12
727.691	2688.37
727.882	2702.32
728.072	2692.44
728.263	2751.15
728.453	2783.31
728.644	2807.53
728.834	2765.68
729.024	2737.39
729.215	2773.81
729.405	2757.35
729.596	2873.21
729.786	2859.84
729.976	2872.82
730.167	2930.17
730.357	2871.66
730.547	2911.18
730.737	2925.71
730.928	2986.94
731.118	3006.89
731.308	2999.34
731.498	2986.36
731.688	3082.84
731.879	3062.69
732.069	3108.42
732.259	3154.72
732.449	3165.57
732.639	3284.92
732.829	3295.38
733.019	3316.5
733.209	3357.57
733.399	3329.48
733.589	3472.27
733.779	3501.72
733.969	3451.54
734.159	3551.13
734.349	3559.27
734.539	3678.81
734.729	3599.57
734.919	3638.51
735.109	3663.7
735.299	3641.41
735.488	3675.51
735.678	3665.25
735.868	3677.84
736.058	3679.97
736.248	3651.49
736.437	3655.95
736.627	3638.9
736.817	3751.27
737.007	3687.91
737.196	3729.18
737.386	3742.74
737.576	3709.23
737.765	3807.65
737.955	3766.96
738.144	3880.89
738.334	3848.53
738.524	3781.11
738.713	3834.19
738.903	3799.12
739.092	3878.37
739.282	3832.84
739.471	3885.54
739.661	3858.99
739.85	3922.74
740.04	3891.74
740.229	3954.32
740.419	3949.67
740.608	3932.62
740.797	3945.6
740.987	4027.55
741.176	4020.58
741.365	3966.13
741.555	3940.56
741.744	4033.95
741.933	3902
742.123	4017.48
742.312	4024.26
742.501	4040.34
742.69	4063.59
742.88	3943.47
743.069	4099.63
743.258	4055.26
743.447	4154.26
743.636	4137.02
743.825	4089.75
744.014	4124.62
744.204	4149.81
744.393	4068.43
744.582	4127.91
744.771	4203.48
744.96	4111.25
745.149	4175.77
745.338	4122.3
745.527	4160.27
745.716	4111.25
745.905	4108.93
746.094	4203.86
746.283	4185.65
746.471	4169.96
746.66	4216.46
746.849	4223.04
747.038	4243.39
747.227	4169.18
747.416	4216.65
747.604	4184.68
747.793	4187.59
747.982	4181.19
748.171	4228.27
748.359	4265.28
748.548	4213.74
748.737	4222.46
748.926	4222.85
749.114	4147.68
749.303	4190.3
749.491	4178.68
749.68	4128.3
749.869	4228.66
750.057	4154.65
750.246	4137.21
750.434	4159.49
750.623	4163.56
750.811	4110.48
751	4190.3
751.188	4116.68
751.377	4156.01
751.565	4141.09
751.754	4098.46
751.942	4120.94
752.131	4196.11
752.319	4110.48
752.507	4043.44
752.696	4114.93
752.884	4169.57
753.072	4102.34
753.261	4126.75
753.449	4144.38
753.637	4093.23
753.825	4163.37
754.014	4102.53
754.202	4148.26
754.39	4153.68
754.578	4121.71
754.766	4049.83
754.955	4053.32
755.143	4147.68
755.331	4049.06
755.519	4083.74
755.707	4133.92
755.895	4041.31
756.083	4087.23
756.271	4013.02
756.459	4045.57
756.647	4096.33
756.835	4055.45
757.023	4013.99
757.211	4055.65
757.399	4004.69
757.587	3985.9
757.775	3966.72
757.963	4021.74
758.151	4013.02
758.339	3940.17
758.526	3982.41
758.714	3989.19
758.902	3888.25
759.09	3856.47
759.278	3639.48
759.465	3431.78
759.653	3082.07
759.841	2856.54
760.028	2487.07
760.216	2201.87
760.404	2069.35
760.591	1776.79
760.779	1569.29
760.967	1392.2
761.154	1228.68
761.342	1296.69
761.529	1258.32
761.717	1324.78
761.905	1349.97
762.092	1460.21
762.28	1435.8
762.467	1529.76
762.655	1417.39
762.842	1450.71
763.029	1500.12
763.217	1504.77
763.404	1522.79
763.592	1555.53
763.779	1518.14
763.966	1553.79
764.154	1606.29
764.341	1697.16
764.528	1682.05
764.716	1739.59
764.903	1826.2
765.09	1874.63
765.277	1925.01
765.465	2085.82
765.652	2181.92
765.839	2192.19
766.026	2296.23
766.213	2392.13
766.4	2485.32
766.588	2632.77
766.775	2656.98
766.962	2779.05
767.149	2864.68
767.336	2973.96
767.523	2925.71
767.71	3075.29
767.897	3188.63
768.084	3231.83
768.271	3261.67
768.458	3306.23
768.645	3356.22
768.832	3369.01
769.019	3380.24
769.206	3443.02
769.392	3490.1
769.579	3556.94
769.766	3523.23
769.953	3474.99
770.14	3560.43
770.327	3519.55
770.513	3592.78
770.7	3609.83
770.887	3542.8
771.073	3598.02
771.26	3598.98
771.447	3558.88
771.634	3512.96
771.82	3597.43
772.007	3524.78
772.193	3570.12
772.38	3615.45
772.567	3576.9
772.753	3540.28
772.94	3622.81
773.126	3611.96
773.313	3606.93
773.499	3618.36
773.686	3624.75
773.872	3552.68
774.059	3579.42
774.245	3548.8
774.432	3549
774.618	3489.52
774.804	3560.62
774.991	3509.28
775.177	3538.15
775.363	3486.42
775.55	3528.46
775.736	3438.56
775.922	3523.62
776.109	3460.45
776.295	3513.74
776.481	3500.17
776.667	3500.17
776.853	3432.17
777.04	3462.78
777.226	3480.02
777.412	3541.05
777.598	3421.51
777.784	3425.58
777.97	3432.94
778.156	3444.76
778.342	3389.16
778.528	3428.87
778.715	3319.41
778.901	3356.02
779.087	3407.95
779.272	3355.64
779.458	3380.82
779.644	3356.41
779.83	3336.46
780.016	3432.94
780.202	3333.16
780.388	3331.03
780.574	3280.85
780.76	3326.19
780.946	3315.73
781.131	3336.26
781.317	3276.01
781.503	3298.87
781.689	3294.41
781.874	3385.47
782.06	3279.11
782.246	3307.39
782.432	3246.56
782.617	3267.29
782.803	3300.23
782.989	3226.6
783.174	3225.25
783.36	3170.03
783.545	3249.66
783.731	3250.05
783.916	3115
784.102	3223.5
784.288	3181.46
784.473	3164.02
784.659	3132.44
784.844	3209.75
785.029	3185.91
785.215	3132.63
785.4	3117.33
785.586	3191.34
785.771	3060.95
785.956	3201.03
786.142	3107.83
786.327	3105.7
786.512	3079.74
786.698	3084.39
786.883	3037.12
787.068	3064.63
787.254	3087.49
787.439	3083.81
787.624	3078.58
787.809	3064.82
787.994	3005.92
788.18	3116.55
788.365	2981.12
788.55	3032.47
788.735	3030.34
788.92	3020.65
789.105	2984.03
789.29	3034.79
789.475	2947.22
789.66	3003.6
789.845	2955.55
790.03	2917.19
790.215	2954.19
790.4	2979.38
790.585	2966.4
790.77	2918.16
790.955	2890.45
791.14	2936.95
791.325	2945.47
791.51	2837.17
791.695	2912.15
791.879	2848.02
792.064	2855.96
792.249	2895.49
792.434	2885.03
792.618	2879.02
792.803	2908.47
792.988	2869.14
793.173	2879.99
793.357	2894.13
793.542	2829.81
793.727	2863.91
793.911	2912.73
794.096	2875.14
794.281	2870.11
794.465	2956.13
794.65	2874.56
794.834	2934.62
795.019	2950.71
795.203	2934.24
795.388	2947.61
795.572	2997.21
795.757	2906.34
795.941	2936.76
796.126	2877.47
796.31	2885.8
796.494	2948.38
796.679	2881.34
796.863	2879.41
797.048	2986.16
797.232	2922.42
797.416	2934.24
797.601	2914.67
797.785	2952.64
797.969	2977.25
798.153	2898.98
798.338	2962.14
798.522	2997.79
798.706	2960.39
798.89	2984.42
799.074	3070.64
799.258	3037.7
799.443	2970.08
799.627	2976.86
799.811	3028.4
799.995	2948.57
800.179	2940.82
800.363	2960.59
800.547	2963.3
800.731	2962.52
800.915	2908.86
801.099	2926.68
801.283	2936.17
801.467	2942.57
801.651	2916.22
801.835	3003.21
802.019	2951.29
802.202	2977.06
802.386	2918.54
802.57	2866.43
802.754	2913.12
802.938	2886.38
803.121	2933.85
803.305	2998.37
803.489	2897.81
803.673	2951.29
803.856	2919.51
804.04	2929.01
804.224	2976.86
804.407	2917.57
804.591	2910.21
804.775	2924.16
804.958	2941.41
805.142	3025.49
805.326	2919.51
805.509	2925.32
805.693	2979.57
805.876	2944.7
806.06	2989.84
806.243	2935.4
806.427	2967.76
806.61	3014.84
806.794	2913.31
806.977	2984.22
807.16	2946.64
807.344	2985.39
807.527	2910.79
807.71	2912.92
807.894	2910.79
808.077	2949.16
808.26	2867.59
808.444	2874.18
808.627	2985.97
808.81	2861
808.993	2788.35
809.177	2834.84
809.36	2837.75
809.543	2844.92
809.726	2773.23
809.909	2795.51
810.092	2762.77
810.276	2787.38
810.459	2759.67
810.642	2783.7
810.825	2734.29
811.008	2765.48
811.191	2626.57
811.374	2690.89
811.557	2682.95
811.74	2776.14
811.923	2632.19
812.106	2610.29
812.289	2584.72
812.472	2615.52
812.654	2619.2
812.837	2555.66
813.02	2519.04
813.203	2497.53
813.386	2410.34
813.569	2373.15
813.751	2335.95
813.934	2373.15
814.117	2376.25
814.3	2303.59
814.482	2287.32
814.665	2228.61
814.848	2209.62
815.03	2148.4
815.213	2170.68
815.396	2094.54
815.578	2098.41
815.761	2087.56
815.943	2127.67
816.126	2024.21
816.309	2030.6
816.491	1952.33
816.674	1876.38
816.856	1927.91
817.039	1954.26
817.221	1978.29
817.403	1942.64
817.586	1942.83
817.768	1968.99
817.951	1872.11
818.133	1897.69
818.315	1885.87
818.498	1951.74
818.68	2030.6
818.862	1971.89
819.045	1962.59
819.227	1983.13
819.409	1941.86
819.591	2019.75
819.774	1951.74
819.956	1927.72
820.138	1995.53
820.32	1970.15
820.502	2038.93
820.684	2067.61
820.866	2095.7
821.048	2153.82
821.231	2127.47
821.413	2146.46
821.595	2119.14
821.777	2132.12
821.959	2094.15
822.141	2209.82
822.323	2061.41
822.505	2041.64
822.686	1991.85
822.868	1872.11
823.05	1791.52
823.232	1729.71
823.414	1654.54
823.596	1745.6
823.778	1726.8
823.96	1747.54
824.141	1749.47
824.323	1775.44
824.505	1832.59
824.687	1886.06
824.868	1942.25
825.05	2011.81
825.232	2065.67
825.413	2131.74
825.595	2070.32
825.777	2021.69
825.958	2079.81
826.14	2027.89
826.321	2085.04
826.503	2050.56
826.685	2072.64
826.866	2099.38
827.048	2067.99
827.229	2064.89
827.411	1988.17
827.592	1969.18
827.773	1928.11
827.955	1907.38
828.136	1889.16
828.318	1866.88
828.499	1925.4
828.68	1852.55
828.862	1866.5
829.043	1903.31
829.224	1863.01
829.406	1806.24
829.587	1865.14
829.768	1852.16
829.949	1849.64
830.131	1842.47
830.312	1923.07
830.493	1890.52
830.674	1866.88
830.855	1828.33
831.036	1855.84
831.218	1888.78
831.399	1938.38
831.58	1901.95
831.761	1905.44
831.942	1869.21
832.123	1841.31
832.304	1810.89
832.485	1811.08
832.666	1816.51
832.847	1902.73
833.028	1845.38
833.209	1851.19
833.389	1814.57
833.57	1774.66
833.751	1834.14
833.932	1859.33
834.113	1856.81
834.294	1815.54
834.475	1865.33
834.655	1869.4
834.836	1909.51
835.017	1854.87
835.198	1847.12
835.378	1882.58
835.559	1902.34
835.74	1875.21
835.92	1876.18
836.101	1856.81
836.281	1854.68
836.462	1906.6
836.643	1894.98
836.823	1888.39
837.004	1891.3
837.184	1952.13
837.365	1919.97
837.545	1930.43
837.726	1869.01
837.906	1909.51
838.087	1889.16
838.267	1884.51
838.448	1864.17
838.628	1903.31
838.808	1890.13
838.989	1911.25
839.169	1846.73
839.349	1871.15
839.53	1908.35
839.71	1920.36
839.89	1868.82
840.07	1945.16
840.251	1875.21
840.431	1930.82
840.611	1896.72
840.791	1843.05
840.971	1880.83
841.151	1860.68
841.332	1852.16
841.512	1910.86
841.692	1819.61
841.872	1874.83
842.052	1863.78
842.232	1868.63
842.412	1805.85
842.592	1854.48
842.772	1862.23
842.952	1890.91
843.132	1835.69
843.312	1850.8
843.492	1811.47
843.672	1893.81
843.851	1743.08
844.031	1821.74
844.211	1806.05
844.391	1796.55
844.571	1844.22
844.751	1864.75
844.93	1812.05
845.11	1778.34
845.29	1790.16
845.47	1837.43
845.649	1785.7
845.829	1827.75
846.009	1759.55
846.188	1806.82
846.368	1807.79
846.547	1800.04
846.727	1830.07
846.907	1712.66
847.086	1771.17
847.266	1783.57
847.445	1781.44
847.625	1772.14
847.804	1724.48
847.984	1743.66
848.163	1778.92
848.343	1739.98
848.522	1744.24
848.701	1746.76
848.881	1717.12
849.06	1751.99
849.239	1764.59
849.419	1747.92
849.598	1685.34
849.777	1651.24
849.957	1663.64
850.136	1619.66
850.315	1593.31
850.494	1573.16
850.674	1609.39
850.853	1643.3
851.032	1585.95
851.211	1656.67
851.39	1613.46
851.569	1578.59
851.748	1583.63
851.927	1687.47
852.107	1628.57
852.286	1620.24
852.465	1577.81
852.644	1657.83
852.823	1646.59
853.002	1604.36
853.181	1629.16
853.359	1629.74
853.538	1541.97
853.717	1627.02
853.896	1529.76
854.075	1476.29
854.254	1423.2
854.433	1377.48
854.611	1390.65
854.79	1318.39
854.969	1428.05
855.148	1440.06
855.327	1379.22
855.505	1452.07
855.684	1433.28
855.863	1473.77
856.041	1459.05
856.22	1523.56
856.399	1458.66
856.577	1568.13
856.756	1560.57
856.934	1670.42
857.113	1669.07
857.291	1555.73
857.47	1513.3
857.648	1567.74
857.827	1540.03
858.005	1605.32
858.184	1543.52
858.362	1613.66
858.541	1545.84
858.719	1561.93
858.898	1506.51
859.076	1517.36
859.254	1585.37
859.433	1522.98
859.611	1496.05
859.789	1463.7
859.967	1548.56
860.146	1583.04
860.324	1471.06
860.502	1527.05
860.68	1454.2
860.859	1464.66
861.037	1496.44
861.215	1491.4
861.393	1492.56
861.571	1473.96
861.749	1458.46
861.927	1494.89
862.105	1505.74
862.283	1444.71
862.461	1441.03
862.639	1404.6
862.817	1452.65
862.995	1480.55
863.173	1417.39
863.351	1465.44
863.529	1454.01
863.707	1486.95
863.885	1456.72
864.063	1375.54
864.241	1400.53
864.418	1494.89
864.596	1407.7
864.774	1362.37
864.952	1423.78
865.129	1407.51
865.307	1391.23
865.485	1338.15
865.663	1429.6
865.84	1311.02
866.018	1366.82
866.196	1227.52
866.373	1221.51
866.551	1200.97
866.728	1136.07
866.906	1187.8
867.084	1225
867.261	1248.25
867.439	1299.59
867.616	1312.77
867.794	1294.55
867.971	1306.57
868.149	1293.59
868.326	1355.39
868.503	1313.74
868.681	1292.62
868.858	1298.04
869.035	1299.98
869.213	1317.42
869.39	1290.1
869.567	1343.96
869.745	1276.15
869.922	1295.91
870.099	1349.58
870.276	1321.49
870.454	1343.96
870.631	1330.01
870.808	1280.41
870.985	1323.04
871.162	1372.05
871.339	1299.2
871.517	1239.14
871.694	1261.62
871.871	1258.32
872.048	1267.82
872.225	1285.06
872.402	1326.33
872.579	1220.54
872.756	1279.25
872.933	1210.47
873.11	1245.15
873.287	1255.8
873.463	1259.29
873.64	1251.54
873.817	1252.51
873.994	1224.03
874.171	1208.34
874.348	1233.52
874.524	1222.09
874.701	1239.72
874.878	1150.99
875.055	1211.63
875.231	1209.69
875.408	1234.49
875.585	1142.08
875.762	1213.18
875.938	1190.51
876.115	1150.02
876.291	1180.24
876.468	1187.41
876.645	1169.2
876.821	1159.13
876.998	1181.41
877.174	1173.66
877.351	1180.82
877.527	1141.49
877.704	1185.67
877.88	1194.77
878.057	1146.14
878.233	1187.02
878.409	1145.18
878.586	1169.97
878.762	1130.06
878.938	1145.95
879.115	1082.59
879.291	1131.81
879.467	1081.43
879.644	1111.85
879.82	1157.77
879.996	1093.44
880.172	1093.64
880.349	1132.39
880.525	1148.47
880.701	1086.47
880.877	1076.01
881.053	1096.93
881.229	1083.95
881.405	1140.91
881.581	1060.31
881.757	1075.04
881.933	1133.55
882.109	1131.42
882.285	1094.03
882.461	1061.28
882.637	1104.49
882.813	1039.39
882.989	1083.76
883.165	1152.34
883.341	1053.53
883.517	1127.54
883.693	1102.16
883.869	1104.1
884.044	1058.76
884.22	1147.31
884.396	1139.36
884.572	1124.83
884.747	1126.38
884.923	1105.65
885.099	1101.97
885.275	1162.03
885.45	1082.59
885.626	1088.21
885.801	1052.18
885.977	1084.14
886.153	1035.13
886.328	1089.96
886.504	1048.88
886.679	1095.96
886.855	1054.5
887.03	1105.46
887.206	1150.02
887.381	1097.51
887.557	1097.71
887.732	1098.48
887.908	1109.72
888.083	1112.04
888.258	1092.86
888.434	1057.8
888.609	1089.38
888.784	1126.58
888.96	1067.68
889.135	1028.93
889.31	1031.45
889.485	1091.89
889.661	1059.73
889.836	1092.09
890.011	1084.73
890.186	1072.52
890.361	1081.24
890.537	1087.44
890.712	1094.99
890.887	1075.81
891.062	1049.66
891.237	1137.04
891.412	1064.96
891.587	1081.24
891.762	1101.19
891.937	1132.39
892.112	1057.02
892.287	1094.03
892.462	1024.08
892.637	1016.53
892.812	988.43
892.987	998.31
893.161	987.66
893.336	1011.68
893.511	998.12
893.686	1029.12
893.861	1022.92
894.035	1009.16
894.21	1020.79
894.385	950.27
894.56	1044.81
894.734	955.3
894.909	966.73
895.084	940
895.258	916.17
895.433	943.1
895.608	920.62
895.782	852.23
895.957	894.27
896.131	882.65
896.306	813.67
896.48	828.4
896.655	867.54
896.829	763.69
897.004	784.22
897.178	758.07
897.353	757.87
897.527	811.93
897.701	795.27
897.876	736.17
898.05	832.27
898.224	796.24
898.399	848.35
898.573	779.77
898.747	676.5
898.921	755.94
899.096	652.67
899.27	663.52
899.444	644.14
899.618	671.66
899.792	715.06
899.967	692.58
900.141	719.9
900.315	655.77
900.489	701.88
900.663	715.06
900.837	707.69
901.011	642.79
901.185	747.99
901.359	703.63
901.533	702.66
901.707	699.17
901.881	684.25
902.055	654.03
902.229	688.9
902.403	760.59
902.576	727.07
902.75	708.66
902.924	809.99
903.098	743.15
903.272	794.69
903.446	796.82
903.619	763.11
903.793	818.9
903.967	822.97
904.14	822.78
904.314	838.67
904.488	828.01
904.661	844.48
904.835	853.97
905.009	869.67
905.182	910.55
905.356	847.39
905.529	858.82
905.703	814.64
905.876	810.96
906.05	793.91
906.223	770.86
906.397	723.78
906.57	715.83
906.744	673.01
906.917	690.06
907.09	694.52
907.264	691.81
907.437	636.98
907.61	660.61
907.784	652.09
907.957	665.07
908.13	600.36
908.304	684.44
908.477	607.72
908.65	635.04
908.823	595.51
908.996	696.26
909.17	604.62
909.343	632.52
909.516	635.81
909.689	624
909.862	557.54
910.035	607.33
910.208	589.12
910.381	581.95
910.554	697.04
910.727	617.02
910.9	616.63
911.073	571.88
911.246	643.37
911.419	664.1
911.592	619.54
911.765	595.9
911.938	603.26
912.11	611.79
912.283	599.2
912.456	654.8
912.629	634.65
912.802	587.76
912.974	578.46
913.147	523.05
913.32	498.06
913.493	504.65
913.665	502.9
913.838	539.72
914.01	539.13
914.183	542.62
914.356	541.27
914.528	598.42
914.701	633.49
914.873	582.15
915.046	526.73
915.218	496.32
915.391	471.32
915.563	479.65
915.736	521.31
915.908	527.9
916.081	542.82
916.253	515.11
916.425	551.92
916.598	576.14
916.77	543.01
916.942	532.16
917.115	454.47
917.287	537.78
917.459	497.67
917.632	456.4
917.804	417.85
917.976	505.62
918.148	486.82
918.32	496.12
918.493	525.77
918.665	565.68
918.837	529.45
919.009	582.92
919.181	572.46
919.353	528.09
919.525	559.86
919.697	546.11
919.869	539.52
920.041	601.13
920.213	654.22
920.385	585.25
920.557	545.33
920.729	580.98
920.901	562.38
921.073	512.2
921.244	548.82
921.416	588.73
921.588	555.99
921.76	518.79
921.932	572.26
922.103	531
922.275	564.71
922.447	515.69
922.619	461.64
922.79	495.93
922.962	514.92
923.134	557.93
923.305	496.7
923.477	464.35
923.648	481.59
923.82	492.83
923.991	429.47
924.163	425.6
924.335	501.16
924.506	456.21
924.677	498.06
924.849	435.48
925.02	511.23
925.192	498.06
925.363	461.64
925.535	480.43
925.706	462.22
925.877	525.38
926.049	455.24
926.22	474.42
926.391	487.6
926.562	476.55
926.734	441.49
926.905	498.25
927.076	437.61
927.247	458.34
927.419	430.25
927.59	403.12
927.761	413.59
927.932	397.89
928.103	433.54
928.274	363.99
928.445	369.02
928.616	363.41
928.787	359.34
928.958	378.71
929.129	359.92
929.3	347.52
929.471	316.91
929.642	280.87
929.813	270.6
929.984	336.67
930.155	230.49
930.326	295.79
930.496	264.4
930.667	175.86
930.838	263.04
931.009	202.21
931.18	214.22
931.35	228.36
931.521	219.64
931.692	165.78
931.863	124.32
932.033	164.04
932.204	178.96
932.374	187.29
932.545	119.86
932.716	192.71
932.886	183.41
933.057	102.62
933.227	96.81
933.398	189.23
933.568	87.9
933.739	66.78
933.909	54.77
934.08	122.19
934.25	44.5
934.421	76.85
934.591	128.2
934.761	79.76
934.932	76.85
935.102	116.96
935.272	94.29
935.443	90.03
935.613	86.35
935.783	115.41
935.953	42.37
936.123	229.33
936.294	48.95
936.464	87.51
936.634	90.03
936.804	44.88
936.974	47.21
937.144	98.55
937.314	91.58
937.484	52.63
937.655	63.29
937.825	107.27
937.995	73.17
938.165	114.05
938.334	89.83
938.504	99.33
938.674	84.22
938.844	87.32
939.014	153.38
939.184	159.78
939.354	196.98
939.524	183.22
939.694	132.65
939.863	126.84
940.033	189.81
940.203	181.28
940.373	152.61
940.542	199.11
940.712	131.1
940.882	179.15
941.051	183.22
941.221	197.36
941.391	186.51
941.56	118.12
941.73	123.35
941.899	251.61
942.069	125.68
942.238	160.36
942.408	105.14
942.577	165.01
942.747	139.82
942.916	71.82
943.086	100.88
943.255	160.16
943.425	116.76
943.594	106.3
943.763	57.09
943.933	60.38
944.102	42.95
944.271	83.44
944.441	126.65
944.61	87.51
944.779	114.05
944.948	188.45
945.117	83.05
945.287	100.1
945.456	38.88
945.625	47.79
945.794	109.98
945.963	77.43
946.132	108.24
946.301	95.26
946.47	109.4
946.639	50.12
946.808	96.03
946.977	127.03
947.146	159.78
947.315	100.88
947.484	140.4
947.653	110.76
947.822	84.41
947.991	94.68
948.16	173.34
948.329	125.68
948.498	107.08
948.666	104.56
948.835	142.15
949.004	75.3
949.173	52.05
949.341	135.75
949.51	103.4
949.679	132.07
949.847	131.1
950.016	192.71
950.185	184.38
950.353	68.72
950.522	101.65
950.69	138.66
950.859	85.38
951.028	161.13
951.196	141.76
951.365	78.98
951.533	74.72
951.701	143.11
951.87	156.1
952.038	58.45
952.207	77.63
952.375	154.93
952.543	84.41
952.712	112.12
952.88	85.18
953.048	126.65
953.217	118.9
953.385	113.08
953.553	152.41
953.721	66.97
953.89	108.63
954.058	73.75
954.226	81.89
954.394	115.22
954.562	54.77
954.73	86.73
954.898	113.28
955.067	129.36
955.235	85.38
955.403	128.97
955.571	153.19
955.739	136.53
955.907	59.42
956.075	75.69
956.243	68.72
956.41	124.51
956.578	50.5
956.746	62.52
956.914	66.97
957.082	123.35
957.25	128.2
957.418	87.32
957.585	101.07
957.753	141.56
957.921	52.25
958.089	119.48
958.256	117.15
958.424	127.03
958.592	125.29
958.759	59.61
958.927	113.08
959.095	69.68
959.262	94.48
959.43	94.29
959.597	83.25
959.765	100.1
959.932	68.33
960.1	134.2
960.267	101.65
960.435	90.8
960.602	120.06
960.77	98.94
960.937	74.33
961.104	104.17
961.272	51.86
961.439	70.07
961.606	98.36
961.774	146.8
961.941	87.7
962.108	123.35
962.275	108.24
962.443	172.76
962.61	135.75
962.777	214.99
962.944	134.59
963.111	122.38
963.278	156.29
963.446	119.28
963.613	102.43
963.78	140.21
963.947	124.13
964.114	98.17
964.281	201.05
964.448	123.74
964.615	85.96
964.782	136.53
964.949	142.53
965.116	131.88
965.282	167.91
965.449	102.04
965.616	71.62
965.783	156.1
965.95	122
966.117	89.06
966.283	83.44
966.45	117.35
966.617	116.57
966.784	126.26
966.95	140.21
967.117	123.55
967.284	93.32
967.45	107.27
967.617	185.16
967.784	132.65
967.95	181.86
968.117	147.38
968.283	173.53
968.45	220.42
968.616	135.56
968.783	178.18
968.949	134.98
969.116	154.55
969.282	122.77
969.449	149.12
969.615	116.96
969.781	93.13
969.948	142.15
970.114	78.02
970.28	210.54
970.447	128.2
970.613	183.41
970.779	126.84
970.945	146.6
971.112	140.79
971.278	138.85
971.444	127.42
971.61	171.6
971.776	115.02
971.942	151.83
972.108	158.81
972.275	117.73
972.441	129.55
972.607	211.89
972.773	119.86
972.939	155.51
973.105	129.75
973.271	72.2
973.437	101.85
973.602	108.24
973.768	139.43
973.934	111.73
974.1	150.86
974.266	60.58
974.432	121.41
974.598	133.23
974.763	133.43
974.929	120.64
975.095	170.82
975.261	103.78
975.426	95.26
975.592	105.53
975.758	172.56
975.923	43.53
976.089	92.16
976.255	152.03
976.42	115.8
976.586	123.35
976.751	147.38
976.917	215.96
977.082	113.47
977.248	70.07
977.413	66.2
977.579	98.36
977.744	107.85
977.91	60.77
978.075	105.14
978.24	151.45
978.406	103.2
978.571	83.44
978.736	59.8
978.902	138.27
979.067	90.61
979.232	69.3
979.397	140.21
979.563	169.27
979.728	77.05
979.893	113.28
980.058	68.91
980.223	180.51
980.388	95.07
980.554	128.97
980.719	72.78
980.884	104.95
981.049	140.98
981.214	89.25
981.379	105.33
981.544	76.47
981.709	85.96
981.874	101.07
982.039	102.62
982.204	144.66
982.368	91
982.533	88.67
982.698	115.8
982.863	151.83
983.028	97.39
983.193	118.7
983.357	111.73
983.522	94.48
983.687	110.18
983.852	100.49
984.016	109.4
984.181	117.15
984.346	132.26
984.51	103.4
984.675	103.59
984.839	126.65
985.004	116.38
985.168	136.72
985.333	123.93
985.498	82.67
985.662	127.03
985.827	137.11
985.991	111.34
986.155	69.49
986.32	142.92
986.484	172.18
986.649	115.02
986.813	53.8
986.977	115.02
987.142	123.16
987.306	75.3
987.47	78.02
987.634	106.11
987.799	102.82
987.963	109.4
988.127	119.28
988.291	186.13
988.455	105.33
988.62	74.33
988.784	125.48
988.948	114.44
989.112	63.68
989.276	105.92
989.44	119.86
989.604	76.85
989.768	85.18
989.932	179.54
990.096	62.13
990.26	80.53
990.424	32.68
990.588	85.96
990.752	139.24
990.915	126.65
991.079	74.72
991.243	67.17
991.407	123.35
991.571	97
991.734	105.53
991.898	102.04
992.062	176.25
992.226	67.55
992.389	88.67
992.553	25.9
992.717	47.6
992.88	82.08
993.044	120.25
993.207	74.53
993.371	92.16
993.535	117.93
993.698	127.23
993.862	109.4
994.025	145.44
994.189	113.47
994.352	98.75
994.515	111.15
994.679	109.02
994.842	62.52
995.006	129.36
995.169	51.08
995.332	46.24
995.496	108.63
995.659	18.54
995.822	94.29
995.985	82.08
996.149	116.76
996.312	72.01
996.475	142.34
996.638	71.62
996.801	128.58
996.964	138.46
997.128	62.13
997.291	78.4
997.454	96.03
997.617	12.53
997.78	128.97
997.943	41.78
998.106	122.77
998.269	67.75
998.432	60.77
998.595	72.98
998.758	27.45
998.92	37.72
999.083	6.14
999.246	54.38
999.409	4.39
999.572	27.06
999.735	45.27
999.897	72.01
1000.06	53.02
1000.223	69.3
1000.386	103.59
1000.548	115.99
1000.711	80.92
1000.874	87.51
1001.036	21.25
1001.199	103.98
1001.361	52.25
1001.524	90.03
1001.687	89.06
1001.849	37.72
1002.012	67.94
1002.174	74.33
1002.337	98.17
1002.499	61.16
1002.661	106.11
1002.824	25.9
1002.986	43.92
1003.149	79.18
1003.311	32.1
1003.473	116.96
1003.636	17.57
1003.798	69.49
1003.96	78.21
1004.123	66.2
1004.285	43.53
1004.447	44.5
1004.609	42.17
1004.771	132.46
1004.933	-5.3
1005.096	31.32
1005.258	16.99
1005.42	29.38
1005.582	107.85
1005.744	72.59
1005.906	25.32
1006.068	89.45
1006.23	1.68
1006.392	11.17
1006.554	9.24
1006.716	80.92
1006.878	67.94
1007.04	34.81
1007.202	35.78
1007.363	71.23
1007.525	66.39
1007.687	70.07
1007.849	115.99
1008.011	1.68
1008.172	5.55
1008.334	31.32
1008.496	54.18
1008.658	-25.06
1008.819	50.12
1008.981	-7.43
1009.143	38.68
1009.304	29.77
1009.466	68.52
1009.627	96.03
1009.789	158.61
1009.95	67.36
1010.112	0.13
1010.273	56.9
1010.435	34.42
1010.596	17.95
1010.758	11.17
1010.919	24.35
1011.081	10.4
1011.242	40.23
1011.403	82.86
1011.565	40.43
1011.726	55.73
1011.887	18.92
1012.049	29.38
1012.21	44.69
1012.371	111.92
1012.532	-19.63
1012.693	42.56
1012.855	27.84
1013.016	12.14
1013.177	78.79
1013.338	9.62
1013.499	105.92
1013.66	79.76
1013.821	80.53
1013.982	47.4
1014.143	50.89
1014.304	23.38
1014.465	43.14
1014.626	70.85
1014.787	33.84
1014.948	140.01
1015.109	-27.58
1015.27	83.05
1015.431	27.25
1015.592	19.7
1015.752	91.77
1015.913	35
1016.074	58.83
1016.235	45.27
1016.395	51.67
1016.556	-12.27
1016.717	34.42
1016.877	78.02
1017.038	22.6
1017.199	37.52
1017.359	32.68
1017.52	32.29
1017.681	32.48
1017.841	50.31
1018.002	3.23
1018.162	44.11
1018.323	86.93
1018.483	21.44
1018.644	21.83
1018.804	-25.45
1018.964	6.72
1019.125	20.28
1019.285	49.15
1019.446	3.23
1019.606	-9.17
1019.766	-43.27
1019.926	51.67
1020.087	35.97
1020.247	-10.33
1020.407	58.25
1020.567	65.62
1020.728	31.52
1020.888	-2.2
1021.048	-2.2
1021.208	-27
1021.368	7.69
1021.528	82.67
1021.688	64.45
1021.848	72.01
1022.008	21.83
1022.168	21.25
1022.328	46.24
1022.488	39.65
1022.648	29.97
1022.808	23.96
1022.968	48.18
1023.128	-8.4
1023.288	19.7
1023.448	30.74
1023.608	67.75
1023.767	36.94
1023.927	-6.07
1024.087	3.81
1024.247	-28.16
1024.406	14.08
1024.566	-9.17
1024.726	28.03
1024.885	27.84
1025.045	16.02
1025.205	21.05
1025.364	24.93
1025.524	52.83
1025.683	4.59
1025.843	26.29
1026.003	31.13
1026.162	68.52
1026.321	68.13
1026.481	37.33
1026.64	-3.75
1026.8	54.77
1026.959	54.38
1027.119	32.48
1027.278	4.97
1027.437	14.47
1027.597	29.58
1027.756	23.77
1027.915	57.48
1028.074	46.43
1028.234	-4.91
1028.393	28.22
1028.552	19.89
1028.711	-46.76
1028.87	27.45
1029.03	3.23
1029.189	10.01
1029.348	-41.91
1029.507	0.9
1029.666	13.69
1029.825	-20.02
1029.984	-3.75
1030.143	6.14
1030.302	20.09
1030.461	-16.15
1030.62	-2
1030.779	61.16
1030.938	0.52
1031.097	-31.06
1031.255	47.21
1031.414	91.97
1031.573	63.1
1031.732	-44.05
1031.891	7.69
1032.049	73.17
1032.208	31.9
1032.367	-7.62
1032.525	31.13
1032.684	18.92
1032.843	17.18
1033.001	-35.91
1033.16	170.43
1033.319	73.17
1033.477	40.82
1033.636	-13.63
1033.794	-42.3
1033.953	52.44
1034.111	45.47
1034.27	1.68
1034.428	17.95
1034.587	-6.46
1034.745	24.54
1034.903	19.89
1035.062	55.54
1035.22	-27.58
1035.378	10.79
1035.537	-12.66
1035.695	58.64
1035.853	1.87
1036.011	43.72
1036.17	14.27
1036.328	-51.41
1036.486	29.97
1036.644	10.59
1036.802	-78.34
1036.96	-0.26
1037.119	0.52
1037.277	-9.17
1037.435	-34.36
1037.593	-14.79
1037.751	17.76
1037.909	44.3
1038.067	44.3
