Data from gum_old_FLMT105791__130__15-46-19-252.txt Node

Date: Mon Mar 20 15:46:19 GMT 2023
User: antho
Spectrometer: FLMT10579
Trigger mode: 0
Integration Time (sec): 1.000000E-1
Scans to average: 10
Electric dark correction enabled: true
Nonlinearity correction enabled: false
Boxcar width: 0
XAxis mode: Wavelengths
Number of Pixels in Spectrum: 3648
>>>>>Begin Spectral Data<<<<<
345.248	-162.83
345.464	-162.83
345.681	-162.83
345.898	-164.38
346.114	-169.42
346.331	-44.06
346.548	22.59
346.764	-1.05
346.981	3.99
347.197	-30.69
347.414	27.43
347.631	-31.86
347.847	71.22
348.064	22.39
348.28	19.49
348.497	-52.39
348.713	-7.06
348.93	38.09
349.146	54.36
349.363	0.89
349.579	40.22
349.796	18.13
350.012	16
350.229	51.84
350.445	30.73
350.661	9.99
350.878	12.51
351.094	71.02
351.311	14.84
351.527	51.65
351.743	-15.97
351.96	44.29
352.176	89.24
352.392	65.6
352.609	61.92
352.825	0.69
353.041	15.61
353.257	2.63
353.474	18.52
353.69	24.33
353.906	27.63
354.122	-8.02
354.339	54.36
354.555	3.21
354.771	1.08
354.987	109.58
355.203	111.32
355.42	0.11
355.636	1.28
355.852	-3.96
356.068	17.94
356.284	-20.62
356.5	76.45
356.716	41.38
356.932	20.46
357.148	70.64
357.364	23.36
357.58	57.85
357.796	84.01
358.012	71.61
358.228	31.31
358.444	-35.54
358.66	74.12
358.876	47.39
359.092	27.24
359.308	13.87
359.524	54.75
359.74	21.81
359.956	15.03
360.172	45.06
360.388	74.9
360.604	14.45
360.819	91.76
361.035	41.57
361.251	79.16
361.467	-0.27
361.683	68.89
361.898	54.94
362.114	76.45
362.33	37.31
362.546	66.37
362.762	34.6
362.977	58.24
363.193	-7.64
363.409	50.87
363.624	14.84
363.84	38.67
364.056	32.28
364.271	70.83
364.487	37.89
364.703	25.88
364.918	-0.47
365.134	26.27
365.35	31.5
365.565	159.76
365.781	60.37
365.996	59.21
366.212	90.4
366.427	43.9
366.643	26.46
366.858	38.67
367.074	26.85
367.289	71.02
367.505	148.33
367.72	14.64
367.936	36.73
368.151	94.47
368.367	73.54
368.582	58.62
368.798	40.61
369.013	88.07
369.228	60.37
369.444	69.47
369.659	109.19
369.874	65.79
370.09	101.25
370.305	-37.47
370.52	53.39
370.736	107.06
370.951	47.58
371.166	115.2
371.381	127.6
371.597	61.72
371.812	-5.51
372.027	19.29
372.242	66.18
372.458	133.02
372.673	25.69
372.888	41.77
373.103	87.49
373.318	128.76
373.533	57.66
373.749	63.66
373.964	-3.37
374.179	93.89
374.394	7.86
374.609	103.77
374.824	39.06
375.039	115.97
375.254	20.07
375.469	104.93
375.684	60.95
375.899	106.29
376.114	76.26
376.329	71.41
376.544	120.24
376.759	80.32
376.974	22.98
377.189	37.7
377.404	44.67
377.619	87.11
377.834	23.75
378.049	41.77
378.264	9.61
378.478	79.16
378.693	59.59
378.908	67.54
379.123	73.93
379.338	106.67
379.553	71.41
379.767	64.63
379.982	111.52
380.197	66.96
380.412	37.51
380.626	76.84
380.841	154.14
381.056	83.62
381.271	148.72
381.485	56.3
381.7	27.04
381.915	78.19
382.129	45.26
382.344	81.1
382.559	75.87
382.773	98.54
382.988	6.12
383.202	66.96
383.417	29.37
383.632	164.41
383.846	67.15
384.061	69.47
384.275	44.09
384.49	92.92
384.704	120.24
384.919	78
385.133	88.27
385.348	95.05
385.562	21.23
385.777	112.29
385.991	84.2
386.206	59.01
386.42	68.89
386.634	98.34
386.849	95.05
387.063	86.91
387.277	56.49
387.492	63.27
387.706	36.54
387.92	37.89
388.135	115.2
388.349	81.49
388.563	102.02
388.778	93.89
388.992	84.59
389.206	108.61
389.42	170.8
389.635	75.29
389.849	133.99
390.063	127.02
390.277	103.96
390.491	161.5
390.706	147.55
390.92	105.12
391.134	121.59
391.348	141.94
391.562	36.34
391.776	108.22
391.99	117.72
392.205	145.23
392.419	63.08
392.633	102.61
392.847	161.5
393.061	72.77
393.275	123.34
393.489	62.31
393.703	81.29
393.917	113.07
394.131	47.39
394.345	103.38
394.559	133.41
394.773	87.11
394.986	116.56
395.2	88.66
395.414	133.6
395.628	84.39
395.842	126.24
396.056	96.21
396.27	44.29
396.484	117.91
396.697	131.86
396.911	130.12
397.125	136.51
397.339	135.54
397.553	104.16
397.766	136.7
397.98	136.51
398.194	156.08
398.408	120.43
398.621	154.72
398.835	190.37
399.049	156.08
399.262	213.62
399.476	200.45
399.69	160.73
399.903	227.96
400.117	165.77
400.331	198.32
400.544	146.39
400.758	296.16
400.971	190.37
401.185	219.05
401.398	154.53
401.612	225.63
401.826	208.78
402.039	208.59
402.253	168.48
402.466	223.31
402.68	203.94
402.893	204.9
403.106	214.59
403.32	215.75
403.533	193.86
403.747	208.78
403.96	214.98
404.174	224.28
404.387	152.59
404.6	201.03
404.814	233.77
405.027	194.05
405.24	209.36
405.454	190.37
405.667	246.95
405.88	137.67
406.094	216.72
406.307	239.78
406.52	212.85
406.733	172.16
406.947	146.2
407.16	295
407.373	252.95
407.586	163.44
407.799	196.57
408.012	245.01
408.226	201.61
408.439	273.1
408.652	192.5
408.865	204.71
409.078	280.85
409.291	249.08
409.504	189.99
409.717	256.05
409.93	264
410.143	226.22
410.357	188.05
410.57	185.14
410.783	203.35
410.996	267.87
411.209	215.37
411.421	258.38
411.634	243.85
411.847	228.15
412.06	223.7
412.273	251.6
412.486	249.47
412.699	327.93
412.912	240.36
413.125	264.38
413.338	246.56
413.55	251.79
413.763	237.07
413.976	255.67
414.189	234.74
414.402	217.3
414.615	330.26
414.827	202.77
415.04	291.9
415.253	251.98
415.466	279.3
415.678	313.01
415.891	287.05
416.104	260.32
416.316	242.88
416.529	237.07
416.742	310.11
416.954	301.78
417.167	305.65
417.38	255.28
417.592	322.31
417.805	248.11
418.017	183.2
418.23	283.76
418.442	229.51
418.655	250.05
418.868	280.08
419.08	293.25
419.293	285.31
419.505	270.2
419.718	275.62
419.93	352.54
420.142	276.01
420.355	312.43
420.567	291.12
420.78	316.89
420.992	280.47
421.205	361.84
421.417	266.32
421.629	288.22
421.842	280.85
422.054	225.25
422.266	327.74
422.479	317.47
422.691	247.14
422.903	291.9
423.115	250.63
423.328	256.25
423.54	277.95
423.752	243.46
423.964	252.18
424.177	297.71
424.389	274.07
424.601	414.73
424.813	320.38
425.025	339.36
425.238	316.31
425.45	277.56
425.662	281.43
425.874	597.24
426.086	293.83
426.298	315.73
426.51	307.2
426.722	292.09
426.934	300.61
427.146	331.42
427.358	262.45
427.57	328.32
427.782	282.6
427.994	301.2
428.206	265.74
428.418	240.36
428.63	311.66
428.842	337.43
429.054	297.13
429.266	323.28
429.478	274.07
429.69	301.97
429.902	247.14
430.114	314.37
430.325	296.55
430.537	240.55
430.749	261.87
430.961	212.07
431.173	248.5
431.384	275.23
431.596	187.85
431.808	239.97
432.02	286.86
432.231	324.83
432.443	376.56
432.655	305.26
432.867	293.45
433.078	346.73
433.29	386.64
433.502	381.21
433.713	385.67
433.925	375.01
434.136	379.47
434.348	307.01
434.56	258.18
434.771	409.5
434.983	258.38
435.194	310.69
435.406	358.93
435.617	393.61
435.829	389.54
436.04	406.21
436.252	395.36
436.463	407.56
436.675	413.76
436.886	399.23
437.098	408.53
437.309	457.74
437.521	390.13
437.732	399.81
437.943	378.89
438.155	371.72
438.366	353.51
438.578	458.71
438.789	381.8
439	397.1
439.211	340.72
439.423	348.86
439.634	373.66
439.845	398.46
440.057	396.13
440.268	433.91
440.479	392.64
440.69	415.7
440.902	390.32
441.113	398.07
441.324	375.6
441.535	409.5
441.746	469.37
441.957	387.99
442.168	393.03
442.38	411.24
442.591	450.38
442.802	385.67
443.013	416.67
443.224	440.11
443.435	414.15
443.646	400.01
443.857	417.06
444.068	412.99
444.279	405.04
444.49	504.82
444.701	423.06
444.912	558.88
445.123	482.74
445.334	485.64
445.545	479.83
445.756	463.36
445.967	403.49
446.178	451.93
446.388	474.6
446.599	468.79
446.81	465.11
447.021	417.25
447.232	485.06
447.443	491.65
447.653	426.94
447.864	499.98
448.075	499.21
448.286	490.87
448.496	475.57
448.707	506.37
448.918	448.64
449.129	544.16
449.339	440.5
449.55	480.41
449.761	460.65
449.971	539.89
450.182	479.64
450.393	536.99
450.603	468.79
450.814	506.37
451.024	512.19
451.235	564.3
451.446	563.72
451.656	590.46
451.867	508.31
452.077	519.74
452.288	580.39
452.498	561.98
452.709	525.56
452.919	537.37
453.13	466.08
453.34	548.03
453.55	479.64
453.761	508.31
453.971	523.04
454.182	519.16
454.392	529.82
454.602	577.87
454.813	514.9
455.023	556.75
455.233	465.11
455.444	512.57
455.654	437.4
455.864	527.11
456.075	519.55
456.285	511.8
456.495	528.66
456.705	532.92
456.916	550.94
457.126	613.9
457.336	529.62
457.546	459.88
457.756	506.57
457.967	584.65
458.177	514.9
458.387	538.92
458.597	504.24
458.807	534.27
459.017	523.23
459.227	497.27
459.437	524.2
459.647	568.95
459.857	538.15
460.068	503.27
460.278	579.22
460.488	539.31
460.698	612.94
460.908	532.72
461.117	528.85
461.327	513.54
461.537	549.39
461.747	586.97
461.957	565.85
462.167	665.63
462.377	581.16
462.587	568.37
462.797	628.82
463.007	551.52
463.216	588.72
463.426	594.72
463.636	615.07
463.846	529.62
464.056	567.21
464.265	605.96
464.475	545.32
464.685	584.26
464.895	599.57
465.104	549.39
465.314	613.71
465.524	552.87
465.733	539.31
465.943	652.27
466.153	682.68
466.362	614.1
466.572	619.52
466.782	578.45
466.991	605.57
467.201	637.15
467.41	527.3
467.62	626.69
467.829	587.55
468.039	636.19
468.249	605.19
468.458	627.08
468.668	630.37
468.877	645.29
469.086	661.18
469.296	652.07
469.505	593.75
469.715	715.04
469.924	631.92
470.134	670.48
470.343	664.08
470.552	636.77
470.762	630.37
470.971	579.22
471.18	627.08
471.39	626.89
471.599	585.04
471.808	672.03
472.018	635.41
472.227	675.13
472.436	701.28
472.645	652.46
472.855	657.3
473.064	753.98
473.273	733.06
473.482	710.78
473.691	758.63
473.901	693.92
474.11	716.4
474.319	779.95
474.528	731.12
474.737	765.61
474.946	734.8
475.155	742.55
475.364	784.4
475.573	723.76
475.783	754.37
475.992	769.1
476.201	794.28
476.41	735.38
476.619	700.12
476.828	746.81
477.037	761.15
477.245	752.43
477.454	809.01
477.663	781.88
477.872	809.78
478.081	838.46
478.29	737.32
478.499	875.66
478.708	852.21
478.917	902.39
479.125	823.73
479.334	840.01
479.543	808.81
479.752	815.79
479.961	829.35
480.169	882.44
480.378	866.94
480.587	1010.31
480.796	882.24
481.004	882.24
481.213	916.73
481.422	877.4
481.63	884.38
481.839	917.51
482.048	976.6
482.256	907.24
482.465	957.42
482.674	941.92
482.882	949.28
483.091	982.22
483.299	957.22
483.508	953.54
483.716	950.06
483.925	946.37
484.134	919.64
484.342	911.5
484.551	993.65
484.759	935.33
484.967	987.26
485.176	993.46
485.384	990.55
485.593	1033.17
485.801	992.1
486.01	942.11
486.218	908.01
486.426	842.72
486.635	836.52
486.843	818.7
487.051	888.83
487.26	873.91
487.468	906.46
487.676	953.93
487.885	887.48
488.093	951.61
488.301	995.39
488.509	977.96
488.717	1045.96
488.926	1024.26
489.134	965.17
489.342	1033.17
489.55	959.94
489.758	1013.41
489.967	991.71
490.175	1143.61
490.383	1044.02
490.591	1129.08
490.799	1007.02
491.007	1095.56
491.215	1098.27
491.423	1098.66
491.631	1062.43
491.839	1078.12
492.047	1066.5
492.255	1017.09
492.463	1015.15
492.671	1017.67
492.879	1078.32
493.087	1045.57
493.295	1086.26
493.503	1116.87
493.711	1139.93
493.919	1124.43
494.127	1143.42
494.334	1159.5
494.542	1070.95
494.75	1120.94
494.958	1108.54
495.166	1178.48
495.374	1176.93
495.581	1165.89
495.789	1165.7
495.997	1204.83
496.205	1149.03
496.412	1145.35
496.62	1126.75
496.828	1167.83
497.035	1140.51
497.243	1168.99
497.451	1201.54
497.658	1156.4
497.866	1155.04
498.074	1242.03
498.281	1163.37
498.489	1266.83
498.696	1179.65
498.904	1133.92
499.112	1155.04
499.319	1210.45
499.527	1181.2
499.734	1193.6
499.942	1159.5
500.149	1136.05
500.357	1190.3
500.564	1148.84
500.771	1161.05
500.979	1102.53
501.186	1148.26
501.394	1138.96
501.601	1149.42
501.808	1183.33
502.016	1137.6
502.223	1150.78
502.43	1163.57
502.638	1154.07
502.845	1147.68
503.052	1229.25
503.26	1167.05
503.467	1261.21
503.674	1199.02
503.881	1211.42
504.089	1290.66
504.296	1231.18
504.503	1142.06
504.71	1178.48
504.917	1120.75
505.125	1195.92
505.332	1214.91
505.539	1195.53
505.746	1307.13
505.953	1261.6
506.16	1272.45
506.367	1295.89
506.574	1339.68
506.781	1331.54
506.988	1248.81
507.195	1273.42
507.402	1266.25
507.609	1266.83
507.816	1227.31
508.023	1246.49
508.23	1222.08
508.437	1186.62
508.644	1259.66
508.851	1310.81
509.058	1307.71
509.265	1259.86
509.472	1304.23
509.679	1393.35
509.885	1272.84
510.092	1285.24
510.299	1263.54
510.506	1291.24
510.713	1291.24
510.92	1299.19
511.126	1325.73
511.333	1367.19
511.54	1362.93
511.746	1368.55
511.953	1370.68
512.16	1380.37
512.367	1329.8
512.573	1337.16
512.78	1344.72
512.987	1349.95
513.193	1353.82
513.4	1281.36
513.606	1297.44
513.813	1352.47
514.02	1315.46
514.226	1372.04
514.433	1385.79
514.639	1285.24
514.846	1324.38
515.052	1308.68
515.259	1339.29
515.465	1347.62
515.672	1317.01
515.878	1438.3
516.085	1344.72
516.291	1377.27
516.497	1376.69
516.704	1331.35
516.91	1316.63
517.117	1266.44
517.323	1212
517.529	1260.05
517.736	1223.24
517.942	1247.07
518.148	1244.75
518.354	1283.11
518.561	1286.01
518.767	1328.44
518.973	1351.89
519.179	1393.74
519.386	1312.75
519.592	1349.95
519.798	1290.86
520.004	1458.45
520.21	1355.18
520.417	1459.8
520.623	1462.13
520.829	1479.95
521.035	1473.56
521.241	1467.17
521.447	1492.35
521.653	1612.86
521.859	1458.84
522.065	1536.72
522.271	1628.75
522.477	1558.23
522.683	1591.94
522.889	1553.58
523.095	1536.53
523.301	1526.65
523.507	1512.5
523.713	1557.26
523.919	1509.79
524.125	1606.47
524.331	1582.64
524.537	1668.08
524.742	1629.14
524.948	1692.5
525.154	1644.25
525.36	1755.66
525.566	1673.31
525.772	1736.67
525.977	1630.5
526.183	1701.6
526.389	1723.69
526.595	1622.55
526.8	1668.47
527.006	1564.82
527.212	1545.44
527.417	1484.8
527.623	1501.46
527.829	1607.05
528.034	1575.47
528.24	1616.74
528.446	1596.2
528.651	1744.23
528.857	1695.79
529.062	1758.56
529.268	1737.64
529.473	1789.17
529.679	1738.8
529.884	1872.49
530.09	1805.45
530.295	1821.34
530.501	1821.92
530.706	1792.86
530.912	1741.9
531.117	1817.46
531.323	1838.77
531.528	1854.86
531.733	1863.38
531.939	1806.03
532.144	1825.99
532.35	1850.59
532.555	1877.72
532.76	1876.36
532.966	1831.61
533.171	1827.15
533.376	1793.63
533.581	1745.58
533.787	1810.68
533.992	1871.9
534.197	1884.69
534.402	1824.63
534.607	1820.76
534.813	1953.67
535.018	1860.86
535.223	1875.97
535.428	1919.57
535.633	1944.17
535.838	1941.07
536.043	1906.2
536.249	2044.92
536.454	1937.2
536.659	1970.13
536.864	1918.02
537.069	1935.45
537.274	1928.48
537.479	1909.1
537.684	1909.3
537.889	1865.51
538.094	2011.79
538.299	1948.05
538.504	1922.28
538.708	1943.98
538.913	1984.67
539.118	1957.15
539.323	1962.19
539.528	1946.11
539.733	1910.46
539.938	1923.05
540.142	1960.64
540.347	1933.13
540.552	1922.47
540.757	1912.2
540.962	1954.83
541.166	1860.28
541.371	1907.36
541.576	1901.55
541.781	1795.37
541.985	1947.85
542.19	1903.49
542.395	1990.67
542.599	2031.55
542.804	2007.53
543.008	2026.32
543.213	1935.84
543.418	1926.74
543.622	2003.27
543.827	1931.19
544.031	1993
544.236	1991.45
544.44	2010.63
544.645	2057.71
544.849	1994.55
545.054	2032.91
545.258	2119.9
545.463	2090.45
545.667	1979.05
545.872	2020.12
546.076	2012.37
546.281	2004.62
546.485	1977.11
546.689	2048.6
546.894	2063.33
547.098	2031.94
547.302	1982.15
547.507	2005.2
547.711	2059.84
547.915	2080.18
548.119	1975.17
548.324	2000.55
548.528	2064.49
548.732	2012.76
548.936	2068.36
549.141	2031.17
549.345	2000.17
549.549	2091.81
549.753	2075.92
549.957	2156.91
550.161	2116.8
550.366	2068.95
550.57	2041.05
550.774	2037.75
550.978	2019.15
551.182	2065.85
551.386	2042.21
551.59	2028.26
551.794	2010.05
551.998	2066.04
552.202	2016.83
552.406	2002.88
552.61	2022.06
552.814	2024.58
553.018	2095.3
553.222	2046.28
553.426	2028.84
553.63	2143.54
553.833	2029.81
554.037	1973.62
554.241	2048.41
554.445	2049.96
554.649	2061.97
554.853	1975.37
555.056	2078.05
555.26	2101.69
555.464	2044.53
555.668	2048.21
555.871	2069.33
556.075	2090.26
556.279	1995.9
556.483	2005.01
556.686	2024.38
556.89	2049.18
557.094	2029.81
557.297	1933.9
557.501	2056.55
557.704	1958.51
557.908	1994.74
558.112	1943.79
558.315	2022.83
558.519	1972.07
558.722	1946.89
558.926	1939.72
559.129	1892.05
559.333	1900
559.536	1896.12
559.74	1887.21
559.943	1857.37
560.147	1880.82
560.35	1869.39
560.553	1896.32
560.757	1834.32
560.96	1945.14
561.164	1907.94
561.367	2006.56
561.57	1947.47
561.774	1932.55
561.977	1892.05
562.18	1913.75
562.384	2018.38
562.587	1867.26
562.79	1889.73
562.993	1869
563.197	1955.6
563.4	1951.54
563.603	1943.4
563.806	2001.33
564.009	1849.62
564.212	1884.5
564.416	1825.79
564.619	1901.16
564.822	1794.02
565.025	1947.66
565.228	1848.66
565.431	1889.15
565.634	1756.43
565.837	1821.34
566.04	1753.33
566.243	1763.21
566.446	1645.03
566.649	1807.58
566.852	1706.64
567.055	1755.66
567.258	1780.07
567.461	1827.54
567.664	1830.44
567.867	1700.05
568.07	1776.58
568.273	1770.77
568.475	1806.42
568.678	1726.59
568.881	1775.42
569.084	1737.44
569.287	1644.25
569.489	1650.06
569.692	1742.29
569.895	1723.69
570.098	1687.65
570.3	1629.53
570.503	1595.04
570.706	1612.09
570.909	1630.11
571.111	1575.47
571.314	1605.7
571.516	1607.05
571.719	1609.96
571.922	1561.52
572.124	1635.15
572.327	1623.71
572.529	1555.52
572.732	1594.85
572.935	1620.23
573.137	1698.69
573.34	1589.03
573.542	1651.81
573.745	1602.02
573.947	1617.51
574.15	1595.04
574.352	1573.92
574.554	1660.33
574.757	1569.27
574.959	1555.32
575.162	1550.28
575.364	1556.29
575.566	1650.84
575.769	1545.44
575.971	1540.79
576.173	1443.34
576.376	1540.6
576.578	1599.69
576.78	1615.19
576.982	1457.09
577.185	1537.88
577.387	1442.56
577.589	1447.02
577.791	1529.75
577.993	1555.13
578.196	1509.79
578.398	1519.48
578.6	1517.54
578.802	1436.55
579.004	1443.92
579.206	1436.55
579.408	1480.54
579.61	1434.81
579.812	1478.02
580.014	1457.87
580.216	1435.39
580.418	1432.49
580.62	1439.27
580.822	1394.32
581.024	1473.17
581.226	1493.52
581.428	1448.57
581.63	1517.93
581.832	1418.34
582.034	1527.03
582.236	1426.29
582.438	1455.93
582.64	1511.92
582.841	1500.88
583.043	1561.91
583.245	1476.66
583.447	1519.29
583.649	1444.11
583.85	1486.54
584.052	1490.42
584.254	1428.22
584.456	1513.67
584.657	1388.51
584.859	1439.27
585.061	1417.37
585.262	1442.17
585.464	1357.7
585.666	1483.25
585.867	1344.14
586.069	1447.02
586.27	1422.8
586.472	1406.33
586.674	1361.77
586.875	1392.57
587.077	1356.15
587.278	1400.13
587.48	1391.61
587.681	1469.3
587.883	1383.86
588.084	1320.11
588.285	1332.71
588.487	1345.49
588.688	1381.34
588.89	1285.63
589.091	1275.94
589.292	1305.97
589.494	1282.72
589.695	1204.83
589.896	1189.72
590.098	1147.68
590.299	1237.19
590.5	1183.52
590.702	1205.41
590.903	1257.92
591.104	1317.01
591.305	1280.59
591.507	1345.11
591.708	1314.69
591.909	1273.81
592.11	1379.01
592.311	1342.98
592.512	1280.78
592.714	1229.63
592.915	1248.43
593.116	1249.59
593.317	1250.95
593.518	1276.91
593.719	1257.53
593.92	1324.18
594.121	1325.73
594.322	1270.51
594.523	1310.23
594.724	1264.89
594.925	1274.78
595.126	1283.69
595.327	1310.23
595.528	1270.32
595.729	1290.66
595.929	1287.95
596.13	1263.93
596.331	1280.01
596.532	1253.27
596.733	1330.19
596.934	1341.81
597.135	1300.93
597.335	1310.04
597.536	1255.98
597.737	1284.46
597.938	1259.08
598.138	1316.04
598.339	1245.33
598.54	1275.55
598.74	1268.38
598.941	1260.44
599.142	1305.39
599.342	1260.83
599.543	1219.56
599.744	1235.64
599.944	1250.95
600.145	1212.78
600.345	1271.87
600.546	1324.96
600.746	1323.02
600.947	1350.14
601.147	1272.06
601.348	1327.67
601.548	1241.45
601.749	1215.1
601.949	1221.11
602.15	1215.3
602.35	1231.18
602.551	1245.33
602.751	1225.95
602.951	1224.98
603.152	1153.88
603.352	1267.03
603.552	1224.4
603.753	1261.41
603.953	1284.66
604.153	1245.33
604.354	1239.32
604.554	1214.91
604.754	1255.98
604.954	1163.18
605.155	1267.61
605.355	1235.64
605.555	1293.18
605.755	1313.91
605.955	1205.61
606.155	1269.35
606.356	1241.84
606.556	1255.6
606.756	1269.16
606.956	1202.12
607.156	1303.26
607.356	1214.33
607.556	1271.29
607.756	1244.94
607.956	1258.31
608.156	1217.23
608.356	1231.96
608.556	1241.84
608.756	1230.99
608.956	1184.88
609.156	1243.58
609.356	1151.75
609.556	1165.12
609.755	1184.68
609.955	1126.95
610.155	1184.68
610.355	1205.61
610.555	1188.56
610.755	1186.43
610.954	1116.68
611.154	1187.01
611.354	1213.75
611.554	1147.29
611.753	1161.05
611.953	1121.91
612.153	1189.33
612.352	1183.13
612.552	1101.37
612.752	1114.16
612.951	1154.46
613.151	1164.15
613.351	1117.26
613.55	1144.77
613.75	1162.21
613.949	1119
614.149	1151.17
614.348	1138.38
614.548	1092.07
614.747	1069.4
614.947	1089.94
615.146	1043.25
615.346	1104.47
615.545	1136.44
615.745	1128.5
615.944	1148.45
616.144	1121.33
616.343	1127.53
616.542	1085.87
616.742	1098.85
616.941	1080.25
617.14	1042.28
617.34	1073.67
617.539	1117.84
617.738	1046.15
617.938	1137.99
618.137	1081.42
618.336	1054.1
618.535	1103.7
618.734	1056.81
618.934	1090.52
619.133	1079.48
619.332	1079.48
619.531	1036.47
619.73	1083.94
619.929	1105.83
620.128	1099.24
620.328	1124.62
620.527	1060.1
620.726	1081.22
620.925	1075.02
621.124	1065.53
621.323	1109.32
621.522	1039.76
621.721	1030.27
621.92	1038.4
622.119	1076.38
622.318	1005.47
622.517	1052.35
622.715	1045.19
622.914	992.49
623.113	1037.82
623.312	958.19
623.511	1049.06
623.71	1042.09
623.909	1002.95
624.107	1088.58
624.306	982.61
624.505	967.11
624.704	1014.77
624.902	1021.35
625.101	1047.9
625.3	1000.43
625.499	998.49
625.697	974.27
625.896	978.73
626.095	1017.09
626.293	970.21
626.492	978.92
626.69	1012.05
626.889	979.12
627.088	1023.1
627.286	961.1
627.485	985.9
627.683	961.87
627.882	978.73
628.08	937.66
628.279	942.89
628.477	1045.38
628.676	916.92
628.874	984.35
629.073	947.54
629.271	908.98
629.469	977.76
629.668	944.24
629.866	953.54
630.065	972.53
630.263	989.97
630.461	936.49
630.66	959.16
630.858	983.19
631.056	1009.73
631.254	969.43
631.453	913.63
631.651	973.89
631.849	954.9
632.047	955.87
632.245	944.82
632.444	947.15
632.642	948.12
632.84	960.52
633.038	931.26
633.236	898.52
633.434	908.79
633.632	916.54
633.83	909.76
634.028	973.89
634.227	941.53
634.425	972.72
634.623	912.08
634.821	943.08
635.019	922.35
635.216	906.85
635.414	970.59
635.612	969.62
635.81	928.16
636.008	1007.6
636.206	935.14
636.404	946.18
636.602	891.54
636.8	910.92
636.997	968.27
637.195	961.49
637.393	916.73
637.591	993.07
637.789	928.94
637.986	913.24
638.184	943.08
638.382	965.56
638.58	960.32
638.777	976.21
638.975	934.75
639.173	953.93
639.37	918.28
639.568	928.94
639.765	948.89
639.963	952.38
640.161	967.49
640.358	980.09
640.556	856.67
640.753	855.7
640.951	844.46
641.148	920.02
641.346	909.37
641.543	916.54
641.741	911.69
641.938	867.13
642.136	881.08
642.333	850.08
642.531	926.42
642.728	970.4
642.925	895.61
643.123	858.03
643.32	894.45
643.517	871.2
643.715	890.58
643.912	853.57
644.109	876.04
644.306	875.27
644.504	817.73
644.701	865.39
644.898	894.64
645.095	837.49
645.293	869.07
645.49	905.3
645.687	868.88
645.884	896.97
646.081	801.45
646.278	867.52
646.475	818.5
646.672	823.34
646.87	853.18
647.067	874.69
647.264	873.14
647.461	797.96
647.658	803.2
647.855	876.43
648.052	814.43
648.249	756.89
648.446	803.78
648.642	789.44
648.839	816.18
649.036	818.5
649.233	774.91
649.43	769.1
649.627	768.13
649.824	790.21
650.021	764.45
650.217	783.82
650.414	786.15
650.611	815.01
650.808	819.28
651.004	822.76
651.201	840.39
651.398	874.49
651.595	798.74
651.791	772.39
651.988	851.83
652.185	776.65
652.381	793.7
652.578	753.4
652.775	796.8
652.971	797.58
653.168	805.91
653.364	801.26
653.561	764.64
653.757	791.38
653.954	811.72
654.15	773.16
654.347	881.86
654.543	761.15
654.74	716.59
654.936	721.24
655.133	765.41
655.329	784.4
655.525	757.28
655.722	816.18
655.918	761.73
656.115	782.08
656.311	690.24
656.507	676.1
656.704	608.67
656.9	637.35
657.096	676.48
657.292	647.81
657.489	729.38
657.685	719.69
657.881	705.55
658.077	698.77
658.273	723.37
658.47	776.85
658.666	740.61
658.862	775.1
659.058	695.47
659.254	811.91
659.45	737.71
659.646	781.88
659.842	748.56
660.038	782.27
660.234	720.08
660.43	735.38
660.626	830.32
660.822	791.96
661.018	814.24
661.214	751.08
661.41	732.67
661.606	786.53
661.802	810.75
661.998	753.79
662.194	734.22
662.39	767.55
662.586	758.05
662.781	800.87
662.977	762.51
663.173	792.15
663.369	756.31
663.564	795.45
663.76	784.4
663.956	750.11
664.152	799.9
664.347	695.08
664.543	746.04
664.739	752.43
664.934	705.93
665.13	699.54
665.326	806.88
665.521	785.18
665.717	695.08
665.912	720.08
666.108	651.3
666.304	716.98
666.499	723.37
666.695	682.49
666.89	739.26
667.086	766.77
667.281	740.81
667.477	799.32
667.672	726.08
667.867	726.08
668.063	734.22
668.258	707.48
668.454	712.33
668.649	805.33
668.844	735.19
669.04	762.7
669.235	750.11
669.43	717.95
669.626	679.39
669.821	683.65
670.016	677.45
670.211	733.06
670.407	677.07
670.602	724.73
670.797	734.03
670.992	778.59
671.187	706.9
671.382	755.92
671.578	681.33
671.773	731.12
671.968	678.03
672.163	731.9
672.358	740.42
672.553	672.61
672.748	685.98
672.943	805.33
673.138	710.39
673.333	755.53
673.528	635.22
673.723	720.08
673.918	699.35
674.113	689.85
674.308	813.46
674.503	739.45
674.698	762.9
674.892	748.95
675.087	737.51
675.282	729.57
675.477	686.17
675.672	723.18
675.867	699.73
676.061	643.74
676.256	624.56
676.451	687.53
676.646	720.66
676.84	675.71
677.035	656.14
677.23	653.82
677.424	704.19
677.619	741
677.814	741.58
678.008	748.56
678.203	661.37
678.397	676.87
678.592	707.48
678.787	739.06
678.981	697.22
679.176	739.06
679.37	705.55
679.565	680.75
679.759	669.51
679.954	689.27
680.148	762.9
680.342	752.24
680.537	734.42
680.731	721.24
680.926	738.29
681.12	728.41
681.314	675.71
681.509	690.24
681.703	686.75
681.897	717.95
682.092	684.43
682.286	677.84
682.48	760.76
682.674	730.73
682.869	685.01
683.063	706.9
683.257	767.35
683.451	693.73
683.645	720.08
683.839	684.04
684.034	675.9
684.228	712.13
684.422	652.07
684.616	640.25
684.81	691.79
685.004	687.92
685.198	697.41
685.392	700.7
685.586	661.57
685.78	688.88
685.974	703.42
686.168	722.21
686.362	744.68
686.556	645.49
686.75	625.92
686.944	629.4
687.138	645.68
687.331	537.76
687.525	576.7
687.719	536.02
687.913	583.1
688.107	579.61
688.301	559.46
688.494	606.54
688.688	561.98
688.882	523.04
689.076	507.34
689.269	582.13
689.463	680.94
689.657	602.86
689.85	555.59
690.044	600.54
690.238	585.81
690.431	597.24
690.625	571.47
690.818	612.74
691.012	611.19
691.205	659.63
691.399	589.1
691.593	635.6
691.786	662.53
691.98	667.18
692.173	696.63
692.366	653.43
692.56	670.09
692.753	742.55
692.947	618.55
693.14	703.22
693.333	701.67
693.527	635.8
693.72	696.44
693.914	643.35
694.107	686.75
694.3	701.87
694.493	665.25
694.687	708.84
694.88	654.78
695.073	707.68
695.266	735
695.46	696.44
695.653	772.97
695.846	750.5
696.039	650.72
696.232	694.12
696.425	751.46
696.618	749.14
696.812	739.06
697.005	798.74
697.198	906.27
697.391	785.56
697.584	821.99
697.777	893.68
697.97	831.68
698.163	849.5
698.356	832.45
698.549	943.47
698.742	906.85
698.935	823.34
699.127	875.46
699.32	852.6
699.513	848.34
699.706	894.84
699.899	883.21
700.092	900.84
700.285	941.14
700.477	879.73
700.67	971.17
700.863	968.27
701.056	1052.74
701.248	1035.69
701.441	1013.02
701.634	1013.99
701.826	1120.17
702.019	941.34
702.212	1075.6
702.404	1011.28
702.597	1015.93
702.79	1043.25
702.982	1063.98
703.175	1081.22
703.367	1126.56
703.56	1115.52
703.752	1257.15
703.945	1199.21
704.137	1195.34
704.33	1218.4
704.522	1249.01
704.715	1221.69
704.907	1247.46
705.1	1299.96
705.292	1295.89
705.484	1250.95
705.677	1315.27
705.869	1320.5
706.061	1402.65
706.254	1416.99
706.446	1381.72
706.638	1370.87
706.831	1469.88
707.023	1395.48
707.215	1574.7
707.407	1490.8
707.599	1484.41
707.792	1571.6
707.984	1553.38
708.176	1591.17
708.368	1528.58
708.56	1608.41
708.752	1563.27
708.944	1592.13
709.136	1650.65
709.329	1616.74
709.521	1755.08
709.713	1662.66
709.905	1760.89
710.097	1778.33
710.289	1698.5
710.481	1763.21
710.672	1775.03
710.864	1771.93
711.056	1879.85
711.248	1831.02
711.44	1857.96
711.632	1842.46
711.824	1889.92
712.016	2002.88
712.207	1970.91
712.399	1962.77
712.591	2023.03
712.783	1993.58
712.975	2019.54
713.166	1930.42
713.358	2033.88
713.55	2060.61
713.741	2099.17
713.933	2107.89
714.125	2119.13
714.316	2078.05
714.508	2164.27
714.7	2248.55
714.891	2179.77
715.083	2244.48
715.274	2213.29
715.466	2218.91
715.657	2304.35
715.849	2148.38
716.04	2244.67
716.232	2183.84
716.423	2261.53
716.615	2215.61
716.806	2193.91
716.998	2172.41
717.189	2120.48
717.381	2059.06
717.572	2016.83
717.763	2071.85
717.955	2038.33
718.146	2005.98
718.337	1966.07
718.528	1942.62
718.72	1886.44
718.911	1969.94
719.102	1932.55
719.293	1985.05
719.485	1972.65
719.676	1995.13
719.867	1931.39
720.058	1926.35
720.249	1964.32
720.44	1972.65
720.632	2035.04
720.823	2056.35
721.014	2179.58
721.205	2243.51
721.396	2297.18
721.587	2395.02
721.778	2428.93
721.969	2449.85
722.16	2522.7
722.351	2544.21
722.542	2668.98
722.733	2699.98
722.924	2605.24
723.115	2667.04
723.305	2680.61
723.496	2661.42
723.687	2535.3
723.878	2577.34
724.069	2599.04
724.26	2611.44
724.45	2526.58
724.641	2511.46
724.832	2549.05
725.023	2583.54
725.213	2559.32
725.404	2563.58
725.595	2553.7
725.785	2551.96
725.976	2645.54
726.167	2662.39
726.357	2621.9
726.548	2770.7
726.739	2642.44
726.929	2769.92
727.12	2769.92
727.31	2790.65
727.501	2740.28
727.691	2799.18
727.882	2806.15
728.072	2822.24
728.263	2823.2
728.453	2888.88
728.644	2883.65
728.834	2859.63
729.024	2851.1
729.215	2860.4
729.405	2878.42
729.596	2947.78
729.786	2986.34
729.976	2988.28
730.167	3034.97
730.357	3001.65
730.547	2998.16
730.737	3060.35
730.928	3082.63
731.118	3178.92
731.308	3052.6
731.498	3109.76
731.688	3180.28
731.879	3203.14
732.069	3249.45
732.259	3315.13
732.449	3323.85
732.639	3412.78
732.829	3395.34
733.019	3409.48
733.209	3504.61
733.399	3526.89
733.589	3575.14
733.779	3620.86
733.969	3579.98
734.159	3653.8
734.349	3730.33
734.539	3761.52
734.729	3773.15
734.919	3784.38
735.109	3872.54
735.299	3755.32
735.488	3838.83
735.678	3853.94
735.868	3866.92
736.058	3856.07
736.248	3810.73
736.437	3833.79
736.627	3811.12
736.817	3911.48
737.007	3911.68
737.196	3970.19
737.386	3890.36
737.576	3870.02
737.765	3946.74
737.955	3916.71
738.144	4057.37
738.334	4032.57
738.524	3954.88
738.713	4033.54
738.903	3970.19
739.092	4054.86
739.282	4058.73
739.471	4028.31
739.661	3995.57
739.85	4071.71
740.04	4115.89
740.229	4113.75
740.419	4124.22
740.608	4128.09
740.797	4089.54
740.987	4161.61
741.176	4199.97
741.365	4114.53
741.555	4124.6
741.744	4172.27
741.933	4158.32
742.123	4210.43
742.312	4221.87
742.501	4251.7
742.69	4263.33
742.88	4178.08
743.069	4322.42
743.258	4275.15
743.447	4360.78
743.636	4296.46
743.825	4268.56
744.014	4321.06
744.204	4331.72
744.393	4270.5
744.582	4368.73
744.771	4378.41
744.96	4311.76
745.149	4391.59
745.338	4353.61
745.527	4388.1
745.716	4351.68
745.905	4359.81
746.094	4392.17
746.283	4497.76
746.471	4416.58
746.66	4436.73
746.849	4413.67
747.038	4483.23
747.227	4346.64
747.416	4437.31
747.604	4375.7
747.793	4420.07
747.982	4447.97
748.171	4439.25
748.359	4448.74
748.548	4425.11
748.737	4397.59
748.926	4412.51
749.114	4321.06
749.303	4427.04
749.491	4433.63
749.68	4341.02
749.869	4456.88
750.057	4409.22
750.246	4396.63
750.434	4394.11
750.623	4342.38
750.811	4311.96
751	4435.18
751.188	4335.59
751.377	4406.7
751.565	4356.91
751.754	4328.04
751.942	4304.79
752.131	4401.28
752.319	4322.81
752.507	4337.53
752.696	4347.61
752.884	4370.28
753.072	4314.86
753.261	4374.54
753.449	4401.86
753.637	4267.2
753.825	4436.54
754.014	4327.07
754.202	4314.28
754.39	4360.2
754.578	4392.56
754.766	4297.04
754.955	4274.56
755.143	4418.13
755.331	4319.51
755.519	4321.45
755.707	4307.31
755.895	4287.35
756.083	4316.22
756.271	4281.93
756.459	4310.21
756.647	4278.44
756.835	4254.03
757.023	4258.29
757.211	4283.09
757.399	4258.68
757.587	4273.4
757.775	4215.86
757.963	4203.46
758.151	4215.47
758.339	4214.5
758.526	4178.27
758.714	4198.03
758.902	4123.05
759.09	4057.37
759.278	3847.35
759.465	3658.25
759.653	3276.18
759.841	3005.71
760.028	2665.11
760.216	2323.92
760.404	2213.48
760.591	1894.38
760.779	1669.05
760.967	1491
761.154	1300.74
761.342	1340.65
761.529	1377.46
761.717	1416.99
761.905	1447.4
762.092	1561.33
762.28	1505.14
762.467	1564.04
762.655	1529.75
762.842	1547.57
763.029	1627.78
763.217	1630.88
763.404	1625.85
763.592	1668.66
763.779	1559.58
763.966	1667.7
764.154	1726.21
764.341	1784.14
764.528	1787.62
764.716	1871.52
764.903	1938.55
765.09	2001.91
765.277	2029.23
765.465	2217.36
765.652	2259.4
765.839	2370.22
766.026	2495.19
766.213	2519.21
766.4	2647.09
766.588	2796.85
766.775	2822.24
766.962	2941.97
767.149	2981.88
767.336	3149.86
767.523	3105.69
767.71	3226.78
767.897	3358.72
768.084	3428.47
768.271	3407.74
768.458	3510.04
768.645	3562.74
768.832	3490.08
769.019	3570.49
769.206	3623.77
769.392	3674.14
769.579	3765.78
769.766	3715.02
769.953	3712.89
770.14	3782.25
770.327	3721.22
770.513	3809.18
770.7	3873.51
770.887	3749.7
771.073	3850.06
771.26	3796.4
771.447	3768.5
771.634	3718.51
771.82	3850.45
772.007	3729.17
772.193	3793.49
772.38	3813.64
772.567	3778.57
772.753	3742.92
772.94	3819.65
773.126	3800.08
773.313	3794.46
773.499	3828.36
773.686	3794.26
773.872	3747.96
774.059	3774.12
774.245	3708.82
774.432	3748.15
774.618	3703.79
774.804	3692.55
774.991	3638.69
775.177	3773.92
775.363	3676.47
775.55	3753.77
775.736	3677.44
775.922	3706.5
776.109	3751.45
776.295	3683.64
776.481	3729.17
776.667	3704.56
776.853	3668.91
777.04	3617.76
777.226	3667.75
777.412	3741.18
777.598	3640.24
777.784	3607.11
777.97	3635.78
778.156	3645.08
778.342	3633.65
778.528	3596.84
778.715	3519.34
778.901	3576.49
779.087	3597.22
779.272	3559.06
779.458	3513.91
779.644	3542.78
779.83	3513.72
780.016	3669.3
780.202	3507.52
780.388	3557.89
780.574	3473.23
780.76	3476.91
780.946	3507.52
781.131	3463.54
781.317	3483.49
781.503	3413.94
781.689	3425.76
781.874	3592.96
782.06	3449.01
782.246	3498.41
782.432	3434.48
782.617	3474.78
782.803	3538.71
782.989	3369.38
783.174	3401.35
783.36	3365.11
783.545	3374.03
783.731	3430.99
783.916	3300.21
784.102	3390.88
784.288	3308.73
784.473	3391.66
784.659	3337.41
784.844	3388.17
785.029	3328.11
785.215	3321.91
785.4	3304.08
785.586	3383.71
785.771	3214.77
785.956	3381.39
786.142	3283.35
786.327	3294.59
786.512	3288.97
786.698	3250.42
786.883	3172.34
787.068	3238.21
787.254	3286.45
787.439	3234.34
787.624	3211.47
787.809	3167.49
787.994	3176.79
788.18	3260.88
788.365	3139.98
788.55	3193.65
788.735	3206.82
788.92	3143.66
789.105	3214.57
789.29	3221.94
789.475	3118.86
789.66	3120.61
789.845	3092.32
790.03	3055.51
790.215	3143.66
790.4	3159.94
790.585	3114.41
790.77	3123.51
790.955	3008.62
791.14	3041.75
791.325	3147.92
791.51	2980.14
791.695	3041.36
791.879	3037.88
792.064	3048.14
792.249	3101.23
792.434	3032.45
792.618	3069.46
792.803	3107.43
792.988	3038.46
793.173	3058.8
793.357	3044.85
793.542	2998.35
793.727	3036.13
793.911	3076.43
794.096	3031.48
794.281	3089.99
794.465	3125.64
794.65	3049.11
794.834	3080.5
795.019	3115.18
795.203	3143.08
795.388	3116.15
795.572	3167.11
795.757	3110.34
795.941	3141.72
796.126	3108.98
796.31	3054.34
796.494	3127.39
796.679	3028.96
796.863	3034.39
797.048	3143.86
797.232	3123.32
797.416	3089.99
797.601	3090.77
797.785	3218.25
797.969	3170.21
798.153	3102.39
798.338	3153.35
798.522	3199.85
798.706	3169.04
798.89	3185.32
799.074	3247.51
799.258	3204.69
799.443	3156.84
799.627	3190.55
799.811	3197.72
799.995	3155.29
800.179	3115.76
800.363	3131.84
800.547	3133.59
800.731	3175.24
800.915	3050.86
801.099	3117.12
801.283	3126.42
801.467	3090.38
801.651	3106.85
801.835	3166.52
802.019	3133.97
802.202	3138.24
802.386	3100.07
802.57	3092.71
802.754	3083.21
802.938	3060.93
803.121	3095.22
803.305	3176.6
803.489	3128.74
803.673	3160.71
803.856	3128.16
804.04	3099.49
804.224	3136.69
804.407	3080.11
804.591	3122.74
804.775	3051.63
804.958	3092.13
805.142	3206.63
805.326	3102.97
805.509	3120.02
805.693	3142.69
805.876	3121.38
806.06	3148.89
806.243	3108.79
806.427	3152.77
806.61	3147.73
806.794	3104.52
806.977	3137.85
807.16	3106.27
807.344	3071.2
807.527	3123.51
807.71	3100.26
807.894	3089.03
808.077	3132.62
808.26	3057.64
808.444	3062.29
808.627	3134.75
808.81	3089.22
808.993	3020.44
809.177	3006.68
809.36	3046.21
809.543	3064.61
809.726	2933.25
809.909	2928.02
810.092	2923.76
810.276	2958.25
810.459	2984.4
810.642	2921.63
810.825	2865.05
811.008	2857.88
811.191	2824.37
811.374	2812.74
811.557	2850.33
811.74	2916.01
811.923	2787.17
812.106	2781.55
812.289	2744.93
812.472	2729.43
812.654	2772.25
812.837	2725.75
813.02	2692.62
813.203	2655.61
813.386	2555.83
813.569	2521.35
813.751	2481.24
813.934	2569.01
814.117	2480.08
814.3	2484.73
814.482	2420.4
814.665	2372.74
814.848	2370.8
815.03	2273.54
815.213	2279.16
815.396	2281.49
815.578	2244.87
815.761	2212.32
815.943	2290.4
816.126	2181.32
816.309	2108.08
816.491	2081.54
816.674	2016.44
816.856	2062.36
817.039	2037.75
817.221	2136.56
817.403	2055.38
817.586	2090.06
817.768	2090.06
817.951	2004.43
818.133	1983.31
818.315	1980.4
818.498	2051.12
818.68	2141.6
818.862	2096.65
819.045	2129.2
819.227	2096.46
819.409	2050.35
819.591	2123
819.774	2086.38
819.956	2030
820.138	2139.66
820.32	2092
820.502	2167.95
820.684	2212.71
820.866	2246.61
821.048	2248.16
821.231	2285.75
821.413	2309
821.595	2254.75
821.777	2264.44
821.959	2251.46
822.141	2358.79
822.323	2183.84
822.505	2130.56
822.686	2074.76
822.868	2025.74
823.05	1865.12
823.232	1862.41
823.414	1771.35
823.596	1859.89
823.778	1797.89
823.96	1854.66
824.141	1894.38
824.323	1924.8
824.505	1958.32
824.687	2003.46
824.868	2061.78
825.05	2164.08
825.232	2178.22
825.413	2258.24
825.595	2214.84
825.777	2148.19
825.958	2163.11
826.14	2147.99
826.321	2209.03
826.503	2152.84
826.685	2207.86
826.866	2218.71
827.048	2212.51
827.229	2171.05
827.411	2135.98
827.592	2070.88
827.773	2081.35
827.955	1999.39
828.136	2014.89
828.318	1975.95
828.499	2037.56
828.68	1977.11
828.862	1982.92
829.043	2071.85
829.224	1998.23
829.406	1904.07
829.587	1974.59
829.768	2012.37
829.949	1990.67
830.131	1982.15
830.312	2086.58
830.493	1994.93
830.674	2026.32
830.855	2012.57
831.036	1971.1
831.218	2066.81
831.399	2060.03
831.58	1989.9
831.761	1980.6
831.942	2024.38
832.123	1963.55
832.304	1914.14
832.485	1936.04
832.666	1964.71
832.847	1995.13
833.028	1970.91
833.209	1944.17
833.389	1973.62
833.57	1924.6
833.751	1918.6
833.932	1998.03
834.113	1948.82
834.294	1945.34
834.475	1994.35
834.655	2015.28
834.836	2010.24
835.017	2022.06
835.198	1939.91
835.378	1974.78
835.559	2047.63
835.74	2003.07
835.92	1976.53
836.101	1978.08
836.281	2028.65
836.462	1996.68
836.643	2044.73
836.823	2038.92
837.004	2014.89
837.184	2083.09
837.365	2045.31
837.545	2056.16
837.726	2002.1
837.906	2104.79
838.087	2006.56
838.267	2016.83
838.448	1972.85
838.628	1989.51
838.808	2013.15
838.989	2066.62
839.169	1984.86
839.349	2029.81
839.53	2038.14
839.71	2059.84
839.89	1993.77
840.07	2081.35
840.251	2009.85
840.431	2059.84
840.611	1991.25
840.791	1953.86
840.971	2047.05
841.151	2005.98
841.332	1943.4
841.512	2031.75
841.692	1939.33
841.872	2014.7
842.052	1987.38
842.232	2012.95
842.412	1919.37
842.592	1942.04
842.772	1997.26
842.952	2021.87
843.132	1933.52
843.312	1919.18
843.492	1903.87
843.672	1983.31
843.851	1874.62
844.031	1929.06
844.211	1942.82
844.391	1874.42
844.571	1904.26
844.751	1944.17
844.93	1922.28
845.11	1897.09
845.29	1959.09
845.47	1950.76
845.649	1911.04
845.829	1930.42
846.009	1909.69
846.188	1911.43
846.368	1919.95
846.547	1907.17
846.727	1922.47
846.907	1848.07
847.086	1885.85
847.266	1908.14
847.445	1884.5
847.625	1862.02
847.804	1883.14
847.984	1857.18
848.163	1830.25
848.343	1870.16
848.522	1889.73
848.701	1836.45
848.881	1843.42
849.06	1825.21
849.239	1874.04
849.419	1902.32
849.598	1761.08
849.777	1811.46
849.957	1752.94
850.136	1716.52
850.315	1681.65
850.494	1694.24
850.674	1684.55
850.853	1765.15
851.032	1730.47
851.211	1788.21
851.39	1742.87
851.569	1707.8
851.748	1684.55
851.927	1785.3
852.107	1749.07
852.286	1702.76
852.465	1690.56
852.644	1792.86
852.823	1769.99
853.002	1732.21
853.181	1711.09
853.359	1709.54
853.538	1652.39
853.717	1738.03
853.896	1624.1
854.075	1522
854.254	1546.41
854.433	1457.48
854.611	1492.35
854.79	1430.36
854.969	1512.5
855.148	1531.88
855.327	1475.69
855.505	1523.35
855.684	1532.27
855.863	1524.9
856.041	1529.17
856.22	1619.65
856.399	1577.6
856.577	1659.56
856.756	1654.33
856.934	1753.53
857.113	1771.93
857.291	1664.6
857.47	1617.32
857.648	1661.3
857.827	1660.53
858.005	1708.96
858.184	1598.92
858.362	1735.51
858.541	1660.53
858.719	1606.28
858.898	1637.08
859.076	1615.38
859.254	1680.48
859.433	1600.27
859.611	1615.77
859.789	1554.93
859.967	1673.9
860.146	1679.51
860.324	1587.48
860.502	1579.93
860.68	1559.78
860.859	1553.38
861.037	1568.11
861.215	1598.14
861.393	1626.81
861.571	1588.84
861.749	1542.73
861.927	1596.2
862.105	1571.98
862.283	1539.24
862.461	1527.03
862.639	1518.51
862.817	1587.48
862.995	1559
863.173	1515.99
863.351	1563.07
863.529	1547.18
863.707	1618.87
863.885	1580.51
864.063	1465.23
864.241	1508.05
864.418	1596.59
864.596	1492.55
864.774	1491
864.952	1488.48
865.129	1529.75
865.307	1481.5
865.485	1421.83
865.663	1501.07
865.84	1415.82
866.018	1453.99
866.196	1306.16
866.373	1358.67
866.551	1303.06
866.728	1249.4
866.906	1286.59
867.084	1298.22
867.261	1330.58
867.439	1337.74
867.616	1393.54
867.794	1361.19
867.971	1406.72
868.149	1402.65
868.326	1455.15
868.503	1418.73
868.681	1393.74
868.858	1380.56
869.035	1350.34
869.213	1424.16
869.39	1387.54
869.567	1455.35
869.745	1391.22
869.922	1387.54
870.099	1440.24
870.276	1431.13
870.454	1399.36
870.631	1422.99
870.808	1376.3
870.985	1418.34
871.162	1456.32
871.339	1377.07
871.517	1345.3
871.694	1309.65
871.871	1406.91
872.048	1338.52
872.225	1358.28
872.402	1385.99
872.579	1293.76
872.756	1346.66
872.933	1320.69
873.11	1361.38
873.287	1342.2
873.463	1325.15
873.64	1294.54
873.817	1382.5
873.994	1360.8
874.171	1296.86
874.348	1321.08
874.524	1262.18
874.701	1346.66
874.878	1229.05
875.055	1327.86
875.231	1273.61
875.408	1315.66
875.585	1206.77
875.762	1290.28
875.938	1302.48
876.115	1293.57
876.291	1265.09
876.468	1251.72
876.645	1236.8
876.821	1249.4
876.998	1220.33
877.174	1270.71
877.351	1263.34
877.527	1199.8
877.704	1254.63
877.88	1222.85
878.057	1244.16
878.233	1314.11
878.409	1246.68
878.586	1250.95
878.762	1186.62
878.938	1233.9
879.115	1171.51
879.291	1242.03
879.467	1162.6
879.644	1219.75
879.82	1220.53
879.996	1188.36
880.172	1111.25
880.349	1213.55
880.525	1234.28
880.701	1144.38
880.877	1191.08
881.053	1171.9
881.229	1180.23
881.405	1221.69
881.581	1138.18
881.757	1166.08
881.933	1188.95
882.109	1223.43
882.285	1189.33
882.461	1125.4
882.637	1198.83
882.813	1101.18
882.989	1165.89
883.165	1219.36
883.341	1132.18
883.517	1218.78
883.693	1191.66
883.869	1200.57
884.044	1163.18
884.22	1222.85
884.396	1219.95
884.572	1192.82
884.747	1213.94
884.923	1205.03
885.099	1192.82
885.275	1243.39
885.45	1172.09
885.626	1130.82
885.801	1165.7
885.977	1146.52
886.153	1086.84
886.328	1160.85
886.504	1106.8
886.679	1186.62
886.855	1150.2
887.03	1154.65
887.206	1221.69
887.381	1173.06
887.557	1157.95
887.732	1185.46
887.908	1194.76
888.083	1204.83
888.258	1159.69
888.434	1166.47
888.609	1170.54
888.784	1246.68
888.96	1160.08
889.135	1143.03
889.31	1130.63
889.485	1174.41
889.661	1180.42
889.836	1194.95
890.011	1174.22
890.186	1154.07
890.361	1133.15
890.537	1176.16
890.712	1146.32
890.887	1212.97
891.062	1182.36
891.237	1230.6
891.412	1130.82
891.587	1173.45
891.762	1226.34
891.937	1220.53
892.112	1120.75
892.287	1173.64
892.462	1130.82
892.637	1107.18
892.812	1078.51
892.987	1115.9
893.161	1073.09
893.336	1102.34
893.511	1074.25
893.686	1077.15
893.861	1092.07
894.035	1073.28
894.21	1116.87
894.385	1020.58
894.56	1074.83
894.734	1026
894.909	1019.03
895.084	1018.84
895.258	993.84
895.433	1045.38
895.608	990.74
895.782	949.47
895.957	969.04
896.131	947.34
896.306	894.45
896.48	888.83
896.655	916.54
896.829	839.04
897.004	845.82
897.178	837.1
897.353	803
897.527	864.23
897.701	877.4
897.876	817.34
898.05	890.19
898.224	878.18
898.399	907.82
898.573	834.78
898.747	732.28
898.921	808.43
899.096	683.46
899.27	686.17
899.444	708.07
899.618	725.5
899.792	763.28
899.967	777.23
900.141	822.57
900.315	725.7
900.489	736.35
900.663	757.47
900.837	763.28
901.011	706.71
901.185	792.35
901.359	755.73
901.533	783.82
901.707	766
901.881	760.57
902.055	715.23
902.229	761.93
902.403	810.17
902.576	777.81
902.75	745.65
902.924	868.1
903.098	800.87
903.272	838.84
903.446	885.93
903.619	871.78
903.793	859.58
903.967	865.78
904.14	918.67
904.314	908.01
904.488	920.22
904.661	894.64
904.835	882.05
905.009	923.32
905.182	961.1
905.356	949.28
905.529	914.02
905.703	858.03
905.876	855.89
906.05	826.25
906.223	836.52
906.397	776.26
906.57	770.26
906.744	728.99
906.917	720.08
907.09	767.35
907.264	732.67
907.437	711.75
907.61	689.85
907.784	698.96
907.957	705.55
908.13	679.2
908.304	740.23
908.477	686.17
908.65	691.98
908.823	628.82
908.996	716.2
909.17	680.17
909.343	647.42
909.516	665.63
909.689	665.25
909.862	655.37
910.035	656.14
910.208	629.79
910.381	604.22
910.554	741.39
910.727	654.4
910.9	639.48
911.073	657.69
911.246	720.08
911.419	716.4
911.592	697.02
911.765	638.9
911.938	641.8
912.11	662.73
912.283	642.77
912.456	704
912.629	656.14
912.802	627.85
912.974	633.67
913.147	568.37
913.32	522.46
913.493	527.49
913.665	586.78
913.838	571.28
914.01	575.54
914.183	604.41
914.356	581.16
914.528	637.15
914.701	670.28
914.873	627.27
915.046	562.37
915.218	546.48
915.391	499.21
915.563	518.19
915.736	550.74
915.908	610.03
916.081	542.41
916.253	540.67
916.425	575.74
916.598	594.92
916.77	582.9
916.942	561.59
917.115	474.99
917.287	543.96
917.459	537.57
917.632	507.54
917.804	465.3
917.976	499.98
918.148	549.19
918.32	548.61
918.493	558.69
918.665	582.71
918.837	560.24
919.009	631.34
919.181	621.27
919.353	574.57
919.525	575.35
919.697	584.65
919.869	564.3
920.041	631.92
920.213	728.6
920.385	635.22
920.557	618.75
920.729	632.5
920.901	604.99
921.073	583.29
921.244	568.76
921.416	626.5
921.588	609.06
921.76	553.26
921.932	618.94
922.103	573.02
922.275	574.77
922.447	588.72
922.619	525.75
922.79	550.36
922.962	548.03
923.134	584.65
923.305	521.29
923.477	509.28
923.648	509.67
923.82	536.99
923.991	472.47
924.163	473.05
924.335	508.7
924.506	476.54
924.677	560.24
924.849	456.19
925.02	499.21
925.192	553.84
925.363	521.29
925.535	494.75
925.706	457.74
925.877	568.76
926.049	485.26
926.22	509.47
926.391	534.66
926.562	531.56
926.734	468.01
926.905	536.99
927.076	453.68
927.247	491.65
927.419	421.32
927.59	411.63
927.761	446.31
927.932	439.53
928.103	429.26
928.274	376.76
928.445	379.66
928.616	381.02
928.787	407.37
928.958	426.74
929.129	413.76
929.3	400.01
929.471	342.85
929.642	292.67
929.813	251.21
929.984	328.71
930.155	255.67
930.326	346.53
930.496	256.05
930.667	220.4
930.838	247.92
931.009	236.68
931.18	219.05
931.35	212.85
931.521	268.84
931.692	174.29
931.863	124.11
932.033	174.49
932.204	203.16
932.374	189.21
932.545	164.22
932.716	205.87
932.886	192.31
933.057	112.68
933.227	138.45
933.398	205.87
933.568	100.67
933.739	96.99
933.909	79.94
934.08	133.99
934.25	57.46
934.421	84.39
934.591	98.54
934.761	65.41
934.932	62.11
935.102	99.31
935.272	89.82
935.443	86.91
935.613	90.98
935.783	107.45
935.953	58.62
936.123	240.17
936.294	65.6
936.464	76.64
936.634	109.19
936.804	35.57
936.974	56.49
937.144	99.89
937.314	101.06
937.484	59.98
937.655	65.41
937.825	133.22
937.995	58.43
938.165	123.34
938.334	88.85
938.504	89.62
938.674	85.36
938.844	109.19
939.014	161.89
939.184	164.99
939.354	203.55
939.524	204.71
939.694	161.5
939.863	141.74
940.033	221.95
940.203	212.07
940.373	181.65
940.542	190.76
940.712	170.03
940.882	178.55
941.051	201.03
941.221	171.19
941.391	198.7
941.56	156.47
941.73	111.91
941.899	259.73
942.069	145.81
942.238	195.41
942.408	146
942.577	201.22
942.747	135.35
942.916	88.07
943.086	116.75
943.255	196.57
943.425	160.73
943.594	117.91
943.763	53.97
943.933	80.32
944.102	55.72
944.271	110.94
944.441	124.89
944.61	97.57
944.779	134.57
944.948	197.54
945.117	89.43
945.287	108.42
945.456	38.67
945.625	87.69
945.794	122.17
945.963	72.19
946.132	150.46
946.301	76.26
946.47	136.32
946.639	38.86
946.808	104.16
946.977	132.05
947.146	162.86
947.315	114.23
947.484	133.6
947.653	81.49
947.822	96.21
947.991	89.04
948.16	185.14
948.329	164.6
948.498	108.81
948.666	127.21
948.835	147.17
949.004	54.36
949.173	76.26
949.341	124.89
949.51	129.92
949.679	155.89
949.847	127.02
950.016	196.19
950.185	192.7
950.353	88.66
950.522	115.39
950.69	168.87
950.859	126.63
951.028	162.67
951.196	144.45
951.365	100.67
951.533	118.69
951.701	154.14
951.87	157.05
952.038	74.51
952.207	101.44
952.375	166.74
952.543	87.11
952.712	100.47
952.88	95.05
953.048	169.06
953.217	115.39
953.385	116.36
953.553	171.77
953.721	71.22
953.89	90.21
954.058	48.74
954.226	109.39
954.394	100.09
954.562	41.38
954.73	127.79
954.898	111.52
955.067	153.75
955.235	83.81
955.403	137.09
955.571	198.12
955.739	115.39
955.907	82.07
956.075	106.87
956.243	88.85
956.41	117.91
956.578	50.68
956.746	68.7
956.914	102.02
957.082	140.19
957.25	122.37
957.418	78.19
957.585	123.72
957.753	165.57
957.921	98.15
958.089	121.79
958.256	133.22
958.424	145.42
958.592	131.47
958.759	91.76
958.927	107.06
959.095	90.59
959.262	119.46
959.43	124.11
959.597	95.24
959.765	115.59
959.932	72.19
960.1	153.95
960.267	115.01
960.435	116.94
960.602	151.43
960.77	113.07
960.937	71.41
961.104	124.5
961.272	89.62
961.439	93.89
961.606	147.36
961.774	151.43
961.941	112.1
962.108	135.15
962.275	128.18
962.443	143.68
962.61	138.25
962.777	191.15
962.944	133.02
963.111	140.19
963.278	158.4
963.446	125.85
963.613	122.37
963.78	140.39
963.947	122.56
964.114	130.7
964.281	207.81
964.448	170.42
964.615	117.52
964.782	137.29
964.949	148.91
965.116	144.45
965.282	183.2
965.449	103.19
965.616	65.41
965.783	126.82
965.95	154.53
966.117	87.69
966.283	128.57
966.45	124.5
966.617	141.94
966.784	188.24
966.95	172.55
967.117	178.36
967.284	101.44
967.45	124.89
967.617	203.55
967.784	160.54
967.95	199.09
968.117	103.57
968.283	200.25
968.45	248.69
968.616	144.26
968.783	188.44
968.949	175.26
969.116	182.43
969.282	137.09
969.449	166.74
969.615	143.49
969.781	115.59
969.948	134.57
970.114	101.25
970.28	195.22
970.447	139.8
970.613	190.95
970.779	156.85
970.945	190.95
971.112	158.79
971.278	135.54
971.444	156.66
971.61	185.34
971.776	144.84
971.942	152.01
972.108	140.97
972.275	127.02
972.441	162.09
972.607	194.25
972.773	117.52
972.939	150.46
973.105	130.89
973.271	131.47
973.437	121.79
973.602	121.21
973.768	142.13
973.934	132.64
974.1	152.01
974.266	69.86
974.432	121.98
974.598	103.77
974.763	164.6
974.929	130.12
975.095	193.47
975.261	90.79
975.426	107.26
975.592	120.43
975.758	210.91
975.923	98.34
976.089	125.85
976.255	142.71
976.42	162.09
976.586	163.44
976.751	136.9
976.917	206.07
977.082	143.29
977.248	61.92
977.413	70.64
977.579	94.08
977.744	123.72
977.91	69.47
978.075	99.7
978.24	160.54
978.406	123.34
978.571	83.23
978.736	78.77
978.902	143.49
979.067	103.38
979.232	54.75
979.397	140.19
979.563	187.47
979.728	67.34
979.893	128.57
980.058	99.31
980.223	149.88
980.388	109.19
980.554	132.64
980.719	90.59
980.884	130.31
981.049	161.31
981.214	90.21
981.379	139.22
981.544	103.77
981.709	112.49
981.874	94.86
982.039	119.27
982.204	136.9
982.368	97.96
982.533	113.46
982.698	160.34
982.863	175.84
983.028	115.59
983.193	158.4
983.357	135.35
983.522	116.17
983.687	100.47
983.852	114.62
984.016	98.34
984.181	110.36
984.346	125.47
984.51	139.61
984.675	89.82
984.839	144.07
985.004	131.28
985.168	156.66
985.333	118.69
985.498	124.5
985.662	151.43
985.827	133.6
985.991	104.54
986.155	120.04
986.32	125.66
986.484	149.88
986.649	148.52
986.813	69.28
986.977	137.29
987.142	139.61
987.306	70.25
987.47	98.54
987.634	116.17
987.799	118.3
987.963	125.85
988.127	145.81
988.291	186.69
988.455	117.33
988.62	93.11
988.784	160.92
988.948	160.54
989.112	82.26
989.276	123.72
989.44	110.94
989.604	94.27
989.768	103.77
989.932	189.99
990.096	54.94
990.26	81.87
990.424	38.09
990.588	92.34
990.752	160.73
990.915	134.19
991.079	91.37
991.243	95.82
991.407	122.37
991.571	100.09
991.734	118.69
991.898	100.86
992.062	188.63
992.226	118.49
992.389	73.74
992.553	54.75
992.717	49.13
992.88	69.28
993.044	105.71
993.207	95.63
993.371	134.96
993.535	108.03
993.698	105.9
993.862	134.57
994.025	137.09
994.189	110.55
994.352	91.95
994.515	118.11
994.679	140.39
994.842	78
995.006	135.35
995.169	59.01
995.332	82.46
995.496	130.31
995.659	26.46
995.822	102.8
995.985	112.68
996.149	138.45
996.312	77.81
996.475	141.16
996.638	73.35
996.801	152.2
996.964	155.11
997.128	88.27
997.291	89.62
997.454	87.11
997.617	34.41
997.78	123.53
997.943	79.36
998.106	118.11
998.269	77.81
998.432	76.64
998.595	76.84
998.758	27.82
998.92	56.69
999.083	29.76
999.246	69.67
999.409	39.64
999.572	0.5
999.735	63.86
999.897	111.71
1000.06	53.2
1000.223	80.13
1000.386	113.46
1000.548	99.51
1000.711	102.02
1000.874	93.11
1001.036	51.65
1001.199	112.29
1001.361	43.12
1001.524	90.21
1001.687	99.12
1001.849	34.79
1002.012	84.78
1002.174	63.66
1002.337	107.64
1002.499	65.21
1002.661	102.41
1002.824	45.26
1002.986	57.27
1003.149	77.22
1003.311	39.06
1003.473	132.05
1003.636	37.51
1003.798	104.54
1003.96	111.71
1004.123	91.56
1004.285	59.79
1004.447	69.47
1004.609	90.4
1004.771	143.49
1004.933	20.07
1005.096	29.18
1005.258	28.59
1005.42	43.9
1005.582	125.08
1005.744	86.52
1005.906	7.28
1006.068	83.81
1006.23	11.93
1006.392	18.52
1006.554	55.14
1006.716	110.36
1006.878	80.91
1007.04	10.77
1007.202	36.92
1007.363	69.67
1007.525	61.72
1007.687	98.15
1007.849	88.07
1008.011	11.16
1008.172	9.99
1008.334	47.97
1008.496	91.17
1008.658	24.33
1008.819	37.7
1008.981	28.01
1009.143	12.13
1009.304	55.14
1009.466	64.05
1009.627	92.34
1009.789	173.32
1009.95	86.72
1010.112	20.46
1010.273	87.88
1010.435	27.82
1010.596	12.9
1010.758	48.16
1010.919	35.96
1011.081	22.2
1011.242	38.28
1011.403	68.31
1011.565	42.35
1011.726	69.47
1011.887	35.76
1012.049	41.96
1012.21	93.31
1012.371	122.17
1012.532	-36.89
1012.693	55.91
1012.855	23.56
1013.016	61.53
1013.177	79.74
1013.338	54.94
1013.499	123.72
1013.66	82.26
1013.821	85.36
1013.982	70.44
1014.143	52.42
1014.304	9.03
1014.465	58.82
1014.626	77.03
1014.787	33.44
1014.948	114.04
1015.109	-27.98
1015.27	122.56
1015.431	24.33
1015.592	4.57
1015.752	96.21
1015.913	30.53
1016.074	50.87
1016.235	52.42
1016.395	36.15
1016.556	22.78
1016.717	43.51
1016.877	97.57
1017.038	22.2
1017.199	71.41
1017.359	40.41
1017.52	52.81
1017.681	22.01
1017.841	35.57
1018.002	24.72
1018.162	27.24
1018.323	114.23
1018.483	36.15
1018.644	39.44
1018.804	0.31
1018.964	-15.39
1019.125	18.91
1019.285	40.61
1019.446	42.93
1019.606	16
1019.766	-23.72
1019.926	79.55
1020.087	61.34
1020.247	-16.74
1020.407	39.25
1020.567	80.32
1020.728	40.99
1020.888	-8.02
1021.048	13.87
1021.208	13.29
1021.368	3.21
1021.528	88.85
1021.688	50.49
1021.848	41.77
1022.008	34.6
1022.168	17.55
1022.328	53.78
1022.488	45.26
1022.648	21.23
1022.808	36.73
1022.968	83.42
1023.128	16.39
1023.288	29.37
1023.448	22.59
1023.608	57.27
1023.767	78.97
1023.927	-2.41
1024.087	17.74
1024.247	-8.61
1024.406	5.34
1024.566	-11.9
1024.726	17.16
1024.885	39.06
1025.045	62.89
1025.205	46.81
1025.364	36.15
1025.524	58.04
1025.683	24.72
1025.843	46.42
1026.003	22.2
1026.162	62.11
1026.321	44.48
1026.481	47.39
1026.64	9.41
1026.8	33.63
1026.959	54.17
1027.119	33.83
1027.278	16.58
1027.437	12.13
1027.597	37.51
1027.756	40.22
1027.915	31.31
1028.074	38.47
1028.234	6.31
1028.393	35.18
1028.552	2.63
1028.711	-31.27
1028.87	82.65
1029.03	-13.45
1029.189	14.26
1029.348	-44.84
1029.507	12.51
1029.666	37.7
1029.825	-29.53
1029.984	-16.36
1030.143	38.28
1030.302	12.32
1030.461	-33.99
1030.62	47.97
1030.779	82.07
1030.938	1.66
1031.097	-2.21
1031.255	38.28
1031.414	74.51
1031.573	76.06
1031.732	-39.02
1031.891	9.22
1032.049	96.99
1032.208	28.59
1032.367	-21.2
1032.525	16
1032.684	-4.54
1032.843	38.67
1033.001	-26.82
1033.16	199.67
1033.319	67.15
1033.477	44.29
1033.636	-6.86
1033.794	-22.17
1033.953	71.02
1034.111	53.01
1034.27	-4.34
1034.428	43.32
1034.587	-9.57
1034.745	34.79
1034.903	45.64
1035.062	31.69
1035.22	-40.96
1035.378	51.26
1035.537	-0.86
1035.695	47.77
1035.853	34.6
1036.011	35.18
1036.17	43.51
1036.328	-37.47
1036.486	-18.1
1036.644	24.72
1036.802	-49.1
1036.96	-12.29
1037.119	11.16
1037.277	-1.82
1037.435	-23.72
1037.593	-27.4
1037.751	6.89
1037.909	42.74
1038.067	42.74
