Data from gum_old_FLMT105791__13__15-42-35-259.txt Node

Date: Mon Mar 20 15:42:35 GMT 2023
User: antho
Spectrometer: FLMT10579
Trigger mode: 0
Integration Time (sec): 1.000000E-1
Scans to average: 10
Electric dark correction enabled: true
Nonlinearity correction enabled: false
Boxcar width: 0
XAxis mode: Wavelengths
Number of Pixels in Spectrum: 3648
>>>>>Begin Spectral Data<<<<<
345.248	-194.23
345.464	-194.23
345.681	-194.23
345.898	-194.43
346.114	-172.73
346.331	-24.7
346.548	35.94
346.764	-18.5
346.981	9.2
347.197	-11.92
347.414	16.76
347.631	-27.22
347.847	81.66
348.064	-15.21
348.28	21.99
348.497	-40.59
348.713	-27.42
348.93	43.69
349.146	17.92
349.363	14.24
349.579	45.82
349.796	17.53
350.012	27.8
350.229	35.36
350.445	27.61
350.661	7.27
350.878	59
351.094	49.11
351.311	53.38
351.527	34.2
351.743	24.32
351.96	61.9
352.176	43.88
352.392	24.9
352.609	59.96
352.825	23.15
353.041	28
353.257	11.53
353.474	30.52
353.69	23.35
353.906	37.3
354.122	5.72
354.339	98.33
354.555	58.61
354.771	3.2
354.987	72.56
355.203	87.28
355.42	9.4
355.636	14.82
355.852	13.47
356.068	36.52
356.284	10.17
356.5	110.15
356.716	20.63
356.932	15.98
357.148	69.65
357.364	36.52
357.58	61.51
357.796	104.72
358.012	69.07
358.228	51.63
358.444	-29.35
358.66	90.96
358.876	47.37
359.092	4.94
359.308	30.32
359.524	65
359.74	30.9
359.956	41.95
360.172	45.82
360.388	93.48
360.604	42.14
360.819	129.13
361.035	76.05
361.251	74.69
361.467	48.53
361.683	85.35
361.898	56.48
362.114	103.56
362.33	56.86
362.546	118.09
362.762	62.48
362.977	49.89
363.193	21.8
363.409	102.59
363.624	34.97
363.84	61.13
364.056	38.27
364.271	98.33
364.487	84.96
364.703	60.16
364.918	27.42
365.134	59.19
365.35	62.29
365.565	164.78
365.781	97.75
365.996	96.58
366.212	146.96
366.427	95.42
366.643	67.13
366.858	87.67
367.074	74.69
367.289	148.51
367.505	176.41
367.72	35.75
367.936	85.54
368.151	117.7
368.367	104.91
368.582	98.71
368.798	71.4
369.013	117.31
369.228	104.91
369.444	118.86
369.659	145.79
369.874	118.09
370.09	137.85
370.305	12.69
370.52	52.21
370.736	138.63
370.951	114.02
371.166	156.26
371.381	143.47
371.597	110.53
371.812	80.5
372.027	73.72
372.242	112.08
372.458	171.18
372.673	87.86
372.888	85.93
373.103	84.76
373.318	175.24
373.533	106.85
373.749	98.91
373.964	76.05
374.179	135.14
374.394	62.29
374.609	132.23
374.824	60.55
375.039	149.86
375.254	68.68
375.469	162.84
375.684	125.84
375.899	147.15
376.114	115.38
376.329	134.94
376.544	136.3
376.759	125.26
376.974	88.45
377.189	98.13
377.404	78.95
377.619	171.95
377.834	60.93
378.049	78.95
378.264	91.93
378.478	129.71
378.693	102.01
378.908	177.57
379.123	116.93
379.338	155.87
379.553	140.18
379.767	145.79
379.982	131.07
380.197	129.91
380.412	136.11
380.626	153.74
380.841	211.09
381.056	141.73
381.271	230.27
381.485	120.8
381.7	101.23
381.915	158
382.129	105.3
382.344	115.38
382.559	106.66
382.773	134.94
382.988	70.04
383.202	81.28
383.417	70.43
383.632	200.43
383.846	107.82
384.061	94.65
384.275	78.95
384.49	136.69
384.704	151.22
384.919	125.45
385.133	141.14
385.348	195.2
385.562	121.19
385.777	192.49
385.991	154.13
386.206	145.79
386.42	123.9
386.634	163.04
386.849	160.52
387.063	150.64
387.277	148.31
387.492	135.53
387.706	111.7
387.92	101.43
388.135	193.26
388.349	185.9
388.563	176.21
388.778	124.68
388.992	177.38
389.206	177.76
389.42	221.36
389.635	158.97
389.849	195.98
390.063	251
390.277	199.27
390.491	246.35
390.706	213.61
390.92	240.92
391.134	195.01
391.348	232.21
391.562	201.21
391.776	229.49
391.99	203.92
392.205	260.3
392.419	176.6
392.633	241.12
392.847	251.19
393.061	158.78
393.275	229.49
393.489	163.62
393.703	115.96
393.917	161.29
394.131	130.49
394.345	148.31
394.559	198.49
394.773	168.08
394.986	230.66
395.2	238.41
395.414	243.64
395.628	202.18
395.842	228.91
396.056	257.78
396.27	198.3
396.484	233.76
396.697	220.19
396.911	238.21
397.125	180.86
397.339	188.03
397.553	189.78
397.766	226.39
397.98	244.61
398.194	271.34
398.408	259.91
398.621	286.46
398.835	320.75
399.049	331.6
399.262	375.58
399.476	357.75
399.69	344.39
399.903	396.5
400.117	332.18
400.331	368.41
400.544	357.95
400.758	468.38
400.971	347.68
401.185	402.9
401.398	359.3
401.612	430.6
401.826	392.05
402.039	422.47
402.253	365.89
402.466	414.91
402.68	371.7
402.893	444.36
403.106	409.1
403.32	390.3
403.533	410.65
403.747	379.07
403.96	391.85
404.174	437.38
404.387	350
404.6	393.79
404.814	458.89
405.027	403.48
405.24	404.45
405.454	405.22
405.667	458.7
405.88	344.19
406.094	464.51
406.307	436.03
406.52	420.92
406.733	370.54
406.947	368.6
407.16	492.6
407.373	453.08
407.586	400.96
407.799	386.82
408.012	482.53
408.226	425.95
408.439	485.82
408.652	391.08
408.865	472.07
409.078	515.46
409.291	492.21
409.504	420.33
409.717	466.25
409.93	475.75
410.143	470.71
410.357	412.2
410.57	369.96
410.783	448.04
410.996	468.38
411.209	466.25
411.421	514.11
411.634	504.61
411.847	463.93
412.06	526.31
412.273	505.97
412.486	523.99
412.699	580.18
412.912	521.86
413.125	537.36
413.338	508.1
413.55	518.18
413.763	516.82
413.976	546.85
414.189	490.08
414.402	525.54
414.615	603.62
414.827	496.86
415.04	550.53
415.253	531.74
415.466	584.63
415.678	582.5
415.891	544.33
416.104	520.7
416.316	521.08
416.529	525.93
416.742	589.28
416.954	599.74
417.167	548.4
417.38	528.25
417.592	568.55
417.805	509.85
418.017	499.58
418.23	551.7
418.442	517.79
418.655	548.01
418.868	568.36
419.08	548.6
419.293	607.11
419.505	572.23
419.718	564.1
419.93	598.19
420.142	551.7
420.355	594.71
420.567	583.47
420.78	572.43
420.992	571.84
421.205	650.51
421.417	558.48
421.629	581.73
421.842	567.39
422.054	546.27
422.266	625.71
422.479	655.54
422.691	560.03
422.903	582.69
423.115	562.55
423.328	568.94
423.54	579.01
423.752	594.71
423.964	562.16
424.177	601.1
424.389	575.91
424.601	724.32
424.813	603.43
425.025	646.83
425.238	642.18
425.45	598.58
425.662	601.49
425.874	884.75
426.086	618.93
426.298	635.01
426.51	626.87
426.722	636.56
426.934	601.29
427.146	636.56
427.358	582.69
427.57	629
427.782	580.95
427.994	561.19
428.206	590.06
428.418	569.71
428.63	647.79
428.842	682.47
429.054	626.09
429.266	635.39
429.478	601.49
429.69	603.43
429.902	562.35
430.114	614.86
430.325	582.11
430.537	520.11
430.749	523.41
430.961	430.41
431.173	496.28
431.384	537.36
431.596	434.87
431.808	553.83
432.02	646.44
432.231	693.91
432.443	728.01
432.655	729.17
432.867	655.16
433.078	703.4
433.29	759.78
433.502	717.16
433.713	791.55
433.925	734.79
434.136	751.45
434.348	674.53
434.56	645.08
434.771	761.72
434.983	609.24
435.194	671.24
435.406	720.45
435.617	762.88
435.829	808.99
436.04	802.6
436.252	798.53
436.463	842.32
436.675	863.63
436.886	839.6
437.098	830.69
437.309	895.4
437.521	841.35
437.732	831.08
437.943	811.51
438.155	837.47
438.366	788.84
438.578	837.67
438.789	788.45
439	754.94
439.211	777.6
439.423	771.4
439.634	795.43
439.845	841.54
440.057	826.82
440.268	873.32
440.479	841.54
440.69	859.95
440.902	813.84
441.113	832.43
441.324	808.99
441.535	892.5
441.746	950.23
441.957	869.63
442.168	912.45
442.38	926.98
442.591	943.84
442.802	900.63
443.013	972.71
443.224	931.44
443.435	939.58
443.646	915.17
443.857	892.5
444.068	911.87
444.279	895.02
444.49	1001.77
444.701	947.52
444.912	1070.74
445.123	982.78
445.334	977.55
445.545	963.21
445.756	968.64
445.967	893.85
446.178	933.18
446.388	940.55
446.599	925.63
446.81	925.24
447.021	924.66
447.232	973.29
447.443	1020.56
447.653	946.75
447.864	1037.03
448.075	1012.43
448.286	1037.23
448.496	982.59
448.707	1062.8
448.918	1001.38
449.129	1073.07
449.339	985.88
449.55	1028.7
449.761	1012.23
449.971	1048.08
450.182	1016.69
450.393	1059.31
450.603	1005.26
450.814	1092.64
451.024	1055.44
451.235	1128.87
451.446	1165.49
451.656	1153.67
451.867	1066.48
452.077	1087.41
452.288	1168.01
452.498	1130.22
452.709	1053.69
452.919	1062.03
453.13	1034.13
453.34	1054.08
453.55	1017.85
453.761	1074.43
453.971	1055.05
454.182	1102.32
454.392	1070.74
454.602	1165.49
454.813	1114.53
455.023	1100
455.233	1033.35
455.444	1052.14
455.654	1002.55
455.864	1058.73
456.075	1077.33
456.285	1057.38
456.495	1084.31
456.705	1105.42
456.916	1143.59
457.126	1168.59
457.336	1126.16
457.546	1056.99
457.756	1118.02
457.967	1186.99
458.177	1092.83
458.387	1107.17
458.597	1096.12
458.807	1094.38
459.017	1084.89
459.227	1076.17
459.437	1072.88
459.647	1122.86
459.857	1135.46
460.068	1093.61
460.278	1178.66
460.488	1152.7
460.698	1172.27
460.908	1125.19
461.117	1102.91
461.327	1141.07
461.537	1168.97
461.747	1191.06
461.957	1171.69
462.167	1270.11
462.377	1197.26
462.587	1217.22
462.797	1235.62
463.007	1184.67
463.216	1284.83
463.426	1294.72
463.636	1223.61
463.846	1141.46
464.056	1164.32
464.265	1193.19
464.475	1163.74
464.685	1248.02
464.895	1218.38
465.104	1184.47
465.314	1226.52
465.524	1183.5
465.733	1174.79
465.943	1308.47
466.153	1287.74
466.362	1277.86
466.572	1271.85
466.782	1209.85
466.991	1258.29
467.201	1281.73
467.41	1135.07
467.62	1240.66
467.829	1279.41
468.039	1291.03
468.249	1244.54
468.458	1295.1
468.668	1286
468.877	1320.48
469.086	1331.72
469.296	1322.62
469.505	1285.03
469.715	1422.01
469.924	1323.58
470.134	1376.86
470.343	1363.3
470.552	1294.13
470.762	1302.85
470.971	1297.04
471.18	1331.33
471.39	1359.81
471.599	1329.01
471.808	1363.88
472.018	1352.07
472.227	1460.76
472.436	1460.56
472.645	1443.71
472.855	1412.13
473.064	1515.01
473.273	1512.49
473.482	1443.9
473.691	1482.46
473.901	1483.62
474.11	1437.12
474.319	1565.57
474.528	1475.09
474.737	1585.72
474.946	1516.17
475.155	1540
475.364	1638.42
475.573	1560.54
475.783	1598.9
475.992	1582.24
476.201	1613.43
476.41	1587.66
476.619	1555.5
476.828	1582.24
477.037	1523.92
477.245	1547.56
477.454	1655.28
477.663	1652.57
477.872	1656.83
478.081	1731.81
478.29	1668.26
478.499	1747.5
478.708	1755.25
478.917	1775.02
479.125	1684.92
479.334	1740.53
479.543	1728.52
479.752	1793.61
479.961	1774.43
480.169	1830.04
480.378	1801.17
480.587	1985.23
480.796	1838.56
481.004	1819
481.213	1894.17
481.422	1868.01
481.63	1864.53
481.839	1911.8
482.048	1984.65
482.256	1936.79
482.465	1972.44
482.674	2013.32
482.882	1965.28
483.091	2018.56
483.299	1944.35
483.508	2023.01
483.716	2009.45
483.925	2028.63
484.134	1968.57
484.342	2000.92
484.551	2036.19
484.759	2024.37
484.967	2069.51
485.176	2058.47
485.384	2058.08
485.593	2072.8
485.801	2058.47
486.01	1976.32
486.218	1866.46
486.426	1744.79
486.635	1762.42
486.843	1767.27
487.051	1791.68
487.26	1811.25
487.468	1868.79
487.676	1928.27
487.885	1958.88
488.093	2008.48
488.301	2092.76
488.509	2090.82
488.717	2119.89
488.926	2140.23
489.134	2095.47
489.342	2089.85
489.55	2085.2
489.758	2118.34
489.967	2161.54
490.175	2274.5
490.383	2237.88
490.591	2363.43
490.799	2243.11
491.007	2319.44
491.215	2275.08
491.423	2264.23
491.631	2252.99
491.839	2260.35
492.047	2274.69
492.255	2169.48
492.463	2172
492.671	2155.92
492.879	2234.2
493.087	2191.18
493.295	2259.77
493.503	2308.6
493.711	2397.53
493.919	2370.98
494.127	2376.99
494.334	2347.15
494.542	2265.39
494.75	2382.22
494.958	2328.36
495.166	2452.94
495.374	2435.11
495.581	2463.21
495.789	2462.24
495.997	2503.12
496.205	2379.89
496.412	2368.08
496.62	2430.85
496.828	2420.19
497.035	2458.36
497.243	2436.86
497.451	2464.56
497.658	2486.07
497.866	2416.12
498.074	2555.24
498.281	2415.16
498.489	2514.55
498.696	2401.98
498.904	2358
499.112	2384.54
499.319	2487.23
499.527	2449.64
499.734	2517.65
499.942	2399.66
500.149	2460.3
500.357	2526.95
500.564	2420.58
500.771	2442.09
500.979	2357.23
501.186	2364.01
501.394	2404.89
501.601	2391.71
501.808	2384.93
502.016	2390.74
502.223	2376.02
502.43	2357.42
502.638	2410.31
502.845	2363.81
503.052	2536.25
503.26	2432.98
503.467	2528.3
503.674	2468.63
503.881	2481.22
504.089	2581
504.296	2498.85
504.503	2421.16
504.71	2430.66
504.917	2440.92
505.125	2464.56
505.332	2473.09
505.539	2496.72
505.746	2612.2
505.953	2588.56
506.16	2573.06
506.367	2665.67
506.574	2697.64
506.781	2702.68
506.988	2590.5
507.195	2605.8
507.402	2588.37
507.609	2668.96
507.816	2587.59
508.023	2542.25
508.23	2530.24
508.437	2472.12
508.644	2524.24
508.851	2593.21
509.058	2638.16
509.265	2616.85
509.472	2610.07
509.679	2694.35
509.885	2655.02
510.092	2630.41
510.299	2659.86
510.506	2610.26
510.713	2645.13
510.92	2652.11
511.126	2627.12
511.333	2658.89
511.54	2679.23
511.746	2736.2
511.953	2727.67
512.16	2813.5
512.367	2678.07
512.573	2679.62
512.78	2698.61
512.987	2712.17
513.193	2641.07
513.4	2546.9
513.606	2635.25
513.813	2664.12
514.02	2597.67
514.226	2681.56
514.433	2663.54
514.639	2582.17
514.846	2613.75
515.052	2561.63
515.259	2664.9
515.465	2603.28
515.672	2683.3
515.878	2737.94
516.085	2693.57
516.291	2756.15
516.497	2680.59
516.704	2616.27
516.91	2580.42
517.117	2485.49
517.323	2387.64
517.529	2403.34
517.736	2364.39
517.942	2365.94
518.148	2427.56
518.354	2524.82
518.561	2507.57
518.767	2512.8
518.973	2525.98
519.179	2599.41
519.386	2534.7
519.592	2554.85
519.798	2609.68
520.004	2728.83
520.21	2702.48
520.417	2758.09
520.623	2798.19
520.829	2789.67
521.035	2822.22
521.241	2779.79
521.447	2780.18
521.653	2924.32
521.859	2759.83
522.065	2862.91
522.271	2942.92
522.477	2923.36
522.683	2954.55
522.889	2902.04
523.095	2903.4
523.301	2845.08
523.507	2770.68
523.713	2867.17
523.919	2810.79
524.125	2939.44
524.331	2923.55
524.537	3026.82
524.742	3050.07
524.948	3022.94
525.154	3038.83
525.36	3109.35
525.566	3041.73
525.772	3076.61
525.977	2996.79
526.183	3034.76
526.389	3085.91
526.595	2918.12
526.8	2938.08
527.006	2837.72
527.212	2741.43
527.417	2743.75
527.623	2752.66
527.829	2844.11
528.034	2909.02
528.24	2913.47
528.446	2980.12
528.651	3047.55
528.857	3029.72
529.062	3119.62
529.268	3129.7
529.473	3178.91
529.679	3140.74
529.884	3233.74
530.09	3204.48
530.295	3195.57
530.501	3213.39
530.706	3144.23
530.912	3120.2
531.117	3228.7
531.323	3209.13
531.528	3272.29
531.733	3268.61
531.939	3195.96
532.144	3254.08
532.35	3259.7
532.555	3251.76
532.76	3207
532.966	3179.1
533.171	3119.23
533.376	3104.31
533.581	3028.75
533.787	3124.85
533.992	3224.44
534.197	3184.33
534.402	3194.02
534.607	3239.16
534.813	3245.17
535.018	3212.23
535.223	3231.61
535.428	3293.22
535.633	3287.02
535.838	3330.42
536.043	3350.57
536.249	3438.72
536.454	3349.99
536.659	3383.31
536.864	3318.6
537.069	3267.45
537.274	3290.12
537.479	3286.05
537.684	3251.95
537.889	3205.84
538.094	3379.44
538.299	3293.61
538.504	3337.97
538.708	3368
538.913	3369.55
539.118	3344.17
539.323	3336.42
539.528	3292.25
539.733	3317.24
539.938	3307.36
540.142	3305.04
540.347	3281.01
540.552	3220.18
540.757	3176.58
540.962	3268.42
541.166	3157.98
541.371	3136.48
541.576	3256.6
541.781	3110.32
541.985	3275.2
542.19	3264.35
542.395	3409.85
542.599	3378.66
542.804	3331.58
543.008	3388.35
543.213	3305.23
543.418	3279.46
543.622	3339.14
543.827	3239.74
544.031	3381.95
544.236	3387.38
544.44	3397.65
544.645	3428.65
544.849	3366.07
545.054	3409.66
545.258	3456.35
545.463	3407.92
545.667	3356.77
545.872	3425.35
546.076	3383.12
546.281	3360.84
546.485	3322.47
546.689	3415.47
546.894	3363.94
547.098	3420.12
547.302	3321.51
547.507	3377.69
547.711	3414.12
547.915	3426.9
548.119	3315.5
548.324	3302.32
548.528	3382.34
548.732	3348.63
548.936	3381.57
549.141	3414.5
549.345	3345.72
549.549	3348.05
549.753	3446.67
549.957	3465.07
550.161	3474.57
550.366	3401.91
550.57	3345.72
550.774	3403.27
550.978	3368
551.182	3427.29
551.386	3356.96
551.59	3353.86
551.794	3414.12
551.998	3405.59
552.202	3358.71
552.406	3336.81
552.61	3479.22
552.814	3409.85
553.018	3462.75
553.222	3370.72
553.426	3442.4
553.63	3467.78
553.833	3405.2
554.037	3347.47
554.241	3356.57
554.445	3392.61
554.649	3426.9
554.853	3369.17
555.056	3447.64
555.26	3486.77
555.464	3382.73
555.668	3440.47
555.871	3407.92
556.075	3469.53
556.279	3366.26
556.483	3364.9
556.686	3340.49
556.89	3398.62
557.094	3345.72
557.297	3290.7
557.501	3334.49
557.704	3236.84
557.908	3346.5
558.112	3281.01
558.315	3349.6
558.519	3285.27
558.722	3282.56
558.926	3225.79
559.129	3151.59
559.333	3192.08
559.536	3159.73
559.74	3166.9
559.943	3137.25
560.147	3150.62
560.35	3187.43
560.553	3195.76
560.757	3136.28
560.96	3254.28
561.164	3212.81
561.367	3308.33
561.57	3242.07
561.774	3223.08
561.977	3196.73
562.18	3188.4
562.384	3275.98
562.587	3176.78
562.79	3176.39
562.993	3149.65
563.197	3174.84
563.4	3279.66
563.603	3220.95
563.806	3331.19
564.009	3207.97
564.212	3223.86
564.416	3131.63
564.619	3152.95
564.822	3155.08
565.025	3205.45
565.228	3157.01
565.431	3182.4
565.634	3048.9
565.837	3087.27
566.04	3033.98
566.243	3033.98
566.446	2942.73
566.649	3058.01
566.852	2932.85
567.055	2981.29
567.258	3022.17
567.461	3089.98
567.664	3128.34
567.867	2994.85
568.07	3019.07
568.273	3081.26
568.475	3099.67
568.678	3021.58
568.881	3018.29
569.084	3014.42
569.287	2884.8
569.489	2947.19
569.692	2955.32
569.895	2993.69
570.098	2905.53
570.3	2881.89
570.503	2828.03
570.706	2866.2
570.909	2862.91
571.111	2775.33
571.314	2796.64
571.516	2778.63
571.719	2822.03
571.922	2775.14
572.124	2815.83
572.327	2827.84
572.529	2833.84
572.732	2811.18
572.935	2860
573.137	2926.65
573.34	2855.74
573.542	2925.68
573.745	2926.07
573.947	2882.47
574.15	2885.57
574.352	2809.82
574.554	2916.19
574.757	2776.69
574.959	2802.26
575.162	2822.41
575.364	2747.82
575.566	2855.54
575.769	2736.39
575.971	2750.73
576.173	2655.4
576.376	2741.81
576.578	2815.24
576.78	2800.52
576.982	2663.54
577.185	2704.81
577.387	2728.06
577.589	2718.95
577.791	2758.28
577.993	2735.23
578.196	2703.06
578.398	2675.75
578.6	2703.06
578.802	2617.62
579.004	2655.21
579.206	2625.76
579.408	2695.7
579.61	2646.68
579.812	2698.8
580.014	2576.74
580.216	2636.61
580.418	2677.88
580.62	2621.69
580.822	2633.51
581.024	2617.43
581.226	2705.39
581.428	2626.15
581.63	2757.89
581.832	2663.73
582.034	2704.03
582.236	2655.21
582.438	2723.21
582.64	2733.87
582.841	2757.51
583.043	2811.37
583.245	2749.18
583.447	2716.43
583.649	2701.51
583.85	2705.78
584.052	2751.31
584.254	2630.99
584.456	2733.48
584.657	2652.88
584.859	2691.25
585.061	2638.93
585.262	2678.07
585.464	2641.26
585.666	2659.47
585.867	2597.08
586.069	2695.7
586.27	2607.35
586.472	2588.95
586.674	2541.29
586.875	2574.42
587.077	2597.47
587.278	2624.21
587.48	2587.59
587.681	2702.68
587.883	2612.97
588.084	2519
588.285	2545.16
588.487	2535.47
588.688	2582.75
588.89	2477.16
589.091	2407.21
589.292	2384.54
589.494	2355.68
589.695	2309.95
589.896	2244.08
590.098	2246.79
590.299	2286.7
590.5	2267.91
590.702	2313.63
590.903	2335.91
591.104	2408.57
591.305	2433.17
591.507	2477.35
591.708	2466.5
591.909	2432.79
592.11	2481.42
592.311	2479.67
592.512	2432.4
592.714	2401.59
592.915	2421.16
593.116	2407.79
593.317	2475.61
593.518	2430.85
593.719	2425.62
593.92	2469.02
594.121	2483.16
594.322	2457.78
594.523	2430.07
594.724	2379.7
594.925	2413.22
595.126	2433.37
595.327	2411.86
595.528	2437.05
595.729	2442.28
595.929	2402.95
596.13	2422.91
596.331	2420
596.532	2440.73
596.733	2478.9
596.934	2487.42
597.135	2502.15
597.335	2440.92
597.536	2381.44
597.737	2413.02
597.938	2404.89
598.138	2449.45
598.339	2444.41
598.54	2465.72
598.74	2413.8
598.941	2385.71
599.142	2455.65
599.342	2452.55
599.543	2407.02
599.744	2422.71
599.944	2403.14
600.145	2409.54
600.345	2428.14
600.546	2461.27
600.746	2455.84
600.947	2466.31
601.147	2376.02
601.348	2474.64
601.548	2384.16
601.749	2405.27
601.949	2362.46
602.15	2312.28
602.35	2333.98
602.551	2422.13
602.751	2334.36
602.951	2344.44
603.152	2289.8
603.352	2435.69
603.552	2370.01
603.753	2425.04
603.953	2434.34
604.153	2389
604.354	2379.51
604.554	2379.51
604.754	2438.6
604.954	2361.88
605.155	2410.51
605.355	2388.81
605.555	2429.3
605.755	2439.96
605.955	2376.21
606.155	2418.26
606.356	2409.73
606.556	2364.39
606.756	2409.92
606.956	2344.05
607.156	2414.96
607.356	2339.79
607.556	2369.82
607.756	2376.41
607.956	2437.44
608.156	2356.06
608.356	2315.96
608.556	2379.31
608.756	2316.34
608.956	2312.47
609.156	2340.95
609.356	2324.87
609.556	2261.13
609.755	2295.03
609.955	2298.71
610.155	2326.23
610.355	2300.85
610.555	2262.48
610.755	2264.23
610.954	2195.06
611.154	2308.98
611.354	2281.86
611.554	2276.05
611.753	2268.1
611.953	2199.32
612.153	2264.42
612.352	2271.59
612.552	2226.45
612.752	2152.24
612.951	2216.95
613.151	2255.12
613.351	2210.37
613.55	2192.54
613.75	2230.51
613.949	2198.93
614.149	2197.77
614.348	2178.4
614.548	2179.75
614.747	2116.2
614.947	2141.2
615.146	2117.75
615.346	2237.88
615.545	2186.34
615.745	2220.25
615.944	2206.49
616.144	2194.28
616.343	2200.29
616.542	2157.67
616.742	2150.3
616.941	2125.5
617.14	2059.82
617.34	2145.27
617.539	2126.28
617.738	2085.59
617.938	2212.3
618.137	2128.41
618.336	2074.55
618.535	2145.07
618.734	2179.56
618.934	2148.17
619.133	2152.05
619.332	2184.02
619.531	2091.4
619.73	2165.8
619.929	2191.96
620.128	2171.03
620.328	2180.92
620.527	2154.37
620.726	2157.47
620.925	2165.03
621.124	2165.22
621.323	2167.74
621.522	2098.19
621.721	2131.32
621.92	2101.48
622.119	2152.05
622.318	2076.68
622.517	2115.62
622.715	2114.46
622.914	2079.2
623.113	2108.45
623.312	1990.66
623.511	2145.65
623.71	2103.22
623.909	2023.4
624.107	2110.2
624.306	2044.32
624.505	2039.67
624.704	2021.66
624.902	2033.67
625.101	2109.62
625.3	2050.72
625.499	2010.81
625.697	2023.4
625.896	1985.04
626.095	2014.1
626.293	1946.48
626.492	1979.42
626.69	2025.53
626.889	2002.47
627.088	2043.36
627.286	1992.79
627.485	1996.27
627.683	1961.79
627.882	1993.95
628.08	1928.46
628.279	1956.36
628.477	1990.85
628.676	1906.57
628.874	1977.48
629.073	1897.08
629.271	1916.84
629.469	1971.86
629.668	1930.98
629.866	1936.02
630.065	1888.16
630.263	1952.88
630.461	1917.61
630.66	1943.19
630.858	1957.91
631.056	1981.94
631.254	1998.21
631.453	1910.44
631.651	1981.94
631.849	1881.38
632.047	1936.6
632.245	1915.09
632.444	1929.82
632.642	1950.36
632.84	1939.51
633.038	1902.5
633.236	1877.7
633.434	1868.6
633.632	1885.06
633.83	1896.3
634.028	1952.1
634.227	1896.3
634.425	2015.07
634.623	1884.68
634.821	1896.3
635.019	1924.78
635.216	1887.19
635.414	1942.61
635.612	1927.49
635.81	1899.79
636.008	1966.24
636.206	1896.69
636.404	1911.8
636.602	1881.19
636.8	1895.72
636.997	1918.39
637.195	1962.76
637.393	1918.39
637.591	1995.89
637.789	1949.19
637.986	1906.18
638.184	1898.82
638.382	2005.57
638.58	1951.52
638.777	1974.19
638.975	1924.78
639.173	1918.58
639.37	1936.79
639.568	1939.7
639.765	1971.86
639.963	1880.99
640.161	1914.9
640.358	1947.26
640.556	1845.93
640.753	1865.5
640.951	1817.25
641.148	1869.18
641.346	1857.75
641.543	1881.96
641.741	1878.86
641.938	1841.08
642.136	1823.65
642.333	1780.05
642.531	1866.08
642.728	1905.99
642.925	1873.63
643.123	1835.85
643.32	1872.66
643.517	1821.71
643.715	1842.83
643.912	1823.06
644.109	1811.83
644.306	1825.58
644.504	1793.42
644.701	1836.63
644.898	1860.26
645.095	1824.23
645.293	1813.38
645.49	1858.13
645.687	1832.17
645.884	1862.78
646.081	1748.08
646.278	1798.85
646.475	1766.1
646.672	1808.15
646.87	1793.23
647.067	1777.73
647.264	1789.74
647.461	1738.01
647.658	1664.77
647.855	1774.82
648.052	1750.02
648.249	1681.05
648.446	1710.69
648.642	1739.75
648.839	1688.99
649.036	1696.94
649.233	1661.87
649.43	1664.19
649.627	1648.89
649.824	1668.84
650.021	1660.7
650.217	1645.59
650.414	1651.6
650.611	1685.7
650.808	1718.05
651.004	1739.95
651.201	1738.98
651.398	1786.83
651.595	1728.52
651.791	1682.4
651.988	1736.65
652.185	1663.03
652.381	1718.25
652.578	1629.9
652.775	1701
652.971	1671.94
653.168	1699.84
653.364	1695.19
653.561	1649.66
653.757	1667.1
653.954	1695
654.15	1629.51
654.347	1784.51
654.543	1692.87
654.74	1628.93
654.936	1638.23
655.133	1627.19
655.329	1670.59
655.525	1625.05
655.722	1666.9
655.918	1604.13
656.115	1593.86
656.311	1474.32
656.507	1403.99
656.704	1366.21
656.9	1407.67
657.096	1439.64
657.292	1431.7
657.489	1489.04
657.685	1520.63
657.881	1516.56
658.077	1516.17
658.273	1545.23
658.47	1656.64
658.666	1552.4
658.862	1611.49
659.058	1563.06
659.254	1646.75
659.45	1593.67
659.646	1628.15
659.842	1607.81
660.038	1660.7
660.234	1594.83
660.43	1601.42
660.626	1687.25
660.822	1657.6
661.018	1660.32
661.214	1619.82
661.41	1578.75
661.606	1700.04
661.802	1686.09
661.998	1626.8
662.194	1609.36
662.39	1636.1
662.586	1639.78
662.781	1643.65
662.977	1641.33
663.173	1662.45
663.369	1635.13
663.564	1618.47
663.76	1639.59
663.956	1611.3
664.152	1630.87
664.347	1545.04
664.543	1622.54
664.739	1603.36
664.934	1532.44
665.13	1569.84
665.326	1628.35
665.521	1617.11
665.717	1574.68
665.912	1552.98
666.108	1509
666.304	1558.6
666.499	1577.97
666.695	1494.28
666.89	1591.34
667.086	1602.58
667.281	1577.78
667.477	1639
667.672	1584.95
667.867	1598.12
668.063	1591.92
668.258	1538.26
668.454	1593.86
668.649	1633
668.844	1610.14
669.04	1606.26
669.235	1561.51
669.43	1549.3
669.626	1494.08
669.821	1550.27
670.016	1502.61
670.211	1567.71
670.407	1524.5
670.602	1579.72
670.797	1558.41
670.992	1614.4
671.187	1522.37
671.382	1593.67
671.578	1510.36
671.773	1555.89
671.968	1496.41
672.163	1514.23
672.358	1539.42
672.553	1475.48
672.748	1492.73
672.943	1579.52
673.138	1523.92
673.333	1536.9
673.528	1494.47
673.723	1537.29
673.918	1512.68
674.113	1488.08
674.308	1573.91
674.503	1552.79
674.698	1585.14
674.892	1502.8
675.087	1528.38
675.282	1533.41
675.477	1506.68
675.672	1519.85
675.867	1481.29
676.061	1459.98
676.256	1421.43
676.451	1489.24
676.646	1524.31
676.84	1463.28
677.035	1471.22
677.23	1454.17
677.424	1473.74
677.619	1563.64
677.814	1503.38
678.008	1539.03
678.203	1458.43
678.397	1462.69
678.592	1519.27
678.787	1529.73
678.981	1461.92
679.176	1498.73
679.37	1473.35
679.565	1459.98
679.759	1489.63
679.954	1501.25
680.148	1514.62
680.342	1540.58
680.537	1516.75
680.731	1463.08
680.926	1492.73
681.12	1509
681.314	1441.38
681.509	1454.36
681.703	1490.79
681.897	1470.44
682.092	1493.5
682.286	1463.86
682.48	1500.28
682.674	1498.54
682.869	1484.59
683.063	1479.55
683.257	1527.99
683.451	1425.69
683.645	1462.69
683.839	1438.86
684.034	1437.9
684.228	1490.79
684.422	1382.68
684.616	1387.13
684.81	1458.24
685.004	1402.44
685.198	1424.33
685.392	1457.46
685.586	1417.55
685.78	1405.54
685.974	1451.26
686.168	1448.16
686.362	1495.83
686.556	1325.91
686.75	1312.15
686.944	1284.25
687.138	1261.59
687.331	1163.94
687.525	1183.12
687.719	1080.04
687.913	1187.19
688.107	1172.27
688.301	1141.46
688.494	1179.82
688.688	1157.16
688.882	1144.76
689.076	1143.21
689.269	1162.97
689.463	1257.13
689.657	1221.48
689.85	1209.47
690.044	1185.25
690.238	1174.59
690.431	1222.64
690.625	1188.93
690.818	1201.14
691.012	1232.33
691.205	1271.08
691.399	1225.35
691.593	1246.86
691.786	1329.2
691.98	1322.81
692.173	1298.98
692.366	1259.07
692.56	1341.41
692.753	1344.32
692.947	1265.65
693.14	1323.58
693.333	1330.56
693.527	1265.27
693.72	1334.24
693.914	1270.3
694.107	1290.84
694.3	1287.93
694.493	1285.8
694.687	1335.79
694.88	1282.12
695.073	1337.53
695.266	1308.28
695.46	1349.74
695.653	1360.78
695.846	1356.91
696.039	1270.69
696.232	1321.65
696.425	1371.25
696.618	1368.34
696.812	1364.85
697.005	1445.45
697.198	1485.36
697.391	1398.18
697.584	1458.43
697.777	1500.86
697.97	1475.09
698.163	1478.97
698.356	1448.55
698.549	1533.22
698.742	1517.53
698.935	1457.08
699.127	1507.45
699.32	1477.81
699.513	1453.98
699.706	1512.68
699.899	1526.05
700.092	1469.67
700.285	1550.46
700.477	1472.58
700.67	1532.64
700.863	1555.5
701.056	1649.08
701.248	1573.52
701.441	1624.86
701.634	1531.47
701.826	1669.62
702.019	1545.81
702.212	1611.11
702.404	1552.4
702.597	1595.8
702.79	1620.21
702.982	1631.25
703.175	1679.5
703.367	1694.8
703.56	1704.88
703.752	1815.9
703.945	1764.55
704.137	1772.3
704.33	1801.75
704.522	1774.24
704.715	1842.63
704.907	1830.43
705.1	1872.08
705.292	1916.84
705.484	1871.5
705.677	1911.22
705.869	1932.34
706.061	1983.68
706.254	2014.68
706.446	2012.55
706.638	1933.89
706.831	2080.17
707.023	1978.06
707.215	2147.01
707.407	2061.18
707.599	2093.54
707.792	2121.63
707.984	2123.18
708.176	2163.87
708.368	2132.09
708.56	2176.46
708.752	2163.87
708.944	2150.11
709.136	2223.54
709.329	2179.95
709.521	2310.92
709.713	2280.89
709.905	2313.44
710.097	2341.73
710.289	2312.47
710.481	2311.5
710.672	2351.03
710.864	2370.98
711.056	2460.69
711.248	2422.71
711.44	2430.46
711.632	2425.42
711.824	2442.09
712.016	2522.88
712.207	2489.36
712.399	2525.98
712.591	2553.3
712.783	2551.94
712.975	2585.46
713.166	2536.44
713.358	2588.37
713.55	2633.7
713.741	2677.68
713.933	2681.17
714.125	2655.79
714.316	2637.58
714.508	2719.34
714.7	2722.63
714.891	2676.13
715.083	2761.38
715.274	2727.28
715.466	2796.26
715.657	2820.48
715.849	2734.65
716.04	2768.74
716.232	2726.7
716.423	2758.28
716.615	2722.05
716.806	2698.41
716.998	2679.43
717.189	2599.6
717.381	2472.89
717.572	2466.5
717.763	2500.79
717.955	2480.64
718.146	2442.28
718.337	2401.4
718.528	2385.71
718.72	2303.56
718.911	2365.56
719.102	2286.51
719.293	2388.03
719.485	2368.08
719.676	2334.36
719.867	2287.28
720.058	2335.14
720.249	2347.54
720.44	2345.99
720.632	2422.71
720.823	2472.51
721.014	2594.76
721.205	2622.08
721.396	2696.28
721.587	2817.18
721.778	2872.01
721.969	2945.05
722.16	2960.17
722.351	2997.95
722.542	3152.95
722.733	3165.54
722.924	3076.42
723.115	3151.4
723.305	3099.28
723.496	3146.55
723.687	2961.14
723.878	2997.95
724.069	3025.27
724.26	3008.99
724.45	2934.2
724.641	2920.06
724.832	3027.98
725.023	2966.95
725.213	3015.97
725.404	2965.01
725.595	2978.96
725.785	2967.53
725.976	3085.72
726.167	3040.77
726.357	3067.5
726.548	3178.71
726.739	3103.73
726.929	3219.4
727.12	3200.99
727.31	3297.29
727.501	3214.36
727.691	3191.5
727.882	3244.2
728.072	3313.37
728.263	3284.11
728.453	3322.28
728.644	3361.42
728.834	3298.64
729.024	3261.64
729.215	3304.46
729.405	3338.94
729.596	3440.85
729.786	3397.65
729.976	3486
730.167	3434.65
730.357	3410.63
730.547	3480.96
730.737	3510.02
730.928	3562.14
731.118	3575.9
731.308	3568.34
731.498	3584.23
731.688	3654.17
731.879	3668.7
732.069	3747.56
732.259	3772.16
732.449	3779.72
732.639	3889.18
732.829	3893.64
733.019	3968.23
733.209	4063.56
733.399	4054.45
733.589	4104.44
733.779	4144.16
733.969	4102.31
734.159	4217.78
734.349	4250.52
734.539	4299.54
734.729	4255.17
734.919	4322.02
735.109	4420.63
735.299	4300.9
735.488	4373.55
735.678	4341.58
735.868	4370.26
736.058	4380.72
736.248	4344.88
736.437	4310
736.627	4312.33
736.817	4447.18
737.007	4404.94
737.196	4485.93
737.386	4483.02
737.576	4404.36
737.765	4501.81
737.955	4476.43
738.144	4604.89
738.334	4597.14
738.524	4510.73
738.713	4561.68
738.903	4520.41
739.092	4558.78
739.282	4558
739.471	4597.33
739.661	4539.21
739.85	4641.12
740.04	4665.92
740.229	4654.49
740.419	4684.32
740.608	4703.31
740.797	4683.16
740.987	4726.37
741.176	4712.42
741.365	4683.74
741.555	4644.41
741.744	4765.7
741.933	4691.49
742.123	4722.49
742.312	4834.28
742.501	4825.18
742.69	4826.53
742.88	4720.75
743.069	4825.95
743.258	4806.97
743.447	4873.03
743.636	4836.61
743.825	4773.45
744.014	4842.03
744.204	4870.13
744.393	4823.43
744.582	4979.98
744.771	5030.74
744.96	4895.31
745.149	4947.82
745.338	4890.86
745.527	4973.01
745.716	4938.91
745.905	4856.37
746.094	4947.24
746.283	4970.29
746.471	4920.11
746.66	5047.99
746.849	4991.61
747.038	4971.26
747.227	4924.76
747.416	5012.14
747.604	4926.7
747.793	4948.98
747.982	4992.38
748.171	5000.71
748.359	5004.01
748.548	4959.25
748.737	4941.04
748.926	4950.53
749.114	4866.45
749.303	5006.53
749.491	4921.28
749.68	4898.22
749.869	4965.06
750.057	4935.61
750.246	4885.43
750.434	4899.96
750.623	4964.87
750.811	4899.19
751	4952.28
751.188	4929.8
751.377	4940.65
751.565	4899.96
751.754	4847.65
751.942	4831.57
752.131	4933.29
752.319	4843
752.507	4821.3
752.696	4916.43
752.884	4906.16
753.072	4857.34
753.261	4934.26
753.449	4869.35
753.637	4831.18
753.825	4973.98
754.014	4895.7
754.202	4912.75
754.39	4924.38
754.578	4933.68
754.766	4833.51
754.955	4806.38
755.143	4919.34
755.331	4837.77
755.519	4905.39
755.707	4839.52
755.895	4841.07
756.083	4853.27
756.271	4796.12
756.459	4846.1
756.647	4833.9
756.835	4761.44
757.023	4767.44
757.211	4734.12
757.399	4751.55
757.587	4770.15
757.775	4689.36
757.963	4715.32
758.151	4765.89
758.339	4612.25
758.526	4674.83
758.714	4713.97
758.902	4651.39
759.09	4491.35
759.278	4319.89
759.465	4067.24
759.653	3631.5
759.841	3361.61
760.028	2925.49
760.216	2598.44
760.404	2422.71
760.591	2076.68
760.779	1819
760.967	1657.6
761.154	1498.54
761.342	1516.17
761.529	1529.73
761.717	1641.91
761.905	1634.74
762.092	1765.33
762.28	1743.82
762.467	1764.75
762.655	1694.03
762.842	1744.98
763.029	1820.93
763.217	1806.4
763.404	1782.18
763.592	1846.31
763.779	1804.27
763.966	1885.64
764.154	1941.25
764.341	1997.24
764.528	1993.37
764.716	2118.34
764.903	2153.21
765.09	2252.41
765.277	2306.08
765.465	2468.24
765.652	2540.9
765.839	2615.3
766.026	2779.21
766.213	2823.38
766.4	2946.6
766.588	3162.25
766.775	3189.95
766.962	3278.3
767.149	3378.27
767.336	3581.71
767.523	3492.58
767.71	3622.98
767.897	3737.29
768.084	3851.4
768.271	3842.88
768.458	3897.13
768.645	3970.75
768.832	3942.47
769.019	4028.3
769.206	4048.83
769.392	4108.89
769.579	4227.66
769.766	4160.43
769.953	4152.1
770.14	4178.26
770.327	4151.71
770.513	4210.61
770.7	4286.75
770.887	4210.22
771.073	4233.86
771.26	4268.15
771.447	4182.71
771.634	4134.28
771.82	4305.74
772.007	4196.86
772.193	4258.66
772.38	4231.34
772.567	4218.17
772.753	4169.15
772.94	4271.06
773.126	4236.38
773.313	4277.07
773.499	4190.66
773.686	4283.65
773.872	4169.54
774.059	4241.42
774.245	4179.81
774.432	4183.29
774.618	4100.56
774.804	4124.59
774.991	4111.41
775.177	4142.41
775.363	4099.01
775.55	4142.03
775.736	4112.96
775.922	4128.46
776.109	4124.01
776.295	4115.68
776.481	4133.5
776.667	4141.64
776.853	4072.28
777.04	4090.29
777.226	4088.16
777.412	4161.59
777.598	4008.53
777.784	4039.34
777.97	4055.81
778.156	4007.56
778.342	4048.64
778.528	4029.07
778.715	3919.41
778.901	3974.05
779.087	4046.12
779.272	3997.88
779.458	3980.05
779.644	3972.69
779.83	3953.32
780.016	4024.61
780.202	3947.31
780.388	3933.17
780.574	3801.03
780.76	3873.3
780.946	3924.64
781.131	3912.43
781.317	3842.1
781.503	3851.99
781.689	3896.35
781.874	3976.18
782.06	3823.5
782.246	3855.86
782.432	3842.1
782.617	3876.2
782.803	3879.89
782.989	3795.8
783.174	3759.96
783.36	3764.02
783.545	3817.89
783.731	3778.75
783.916	3696.41
784.102	3782.04
784.288	3700.86
784.473	3754.14
784.659	3699.89
784.844	3787.47
785.029	3717.72
785.215	3680.71
785.4	3679.55
785.586	3763.25
785.771	3645.45
785.956	3674.32
786.142	3661.34
786.327	3668.31
786.512	3668.51
786.698	3631.69
786.883	3573.96
787.068	3658.63
787.254	3644.09
787.439	3630.14
787.624	3585.2
787.809	3583.06
787.994	3501.3
788.18	3638.86
788.365	3492.2
788.55	3542.57
788.735	3598.76
788.92	3497.82
789.105	3535.98
789.29	3549.35
789.475	3448.22
789.66	3499.37
789.845	3456.16
790.03	3416.05
790.215	3487.55
790.4	3511.18
790.585	3535.21
790.77	3407.92
790.955	3376.14
791.14	3431.94
791.325	3473.6
791.51	3329.06
791.695	3433.49
791.879	3385.44
792.064	3330.03
792.249	3410.24
792.434	3355.61
792.618	3368.78
792.803	3452.87
792.988	3356.77
793.173	3383.31
793.357	3424.58
793.542	3344.17
793.727	3385.05
793.911	3346.31
794.096	3377.11
794.281	3388.54
794.465	3523.58
794.65	3374.59
794.834	3414.89
795.019	3421.48
795.203	3432.33
795.388	3451.7
795.572	3467.2
795.757	3433.3
795.941	3449.38
796.126	3412.95
796.31	3378.27
796.494	3463.91
796.679	3394.55
796.863	3408.5
797.048	3490.26
797.232	3426.52
797.416	3487.93
797.601	3431.55
797.785	3491.62
797.969	3493.75
798.153	3463.13
798.338	3483.28
798.522	3501.3
798.706	3529.2
798.89	3504.6
799.074	3581.13
799.258	3566.6
799.443	3487.93
799.627	3469.33
799.811	3545.48
799.995	3470.88
800.179	3474.76
800.363	3451.51
800.547	3468.75
800.731	3506.73
800.915	3435.24
801.099	3424.39
801.283	3442.4
801.467	3459.65
801.651	3412.57
801.835	3522.03
802.019	3494.13
802.202	3476.89
802.386	3355.22
802.57	3405.59
802.754	3416.83
802.938	3428.26
803.121	3419.35
803.305	3458.29
803.489	3422.84
803.673	3468.75
803.856	3433.49
804.04	3453.83
804.224	3464.3
804.407	3454.8
804.591	3446.67
804.775	3416.05
804.958	3446.86
805.142	3501.69
805.326	3370.91
805.509	3451.9
805.693	3496.65
805.876	3479.99
806.06	3454.22
806.243	3469.33
806.427	3475.73
806.61	3510.6
806.794	3417.41
806.977	3482.7
807.16	3502.85
807.344	3469.33
807.527	3451.12
807.71	3413.34
807.894	3433.69
808.077	3450.74
808.26	3443.95
808.444	3390.29
808.627	3505.95
808.81	3363.36
808.993	3352.89
809.177	3278.69
809.36	3393.19
809.543	3358.12
809.726	3264.35
809.909	3229.28
810.092	3262.8
810.276	3258.73
810.459	3268.61
810.642	3224.24
810.825	3175.23
811.008	3216.3
811.191	3122.53
811.374	3162.83
811.557	3148.3
811.74	3203.9
811.923	3068.28
812.106	3090.37
812.289	3063.63
812.472	3062.47
812.654	3062.27
812.837	3031.47
813.02	2960.36
813.203	2954.16
813.386	2836.56
813.569	2818.54
813.751	2764.87
813.934	2813.69
814.117	2759.06
814.3	2684.46
814.482	2659.67
814.665	2638.74
814.848	2558.53
815.03	2558.34
815.213	2507.77
815.396	2512.61
815.578	2439.57
815.761	2428.91
815.943	2472.7
816.126	2379.12
816.309	2323.13
816.491	2261.13
816.674	2200.1
816.856	2247.95
817.039	2254.35
817.221	2316.54
817.403	2288.64
817.586	2273.53
817.768	2307.05
817.951	2228.58
818.133	2212.11
818.315	2252.02
818.498	2296.97
818.68	2317.51
818.862	2300.26
819.045	2353.93
819.227	2315.38
819.409	2300.85
819.591	2332.23
819.774	2258.22
819.956	2260.74
820.138	2339.4
820.32	2323.13
820.502	2390.16
820.684	2443.25
820.866	2460.3
821.048	2558.92
821.231	2498.08
821.413	2526.17
821.595	2479.09
821.777	2496.14
821.959	2472.7
822.141	2579.07
822.323	2443.25
822.505	2338.04
822.686	2275.46
822.868	2199.32
823.05	2073.58
823.232	2051.69
823.414	1967.21
823.596	2019.33
823.778	2036.19
823.96	2066.41
824.141	2067.19
824.323	2106.71
824.505	2182.85
824.687	2239.81
824.868	2247.95
825.05	2373.69
825.232	2426.01
825.413	2493.24
825.595	2454.1
825.777	2387.45
825.958	2385.13
826.14	2397.53
826.321	2436.86
826.503	2379.51
826.685	2409.73
826.866	2474.83
827.048	2457.39
827.229	2362.07
827.411	2380.48
827.592	2299.49
827.773	2298.71
827.955	2219.67
828.136	2272.56
828.318	2211.53
828.499	2239.23
828.68	2174.13
828.862	2209.78
829.043	2231.1
829.224	2198.93
829.406	2161.15
829.587	2170.26
829.768	2172.97
829.949	2158.83
830.131	2173.55
830.312	2242.33
830.493	2185.76
830.674	2199.71
830.855	2208.43
831.036	2184.02
831.218	2265.39
831.399	2284.57
831.58	2184.6
831.761	2157.47
831.942	2221.22
832.123	2180.33
832.304	2156.5
832.485	2126.09
832.666	2206.49
832.847	2190.41
833.028	2139.45
833.209	2158.83
833.389	2159.02
833.57	2083.65
833.751	2113.88
833.932	2187.89
834.113	2195.45
834.294	2156.5
834.475	2209.78
834.655	2193.12
834.836	2225.67
835.017	2224.12
835.198	2134.22
835.378	2187.31
835.559	2252.8
835.74	2184.21
835.92	2186.53
836.101	2131.7
836.281	2228.77
836.462	2203.2
836.643	2233.03
836.823	2269.85
837.004	2232.65
837.184	2306.46
837.365	2233.23
837.545	2258.8
837.726	2239.43
837.906	2301.23
838.087	2229.93
838.267	2232.06
838.448	2166.77
838.628	2240.98
838.808	2191.18
838.989	2267.33
839.169	2204.55
839.349	2235.55
839.53	2215.02
839.71	2240.2
839.89	2176.65
840.07	2263.65
840.251	2207.65
840.431	2257.64
840.611	2227.61
840.791	2136.35
840.971	2237.49
841.151	2226.83
841.332	2219.86
841.512	2191.57
841.692	2166.19
841.872	2187.31
842.052	2191.18
842.232	2229.35
842.412	2125.12
842.592	2169.1
842.772	2181.11
842.952	2181.11
843.132	2170.07
843.312	2102.84
843.492	2120.85
843.672	2192.15
843.851	2048.78
844.031	2128.02
844.211	2155.34
844.391	2099.54
844.571	2114.65
844.751	2139.45
844.93	2146.04
845.11	2084.43
845.29	2153.6
845.47	2119.89
845.649	2086.95
845.829	2105.74
846.009	2095.67
846.188	2151.08
846.368	2125.31
846.547	2103.42
846.727	2138.87
846.907	2019.14
847.086	2110.97
847.266	2117.75
847.445	2073.39
847.625	2070.48
847.804	2057.5
847.984	2096.25
848.163	2016.62
848.343	2022.82
848.522	2069.12
848.701	2061.18
848.881	2039.09
849.06	2053.04
849.239	2077.26
849.419	2060.99
849.598	1953.65
849.777	1976.51
849.957	1913.35
850.136	1847.48
850.315	1854.84
850.494	1875.57
850.674	1892.04
850.853	1912.38
851.032	1876.54
851.211	1952.1
851.39	1920.91
851.569	1851.35
851.748	1873.44
851.927	1911.61
852.107	1891.46
852.286	1884.29
852.465	1846.12
852.644	1946.87
852.823	1936.41
853.002	1873.05
853.181	1908.31
853.359	1912.96
853.538	1835.08
853.717	1903.47
853.896	1787.61
854.075	1705.85
854.254	1664
854.433	1580.49
854.611	1608.2
854.79	1566.54
854.969	1661.09
855.148	1681.82
855.327	1641.91
855.505	1691.9
855.684	1681.82
855.863	1728.71
856.041	1709.14
856.22	1765.91
856.399	1682.6
856.577	1849.22
856.756	1804.46
856.934	1897.46
857.113	1908.31
857.291	1859.1
857.47	1767.85
857.648	1807.56
857.827	1840.11
858.005	1873.44
858.184	1773.27
858.362	1897.85
858.541	1802.72
858.719	1827.71
858.898	1796.52
859.076	1775.98
859.254	1834.3
859.433	1794.39
859.611	1741.11
859.789	1729.1
859.967	1792.06
860.146	1807.76
860.324	1752.73
860.502	1749.83
860.68	1753.7
860.859	1728.9
861.037	1754.48
861.215	1746.53
861.393	1721.54
861.571	1714.37
861.749	1732.58
861.927	1730.84
862.105	1781.99
862.283	1749.25
862.461	1695.19
862.639	1726.19
862.817	1726.97
862.995	1713.6
863.173	1720.18
863.351	1678.53
863.529	1677.95
863.707	1733.94
863.885	1698.49
864.063	1641.91
864.241	1635.71
864.418	1716.31
864.596	1671.17
864.774	1628.15
864.952	1633.77
865.129	1641.72
865.307	1613.62
865.485	1599.87
865.663	1652.37
865.84	1541.16
866.018	1544.46
866.196	1452.81
866.373	1460.18
866.551	1410.19
866.728	1373.57
866.906	1373.57
867.084	1432.86
867.261	1478
867.439	1506.29
867.616	1537.87
867.794	1468.51
867.971	1524.11
868.149	1517.33
868.326	1585.34
868.503	1561.89
868.681	1513.07
868.858	1527.6
869.035	1496.21
869.213	1547.94
869.39	1522.37
869.567	1608.78
869.745	1544.65
869.922	1549.3
870.099	1557.44
870.276	1547.36
870.454	1545.62
870.631	1535.93
870.808	1518.49
870.985	1552.21
871.162	1586.69
871.339	1551.82
871.517	1435.76
871.694	1476.26
871.871	1491.18
872.048	1488.08
872.225	1514.62
872.402	1530.51
872.579	1480.71
872.756	1512.88
872.933	1445.26
873.11	1466.76
873.287	1484.39
873.463	1449.91
873.64	1438.28
873.817	1475.48
873.994	1459.59
874.171	1429.56
874.348	1460.76
874.524	1373.57
874.701	1461.53
874.878	1397.01
875.055	1431.11
875.231	1415.61
875.408	1442.93
875.585	1393.91
875.762	1428.98
875.938	1383.06
876.115	1389.65
876.291	1360.01
876.468	1414.06
876.645	1339.86
876.821	1377.64
876.998	1347.03
877.174	1402.25
877.351	1395.46
877.527	1321.65
877.704	1385.78
877.88	1353.23
878.057	1352.65
878.233	1428.4
878.409	1361.36
878.586	1378.61
878.762	1324.75
878.938	1332.5
879.115	1304.21
879.291	1329.01
879.467	1246.67
879.644	1299.95
879.82	1348.77
879.996	1302.47
880.172	1267.98
880.349	1330.37
880.525	1341.02
880.701	1234.07
880.877	1281.15
881.053	1308.67
881.229	1278.05
881.405	1321.65
881.581	1270.11
881.757	1273.4
881.933	1302.85
882.109	1314.09
882.285	1286.19
882.461	1209.08
882.637	1301.11
882.813	1217.02
882.989	1269.53
883.165	1335.02
883.341	1275.92
883.517	1330.75
883.693	1307.12
883.869	1314.09
884.044	1254.61
884.22	1293.75
884.396	1344.51
884.572	1275.15
884.747	1295.1
884.923	1334.05
885.099	1322.42
885.275	1373.57
885.45	1285.61
885.626	1234.65
885.801	1268.95
885.977	1270.88
886.153	1220.7
886.328	1288.13
886.504	1238.72
886.679	1280.57
886.855	1245.5
887.03	1271.27
887.206	1314.87
887.381	1255.58
887.557	1296.27
887.732	1272.43
887.908	1312.35
888.083	1298.78
888.258	1269.33
888.434	1246.28
888.609	1242.21
888.784	1324.17
888.96	1288.13
889.135	1271.66
889.31	1223.42
889.485	1276.7
889.661	1268.75
889.836	1290.07
890.011	1296.27
890.186	1276.7
890.361	1254.03
890.537	1296.46
890.712	1302.08
890.887	1283.09
891.062	1283.67
891.237	1329.59
891.412	1248.41
891.587	1295.68
891.762	1320.87
891.937	1317.77
892.112	1203.27
892.287	1237.56
892.462	1211.79
892.637	1163.16
892.812	1169.56
892.987	1190.87
893.161	1178.47
893.336	1186.8
893.511	1174.01
893.686	1191.25
893.861	1206.95
894.035	1164.32
894.21	1186.22
894.385	1142.62
894.56	1206.95
894.734	1094.38
894.909	1133.13
895.084	1124.99
895.258	1082.95
895.433	1096.32
895.608	1074.04
895.782	1025.79
895.957	1067.84
896.131	1029.28
896.306	955.08
896.48	964.38
896.655	982.2
896.829	914.58
897.004	949.26
897.178	911.29
897.353	907.42
897.527	966.12
897.701	935.12
897.876	873.51
898.05	969.61
898.224	951.01
898.399	984.72
898.573	921.95
898.747	794.65
898.921	873.7
899.096	734.59
899.27	752.22
899.444	767.92
899.618	809.77
899.792	818.68
899.967	824.49
900.141	855.88
900.315	763.85
900.489	801.24
900.663	831.47
900.837	792.14
901.011	753.77
901.185	894.63
901.359	822.17
901.533	859.75
901.707	843.09
901.881	804.92
902.055	772.37
902.229	774.7
902.403	870.41
902.576	830.3
902.75	839.22
902.924	946.16
903.098	887.27
903.272	905.67
903.446	991.7
903.619	963.21
903.793	961.47
903.967	941.32
904.14	981.81
904.314	991.7
904.488	997.9
904.661	985.88
904.835	979.1
905.009	1038.97
905.182	1058.54
905.356	997.7
905.529	1011.84
905.703	958.56
905.876	950.43
906.05	914.78
906.223	911.48
906.397	817.9
906.57	804.73
906.744	822.94
906.917	844.83
907.09	807.05
907.264	816.35
907.437	769.27
907.61	745.64
907.784	767.72
907.957	784.77
908.13	731.69
908.304	773.54
908.477	682.67
908.65	783.42
908.823	717.74
908.996	769.85
909.17	722.39
909.343	706.5
909.516	716.96
909.689	699.52
909.862	703.98
910.035	713.28
910.208	683.64
910.381	697.2
910.554	802.02
910.727	706.31
910.9	713.47
911.073	690.61
911.246	780.51
911.419	750.87
911.592	760.17
911.765	711.54
911.938	687.12
912.11	695.65
912.283	705.14
912.456	765.2
912.629	734.4
912.802	694.49
912.974	658.26
913.147	625.9
913.32	570.29
913.493	614.28
913.665	640.43
913.838	625.32
914.01	586.76
914.183	619.12
914.356	629
914.528	682.67
914.701	709.21
914.873	686.16
915.046	633.07
915.218	574.17
915.391	552.86
915.563	548.01
915.736	594.32
915.908	610.59
916.081	619.89
916.253	614.08
916.425	650.31
916.598	652.06
916.77	628.61
916.942	622.41
917.115	555.18
917.287	621.83
917.459	574.56
917.632	560.8
917.804	539.88
917.976	558.48
918.148	591.22
918.32	573.78
918.493	629.97
918.665	676.47
918.837	644.11
919.009	694.29
919.181	657.29
919.353	632.29
919.525	644.5
919.697	644.5
919.869	641.21
920.041	691.39
920.213	742.34
920.385	691.77
920.557	668.72
920.729	659.22
920.901	665.42
921.073	652.83
921.244	654.77
921.416	660.97
921.588	614.86
921.76	600.91
921.932	698.56
922.103	617.96
922.275	650.89
922.447	637.91
922.619	558.28
922.79	638.69
922.962	608.66
923.134	631.52
923.305	581.53
923.477	557.31
923.648	536
923.82	566.61
923.991	533.87
924.163	510.62
924.335	570.68
924.506	549.37
924.677	609.63
924.849	538.33
925.02	545.88
925.192	581.92
925.363	556.15
925.535	563.9
925.706	538.71
925.877	606.91
926.049	505.39
926.22	562.55
926.391	558.86
926.562	577.66
926.734	516.43
926.905	567.78
927.076	494.35
927.247	531.93
927.419	493.57
927.59	504.03
927.761	494.35
927.932	457.92
928.103	491.25
928.274	424.79
928.445	427.7
928.616	443.97
928.787	396.89
928.958	434.67
929.129	441.45
929.3	423.82
929.471	384.3
929.642	317.45
929.813	275.99
929.984	366.86
930.155	269.79
930.326	344.39
930.496	294.21
930.667	237.24
930.838	293.82
931.009	247.71
931.18	268.05
931.35	231.82
931.521	253.52
931.692	177.96
931.863	157.81
932.033	214.58
932.204	200.82
932.374	189.97
932.545	152.77
932.716	209.34
932.886	191.71
933.057	102.98
933.227	141.92
933.398	210.12
933.568	118.86
933.739	65.58
933.909	121
934.08	149.86
934.25	67.33
934.421	72.95
934.591	133.2
934.761	96.58
934.932	71.59
935.102	136.11
935.272	113.63
935.443	123.13
935.613	74.11
935.783	122.74
935.953	85.73
936.123	243.83
936.294	68.1
936.464	98.91
936.634	107.63
936.804	43.3
936.974	41.56
937.144	116.15
937.314	89.22
937.484	85.73
937.655	89.22
937.825	135.33
937.995	58.03
938.165	108.21
938.334	112.86
938.504	140.95
938.674	129.71
938.844	139.79
939.014	188.81
939.184	167.11
939.354	239.57
939.524	210.31
939.694	170.79
939.863	157.03
940.033	232.59
940.203	239.96
940.373	205.28
940.542	213.22
940.712	167.88
940.882	191.52
941.051	214.58
941.221	193.07
941.391	194.81
941.56	185.32
941.73	146.76
941.899	265.92
942.069	157.42
942.238	215.54
942.408	142.11
942.577	185.13
942.747	139.4
942.916	115.38
943.086	116.93
943.255	184.74
943.425	160.71
943.594	126.81
943.763	70.43
943.933	94.45
944.102	70.43
944.271	133.01
944.441	145.41
944.61	112.28
944.779	125.06
944.948	223.68
945.117	87.48
945.287	117.31
945.456	63.06
945.625	87.48
945.794	118.67
945.963	96.78
946.132	133.98
946.301	127.39
946.47	173.89
946.639	56.67
946.808	109.76
946.977	124.87
947.146	167.49
947.315	119.64
947.484	145.41
947.653	85.73
947.822	106.08
947.991	79.73
948.16	177.76
948.329	164.78
948.498	128.16
948.666	124.87
948.835	187.64
949.004	96.97
949.173	109.56
949.341	124.1
949.51	132.04
949.679	141.14
949.847	154.71
950.016	190.94
950.185	182.99
950.353	102.2
950.522	121.58
950.69	199.08
950.859	115.57
951.028	198.69
951.196	126.81
951.365	150.44
951.533	103.56
951.701	135.53
951.87	156.84
952.038	66.16
952.207	106.66
952.375	187.06
952.543	112.08
952.712	108.01
952.88	128.94
953.048	188.03
953.217	148.7
953.385	132.81
953.553	196.17
953.721	76.43
953.89	119.83
954.058	71.59
954.226	91.16
954.394	138.24
954.562	77.01
954.73	131.07
954.898	112.66
955.067	168.66
955.235	81.28
955.403	151.41
955.571	171.56
955.739	153.35
955.907	84.38
956.075	112.47
956.243	106.08
956.41	104.91
956.578	67.52
956.746	88.45
956.914	91.55
957.082	158.19
957.25	160.52
957.418	71.98
957.585	118.48
957.753	176.99
957.921	115.57
958.089	138.24
958.256	135.72
958.424	123.32
958.592	124.87
958.759	84.76
958.927	146.38
959.095	90.77
959.262	104.53
959.43	126.03
959.597	88.45
959.765	114.99
959.932	95.81
960.1	156.64
960.267	119.06
960.435	134.75
960.602	189
960.77	117.12
960.937	76.43
961.104	130.1
961.272	87.48
961.439	73.53
961.606	129.71
961.774	168.66
961.941	113.05
962.108	131.46
962.275	143.28
962.443	139.79
962.61	167.69
962.777	197.33
962.944	146.18
963.111	142.11
963.278	165.94
963.446	172.92
963.613	134.17
963.78	143.86
963.947	136.3
964.114	153.35
964.281	213.8
964.448	147.34
964.615	114.6
964.782	144.24
964.949	171.18
965.116	153.74
965.282	183.38
965.449	135.14
965.616	119.06
965.783	156.06
965.95	138.24
966.117	62.48
966.283	143.66
966.45	146.76
966.617	135.91
966.784	183.38
966.95	167.49
967.117	181.44
967.284	117.31
967.45	129.91
967.617	189.78
967.784	171.56
967.95	199.08
968.117	149.09
968.283	185.32
968.45	256.42
968.616	184.35
968.783	209.34
968.949	173.69
969.116	193.46
969.282	138.24
969.449	158.78
969.615	168.66
969.781	114.02
969.948	137.27
970.114	141.14
970.28	233.17
970.447	169.63
970.613	188.61
970.779	153.35
970.945	178.54
971.112	181.83
971.278	122.74
971.444	155.87
971.61	162.26
971.776	139.21
971.942	179.7
972.108	199.66
972.275	143.08
972.441	173.31
972.607	228.91
972.773	145.99
972.939	163.04
973.105	165.36
973.271	81.47
973.437	137.85
973.602	108.79
973.768	141.92
973.934	175.83
974.1	171.95
974.266	66.94
974.432	148.89
974.598	122.93
974.763	185.13
974.929	118.28
975.095	187.45
975.261	104.53
975.426	93.68
975.592	129.71
975.758	190.94
975.923	106.27
976.089	97.55
976.255	154.13
976.42	165.75
976.586	142.89
976.751	158.19
976.917	210.31
977.082	167.11
977.248	103.56
977.413	87.67
977.579	127.97
977.744	125.26
977.91	81.66
978.075	113.83
978.24	156.45
978.406	129.91
978.571	107.43
978.736	111.11
978.902	147.34
979.067	81.66
979.232	78.37
979.397	141.14
979.563	180.48
979.728	110.92
979.893	121
980.058	113.05
980.223	139.98
980.388	155.29
980.554	135.72
980.719	75.46
980.884	138.82
981.049	183.96
981.214	120.61
981.379	118.67
981.544	104.91
981.709	118.09
981.874	124.68
982.039	102.98
982.204	148.7
982.368	120.61
982.533	124.48
982.698	141.34
982.863	154.51
983.028	121.77
983.193	147.34
983.357	113.25
983.522	140.76
983.687	112.08
983.852	99.68
984.016	96
984.181	127
984.346	144.05
984.51	155.29
984.675	108.01
984.839	158
985.004	127.97
985.168	165.17
985.333	124.29
985.498	135.14
985.662	138.82
985.827	141.14
985.991	109.56
986.155	124.68
986.32	160.91
986.484	176.99
986.649	145.79
986.813	66.16
986.977	135.53
987.142	138.04
987.306	79.92
987.47	104.33
987.634	105.69
987.799	136.3
987.963	126.61
988.127	152.77
988.291	189.97
988.455	89.61
988.62	89.03
988.784	154.13
988.948	139.98
989.112	72.36
989.276	153.93
989.44	122.35
989.604	77.98
989.768	89.8
989.932	199.66
990.096	66.36
990.26	78.18
990.424	71.98
990.588	88.45
990.752	190.74
990.915	169.63
991.079	101.43
991.243	85.15
991.407	137.46
991.571	101.81
991.734	130.49
991.898	142.89
992.062	195.2
992.226	112.66
992.389	74.3
992.553	46.21
992.717	81.86
992.88	72.36
993.044	131.65
993.207	83.21
993.371	139.4
993.535	129.71
993.698	112.47
993.862	124.1
994.025	144.44
994.189	114.41
994.352	102.59
994.515	127.58
994.679	135.14
994.842	95.23
995.006	113.25
995.169	79.92
995.332	61.32
995.496	114.02
995.659	62.1
995.822	76.43
995.985	98.52
996.149	143.28
996.312	92.51
996.475	140.76
996.638	67.33
996.801	170.79
996.964	156.64
997.128	99.3
997.291	92.13
997.454	104.53
997.617	26.83
997.78	138.04
997.943	54.93
998.106	129.71
998.269	73.53
998.432	75.27
998.595	99.3
998.758	62.68
998.92	41.37
999.083	37.68
999.246	83.41
999.409	62.48
999.572	20.25
999.735	86.7
999.897	107.63
1000.06	65.97
1000.223	86.9
1000.386	127.58
1000.548	105.11
1000.711	114.6
1000.874	86.12
1001.036	36.33
1001.199	113.25
1001.361	79.34
1001.524	64.42
1001.687	90.58
1001.849	51.44
1002.012	75.85
1002.174	88.25
1002.337	111.7
1002.499	84.38
1002.661	121.77
1002.824	36.33
1002.986	74.3
1003.149	85.73
1003.311	20.83
1003.473	144.44
1003.636	59.77
1003.798	115.38
1003.96	99.88
1004.123	82.25
1004.285	65
1004.447	80.7
1004.609	58.41
1004.771	109.95
1004.933	5.72
1005.096	46.01
1005.258	19.28
1005.42	52.41
1005.582	100.26
1005.744	90.77
1005.906	21.99
1006.068	78.76
1006.23	15.02
1006.392	-0.1
1006.554	31.1
1006.716	98.52
1006.878	71.78
1007.04	17.92
1007.202	47.37
1007.363	70.62
1007.525	57.45
1007.687	74.88
1007.849	118.28
1008.011	0.68
1008.172	11.53
1008.334	34.58
1008.496	78.95
1008.658	18.7
1008.819	19.08
1008.981	23.93
1009.143	33.81
1009.304	28.97
1009.466	58.41
1009.627	117.31
1009.789	146.38
1009.95	76.05
1010.112	39.23
1010.273	77.01
1010.435	26.25
1010.596	19.08
1010.758	46.21
1010.919	69.85
1011.081	32.65
1011.242	55.51
1011.403	74.5
1011.565	41.75
1011.726	78.56
1011.887	25.28
1012.049	34.58
1012.21	66.55
1012.371	118.67
1012.532	-4.55
1012.693	63.65
1012.855	44.46
1013.016	33.81
1013.177	80.11
1013.338	43.11
1013.499	115.76
1013.66	92.13
1013.821	74.11
1013.982	73.14
1014.143	48.92
1014.304	42.92
1014.465	102.2
1014.626	65.97
1014.787	28.77
1014.948	124.1
1015.109	-8.62
1015.27	73.14
1015.431	22.96
1015.592	11.53
1015.752	102.78
1015.913	60.16
1016.074	57.45
1016.235	84.76
1016.395	41.37
1016.556	38.85
1016.717	71.59
1016.877	105.3
1017.038	5.33
1017.199	57.45
1017.359	47.37
1017.52	60.93
1017.681	46.79
1017.841	35.94
1018.002	32.26
1018.162	-10.37
1018.323	91.74
1018.483	27.42
1018.644	9.2
1018.804	-8.23
1018.964	29.16
1019.125	15.21
1019.285	52.6
1019.446	7.07
1019.606	5.33
1019.766	-16.37
1019.926	56.86
1020.087	56.28
1020.247	-8.04
1020.407	52.8
1020.567	70.04
1020.728	3
1020.888	-18.7
1021.048	26.64
1021.208	7.65
1021.368	21.22
1021.528	60.55
1021.688	55.7
1021.848	71.4
1022.008	39.43
1022.168	33.23
1022.328	45.82
1022.488	68.88
1022.648	-7.85
1022.808	19.47
1022.968	56.28
1023.128	-5.13
1023.288	7.85
1023.448	40.98
1023.608	74.3
1023.767	56.86
1023.927	21.99
1024.087	-14.82
1024.247	-0.1
1024.406	27.42
1024.566	0.48
1024.726	5.13
1024.885	20.25
1025.045	21.99
1025.205	14.43
1025.364	22.77
1025.524	50.66
1025.683	28.77
1025.843	21.41
1026.003	56.67
1026.162	77.98
1026.321	73.33
1026.481	21.6
1026.64	20.63
1026.8	30.71
1026.959	12.69
1027.119	49.31
1027.278	4.94
1027.437	-4.94
1027.597	24.9
1027.756	59.77
1027.915	37.68
1028.074	46.01
1028.234	27.42
1028.393	42.14
1028.552	2.62
1028.711	-59.96
1028.87	60.35
1029.03	-27.42
1029.189	31.48
1029.348	-45.82
1029.507	24.32
1029.666	7.46
1029.825	-34.39
1029.984	5.33
1030.143	14.82
1030.302	1.26
1030.461	-28.19
1030.62	27.61
1030.779	57.25
1030.938	-19.08
1031.097	8.23
1031.255	40.59
1031.414	56.67
1031.573	65
1031.732	-36.13
1031.891	9.98
1032.049	62.48
1032.208	34.78
1032.367	-18.5
1032.525	9.98
1032.684	-16.18
1032.843	20.63
1033.001	-31.1
1033.16	151.99
1033.319	57.25
1033.477	27.22
1033.636	-11.92
1033.794	-25.87
1033.953	61.9
1034.111	53.57
1034.27	9.98
1034.428	16.18
1034.587	-6.1
1034.745	23.35
1034.903	23.15
1035.062	34.39
1035.22	-28.97
1035.378	58.41
1035.537	-15.98
1035.695	31.48
1035.853	17.73
1036.011	33.62
1036.17	20.44
1036.328	-61.13
1036.486	6.68
1036.644	20.25
1036.802	-67.13
1036.96	-11.33
1037.119	-8.82
1037.277	-26.06
1037.435	1.45
1037.593	-17.34
1037.751	13.47
1037.909	28.77
1038.067	28.77
