Data from gum_old_FLMT105791__117__15-46-06-253.txt Node

Date: Mon Mar 20 15:46:06 GMT 2023
User: antho
Spectrometer: FLMT10579
Trigger mode: 0
Integration Time (sec): 1.000000E-1
Scans to average: 10
Electric dark correction enabled: true
Nonlinearity correction enabled: false
Boxcar width: 0
XAxis mode: Wavelengths
Number of Pixels in Spectrum: 3648
>>>>>Begin Spectral Data<<<<<
345.248	-154.87
345.464	-154.87
345.681	-154.87
345.898	-201.95
346.114	-174.44
346.331	-42.69
346.548	43.92
346.764	-17.89
346.981	-3.94
347.197	-15.56
347.414	-15.37
347.631	-11.69
347.847	64.07
348.064	19.31
348.28	7.69
348.497	-46.18
348.713	18.34
348.93	32.87
349.146	19.89
349.363	29.77
349.579	41.98
349.796	-0.26
350.012	13.5
350.229	25.12
350.445	32.68
350.661	16.21
350.878	5.55
351.094	27.84
351.311	25.12
351.527	45.47
351.743	0.9
351.96	89.06
352.176	64.26
352.392	34.23
352.609	53.02
352.825	-5.49
353.041	10.59
353.257	10.79
353.474	30.16
353.69	49.73
353.906	15.44
354.122	-15.56
354.339	66.97
354.555	27.64
354.771	11.37
354.987	75.11
355.203	83.05
355.42	18.34
355.636	12.72
355.852	-5.49
356.068	22.6
356.284	1.29
356.5	71.23
356.716	5.17
356.932	24.35
357.148	53.6
357.364	6.33
357.58	72.98
357.796	71.04
358.012	72.98
358.228	48.57
358.444	-42.11
358.66	77.63
358.876	38.49
359.092	-31.45
359.308	45.66
359.524	58.45
359.74	7.1
359.956	-5.3
360.172	31.13
360.388	48.95
360.604	6.52
360.819	105.14
361.035	27.45
361.251	52.05
361.467	-5.68
361.683	70.07
361.898	43.33
362.114	49.34
362.33	47.21
362.546	63.68
362.762	35.78
362.977	55.54
363.193	26.48
363.409	43.14
363.624	26.87
363.84	46.05
364.056	18.54
364.271	53.02
364.487	52.25
364.703	29.77
364.918	12.34
365.134	41.2
365.35	31.71
365.565	155.13
365.781	41.78
365.996	60.77
366.212	117.15
366.427	62.13
366.643	37.91
366.858	25.7
367.074	47.02
367.289	119.28
367.505	179.93
367.72	3.42
367.936	33.45
368.151	74.92
368.367	80.34
368.582	57.67
368.798	20.86
369.013	89.45
369.228	41.59
369.444	68.33
369.659	89.25
369.874	45.27
370.09	133.81
370.305	2.65
370.52	27.84
370.736	88.87
370.951	68.33
371.166	93.71
371.381	128.78
371.597	83.05
371.812	46.24
372.027	38.1
372.242	59.03
372.458	117.35
372.673	46.43
372.888	47.02
373.103	66.97
373.318	132.85
373.533	75.11
373.749	63.87
373.964	14.66
374.179	76.66
374.394	-1.61
374.609	100.3
374.824	27.64
375.039	115.41
375.254	31.13
375.469	111.34
375.684	66.2
375.899	100.88
376.114	62.52
376.329	59.42
376.544	83.63
376.759	93.9
376.974	36.17
377.189	46.43
377.404	24.35
377.619	93.52
377.834	-11.5
378.049	32.29
378.264	30.93
378.478	72.2
378.693	43.53
378.908	74.14
379.123	52.44
379.338	115.99
379.553	85.57
379.767	78.79
379.982	88.67
380.197	90.8
380.412	55.15
380.626	75.3
380.841	162.49
381.056	108.43
381.271	147.96
381.485	49.34
381.7	48.95
381.915	81.5
382.129	59.61
382.344	95.84
382.559	58.83
382.773	113.08
382.988	0.32
383.202	76.08
383.417	38.1
383.632	173.92
383.846	67.55
384.061	58.25
384.275	37.91
384.49	91.58
384.704	86.35
384.919	43.33
385.133	63.29
385.348	123.93
385.562	54.77
385.777	113.08
385.991	73.17
386.206	81.89
386.42	73.95
386.634	122.77
386.849	77.05
387.063	84.99
387.277	53.41
387.492	48.95
387.706	56.12
387.92	47.98
388.135	112.7
388.349	92.35
388.563	100.1
388.778	86.93
388.992	88.48
389.206	122.96
389.42	154.93
389.635	78.79
389.849	118.7
390.063	125.29
390.277	114.63
390.491	187.87
390.706	117.15
390.92	122.58
391.134	130.71
391.348	124.51
391.562	54.18
391.776	138.27
391.99	96.62
392.205	125.1
392.419	83.63
392.633	115.99
392.847	139.05
393.061	87.12
393.275	166.95
393.489	78.98
393.703	88.87
393.917	98.94
394.131	57.67
394.345	107.08
394.559	115.22
394.773	85.96
394.986	137.88
395.2	117.73
395.414	141.18
395.628	72.01
395.842	135.17
396.056	126.45
396.27	75.88
396.484	133.23
396.697	125.29
396.911	169.85
397.125	95.07
397.339	114.83
397.553	88.48
397.766	177.21
397.98	135.56
398.194	141.56
398.408	119.28
398.621	135.95
398.835	189.61
399.049	161.33
399.262	231.46
399.476	199.69
399.69	202.98
399.903	264.98
400.117	175.86
400.331	201.24
400.544	174.89
400.758	301.6
400.971	212.86
401.185	209.76
401.398	164.43
401.612	263.43
401.826	229.72
402.039	208.21
402.253	187.29
402.466	221.39
402.68	213.06
402.893	220.61
403.106	206.86
403.32	205.89
403.533	243.09
403.747	201.05
403.96	238.24
404.174	241.15
404.387	180.12
404.6	189.03
404.814	261.11
405.027	199.5
405.24	227.01
405.454	214.61
405.667	247.35
405.88	180.7
406.094	229.14
406.307	257.23
406.52	223.91
406.733	175.66
406.947	160.36
407.16	271.57
407.373	261.49
407.586	178.38
407.799	194.46
408.012	243.67
408.226	240.38
408.439	295.79
408.652	174.31
408.865	265.18
409.078	276.03
409.291	269.44
409.504	201.43
409.717	264.79
409.93	265.56
410.143	247.74
410.357	188.26
410.57	179.35
410.783	180.51
410.996	269.63
411.209	221.19
411.421	289.98
411.634	269.05
411.847	198.53
412.06	262.66
412.273	275.06
412.486	286.88
412.699	369.41
412.912	263.63
413.125	271.57
413.338	259.75
413.55	282.23
413.763	250.45
413.976	270.02
414.189	257.62
414.402	238.05
414.615	351.59
414.827	266.53
415.04	309.54
415.253	289.39
415.466	312.64
415.678	354.3
415.891	266.73
416.104	255.68
416.316	271.96
416.529	262.66
416.742	338.61
416.954	334.34
417.167	288.43
417.38	272.73
417.592	310.71
417.805	257.62
418.017	206.66
418.23	317.49
418.442	261.11
418.655	264.98
418.868	283.58
419.08	320.97
419.293	304.51
419.505	303.92
419.718	316.13
419.93	333.96
420.142	286.88
420.355	345.58
420.567	342.48
420.78	289.59
420.992	290.94
421.205	357.21
421.417	239.99
421.629	272.15
421.842	276.61
422.054	236.5
422.266	347.71
422.479	352.17
422.691	298.31
422.903	349.46
423.115	269.83
423.328	284.74
423.54	301.02
423.752	295.59
423.964	259.36
424.177	334.34
424.389	303.34
424.601	398.86
424.813	322.52
425.025	355.85
425.238	348.49
425.45	301.21
425.662	262.85
425.874	629.81
426.086	322.52
426.298	337.06
426.51	334.54
426.722	325.24
426.934	313.61
427.146	348.49
427.358	301.02
427.57	357.98
427.782	325.82
427.994	323.69
428.206	284.94
428.418	267.69
428.63	380.45
428.842	361.27
429.054	314
429.266	349.65
429.478	287.46
429.69	319.23
429.902	267.89
430.114	343.45
430.325	301.21
430.537	283
430.749	270.6
430.961	178.18
431.173	286.49
431.384	281.45
431.596	192.91
431.808	265.18
432.02	344.03
432.231	352.17
432.443	441.29
432.655	393.24
432.867	335.12
433.078	372.51
433.29	405.64
433.502	343.84
433.713	400.22
433.925	384.72
434.136	433.15
434.348	338.61
434.56	270.21
434.771	451.75
434.983	288.62
435.194	354.69
435.406	352.75
435.617	404.09
435.829	466.28
436.04	409.71
436.252	417.46
436.463	445.36
436.675	440.9
436.886	435.67
437.098	428.89
437.309	487.21
437.521	448.85
437.732	415.72
437.943	406.22
438.155	442.07
438.366	351.78
438.578	458.92
438.789	401.38
439	441.49
439.211	399.05
439.423	410.1
439.634	415.91
439.845	450.01
440.057	423.85
440.268	486.82
440.479	383.75
440.69	420.95
440.902	413.39
441.113	427.54
441.324	422.3
441.535	444.59
441.746	487.02
441.957	395.95
442.168	407.39
442.38	468.22
442.591	481.4
442.802	431.99
443.013	470.93
443.224	498.45
443.435	458.54
443.646	444
443.857	457.57
444.068	444.39
444.279	477.91
444.49	543.98
444.701	468.8
444.912	602.3
445.123	550.37
445.334	492.05
445.545	496.32
445.756	493.41
445.967	446.33
446.178	489.34
446.388	498.64
446.599	494.96
446.81	489.92
447.021	461.05
447.232	513.37
447.443	535.45
447.653	468.61
447.864	537.58
448.075	515.69
448.286	523.83
448.496	520.73
448.707	532.35
448.918	485.08
449.129	587.57
449.339	469
449.55	520.53
449.761	490.5
449.971	560.83
450.182	513.75
450.393	545.33
450.603	526.35
450.814	590.67
451.024	561.8
451.235	563.74
451.446	633.1
451.656	606.56
451.867	533.13
452.077	571.49
452.288	609.08
452.498	623.41
452.709	532.16
452.919	552.89
453.13	496.7
453.34	555.02
453.55	509.68
453.761	553.66
453.971	549.79
454.182	549.79
454.392	567.61
454.602	607.33
454.813	564.9
455.023	596.68
455.233	513.56
455.444	578.46
455.654	481.98
455.864	537.39
456.075	544.75
456.285	521.5
456.495	555.8
456.705	570.91
456.916	634.65
457.126	646.86
457.336	569.94
457.546	471.32
457.756	555.8
457.967	619.73
458.177	584.28
458.387	568.2
458.597	535.07
458.807	569.55
459.017	549.98
459.227	565.29
459.437	533.32
459.647	597.26
459.857	580.6
460.068	549.21
460.278	639.5
460.488	589.31
460.698	668.94
460.908	572.07
461.117	553.66
461.327	543.59
461.537	625.16
461.747	605.78
461.957	589.31
462.167	712.93
462.377	644.14
462.587	595.9
462.797	638.91
463.007	617.8
463.216	647.44
463.426	672.82
463.636	653.83
463.846	545.72
464.056	648.21
464.265	634.46
464.475	549.4
464.685	610.05
464.895	656.93
465.104	614.5
465.314	653.83
465.524	589.12
465.733	563.93
465.943	713.31
466.153	685.61
466.362	660.23
466.572	648.02
466.782	621.48
466.991	634.46
467.201	706.53
467.41	595.32
467.62	643.37
467.829	610.05
468.039	674.95
468.249	642.98
468.458	663.33
468.668	678.44
468.877	685.22
469.086	704.01
469.296	688.13
469.505	667.01
469.715	743.73
469.924	661.97
470.134	717.38
470.343	736.56
470.552	676.11
470.762	645.31
470.971	626.51
471.18	690.84
471.39	669.91
471.599	641.63
471.808	746.83
472.018	674.95
472.227	749.54
472.436	751.87
472.645	724.16
472.855	696.46
473.064	773.37
473.273	764.66
473.482	741.41
473.691	792.94
473.901	766.21
474.11	720.87
474.319	855.14
474.528	755.55
474.737	805.73
474.946	769.5
475.155	771.82
475.364	850.29
475.573	832.47
475.783	799.92
475.992	813.29
476.201	822
476.41	776.47
476.619	764.27
476.828	810.96
477.037	792.17
477.245	808.83
477.454	864.24
477.663	808.64
477.872	842.74
478.081	902.22
478.29	840.02
478.499	977.39
478.708	877.42
478.917	925.27
479.125	840.02
479.334	880.13
479.543	873.15
479.752	893.3
479.961	904.54
480.169	944.26
480.378	908.61
480.587	1027.57
480.796	946
481.004	945.42
481.213	951.23
481.422	957.05
481.63	935.35
481.839	965.38
482.048	1012.46
482.256	970.22
482.465	979.52
482.674	1021.56
482.882	1015.75
483.091	1073.68
483.299	992.11
483.508	1042.1
483.716	997.73
483.925	1031.25
484.134	992.31
484.342	982.23
484.551	1056.83
484.759	1050.82
484.967	1048.11
485.176	1045.4
485.384	1076.01
485.593	1053.73
485.801	1066.13
486.01	1008.58
486.218	968.87
486.426	903.57
486.635	868.89
486.843	896.4
487.051	948.13
487.26	896.6
487.468	983.01
487.676	1000.25
487.885	979.33
488.093	1014.98
488.301	1067.68
488.509	1073.1
488.717	1085.31
488.926	1057.21
489.134	1084.34
489.342	1085.89
489.55	1046.75
489.758	1048.5
489.967	1048.69
490.175	1196.13
490.383	1089.57
490.591	1209.89
490.799	1086.66
491.007	1209.69
491.215	1135.68
491.423	1118.44
491.631	1136.65
491.839	1144.59
492.047	1157.38
492.255	1093.83
492.463	1067.1
492.671	1081.82
492.879	1163
493.087	1122.31
493.295	1146.14
493.503	1161.06
493.711	1190.12
493.919	1243.79
494.127	1226.55
494.334	1224.03
494.542	1173.85
494.75	1189.16
494.958	1172.69
495.166	1245.92
495.374	1247.28
495.581	1228.1
495.789	1242.63
495.997	1297.07
496.205	1220.16
496.412	1210.66
496.62	1237.98
496.828	1248.06
497.035	1237.4
497.243	1271.89
497.451	1232.17
497.658	1282.15
497.866	1218.41
498.074	1315.29
498.281	1223.06
498.489	1299.01
498.696	1240.89
498.904	1235.66
499.112	1201.17
499.319	1316.25
499.527	1241.47
499.734	1307.92
499.942	1226.94
500.149	1242.44
500.357	1259.68
500.564	1174.82
500.771	1243.41
500.979	1215.51
501.186	1183.73
501.394	1266.07
501.601	1202.91
501.808	1258.9
502.016	1214.54
502.223	1192.64
502.43	1195.94
502.638	1223.64
502.845	1206.59
503.052	1312.57
503.26	1231.97
503.467	1321.68
503.674	1285.25
503.881	1306.57
504.089	1389.3
504.296	1315.87
504.503	1232.56
504.71	1271.69
504.917	1229.07
505.125	1280.99
505.332	1287.19
505.539	1315.29
505.746	1377.67
505.953	1367.79
506.16	1363.14
506.367	1394.33
506.574	1421.07
506.781	1404.6
506.988	1339.89
507.195	1380.58
507.402	1345.9
507.609	1407.12
507.816	1319.35
508.023	1328.46
508.23	1300.75
508.437	1256.97
508.644	1339.12
508.851	1389.68
509.058	1377.67
509.265	1346.48
509.472	1423.01
509.679	1489.66
509.885	1385.03
510.092	1387.55
510.299	1372.44
510.506	1417.58
510.713	1408.87
510.92	1404.41
511.126	1408.48
511.333	1460.21
511.54	1451.49
511.746	1479.39
511.953	1443.74
512.16	1480.55
512.367	1448.97
512.573	1409.06
512.78	1436.76
512.987	1448.97
513.193	1403.44
513.4	1360.82
513.606	1385.23
513.813	1471.83
514.02	1431.15
514.226	1505.16
514.433	1491.4
514.639	1382.13
514.846	1438.31
515.052	1375.35
515.259	1416.81
515.465	1429.79
515.672	1476.29
515.878	1525.11
516.085	1437.15
516.291	1517.56
516.497	1437.54
516.704	1425.72
516.91	1411.58
517.117	1340.67
517.323	1261.42
517.529	1300.17
517.736	1311.22
517.942	1301.72
518.148	1327.88
518.354	1416.23
518.561	1378.25
518.767	1404.6
518.973	1456.53
519.179	1454.2
519.386	1392.98
519.592	1417.39
519.798	1424.37
520.004	1517.94
520.21	1485.59
520.417	1554.56
520.623	1552.43
520.829	1570.84
521.035	1580.33
521.241	1553.79
521.447	1594.48
521.653	1676.43
521.859	1579.94
522.065	1615.4
522.271	1764
522.477	1634.97
522.683	1709.56
522.889	1679.14
523.095	1669.26
523.301	1665.19
523.507	1579.56
523.713	1637.29
523.919	1579.17
524.125	1699.68
524.331	1658.99
524.537	1786.28
524.742	1801.98
524.948	1748.89
525.154	1762.45
525.36	1891.88
525.566	1759.16
525.772	1821.55
525.977	1707.43
526.183	1771.37
526.389	1821.16
526.595	1739.59
526.8	1707.82
527.006	1695.42
527.212	1602.81
527.417	1568.32
527.623	1568.51
527.829	1685.54
528.034	1707.82
528.24	1740.17
528.446	1715.57
528.651	1850.8
528.857	1854.68
529.062	1876.96
529.268	1852.35
529.473	1866.3
529.679	1849.45
529.884	1943.41
530.09	1919.58
530.295	1922.68
530.501	1904.28
530.706	1879.28
530.912	1850.8
531.117	1910.48
531.323	1891.49
531.528	1935.47
531.733	2004.25
531.939	1918.61
532.144	1968.79
532.35	1953.68
532.555	1981
532.76	1984.88
532.966	1969.96
533.171	1909.7
533.376	1893.23
533.581	1862.23
533.787	1912.41
533.992	1943.41
534.197	1928.69
534.402	1968.99
534.607	1965.31
534.813	2034.48
535.018	1958.53
535.223	1969.38
535.428	1959.88
535.633	2073.22
535.838	2035.83
536.043	2014.13
536.249	2122.82
536.454	2017.81
536.659	2047.26
536.864	2024.21
537.069	2005.03
537.274	2047.07
537.479	2014.71
537.684	1996.5
537.889	1954.07
538.094	2135.61
538.299	2034.09
538.504	2026.14
538.708	2059.08
538.913	2101.9
539.118	2062.57
539.323	2091.44
539.528	2051.91
539.733	2054.43
539.938	2059.47
540.142	2069.35
540.347	2045.52
540.552	1980.61
540.757	2006.19
540.962	1966.47
541.166	1923.85
541.371	1912.61
541.576	2006.19
541.781	1896.33
541.985	2024.98
542.19	2024.4
542.395	2110.42
542.599	2132.9
542.804	2062.76
543.008	2102.29
543.213	2080.78
543.418	1982.16
543.622	2104.22
543.827	2011.42
544.031	2076.71
544.236	2120.89
544.44	2086.59
544.645	2177.46
544.849	2088.34
545.054	2154.4
545.258	2199.94
545.463	2139.87
545.667	2085.82
545.872	2185.02
546.076	2133.09
546.281	2106.55
546.485	2100.35
546.689	2151.89
546.894	2167.58
547.098	2112.56
547.302	2100.74
547.507	2106.94
547.711	2176.49
547.915	2131.35
548.119	2063.92
548.324	2112.36
548.528	2158.47
548.732	2097.64
548.936	2107.32
549.141	2156.92
549.345	2101.12
549.549	2163.9
549.753	2170.1
549.957	2219.31
550.161	2219.31
550.366	2159.44
550.57	2146.27
550.774	2145.49
550.978	2123.02
551.182	2150.14
551.386	2160.99
551.59	2143.55
551.794	2131.35
551.998	2129.99
552.202	2125.54
552.406	2097.64
552.61	2190.64
552.814	2159.83
553.018	2200.32
553.222	2133.67
553.426	2149.56
553.63	2255.35
553.833	2144.52
554.037	2124.76
554.241	2210.79
554.445	2164.67
554.649	2136
554.853	2128.83
555.056	2213.3
555.26	2195.87
555.464	2187.92
555.668	2164.67
555.871	2204.2
556.075	2226.28
556.279	2150.14
556.483	2113.14
556.686	2155.57
556.89	2121.27
557.094	2167.97
557.297	2054.43
557.501	2167.39
557.704	2044.16
557.908	2149.75
558.112	2056.56
558.315	2179.01
558.519	2101.51
558.722	2116.24
558.926	2064.7
559.129	2010.06
559.333	1984.29
559.536	1998.24
559.74	1986.62
559.943	1959.88
560.147	1967.24
560.35	2040.48
560.553	1999.99
560.757	1966.08
560.96	2077.1
561.164	2000.57
561.367	2109.46
561.57	2009.09
561.774	2071.29
561.977	2020.53
562.18	1992.43
562.384	2127.09
562.587	2008.51
562.79	1962.79
562.993	1942.83
563.197	2036.03
563.4	2045.71
563.603	2042.61
563.806	2081.56
564.009	1972.67
564.212	2014.13
564.416	1903.89
564.619	2008.51
564.822	1939.93
565.025	2011.42
565.228	1993.4
565.431	1950.58
565.634	1892.07
565.837	1929.85
566.04	1893.23
566.243	1882
566.446	1826.2
566.649	1900.79
566.852	1852.35
567.055	1855.07
567.258	1901.37
567.461	1956.39
567.664	1916.68
567.867	1789.97
568.07	1885.1
568.273	1910.28
568.475	1927.33
568.678	1860.3
568.881	1836.66
569.084	1847.9
569.287	1757.22
569.489	1794.42
569.692	1814.77
569.895	1846.35
570.098	1776.02
570.3	1793.84
570.503	1748.5
570.706	1738.82
570.909	1740.17
571.111	1656.09
571.314	1697.94
571.516	1738.24
571.719	1735.91
571.922	1651.44
572.124	1675.66
572.327	1730.49
572.529	1668.29
572.732	1622.76
572.935	1709.95
573.137	1786.48
573.34	1683.79
573.542	1754.32
573.745	1701.23
573.947	1702.39
574.15	1697.94
574.352	1666.74
574.554	1762.65
574.757	1671.01
574.959	1651.05
575.162	1640.01
575.364	1663.06
575.566	1759.16
575.769	1627.02
575.971	1641.17
576.173	1543.52
576.376	1623.34
576.578	1660.74
576.78	1718.67
576.982	1551.46
577.185	1606.87
577.387	1574.13
577.589	1573.36
577.791	1664.61
577.993	1603
578.196	1612.11
578.398	1606.68
578.6	1667.71
578.802	1511.36
579.004	1508.45
579.206	1565.8
579.408	1603
579.61	1524.34
579.812	1597.19
580.014	1534.22
580.216	1547.2
580.418	1537.51
580.62	1538.29
580.822	1501.09
581.024	1561.54
581.226	1579.94
581.428	1547.2
581.63	1655.89
581.832	1523.37
582.034	1609.97
582.236	1553.21
582.438	1573.16
582.64	1595.83
582.841	1602.22
583.043	1653.57
583.245	1581.49
583.447	1564.25
583.649	1564.06
583.85	1577.81
584.052	1588.08
584.254	1526.08
584.456	1589.05
584.657	1497.41
584.859	1532.28
585.061	1516.98
585.262	1493.15
585.464	1489.66
585.666	1563.48
585.867	1462.92
586.069	1573.94
586.27	1523.37
586.472	1496.25
586.674	1476.48
586.875	1510.78
587.077	1466.21
587.278	1526.66
587.48	1495.28
587.681	1603.58
587.883	1491.21
588.084	1417.58
588.285	1479.78
588.487	1466.99
588.688	1498.96
588.89	1412.16
589.091	1367.6
589.292	1408.67
589.494	1374.18
589.695	1313.35
589.896	1256.77
590.098	1276.15
590.299	1285.06
590.5	1279.44
590.702	1321.68
590.903	1346.67
591.104	1380.19
591.305	1383.29
591.507	1427.46
591.708	1391.04
591.909	1365.27
592.11	1458.08
592.311	1409.64
592.512	1336.02
592.714	1332.92
592.915	1363.14
593.116	1342.02
593.317	1370.89
593.518	1385.62
593.719	1395.11
593.92	1413.32
594.121	1429.21
594.322	1376.12
594.523	1413.71
594.724	1332.34
594.925	1344.15
595.126	1383.29
595.327	1400.53
595.528	1394.72
595.729	1369.92
595.929	1344.15
596.13	1362.56
596.331	1382.13
596.532	1377.28
596.733	1435.8
596.934	1414.68
597.135	1416.03
597.335	1399.37
597.536	1323.62
597.737	1381.55
597.938	1347.06
598.138	1398.21
598.339	1379.03
598.54	1342.99
598.74	1339.7
598.941	1367.6
599.142	1404.8
599.342	1365.47
599.543	1322.45
599.744	1343.18
599.944	1352.68
600.145	1332.92
600.345	1361.98
600.546	1435.8
600.746	1415.07
600.947	1447.23
601.147	1328.07
601.348	1369.92
601.548	1323.04
601.749	1350.55
601.949	1336.21
602.15	1308.31
602.35	1298.24
602.551	1382.9
602.751	1300.75
602.951	1322.84
603.152	1262.2
603.352	1351.52
603.552	1310.44
603.753	1354.62
603.953	1372.05
604.153	1380
604.354	1340.08
604.554	1315.29
604.754	1334.47
604.954	1304.63
605.155	1329.62
605.355	1312.57
605.555	1368.37
605.755	1382.52
605.955	1377.48
606.155	1349
606.356	1333.89
606.556	1369.92
606.756	1353.65
606.956	1246.12
607.156	1388.72
607.356	1268.98
607.556	1336.4
607.756	1310.25
607.956	1352.48
608.156	1312.38
608.356	1305.21
608.556	1321.68
608.756	1302.3
608.956	1249.99
609.156	1301.92
609.356	1276.34
609.556	1273.82
609.755	1300.37
609.955	1286.8
610.155	1291.07
610.355	1288.35
610.555	1213.76
610.755	1247.67
610.954	1201.94
611.154	1262.97
611.354	1265.49
611.554	1229.84
611.753	1229.46
611.953	1209.5
612.153	1284.48
612.352	1243.79
612.552	1201.36
612.752	1148.66
612.951	1231.78
613.151	1247.86
613.351	1197.68
613.55	1214.92
613.75	1241.27
613.949	1198.46
614.149	1242.44
614.348	1176.17
614.548	1173.27
614.747	1132.78
614.947	1186.83
615.146	1124.64
615.346	1231.59
615.545	1185.09
615.745	1200.59
615.944	1226.94
616.144	1179.86
616.343	1218.22
616.542	1159.9
616.742	1188.96
616.941	1157.96
617.14	1118.24
617.34	1164.94
617.539	1150.21
617.738	1115.92
617.938	1192.64
618.137	1133.94
618.336	1130.45
618.535	1189.35
618.734	1167.65
618.934	1184.7
619.133	1159.51
619.332	1158.54
619.531	1157.77
619.73	1135.1
619.929	1211.24
620.128	1201.36
620.328	1183.92
620.527	1143.43
620.726	1162.42
620.925	1150.6
621.124	1134.52
621.323	1170.94
621.522	1134.91
621.721	1121.93
621.92	1098.68
622.119	1099.84
622.318	1094.99
622.517	1140.91
622.715	1113.98
622.914	1082.98
623.113	1123.09
623.312	1062.25
623.511	1155.25
623.71	1110.88
623.909	1070.2
624.107	1176.95
624.306	1056.83
624.505	1080.66
624.704	1090.54
624.902	1056.05
625.101	1149.24
625.3	1104.88
625.499	1075.43
625.697	1071.94
625.896	1039.2
626.095	1105.84
626.293	988.82
626.492	1052.37
626.69	1077.56
626.889	1070.39
627.088	1082.59
627.286	1042.88
627.485	1028.93
627.683	1041.52
627.882	1088.41
628.08	1003.16
628.279	1036.1
628.477	1102.94
628.676	1020.98
628.874	1054.5
629.073	1047.53
629.271	1026.6
629.469	1066.9
629.668	1038.61
629.866	1013.43
630.065	996.96
630.263	1084.53
630.461	1002.38
630.66	1034.55
630.858	1030.86
631.056	1086.66
631.254	1073.3
631.453	994.44
631.651	1083.37
631.849	1039
632.047	1036.68
632.245	1008.58
632.444	1038.42
632.642	1021.56
632.84	1050.43
633.038	1006.84
633.236	988.82
633.434	993.28
633.632	989.21
633.83	968.09
634.028	1059.93
634.227	1020.01
634.425	1088.79
634.623	1010.13
634.821	1015.95
635.019	1011.49
635.216	977.2
635.414	1036.1
635.612	1001.41
635.81	1042.88
636.008	1091.51
636.206	1017.88
636.404	1048.69
636.602	948.72
636.8	998.9
636.997	1008.78
637.195	1053.34
637.393	1011.68
637.591	1087.63
637.789	1017.5
637.986	1001.61
638.184	1034.16
638.382	1076.98
638.58	1060.51
638.777	1112.43
638.975	1015.95
639.173	996.96
639.37	1002
639.568	1004.51
639.765	1026.6
639.963	1001.8
640.161	1039.58
640.358	1025.83
640.556	977.58
640.753	945.62
640.951	926.82
641.148	977.39
641.346	973.9
641.543	990.56
641.741	1002.19
641.938	960.15
642.136	990.37
642.333	945.23
642.531	1004.51
642.728	1043.07
642.925	974.68
643.123	969.25
643.32	979.13
643.517	958.02
643.715	961.89
643.912	955.11
644.109	963.25
644.306	937.28
644.504	884.59
644.701	953.75
644.898	997.73
645.095	947.75
645.293	927.21
645.49	961.31
645.687	958.02
645.884	986.5
646.081	860.37
646.278	897.76
646.475	945.03
646.672	950.65
646.87	953.56
647.067	935.15
647.264	960.73
647.461	894.08
647.658	858.43
647.855	915
648.052	893.3
648.249	844.87
648.446	876.06
648.642	872.19
648.839	857.27
649.036	867.15
649.233	820.45
649.43	839.05
649.627	824.52
649.824	852.23
650.021	857.07
650.217	842.54
650.414	845.45
650.611	869.09
650.808	887.49
651.004	872.38
651.201	888.27
651.398	953.56
651.595	889.82
651.791	847
651.988	911.9
652.185	811.54
652.381	889.43
652.578	833.24
652.775	872.57
652.971	860.95
653.168	846.42
653.364	923.14
653.561	793.14
653.757	842.54
653.954	867.73
654.15	847.97
654.347	920.62
654.543	862.89
654.74	811.74
654.936	835.57
655.133	853.39
655.329	855.14
655.525	852.42
655.722	862.89
655.918	786.36
656.115	847
656.311	776.47
656.507	742.96
656.704	681.54
656.9	735.21
657.096	731.52
657.292	726.88
657.489	804.57
657.685	795.85
657.881	754.58
658.077	767.37
658.273	791.78
658.47	879.94
658.666	817.55
658.862	836.15
659.058	803.6
659.254	871.02
659.45	817.94
659.646	820.84
659.842	816
660.038	864.82
660.234	785
660.43	842.93
660.626	906.09
660.822	847.58
661.018	864.24
661.214	810.96
661.41	798.17
661.606	879.35
661.802	877.42
661.998	830.14
662.194	784.61
662.39	842.54
662.586	854.75
662.781	852.04
662.977	846.22
663.173	848.55
663.369	830.14
663.564	844.09
663.76	866.18
663.956	808.25
664.152	858.43
664.347	781.32
664.543	836.92
664.739	831.89
664.934	748.57
665.13	719.51
665.326	844.87
665.521	827.62
665.717	802.05
665.912	755.74
666.108	719.51
666.304	807.47
666.499	809.02
666.695	732.88
666.89	778.8
667.086	835.18
667.281	817.55
667.477	846.03
667.672	803.21
667.867	809.8
668.063	834.6
668.258	749.74
668.454	796.43
668.649	866.57
668.844	787.13
669.04	840.8
669.235	771.44
669.43	771.63
669.626	764.07
669.821	765.43
670.016	758.07
670.211	787.52
670.407	735.59
670.602	812.32
670.797	768.72
670.992	815.22
671.187	741.02
671.382	833.05
671.578	756.32
671.773	788.1
671.968	729.97
672.163	742.96
672.358	797.01
672.553	763.88
672.748	747.02
672.943	849.71
673.138	762.91
673.333	788.1
673.528	729.59
673.723	789.46
673.918	766.98
674.113	715.25
674.308	825.88
674.503	755.94
674.698	778.99
674.892	791.78
675.087	798.56
675.282	810.19
675.477	759.23
675.672	771.63
675.867	777.06
676.061	715.64
676.256	711.18
676.451	758.26
676.646	754.19
676.84	685.03
677.035	701.69
677.23	710.02
677.424	737.34
677.619	762.33
677.814	820.84
678.008	790.81
678.203	695.88
678.397	742.57
678.592	743.73
678.787	798.95
678.981	734.62
679.176	760.39
679.37	748.77
679.565	695.1
679.759	721.26
679.954	788.49
680.148	801.27
680.342	797.01
680.537	772.02
680.731	713.7
680.926	764.46
681.12	769.5
681.314	741.41
681.509	719.71
681.703	760.01
681.897	774.15
682.092	734.04
682.286	706.92
682.48	836.54
682.674	780.54
682.869	725.33
683.063	753.03
683.257	827.62
683.451	722.03
683.645	767.56
683.839	740.63
684.034	740.24
684.228	772.6
684.422	711.18
684.616	723.78
684.81	743.54
685.004	722.03
685.198	716.22
685.392	765.62
685.586	716.03
685.78	733.85
685.974	764.85
686.168	760.97
686.362	791.39
686.556	687.54
686.75	690.26
686.944	684.83
687.138	699.36
687.331	595.51
687.525	618.38
687.719	547.47
687.913	651.31
688.107	637.36
688.301	579.82
688.494	654.61
688.688	593.38
688.882	576.91
689.076	572.85
689.269	635.62
689.463	723.78
689.657	630.97
689.85	624.96
690.044	617.21
690.238	616.63
690.431	614.7
690.625	647.44
690.818	645.89
691.012	643.56
691.205	667.78
691.399	617.99
691.593	643.56
691.786	721.06
691.98	725.91
692.173	754.19
692.366	712.73
692.56	685.8
692.753	774.92
692.947	678.83
693.14	735.4
693.333	751.87
693.527	665.46
693.72	721.26
693.914	739.08
694.107	705.56
694.3	734.43
694.493	707.69
694.687	784.61
694.88	690.26
695.073	797.4
695.266	770.27
695.46	728.42
695.653	813.87
695.846	753.81
696.039	726.49
696.232	712.54
696.425	790.42
696.618	798.56
696.812	786.55
697.005	833.44
697.198	913.26
697.391	845.64
697.584	857.85
697.777	930.31
697.97	886.52
698.163	927.79
698.356	871.02
698.549	978.17
698.742	952.59
698.935	905.32
699.127	958.02
699.32	890.4
699.513	895.24
699.706	927.98
699.899	959.76
700.092	893.11
700.285	1000.25
700.477	910.16
700.67	990.76
700.863	1013.04
701.056	1066.51
701.248	1061.09
701.441	1055.28
701.634	1022.92
701.826	1121.15
702.019	1050.24
702.212	1077.94
702.404	1051.98
702.597	1039
702.79	1090.34
702.982	1138.59
703.175	1152.34
703.367	1150.21
703.56	1199.23
703.752	1267.62
703.945	1212.41
704.137	1266.85
704.33	1252.7
704.522	1232.17
704.715	1286.61
704.907	1331.17
705.1	1352.1
705.292	1359.27
705.484	1343.38
705.677	1363.72
705.869	1383.29
706.061	1416.42
706.254	1436.57
706.446	1412.16
706.638	1416.62
706.831	1496.63
707.023	1439.67
707.215	1564.64
707.407	1556.5
707.599	1530.54
707.792	1571.23
707.984	1573.94
708.176	1599.13
708.368	1555.34
708.56	1635.55
708.752	1619.47
708.944	1619.86
709.136	1688.64
709.329	1656.47
709.521	1805.66
709.713	1749.86
709.905	1752.38
710.097	1805.47
710.289	1756.06
710.481	1769.82
710.672	1837.82
710.864	1818.83
711.056	1861.27
711.248	1900.4
711.44	1889.55
711.632	1869.98
711.824	1917.26
712.016	1959.3
712.207	1969.76
712.399	2002.31
712.591	2062.76
712.783	2026.34
712.975	2040.48
713.166	1993.21
713.358	2036.03
713.55	2120.31
713.741	2110.62
713.933	2130.57
714.125	2151.69
714.316	2090.86
714.508	2185.99
714.7	2201.1
714.891	2225.7
715.083	2233.65
715.274	2239.85
715.466	2276.47
715.657	2341.56
715.849	2217.95
716.04	2260.58
716.232	2208.46
716.423	2322.19
716.615	2224.93
716.806	2214.27
716.998	2200.32
717.189	2137.74
717.381	2060.63
717.572	2048.81
717.763	2077.49
717.955	2065.47
718.146	2055.4
718.337	1998.05
718.528	1949.61
718.72	1908.93
718.911	2003.28
719.102	1948.06
719.293	1999.99
719.485	1989.53
719.676	1972.48
719.867	1930.05
720.058	1961.82
720.249	1998.44
720.44	1960.66
720.632	2064.31
720.823	2096.09
721.014	2168.16
721.205	2238.1
721.396	2300.3
721.587	2423.71
721.778	2402.21
721.969	2467.11
722.16	2534.92
722.351	2526.59
722.542	2666.48
722.733	2702.9
722.924	2609.13
723.115	2658.92
723.305	2632.38
723.496	2669.58
723.687	2620.17
723.878	2566.89
724.069	2601.96
724.26	2607.39
724.45	2528.14
724.641	2524.66
724.832	2597.7
725.023	2599.44
725.213	2561.66
725.404	2553.91
725.595	2542.09
725.785	2555.07
725.976	2648.85
726.167	2633.35
726.357	2630.05
726.548	2751.73
726.739	2677.13
726.929	2727.9
727.12	2783.5
727.31	2819.35
727.501	2774.2
727.691	2775.75
727.882	2800.16
728.072	2866.43
728.263	2844.14
728.453	2938.89
728.644	2916.41
728.834	2885.22
729.024	2869.14
729.215	2840.08
729.405	2936.76
729.596	2941.21
729.786	3012.12
729.976	3007.47
730.167	3007.47
730.357	2986.36
730.547	3014.64
730.737	3054.94
730.928	3118.68
731.118	3135.93
731.308	3125.66
731.498	3106.67
731.688	3208
731.879	3203.93
732.069	3235.13
732.259	3268.26
732.449	3329.29
732.639	3427.13
732.829	3441.08
733.019	3455.03
733.209	3498.43
733.399	3520.9
733.589	3630.18
733.779	3606.93
733.969	3627.08
734.159	3732.67
734.349	3729.38
734.539	3781.88
734.729	3807.07
734.919	3783.43
735.109	3886.12
735.299	3791.76
735.488	3820.63
735.678	3865.77
735.868	3852.21
736.058	3896.39
736.248	3830.71
736.437	3837.68
736.627	3798.54
736.817	3953.15
737.007	3883.99
737.196	3941.92
737.386	3902.2
737.576	3888.64
737.765	3940.17
737.955	3987.45
738.144	4072.7
738.334	4006.24
738.524	3971.56
738.713	4023.29
738.903	4010.31
739.092	4059.71
739.282	4044.8
739.471	4038.4
739.661	4035.11
739.85	4078.31
740.04	4082.38
740.229	4122.49
740.419	4167.83
740.608	4169.76
740.797	4129.08
740.987	4199.02
741.176	4199.99
741.365	4135.08
741.555	4129.46
741.744	4204.06
741.933	4150.39
742.123	4184.68
742.312	4201.34
742.501	4254.62
742.69	4277.29
742.88	4158.53
743.069	4314.69
743.258	4278.26
743.447	4311.2
743.636	4327.86
743.825	4256.95
744.014	4314.3
744.204	4392.57
744.393	4285.62
744.582	4386.18
744.771	4358.47
744.96	4320.3
745.149	4377.85
745.338	4323.79
745.527	4365.06
745.716	4362.74
745.905	4311.97
746.094	4415.43
746.283	4392.57
746.471	4371.07
746.66	4450.12
746.849	4445.08
747.038	4481.7
747.227	4426.48
747.416	4438.3
747.604	4374.55
747.793	4399.35
747.982	4429.58
748.171	4443.92
748.359	4444.3
748.548	4475.3
748.737	4428.22
748.926	4412.53
749.114	4311.2
749.303	4406.13
749.491	4382.89
749.68	4319.72
749.869	4441.59
750.057	4410.78
750.246	4354.02
750.434	4369.52
750.623	4379.79
750.811	4347.62
751	4437.91
751.188	4389.09
751.377	4360.22
751.565	4389.47
751.754	4329.02
751.942	4333.09
752.131	4400.71
752.319	4321.85
752.507	4333.48
752.696	4374.55
752.884	4386.37
753.072	4333.87
753.261	4401.87
753.449	4374.55
753.637	4323.21
753.825	4429.97
754.014	4342.2
754.202	4340.45
754.39	4373.59
754.578	4387.34
754.766	4284.27
754.955	4265.47
755.143	4421.25
755.331	4285.43
755.519	4353.82
755.707	4320.3
755.895	4321.47
756.083	4332.32
756.271	4262.18
756.459	4249.59
756.647	4326.12
756.835	4259.27
757.023	4274.39
757.211	4252.88
757.399	4248.04
757.587	4251.91
757.775	4163.56
757.963	4220.53
758.151	4255.4
758.339	4142.25
758.526	4178.29
758.714	4213.16
758.902	4062.23
759.09	4055.65
759.278	3910.92
759.465	3635.6
759.653	3272.13
759.841	3052.23
760.028	2611.07
760.216	2339.63
760.404	2217.37
760.591	1919.58
760.779	1646.59
760.967	1484.81
761.154	1322.26
761.342	1352.48
761.529	1356.36
761.717	1425.33
761.905	1460.01
762.092	1588.86
762.28	1532.67
762.467	1588.47
762.655	1500.12
762.842	1545.07
763.029	1565.8
763.217	1606.87
763.404	1625.67
763.592	1654.73
763.779	1583.43
763.966	1685.34
764.154	1707.43
764.341	1750.25
764.528	1751.41
764.716	1872.31
764.903	1930.82
765.09	1983.52
765.277	2005.61
765.465	2235.97
765.652	2259.42
765.839	2346.02
766.026	2479.9
766.213	2514.97
766.4	2631.99
766.588	2796.87
766.775	2807.53
766.962	2931.14
767.149	2992.94
767.336	3206.45
767.523	3105.12
767.71	3236.29
767.897	3340.14
768.084	3407.76
768.271	3448.83
768.458	3522.65
768.645	3546.28
768.832	3556.75
769.019	3579.03
769.206	3575.54
769.392	3680.55
769.579	3767.16
769.766	3710
769.953	3665.63
770.14	3771.03
770.327	3743.91
770.513	3780.91
770.7	3864.61
770.887	3760.76
771.073	3795.25
771.26	3808.04
771.447	3784.21
771.634	3757.66
771.82	3850.66
772.007	3732.86
772.193	3801.84
772.38	3831.09
772.567	3747.59
772.753	3729.96
772.94	3847.37
773.126	3797.77
773.313	3834.97
773.499	3775.68
773.686	3772.19
773.872	3754.95
774.059	3797.77
774.245	3713.49
774.432	3751.27
774.618	3669.51
774.804	3755.14
774.991	3674.55
775.177	3747.59
775.363	3697.99
775.55	3736.16
775.736	3643.74
775.922	3700.31
776.109	3665.63
776.295	3669.31
776.481	3723.76
776.667	3746.04
776.853	3666.8
777.04	3647.23
777.226	3704.77
777.412	3728.6
777.598	3637.93
777.784	3610.8
777.97	3606.73
778.156	3660.79
778.342	3644.71
778.528	3571.47
778.715	3537.18
778.901	3513.35
779.087	3603.05
779.272	3545.51
779.458	3517.22
779.644	3590.27
779.83	3517.42
780.016	3598.02
780.202	3545.32
780.388	3497.65
780.574	3450.96
780.76	3527.68
780.946	3558.3
781.131	3517.22
781.317	3463.36
781.503	3455.61
781.689	3477.12
781.874	3575.35
782.06	3447.47
782.246	3467.43
782.432	3453.29
782.617	3458.13
782.803	3527.88
782.989	3374.82
783.174	3466.85
783.36	3393.22
783.545	3418.61
783.731	3424.03
783.916	3325.03
784.102	3425
784.288	3328.71
784.473	3356.22
784.659	3324.25
784.844	3345.18
785.029	3313.01
785.215	3307.78
785.4	3264.38
785.586	3426.36
785.771	3256.05
785.956	3351.18
786.142	3335.68
786.327	3259.73
786.512	3292.28
786.698	3265.74
786.883	3203.93
787.068	3275.81
787.254	3290.15
787.439	3210.71
787.624	3217.88
787.809	3206.45
787.994	3180.68
788.18	3222.73
788.365	3102.41
788.55	3176.23
788.735	3179.52
788.92	3168.09
789.105	3166.54
789.29	3172.35
789.475	3102.6
789.66	3133.6
789.845	3116.17
790.03	3074.9
790.215	3137.67
790.4	3143.29
790.585	3148.91
790.77	3103.38
790.955	3021.04
791.14	3102.6
791.325	3144.26
791.51	2980.16
791.695	3062.3
791.879	3058.24
792.064	2973.18
792.249	3087.1
792.434	3051.84
792.618	3052.62
792.803	3068.12
792.988	3051.45
793.173	3084.59
793.357	3070.44
793.542	3012.12
793.727	3063.27
793.911	3045.06
794.096	3025.1
794.281	3070.44
794.465	3129.92
794.65	3048.16
794.834	3107.64
795.019	3115.78
795.203	3136.32
795.388	3128.57
795.572	3147.55
795.757	3115.97
795.941	3077.61
796.126	3089.23
796.31	3028.4
796.494	3113.07
796.679	3074.9
796.863	3041.96
797.048	3158.21
797.232	3140.58
797.416	3113.65
797.601	3112.68
797.785	3183.01
797.969	3179.71
798.153	3090.98
798.338	3127.79
798.522	3150.85
798.706	3185.91
798.89	3186.11
799.074	3277.36
799.258	3250.63
799.443	3134.96
799.627	3140.38
799.811	3224.28
799.995	3163.83
800.179	3109.58
800.363	3126.82
800.547	3126.24
800.731	3189.98
800.915	3082.26
801.099	3096.79
801.283	3126.24
801.467	3147.75
801.651	3138.64
801.835	3177.78
802.019	3138.25
802.202	3181.07
802.386	3076.64
802.57	3095.63
802.754	3092.72
802.938	3047.97
803.121	3052.23
803.305	3170.61
803.489	3080.32
803.673	3176.61
803.856	3095.82
804.04	3058.82
804.224	3109.58
804.407	3077.03
804.591	3064.05
804.775	3061.14
804.958	3044.67
805.142	3196.18
805.326	3090.59
805.509	3068.7
805.693	3151.23
805.876	3167.12
806.06	3111.13
806.243	3102.99
806.427	3194.63
806.61	3150.85
806.794	3091.56
806.977	3148.13
807.16	3119.85
807.344	3135.35
807.527	3116.55
807.71	3155.88
807.894	3093.88
808.077	3108.42
808.26	3048.16
808.444	3041.38
808.627	3127.02
808.81	3075.67
808.993	3003.79
809.177	3000.89
809.36	3063.27
809.543	3051.65
809.726	2928.42
809.909	2934.82
810.092	2946.06
810.276	2919.71
810.459	2962.52
810.642	2915.06
810.825	2863.52
811.008	2894.33
811.191	2823.03
811.374	2840.46
811.557	2855.77
811.74	2912.92
811.923	2786.6
812.106	2796.29
812.289	2750.18
812.472	2768.97
812.654	2807.14
812.837	2743.2
813.02	2667.25
813.203	2684.5
813.386	2567.67
813.569	2567.86
813.751	2490.94
813.934	2531.05
814.117	2493.46
814.3	2456.65
814.482	2388.45
814.665	2352.61
814.848	2369.66
815.03	2277.43
815.213	2315.6
815.396	2281.89
815.578	2227.25
815.761	2210.4
815.943	2243.72
816.126	2127.67
816.309	2142.2
816.491	2092.41
816.674	1998.83
816.856	2036.03
817.039	2057.92
817.221	2135.42
817.403	2071.29
817.586	2077.68
817.768	2105.19
817.951	2028.08
818.133	1989.91
818.315	2033.89
818.498	2052.3
818.68	2132.7
818.862	2094.73
819.045	2125.73
819.227	2127.67
819.409	2054.82
819.591	2090.08
819.774	2078.84
819.956	2055.59
820.138	2105.77
820.32	2080.2
820.502	2127.67
820.684	2244.3
820.866	2222.41
821.048	2256.51
821.231	2271.04
821.413	2300.68
821.595	2252.25
821.777	2282.47
821.959	2252.83
822.141	2343.11
822.323	2197.22
822.505	2140.84
822.686	2098.22
822.868	2005.03
823.05	1890.52
823.232	1855.45
823.414	1805.08
823.596	1838.79
823.778	1838.4
823.96	1875.21
824.141	1883.93
824.323	1874.25
824.505	1962.4
824.687	2018.39
824.868	2067.8
825.05	2126.12
825.232	2182.11
825.413	2269.3
825.595	2225.9
825.777	2149.75
825.958	2195.48
826.14	2143.55
826.321	2153.05
826.503	2158.86
826.685	2178.62
826.866	2265.42
827.048	2199.94
827.229	2158.67
827.411	2142.59
827.592	2107.13
827.773	2076.71
827.955	2042.22
828.136	2038.54
828.318	1964.92
828.499	2029.44
828.68	1950.78
828.862	2032.34
829.043	2023.82
829.224	1995.53
829.406	1963.56
829.587	1964.92
829.768	1998.24
829.949	2014.52
830.131	1995.53
830.312	2047.07
830.493	1987.39
830.674	2018.39
830.855	1981.78
831.036	1972.86
831.218	2035.06
831.399	2036.8
831.58	1988.17
831.761	1981.19
831.942	2061.6
832.123	1991.46
832.304	1916.87
832.485	1949.23
832.666	1961.82
832.847	2001.15
833.028	1972.67
833.209	1938.96
833.389	1939.73
833.57	1930.24
833.751	1929.46
833.932	2002.12
834.113	1977.9
834.294	1939.15
834.475	1979.45
834.655	2007.35
834.836	2051.33
835.017	1975.38
835.198	1971.31
835.378	1993.4
835.559	2023.04
835.74	1971.7
835.92	1972.86
836.101	1949.03
836.281	1980.61
836.462	1986.43
836.643	2046.29
836.823	2017.23
837.004	2061.79
837.184	2079.04
837.365	2034.67
837.545	2054.82
837.726	2013.74
837.906	2069.74
838.087	2012
838.267	2019.36
838.448	1974.22
838.628	2027.11
838.808	1987.39
838.989	2061.79
839.169	1956.59
839.349	2012.58
839.53	2032.54
839.71	2033.31
839.89	2031.38
840.07	2054.24
840.251	2007.35
840.431	2055.79
840.611	2006.58
840.791	1914.93
840.971	2045.52
841.151	1973.44
841.332	1955.04
841.512	2015.1
841.692	1912.61
841.872	1974.22
842.052	1973.44
842.232	1994.76
842.412	1918.03
842.592	1954.26
842.772	1960.27
842.952	1978.68
843.132	1934.11
843.312	1931.79
843.492	1917.65
843.672	1984.49
843.851	1868.82
844.031	1913.96
844.211	1908.54
844.391	1936.05
844.571	1938.38
844.751	1926.17
844.93	1938.57
845.11	1899.82
845.29	1899.05
845.47	1930.43
845.649	1956.98
845.829	1925.78
846.009	1871.53
846.188	1944.58
846.368	1917.45
846.547	1922.68
846.727	1931.01
846.907	1856.81
847.086	1902.34
847.266	1928.5
847.445	1895.95
847.625	1864.75
847.804	1838.21
847.984	1871.92
848.163	1817.09
848.343	1830.07
848.522	1883.35
848.701	1847.12
848.881	1831.62
849.06	1857.2
849.239	1848.87
849.419	1877.54
849.598	1781.63
849.777	1772.92
849.957	1755.09
850.136	1703.55
850.315	1682.82
850.494	1701.23
850.674	1697.74
850.853	1782.41
851.032	1724.67
851.211	1782.41
851.39	1730.29
851.569	1679.14
851.748	1694.64
851.927	1769.43
852.107	1741.14
852.286	1682.63
852.465	1697.55
852.644	1769.24
852.823	1738.43
853.002	1729.32
853.181	1702.97
853.359	1749.09
853.538	1653.96
853.717	1734.94
853.896	1623.73
854.075	1546.81
854.254	1572
854.433	1442
854.611	1504.38
854.79	1420.68
854.969	1511.55
855.148	1481.71
855.327	1485.59
855.505	1554.56
855.684	1515.81
855.863	1566.38
856.041	1571.81
856.22	1582.66
856.399	1534.8
856.577	1639.42
856.756	1636.52
856.934	1753.15
857.113	1768.27
857.291	1650.27
857.47	1650.66
857.648	1650.27
857.827	1650.27
858.005	1702.2
858.184	1601.06
858.362	1721.38
858.541	1625.86
858.719	1602.61
858.898	1606.1
859.076	1589.44
859.254	1693.67
859.433	1605.91
859.611	1611.72
859.789	1560.76
859.967	1629.74
860.146	1667.71
860.324	1549.53
860.502	1567.35
860.68	1558.24
860.859	1544.49
861.037	1568.9
861.215	1600.29
861.393	1577.81
861.571	1587.5
861.749	1560.18
861.927	1596.99
862.105	1581.49
862.283	1544.1
862.461	1547.39
862.639	1524.14
862.817	1562.31
862.995	1536.16
863.173	1506.71
863.351	1524.73
863.529	1578.59
863.707	1576.07
863.885	1558.05
864.063	1457.69
864.241	1531.51
864.418	1591.18
864.596	1504.58
864.774	1477.26
864.952	1467.57
865.129	1509.61
865.307	1487.33
865.485	1432.7
865.663	1517.36
865.84	1422.04
866.018	1420.49
866.196	1283.32
866.373	1354.42
866.551	1316.45
866.728	1238.17
866.906	1291.26
867.084	1318.77
867.261	1333.89
867.439	1360.82
867.616	1407.12
867.794	1404.41
867.971	1405.57
868.149	1395.88
868.326	1453.81
868.503	1429.6
868.681	1421.46
868.858	1367.98
869.035	1360.23
869.213	1430.76
869.39	1389.68
869.567	1473.77
869.745	1377.87
869.922	1424.75
870.099	1419.13
870.276	1465.83
870.454	1416.62
870.631	1402.28
870.808	1388.91
870.985	1438.51
871.162	1466.41
871.339	1419.72
871.517	1332.72
871.694	1346.28
871.871	1380.58
872.048	1356.75
872.225	1361.98
872.402	1392.78
872.579	1339.7
872.756	1380.97
872.933	1316.84
873.11	1335.44
873.287	1362.56
873.463	1316.84
873.64	1299.98
873.817	1346.09
873.994	1352.1
874.171	1295.52
874.348	1323.81
874.524	1248.06
874.701	1335.24
874.878	1243.41
875.055	1333.3
875.231	1319.74
875.408	1291.65
875.585	1242.05
875.762	1274.6
875.938	1271.11
876.115	1272.08
876.291	1273.63
876.468	1264.52
876.645	1214.92
876.821	1250.19
876.998	1244.76
877.174	1260.84
877.351	1274.99
877.527	1207.76
877.704	1247.28
877.88	1240.5
878.057	1200.78
878.233	1304.63
878.409	1200.78
878.586	1257.35
878.762	1247.28
878.938	1224.61
879.115	1132
879.291	1184.51
879.467	1170.94
879.644	1195.74
879.82	1242.05
879.996	1159.71
880.172	1125.99
880.349	1200.2
880.525	1221.32
880.701	1126.77
880.877	1146.73
881.053	1180.24
881.229	1182.37
881.405	1229.84
881.581	1162.23
881.757	1154.09
881.933	1173.46
882.109	1211.05
882.285	1197.29
882.461	1114.18
882.637	1205.24
882.813	1153.89
882.989	1146.92
883.165	1245.15
883.341	1170.56
883.517	1224.81
883.693	1166.68
883.869	1209.5
884.044	1124.64
884.22	1214.54
884.396	1233.91
884.572	1169.59
884.747	1220.35
884.923	1187.41
885.099	1209.31
885.275	1221.32
885.45	1153.51
885.626	1150.99
885.801	1153.89
885.977	1164.55
886.153	1096.54
886.328	1199.42
886.504	1163.78
886.679	1166.87
886.855	1150.79
887.03	1175.79
887.206	1204.85
887.381	1210.27
887.557	1183.73
887.732	1216.28
887.908	1189.16
888.083	1194.97
888.258	1127.35
888.434	1140.91
888.609	1159.9
888.784	1230.42
888.96	1201.17
889.135	1111.66
889.31	1137.23
889.485	1149.63
889.661	1150.99
889.836	1194.58
890.011	1210.08
890.186	1163.97
890.361	1111.08
890.537	1170.56
890.712	1170.56
890.887	1151.38
891.062	1166.1
891.237	1222.48
891.412	1125.61
891.587	1191.48
891.762	1180.24
891.937	1203.69
892.112	1139.94
892.287	1137.23
892.462	1103.52
892.637	1108.75
892.812	1110.11
892.987	1094.99
893.161	1056.63
893.336	1077.36
893.511	1094.22
893.686	1106.81
893.861	1074.26
894.035	1069.42
894.21	1108.17
894.385	1038.61
894.56	1084.34
894.734	1011.1
894.909	1014.4
895.084	1007.61
895.258	988.05
895.433	1021.76
895.608	1007.61
895.782	941.16
895.957	955.3
896.131	960.34
896.306	870.25
896.48	873.35
896.655	912.29
896.829	818.52
897.004	840.8
897.178	852.04
897.353	839.83
897.527	887.3
897.701	884.78
897.876	802.24
898.05	887.69
898.224	845.64
898.399	921.4
898.573	832.27
898.747	734.24
898.921	804.18
899.096	703.24
899.27	684.83
899.444	728.23
899.618	718.93
899.792	735.79
899.967	723.19
900.141	825.88
900.315	729.97
900.489	736.76
900.663	743.92
900.837	749.93
901.011	686.58
901.185	821.23
901.359	747.22
901.533	770.66
901.707	763.88
901.881	749.54
902.055	692.58
902.229	741.6
902.403	798.37
902.576	746.64
902.75	745.47
902.924	866.57
903.098	779.19
903.272	835.18
903.446	870.64
903.619	852.81
903.793	886.72
903.967	878.97
904.14	921.59
904.314	894.08
904.488	891.17
904.661	932.63
904.835	891.56
905.009	929.92
905.182	961.12
905.356	903.77
905.529	887.1
905.703	885.55
905.876	890.01
906.05	857.07
906.223	860.75
906.397	773.76
906.57	768.53
906.744	740.63
906.917	755.74
907.09	743.54
907.264	735.4
907.437	706.14
907.61	679.02
907.784	679.21
907.957	707.89
908.13	647.24
908.304	707.11
908.477	646.28
908.65	670.69
908.823	662.36
908.996	752.06
909.17	670.69
909.343	675.34
909.516	686.38
909.689	682.31
909.862	636.98
910.035	676.31
910.208	625.93
910.381	620.7
910.554	730.56
910.727	643.56
910.9	622.25
911.073	625.35
911.246	737.53
911.419	703.63
911.592	687.16
911.765	626.9
911.938	652.28
912.11	657.71
912.283	675.14
912.456	700.53
912.629	680.38
912.802	664.29
912.974	641.43
913.147	573.04
913.32	519.95
913.493	573.62
913.665	587.57
913.838	601.13
914.01	555.99
914.183	580.98
914.356	573.62
914.528	633.1
914.701	687.93
914.873	650.93
915.046	608.3
915.218	539.13
915.391	506.39
915.563	507.17
915.736	570.33
915.908	583.7
916.081	561.41
916.253	573.43
916.425	578.46
916.598	603.46
916.77	606.75
916.942	525.18
917.115	516.85
917.287	552.31
917.459	537
917.632	510.65
917.804	452.92
917.976	510.46
918.148	542.23
918.32	553.47
918.493	549.6
918.665	609.46
918.837	580.21
919.009	612.76
919.181	643.37
919.353	595.71
919.525	590.86
919.697	574.2
919.869	572.07
920.041	627.48
920.213	701.3
920.385	639.69
920.557	590.28
920.729	604.04
920.901	601.33
921.073	579.24
921.244	581.56
921.416	615.47
921.588	559.09
921.76	576.53
921.932	649.76
922.103	572.26
922.275	555.02
922.447	602.88
922.619	530.61
922.79	578.66
922.962	544.37
923.134	608.5
923.305	519.57
923.477	507.17
923.648	513.95
923.82	527.7
923.991	494.57
924.163	477.33
924.335	513.56
924.506	492.63
924.677	580.98
924.849	457.57
925.02	513.95
925.192	545.92
925.363	541.85
925.535	530.61
925.706	492.44
925.877	537.2
926.049	473.84
926.22	525.96
926.391	521.89
926.562	519.37
926.734	502.71
926.905	549.98
927.076	421.53
927.247	480.23
927.419	425.6
927.59	431.41
927.761	447.88
927.932	434.7
928.103	460.67
928.274	383.36
928.445	375.81
928.616	385.49
928.787	383.75
928.958	432.38
929.129	377.36
929.3	388.4
929.471	323.3
929.642	278.35
929.813	242.51
929.984	368.44
930.155	254.13
930.326	291.33
930.496	309.74
930.667	204.92
930.838	252.97
931.009	214.8
931.18	215.58
931.35	216.16
931.521	221.58
931.692	197.17
931.863	138.27
932.033	194.07
932.204	210.93
932.374	192.33
932.545	155.9
932.716	195.43
932.886	207.44
933.057	92.74
933.227	125.1
933.398	206.08
933.568	110.76
933.739	94.1
933.909	83.25
934.08	157.06
934.25	68.91
934.421	64.07
934.591	124.9
934.761	95.07
934.932	58.06
935.102	107.85
935.272	85.57
935.443	102.62
935.613	52.44
935.783	100.49
935.953	54.18
936.123	222.36
936.294	60.77
936.464	91.97
936.634	113.28
936.804	36.17
936.974	16.99
937.144	105.33
937.314	114.25
937.484	73.37
937.655	50.5
937.825	111.92
937.995	71.82
938.165	134.4
938.334	93.13
938.504	106.11
938.674	109.6
938.844	91.58
939.014	181.28
939.184	162.88
939.354	199.69
939.524	173.15
939.694	163.65
939.863	157.26
940.033	229.72
940.203	221.19
940.373	176.63
940.542	206.86
940.712	161.52
940.882	172.76
941.051	214.99
941.221	184
941.391	195.62
941.56	156.68
941.73	146.6
941.899	240.96
942.069	151.83
942.238	172.76
942.408	157.45
942.577	188.84
942.747	136.53
942.916	65.03
943.086	128.78
943.255	160.16
943.425	150.48
943.594	117.35
943.763	71.82
943.933	67.36
944.102	17.95
944.271	97.78
944.441	124.51
944.61	101.65
944.779	124.9
944.948	214.8
945.117	95.45
945.287	81.31
945.456	49.92
945.625	64.45
945.794	131.68
945.963	87.9
946.132	120.06
946.301	128.97
946.47	143.7
946.639	58.06
946.808	95.84
946.977	160.94
947.146	165.78
947.315	110.76
947.484	138.08
947.653	127.03
947.822	72.78
947.991	102.04
948.16	181.28
948.329	154.74
948.498	116.38
948.666	136.53
948.835	146.21
949.004	86.35
949.173	70.46
949.341	102.43
949.51	138.08
949.679	164.43
949.847	111.15
950.016	197.75
950.185	191.16
950.353	81.89
950.522	116.18
950.69	191.36
950.859	113.28
951.028	147.57
951.196	120.25
951.365	107.47
951.533	129.16
951.701	139.63
951.87	131.88
952.038	88.28
952.207	95.84
952.375	167.72
952.543	100.1
952.712	114.25
952.88	66.97
953.048	184.58
953.217	133.62
953.385	142.53
953.553	149.12
953.721	96.23
953.89	110.57
954.058	55.35
954.226	109.21
954.394	129.36
954.562	65.62
954.73	108.24
954.898	125.87
955.067	140.4
955.235	111.92
955.403	133.04
955.571	170.24
955.739	136.72
955.907	106.3
956.075	94.1
956.243	63.48
956.41	133.62
956.578	74.14
956.746	82.28
956.914	100.1
957.082	148.15
957.25	123.93
957.418	93.71
957.585	110.76
957.753	176.05
957.921	62.32
958.089	91
958.256	141.76
958.424	123.93
958.592	128
958.759	82.67
958.927	115.02
959.095	97.58
959.262	90.8
959.43	128.39
959.597	84.22
959.765	113.08
959.932	67.17
960.1	140.98
960.267	88.67
960.435	132.46
960.602	136.72
960.77	96.23
960.937	92.93
961.104	135.56
961.272	61.16
961.439	107.27
961.606	118.31
961.774	155.9
961.941	101.85
962.108	143.89
962.275	121.61
962.443	142.92
962.61	133.81
962.777	199.88
962.944	155.51
963.111	123.16
963.278	130.91
963.446	131.3
963.613	128.78
963.78	148.35
963.947	151.64
964.114	115.8
964.281	202.4
964.448	131.3
964.615	98.17
964.782	124.13
964.949	181.28
965.116	156.29
965.282	194.07
965.449	98.36
965.616	79.18
965.783	156.68
965.95	161.91
966.117	81.12
966.283	145.44
966.45	147.76
966.617	119.28
966.784	166.56
966.95	162.49
967.117	169.66
967.284	90.22
967.45	98.94
967.617	166.56
967.784	166.17
967.95	191.36
968.117	137.88
968.283	190.97
968.45	225.65
968.616	149.7
968.783	176.05
968.949	147.96
969.116	173.73
969.282	139.24
969.449	164.23
969.615	159.39
969.781	124.13
969.948	111.73
970.114	72.78
970.28	186.32
970.447	136.33
970.613	184.96
970.779	156.68
970.945	170.63
971.112	138.08
971.278	137.3
971.444	157.84
971.61	188.65
971.776	133.81
971.942	157.84
972.108	179.35
972.275	135.95
972.441	188.26
972.607	214.61
972.773	127.61
972.939	173.34
973.105	112.89
973.271	113.28
973.437	124.9
973.602	101.46
973.768	163.07
973.934	113.86
974.1	141.37
974.266	34.03
974.432	128.58
974.598	99.52
974.763	145.83
974.929	92.35
975.095	199.69
975.261	101.85
975.426	103.98
975.592	128.39
975.758	183.03
975.923	44.88
976.089	93.71
976.255	163.65
976.42	142.53
976.586	134.01
976.751	131.3
976.917	212.48
977.082	160.94
977.248	97.2
977.413	72.01
977.579	128.97
977.744	152.03
977.91	59.8
978.075	74.14
978.24	162.49
978.406	149.51
978.571	136.33
978.736	80.53
978.902	158.81
979.067	71.04
979.232	23.38
979.397	131.68
979.563	196.4
979.728	85.96
979.893	129.16
980.058	95.84
980.223	153.96
980.388	110.37
980.554	112.7
980.719	71.23
980.884	127.61
981.049	178.57
981.214	82.86
981.379	127.42
981.544	90.61
981.709	111.53
981.874	112.12
982.039	129.36
982.204	154.16
982.368	104.17
982.533	92.35
982.698	148.35
982.863	170.82
983.028	86.93
983.193	141.76
983.357	138.66
983.522	128.97
983.687	124.32
983.852	106.11
984.016	96.81
984.181	103.78
984.346	121.61
984.51	149.12
984.675	115.22
984.839	176.44
985.004	118.12
985.168	173.73
985.333	125.29
985.498	97.97
985.662	160.16
985.827	147.38
985.991	128.58
986.155	97.2
986.32	133.81
986.484	175.66
986.649	122.19
986.813	50.89
986.977	129.55
987.142	128.97
987.306	71.04
987.47	96.23
987.634	99.72
987.799	125.68
987.963	119.86
988.127	143.11
988.291	184
988.455	118.12
988.62	87.32
988.784	116.38
988.948	159
989.112	57.48
989.276	111.34
989.44	124.9
989.604	94.68
989.768	109.21
989.932	202.01
990.096	91.38
990.26	72.01
990.424	78.4
990.588	108.24
990.752	159.97
990.915	136.91
991.079	107.08
991.243	85.96
991.407	126.06
991.571	89.25
991.734	125.68
991.898	122.38
992.062	186.71
992.226	86.15
992.389	78.6
992.553	56.12
992.717	77.63
992.88	80.34
993.044	101.65
993.207	103.59
993.371	135.56
993.535	109.79
993.698	99.13
993.862	115.22
994.025	126.45
994.189	107.66
994.352	83.44
994.515	101.27
994.679	140.4
994.842	75.3
995.006	121.8
995.169	79.95
995.332	61.16
995.496	146.8
995.659	60
995.822	92.35
995.985	84.99
996.149	135.75
996.312	89.25
996.475	154.93
996.638	80.15
996.801	146.99
996.964	141.37
997.128	56.32
997.291	82.08
997.454	87.12
997.617	23.38
997.78	167.91
997.943	64.45
998.106	143.11
998.269	55.35
998.432	105.53
998.595	106.69
998.758	35.39
998.92	83.25
999.083	26.29
999.246	54.96
999.409	75.11
999.572	12.34
999.735	60
999.897	77.24
1000.06	77.05
1000.223	61.16
1000.386	112.89
1000.548	115.22
1000.711	118.12
1000.874	90.61
1001.036	4.39
1001.199	126.45
1001.361	42.17
1001.524	80.92
1001.687	118.31
1001.849	52.25
1002.012	87.32
1002.174	64.07
1002.337	97.97
1002.499	70.85
1002.661	115.8
1002.824	42.95
1002.986	55.15
1003.149	86.15
1003.311	35
1003.473	116.96
1003.636	36.94
1003.798	110.57
1003.96	99.72
1004.123	54.96
1004.285	40.04
1004.447	66.2
1004.609	79.18
1004.771	124.71
1004.933	10.98
1005.096	36.36
1005.258	15.63
1005.42	62.13
1005.582	86.73
1005.744	63.29
1005.906	51.28
1006.068	72.4
1006.23	-12.85
1006.392	-4.91
1006.554	58.83
1006.716	97.97
1006.878	66.2
1007.04	10.4
1007.202	21.83
1007.363	72.2
1007.525	55.35
1007.687	107.66
1007.849	107.85
1008.011	8.07
1008.172	20.47
1008.334	67.36
1008.496	53.8
1008.658	-7.04
1008.819	7.69
1008.981	22.22
1009.143	42.75
1009.304	27.64
1009.466	80.34
1009.627	111.73
1009.789	168.88
1009.95	58.25
1010.112	34.62
1010.273	66.78
1010.435	52.63
1010.596	45.08
1010.758	43.33
1010.919	37.91
1011.081	13.69
1011.242	37.13
1011.403	72.98
1011.565	35.39
1011.726	68.33
1011.887	3.81
1012.049	35
1012.21	70.65
1012.371	123.35
1012.532	-14.01
1012.693	34.81
1012.855	37.91
1013.016	42.75
1013.177	69.1
1013.338	41.78
1013.499	126.06
1013.66	88.48
1013.821	76.27
1013.982	52.63
1014.143	49.34
1014.304	20.86
1014.465	59.03
1014.626	74.14
1014.787	40.82
1014.948	121.22
1015.109	-28.55
1015.27	100.68
1015.431	21.64
1015.592	34.62
1015.752	75.69
1015.913	65.81
1016.074	52.63
1016.235	41.78
1016.395	54.57
1016.556	18.54
1016.717	38.3
1016.877	59.42
1017.038	21.83
1017.199	46.63
1017.359	41.98
1017.52	55.35
1017.681	23.38
1017.841	42.75
1018.002	29
1018.162	-6.07
1018.323	94.1
1018.483	45.27
1018.644	45.08
1018.804	-10.14
1018.964	2.84
1019.125	25.7
1019.285	49.53
1019.446	17.57
1019.606	20.86
1019.766	-19.05
1019.926	45.85
1020.087	35.39
1020.247	-3.75
1020.407	65.81
1020.567	86.35
1020.728	15.82
1020.888	30.74
1021.048	22.41
1021.208	7.1
1021.368	0.9
1021.528	73.75
1021.688	78.79
1021.848	49.15
1022.008	73.37
1022.168	26.48
1022.328	41.59
1022.488	60.38
1022.648	-1.81
1022.808	50.12
1022.968	71.43
1023.128	0.32
1023.288	18.73
1023.448	41.98
1023.608	65.81
1023.767	42.56
1023.927	12.72
1024.087	12.72
1024.247	-7.43
1024.406	42.56
1024.566	-8.78
1024.726	-8.98
1024.885	40.82
1025.045	44.5
1025.205	17.18
1025.364	50.31
1025.524	40.82
1025.683	11.37
1025.843	61.16
1026.003	22.41
1026.162	106.69
1026.321	63.29
1026.481	15.44
1026.64	32.48
1026.8	40.82
1026.959	41.98
1027.119	27.25
1027.278	22.02
1027.437	37.13
1027.597	57.87
1027.756	42.37
1027.915	50.12
1028.074	46.05
1028.234	-4.91
1028.393	49.15
1028.552	17.76
1028.711	-26.8
1028.87	60.77
1029.03	-12.08
1029.189	18.34
1029.348	-64.58
1029.507	-0.06
1029.666	14.47
1029.825	8.46
1029.984	-1.81
1030.143	24.35
1030.302	14.08
1030.461	-39.2
1030.62	49.92
1030.779	64.65
1030.938	10.79
1031.097	-15.76
1031.255	39.46
1031.414	86.35
1031.573	45.27
1031.732	-11.5
1031.891	29.77
1032.049	79.95
1032.208	42.56
1032.367	8.65
1032.525	26.87
1032.684	-8.59
1032.843	27.06
1033.001	-24.67
1033.16	189.23
1033.319	47.6
1033.477	65.42
1033.636	3.81
1033.794	-3.94
1033.953	27.06
1034.111	38.88
1034.27	-5.88
1034.428	21.05
1034.587	-38.81
1034.745	28.8
1034.903	36.55
1035.062	19.31
1035.22	-18.66
1035.378	60.19
1035.537	-4.71
1035.695	56.51
1035.853	3.81
1036.011	41.98
1036.17	38.88
1036.328	-46.95
1036.486	57.09
1036.644	51.08
1036.802	-71.94
1036.96	12.72
1037.119	15.44
1037.277	-13.05
1037.435	-43.66
1037.593	-17.11
1037.751	19.89
1037.909	38.3
1038.067	38.3
