Data from gum_old_FLMT105791__185__15-48-12-249.txt Node

Date: Mon Mar 20 15:48:12 GMT 2023
User: antho
Spectrometer: FLMT10579
Trigger mode: 0
Integration Time (sec): 1.000000E-1
Scans to average: 10
Electric dark correction enabled: true
Nonlinearity correction enabled: false
Boxcar width: 0
XAxis mode: Wavelengths
Number of Pixels in Spectrum: 3648
>>>>>Begin Spectral Data<<<<<
345.248	-179.93
345.464	-179.93
345.681	-179.93
345.898	-172.76
346.114	-179.15
346.331	-30.93
346.548	37.46
346.764	-0.71
346.981	-10.79
347.197	-8.46
347.414	12.66
347.631	-25.12
347.847	50.05
348.064	-29.77
348.28	28.35
348.497	-55.93
348.713	33.2
348.93	67.29
349.146	54.51
349.363	-9.43
349.579	30.29
349.796	17.31
350.012	-28.8
350.229	71.56
350.445	4.13
350.661	-8.85
350.878	16.15
351.094	38.62
351.311	25.45
351.527	33.2
351.743	10.53
351.96	68.46
352.176	47.15
352.392	53.54
352.609	56.25
352.825	30.1
353.041	15.56
353.257	53.35
353.474	66.52
353.69	49.47
353.906	26.03
354.122	-12.72
354.339	70.39
354.555	19.83
354.771	23.7
354.987	75.82
355.203	97.33
355.42	13.05
355.636	-8.85
355.852	15.95
356.068	44.43
356.284	-8.46
356.5	86.28
356.716	44.24
356.932	24.48
357.148	58.19
357.364	28.16
357.58	71.75
357.796	98.88
358.012	81.63
358.228	64.78
358.444	-40.43
358.66	100.62
358.876	59.54
359.092	19.83
359.308	53.15
359.524	62.45
359.74	0.84
359.956	15.56
360.172	32.42
360.388	109.92
360.604	2
360.819	110.11
361.035	37.65
361.251	72.72
361.467	25.83
361.683	78.34
361.898	64.58
362.114	73.49
362.33	29.13
362.546	89.19
362.762	43.08
362.977	19.44
363.193	-3.62
363.409	65.55
363.624	18.86
363.84	-0.9
364.056	25.45
364.271	54.51
364.487	84.93
364.703	46.95
364.918	6.85
365.134	35.91
365.35	52.38
365.565	159.13
365.781	65.74
365.996	32.03
366.212	116.89
366.427	45.79
366.643	19.05
366.858	39.59
367.074	11.69
367.289	117.67
367.505	156.03
367.72	-3.42
367.936	37.46
368.151	96.55
368.367	100.23
368.582	72.53
368.798	50.25
369.013	113.21
369.228	63.03
369.444	44.82
369.659	105.46
369.874	70.39
370.09	112.05
370.305	-15.05
370.52	64.78
370.736	110.31
370.951	52.38
371.166	109.92
371.381	131.23
371.597	63.81
371.812	36.49
372.027	38.23
372.242	64.58
372.458	127.55
372.673	38.04
372.888	68.84
373.103	76.59
373.318	167.66
373.533	63.03
373.749	70.01
373.964	-3.62
374.179	93.84
374.394	24.09
374.609	108.56
374.824	29.71
375.039	102.36
375.254	39.78
375.469	119.61
375.684	65.55
375.899	99.07
376.114	68.26
376.329	101.01
376.544	111.08
376.759	104.3
376.974	45.4
377.189	52.38
377.404	69.62
377.619	105.08
377.834	40.17
378.049	4.13
378.264	41.91
378.478	98.49
378.693	62.84
378.908	108.37
379.123	101.01
379.338	115.34
379.553	62.26
379.767	87.25
379.982	68.84
380.197	101.2
380.412	82.99
380.626	82.21
380.841	180.44
381.056	118.06
381.271	165.52
381.485	76.79
381.7	60.32
381.915	82.79
382.129	53.73
382.344	71.36
382.559	64.97
382.773	136.08
382.988	29.9
383.202	73.11
383.417	60.32
383.632	174.63
383.846	68.07
384.061	74.66
384.275	65.55
384.49	80.08
384.704	94.23
384.919	90.54
385.133	72.53
385.348	107.59
385.562	76.21
385.777	132.01
385.991	89.19
386.206	77.76
386.42	79.11
386.634	164.56
386.849	100.23
387.063	113.79
387.277	71.36
387.492	63.03
387.706	63.61
387.92	76.01
388.135	123.48
388.349	111.08
388.563	80.66
388.778	99.26
388.992	99.84
389.206	136.08
389.42	161.46
389.635	101.01
389.849	138.98
390.063	155.64
390.277	136.08
390.491	176.96
390.706	171.53
390.92	161.65
391.134	133.17
391.348	172.69
391.562	95.78
391.776	105.27
391.99	111.08
392.205	178.7
392.419	104.11
392.633	126.78
392.847	187.61
393.061	104.49
393.275	170.17
393.489	95.19
393.703	101.59
393.917	108.95
394.131	47.92
394.345	132.2
394.559	152.16
394.773	91.9
394.986	142.47
395.2	144.99
395.414	175.21
395.628	103.14
395.842	162.04
396.056	151.96
396.27	83.76
396.484	151.57
396.697	176.76
396.911	173.66
397.125	140.73
397.339	125.81
397.553	125.61
397.766	203.5
397.98	170.17
398.194	196.72
398.408	155.64
398.621	181.8
398.835	207.76
399.049	215.9
399.262	255.23
399.476	217.26
399.69	251.74
399.903	290.88
400.117	219.39
400.331	245.15
400.544	196.91
400.758	336.8
400.971	236.05
401.185	241.86
401.398	196.52
401.612	272.86
401.826	272.86
402.039	250.19
402.253	224.81
402.466	256.2
402.68	240.5
402.893	257.94
403.106	268.79
403.32	247.67
403.533	263.37
403.747	229.27
403.96	261.43
404.174	289.72
404.387	219.58
404.6	248.84
404.814	286.23
405.027	265.89
405.24	242.44
405.454	244.19
405.667	290.1
405.88	197.3
406.094	260.46
406.307	317.81
406.52	274.02
406.733	207.96
406.947	220.55
407.16	331.37
407.373	304.64
407.586	227.33
407.799	229.27
408.012	309.48
408.226	275.96
408.439	337.96
408.652	231.59
408.865	287.59
409.078	336.8
409.291	304.05
409.504	231.4
409.717	309.87
409.93	329.24
410.143	283.9
410.357	231.21
410.57	219.97
410.783	264.34
410.996	275.77
411.209	286.04
411.421	346.29
411.634	318.59
411.847	297.27
412.06	328.08
412.273	313.74
412.486	295.53
412.699	392.4
412.912	290.1
413.125	328.08
413.338	334.86
413.55	318.97
413.763	317.81
413.976	324.4
414.189	287.2
414.402	309.09
414.615	363.15
414.827	280.8
415.04	356.56
415.253	369.35
415.466	376.13
415.678	401.12
415.891	357.92
416.104	342.42
416.316	338.54
416.529	339.12
416.742	370.9
416.954	414.49
417.167	366.44
417.38	359.27
417.592	389.5
417.805	326.72
418.017	288.17
418.23	372.64
418.442	316.45
418.655	326.72
418.868	358.5
419.08	369.54
419.293	414.68
419.505	358.69
419.718	367.22
419.93	414.68
420.142	323.62
420.355	396.08
420.567	407.13
420.78	377.48
420.992	344.74
421.205	440.84
421.417	344.74
421.629	392.98
421.842	322.27
422.054	343.77
422.266	411.78
422.479	414.49
422.691	349
422.903	386.98
423.115	330.4
423.328	373.42
423.54	371.48
423.752	391.82
423.964	382.91
424.177	362.18
424.389	385.62
424.601	508.46
424.813	404.8
425.025	448.59
425.238	412.55
425.45	392.98
425.662	379.23
425.874	722.35
426.086	408.68
426.298	443.16
426.51	421.66
426.722	390.47
426.934	402.09
427.146	439.48
427.358	354.04
427.57	428.25
427.782	417.01
427.994	407.71
428.206	383.68
428.418	365.28
428.63	456.73
428.842	465.06
429.054	419.33
429.266	473.97
429.478	388.33
429.69	413.71
429.902	361.4
430.114	427.66
430.325	398.8
430.537	340.87
430.749	348.23
430.961	302.7
431.173	343.38
431.384	371.67
431.596	268.6
431.808	356.56
432.02	409.65
432.231	450.91
432.443	515.43
432.655	484.24
432.867	442.97
433.078	475.33
433.29	545.46
433.502	499.93
433.713	524.15
433.925	501.29
434.136	515.82
434.348	423.79
434.56	380.39
434.771	519.11
434.983	385.43
435.194	460.02
435.406	477.07
435.617	532.48
435.829	569.49
436.04	505.16
436.252	530.93
436.463	557.67
436.675	568.13
436.886	558.64
437.098	599.52
437.309	646.21
437.521	569.88
437.732	584.6
437.943	543.72
438.155	534.03
438.366	459.63
438.578	599.13
438.789	520.08
439	534.03
439.211	520.47
439.423	529.58
439.634	547.98
439.845	557.86
440.057	571.81
440.268	605.52
440.479	564.84
440.69	576.46
440.902	566.58
441.113	550.5
441.324	528.41
441.535	590.02
441.746	628.19
441.957	553.99
442.168	583.63
442.38	649.7
442.591	631.49
442.802	578.4
443.013	621.41
443.224	642.14
443.435	605.33
443.646	590.61
443.857	585.18
444.068	613.27
444.279	576.27
444.49	706.66
444.701	615.41
444.912	766.33
445.123	704.53
445.334	645.24
445.545	684.96
445.756	669.66
445.967	585.96
446.178	629.16
446.388	667.14
446.599	670.82
446.81	646.21
447.021	624.51
447.232	696.39
447.443	719.84
447.653	643.31
447.864	720.61
448.075	671.01
448.286	708.21
448.496	702.2
448.707	715.57
448.918	671.98
449.129	773.7
449.339	658.61
449.55	684.57
449.761	687.67
449.971	723.52
450.182	691.74
450.393	767.3
450.603	708.02
450.814	719.64
451.024	772.53
451.235	780.09
451.446	779.32
451.656	803.34
451.867	704.92
452.077	752.97
452.288	820.97
452.498	754.32
452.709	711.89
452.919	746.57
453.13	673.72
453.34	732.43
453.55	675.66
453.761	754.32
453.971	729.33
454.182	730.3
454.392	752.58
454.602	814
454.813	798.11
455.023	759.36
455.233	690.58
455.444	778.93
455.654	653.57
455.864	735.14
456.075	739.02
456.285	707.05
456.495	764.98
456.705	760.72
456.916	846.16
457.126	831.82
457.336	760.33
457.546	682.83
457.756	765.75
457.967	840.15
458.177	752.97
458.387	804.89
458.597	744.44
458.807	764.2
459.017	743.86
459.227	736.5
459.437	749.87
459.647	806.25
459.857	822.52
460.068	757.42
460.278	842.09
460.488	804.89
460.698	864.56
460.908	793.27
461.117	744.44
461.327	777.77
461.537	829.69
461.747	821.75
461.957	833.57
462.167	917.07
462.377	820.97
462.587	816.52
462.797	879.29
463.007	809.93
463.216	871.54
463.426	906.03
463.636	899.63
463.846	762.85
464.056	801.4
464.265	866.89
464.475	767.3
464.685	841.51
464.895	864.76
465.104	828.33
465.314	856.23
465.524	832.02
465.733	767.69
465.943	908.74
466.153	926.56
466.362	882.2
466.572	897.11
466.782	840.35
466.991	849.84
467.201	897.11
467.41	786.48
467.62	849.26
467.829	845.96
468.039	894.4
468.249	868.63
468.458	882.58
468.668	939.74
468.877	949.23
469.086	947.29
469.296	948.84
469.505	883.36
469.715	964.34
469.924	922.3
470.134	950.78
470.343	988.37
470.552	898.47
470.762	894.4
470.971	920.56
471.18	926.56
471.39	899.25
471.599	883.36
471.808	999.03
472.018	948.26
472.227	982.17
472.436	1031.57
472.645	1010.84
472.855	978.88
473.064	1065.87
473.273	1038.16
473.482	1042.42
473.691	1046.69
473.901	1043.39
474.11	1019.18
474.319	1124.19
474.528	1013.17
474.737	1152.86
474.946	1055.6
475.155	1077.11
475.364	1130.97
475.573	1093.96
475.783	1107.72
475.992	1114.3
476.201	1135.04
476.41	1112.17
476.619	1061.61
476.828	1083.89
477.037	1064.51
477.245	1098.42
477.454	1158.09
477.663	1139.49
477.872	1119.73
478.081	1236.17
478.29	1140.27
478.499	1282.09
478.708	1219.9
478.917	1276.08
479.125	1207.5
479.334	1233.46
479.543	1199.75
479.752	1222.61
479.961	1265.04
480.169	1278.02
480.378	1248.18
480.587	1400.86
480.796	1282.28
481.004	1263.88
481.213	1313.28
481.422	1317.93
481.63	1306.7
481.839	1334.98
482.048	1411.13
482.256	1308.83
482.465	1353.2
482.674	1375.48
482.882	1406.67
483.091	1394.66
483.299	1318.32
483.508	1407.25
483.716	1410.74
483.925	1433.02
484.134	1359.78
484.342	1398.53
484.551	1407.25
484.759	1377.99
484.967	1445.42
485.176	1423.53
485.384	1411.71
485.593	1494.82
485.801	1443.87
486.01	1343.12
486.218	1328.2
486.426	1212.15
486.635	1239.47
486.843	1223.19
487.051	1242.37
487.26	1268.72
487.468	1314.64
487.676	1370.24
487.885	1383.61
488.093	1396.01
488.301	1460.34
488.509	1434.57
488.717	1503.35
488.926	1487.46
489.134	1450.65
489.342	1442.71
489.55	1447.74
489.758	1464.79
489.967	1496.96
490.175	1604.87
490.383	1561.86
490.591	1651.18
490.799	1539.97
491.007	1613.59
491.215	1603.32
491.423	1623.67
491.631	1558.95
491.839	1572.32
492.047	1607
492.255	1542.68
492.463	1498.31
492.671	1505.48
492.879	1582.79
493.087	1583.56
493.295	1567.48
493.503	1639.94
493.711	1644.78
493.919	1659.51
494.127	1687.8
494.334	1692.45
494.542	1601.97
494.75	1673.07
494.958	1655.25
495.166	1728.68
495.374	1742.43
495.581	1727.32
495.789	1757.93
495.997	1772.46
496.205	1647.69
496.412	1645.37
496.62	1716.67
496.828	1694.97
497.035	1706.98
497.243	1746.11
497.451	1719.18
497.658	1717.05
497.866	1708.53
498.074	1795.91
498.281	1711.63
498.489	1808.31
498.696	1729.26
498.904	1656.6
499.112	1675.01
499.319	1770.91
499.527	1692.64
499.734	1792.23
499.942	1735.26
500.149	1734.88
500.357	1757.55
500.564	1722.67
500.771	1728.1
500.979	1705.23
501.186	1698.45
501.394	1725.96
501.601	1703.1
501.808	1721.7
502.016	1704.46
502.223	1702.33
502.43	1742.63
502.638	1715.89
502.845	1683.34
503.052	1797.46
503.26	1731
503.467	1836.4
503.674	1789.51
503.881	1795.13
504.089	1872.44
504.296	1819.16
504.503	1723.64
504.71	1736.43
504.917	1739.33
505.125	1781.96
505.332	1787.77
505.539	1816.64
505.746	1926.88
505.953	1907.51
506.16	1884.26
506.367	1928.24
506.574	1979.19
506.781	1983.26
506.988	1864.3
507.195	1919.13
507.402	1887.94
507.609	1918.36
507.816	1853.06
508.023	1845.31
508.23	1838.53
508.437	1820.71
508.644	1914.67
508.851	1874.96
509.058	1945.48
509.265	1916.61
509.472	1927.07
509.679	2028.79
509.885	1974.16
510.092	1959.04
510.299	1891.81
510.506	1905.76
510.713	1929.98
510.92	1908.67
511.126	1937.15
511.333	1998.95
511.54	1997.6
511.746	2035.19
511.953	2032.09
512.16	2074.13
512.367	1992.75
512.573	2025.11
512.78	1978.22
512.987	1979.19
513.193	2008.84
513.4	1902.66
513.606	1970.09
513.813	1993.34
514.02	1995.47
514.226	2063.86
514.433	1993.14
514.639	1893.17
514.846	1971.83
515.052	1951.29
515.259	2001.47
515.465	1976.09
515.672	2007.29
515.878	2094.08
516.085	2058.24
516.291	2072
516.497	2036.15
516.704	1967.96
516.91	1974.16
517.117	1885.61
517.323	1798.62
517.529	1827.49
517.736	1869.73
517.942	1820.51
518.148	1859.46
518.354	1979.77
518.561	1921.46
518.767	1939.09
518.973	1952.07
519.179	1962.72
519.386	1938.51
519.592	1970.86
519.798	1988.49
520.004	2110.36
520.21	2047
520.417	2140.97
520.623	2161.12
520.829	2187.08
521.035	2147.37
521.241	2170.81
521.447	2212.08
521.653	2339.56
521.859	2153.76
522.065	2260.13
522.271	2326.58
522.477	2265.55
522.683	2304.69
522.889	2261.09
523.095	2271.75
523.301	2233
523.507	2216.73
523.713	2201.23
523.919	2226.41
524.125	2314.76
524.331	2289.58
524.537	2381.41
524.742	2389.94
524.948	2424.81
525.154	2401.76
525.36	2506.57
525.566	2401.95
525.772	2444.77
525.977	2367.85
526.183	2424.23
526.389	2457.94
526.595	2379.67
526.8	2350.02
527.006	2269.43
527.212	2214.21
527.417	2201.81
527.623	2153.76
527.829	2266.52
528.034	2322.51
528.24	2336.66
528.446	2371.53
528.651	2461.04
528.857	2472.28
529.062	2501.34
529.268	2528.47
529.473	2508.32
529.679	2543
529.884	2650.14
530.09	2588.92
530.295	2550.17
530.501	2568.77
530.706	2554.62
530.912	2512.97
531.117	2564.7
531.323	2614.68
531.528	2650.33
531.733	2688.5
531.939	2622.82
532.144	2586.4
532.35	2616.43
532.555	2662.35
532.76	2573.8
532.966	2618.36
533.171	2556.56
533.376	2510.64
533.581	2472.28
533.787	2559.85
533.992	2586.59
534.197	2613.13
534.402	2607.51
534.607	2609.84
534.813	2707.29
535.018	2590.08
535.223	2621.66
535.428	2635.41
535.633	2691.41
535.838	2719.11
536.043	2702.64
536.249	2792.16
536.454	2697.8
536.659	2788.47
536.864	2706.71
537.069	2683.08
537.274	2668.93
537.479	2679.59
537.684	2656.73
537.889	2629.21
538.094	2723.38
538.299	2719.31
538.504	2709.04
538.708	2739.07
538.913	2762.9
539.118	2740.43
539.323	2729.58
539.528	2705.55
539.733	2673.97
539.938	2737.13
540.142	2711.17
540.347	2674.36
540.552	2645.68
540.757	2640.45
540.962	2651.3
541.166	2602.67
541.371	2592.98
541.576	2659.05
541.781	2560.82
541.985	2709.43
542.19	2698.96
542.395	2808.82
542.599	2812.11
542.804	2749.14
543.008	2821.41
543.213	2722.02
543.418	2720.08
543.622	2828
543.827	2673.97
544.031	2807.85
544.236	2857.25
544.44	2794.48
544.645	2855.32
544.849	2776.07
545.054	2826.84
545.258	2910.73
545.463	2902.2
545.667	2784.99
545.872	2870.82
546.076	2852.8
546.281	2781.5
546.485	2837.49
546.689	2826.84
546.894	2845.05
547.098	2848.92
547.302	2782.47
547.507	2838.66
547.711	2863.45
547.915	2895.81
548.119	2738.1
548.324	2726.48
548.528	2866.55
548.732	2817.73
548.936	2836.91
549.141	2844.86
549.345	2792.16
549.549	2822.38
549.753	2867.52
549.957	2928.94
550.161	2872.17
550.366	2903.17
550.57	2847.57
550.774	2836.14
550.978	2857.84
551.182	2880.31
551.386	2790.8
551.59	2798.36
551.794	2861.13
551.998	2871.59
552.202	2817.73
552.406	2795.26
552.61	2882.83
552.814	2839.04
553.018	2915.77
553.222	2826.64
553.426	2815.21
553.63	2923.32
553.833	2845.82
554.037	2735.97
554.241	2860.35
554.445	2846.6
554.649	2823.16
554.853	2817.54
555.056	2908.99
555.26	2929.14
555.464	2870.24
555.668	2851.83
555.871	2861.32
556.075	2916.54
556.279	2842.92
556.483	2765.81
556.686	2806.69
556.89	2784.6
557.094	2810.17
557.297	2729.96
557.501	2793.12
557.704	2693.93
557.908	2793.71
558.112	2703.03
558.315	2846.41
558.519	2783.24
558.722	2734.81
558.926	2733.45
559.129	2659.44
559.333	2651.5
559.536	2661.38
559.74	2629.41
559.943	2621.85
560.147	2595.31
560.35	2669.9
560.553	2644.13
560.757	2612.55
560.96	2740.62
561.164	2680.56
561.367	2726.28
561.57	2671.65
561.774	2733.06
561.977	2648.2
562.18	2611.39
562.384	2742.56
562.587	2626.31
562.79	2625.53
562.993	2623.4
563.197	2669.9
563.4	2739.46
563.603	2682.49
563.806	2782.66
564.009	2641.61
564.212	2664.28
564.416	2552.68
564.619	2668.16
564.822	2568.18
565.025	2655.76
565.228	2600.35
565.431	2643.75
565.634	2524.2
565.837	2553.85
566.04	2527.69
566.243	2519.36
566.446	2401.95
566.649	2573.22
566.852	2443.41
567.055	2502.7
567.258	2534.86
567.461	2576.32
567.664	2587.17
567.867	2485.45
568.07	2563.15
568.273	2568.77
568.475	2615.46
568.678	2506.77
568.881	2500.76
569.084	2486.04
569.287	2358.74
569.489	2389.36
569.692	2488.55
569.895	2492.82
570.098	2405.05
570.3	2404.86
570.503	2324.06
570.706	2361.65
570.909	2378.12
571.111	2308.56
571.314	2299.46
571.516	2339.37
571.719	2302.94
571.922	2298.29
572.124	2352.93
572.327	2377.92
572.529	2299.84
572.732	2295
572.935	2386.45
573.137	2438.76
573.34	2341.5
573.542	2409.12
573.745	2388.19
573.947	2375.99
574.15	2369.4
574.352	2339.37
574.554	2396.52
574.757	2313.41
574.959	2278.73
575.162	2271.94
575.364	2245.21
575.566	2407.96
575.769	2257.8
575.971	2254.51
576.173	2153.57
576.376	2266.13
576.578	2298.29
576.78	2332.97
576.982	2162.28
577.185	2235.71
577.387	2226.61
577.589	2186.11
577.791	2232.42
577.993	2215.56
578.196	2215.56
578.398	2245.21
578.6	2195.41
578.802	2166.16
579.004	2182.82
579.206	2121.79
579.408	2169.06
579.61	2124.12
579.812	2195.22
580.014	2127.99
580.216	2168.68
580.418	2182.43
580.62	2156.66
580.822	2112.49
581.024	2170.81
581.226	2184.76
581.428	2125.08
581.63	2243.85
581.832	2143.49
582.034	2213.24
582.236	2191.54
582.438	2214.79
582.64	2236.3
582.841	2271.56
583.043	2295.19
583.245	2194.25
583.447	2228.93
583.649	2191.73
583.85	2197.35
584.052	2229.9
584.254	2152.4
584.456	2238.62
584.657	2135.55
584.859	2203.75
585.061	2156.47
585.262	2151.43
585.464	2117.33
585.666	2163.64
585.867	2109
586.069	2164.8
586.27	2117.14
586.472	2129.54
586.674	2108.81
586.875	2086.72
587.077	2097.77
587.278	2084.59
587.48	2099.32
587.681	2214.79
587.883	2102.61
588.084	2017.36
588.285	2055.34
588.487	2054.75
588.688	2064.05
588.89	1971.83
589.091	1965.24
589.292	1898.59
589.494	1891.81
589.695	1875.54
589.896	1792.61
590.098	1786.22
590.299	1839.69
590.5	1827.68
590.702	1862.75
590.903	1883.68
591.104	2000.5
591.305	1948.19
591.507	2015.81
591.708	1979.58
591.909	1923.39
592.11	2013.87
592.311	1961.76
592.512	1939.67
592.714	1881.54
592.915	1956.33
593.116	1965.63
593.317	1964.08
593.518	1952.65
593.719	1940.64
593.92	1984.23
594.121	1985.39
594.322	1977.26
594.523	1973.77
594.724	1912.54
594.925	1949.74
595.126	1951.68
595.327	1983.45
595.528	1951.1
595.729	1935.02
595.929	1934.05
596.13	1970.86
596.331	1960.01
596.532	1966.21
596.733	2003.02
596.934	1960.01
597.135	1995.47
597.335	1968.15
597.536	1927.07
597.737	1962.72
597.938	1920.68
598.138	1933.08
598.339	1900.72
598.54	1938.51
598.74	1908.28
598.941	1922.42
599.142	2013.1
599.342	1976.29
599.543	1885.23
599.744	1948.77
599.944	1891.23
600.145	1905.76
600.345	1979.19
600.546	1968.54
600.746	1983.07
600.947	1985.59
601.147	1943.35
601.348	1970.86
601.548	1905.96
601.749	1943.74
601.949	1834.08
602.15	1895.11
602.35	1898.98
602.551	1896.27
602.751	1832.53
602.951	1904.21
603.152	1818.58
603.352	1906.15
603.552	1880.77
603.753	1939.67
603.953	1933.66
604.153	1907.7
604.354	1880.77
604.554	1893.75
604.754	1911.77
604.954	1852.87
605.155	1903.24
605.355	1886.58
605.555	1927.46
605.755	1936.57
605.955	1924.94
606.155	1925.52
606.356	1906.92
606.556	1887.94
606.756	1900.14
606.956	1801.33
607.156	1941.61
607.356	1852.48
607.556	1900.14
607.756	1864.69
607.956	1949.74
608.156	1898.59
608.356	1827.1
608.556	1869.14
608.756	1872.83
608.956	1807.73
609.156	1836.98
609.356	1830.98
609.556	1794.36
609.755	1830.2
609.955	1803.66
610.155	1807.73
610.355	1830.2
610.555	1767.81
610.755	1813.73
610.954	1709.5
611.154	1797.85
611.354	1788.16
611.554	1761.81
611.753	1758.51
611.953	1723.64
612.153	1806.37
612.352	1777.89
612.552	1723.64
612.752	1669
612.951	1762
613.151	1814.12
613.351	1712.79
613.55	1759.29
613.75	1756.96
613.949	1731.2
614.149	1734.3
614.348	1706.78
614.548	1694.38
614.747	1648.85
614.947	1685.08
615.146	1614.56
615.346	1771.5
615.545	1719.57
615.745	1723.25
615.944	1716.67
616.144	1697.48
616.343	1730.03
616.542	1656.22
616.742	1666.68
616.941	1651.95
617.14	1584.72
617.34	1675.2
617.539	1655.63
617.738	1625.99
617.938	1770.91
618.137	1626.57
618.336	1613.79
618.535	1684.31
618.734	1687.02
618.934	1688.38
619.133	1700.97
619.332	1662.8
619.531	1616.3
619.73	1640.13
619.929	1729.06
620.128	1687.02
620.328	1707.56
620.527	1639.17
620.726	1635.48
620.925	1651.18
621.124	1656.02
621.323	1659.12
621.522	1599.84
621.721	1608.94
621.92	1590.15
622.119	1628.9
622.318	1594.22
622.517	1618.63
622.715	1627.35
622.914	1528.54
623.113	1601.19
623.312	1532.02
623.511	1647.69
623.71	1595.96
623.909	1546.55
624.107	1676.37
624.306	1514.39
624.505	1543.26
624.704	1528.34
624.902	1529.51
625.101	1596.93
625.3	1552.56
625.499	1523.11
625.697	1503.16
625.896	1523.11
626.095	1542.1
626.293	1466.73
626.492	1486.88
626.69	1519.82
626.889	1529.7
627.088	1538.81
627.286	1505.29
627.485	1549.27
627.683	1496.96
627.882	1584.34
628.08	1472.35
628.279	1485.91
628.477	1547.33
628.676	1435.15
628.874	1525.82
629.073	1491.53
629.271	1443.09
629.469	1497.15
629.668	1478.16
629.866	1473.12
630.065	1464.02
630.263	1501.22
630.461	1423.33
630.66	1436.12
630.858	1476.61
631.056	1470.8
631.254	1511.87
631.453	1436.89
631.651	1508.77
631.849	1463.82
632.047	1467.51
632.245	1445.03
632.444	1471.19
632.642	1466.92
632.84	1486.69
633.038	1441.16
633.236	1412.09
633.434	1435.73
633.632	1411.9
633.83	1420.23
634.028	1485.14
634.227	1456.08
634.425	1538.61
634.623	1461.11
634.821	1441.35
635.019	1441.93
635.216	1406.09
635.414	1509.94
635.612	1463.44
635.81	1417.71
636.008	1505.48
636.206	1423.72
636.404	1451.62
636.602	1408.41
636.8	1442.32
636.997	1453.75
637.195	1443.29
637.393	1433.21
637.591	1503.74
637.789	1470.41
637.986	1438.25
638.184	1460.14
638.382	1488.24
638.58	1494.63
638.777	1509.55
638.975	1412.87
639.173	1442.32
639.37	1459.56
639.568	1455.49
639.765	1450.46
639.963	1395.24
640.161	1468.28
640.358	1471.19
640.556	1378.96
640.753	1373.54
640.951	1358.81
641.148	1410.16
641.346	1398.73
641.543	1382.26
641.741	1435.54
641.938	1374.89
642.136	1392.33
642.333	1333.05
642.531	1402.21
642.728	1429.14
642.925	1399.11
643.123	1376.64
643.32	1384.78
643.517	1313.28
643.715	1369.08
643.912	1363.66
644.109	1392.33
644.306	1388.84
644.504	1365.6
644.701	1375.86
644.898	1369.47
645.095	1315.41
645.293	1341.96
645.49	1391.36
645.687	1352.42
645.884	1368.11
646.081	1249.93
646.278	1309.99
646.475	1284.61
646.672	1307.66
646.87	1348.35
647.067	1343.12
647.264	1313.09
647.461	1257.48
647.658	1261.17
647.855	1324.33
648.052	1273.95
648.249	1179.79
648.446	1266.78
648.642	1268.33
648.839	1208.66
649.036	1247.6
649.233	1221.45
649.43	1218.15
649.627	1185.6
649.824	1197.62
650.021	1174.75
650.217	1223.97
650.414	1204.01
650.611	1238.69
650.808	1245.28
651.004	1234.62
651.201	1259.03
651.398	1314.06
651.595	1243.15
651.791	1206.14
651.988	1264.27
652.185	1194.71
652.381	1270.85
652.578	1164.1
652.775	1233.65
652.971	1185.22
653.168	1219.32
653.364	1254.19
653.561	1154.8
653.757	1203.04
653.954	1233.46
654.15	1161.19
654.347	1278.8
654.543	1201.68
654.74	1139.49
654.936	1154.8
655.133	1193.16
655.329	1171.46
655.525	1186.77
655.722	1208.47
655.918	1119.92
656.115	1173.59
656.311	1081.37
656.507	1028.86
656.704	973.84
656.9	1025.96
657.096	1027.51
657.292	987.79
657.489	1122.44
657.685	1104.81
657.881	1080.21
658.077	1094.35
658.273	1123.6
658.47	1165.07
658.666	1127.87
658.862	1176.5
659.058	1112.56
659.254	1191.61
659.45	1114.11
659.646	1201.1
659.842	1117.79
660.038	1185.99
660.234	1110.24
660.43	1161.77
660.626	1207.11
660.822	1212.53
661.018	1185.6
661.214	1147.44
661.41	1098.03
661.606	1194.71
661.802	1219.9
661.998	1122.83
662.194	1099.97
662.39	1141.43
662.586	1174.37
662.781	1182.31
662.977	1141.82
663.173	1175.92
663.369	1133.68
663.564	1179.4
663.76	1174.56
663.956	1131.35
664.152	1177.08
664.347	1073.23
664.543	1131.35
664.739	1069.74
664.934	1052.69
665.13	1079.24
665.326	1101.52
665.521	1116.44
665.717	1049.21
665.912	1061.22
666.108	1012.2
666.304	1084.27
666.499	1071.68
666.695	1012.39
666.89	1090.86
667.086	1126.32
667.281	1102.49
667.477	1122.25
667.672	1081.37
667.867	1069.16
668.063	1076.33
668.258	1049.01
668.454	1075.36
668.649	1132.52
668.844	1085.44
669.04	1102.49
669.235	1070.32
669.43	1053.47
669.626	1016.08
669.821	1034.48
670.016	1049.98
670.211	1084.66
670.407	1041.65
670.602	1046.11
670.797	1031.57
670.992	1097.64
671.187	1028.47
671.382	1096.67
671.578	1005.03
671.773	1077.3
671.968	992.05
672.163	1061.41
672.358	1079.43
672.553	1017.04
672.748	1012.2
672.943	1116.05
673.138	1057.92
673.333	1055.21
673.528	986.43
673.723	1058.51
673.918	1049.79
674.113	970.93
674.308	1081.56
674.503	1068.39
674.698	1070.13
674.892	1050.17
675.087	1060.25
675.282	1024.41
675.477	1021.31
675.672	1043.59
675.867	1017.24
676.061	970.74
676.256	985.08
676.451	980.23
676.646	1000.77
676.84	988.37
677.035	964.15
677.23	981.01
677.424	996.89
677.619	1040.1
677.814	1089.12
678.008	1053.86
678.203	948.26
678.397	985.85
678.592	1020.92
678.787	1045.14
678.981	989.73
679.176	995.93
679.37	998.25
679.565	978.1
679.759	991.86
679.954	1037
680.148	1068.97
680.342	1042.23
680.537	1045.14
680.731	987.59
680.926	1023.63
681.12	1030.22
681.314	979.84
681.509	983.53
681.703	1006
681.897	1009.1
682.092	999.8
682.286	967.64
682.48	1073.81
682.674	1024.79
682.869	1020.34
683.063	994.38
683.257	1061.8
683.451	970.93
683.645	1037.77
683.839	966.09
684.034	972.48
684.228	1003.68
684.422	910.87
684.616	980.43
684.81	1007.94
685.004	973.84
685.198	1004.45
685.392	1013.56
685.586	961.44
685.78	981.39
685.974	993.41
686.168	995.34
686.362	1077.3
686.556	926.18
686.75	916.88
686.944	911.26
687.138	897.89
687.331	822.33
687.525	838.41
687.719	747.74
687.913	844.42
688.107	815.35
688.301	792.49
688.494	877.74
688.688	835.31
688.882	797.33
689.076	786.29
689.269	820.97
689.463	934.31
689.657	860.11
689.85	837.83
690.044	882.2
690.238	847.51
690.431	836.08
690.625	834.15
690.818	886.85
691.012	919.4
691.205	926.76
691.399	867.28
691.593	921.53
691.786	966.48
691.98	992.63
692.173	981.98
692.366	935.67
692.56	956.21
692.753	1029.64
692.947	927.53
693.14	1037.58
693.333	1008.33
693.527	928.11
693.72	994.96
693.914	963.57
694.107	975.97
694.3	974.42
694.493	946.13
694.687	1001.16
694.88	978.1
695.073	1026.34
695.266	1022.27
695.46	995.93
695.653	1058.51
695.846	1048.04
696.039	991.08
696.232	990.31
696.425	1047.46
696.618	1091.44
696.812	1070.32
697.005	1138.91
697.198	1193.94
697.391	1113.72
697.584	1130.77
697.777	1173.2
697.97	1130
698.163	1169.33
698.356	1178.24
698.549	1251.28
698.742	1227.26
698.935	1168.75
699.127	1203.43
699.32	1168.36
699.513	1178.63
699.706	1202.07
699.899	1217.57
700.092	1190.25
700.285	1251.87
700.477	1168.36
700.67	1246.44
700.863	1276.08
701.056	1335.95
701.248	1316
701.441	1332.46
701.634	1265.62
701.826	1384.19
702.019	1273.18
702.212	1343.51
702.404	1294.49
702.597	1280.73
702.79	1360.95
702.982	1330.91
703.175	1396.79
703.367	1422.75
703.56	1426.82
703.752	1509.94
703.945	1488.62
704.137	1476.42
704.33	1500.83
704.522	1511.49
704.715	1523.69
704.907	1539.19
705.1	1581.62
705.292	1606.04
705.484	1576.2
705.677	1603.71
705.869	1644.01
706.061	1677.53
706.254	1710.08
706.446	1646.53
706.638	1664.16
706.831	1784.28
707.023	1711.63
707.215	1808.11
707.407	1796.68
707.599	1811.79
707.792	1850.93
707.984	1796.49
708.176	1855
708.368	1816.64
708.56	1873.79
708.752	1881.74
708.944	1848.03
709.136	1900.34
709.329	1934.44
709.521	2069.09
709.713	1991.98
709.905	2012.71
710.097	2037.51
710.289	2013.68
710.481	2054.37
710.672	2061.34
710.864	2065.99
711.056	2148.14
711.248	2113.46
711.44	2157.05
711.632	2136.32
711.824	2174.88
712.016	2239.2
712.207	2262.06
712.399	2212.08
712.591	2301.2
712.783	2293.06
712.975	2318.83
713.166	2255.67
713.358	2313.21
713.55	2355.26
713.741	2349.64
713.933	2372.5
714.125	2383.93
714.316	2374.05
714.508	2452.52
714.7	2420.94
714.891	2495.72
715.083	2526.14
715.274	2476.15
715.466	2469.37
715.657	2549
715.849	2436.05
716.04	2526.72
716.232	2456
716.423	2547.26
716.615	2448.25
716.806	2444.77
716.998	2420.35
717.189	2339.56
717.381	2274.08
717.572	2311.47
717.763	2320.38
717.955	2253.93
718.146	2256.44
718.337	2168.1
718.528	2187.47
718.72	2095.05
718.911	2153.18
719.102	2101.45
719.293	2198.71
719.485	2182.63
719.676	2165
719.867	2116.17
720.058	2143.88
720.249	2143.68
720.44	2153.76
720.632	2245.98
720.823	2284.54
721.014	2432.75
721.205	2430.62
721.396	2515.48
721.587	2629.8
721.778	2667.19
721.969	2716.21
722.16	2756.7
722.351	2766
722.542	2930.69
722.733	2924.29
722.924	2863.07
723.115	2890.19
723.305	2864.04
723.496	2939.79
723.687	2769.49
723.878	2787.31
724.069	2826.45
724.26	2814.82
724.45	2770.65
724.641	2757.48
724.832	2819.28
725.023	2763.87
725.213	2763.29
725.404	2737.52
725.595	2761.74
725.785	2752.24
725.976	2877.02
726.167	2865.97
726.357	2859.97
726.548	2958.58
726.739	2861.13
726.929	2956.07
727.12	3001.02
727.31	3078.51
727.501	2946.38
727.691	2976.41
727.882	2985.9
728.072	3057.01
728.263	3040.54
728.453	3115.91
728.644	3113.58
728.834	3093.82
729.024	3084.71
729.215	3084.33
729.405	3090.33
729.596	3222.08
729.786	3176.55
729.976	3232.74
730.167	3272.07
730.357	3211.62
730.547	3234.48
730.737	3285.05
730.928	3317.99
731.118	3411.57
731.308	3309.46
731.498	3338.33
731.688	3422.03
731.879	3440.05
732.069	3509.6
732.259	3518.32
732.449	3520.26
732.639	3654.72
732.829	3633.6
733.019	3689.98
733.209	3721.37
733.399	3741.9
733.589	3827.73
733.779	3857.77
733.969	3827.73
734.159	3926.35
734.349	4005.98
734.539	4025.94
734.729	4067.01
734.919	4033.69
735.109	4116.22
735.299	4058.29
735.488	4071.47
735.678	4090.65
735.868	4102.86
736.058	4085.03
736.248	4040.86
736.437	4033.3
736.627	4052.09
736.817	4213.87
737.007	4148.39
737.196	4178.42
737.386	4136.57
737.576	4138.7
737.765	4222.4
737.955	4154.78
738.144	4290.21
738.334	4274.32
738.524	4210.39
738.713	4260.76
738.903	4241.97
739.092	4281.3
739.282	4255.92
739.471	4277.42
739.661	4275.1
739.85	4289.24
740.04	4295.44
740.229	4342.33
740.419	4375.85
740.608	4420.8
740.797	4353.18
740.987	4457.61
741.176	4388.05
741.365	4365.96
741.555	4307.65
741.744	4450.05
741.933	4409.56
742.123	4433.39
742.312	4428.35
742.501	4462.45
742.69	4506.43
742.88	4368.29
743.069	4564.94
743.258	4484.15
743.447	4516.12
743.636	4535.11
743.825	4474.46
744.014	4504.69
744.204	4555.64
744.393	4484.73
744.582	4578.89
744.771	4625
744.96	4537.24
745.149	4600.01
745.338	4496.36
745.527	4592.26
745.716	4521.74
745.905	4555.84
746.094	4623.07
746.283	4626.94
746.471	4544.99
746.66	4668.4
746.849	4648.25
747.038	4658.52
747.227	4644.77
747.416	4616.48
747.604	4593.62
747.793	4537.24
747.982	4672.86
748.171	4611.83
748.359	4644.19
748.548	4646.7
748.737	4637.79
748.926	4589.16
749.114	4548.67
749.303	4628.88
749.491	4570.17
749.68	4515.92
749.869	4608.54
750.057	4583.16
750.246	4563.78
750.434	4575.02
750.623	4538.4
750.811	4578.31
751	4631.79
751.188	4543.82
751.377	4567.46
751.565	4542.66
751.754	4505.66
751.942	4508.76
752.131	4599.04
752.319	4494.23
752.507	4463.61
752.696	4548.67
752.884	4543.82
753.072	4499.26
753.261	4533.36
753.449	4529.1
753.637	4491.13
753.825	4585.48
754.014	4523.87
754.202	4516.51
754.39	4575.41
754.578	4582.77
754.766	4486.67
754.955	4501.01
755.143	4594.39
755.331	4469.81
755.519	4453.15
755.707	4474.85
755.895	4447.14
756.083	4464.58
756.271	4389.8
756.459	4453.34
756.647	4474.66
756.835	4450.05
757.023	4449.66
757.211	4413.63
757.399	4387.47
757.587	4395.41
757.775	4377.98
757.963	4394.45
758.151	4407.23
758.339	4357.25
758.526	4328.77
758.714	4351.63
758.902	4257.47
759.09	4196.63
759.278	3980.8
759.465	3738.03
759.653	3386.96
759.841	3092.85
760.028	2705.36
760.216	2393.04
760.404	2250.05
760.591	1918.94
760.779	1691.09
760.967	1530.86
761.154	1320.45
761.342	1395.63
761.529	1389.43
761.717	1448.52
761.905	1502.38
762.092	1605.84
762.28	1538.22
762.467	1631.61
762.655	1580.07
762.842	1610.3
763.029	1606.42
763.217	1603.13
763.404	1635.29
763.592	1686.25
763.779	1655.63
763.966	1709.88
764.154	1788.74
764.341	1827.49
764.528	1808.89
764.716	1906.34
764.903	1983.84
765.09	2028.99
765.277	2112.1
765.465	2282.6
765.652	2346.34
765.839	2453.87
766.026	2576.71
766.213	2610.03
766.4	2716.21
766.588	2909.18
766.775	2935.92
766.962	3024.85
767.149	3107.38
767.336	3280.79
767.523	3179.26
767.71	3306.17
767.897	3498.17
768.084	3521.42
768.271	3570.24
768.458	3618.29
768.645	3717.88
768.832	3629.92
769.019	3688.43
769.206	3707.61
769.392	3852.53
769.579	3929.26
769.766	3853.7
769.953	3846.72
770.14	3922.28
770.327	3872.49
770.513	3949.41
770.7	4013.34
770.887	3809.14
771.073	3924.03
771.26	3939.14
771.447	3916.86
771.634	3833.35
771.82	4008.69
772.007	3848.27
772.193	3904.46
772.38	3935.26
772.567	3906.4
772.753	3880.05
772.94	3975.37
773.126	3966.85
773.313	3970.53
773.499	3891.09
773.686	3978.28
773.872	3861.45
774.059	3934.3
774.245	3857.57
774.432	3858.54
774.618	3738.61
774.804	3862.22
774.991	3768.64
775.177	3854.67
775.363	3843.82
775.55	3859.9
775.736	3781.24
775.922	3804.29
776.109	3799.45
776.295	3821.73
776.481	3799.25
776.667	3883.15
776.853	3746.36
777.04	3764.77
777.226	3780.07
777.412	3860.09
777.598	3757.79
777.784	3752.37
777.97	3700.44
778.156	3767.48
778.342	3756.63
778.528	3706.26
778.715	3649.1
778.901	3700.64
779.087	3714.97
779.272	3701.22
779.458	3675.64
779.644	3676.42
779.83	3644.64
780.016	3775.42
780.202	3623.53
780.388	3657.43
780.574	3598.73
780.76	3602.99
780.946	3651.23
781.131	3640.58
781.317	3590.2
781.503	3579.54
781.689	3637.48
781.874	3701.22
782.06	3586.33
782.246	3621.98
782.432	3590.2
782.617	3616.55
782.803	3670.22
782.989	3510.96
783.174	3544.28
783.36	3487.32
783.545	3490.42
783.731	3524.91
783.916	3397.62
784.102	3524.52
784.288	3410.21
784.473	3448.38
784.659	3432.49
784.844	3499.53
785.029	3428.62
785.215	3446.05
785.4	3381.34
785.586	3521.23
785.771	3364.29
785.956	3445.08
786.142	3369.52
786.327	3392.97
786.512	3388.51
786.698	3366.23
786.883	3276.52
787.068	3346.27
787.254	3406.72
787.439	3292.6
787.624	3358.09
787.809	3335.62
787.994	3305.59
788.18	3360.03
788.365	3256.96
788.55	3309.27
788.735	3284.66
788.92	3239.32
789.105	3309.27
789.29	3288.73
789.475	3227.51
789.66	3265.87
789.845	3180.23
790.03	3206
790.215	3224.6
790.4	3235.26
790.585	3237.19
790.77	3192.44
790.955	3124.63
791.14	3170.54
791.325	3263.74
791.51	3094.01
791.695	3221.5
791.879	3151.75
792.064	3114.55
792.249	3227.89
792.434	3156.21
792.618	3147.49
792.803	3208.32
792.988	3104.09
793.173	3183.33
793.357	3198.25
793.542	3110.29
793.727	3159.69
793.911	3195.34
794.096	3130.83
794.281	3216.07
794.465	3243.78
794.65	3167.64
794.834	3187.98
795.019	3233.12
795.203	3217.82
795.388	3221.31
795.572	3212.39
795.757	3235.45
795.941	3175.19
796.126	3189.14
796.31	3132.38
796.494	3214.14
796.679	3189.14
796.863	3139.74
797.048	3206.77
797.232	3217.24
797.416	3266.64
797.601	3197.67
797.785	3270.13
797.969	3274.97
798.153	3167.06
798.338	3243.97
798.522	3244.17
798.706	3259.28
798.89	3275.75
799.074	3351.31
799.258	3290.47
799.443	3248.04
799.627	3222.66
799.811	3322.25
799.995	3249.59
800.179	3172.87
800.363	3254.24
800.547	3280.79
800.731	3266.26
800.915	3175.19
801.099	3194.18
801.283	3228.47
801.467	3235.84
801.651	3218.01
801.835	3280.01
802.019	3269.94
802.202	3291.83
802.386	3206.77
802.57	3158.73
802.754	3214.72
802.938	3177.13
803.121	3162.6
803.305	3269.55
803.489	3229.64
803.673	3201.16
803.856	3198.44
804.04	3200.38
804.224	3222.27
804.407	3149.43
804.591	3181.98
804.775	3221.31
804.958	3222.47
805.142	3329.22
805.326	3156.79
805.509	3231.57
805.693	3285.82
805.876	3241.46
806.06	3249.59
806.243	3269.55
806.427	3211.62
806.61	3273.23
806.794	3218.21
806.977	3278.46
807.16	3218.59
807.344	3215.69
807.527	3215.69
807.71	3218.4
807.894	3213.75
808.077	3248.62
808.26	3180.81
808.444	3181.59
808.627	3246.69
808.81	3146.33
808.993	3126.18
809.177	3122.88
809.36	3169.58
809.543	3152.53
809.726	2991.13
809.909	3037.83
810.092	3016.52
810.276	3053.52
810.459	3061.66
810.642	3010.12
810.825	2979.7
811.008	2990.17
811.191	2915.96
811.374	2937.08
811.557	2937.66
811.74	2980.09
811.923	2891.94
812.106	2860.16
812.289	2816.76
812.472	2869.07
812.654	2898.14
812.837	2841.95
813.02	2810.17
813.203	2761.54
813.386	2624.18
813.569	2633.86
813.751	2578.45
813.934	2592.79
814.117	2594.73
814.3	2503.67
814.482	2485.26
814.665	2426.75
814.848	2403.11
815.03	2359.71
815.213	2337.82
815.396	2337.82
815.578	2276.01
815.761	2276.79
815.943	2374.44
816.126	2221.18
816.309	2198.51
816.491	2133.61
816.674	2068.51
816.856	2139.42
817.039	2111.52
817.221	2192.7
817.403	2127.41
817.586	2130.9
817.768	2201.23
817.951	2099.12
818.133	2036.35
818.315	2070.45
818.498	2213.24
818.68	2191.15
818.862	2169.84
819.045	2185.53
819.227	2137.68
819.409	2142.72
819.591	2175.85
819.774	2123.34
819.956	2114.04
820.138	2188.44
820.32	2174.3
820.502	2227.58
820.684	2332.39
820.866	2281.83
821.048	2382.38
821.231	2385.29
821.413	2352.93
821.595	2328.91
821.777	2344.41
821.959	2305.27
822.141	2406.02
822.323	2287.25
822.505	2210.14
822.686	2159.38
822.868	2086.14
823.05	1966.79
823.232	1913.9
823.414	1819.74
823.596	1917
823.778	1883.68
823.96	1942.19
824.141	1936.18
824.323	1966.02
824.505	2035.96
824.687	2085.37
824.868	2144.27
825.05	2217.5
825.232	2242.69
825.413	2330.26
825.595	2304.49
825.777	2244.63
825.958	2261.48
826.14	2263.03
826.321	2295.78
826.503	2252.76
826.685	2278.73
826.866	2325.03
827.048	2295.97
827.229	2200.06
827.411	2207.81
827.592	2136.9
827.773	2165
827.955	2078.58
828.136	2127.6
828.318	2052.82
828.499	2106.1
828.68	2012.71
828.862	2080.13
829.043	2091.18
829.224	2095.63
829.406	2038.67
829.587	2036.93
829.768	2037.12
829.949	2045.84
830.131	2044.1
830.312	2113.85
830.493	2039.64
830.674	2076.84
830.855	2060.95
831.036	2049.72
831.218	2091.37
831.399	2125.67
831.58	2040.8
831.761	2078.78
831.942	2083.43
832.123	2047.59
832.304	2000.5
832.485	2004.96
832.666	2045.45
832.847	2044.68
833.028	2083.04
833.209	2052.24
833.389	2036.74
833.57	1966.21
833.751	1978.61
833.932	2080.33
834.113	2026.85
834.294	1996.05
834.475	2044.49
834.655	2071.8
834.836	2071.42
835.017	2095.63
835.198	2003.6
835.378	2049.91
835.559	2118.88
835.74	2043.9
835.92	2103.38
836.101	1992.75
836.281	2085.95
836.462	2065.22
836.643	2090.02
836.823	2118.5
837.004	2143.88
837.184	2140.39
837.365	2081.1
837.545	2143.1
837.726	2063.47
837.906	2114.04
838.087	2093.5
838.267	2092.53
838.448	2014.07
838.628	2074.71
838.808	2104.35
838.989	2133.22
839.169	2021.24
839.349	2108.62
839.53	2119.27
839.71	2104.55
839.89	2034.02
840.07	2153.18
840.251	2044.68
840.431	2104.74
840.611	2075.48
840.791	2047.59
840.971	2051.85
841.151	2025.89
841.332	2024.53
841.512	2124.7
841.692	2010.97
841.872	2051.46
842.052	2057.66
842.232	2103
842.412	1994.89
842.592	2043.13
842.772	2066.38
842.952	2047
843.132	1992.56
843.312	1998.76
843.492	2010.77
843.672	2039.45
843.851	1941.99
844.031	1986.55
844.211	1996.63
844.391	1950.13
844.571	2013.29
844.751	2015.23
844.93	2002.83
845.11	1964.66
845.29	1999.34
845.47	1972.8
845.649	2012.52
845.829	2031.12
846.009	1944.51
846.188	2001.28
846.368	1991.01
846.547	1932.31
846.727	1997.4
846.907	1969.12
847.086	1988.49
847.266	2013.68
847.445	1971.06
847.625	1943.35
847.804	1955.17
847.984	1953.23
848.163	1914.87
848.343	1911.19
848.522	1953.81
848.701	1926.3
848.881	1891.81
849.06	1900.53
849.239	1951.1
849.419	1920.68
849.598	1820.32
849.777	1834.08
849.957	1822.06
850.136	1755.41
850.315	1729.26
850.494	1739.33
850.674	1732.16
850.853	1831.56
851.032	1806.18
851.211	1849.96
851.39	1839.5
851.569	1780.02
851.748	1770.14
851.927	1844.54
852.107	1795.13
852.286	1801.72
852.465	1750.18
852.644	1819.16
852.823	1799.98
853.002	1782.35
853.181	1800.75
853.359	1797.46
853.538	1744.95
853.717	1824
853.896	1669.2
854.075	1611.07
854.254	1587.44
854.433	1515.75
854.611	1521.37
854.79	1487.27
854.969	1554.89
855.148	1579.1
855.327	1528.54
855.505	1599.06
855.684	1577.94
855.863	1613.59
856.041	1601.19
856.22	1644.4
856.399	1599.45
856.577	1703.49
856.756	1702.91
856.934	1828.26
857.113	1818.77
857.291	1737.4
857.47	1706.4
857.648	1706.98
857.827	1739.14
858.005	1760.65
858.184	1680.43
858.362	1777.89
858.541	1691.28
858.719	1700.58
858.898	1683.34
859.076	1658.54
859.254	1721.51
859.433	1710.08
859.611	1655.83
859.789	1611.46
859.967	1718.8
860.146	1738.95
860.324	1624.25
860.502	1652.73
860.68	1617.08
860.859	1618.82
861.037	1627.35
861.215	1655.05
861.393	1691.67
861.571	1644.4
861.749	1582.79
861.927	1625.99
862.105	1638.58
862.283	1623.28
862.461	1550.04
862.639	1564.77
862.817	1595.38
862.995	1645.95
863.173	1628.32
863.351	1555.08
863.529	1646.14
863.707	1620.18
863.885	1625.8
864.063	1530.09
864.241	1536.48
864.418	1645.95
864.596	1551.4
864.774	1539.58
864.952	1552.17
865.129	1572.13
865.307	1532.22
865.485	1461.69
865.663	1587.44
865.84	1492.89
866.018	1467.12
866.196	1309.99
866.373	1419.46
866.551	1353
866.728	1259.42
866.906	1351.84
867.084	1380.32
867.261	1419.07
867.439	1410.74
867.616	1419.07
867.794	1415
867.971	1432.44
868.149	1449.29
868.326	1521.37
868.503	1481.84
868.681	1439.99
868.858	1446.19
869.035	1437.86
869.213	1504.32
869.39	1440.58
869.567	1516.91
869.745	1432.44
869.922	1480.29
870.099	1460.14
870.276	1460.72
870.454	1494.44
870.631	1457.24
870.808	1415.78
870.985	1470.41
871.162	1504.32
871.339	1446.58
871.517	1354.36
871.694	1406.48
871.871	1432.24
872.048	1403.96
872.225	1406.48
872.402	1412.29
872.579	1402.79
872.756	1432.63
872.933	1358.43
873.11	1403.18
873.287	1396.79
873.463	1395.82
873.64	1364.63
873.817	1392.53
873.994	1364.24
874.171	1341.96
874.348	1387.1
874.524	1320.06
874.701	1348.55
874.878	1305.15
875.055	1360.36
875.231	1327.81
875.408	1352.23
875.585	1284.03
875.762	1338.08
875.938	1309.41
876.115	1320.26
876.291	1346.8
876.468	1293.13
876.645	1282.09
876.821	1287.32
876.998	1264.07
877.174	1292.55
877.351	1334.79
877.527	1298.75
877.704	1290.42
877.88	1276.67
878.057	1295.26
878.233	1329.95
878.409	1252.45
878.586	1314.83
878.762	1281.32
878.938	1270.66
879.115	1190.25
879.291	1265.04
879.467	1201.3
879.644	1246.83
879.82	1274.34
879.996	1226.29
880.172	1196.84
880.349	1206.72
880.525	1282.48
880.701	1193.35
880.877	1198.58
881.053	1221.83
881.229	1233.65
881.405	1258.07
881.581	1153.05
881.757	1192.39
881.933	1221.45
882.109	1258.65
882.285	1246.83
882.461	1158.48
882.637	1196.07
882.813	1167.59
882.989	1208.85
883.165	1255.93
883.341	1162.94
883.517	1257.87
883.693	1234.23
883.869	1238.3
884.044	1190.06
884.22	1234.82
884.396	1281.12
884.572	1256.71
884.747	1264.85
884.923	1247.22
885.099	1267.17
885.275	1255.74
885.45	1212.34
885.626	1202.27
885.801	1201.1
885.977	1207.3
886.153	1145.69
886.328	1209.24
886.504	1186.38
886.679	1222.42
886.855	1192.77
887.03	1238.3
887.206	1241.21
887.381	1223.19
887.557	1236.56
887.732	1199.94
887.908	1218.35
888.083	1243.73
888.258	1218.93
888.434	1205.17
888.609	1203.82
888.784	1264.65
888.96	1228.81
889.135	1201.88
889.31	1170.69
889.485	1200.33
889.661	1200.91
889.836	1257.48
890.011	1214.86
890.186	1196.26
890.361	1178.05
890.537	1219.12
890.712	1192.97
890.887	1184.64
891.062	1198
891.237	1290.23
891.412	1158.48
891.587	1234.43
891.762	1216.22
891.937	1266.59
892.112	1166.81
892.287	1193.16
892.462	1163.32
892.637	1130.77
892.812	1145.89
892.987	1155.96
893.161	1099.58
893.336	1128.64
893.511	1127.48
893.686	1124.19
893.861	1117.4
894.035	1100.94
894.21	1127.67
894.385	1087.37
894.56	1114.3
894.734	1056.37
894.909	1043.39
895.084	1059.86
895.258	1033.71
895.433	1081.56
895.608	1040.87
895.782	1002.9
895.957	987.21
896.131	1015.49
896.306	922.5
896.48	904.86
896.655	925.4
896.829	884.33
897.004	902.35
897.178	903.12
897.353	850.42
897.527	916.3
897.701	903.31
897.876	812.45
898.05	920.36
898.224	909.71
898.399	938.38
898.573	919.2
898.747	764.78
898.921	816.71
899.096	715.96
899.27	733.4
899.444	709.95
899.618	759.36
899.792	770.21
899.967	778.73
900.141	814
900.315	748.51
900.489	751.61
900.663	758.97
900.837	791.52
901.011	718.67
901.185	831.82
901.359	783.19
901.533	782.61
901.707	799.08
901.881	783.77
902.055	732.62
902.229	763.82
902.403	842.48
902.576	777.38
902.75	768.47
902.924	882.97
903.098	840.93
903.272	885.3
903.446	896.73
903.619	884.33
903.793	919.01
903.967	912.23
904.14	948.65
904.314	939.35
904.488	920.75
904.661	968.03
904.835	916.49
905.009	980.04
905.182	1015.49
905.356	930.83
905.529	954.27
905.703	882.2
905.876	912.23
906.05	863.01
906.223	835.31
906.397	768.66
906.57	789
906.744	765.56
906.917	776.99
907.09	779.51
907.264	765.95
907.437	711.89
907.61	700.27
907.784	742.89
907.957	750.25
908.13	710.92
908.304	737.85
908.477	687.87
908.65	716.93
908.823	658.03
908.996	756.26
909.17	697.94
909.343	693.1
909.516	709.95
909.689	680.5
909.862	645.44
910.035	677.4
910.208	639.62
910.381	628.58
910.554	764.98
910.727	674.5
910.9	684.96
911.073	663.46
911.246	721.19
911.419	732.24
911.592	709.76
911.765	668.11
911.938	649.7
912.11	673.92
912.283	681.67
912.456	715.19
912.629	690.97
912.802	639.24
912.974	660.36
913.147	567.55
913.32	553.99
913.493	541.01
913.665	591.38
913.838	620.44
914.01	571.43
914.183	637.69
914.356	584.41
914.528	668.11
914.701	715.57
914.873	665.39
915.046	612.89
915.218	572.78
915.391	485.4
915.563	528.22
915.736	584.79
915.908	588.09
916.081	580.14
916.253	614.24
916.425	633.23
916.598	649.7
916.77	618.7
916.942	566
917.115	498.38
917.287	590.22
917.459	545.08
917.632	535.78
917.804	462.15
917.976	545.85
918.148	579.76
918.32	564.06
918.493	608.82
918.665	662.29
918.837	596.22
919.009	628.77
919.181	615.6
919.353	608.62
919.525	632.46
919.697	587.51
919.869	574.72
920.041	672.75
920.213	715.57
920.385	626.84
920.557	622.57
920.729	644.27
920.901	663.65
921.073	595.06
921.244	578.59
921.416	643.89
921.588	607.46
921.76	585.96
921.932	694.65
922.103	617.73
922.275	614.44
922.447	635.17
922.619	535.58
922.79	608.62
922.962	552.05
923.134	581.69
923.305	533.06
923.477	516.79
923.648	508.65
923.82	560.77
923.991	482.3
924.163	491.99
924.335	546.63
924.506	479.78
924.677	563.48
924.849	520.47
925.02	533.45
925.192	594.09
925.363	531.71
925.535	530.16
925.706	514.66
925.877	583.05
926.049	510.98
926.22	512.91
926.391	559.99
926.562	539.46
926.734	510.2
926.905	549.14
927.076	464.28
927.247	501.09
927.419	448.59
927.59	455.18
927.761	477.46
927.932	463.51
928.103	446.26
928.274	387.75
928.445	385.82
928.616	435.8
928.787	411.39
928.958	426.7
929.129	409.65
929.3	381.94
929.471	360.82
929.642	309.48
929.813	260.65
929.984	367.99
930.155	256.78
930.326	321.1
930.496	292.24
930.667	224.42
930.838	294.56
931.009	215.71
931.18	244.77
931.35	240.89
931.521	234.89
931.692	197.11
931.863	156.22
932.033	181.99
932.204	216.48
932.374	220.94
932.545	150.41
932.716	221.91
932.886	213.77
933.057	96.55
933.227	142.66
933.398	202.14
933.568	109.34
933.739	73.11
933.909	95
934.08	143.05
934.25	58
934.421	64.19
934.591	119.22
934.761	87.06
934.932	42.11
935.102	132.01
935.272	68.07
935.443	84.54
935.613	103.33
935.783	97.52
935.953	79.5
936.123	256.2
936.294	71.17
936.464	66.71
936.634	108.76
936.804	41.91
936.974	49.86
937.144	102.36
937.314	105.08
937.484	89.38
937.655	53.35
937.825	133.36
937.995	50.05
938.165	118.06
938.334	94.81
938.504	98.49
938.674	82.6
938.844	130.26
939.014	163.2
939.184	176.96
939.354	213.57
939.524	195.36
939.694	132.2
939.863	142.86
940.033	202.72
940.203	175.99
940.373	193.62
940.542	201.76
940.712	144.79
940.882	195.17
941.051	199.24
941.221	179.47
941.391	195.94
941.56	155.84
941.73	129.68
941.899	265.5
942.069	127.74
942.238	179.47
942.408	149.44
942.577	195.94
942.747	156.61
942.916	82.41
943.086	74.85
943.255	168.24
943.425	148.28
943.594	109.92
943.763	49.28
943.933	77.18
944.102	60.13
944.271	106.43
944.441	152.16
944.61	98.49
944.779	120.38
944.948	228.88
945.117	79.5
945.287	113.21
945.456	67.68
945.625	92.48
945.794	143.63
945.963	115.34
946.132	122.32
946.301	59.35
946.47	122.51
946.639	79.11
946.808	90.16
946.977	122.51
947.146	170.56
947.315	113.41
947.484	144.99
947.653	89.38
947.822	124.26
947.991	112.63
948.16	185.48
948.329	154.67
948.498	134.53
948.666	123.29
948.835	148.47
949.004	77.37
949.173	70.2
949.341	102.94
949.51	113.02
949.679	150.02
949.847	113.99
950.016	213.77
950.185	192.07
950.353	102.94
950.522	114.18
950.69	174.44
950.859	101.2
951.028	148.86
951.196	146.54
951.365	77.76
951.533	104.69
951.701	121.54
951.87	158.94
952.038	107.21
952.207	94.03
952.375	152.93
952.543	99.65
952.712	101.01
952.88	105.08
953.048	171.53
953.217	149.64
953.385	136.85
953.553	181.22
953.721	85.7
953.89	126.58
954.058	83.18
954.226	72.53
954.394	140.14
954.562	78.92
954.73	123.09
954.898	113.21
955.067	140.92
955.235	119.41
955.403	161.07
955.571	180.06
955.739	121.54
955.907	82.21
956.075	109.53
956.243	85.89
956.41	133.36
956.578	79.31
956.746	87.44
956.914	99.07
957.082	150.41
957.25	119.03
957.418	105.08
957.585	129.68
957.753	171.34
957.921	69.43
958.089	115.54
958.256	149.64
958.424	148.28
958.592	122.71
958.759	86.48
958.927	141.31
959.095	87.83
959.262	125.23
959.43	104.11
959.597	81.63
959.765	131.81
959.932	88.03
960.1	163.59
960.267	119.41
960.435	103.14
960.602	168.04
960.77	89.77
960.937	68.07
961.104	101.01
961.272	57.22
961.439	117.09
961.606	133.36
961.774	151.38
961.941	102.75
962.108	130.84
962.275	133.94
962.443	170.56
962.61	144.99
962.777	181.02
962.944	157
963.111	140.73
963.278	149.25
963.446	135.69
963.613	140.92
963.78	129.29
963.947	164.36
964.114	156.22
964.281	206.79
964.448	148.67
964.615	113.41
964.782	158.94
964.949	168.62
965.116	121.93
965.282	199.43
965.449	98.88
965.616	88.41
965.783	164.94
965.95	148.47
966.117	75.24
966.283	126.19
966.45	155.64
966.617	147.31
966.784	162.04
966.95	184.9
967.117	161.26
967.284	119.99
967.45	110.69
967.617	191.1
967.784	161.84
967.95	214.74
968.117	156.81
968.283	192.84
968.45	246.32
968.616	172.31
968.783	181.8
968.949	159.91
969.116	191.49
969.282	132.39
969.449	181.41
969.615	166.69
969.781	126.78
969.948	135.69
970.114	110.69
970.28	222.87
970.447	171.92
970.613	209.89
970.779	150.02
970.945	159.91
971.112	168.04
971.278	147.31
971.444	136.85
971.61	207.96
971.776	143.63
971.942	182.96
972.108	161.84
972.275	153.12
972.441	164.17
972.607	251.16
972.773	121.54
972.939	167.66
973.105	141.31
973.271	81.44
973.437	154.48
973.602	129.49
973.768	171.14
973.934	150.02
974.1	149.06
974.266	86.86
974.432	137.24
974.598	119.41
974.763	170.17
974.929	105.08
975.095	211.44
975.261	82.6
975.426	79.69
975.592	122.13
975.758	191.49
975.923	87.44
976.089	122.71
976.255	168.04
976.42	133.56
976.586	157.39
976.751	116.51
976.917	233.53
977.082	163.59
977.248	71.56
977.413	33.2
977.579	104.88
977.744	149.83
977.91	92.48
978.075	118.25
978.24	156.81
978.406	130.26
978.571	108.18
978.736	73.88
978.902	144.99
979.067	95.58
979.232	51.8
979.397	120.96
979.563	202.72
979.728	106.43
979.893	125.42
980.058	96.16
980.223	160.68
980.388	120.19
980.554	131.81
980.719	67.1
980.884	127.94
981.049	164.75
981.214	92.48
981.379	146.92
981.544	126.78
981.709	117.28
981.874	124.84
982.039	102.56
982.204	162.42
982.368	107.01
982.533	112.05
982.698	156.42
982.863	143.05
983.028	92.68
983.193	118.44
983.357	132.59
983.522	116.12
983.687	107.01
983.852	95.39
984.016	128.91
984.181	135.69
984.346	178.12
984.51	140.34
984.675	107.4
984.839	152.93
985.004	123.68
985.168	185.67
985.333	78.73
985.498	111.28
985.662	156.42
985.827	152.93
985.991	129.1
986.155	105.27
986.32	152.93
986.484	173.66
986.649	149.64
986.813	57.03
986.977	110.5
987.142	122.32
987.306	66.13
987.47	93.06
987.634	102.36
987.799	134.53
987.963	117.28
988.127	157.19
988.291	189.55
988.455	107.01
988.62	110.89
988.784	139.18
988.948	119.22
989.112	77.95
989.276	124.26
989.44	107.59
989.604	87.64
989.768	134.53
989.932	184.51
990.096	88.8
990.26	74.66
990.424	60.32
990.588	104.69
990.752	177.34
990.915	142.47
991.079	125.23
991.243	103.72
991.407	123.87
991.571	109.53
991.734	119.99
991.898	133.36
992.062	206.02
992.226	98.68
992.389	65.16
992.553	57.61
992.717	84.15
992.88	77.76
993.044	119.8
993.207	86.48
993.371	117.28
993.535	110.69
993.698	111.66
993.862	126.19
994.025	169.98
994.189	117.09
994.352	100.04
994.515	97.33
994.679	158.94
994.842	86.48
995.006	141.89
995.169	65.74
995.332	96.55
995.496	138.59
995.659	60.9
995.822	90.35
995.985	104.69
996.149	136.46
996.312	94.42
996.475	166.11
996.638	92.48
996.801	142.66
996.964	141.89
997.128	94.42
997.291	73.69
997.454	105.85
997.617	60.13
997.78	139.95
997.943	33.58
998.106	107.98
998.269	51.21
998.432	95.39
998.595	76.4
998.758	39.78
998.92	34.16
999.083	40.17
999.246	87.06
999.409	19.83
999.572	25.83
999.735	43.85
999.897	118.83
1000.06	73.11
1000.223	100.23
1000.386	110.69
1000.548	135.49
1000.711	110.89
1000.874	101.59
1001.036	21.38
1001.199	120.77
1001.361	54.7
1001.524	100.62
1001.687	117.28
1001.849	68.26
1002.012	90.54
1002.174	75.82
1002.337	128.91
1002.499	76.01
1002.661	123.48
1002.824	14.01
1002.986	43.46
1003.149	79.11
1003.311	24.28
1003.473	142.47
1003.636	64.39
1003.798	57.61
1003.96	89.19
1004.123	65.16
1004.285	66.13
1004.447	66.13
1004.609	52.57
1004.771	125.03
1004.933	-0.32
1005.096	60.71
1005.258	-8.07
1005.42	38.04
1005.582	110.89
1005.744	70.2
1005.906	31.65
1006.068	63.81
1006.23	22.15
1006.392	-10.98
1006.554	53.54
1006.716	99.84
1006.878	76.59
1007.04	25.83
1007.202	46.95
1007.363	81.44
1007.525	70.01
1007.687	76.79
1007.849	123.68
1008.011	21.96
1008.172	28.16
1008.334	46.56
1008.496	96.74
1008.658	-5.75
1008.819	26.22
1008.981	7.81
1009.143	61.87
1009.304	61.68
1009.466	83.96
1009.627	115.73
1009.789	167.07
1009.95	85.7
1010.112	16.53
1010.273	72.72
1010.435	39.98
1010.596	30.48
1010.758	61.48
1010.919	39.78
1011.081	14.4
1011.242	60.9
1011.403	62.84
1011.565	24.86
1011.726	83.18
1011.887	1.61
1012.049	41.14
1012.21	63.81
1012.371	109.92
1012.532	-5.17
1012.693	46.37
1012.855	7.23
1013.016	39.78
1013.177	107.01
1013.338	40.36
1013.499	119.99
1013.66	65.16
1013.821	73.88
1013.982	54.7
1014.143	67.1
1014.304	11.69
1014.465	68.46
1014.626	68.46
1014.787	21.96
1014.948	166.11
1015.109	-25.12
1015.27	85.51
1015.431	27.58
1015.592	50.05
1015.752	96.94
1015.913	38.23
1016.074	71.56
1016.235	78.34
1016.395	57.8
1016.556	36.1
1016.717	45.6
1016.877	101.01
1017.038	14.01
1017.199	72.91
1017.359	48.31
1017.52	61.87
1017.681	3.16
1017.841	7.23
1018.002	9.56
1018.162	42.11
1018.323	94.42
1018.483	46.56
1018.644	5.3
1018.804	20.99
1018.964	14.98
1019.125	34.16
1019.285	39.01
1019.446	28.16
1019.606	2.58
1019.766	-34.42
1019.926	52.18
1020.087	33.58
1020.247	-14.08
1020.407	44.05
1020.567	75.24
1020.728	11.5
1020.888	-6.91
1021.048	24.67
1021.208	-7.69
1021.368	10.53
1021.528	104.69
1021.688	60.71
1021.848	74.46
1022.008	49.47
1022.168	27.58
1022.328	65.36
1022.488	54.9
1022.648	3.36
1022.808	27.38
1022.968	32.23
1023.128	12.66
1023.288	15.76
1023.448	43.85
1023.608	73.69
1023.767	42.5
1023.927	24.48
1024.087	-4.78
1024.247	-17.76
1024.406	2.2
1024.566	-2.45
1024.726	-3.62
1024.885	29.51
1025.045	56.06
1025.205	-7.49
1025.364	23.31
1025.524	52.18
1025.683	7.62
1025.843	23.9
1026.003	28.35
1026.162	88.22
1026.321	63.61
1026.481	36.68
1026.64	14.79
1026.8	49.28
1026.959	23.7
1027.119	17.7
1027.278	3.16
1027.437	-4.59
1027.597	38.23
1027.756	46.37
1027.915	25.83
1028.074	44.63
1028.234	29.32
1028.393	23.9
1028.552	4.33
1028.711	-43.72
1028.87	47.73
1029.03	-27.84
1029.189	-2.65
1029.348	-40.43
1029.507	4.91
1029.666	11.69
1029.825	-2.84
1029.984	8.78
1030.143	32.81
1030.302	6.26
1030.461	-32.29
1030.62	26.22
1030.779	56.25
1030.938	-4.2
1031.097	-6.52
1031.255	45.98
1031.414	69.23
1031.573	58.77
1031.732	-35.97
1031.891	35.71
1032.049	75.24
1032.208	30.48
1032.367	10.33
1032.525	-22.02
1032.684	-1.87
1032.843	26.61
1033.001	-10.59
1033.16	163.59
1033.319	68.65
1033.477	46.18
1033.636	-14.08
1033.794	-31.13
1033.953	51.99
1034.111	47.34
1034.27	-16.21
1034.428	34.36
1034.587	-4.78
1034.745	27.77
1034.903	6.07
1035.062	32.03
1035.22	-28.42
1035.378	68.46
1035.537	-23.77
1035.695	38.62
1035.853	16.92
1036.011	38.81
1036.17	28.55
1036.328	-25.12
1036.486	38.23
1036.644	-0.71
1036.802	-87.7
1036.96	-7.1
1037.119	10.33
1037.277	1.42
1037.435	-21.25
1037.593	-11.75
1037.751	-5.55
1037.909	28.93
1038.067	28.93
