Data from gum_old_FLMT105791__167__15-47-54-250.txt Node

Date: Mon Mar 20 15:47:54 GMT 2023
User: antho
Spectrometer: FLMT10579
Trigger mode: 0
Integration Time (sec): 1.000000E-1
Scans to average: 10
Electric dark correction enabled: true
Nonlinearity correction enabled: false
Boxcar width: 0
XAxis mode: Wavelengths
Number of Pixels in Spectrum: 3648
>>>>>Begin Spectral Data<<<<<
345.248	-180.85
345.464	-180.85
345.681	-180.85
345.898	-177.17
346.114	-204.68
346.331	-17.52
346.548	25.11
346.764	-12.29
346.981	-6.67
347.197	-5.7
347.414	8.06
347.631	-49.49
347.847	89.04
348.064	7.86
348.28	19.1
348.497	-60.14
348.713	2.63
348.93	38.09
349.146	29.56
349.363	50.87
349.579	21.04
349.796	24.33
350.012	17.16
350.229	18.52
350.445	28.21
350.661	3.6
350.878	-1.24
351.094	37.31
351.311	40.61
351.527	35.38
351.743	-3.18
351.96	65.6
352.176	63.66
352.392	51.26
352.609	62.5
352.825	-1.44
353.041	38.67
353.257	16.97
353.474	40.02
353.69	49.52
353.906	30.34
354.122	-0.66
354.339	69.28
354.555	41.96
354.771	-0.47
354.987	98.15
355.203	90.59
355.42	-2.02
355.636	28.21
355.852	19.1
356.068	44.29
356.284	0.11
356.5	95.82
356.716	27.63
356.932	31.69
357.148	42.35
357.364	31.69
357.58	107.26
357.796	67.54
358.012	62.11
358.228	42.93
358.444	-46.58
358.66	100.86
358.876	48.74
359.092	13.87
359.308	35.57
359.524	58.62
359.74	3.99
359.956	13.29
360.172	40.22
360.388	52.04
360.604	31.11
360.819	110.16
361.035	48.55
361.251	65.41
361.467	8.83
361.683	90.4
361.898	59.59
362.114	65.6
362.33	34.79
362.546	84.78
362.762	25.69
362.977	68.12
363.193	-2.6
363.409	57.66
363.624	9.61
363.84	37.12
364.056	19.49
364.271	35.38
364.487	67.92
364.703	31.89
364.918	10.19
365.134	47.58
365.35	16.58
365.565	167.51
365.781	64.24
365.996	71.41
366.212	116.36
366.427	76.64
366.643	39.06
366.858	56.3
367.074	15.23
367.289	103.38
367.505	145.62
367.72	-10.93
367.936	38.86
368.151	94.66
368.367	84.39
368.582	84.59
368.798	23.75
369.013	115.97
369.228	60.56
369.444	66.18
369.659	112.29
369.874	56.69
370.09	107.45
370.305	-0.86
370.52	39.06
370.736	121.01
370.951	75.09
371.166	124.3
371.381	116.75
371.597	99.89
371.812	38.47
372.027	8.44
372.242	45.06
372.458	94.66
372.673	47.77
372.888	67.54
373.103	90.21
373.318	147.17
373.533	90.59
373.749	62.5
373.964	12.32
374.179	102.8
374.394	30.34
374.609	132.83
374.824	34.21
375.039	99.89
375.254	21.04
375.469	111.52
375.684	81.29
375.899	127.02
376.114	83.23
376.329	86.33
376.544	88.46
376.759	77.61
376.974	47.77
377.189	72.77
377.404	55.91
377.619	125.08
377.834	26.08
378.049	19.49
378.264	52.04
378.478	93.5
378.693	43.32
378.908	97.37
379.123	80.52
379.338	116.94
379.553	76.64
379.767	83.81
379.982	99.31
380.197	97.37
380.412	92.53
380.626	105.9
380.841	185.14
381.056	87.49
381.271	153.56
381.485	65.99
381.7	64.44
381.915	92.72
382.129	45.64
382.344	93.89
382.559	91.17
382.773	101.83
382.988	11.74
383.202	79.36
383.417	60.17
383.632	161.89
383.846	34.6
384.061	71.61
384.275	56.3
384.49	67.54
384.704	103.19
384.919	79.16
385.133	65.6
385.348	132.44
385.562	55.52
385.777	135.54
385.991	85.17
386.206	63.27
386.42	38.09
386.634	127.79
386.849	102.8
387.063	123.53
387.277	82.84
387.492	60.37
387.706	51.07
387.92	64.44
388.135	136.12
388.349	90.4
388.563	126.44
388.778	127.99
388.992	135.74
389.206	118.88
389.42	159.76
389.635	93.31
389.849	127.4
390.063	145.04
390.277	127.02
390.491	157.44
390.706	130.12
390.92	144.84
391.134	117.91
391.348	170.03
391.562	91.37
391.776	118.3
391.99	107.26
392.205	157.82
392.419	87.88
392.633	96.21
392.847	179.52
393.061	91.95
393.275	182.82
393.489	82.84
393.703	94.08
393.917	128.76
394.131	56.49
394.345	107.06
394.559	150.65
394.773	87.49
394.986	154.92
395.2	114.81
395.414	163.64
395.628	115.78
395.842	167.32
396.056	114.62
396.27	90.59
396.484	156.47
396.697	154.14
396.911	145.81
397.125	124.5
397.339	148.52
397.553	126.63
397.766	181.85
397.98	165.19
398.194	194.64
398.408	153.56
398.621	196.57
398.835	219.24
399.049	186.89
399.262	229.51
399.476	231.25
399.69	202.77
399.903	272.52
400.117	205.49
400.331	221.95
400.544	182.62
400.758	339.17
400.971	214.59
401.185	259.54
401.398	179.72
401.612	258.57
401.826	267.1
402.039	236.1
402.253	208.97
402.466	274.65
402.68	231.64
402.893	253.92
403.106	261.48
403.32	213.43
403.533	262.45
403.747	243.27
403.96	261.09
404.174	274.27
404.387	206.45
404.6	264.58
404.814	281.05
405.027	252.76
405.24	251.4
405.454	232.42
405.667	311.85
405.88	186.89
406.094	234.55
406.307	290.73
406.52	250.05
406.733	220.98
406.947	208.39
407.16	291.9
407.373	320.57
407.586	218.47
407.799	228.54
408.012	264.19
408.226	259.93
408.439	326.96
408.652	221.57
408.865	294.22
409.078	324.25
409.291	297.13
409.504	271.75
409.717	288.02
409.93	290.54
410.143	283.76
410.357	215.95
410.57	222.53
410.783	239.2
410.996	267.87
411.209	266.52
411.421	333.94
411.634	296.16
411.847	277.75
412.06	301.39
412.273	297.52
412.486	326
412.699	415.12
412.912	332.78
413.125	349.05
413.338	322.7
413.55	344.98
413.763	316.89
413.976	343.63
414.189	288.99
414.402	292.28
414.615	379.28
414.827	292.09
415.04	343.63
415.253	326.38
415.466	370.36
415.678	378.11
415.891	323.28
416.104	303.91
416.316	311.85
416.529	315.34
416.742	368.81
416.954	344.21
417.167	321.73
417.38	317.86
417.592	356.8
417.805	274.46
418.017	291.9
418.23	377.53
418.442	318.05
418.655	316.89
418.868	342.27
419.08	367.85
419.293	386.64
419.505	361.06
419.718	369.78
419.93	361.26
420.142	355.64
420.355	408.34
420.567	385.09
420.78	375.98
420.992	365.33
421.205	444.57
421.417	339.56
421.629	336.85
421.842	352.73
422.054	315.92
422.266	382.18
422.479	428.49
422.691	350.6
422.903	374.05
423.115	348.47
423.328	352.73
423.54	341.69
423.752	345.37
423.964	349.44
424.177	393.42
424.389	369.59
424.601	468.59
424.813	390.13
425.025	429.46
425.238	416.28
425.45	372.5
425.662	383.15
425.874	706.52
426.086	386.25
426.298	415.89
426.51	399.43
426.722	384.31
426.934	363
427.146	389.93
427.358	348.47
427.57	423.84
427.782	362.03
427.994	362.03
428.206	365.91
428.418	370.36
428.63	418.22
428.842	448.44
429.054	384.12
429.266	406.21
429.478	352.35
429.69	377.53
429.902	325.03
430.114	390.32
430.325	390.32
430.537	340.91
430.749	325.22
430.961	280.66
431.173	293.06
431.384	339.75
431.596	252.76
431.808	343.82
432.02	396.91
432.231	423.84
432.443	503.66
432.655	439.34
432.867	419.77
433.078	450.77
433.29	523.42
433.502	466.85
433.713	482.54
433.925	461.04
434.136	513.35
434.348	395.55
434.56	361.26
434.771	542.8
434.983	371.91
435.194	427.71
435.406	433.14
435.617	516.06
435.829	552.29
436.04	516.26
436.252	492.42
436.463	545.51
436.675	560.04
436.886	528.66
437.098	555.01
437.309	577.48
437.521	518.97
437.732	536.79
437.943	528.07
438.155	514.71
438.366	461.43
438.578	585.81
438.789	485.06
439	496.11
439.211	473.24
439.423	512.96
439.634	481.96
439.845	547.26
440.057	506.76
440.268	581.94
440.479	509.67
440.69	577.48
440.902	539.7
441.113	505.41
441.324	535.44
441.535	572.83
441.746	644.9
441.957	539.31
442.168	570.31
442.38	604.02
442.591	619.72
442.802	555.97
443.013	577.87
443.224	588.91
443.435	541.44
443.646	565.08
443.857	575.15
444.068	567.99
444.279	561.98
444.49	679.97
444.701	592.4
444.912	671.06
445.123	648.2
445.334	624.37
445.545	647.42
445.756	626.5
445.967	573.22
446.178	621.65
446.388	642
446.599	614.49
446.81	621.27
447.021	577.87
447.232	666.99
447.443	650.13
447.653	609.64
447.864	662.34
448.075	618.94
448.286	668.73
448.496	653.43
448.707	706.9
448.918	621.85
449.129	728.6
449.339	630.37
449.55	660.79
449.761	659.05
449.971	691.02
450.182	659.82
450.393	713.3
450.603	662.92
450.814	723.57
451.024	702.45
451.235	735.96
451.446	764.06
451.656	770.45
451.867	666.99
452.077	693.34
452.288	797.77
452.498	753.21
452.709	657.3
452.919	705.74
453.13	644.71
453.34	709.03
453.55	636.57
453.761	679.2
453.971	679
454.182	677.07
454.392	692.95
454.602	758.05
454.813	758.05
455.023	737.71
455.233	660.4
455.444	701.48
455.654	632.31
455.864	703.03
456.075	709.23
456.285	684.04
456.495	676.87
456.705	746.81
456.916	756.5
457.126	759.99
457.336	719.5
457.546	632.5
457.756	661.76
457.967	775.49
458.177	706.9
458.387	750.11
458.597	697.6
458.807	738.29
459.017	725.89
459.227	696.25
459.437	708.26
459.647	742.94
459.857	738.1
460.068	696.25
460.278	792.73
460.488	744.68
460.698	803.58
460.908	715.43
461.117	675.13
461.327	719.88
461.537	763.67
461.747	785.56
461.957	776.26
462.167	869.46
462.377	812.69
462.587	758.83
462.797	830.71
463.007	776.46
463.216	795.06
463.426	821.41
463.636	807.26
463.846	722.4
464.056	755.34
464.265	821.41
464.475	738.48
464.685	809.4
464.895	813.46
465.104	780.33
465.314	819.08
465.524	777.81
465.733	755.73
465.943	860.54
466.153	856.48
466.362	841.56
466.572	833.23
466.782	781.11
466.991	811.33
467.201	867.52
467.41	743.91
467.62	814.24
467.829	812.69
468.039	839.62
468.249	827.03
468.458	835.94
468.668	832.45
468.877	877.4
469.086	905.69
469.296	897.94
469.505	859.58
469.715	941.53
469.924	865.19
470.134	922.54
470.343	915.76
470.552	853.57
470.762	842.72
470.971	814.63
471.18	850.28
471.39	848.34
471.599	835.74
471.808	919.25
472.018	863.64
472.227	958.39
472.436	980.09
472.645	925.26
472.855	922.93
473.064	988.03
473.273	980.09
473.482	971.76
473.691	999.65
473.901	976.41
474.11	939.98
474.319	1069.6
474.528	982.8
474.737	1068.05
474.946	1010.7
475.155	1012.05
475.364	1092.65
475.573	1044.6
475.783	1015.74
475.992	1049.84
476.201	1071.54
476.41	1012.83
476.619	976.99
476.828	1045.57
477.037	1016.7
477.245	1020.97
477.454	1075.8
477.663	1052.55
477.872	1076.96
478.081	1173.64
478.29	1076.77
478.499	1179.65
478.708	1137.99
478.917	1215.68
479.125	1134.7
479.334	1135.86
479.543	1141.87
479.752	1162.98
479.961	1169.96
480.169	1210.26
480.378	1171.12
480.587	1339.29
480.796	1226.15
481.004	1172.67
481.213	1184.1
481.422	1205.41
481.63	1248.04
481.839	1263.34
482.048	1292.6
482.256	1240.87
482.465	1307.52
482.674	1281.56
482.882	1307.52
483.091	1378.62
483.299	1280.2
483.508	1313.72
483.716	1280.98
483.925	1306.36
484.134	1292.79
484.342	1306.55
484.551	1344.53
484.759	1323.02
484.967	1368.55
485.176	1384.05
485.384	1350.34
485.593	1346.08
485.801	1329.99
486.01	1298.99
486.218	1254.43
486.426	1138.18
486.635	1175.19
486.843	1141.28
487.051	1196.5
487.26	1204.06
487.468	1245.33
487.676	1254.05
487.885	1258.7
488.093	1297.64
488.301	1363.51
488.509	1357.12
488.717	1416.21
488.926	1367.39
489.134	1400.91
489.342	1389.09
489.55	1358.86
489.758	1351.11
489.967	1373.39
490.175	1523.55
490.383	1473.37
490.591	1550.48
490.799	1410.98
491.007	1523.93
491.215	1504.37
491.423	1476.66
491.631	1493.52
491.839	1469.1
492.047	1510.57
492.255	1397.42
492.463	1394.9
492.671	1418.92
492.879	1487.7
493.087	1451.47
493.295	1495.26
493.503	1520.06
493.711	1547.57
493.919	1565.78
494.127	1559.58
494.334	1558.62
494.542	1497.39
494.75	1564.62
494.958	1528.39
495.166	1598.72
495.374	1593.1
495.581	1647.35
495.789	1622.75
495.997	1654.71
496.205	1578.38
496.412	1538.27
496.62	1584.97
496.828	1607.25
497.035	1600.85
497.243	1640.76
497.451	1651.03
497.658	1638.25
497.866	1619.26
498.074	1691.91
498.281	1607.25
498.489	1714.58
498.696	1596.78
498.904	1587.68
499.112	1567.92
499.319	1647.16
499.527	1626.62
499.734	1699.66
499.942	1611.7
500.149	1615
500.357	1661.11
500.564	1597.17
500.771	1619.26
500.979	1560.36
501.186	1585.93
501.394	1644.25
501.601	1600.85
501.808	1628.56
502.016	1603.76
502.223	1557.45
502.43	1602.02
502.638	1592.72
502.845	1587.87
503.052	1702.96
503.26	1636.89
503.467	1710.13
503.674	1646.58
503.881	1693.66
504.089	1770.19
504.296	1683.58
504.503	1616.35
504.71	1649.48
504.917	1629.14
505.125	1667.5
505.332	1678.16
505.539	1728.92
505.746	1782.78
505.953	1747.33
506.16	1748.88
506.367	1795.57
506.574	1877.14
506.781	1811.84
506.988	1751.2
507.195	1781.81
507.402	1731.05
507.609	1791.11
507.816	1760.31
508.023	1765.54
508.23	1718.26
508.437	1694.24
508.644	1745.58
508.851	1796.92
509.058	1832.96
509.265	1767.09
509.472	1801.19
509.679	1904.07
509.885	1809.91
510.092	1782.59
510.299	1817.07
510.506	1806.61
510.713	1815.14
510.92	1826.18
511.126	1849.82
511.333	1878.69
511.54	1860.86
511.746	1869.97
511.953	1890.31
512.16	1912.2
512.367	1881.01
512.573	1852.14
512.78	1902.13
512.987	1852.72
513.193	1826.37
513.4	1777.36
513.606	1837.42
513.813	1857.37
514.02	1836.26
514.226	1924.41
514.433	1893.8
514.639	1787.43
514.846	1861.64
515.052	1825.21
515.259	1859.89
515.465	1881.4
515.672	1880.24
515.878	1954.44
516.085	1894.96
516.291	1935.07
516.497	1914.92
516.704	1867.45
516.91	1831.02
517.117	1740.35
517.323	1695.98
517.529	1670.8
517.736	1676.8
517.942	1701.41
518.148	1707.03
518.354	1788.98
518.561	1781.62
518.767	1793.44
518.973	1829.28
519.179	1834.32
519.386	1836.26
519.592	1815.72
519.798	1830.06
520.004	1947.08
520.21	1931.58
520.417	1954.44
520.623	1983.12
520.829	2036.78
521.035	1978.47
521.241	1997.84
521.447	2026.71
521.653	2131.33
521.859	2003.07
522.065	2061.97
522.271	2162.53
522.477	2068.36
522.683	2159.62
522.889	2095.68
523.095	2067.2
523.301	2106.34
523.507	2050.93
523.713	2073.01
523.919	2040.66
524.125	2160.2
524.331	2127.26
524.537	2227.62
524.742	2238.86
524.948	2188.1
525.154	2236.92
525.36	2345.62
525.566	2217.94
525.772	2277.61
525.977	2165.24
526.183	2238.67
526.389	2253.01
526.595	2193.53
526.8	2168.14
527.006	2061.58
527.212	2042.79
527.417	2024.77
527.623	2024.97
527.829	2092.58
528.034	2139.47
528.24	2180.74
528.446	2158.46
528.651	2268.7
528.857	2256.69
529.062	2345.62
529.268	2313.65
529.473	2317.14
529.679	2341.94
529.884	2437.07
530.09	2402.38
530.295	2355.89
530.501	2381.65
530.706	2358.4
530.912	2354.92
531.117	2372.94
531.323	2357.44
531.528	2436.1
531.733	2416.72
531.939	2425.63
532.144	2428.15
532.35	2416.92
532.555	2440.75
532.76	2439.2
532.966	2389.99
533.171	2380.1
533.376	2308.22
533.581	2296.21
533.787	2374.87
533.992	2379.52
534.197	2440.17
534.402	2369.25
534.607	2378.36
534.813	2474.46
535.018	2391.15
535.223	2453.34
535.428	2460.32
535.633	2502.16
535.838	2523.48
536.043	2500.23
536.249	2617.44
536.454	2471.75
536.659	2542.08
536.864	2503.71
537.069	2468.26
537.274	2511.85
537.479	2500.61
537.684	2483.56
537.889	2436.1
538.094	2596.13
538.299	2540.53
538.504	2524.83
538.708	2532.39
538.913	2631.2
539.118	2498.1
539.323	2538.2
539.528	2445.98
539.733	2497.51
539.938	2558.35
540.142	2555.64
540.347	2467.48
540.552	2469.03
540.757	2461.87
540.962	2417.3
541.166	2379.14
541.371	2414.98
541.576	2444.23
541.781	2363.64
541.985	2517.47
542.19	2459.15
542.395	2602.53
542.599	2598.26
542.804	2557.38
543.008	2585.28
543.213	2514.56
543.418	2463.22
543.622	2555.06
543.827	2516.7
544.031	2539.17
544.236	2570.75
544.44	2579.47
544.645	2638.76
544.849	2549.05
545.054	2648.64
545.258	2675.18
545.463	2621.9
545.667	2556.61
545.872	2643.79
546.076	2591.29
546.281	2587.61
546.485	2588.58
546.689	2601.36
546.894	2640.11
547.098	2613.38
547.302	2527.74
547.507	2618.8
547.711	2632.17
547.915	2662.01
548.119	2544.21
548.324	2585.86
548.528	2643.02
548.732	2587.8
548.936	2612.02
549.141	2642.63
549.345	2597.29
549.549	2600.98
549.753	2645.73
549.957	2707.34
550.161	2723.81
550.366	2631.78
550.57	2614.34
550.774	2586.44
550.978	2668.01
551.182	2622.48
551.386	2602.91
551.59	2597.68
551.794	2590.71
551.998	2606.21
552.202	2571.14
552.406	2595.55
552.61	2650.19
552.814	2616.09
553.018	2705.41
553.222	2619.96
553.426	2626.94
553.63	2674.41
553.833	2600.59
554.037	2532
554.241	2631.78
554.445	2613.96
554.649	2630.23
554.853	2569.4
555.056	2666.66
555.26	2697.07
555.464	2648.64
555.668	2653.09
555.871	2704.44
556.075	2676.15
556.279	2596.13
556.483	2595.16
556.686	2633.53
556.89	2549.83
557.094	2619.58
557.297	2522.12
557.501	2602.91
557.704	2507.4
557.908	2557.77
558.112	2518.63
558.315	2588.38
558.519	2553.9
558.722	2540.72
558.926	2490.15
559.129	2463.8
559.333	2489.96
559.536	2423.31
559.74	2408.39
559.943	2418.08
560.147	2443.46
560.35	2479.88
560.553	2441.13
560.757	2407.42
560.96	2533.36
561.164	2483.76
561.367	2598.65
561.57	2473.3
561.774	2530.84
561.977	2465.55
562.18	2475.43
562.384	2568.23
562.587	2473.1
562.79	2439.58
562.993	2420.98
563.197	2463.22
563.4	2519.6
563.603	2542.85
563.806	2555.83
564.009	2406.07
564.212	2453.53
564.416	2368.09
564.619	2428.73
564.822	2377.78
565.025	2488.99
565.228	2416.33
565.431	2422.53
565.634	2309
565.837	2352.59
566.04	2372.16
566.243	2339.03
566.446	2258.04
566.649	2389.4
566.852	2273.54
567.055	2309.58
567.258	2380.88
567.461	2402.77
567.664	2405.68
567.867	2291.37
568.07	2327.79
568.273	2322.17
568.475	2405.87
568.678	2307.26
568.881	2272.38
569.084	2324.69
569.287	2176.28
569.489	2253.97
569.692	2280.71
569.895	2282.07
570.098	2203.41
570.3	2211.93
570.503	2164.46
570.706	2164.27
570.909	2190.04
571.111	2133.66
571.314	2105.95
571.516	2107.89
571.719	2150.13
571.922	2125.52
572.124	2118.74
572.327	2180.35
572.529	2102.27
572.732	2147.61
572.935	2170.86
573.137	2247.39
573.34	2142.18
573.542	2178.99
573.745	2172.99
573.947	2180.16
574.15	2141.41
574.352	2096.65
574.554	2212.32
574.757	2123.2
574.959	2080.57
575.162	2137.34
575.364	2084.06
575.566	2180.54
575.769	2060.81
575.971	2105.95
576.173	1975.95
576.376	2071.66
576.578	2129.2
576.78	2128.04
576.982	2005.98
577.185	2068.17
577.387	2014.31
577.589	2008.88
577.791	2117.19
577.993	2082.7
578.196	2059.45
578.398	2061.39
578.6	2065.26
578.802	1986.99
579.004	1963.74
579.206	1988.15
579.408	2064.68
579.61	2008.11
579.812	2078.83
580.014	1985.44
580.216	2011.6
580.418	1987.18
580.62	1988.15
580.822	1937.78
581.024	2022.64
581.226	1991.45
581.428	1965.48
581.63	2037.56
581.832	1964.71
582.034	2062.75
582.236	1994.93
582.438	2061.2
582.64	2078.25
582.841	2054.03
583.043	2157.88
583.245	1983.12
583.447	2034.65
583.649	2000.17
583.85	2007.72
584.052	2050.35
584.254	1960.25
584.456	2071.66
584.657	1981.95
584.859	2019.35
585.061	1997.84
585.262	1962.77
585.464	1955.02
585.666	2038.33
585.867	1944.56
586.069	2006.17
586.27	1961.42
586.472	1933.9
586.674	1913.75
586.875	1882.75
587.077	1930.42
587.278	1945.34
587.48	1924.02
587.681	2024
587.883	1967.62
588.084	1901.74
588.285	1901.94
588.487	1901.55
588.688	1895.54
588.89	1833.16
589.091	1789.95
589.292	1814.75
589.494	1735.31
589.695	1691.14
589.896	1622.75
590.098	1666.73
590.299	1695.98
590.5	1666.92
590.702	1728.73
590.903	1738.41
591.104	1825.99
591.305	1836.64
591.507	1864.93
591.708	1793.82
591.909	1770.19
592.11	1874.04
592.311	1851.56
592.512	1765.93
592.714	1744.03
592.915	1782.98
593.116	1782.78
593.317	1793.44
593.518	1787.82
593.719	1779.1
593.92	1807.39
594.121	1868.81
594.322	1796.15
594.523	1800.22
594.724	1770.58
594.925	1771.16
595.126	1792.47
595.327	1830.25
595.528	1831.02
595.729	1770.96
595.929	1765.54
596.13	1819.98
596.331	1804.29
596.532	1798.86
596.733	1878.49
596.934	1823.47
597.135	1862.02
597.335	1812.23
597.536	1766.7
597.737	1784.52
597.938	1753.14
598.138	1839.94
598.339	1757.59
598.54	1815.72
598.74	1728.14
598.941	1787.62
599.142	1876.36
599.342	1799.64
599.543	1752.17
599.744	1776.58
599.944	1779.1
600.145	1779.88
600.345	1790.53
600.546	1845.75
600.746	1818.82
600.947	1837.81
601.147	1770.77
601.348	1813.2
601.548	1718.84
601.749	1730.86
601.949	1715.16
602.15	1742.87
602.35	1732.21
602.551	1766.12
602.751	1691.91
602.951	1734.54
603.152	1649.29
603.352	1768.64
603.552	1749.65
603.753	1792.27
603.953	1777.16
604.153	1776.78
604.354	1756.82
604.554	1756.63
604.754	1748.68
604.954	1678.16
605.155	1764.76
605.355	1746.74
605.555	1742.29
605.755	1811.26
605.955	1759.92
606.155	1785.88
606.356	1716.91
606.556	1743.26
606.756	1742.68
606.956	1708.58
607.156	1820.95
607.356	1671.18
607.556	1743.84
607.756	1716.91
607.956	1764.18
608.156	1715.74
608.356	1650.65
608.556	1725.43
608.756	1742.29
608.956	1710.32
609.156	1696.95
609.356	1671.57
609.556	1610.35
609.755	1695.98
609.955	1667.89
610.155	1670.02
610.355	1693.66
610.555	1653.94
610.755	1643.09
610.954	1605.31
611.154	1679.9
611.354	1709.74
611.554	1593.88
611.753	1676.41
611.953	1608.02
612.153	1688.43
612.352	1675.45
612.552	1584.19
612.752	1563.85
612.951	1619.65
613.151	1618.29
613.351	1594.46
613.55	1608.22
613.75	1636.5
613.949	1592.52
614.149	1588.45
614.348	1589.62
614.548	1549.51
614.747	1528.58
614.947	1538.27
615.146	1495.84
615.346	1613.45
615.545	1585.16
615.745	1599.11
615.944	1621
616.144	1579.35
616.343	1575.67
616.542	1536.72
616.742	1551.64
616.941	1540.4
617.14	1464.84
617.34	1549.51
617.539	1504.17
617.738	1509.21
617.938	1605.12
618.137	1535.95
618.336	1471.24
618.535	1561.52
618.734	1533.62
618.934	1551.06
619.133	1537.69
619.332	1557.45
619.531	1520.25
619.73	1533.23
619.929	1589.03
620.128	1543.89
620.328	1567.92
620.527	1521.22
620.726	1512.12
620.925	1549.7
621.124	1496.23
621.323	1528.58
621.522	1470.27
621.721	1460.19
621.92	1472.2
622.119	1528.78
622.318	1486.54
622.517	1499.52
622.715	1494.49
622.914	1451.28
623.113	1459.22
623.312	1382.89
623.511	1489.25
623.71	1463.29
623.909	1461.35
624.107	1531.49
624.306	1421.06
624.505	1433.26
624.704	1476.47
624.902	1451.47
625.101	1495.26
625.3	1439.46
625.499	1414.86
625.697	1426.87
625.896	1416.21
626.095	1448.76
626.293	1352.08
626.492	1392.57
626.69	1416.99
626.889	1401.29
627.088	1439.27
627.286	1394.12
627.485	1373.59
627.683	1406.52
627.882	1437.91
628.08	1328.83
628.279	1365.64
628.477	1469.69
628.676	1345.69
628.874	1377.66
629.073	1379.01
629.271	1347.43
629.469	1413.5
629.668	1383.86
629.866	1352.08
630.065	1360.61
630.263	1390.64
630.461	1355.96
630.66	1375.52
630.858	1339.88
631.056	1411.56
631.254	1444.5
631.453	1341.23
631.651	1409.62
631.849	1381.53
632.047	1351.69
632.245	1354.99
632.444	1372.23
632.642	1388.51
632.84	1384.44
633.038	1361.38
633.236	1321.66
633.434	1326.7
633.632	1312.56
633.83	1357.89
634.028	1362.16
634.227	1355.37
634.425	1443.14
634.623	1355.96
634.821	1379.01
635.019	1363.71
635.216	1334.84
635.414	1396.26
635.612	1372.04
635.81	1333.48
636.008	1430.16
636.206	1362.54
636.404	1374.36
636.602	1313.14
636.8	1334.06
636.997	1356.92
637.195	1374.36
637.393	1329.8
637.591	1396.26
637.789	1338.71
637.986	1330.19
638.184	1338.91
638.382	1374.94
638.58	1364.48
638.777	1396.45
638.975	1331.74
639.173	1351.11
639.37	1335.23
639.568	1364.09
639.765	1378.04
639.963	1323.41
640.161	1378.04
640.358	1339.29
640.556	1263.34
640.753	1255.6
640.951	1275.55
641.148	1326.89
641.346	1308.88
641.543	1282.53
641.741	1318.18
641.938	1274.58
642.136	1275.16
642.333	1259.66
642.531	1295.7
642.728	1350.14
642.925	1280.39
643.123	1255.6
643.32	1282.72
643.517	1291.63
643.715	1284.08
643.912	1245.91
644.109	1272.26
644.306	1307.91
644.504	1237.96
644.701	1248.43
644.898	1299.96
645.095	1236.03
645.293	1255.98
645.49	1261.21
645.687	1252.11
645.884	1308.49
646.081	1204.83
646.278	1224.98
646.475	1244.94
646.672	1205.03
646.87	1249.01
647.067	1218.01
647.264	1210.65
647.461	1186.23
647.658	1152.33
647.855	1198.44
648.052	1198.63
648.249	1096.53
648.446	1166.67
648.642	1152.52
648.839	1161.05
649.036	1157.56
649.233	1095.95
649.43	1100.02
649.627	1067.27
649.824	1121.72
650.021	1083.55
650.217	1107.96
650.414	1125.01
650.611	1153.1
650.808	1172.09
651.004	1163.76
651.201	1160.47
651.398	1261.41
651.595	1167.63
651.791	1126.37
651.988	1183.13
652.185	1112.61
652.381	1174.8
652.578	1106.6
652.775	1128.3
652.971	1156.98
653.168	1120.36
653.364	1178.87
653.561	1069.02
653.757	1125.01
653.954	1159.69
654.15	1081.22
654.347	1183.52
654.543	1129.85
654.74	1086.26
654.936	1043.64
655.133	1126.17
655.329	1103.12
655.525	1106.99
655.722	1151.36
655.918	1060.88
656.115	1063.2
656.311	978.73
656.507	979.12
656.704	909.37
656.9	951.02
657.096	940.17
657.292	912.86
657.489	1000.24
657.685	1033.95
657.881	978.73
658.077	1036.85
658.273	1025.04
658.47	1084.71
658.666	1052.35
658.862	1075.99
659.058	1055.07
659.254	1086.07
659.45	1081.61
659.646	1069.21
659.842	1098.27
660.038	1110.48
660.234	1036.85
660.43	1075.22
660.626	1127.72
660.822	1100.79
661.018	1101.57
661.214	1044.8
661.41	1040.54
661.606	1078.32
661.802	1111.64
661.998	1076.38
662.194	1032.2
662.39	1098.27
662.586	1104.28
662.781	1084.32
662.977	1136.05
663.173	1097.11
663.369	1082.39
663.564	1111.64
663.76	1139.35
663.956	1061.46
664.152	1118.42
664.347	1016.12
664.543	1065.34
664.739	1057.59
664.934	999.85
665.13	991.13
665.326	1077.93
665.521	1072.5
665.717	996.75
665.912	998.88
666.108	1030.46
666.304	1014.96
666.499	1015.54
666.695	927.39
666.89	1024.84
667.086	1048.67
667.281	1063.01
667.477	1109.9
667.672	1028.33
667.867	1032.98
668.063	1048.09
668.258	987.26
668.454	1022.71
668.649	1105.83
668.844	1024.84
669.04	1048.87
669.235	1032.98
669.43	999.85
669.626	975.82
669.821	990.94
670.016	969.24
670.211	989.97
670.407	935.52
670.602	1022.52
670.797	983.38
670.992	1043.44
671.187	975.82
671.382	1033.56
671.578	970.59
671.773	1012.64
671.968	970.4
672.163	997.52
672.358	994.04
672.553	949.28
672.748	983.57
672.943	1046.54
673.138	1000.04
673.333	1003.72
673.528	920.61
673.723	997.14
673.918	973.89
674.113	950.25
674.308	1068.63
674.503	1000.24
674.698	1003.92
674.892	970.79
675.087	1000.43
675.282	982.8
675.477	973.5
675.672	1001.01
675.867	955.09
676.061	937.27
676.256	897.36
676.451	969.24
676.646	968.66
676.84	919.25
677.035	895.81
677.23	919.64
677.424	979.12
677.619	987.64
677.814	989.97
678.008	997.14
678.203	912.47
678.397	916.54
678.592	955.29
678.787	996.94
678.981	947.92
679.176	982.41
679.37	958
679.565	927
679.759	961.68
679.954	978.54
680.148	968.07
680.342	1005.66
680.537	980.86
680.731	904.91
680.926	977.18
681.12	981.64
681.314	887.09
681.509	942.89
681.703	951.02
681.897	972.53
682.092	946.37
682.286	896.78
682.48	1029.49
682.674	982.02
682.869	939.98
683.063	943.08
683.257	1027.17
683.451	932.23
683.645	983.96
683.839	911.31
684.034	935.14
684.228	960.52
684.422	864.81
684.616	907.24
684.81	974.08
685.004	895.42
685.198	947.92
685.392	943.86
685.586	901.62
685.78	927
685.974	950.44
686.168	926.61
686.362	998.88
686.556	880.31
686.75	843.49
686.944	868.68
687.138	863.45
687.331	777.62
687.525	768.9
687.719	731.51
687.913	797.58
688.107	770.26
688.301	748.36
688.494	806.88
688.688	787.7
688.882	760.57
689.076	736.16
689.269	779.95
689.463	874.11
689.657	810.56
689.85	790.8
690.044	819.47
690.238	768.32
690.431	791.38
690.625	795.25
690.818	832.26
691.012	857.64
691.205	884.96
691.399	802.23
691.593	840.01
691.786	929.32
691.98	916.54
692.173	963.04
692.366	904.91
692.56	927
692.753	953.16
692.947	869.84
693.14	942.89
693.333	918.09
693.527	874.49
693.72	910.14
693.914	881.86
694.107	916.73
694.3	913.63
694.493	855.51
694.687	952.96
694.88	884.76
695.073	962.84
695.266	928.36
695.46	905.69
695.653	977.37
695.846	966.52
696.039	893.29
696.232	932.62
696.425	990.55
696.618	978.73
696.812	996.94
697.005	1065.34
697.198	1074.25
697.391	1036.08
697.584	1033.95
697.777	1087.62
697.97	1038.21
698.163	1104.08
698.356	1065.92
698.549	1178.68
698.742	1134.12
698.935	1085.1
699.127	1159.11
699.32	1062.43
699.513	1108.35
699.706	1127.53
699.899	1133.53
700.092	1096.72
700.285	1152.33
700.477	1094.4
700.67	1131.02
700.863	1179.65
701.056	1260.05
701.248	1206.19
701.441	1229.63
701.634	1186.43
701.826	1279.81
702.019	1177.32
702.212	1257.92
702.404	1174.03
702.597	1223.63
702.79	1232.35
702.982	1267.22
703.175	1290.47
703.367	1313.72
703.56	1325.15
703.752	1413.11
703.945	1368.74
704.137	1370.29
704.33	1402.65
704.522	1410.79
704.715	1418.92
704.907	1485.77
705.1	1468.72
705.292	1511.34
705.484	1453.41
705.677	1505.72
705.869	1482.86
706.061	1542.53
706.254	1568.5
706.446	1569.85
706.638	1532.07
706.831	1651.23
707.023	1581.67
707.215	1697.73
707.407	1702.76
707.599	1688.62
707.792	1746.55
707.984	1696.56
708.176	1737.44
708.368	1700.44
708.56	1742.48
708.752	1764.38
708.944	1737.64
709.136	1837.61
709.329	1791.11
709.521	1917.82
709.713	1885.66
709.905	1875.97
710.097	1948.44
710.289	1856.41
710.481	1908.72
710.672	1929.06
710.864	1926.93
711.056	2025.16
711.248	2041.05
711.44	2008.88
711.632	1980.79
711.824	2080.38
712.016	2103.24
712.207	2110.99
712.399	2111.38
712.591	2167.56
712.783	2186.74
712.975	2215.03
713.166	2123.78
713.358	2146.06
713.55	2231.89
713.741	2231.89
713.933	2281.49
714.125	2250.1
714.316	2216.39
714.508	2349.88
714.7	2323.53
714.891	2319.85
715.083	2395.02
715.274	2325.08
715.466	2395.8
715.657	2422.73
715.849	2285.94
716.04	2411.49
716.232	2319.65
716.423	2429.9
716.615	2353.95
716.806	2306.67
716.998	2310.35
717.189	2288.27
717.381	2159.81
717.572	2115.25
717.763	2220.07
717.955	2169.11
718.146	2134.43
718.337	2121.84
718.528	2081.93
718.72	2029.03
718.911	2093.36
719.102	2020.32
719.293	2157.68
719.485	2018.38
719.676	2079.6
719.867	2062.36
720.058	2074.18
720.249	2039.11
720.44	2090.06
720.632	2177.44
720.823	2185.58
721.014	2307.64
721.205	2313.84
721.396	2389.79
721.587	2526.77
721.778	2591.68
721.969	2610.08
722.16	2670.92
722.351	2669.17
722.542	2795.89
722.733	2798.79
722.924	2715.48
723.115	2823.79
723.305	2776.7
723.496	2783.29
723.687	2695.52
723.878	2667.43
724.069	2710.83
724.26	2709.67
724.45	2676.15
724.641	2648.64
724.832	2693.97
725.023	2671.69
725.213	2736.99
725.404	2675.18
725.595	2665.49
725.785	2728.46
725.976	2749.97
726.167	2760.24
726.357	2776.7
726.548	2930.15
726.739	2777.29
726.929	2896.05
727.12	2928.41
727.31	2939.84
727.501	2882.1
727.691	2912.72
727.882	2945.65
728.072	2957.28
728.263	3001.84
728.453	3028.77
728.644	3017.14
728.834	3029.54
729.024	2986.15
729.215	3009.01
729.405	3014.24
729.596	3136.11
729.786	3102.59
729.976	3161.49
730.167	3182.8
730.357	3126.42
730.547	3166.72
730.737	3213.8
730.928	3217.67
731.118	3264.17
731.308	3259.33
731.498	3241.12
731.688	3367.25
731.879	3372.48
732.069	3435.06
732.259	3452.49
732.449	3507.52
732.639	3570.87
732.829	3631.71
733.019	3598
733.209	3670.27
733.399	3691.19
733.589	3814.22
733.779	3796.98
733.969	3768.88
734.159	3882.23
734.349	3911.87
734.539	3976.19
734.729	3964.57
734.919	4018.62
735.109	4057.95
735.299	3987.04
735.488	4064.54
735.678	4004.09
735.868	4021.34
736.058	4010.49
736.248	4019.59
736.437	4003.9
736.627	3947.91
736.817	4124.6
737.007	4042.46
737.196	4111.82
737.386	4104.07
737.576	4067.64
737.765	4184.86
737.955	4120.54
738.144	4260.23
738.334	4201.72
738.524	4177.3
738.713	4162.77
738.903	4171.49
739.092	4239.3
739.282	4212.37
739.471	4235.23
739.661	4211.4
739.85	4291.03
740.04	4288.13
740.229	4307.11
740.419	4306.92
740.608	4373.96
740.797	4330.75
740.987	4397.59
741.176	4384.23
741.365	4345.67
741.555	4282.9
741.744	4388.68
741.933	4345.86
742.123	4388.49
742.312	4416.97
742.501	4416.77
742.69	4476.06
742.88	4341.21
743.069	4471.99
743.258	4461.14
743.447	4544.07
743.636	4518.3
743.825	4473.16
744.014	4532.05
744.204	4545.04
744.393	4461.14
744.582	4557.24
744.771	4575.26
744.96	4513.45
745.149	4595.99
745.338	4503.96
745.527	4628.35
745.716	4539.42
745.905	4551.24
746.094	4574.1
746.283	4586.5
746.471	4581.65
746.66	4666.13
746.849	4621.57
747.038	4669.03
747.227	4631.45
747.416	4629.51
747.604	4542.71
747.793	4554.72
747.982	4621.95
748.171	4626.6
748.359	4630.87
748.548	4587.08
748.737	4637.07
748.926	4575.84
749.114	4491.37
749.303	4581.65
749.491	4625.44
749.68	4502.41
749.869	4646.75
750.057	4566.54
750.246	4521.98
750.434	4563.64
750.623	4546.97
750.811	4508.61
751	4566.35
751.188	4558.99
751.377	4541.94
751.565	4504.35
751.754	4477.81
751.942	4493.69
752.131	4591.15
752.319	4469.86
752.507	4483.42
752.696	4527.02
752.884	4532.05
753.072	4508.03
753.261	4534.38
753.449	4522.37
753.637	4472.77
753.825	4544.65
754.014	4523.14
754.202	4540.58
754.39	4606.26
754.578	4555.11
754.766	4469.47
754.955	4458.24
755.143	4582.04
755.331	4527.79
755.519	4517.33
755.707	4470.83
755.895	4464.44
756.083	4512.87
756.271	4435.96
756.459	4419.49
756.647	4503.19
756.835	4445.06
757.023	4450.87
757.211	4373.38
757.399	4428.59
757.587	4385.19
757.775	4369.31
757.963	4380.35
758.151	4420.46
758.339	4329.39
758.526	4346.83
758.714	4384.23
758.902	4298.98
759.09	4160.83
759.278	4061.05
759.465	3773.53
759.653	3360.46
759.841	3109.17
760.028	2714.51
760.216	2383.59
760.404	2281.49
760.591	1944.37
760.779	1685.52
760.967	1548.93
761.154	1346.85
761.342	1397.61
761.529	1433.84
761.717	1463.29
761.905	1528.39
762.092	1607.83
762.28	1592.91
762.467	1628.17
762.655	1549.32
762.842	1573.73
763.029	1626.43
763.217	1652.97
763.404	1632.43
763.592	1694.05
763.779	1642.7
763.966	1735.31
764.154	1749.07
764.341	1848.27
764.528	1846.72
764.716	1942.24
764.903	1993.38
765.09	2045.7
765.277	2082.7
765.465	2325.27
765.652	2359.76
765.839	2389.4
766.026	2568.43
766.213	2599.62
766.4	2721.87
766.588	2906.71
766.775	2925.11
766.962	3015.21
767.149	3118.28
767.336	3303.89
767.523	3243.83
767.71	3337.6
767.897	3488.73
768.084	3565.45
768.271	3559.06
768.458	3645.27
768.645	3753.38
768.832	3692.55
769.019	3692.94
769.206	3745.25
769.392	3822.75
769.579	3877.77
769.766	3852.2
769.953	3848.32
770.14	3897.53
770.327	3892.69
770.513	3953.53
770.7	3971.35
770.887	3888.04
771.073	3958.18
771.26	3931.83
771.447	3899.86
771.634	3884.16
771.82	4012.42
772.007	3858.2
772.193	3924.46
772.38	3971.93
772.567	3910.9
772.753	3896.56
772.94	3952.94
773.126	3929.5
773.313	3982.59
773.499	3919.04
773.686	3951.59
773.872	3858.59
774.059	3947.33
774.245	3858.98
774.432	3871.18
774.618	3796.78
774.804	3878.16
774.991	3776.44
775.177	3854.33
775.363	3835.73
775.55	3883.58
775.736	3789.62
775.922	3820.61
776.109	3785.55
776.295	3835.73
776.481	3813.45
776.667	3822.94
776.853	3806.66
777.04	3762.49
777.226	3794.65
777.412	3845.03
777.598	3739.43
777.784	3772.95
777.97	3755.13
778.156	3762.1
778.342	3757.45
778.528	3723.55
778.715	3648.76
778.901	3679.76
779.087	3743.7
779.272	3673.95
779.458	3649.54
779.644	3732.85
779.83	3660.58
780.016	3752.03
780.202	3669.1
780.388	3644.3
780.574	3583.27
780.76	3611.56
780.946	3679.95
781.131	3640.24
781.317	3624.15
781.503	3603.62
781.689	3628.61
781.874	3706.3
782.06	3571.07
782.246	3629.39
782.432	3612.53
782.617	3621.64
782.803	3668.91
782.989	3537.55
783.174	3537.36
783.36	3516.43
783.545	3509.07
783.731	3512.17
783.916	3437.58
784.102	3536.77
784.288	3484.08
784.473	3486.59
784.659	3452.3
784.844	3536
785.029	3476.52
785.215	3468.77
785.4	3397.66
785.586	3499.77
785.771	3378.87
785.956	3469.16
786.142	3388.56
786.327	3416.46
786.512	3382.75
786.698	3403.86
786.883	3358.33
787.068	3377.13
787.254	3365.89
787.439	3315.52
787.624	3348.84
787.809	3335.08
787.994	3312.03
788.18	3385.26
788.365	3278.7
788.55	3255.84
788.735	3292.07
788.92	3262.62
789.105	3277.35
789.29	3325.59
789.475	3237.82
789.66	3275.8
789.845	3201.01
790.03	3214.38
790.215	3244.8
790.4	3251.77
790.585	3264.56
790.77	3206.24
790.955	3141.72
791.14	3177.18
791.325	3258.36
791.51	3108.98
791.695	3160.71
791.879	3149.28
792.064	3106.85
792.249	3209.54
792.434	3169.82
792.618	3180.86
792.803	3198.1
792.988	3145.02
793.173	3168.27
793.357	3189.97
793.542	3120.8
793.727	3152.96
793.911	3158.97
794.096	3132.23
794.281	3209.54
794.465	3253.71
794.65	3172.14
794.834	3218.64
795.019	3242.09
795.203	3236.85
795.388	3259.72
795.572	3283.35
795.757	3207.02
795.941	3221.74
796.126	3198.49
796.31	3156.06
796.494	3175.82
796.679	3178.92
796.863	3128.74
797.048	3270.76
797.232	3222.13
797.416	3237.44
797.601	3238.02
797.785	3260.1
797.969	3277.35
798.153	3202.75
798.338	3255.65
798.522	3236.08
798.706	3296.72
798.89	3279.09
799.074	3371.51
799.258	3322.3
799.443	3296.72
799.627	3249.25
799.811	3306.02
799.995	3249.84
800.179	3238.6
800.363	3231.82
800.547	3262.04
800.731	3310.87
800.915	3178.73
801.099	3220.39
801.283	3188.8
801.467	3228.72
801.651	3241.89
801.835	3264.17
802.019	3221.16
802.202	3288.97
802.386	3156.26
802.57	3205.85
802.754	3199.65
802.938	3170.59
803.121	3222.52
803.305	3283.55
803.489	3238.4
803.673	3212.44
803.856	3233.17
804.04	3203.72
804.224	3220.58
804.407	3194.62
804.591	3186.09
804.775	3205.47
804.958	3177.37
805.142	3315.52
805.326	3254.1
805.509	3233.95
805.693	3246.54
805.876	3273.28
806.06	3208.18
806.243	3238.79
806.427	3289.55
806.61	3315.52
806.794	3203.53
806.977	3261.85
807.16	3244.02
807.344	3267.85
807.527	3179.7
807.71	3254.49
807.894	3221.55
808.077	3258.94
808.26	3176.99
808.444	3178.34
808.627	3210.89
808.81	3177.76
808.993	3105.49
809.177	3109.95
809.36	3125.64
809.543	3139.4
809.726	3023.93
809.909	3017.53
810.092	3003.97
810.276	3040.98
810.459	3061.9
810.642	3039.43
810.825	2989.05
811.008	3003.58
811.191	2869.9
811.374	2958.83
811.557	2949.14
811.74	3019.66
811.923	2876.1
812.106	2866.02
812.289	2887.14
812.472	2899.73
812.654	2903.8
812.837	2836.77
813.02	2802.67
813.203	2745.51
813.386	2650.19
813.569	2678.47
813.751	2569.78
813.934	2627.52
814.117	2577.73
814.3	2527.55
814.482	2489.76
814.665	2491.31
814.848	2401.61
815.03	2358.4
815.213	2371.58
815.396	2329.92
815.578	2312.68
815.761	2273.54
815.943	2350.27
816.126	2196.04
816.309	2187.33
816.491	2145.86
816.674	2070.11
816.856	2100.91
817.039	2104.98
817.221	2197.59
817.403	2141.41
817.586	2120.87
817.768	2181.32
817.951	2062.75
818.133	2055.96
818.315	2076.5
818.498	2110.41
818.68	2209.8
818.862	2172.6
819.045	2158.26
819.227	2119.13
819.409	2172.21
819.591	2168.34
819.774	2150.9
819.956	2120.48
820.138	2215.61
820.32	2159.23
820.502	2225.88
820.684	2303.57
820.866	2265.99
821.048	2373.52
821.231	2372.94
821.413	2349.1
821.595	2368.67
821.777	2382.62
821.959	2339.61
822.141	2392.5
822.323	2289.04
822.505	2183.45
822.686	2164.46
822.868	2091.61
823.05	1941.85
823.232	1918.4
823.414	1808.74
823.596	1923.44
823.778	1894.77
823.96	1951.15
824.141	1933.52
824.323	1953.86
824.505	2045.5
824.687	2090.84
824.868	2154.97
825.05	2253.59
825.232	2248.94
825.413	2373.13
825.595	2293.69
825.777	2214.06
825.958	2242.16
826.14	2244.48
826.321	2279.36
826.503	2261.72
826.685	2257.66
826.866	2298.34
827.048	2268.51
827.229	2215.61
827.411	2224.52
827.592	2169.31
827.773	2162.53
827.955	2060.42
828.136	2075.34
828.318	2081.35
828.499	2131.72
828.68	2044.34
828.862	2083.09
829.043	2095.49
829.224	2068.36
829.406	2024.19
829.587	2009.66
829.768	2017.6
829.949	2042.79
830.131	2067.98
830.312	2104.98
830.493	2037.56
830.674	2051.7
830.855	2029.62
831.036	2060.42
831.218	2085.61
831.399	2141.79
831.58	2054.41
831.761	2072.24
831.942	2088.71
832.123	2052.67
832.304	2009.66
832.485	2045.89
832.666	2033.49
832.847	2062.36
833.028	2013.92
833.209	2041.24
833.389	2040.47
833.57	1971.3
833.751	1985.05
833.932	2071.08
834.113	2031.36
834.294	1983.31
834.475	2068.95
834.655	2083.86
834.836	2082.9
835.017	2102.46
835.198	2004.62
835.378	2051.9
835.559	2125.91
835.74	2050.35
835.92	2061.78
836.101	2040.66
836.281	2084.45
836.462	2074.76
836.643	2101.88
836.823	2107.5
837.004	2120.48
837.184	2169.89
837.365	2121.26
837.545	2144.31
837.726	2062.94
837.906	2154.39
838.087	2104.79
838.267	2066.62
838.448	2056.93
838.628	2082.9
838.808	2076.11
838.989	2125.52
839.169	2078.25
839.349	2074.56
839.53	2122.03
839.71	2133.46
839.89	2037.56
840.07	2145.48
840.251	2041.63
840.431	2116.22
840.611	2058.68
840.791	2038.72
840.971	2061.39
841.151	2087.55
841.332	2040.66
841.512	2106.15
841.692	1973.43
841.872	2065.85
842.052	2068.36
842.232	2082.51
842.412	1971.3
842.592	2058.1
842.772	2044.53
842.952	2024.97
843.132	2020.32
843.312	2024.19
843.492	1976.92
843.672	2015.86
843.851	1946.89
844.031	2016.63
844.211	1988.54
844.391	1972.27
844.571	2008.3
844.751	2013.15
844.93	1990.28
845.11	1938.36
845.29	1980.02
845.47	2041.43
845.649	1987.57
845.829	2007.92
846.009	1936.04
846.188	2001.13
846.368	2017.99
846.547	1970.91
846.727	2004.43
846.907	1924.41
847.086	1979.82
847.266	1982.15
847.445	1975.75
847.625	1946.89
847.804	1929.84
847.984	1959.28
848.163	1921.31
848.343	1896.51
848.522	1958.51
848.701	1942.62
848.881	1879.85
849.06	1910.46
849.239	1937.59
849.419	1942.82
849.598	1827.34
849.777	1873.45
849.957	1783.94
850.136	1748.68
850.315	1738.22
850.494	1751.01
850.674	1726.4
850.853	1837.61
851.032	1766.12
851.211	1850.01
851.39	1838.39
851.569	1749.07
851.748	1749.46
851.927	1824.05
852.107	1806.03
852.286	1703.34
852.465	1751.39
852.644	1805.26
852.823	1804.09
853.002	1746.36
853.181	1789.76
853.359	1793.05
853.538	1714
853.717	1779.1
853.896	1691.33
854.075	1580.9
854.254	1592.52
854.433	1516.19
854.611	1539.24
854.79	1502.82
854.969	1568.88
855.148	1594.85
855.327	1507.66
855.505	1605.7
855.684	1599.3
855.863	1639.02
856.041	1607.25
856.22	1651.03
856.399	1610.15
856.577	1726.21
856.756	1702.96
856.934	1840.13
857.113	1811.07
857.291	1706.25
857.47	1685.71
857.648	1731.83
857.827	1741.9
858.005	1742.29
858.184	1631.46
858.362	1780.07
858.541	1697.73
858.719	1731.44
858.898	1672.35
859.076	1677.96
859.254	1744.23
859.433	1658.78
859.611	1701.21
859.789	1635.15
859.967	1709.54
860.146	1751.59
860.324	1619.45
860.502	1683.97
860.68	1618.1
860.859	1611.31
861.037	1632.82
861.215	1647.35
861.393	1656.26
861.571	1626.04
861.749	1622.36
861.927	1627.78
862.105	1627.78
862.283	1631.46
862.461	1592.91
862.639	1581.67
862.817	1607.25
862.995	1648.32
863.173	1587.48
863.351	1610.73
863.529	1597.95
863.707	1649.29
863.885	1639.8
864.063	1522
864.241	1574.89
864.418	1632.43
864.596	1557.07
864.774	1523.16
864.952	1556.48
865.129	1583.42
865.307	1523.16
865.485	1500.88
865.663	1599.69
865.84	1483.44
866.018	1486.54
866.196	1344.33
866.373	1353.05
866.551	1336.39
866.728	1294.34
866.906	1337.94
867.084	1401.1
867.261	1400.32
867.439	1421.25
867.616	1452.05
867.794	1435.59
867.971	1428.61
868.149	1410.01
868.326	1513.09
868.503	1496.23
868.681	1491.97
868.858	1435.2
869.035	1402.26
869.213	1470.46
869.39	1456.32
869.567	1520.84
869.745	1426.09
869.922	1442.17
870.099	1460.39
870.276	1481.12
870.454	1486.54
870.631	1482.09
870.808	1467.36
870.985	1485.19
871.162	1497
871.339	1462.32
871.517	1399.36
871.694	1374.36
871.871	1437.91
872.048	1410.98
872.225	1408.46
872.402	1435.39
872.579	1372.62
872.756	1424.35
872.933	1364.87
873.11	1410.21
873.287	1429.19
873.463	1377.46
873.64	1313.72
873.817	1404.39
873.994	1384.82
874.171	1350.34
874.348	1411.76
874.524	1306.16
874.701	1373.01
874.878	1286.98
875.055	1366.81
875.231	1380.95
875.408	1416.02
875.585	1264.12
875.762	1310.43
875.938	1313.53
876.115	1309.26
876.291	1329.61
876.468	1315.85
876.645	1251.91
876.821	1293.38
876.998	1269.74
877.174	1329.99
877.351	1288.14
877.527	1276.33
877.704	1324.38
877.88	1308.1
878.057	1235.06
878.233	1323.6
878.409	1278.26
878.586	1311.01
878.762	1306.55
878.938	1265.67
879.115	1189.33
879.291	1246.88
879.467	1220.14
879.644	1247.26
879.82	1249.01
879.996	1205.22
880.172	1223.43
880.349	1231.38
880.525	1255.79
880.701	1195.53
880.877	1165.12
881.053	1228.47
881.229	1221.88
881.405	1255.01
881.581	1180.03
881.757	1204.83
881.933	1249.01
882.109	1234.48
882.285	1230.21
882.461	1156.59
882.637	1226.34
882.813	1165.7
882.989	1217.04
883.165	1275.55
883.341	1195.53
883.517	1288.14
883.693	1220.72
883.869	1256.76
884.044	1199.02
884.22	1257.92
884.396	1261.41
884.572	1246.49
884.747	1262.38
884.923	1250.56
885.099	1260.83
885.275	1229.83
885.45	1177.51
885.626	1227.5
885.801	1219.17
885.977	1176.93
886.153	1166.47
886.328	1196.7
886.504	1188.36
886.679	1215.68
886.855	1192.24
887.03	1230.21
887.206	1211.61
887.381	1207.93
887.557	1220.33
887.732	1226.34
887.908	1199.6
888.083	1228.28
888.258	1205.03
888.434	1197.08
888.609	1248.62
888.784	1248.43
888.96	1206.96
889.135	1206.19
889.31	1143.22
889.485	1224.01
889.661	1199.8
889.836	1252.88
890.011	1256.76
890.186	1222.85
890.361	1172.67
890.537	1196.5
890.712	1242.42
890.887	1199.21
891.062	1220.33
891.237	1257.92
891.412	1206
891.587	1194.18
891.762	1245.52
891.937	1246.68
892.112	1155.43
892.287	1176.16
892.462	1155.23
892.637	1119
892.812	1116.1
892.987	1144.77
893.161	1123.85
893.336	1134.89
893.511	1118.42
893.686	1160.85
893.861	1134.31
894.035	1117.65
894.21	1126.75
894.385	1071.54
894.56	1135.86
894.734	1049.45
894.909	1023.49
895.084	1075.6
895.258	1042.09
895.433	1069.6
895.608	1031.82
895.782	947.34
895.957	995.39
896.131	981.06
896.306	944.63
896.48	922.54
896.655	923.32
896.829	865.97
897.004	919.25
897.178	888.25
897.353	833.42
897.527	903.36
897.701	899.1
897.876	831.09
898.05	951.99
898.224	898.13
898.399	932.62
898.573	871.59
898.747	755.15
898.921	816.95
899.096	728.41
899.27	702.45
899.444	726.08
899.618	745.26
899.792	773.16
899.967	750.88
900.141	829.54
900.315	769.1
900.489	788.08
900.663	792.73
900.837	788.66
901.011	688.69
901.185	820.25
901.359	799.32
901.533	755.15
901.707	762.9
901.881	777.04
902.055	715.43
902.229	760.57
902.403	819.28
902.576	793.51
902.75	770.84
902.924	893.68
903.098	846.21
903.272	879.73
903.446	909.95
903.619	903.75
903.793	921.38
903.967	879.73
904.14	966.52
904.314	971.37
904.488	892.71
904.661	965.36
904.835	913.05
905.009	950.44
905.182	1033.56
905.356	992.1
905.529	972.92
905.703	908.4
905.876	903.75
906.05	879.14
906.223	848.92
906.397	793.31
906.57	795.64
906.744	755.92
906.917	799.32
907.09	769.1
907.264	758.25
907.437	757.28
907.61	699.93
907.784	715.62
907.957	760.57
908.13	712.13
908.304	752.24
908.477	690.05
908.65	723.18
908.823	686.56
908.996	743.13
909.17	659.43
909.343	671.06
909.516	687.33
909.689	678.81
909.862	688.5
910.035	679.39
910.208	648.97
910.381	667.77
910.554	747.78
910.727	676.29
910.9	691.4
911.073	660.6
911.246	758.44
911.419	736.35
911.592	715.23
911.765	686.75
911.938	676.29
912.11	670.48
912.283	683.07
912.456	753.79
912.629	693.34
912.802	662.15
912.974	650.33
913.147	582.71
913.32	550.16
913.493	566.82
913.665	591.24
913.838	599.95
914.01	568.76
914.183	613.9
914.356	586
914.528	639.48
914.701	693.15
914.873	655.56
915.046	582.71
915.218	548.61
915.391	489.71
915.563	529.62
915.736	578.84
915.908	612.74
916.081	611.19
916.253	580
916.425	604.41
916.598	625.34
916.77	619.52
916.942	564.3
917.115	517.22
917.287	590.65
917.459	562.17
917.632	534.86
917.804	488.94
917.976	538.73
918.148	551.71
918.32	567.4
918.493	575.93
918.665	642.19
918.837	622.04
919.009	648.58
919.181	648.97
919.353	638.9
919.525	613.71
919.697	611.58
919.869	622.43
920.041	664.08
920.213	716.2
920.385	648
920.557	594.72
920.729	620.49
920.901	644.32
921.073	617
921.244	591.82
921.416	632.89
921.588	612.35
921.76	591.82
921.932	659.24
922.103	588.72
922.275	595.5
922.447	623.98
922.619	506.37
922.79	598.02
922.962	572.44
923.134	602.28
923.305	551.32
923.477	519.74
923.648	545.32
923.82	560.62
923.991	503.27
924.163	472.66
924.335	551.71
924.506	465.69
924.677	580.58
924.849	505.79
925.02	534.66
925.192	548.81
925.363	537.37
925.535	559.85
925.706	514.12
925.877	591.62
926.049	542.22
926.22	542.02
926.391	550.36
926.562	555.39
926.734	492.81
926.905	551.91
927.076	482.16
927.247	504.44
927.419	438.56
927.59	446.7
927.761	468.98
927.932	444.96
928.103	475.37
928.274	407.95
928.445	398.46
928.616	425.19
928.787	397.49
928.958	435.08
929.129	420.54
929.3	391.68
929.471	343.43
929.642	303.71
929.813	253.15
929.984	366.88
930.155	272.13
930.326	303.71
930.496	270.39
930.667	225.05
930.838	271.55
931.009	201.42
931.18	250.43
931.35	252.76
931.521	237.26
931.692	190.76
931.863	155.69
932.033	212.46
932.204	211.88
932.374	190.37
932.545	128.18
932.716	211.3
932.886	209.17
933.057	95.63
933.227	131.09
933.398	212.46
933.568	103.19
933.739	47
933.909	95.82
934.08	123.34
934.25	47.58
934.421	87.3
934.591	108.42
934.761	78.58
934.932	55.14
935.102	114.42
935.272	123.72
935.443	99.51
935.613	72.57
935.783	94.47
935.953	59.01
936.123	253.15
936.294	64.05
936.464	98.54
936.634	88.85
936.804	48.74
936.974	44.48
937.144	114.81
937.314	92.34
937.484	84.01
937.655	48.36
937.825	126.63
937.995	82.26
938.165	126.63
938.334	108.22
938.504	108.42
938.674	102.22
938.844	111.32
939.014	189.6
939.184	173.71
939.354	232.42
939.524	203.94
939.694	147.75
939.863	165.38
940.033	203.55
940.203	210.72
940.373	189.79
940.542	202.77
940.712	144.65
940.882	210.72
941.051	198.12
941.221	206.45
941.391	196.19
941.56	143.49
941.73	140.39
941.899	280.47
942.069	159.76
942.238	199.67
942.408	116.17
942.577	198.7
942.747	137.67
942.916	99.7
943.086	119.85
943.255	173.9
943.425	127.4
943.594	108.42
943.763	73.93
943.933	56.69
944.102	62.69
944.271	78.97
944.441	139.61
944.61	95.63
944.779	114.23
944.948	203.16
945.117	83.81
945.287	88.27
945.456	62.5
945.625	88.85
945.794	113.07
945.963	90.59
946.132	125.85
946.301	91.56
946.47	151.82
946.639	69.47
946.808	121.4
946.977	130.31
947.146	177.97
947.315	96.99
947.484	155.3
947.653	109
947.822	88.27
947.991	71.99
948.16	197.93
948.329	161.5
948.498	111.91
948.666	125.08
948.835	152.4
949.004	104.16
949.173	60.37
949.341	106.87
949.51	161.12
949.679	164.02
949.847	124.89
950.016	201.61
950.185	186.3
950.353	100.47
950.522	124.3
950.69	185.72
950.859	88.66
951.028	184.37
951.196	125.66
951.365	93.69
951.533	94.27
951.701	170.42
951.87	145.42
952.038	77.03
952.207	121.59
952.375	196.77
952.543	111.32
952.712	77.42
952.88	91.76
953.048	189.21
953.217	147.55
953.385	124.11
953.553	179.14
953.721	87.3
953.89	109
954.058	72.38
954.226	96.99
954.394	123.72
954.562	40.41
954.73	79.36
954.898	92.53
955.067	154.53
955.235	105.51
955.403	162.09
955.571	198.51
955.739	133.02
955.907	80.91
956.075	85.36
956.243	84.59
956.41	117.33
956.578	61.92
956.746	61.53
956.914	63.08
957.082	146.59
957.25	141.74
957.418	109.39
957.585	137.87
957.753	160.54
957.921	56.88
958.089	109.58
958.256	135.74
958.424	128.76
958.592	129.92
958.759	75.29
958.927	140.77
959.095	88.07
959.262	126.44
959.43	118.88
959.597	97.76
959.765	108.03
959.932	90.59
960.1	147.55
960.267	153.17
960.435	115.2
960.602	160.73
960.77	79.94
960.937	85.17
961.104	123.72
961.272	67.92
961.439	67.15
961.606	129.54
961.774	167.7
961.941	85.94
962.108	123.72
962.275	128.76
962.443	159.18
962.61	130.12
962.777	200.25
962.944	126.24
963.111	159.37
963.278	152.2
963.446	137.67
963.613	97.57
963.78	132.25
963.947	150.07
964.114	112.1
964.281	214.59
964.448	140.97
964.615	117.14
964.782	132.25
964.949	173.9
965.116	144.26
965.282	189.4
965.449	129.54
965.616	99.7
965.783	135.15
965.95	137.67
966.117	89.04
966.283	119.46
966.45	145.81
966.617	138.64
966.784	176.42
966.95	180.88
967.117	161.7
967.284	110.16
967.45	104.74
967.617	187.47
967.784	177.2
967.95	222.92
968.117	133.8
968.283	209.17
968.45	244.62
968.616	159.95
968.783	203.35
968.949	172.55
969.116	207.04
969.282	159.95
969.449	179.33
969.615	158.4
969.781	113.26
969.948	130.31
970.114	102.61
970.28	218.85
970.447	153.37
970.613	199.29
970.779	152.01
970.945	170.42
971.112	153.17
971.278	153.17
971.444	153.37
971.61	171.58
971.776	142.71
971.942	169.45
972.108	175.45
972.275	160.54
972.441	172.74
972.607	216.14
972.773	122.17
972.939	172.74
973.105	135.35
973.271	103.96
973.437	115.2
973.602	134.96
973.768	151.43
973.934	115.97
974.1	170.61
974.266	83.04
974.432	140
974.598	123.92
974.763	178.55
974.929	127.4
975.095	202.19
975.261	88.85
975.426	111.52
975.592	137.67
975.758	199.09
975.923	72.38
976.089	111.32
976.255	142.52
976.42	145.62
976.586	127.02
976.751	162.47
976.917	253.73
977.082	144.65
977.248	82.84
977.413	50.87
977.579	111.91
977.744	127.02
977.91	98.92
978.075	116.56
978.24	164.41
978.406	125.66
978.571	103.96
978.736	90.59
978.902	172.94
979.067	93.31
979.232	45.06
979.397	124.11
979.563	189.02
979.728	91.76
979.893	125.47
980.058	92.14
980.223	148.14
980.388	138.84
980.554	142.13
980.719	98.15
980.884	128.76
981.049	165.19
981.214	96.21
981.379	142.9
981.544	96.41
981.709	111.52
981.874	96.6
982.039	135.15
982.204	164.41
982.368	127.99
982.533	106.48
982.698	144.65
982.863	147.75
983.028	136.7
983.193	155.3
983.357	131.86
983.522	123.34
983.687	97.96
983.852	114.04
984.016	123.34
984.181	151.43
984.346	149.88
984.51	120.43
984.675	107.06
984.839	158.4
985.004	162.47
985.168	161.7
985.333	102.8
985.498	105.12
985.662	175.45
985.827	121.4
985.991	131.28
986.155	120.04
986.32	155.69
986.484	176.23
986.649	142.13
986.813	85.36
986.977	106.48
987.142	143.87
987.306	78.97
987.47	59.59
987.634	80.91
987.799	102.22
987.963	118.69
988.127	158.21
988.291	182.24
988.455	129.34
988.62	110.94
988.784	128.95
988.948	128.37
989.112	59.98
989.276	87.69
989.44	118.49
989.604	86.14
989.768	103.38
989.932	200.84
990.096	90.98
990.26	85.17
990.424	80.32
990.588	112.68
990.752	171.77
990.915	129.92
991.079	81.29
991.243	84.97
991.407	150.65
991.571	98.54
991.734	111.32
991.898	141.55
992.062	190.37
992.226	118.88
992.389	65.21
992.553	52.81
992.717	69.86
992.88	74.9
993.044	92.34
993.207	107.06
993.371	140.77
993.535	127.6
993.698	77.22
993.862	132.44
994.025	135.15
994.189	120.04
994.352	119.85
994.515	105.32
994.679	137.87
994.842	109.19
995.006	138.06
995.169	57.07
995.332	90.21
995.496	135.35
995.659	44.87
995.822	85.75
995.985	102.99
996.149	143.68
996.312	93.5
996.475	171.97
996.638	71.22
996.801	142.9
996.964	159.18
997.128	78.58
997.291	99.89
997.454	109.77
997.617	64.05
997.78	116.75
997.943	55.52
998.106	121.59
998.269	64.24
998.432	83.04
998.595	78.77
998.758	43.9
998.92	45.64
999.083	30.92
999.246	43.9
999.409	35.76
999.572	26.85
999.735	76.64
999.897	102.61
1000.06	49.52
1000.223	73.16
1000.386	127.6
1000.548	147.94
1000.711	102.22
1000.874	122.37
1001.036	26.46
1001.199	133.02
1001.361	43.51
1001.524	87.88
1001.687	115.2
1001.849	54.75
1002.012	93.31
1002.174	79.94
1002.337	121.79
1002.499	65.6
1002.661	116.75
1002.824	27.43
1002.986	56.3
1003.149	71.41
1003.311	50.49
1003.473	146.59
1003.636	49.71
1003.798	104.16
1003.96	87.69
1004.123	68.89
1004.285	40.61
1004.447	66.76
1004.609	54.36
1004.771	144.26
1004.933	31.11
1005.096	40.41
1005.258	6.12
1005.42	21.23
1005.582	101.44
1005.744	67.73
1005.906	9.22
1006.068	52.81
1006.23	30.14
1006.392	12.51
1006.554	23.94
1006.716	109.97
1006.878	69.47
1007.04	11.54
1007.202	49.52
1007.363	68.7
1007.525	69.28
1007.687	94.66
1007.849	133.6
1008.011	25.88
1008.172	3.21
1008.334	35.76
1008.496	94.47
1008.658	-5.89
1008.819	20.26
1008.981	3.6
1009.143	26.85
1009.304	38.28
1009.466	67.34
1009.627	118.3
1009.789	148.72
1009.95	59.4
1010.112	12.51
1010.273	82.84
1010.435	34.79
1010.596	50.68
1010.758	78.19
1010.919	50.29
1011.081	33.63
1011.242	60.17
1011.403	91.95
1011.565	42.93
1011.726	89.43
1011.887	23.75
1012.049	64.63
1012.21	74.51
1012.371	126.24
1012.532	2.05
1012.693	61.72
1012.855	37.31
1013.016	44.29
1013.177	106.09
1013.338	47.19
1013.499	125.66
1013.66	52.62
1013.821	81.29
1013.982	77.22
1014.143	62.89
1014.304	11.16
1014.465	89.43
1014.626	63.08
1014.787	48.55
1014.948	123.34
1015.109	-28.37
1015.27	105.9
1015.431	32.86
1015.592	-5.89
1015.752	79.16
1015.913	34.21
1016.074	70.64
1016.235	73.93
1016.395	52.04
1016.556	23.56
1016.717	12.13
1016.877	115.2
1017.038	22.01
1017.199	51.84
1017.359	33.24
1017.52	59.98
1017.681	47
1017.841	65.79
1018.002	5.54
1018.162	48.55
1018.323	120.24
1018.483	39.25
1018.644	27.82
1018.804	-19.07
1018.964	-3.76
1019.125	8.44
1019.285	25.49
1019.446	13.29
1019.606	4.76
1019.766	-39.02
1019.926	61.92
1020.087	35.76
1020.247	-30.5
1020.407	51.07
1020.567	82.07
1020.728	55.52
1020.888	12.13
1021.048	-11.71
1021.208	2.83
1021.368	-5.12
1021.528	91.95
1021.688	79.36
1021.848	81.1
1022.008	28.21
1022.168	3.99
1022.328	33.44
1022.488	56.49
1022.648	15.81
1022.808	30.53
1022.968	63.08
1023.128	29.56
1023.288	39.64
1023.448	13.68
1023.608	65.41
1023.767	74.71
1023.927	25.11
1024.087	3.99
1024.247	-2.79
1024.406	-1.05
1024.566	-13.64
1024.726	11.54
1024.885	23.36
1025.045	71.41
1025.205	31.5
1025.364	-0.66
1025.524	19.49
1025.683	26.85
1025.843	37.89
1026.003	33.24
1026.162	91.56
1026.321	72.19
1026.481	47.58
1026.64	1.66
1026.8	42.35
1026.959	30.73
1027.119	46.61
1027.278	18.33
1027.437	-3.37
1027.597	27.63
1027.756	51.84
1027.915	32.66
1028.074	24.91
1028.234	-7.44
1028.393	42.54
1028.552	13.29
1028.711	-41.35
1028.87	77.81
1029.03	-22.17
1029.189	6.12
1029.348	-25.85
1029.507	13.68
1029.666	7.28
1029.825	-17.71
1029.984	10.38
1030.143	6.12
1030.302	-0.86
1030.461	-45.22
1030.62	16.19
1030.779	73.54
1030.938	13.48
1031.097	-6.28
1031.255	60.56
1031.414	87.88
1031.573	62.69
1031.732	-37.67
1031.891	35.76
1032.049	70.06
1032.208	51.65
1032.367	-22.56
1032.525	-12.67
1032.684	13.68
1032.843	10.96
1033.001	-28.56
1033.16	157.63
1033.319	39.44
1033.477	59.79
1033.636	26.27
1033.794	-24.69
1033.953	53.59
1034.111	40.22
1034.27	-10.16
1034.428	15.23
1034.587	-14.03
1034.745	4.76
1034.903	23.94
1035.062	33.63
1035.22	-20.42
1035.378	47.77
1035.537	-10.16
1035.695	59.4
1035.853	6.31
1036.011	61.72
1036.17	31.69
1036.328	-42.51
1036.486	18.13
1036.644	42.35
1036.802	-96.37
1036.96	-5.12
1037.119	16.58
1037.277	-15.39
1037.435	-35.73
1037.593	-25.66
1037.751	14.06
1037.909	37.89
1038.067	37.89
