Data from gum_old_FLMT105791__166__15-47-53-250.txt Node

Date: Mon Mar 20 15:47:53 GMT 2023
User: antho
Spectrometer: FLMT10579
Trigger mode: 0
Integration Time (sec): 1.000000E-1
Scans to average: 10
Electric dark correction enabled: true
Nonlinearity correction enabled: false
Boxcar width: 0
XAxis mode: Wavelengths
Number of Pixels in Spectrum: 3648
>>>>>Begin Spectral Data<<<<<
345.248	-215.61
345.464	-215.61
345.681	-215.61
345.898	-198.36
346.114	-196.23
346.331	-38.52
346.548	28.71
346.764	-10.82
346.981	-29.61
347.197	-3.26
347.414	17.47
347.631	-31.94
347.847	80.24
348.064	2.74
348.28	39.75
348.497	-40.85
348.713	-13.92
348.93	18.05
349.146	19.02
349.363	-18.37
349.579	39.56
349.796	7.39
350.012	10.49
350.229	36.26
350.445	27.54
350.661	-8.69
350.878	1
351.094	40.14
351.311	29.68
351.527	29.09
351.743	-17.21
351.96	35.29
352.176	57.96
352.392	54.86
352.609	41.11
352.825	-7.91
353.041	15.34
353.257	3.52
353.474	14.56
353.69	47.89
353.906	3.91
354.122	-18.95
354.339	66.29
354.555	19.99
354.771	7.39
354.987	66.68
355.203	97.49
355.42	1.58
355.636	7.2
355.852	-5.39
356.068	33.16
356.284	-34.84
356.5	82.76
356.716	29.09
356.932	14.76
357.148	57.58
357.364	35.1
357.58	82.37
357.796	64.94
358.012	51.38
358.228	56.41
358.444	-55.19
358.66	53.31
358.876	16.31
359.092	-6.56
359.308	43.82
359.524	34.71
359.74	28.13
359.956	-1.71
360.172	27.35
360.388	61.26
360.604	15.14
360.819	102.33
361.035	54.28
361.251	45.76
361.467	-15.85
361.683	67.65
361.898	24.25
362.114	46.14
362.33	53.51
362.546	52.54
362.762	52.93
362.977	32
363.193	7.2
363.409	56.03
363.624	8.56
363.84	13.21
364.056	23.28
364.271	44.21
364.487	54.28
364.703	27.93
364.918	15.34
365.134	26.38
365.35	21.34
365.565	143.79
365.781	49.05
365.996	62.61
366.212	112.21
366.427	66.68
366.643	21.34
366.858	11.08
367.074	13.21
367.289	94.39
367.505	176.34
367.72	-1.91
367.936	23.86
368.151	100.2
368.367	85.28
368.582	53.89
368.798	24.44
369.013	90.12
369.228	51.38
369.444	59.51
369.659	82.57
369.874	77.72
370.09	109.5
370.305	-21.67
370.52	28.71
370.736	123.26
370.951	36.46
371.166	105.82
371.381	127.13
371.597	76.95
371.812	42.08
372.027	34.91
372.242	70.94
372.458	123.84
372.673	56.03
372.888	67.07
373.103	89.35
373.318	148.83
373.533	87.22
373.749	52.73
373.964	24.06
374.179	107.37
374.394	6.62
374.609	113.37
374.824	11.85
375.039	95.94
375.254	19.02
375.469	96.52
375.684	59.13
375.899	99.04
376.114	55.64
376.329	50.41
376.544	75.21
376.759	66.49
376.974	49.24
377.189	46.73
377.404	48.86
377.619	99.04
377.834	21.54
378.049	0.81
378.264	12.63
378.478	80.24
378.693	42.08
378.908	98.65
379.123	69.98
379.338	116.28
379.553	71.72
379.767	66.68
379.982	115.89
380.197	100.01
380.412	50.21
380.626	93.03
380.841	162.78
381.056	79.08
381.271	160.07
381.485	43.24
381.7	38.59
381.915	81.79
382.129	47.69
382.344	63.19
382.559	54.09
382.773	94.39
382.988	1
383.202	81.41
383.417	51.18
383.632	171.5
383.846	69.39
384.061	27.54
384.275	47.31
384.49	84.12
384.704	92.06
384.919	83.15
385.133	70.17
385.348	121.9
385.562	41.3
385.777	118.22
385.991	68.43
386.206	74.04
386.42	69.78
386.634	115.7
386.849	139.92
387.063	102.72
387.277	48.08
387.492	62.03
387.706	28.32
387.92	30.26
388.135	117.44
388.349	105.62
388.563	92.84
388.778	82.37
388.992	104.27
389.206	134.69
389.42	163.17
389.635	90.32
389.849	134.69
390.063	162.2
390.277	116.86
390.491	169.56
390.706	142.82
390.92	163.17
391.134	111.05
391.348	150.96
391.562	77.72
391.776	119.19
391.99	108.92
392.205	164.14
392.419	83.54
392.633	119.96
392.847	162.97
393.061	68.62
393.275	129.84
393.489	88.77
393.703	113.96
393.917	135.85
394.131	62.42
394.345	120.74
394.559	125.77
394.773	102.33
394.986	144.96
395.2	117.64
395.414	159.87
395.628	115.51
395.842	137.79
396.056	133.14
396.27	91.87
396.484	142.82
396.697	113.57
396.911	141.27
397.125	123.45
397.339	145.34
397.553	104.46
397.766	175.57
397.98	140.69
398.194	170.92
398.408	133.52
398.621	198.04
398.835	203.27
399.049	186.8
399.262	222.26
399.476	209.86
399.69	207.73
399.903	265.27
400.117	208.5
400.331	226.52
400.544	179.64
400.758	295.11
400.971	216.06
401.185	252.48
401.398	187.19
401.612	268.18
401.826	228.07
402.039	253.65
402.253	200.17
402.466	220.13
402.68	224.97
402.893	252.29
403.106	241.44
403.32	235.44
403.533	233.3
403.747	233.3
403.96	249.19
404.174	271.86
404.387	185.84
404.6	236.99
404.814	290.65
405.027	244.15
405.24	228.85
405.454	227.88
405.667	285.03
405.88	190.1
406.094	267.02
406.307	291.04
406.52	255.97
406.733	174.79
406.947	197.27
407.16	303.05
407.373	292.01
407.586	226.72
407.799	213.74
408.012	309.06
408.226	256.36
408.439	321.46
408.652	206.18
408.865	271.28
409.078	344.51
409.291	272.05
409.504	233.3
409.717	304.22
409.93	309.06
410.143	288.13
410.357	203.47
410.57	214.12
410.783	234.66
410.996	255.39
411.209	245.12
411.421	319.52
411.634	281.55
411.847	279.03
412.06	293.75
412.273	297.82
412.486	307.7
412.699	382.68
412.912	289.88
413.125	355.17
413.338	326.69
413.55	354.2
413.763	291.82
413.976	313.71
414.189	283.1
414.402	277.28
414.615	381.33
414.827	300.73
415.04	355.56
415.253	348.97
415.466	374.93
415.678	374.16
415.891	323.78
416.104	331.53
416.316	285.62
416.529	291.82
416.742	310.8
416.954	371.06
417.167	339.28
417.38	322.82
417.592	360.01
417.805	300.34
418.017	287.94
418.23	360.6
418.442	291.82
418.655	324.37
418.868	325.53
419.08	368.54
419.293	377.45
419.505	369.31
419.718	380.36
419.93	397.6
420.142	323.59
420.355	392.37
420.567	378.81
420.78	367.18
420.992	335.6
421.205	418.91
421.417	335.21
421.629	366.99
421.842	344.51
422.054	336.18
422.266	413.1
422.479	418.91
422.691	326.5
422.903	388.69
423.115	369.12
423.328	346.65
423.54	349.94
423.752	377.26
423.964	333.08
424.177	383.46
424.389	371.64
424.601	471.81
424.813	379.2
425.025	414.07
425.238	403.03
425.45	375.9
425.662	375.51
425.874	703.33
426.086	372.8
426.298	393.53
426.51	382.3
426.722	376.29
426.934	367.18
427.146	414.07
427.358	364.47
427.57	407.48
427.782	358.85
427.994	366.02
428.206	357.5
428.418	339.67
428.63	411.36
428.842	438.29
429.054	408.45
429.266	418.72
429.478	358.27
429.69	377.06
429.902	319.33
430.114	386.36
430.325	390.24
430.537	357.11
430.749	340.45
430.961	256.94
431.173	306.93
431.384	330.76
431.596	271.86
431.808	370.28
432.02	401.09
432.231	436.54
432.443	506.88
432.655	437.71
432.867	407.48
433.078	477.04
433.29	476.46
433.502	451.46
433.713	501.06
433.925	476.07
434.136	500.29
434.348	412.13
434.56	372.03
434.771	511.14
434.983	389.66
435.194	441.78
435.406	460.38
435.617	525.67
435.829	563.06
436.04	494.67
436.252	521.6
436.463	534.39
436.675	556.86
436.886	536.52
437.098	526.64
437.309	585.54
437.521	528.77
437.732	540.78
437.943	517.14
438.155	530.9
438.366	448.17
438.578	572.94
438.789	490.79
439	515.01
439.211	485.95
439.423	491.18
439.634	542.72
439.845	552.41
440.057	550.08
440.268	573.33
440.479	528.77
440.69	562.67
440.902	514.62
441.113	531.48
441.324	499.13
441.535	557.64
441.746	643.08
441.957	528.77
442.168	535.36
442.38	608.01
442.591	610.34
442.802	540.97
443.013	567.52
443.224	598.52
443.435	565
443.646	596.39
443.857	565
444.068	552.41
444.279	577.79
444.49	669.62
444.701	602
444.912	726.78
445.123	652.77
445.334	633.97
445.545	638.62
445.756	599.29
445.967	583.02
446.178	625.25
446.388	614.4
446.599	637.46
446.81	627.39
447.021	585.15
447.232	659.55
447.443	668.07
447.653	603.75
447.864	678.92
448.075	641.92
448.286	675.44
448.496	630.1
448.707	681.64
448.918	630.29
449.129	724.07
449.339	638.82
449.55	689
449.761	662.26
449.971	696.36
450.182	657.61
450.393	684.93
450.603	651.02
450.814	719.61
451.024	706.24
451.235	721.55
451.446	793.23
451.656	769.6
451.867	698.88
452.077	693.45
452.288	777.93
452.498	754.29
452.709	667.69
452.919	686.09
453.13	673.3
453.34	720
453.55	634.36
453.761	717.28
453.971	713.02
454.182	712.63
454.392	744.8
454.602	789.75
454.813	734.53
455.023	726.2
455.233	693.84
455.444	712.83
455.654	657.03
455.864	684.15
456.075	728.72
456.285	681.64
456.495	689.38
456.705	755.26
456.916	798.27
457.126	784.51
457.336	742.47
457.546	665.55
457.756	733.75
457.967	781.03
458.177	735.11
458.387	749.06
458.597	698.49
458.807	720.19
459.017	693.45
459.227	743.44
459.437	742.08
459.647	763.59
459.857	778.12
460.068	732.59
460.278	807.96
460.488	748.48
460.698	824.04
460.908	723.1
461.117	718.06
461.327	744.8
461.537	744.22
461.747	758.36
461.957	788
462.167	903.67
462.377	811.25
462.587	773.47
462.797	815.32
463.007	803.31
463.216	847.68
463.426	858.72
463.636	864.53
463.846	758.17
464.056	805.25
464.265	826.75
464.475	766.88
464.685	812.22
464.895	848.65
465.104	803.7
465.314	819
465.524	777.15
465.733	759.13
465.943	849.42
466.153	883.91
466.362	854.65
466.572	846.71
466.782	830.43
466.991	856.01
467.201	874.61
467.41	764.75
467.62	829.27
467.829	856.78
468.039	858.53
468.249	853.88
468.458	842.64
468.668	841.48
468.877	896.31
469.086	920.72
469.296	921.69
469.505	894.76
469.715	918.59
469.924	889.72
470.134	942.03
470.343	965.86
470.552	866.86
470.762	871.89
470.971	849.03
471.18	883.71
471.39	868.21
471.599	862.98
471.808	918.2
472.018	888.56
472.227	953.07
472.436	979.42
472.645	945.33
472.855	924.21
473.064	1040.45
473.273	998.8
473.482	997.06
473.691	1022.63
473.901	1004.61
474.11	931.76
474.319	1063.32
474.528	990.47
474.737	1079.01
474.946	1032.12
475.155	1046.07
475.364	1111.17
475.573	1064.09
475.783	1086.57
475.992	1106.72
476.201	1134.42
476.41	1058.09
476.619	1017.59
476.828	1043.17
477.037	1013.52
477.245	1068.74
477.454	1100.9
477.663	1101.29
477.872	1085.6
478.081	1200.68
478.29	1103.04
478.499	1239.43
478.708	1185.77
478.917	1221.61
479.125	1161.74
479.334	1174.33
479.543	1169.49
479.752	1207.47
479.961	1180.15
480.169	1228.78
480.378	1184.6
480.587	1340.76
480.796	1259.78
481.004	1221.03
481.213	1258.42
481.422	1261.33
481.63	1263.07
481.839	1299.88
482.048	1358.39
482.256	1298.91
482.465	1297.36
482.674	1323.71
482.882	1350.06
483.091	1395.98
483.299	1340.38
483.508	1375.44
483.716	1368.66
483.925	1360.53
484.134	1299.3
484.342	1319.64
484.551	1376.99
484.759	1340.96
484.967	1369.63
485.176	1381.45
485.384	1375.06
485.593	1383.97
485.801	1363.63
486.01	1349.48
486.218	1262.49
486.426	1179.37
486.635	1201.27
486.843	1163.29
487.051	1222.96
487.26	1184.6
487.468	1268.5
487.676	1328.75
487.885	1318.09
488.093	1345.41
488.301	1402.76
488.509	1412.26
488.717	1464.37
488.926	1411.29
489.134	1427.56
489.342	1403.15
489.55	1369.24
489.758	1427.95
489.967	1421.17
490.175	1542.84
490.383	1494.4
490.591	1592.83
490.799	1467.86
491.007	1606.58
491.215	1527.54
491.423	1503.32
491.631	1505.06
491.839	1515.33
492.047	1548.07
492.255	1446.36
492.463	1426.4
492.671	1453.91
492.879	1556.02
493.087	1494.4
493.295	1514.17
493.503	1585.08
493.711	1597.28
493.919	1602.52
494.127	1612.78
494.334	1603.68
494.542	1524.44
494.75	1631.97
494.958	1586.43
495.166	1674.59
495.374	1672.46
495.581	1668.97
495.789	1677.11
495.997	1702.68
496.205	1604.07
496.412	1591.86
496.62	1628.28
496.828	1624.8
497.035	1655.41
497.243	1673.04
497.451	1669.55
497.658	1688.35
497.866	1659.67
498.074	1741.24
498.281	1646.88
498.489	1744.73
498.696	1670.52
498.904	1629.06
499.112	1622.86
499.319	1729.81
499.527	1687.57
499.734	1736.39
499.942	1634.87
500.149	1677.69
500.357	1730.58
500.564	1658.7
500.771	1686.41
500.979	1630.42
501.186	1626.93
501.394	1667.81
501.601	1664.9
501.808	1660.83
502.016	1675.17
502.223	1624.6
502.43	1632.55
502.638	1662.58
502.845	1696.29
503.052	1717.41
503.26	1668.2
503.467	1770.69
503.674	1729.03
503.881	1753.64
504.089	1833.85
504.296	1764.1
504.503	1680.79
504.71	1724.77
504.917	1669.94
505.125	1721.28
505.332	1756.93
505.539	1744.92
505.746	1836.17
505.953	1805.56
506.16	1806.34
506.367	1853.81
506.574	1884.61
506.781	1888.87
506.988	1791.23
507.195	1845.28
507.402	1823.77
507.609	1881.9
507.816	1796.84
508.023	1790.45
508.23	1804.4
508.437	1741.82
508.644	1810.99
508.851	1852.26
509.058	1865.24
509.265	1872.79
509.472	1881.9
509.679	1958.82
509.885	1848.96
510.092	1846.83
510.299	1840.24
510.506	1876.28
510.713	1882.87
510.92	1866.59
511.126	1931.11
511.333	1892.75
511.54	1891.78
511.746	1964.63
511.953	1952.42
512.16	1973.35
512.367	1964.44
512.573	1921.04
512.78	1956.3
512.987	1908.64
513.193	1894.69
513.4	1826.68
513.606	1900.31
513.813	1934.4
514.02	1931.3
514.226	1994.85
514.433	1940.99
514.639	1865.82
514.846	1895.07
515.052	1846.06
515.259	1924.52
515.465	1942.74
515.672	1911.15
515.878	2034.38
516.085	1962.11
516.291	2002.99
516.497	1977.61
516.704	1922.78
516.91	1865.43
517.117	1782.7
517.323	1755.58
517.529	1758.68
517.736	1713.73
517.942	1748.79
518.148	1801.88
518.354	1844.89
518.561	1867.56
518.767	1874.54
518.973	1934.21
519.179	1895.07
519.386	1894.88
519.592	1871.44
519.798	1894.88
520.004	2024.11
520.21	1993.11
520.417	2027.4
520.623	2067.51
520.829	2089.98
521.035	2086.3
521.241	2092.89
521.447	2093.47
521.653	2196.16
521.859	2049.1
522.065	2147.53
522.271	2224.06
522.477	2161.48
522.683	2249.44
522.889	2171.94
523.095	2143.26
523.301	2161.48
523.507	2094.05
523.713	2155.86
523.919	2116.53
524.125	2241.88
524.331	2175.81
524.537	2313.76
524.742	2293.42
524.948	2292.64
525.154	2313.96
525.36	2399.98
525.566	2306.21
525.772	2336.24
525.977	2250.41
526.183	2326.16
526.389	2345.34
526.595	2230.45
526.8	2234.52
527.006	2152.37
527.212	2091.92
527.417	2075.84
527.623	2062.47
527.829	2164.77
528.034	2217.08
528.24	2207.59
528.446	2185.69
528.651	2334.3
528.857	2349.8
529.062	2374.02
529.268	2368.2
529.473	2392.42
529.679	2411.02
529.884	2469.73
530.09	2429.82
530.295	2435.82
530.501	2453.84
530.706	2435.05
530.912	2357.94
531.117	2452.48
531.323	2421.1
531.528	2511.97
531.733	2507.51
531.939	2478.83
532.144	2517.39
532.35	2493.37
532.555	2520.3
532.76	2458.68
532.966	2483.29
533.171	2426.14
533.376	2407.34
533.581	2330.62
533.787	2412.57
533.992	2451.9
534.197	2509.45
534.402	2429.82
534.607	2500.92
534.813	2579.78
535.018	2468.57
535.223	2521.46
535.428	2520.88
535.633	2523.4
535.838	2551.49
536.043	2569.12
536.249	2667.74
536.454	2572.41
536.659	2612.33
536.864	2599.73
537.069	2568.93
537.274	2550.52
537.479	2557.69
537.684	2594.11
537.889	2509.45
538.094	2658.83
538.299	2537.93
538.504	2594.5
538.708	2586.56
538.913	2615.62
539.118	2590.43
539.323	2638.09
539.528	2552.65
539.733	2582.49
539.938	2625.5
540.142	2567.96
540.347	2617.94
540.552	2539.67
540.757	2532.31
540.962	2527.46
541.166	2462.56
541.371	2461.4
541.576	2506.54
541.781	2388.55
541.985	2606.71
542.19	2551.88
542.395	2670.45
542.599	2666.19
542.804	2589.46
543.008	2708.62
543.213	2589.66
543.418	2591.98
543.622	2618.33
543.827	2536.38
544.031	2638.48
544.236	2653.21
544.44	2684.98
544.645	2714.82
544.849	2645.07
545.054	2726.06
545.258	2757.25
545.463	2747.37
545.667	2671.23
545.872	2700.67
546.076	2645.65
546.281	2674.33
546.485	2629.38
546.689	2705.32
546.894	2731.87
547.098	2677.23
547.302	2655.34
547.507	2721.02
547.711	2702.81
547.915	2714.82
548.119	2639.06
548.324	2643.13
548.528	2697.96
548.732	2665.8
548.936	2716.76
549.141	2706.49
549.345	2692.15
549.549	2684.79
549.753	2692.73
549.957	2818.09
550.161	2784.57
550.366	2729.74
550.57	2669.87
550.774	2717.72
550.978	2697.96
551.182	2729.35
551.386	2700.48
551.59	2737.68
551.794	2678.2
551.998	2687.11
552.202	2686.34
552.406	2673.74
552.61	2731.09
552.814	2742.14
553.018	2789.22
553.222	2706.49
553.426	2717.72
553.63	2774.69
553.833	2699.12
554.037	2652.82
554.241	2717.53
554.445	2736.71
554.649	2685.76
554.853	2701.64
555.056	2699.71
555.26	2756.67
555.464	2752.99
555.668	2740.78
555.871	2762.87
556.075	2767.91
556.279	2689.44
556.483	2659.02
556.686	2674.52
556.89	2684.98
557.094	2688.08
557.297	2605.35
557.501	2702.22
557.704	2554.01
557.908	2708.42
558.112	2610.97
558.315	2687.11
558.519	2609.42
558.722	2643.13
558.926	2596.44
559.129	2540.25
559.333	2482.9
559.536	2519.52
559.74	2507.7
559.943	2514.1
560.147	2463.14
560.35	2510.8
560.553	2553.23
560.757	2472.25
560.96	2645.65
561.164	2534.05
561.367	2642.36
561.57	2560.01
561.774	2579.2
561.977	2539.28
562.18	2508.48
562.384	2629.38
562.587	2510.22
562.79	2513.71
562.993	2526.88
563.197	2515.07
563.4	2618.91
563.603	2624.14
563.806	2646.62
564.009	2501.31
564.212	2565.05
564.416	2461.4
564.619	2504.02
564.822	2475.54
565.025	2562.34
565.228	2461.01
565.431	2528.63
565.634	2424.97
565.837	2441.83
566.04	2415.87
566.243	2426.91
566.446	2327.91
566.649	2449.97
566.852	2342.05
567.055	2397.65
567.258	2446.28
567.461	2511
567.664	2511.77
567.867	2361.81
568.07	2422.84
568.273	2478.83
568.475	2480.38
568.678	2387.77
568.881	2403.08
569.084	2363.55
569.287	2236.84
569.489	2296.71
569.692	2401.53
569.895	2393.39
570.098	2323.06
570.3	2288.96
570.503	2247.31
570.706	2263.19
570.909	2247.69
571.111	2225.99
571.314	2177.56
571.516	2209.72
571.719	2214.95
571.922	2197.71
572.124	2198.29
572.327	2294.97
572.529	2228.51
572.732	2231.42
572.935	2253.12
573.137	2349.41
573.34	2215.73
573.542	2325.77
573.745	2273.07
573.947	2275.4
574.15	2215.14
574.352	2203.91
574.554	2310.47
574.757	2196.35
574.959	2176.01
575.162	2183.95
575.364	2161.09
575.566	2303.88
575.769	2141.52
575.971	2170.97
576.173	2049.1
576.376	2141.13
576.578	2159.54
576.78	2234.71
576.982	2089.4
577.185	2159.15
577.387	2087.66
577.589	2122.15
577.791	2171.16
577.993	2129.31
578.196	2164.38
578.398	2140.36
578.6	2130.86
578.802	2046.39
579.004	2041.74
579.206	2071.58
579.408	2102.77
579.61	2033.99
579.812	2129.9
580.014	2079.91
580.216	2077.39
580.418	2073.13
580.62	2012.68
580.822	2021.01
581.024	2078.94
581.226	2129.9
581.428	2048.33
581.63	2181.04
581.832	2036.32
582.034	2144.43
582.236	2098.51
582.438	2110.33
582.64	2096.96
582.841	2132.41
583.043	2185.31
583.245	2095.6
583.447	2111.1
583.649	2082.62
583.85	2112.65
584.052	2120.6
584.254	2058.02
584.456	2075.65
584.657	2034.96
584.859	2092.89
585.061	2064.99
585.262	2035.93
585.464	2014.03
585.666	2058.79
585.867	2010.35
586.069	2074.68
586.27	2033.99
586.472	2020.62
586.674	2004.35
586.875	1984.2
587.077	1989.04
587.278	2042.9
587.48	1987.88
587.681	2127.76
587.883	2024.88
588.084	1948.16
588.285	1982.65
588.487	1946.8
588.688	1975.87
588.89	1911.15
589.091	1860.59
589.292	1899.34
589.494	1815.44
589.695	1806.14
589.896	1721.28
590.098	1699
590.299	1789.68
590.5	1743.37
590.702	1791.61
590.903	1805.76
591.104	1884.81
591.305	1863.49
591.507	1920.45
591.708	1878.22
591.909	1895.27
592.11	1943.51
592.311	1930.14
592.512	1857.68
592.714	1827.07
592.915	1849.93
593.116	1853.42
593.317	1865.04
593.518	1858.07
593.719	1880.93
593.92	1907.47
594.121	1937.12
594.322	1888.29
594.523	1895.66
594.724	1843.34
594.925	1900.11
595.126	1898.17
595.327	1901.08
595.528	1857.49
595.729	1872.79
595.929	1842.37
596.13	1854.77
596.331	1889.65
596.532	1873.57
596.733	1955.14
596.934	1964.05
597.135	1893.72
597.335	1895.85
597.536	1843.92
597.737	1872.99
597.938	1845.47
598.138	1913.29
598.339	1811.18
598.54	1869.11
598.74	1838.89
598.941	1852.26
599.142	1900.89
599.342	1875.51
599.543	1846.06
599.744	1822.61
599.944	1868.72
600.145	1840.24
600.345	1849.16
600.546	1953.97
600.746	1915.42
600.947	1936.73
601.147	1854.39
601.348	1879.19
601.548	1826.1
601.749	1858.65
601.949	1767.98
602.15	1804.21
602.35	1800.91
602.551	1878.02
602.751	1761.97
602.951	1809.83
603.152	1773.79
603.352	1836.95
603.552	1850.9
603.753	1863.88
603.953	1841.99
604.153	1868.72
604.354	1822.81
604.554	1819.51
604.754	1837.53
604.954	1837.72
605.155	1824.16
605.355	1816.03
605.555	1876.09
605.755	1913.48
605.955	1821.26
606.155	1871.82
606.356	1800.91
606.556	1838.31
606.756	1826.49
606.956	1777.28
607.156	1867.56
607.356	1810.99
607.556	1813.31
607.756	1825.13
607.956	1878.02
608.156	1798.01
608.356	1743.18
608.556	1820.29
608.756	1780.38
608.956	1758.68
609.156	1792.58
609.356	1743.76
609.556	1751.7
609.755	1782.51
609.955	1743.18
610.155	1742.59
610.355	1755.77
610.555	1717.21
610.755	1707.33
610.954	1681.95
611.154	1767.59
611.354	1742.79
611.554	1687.18
611.753	1731.94
611.953	1683.11
612.153	1772.04
612.352	1749.76
612.552	1688.35
612.752	1618.98
612.951	1671.1
613.151	1697.26
613.351	1631.58
613.55	1702.68
613.75	1696.87
613.949	1647.08
614.149	1707.53
614.348	1667.42
614.548	1643.4
614.747	1606
614.947	1638.55
615.146	1540.9
615.346	1698.42
615.545	1671.1
615.745	1650.76
615.944	1687.96
616.144	1654.83
616.343	1669.94
616.542	1600.97
616.742	1607.94
616.941	1588.76
617.14	1540.13
617.34	1568.42
617.539	1585.47
617.738	1541.49
617.938	1639.13
618.137	1594.38
618.336	1576.94
618.535	1612.4
618.734	1592.05
618.934	1650.37
619.133	1609.88
619.332	1645.72
619.531	1532.57
619.73	1579.85
619.929	1645.53
620.128	1635.65
620.328	1614.92
620.527	1546.33
620.726	1598.83
620.925	1584.11
621.124	1583.14
621.323	1593.02
621.522	1542.07
621.721	1533.54
621.92	1528.7
622.119	1594.96
622.318	1542.65
622.517	1556.79
622.715	1506.22
622.914	1502.15
623.113	1545.94
623.312	1457.4
623.511	1562.02
623.71	1532.57
623.909	1480.07
624.107	1607.75
624.306	1472.51
624.505	1478.9
624.704	1493.05
624.902	1488.59
625.101	1581.98
625.3	1517.46
625.499	1496.34
625.697	1471.15
625.896	1469.8
626.095	1490.92
626.293	1437.44
626.492	1418.26
626.69	1493.82
626.889	1471.35
627.088	1548.27
627.286	1449.26
627.485	1458.76
627.683	1447.52
627.882	1459.34
628.08	1424.46
628.279	1423.69
628.477	1530.05
628.676	1420.39
628.874	1484.72
629.073	1413.42
629.271	1377.19
629.469	1467.28
629.668	1423.49
629.866	1440.16
630.065	1385.52
630.263	1436.28
630.461	1368.47
630.66	1454.88
630.858	1438.61
631.056	1460.11
631.254	1441.12
631.453	1374.86
631.651	1458.37
631.849	1442.67
632.047	1428.92
632.245	1421.56
632.444	1437.64
632.642	1396.56
632.84	1431.44
633.038	1398.5
633.236	1360.53
633.434	1400.24
633.632	1370.99
633.83	1396.76
634.028	1430.08
634.227	1404.31
634.425	1494.02
634.623	1387.46
634.821	1411.87
635.019	1431.24
635.216	1394.82
635.414	1451.97
635.612	1400.44
635.81	1419.81
636.008	1477.55
636.206	1397.14
636.404	1419.42
636.602	1384.74
636.8	1379.71
636.997	1429.89
637.195	1454.3
637.393	1422.72
637.591	1427.76
637.789	1409.35
637.986	1403.34
638.184	1368.28
638.382	1427.37
638.58	1455.27
638.777	1499.44
638.975	1420.39
639.173	1402.76
639.37	1417.29
639.568	1394.04
639.765	1440.35
639.963	1398.89
640.161	1400.82
640.358	1404.51
640.556	1369.05
640.753	1310.73
640.951	1318.68
641.148	1385.91
641.346	1332.04
641.543	1363.63
641.741	1370.02
641.938	1298.14
642.136	1342.12
642.333	1319.26
642.531	1387.65
642.728	1429.89
642.925	1340.96
643.123	1286.51
643.32	1364.98
643.517	1313.64
643.715	1296.78
643.912	1340.57
644.109	1365.37
644.306	1326.81
644.504	1269.46
644.701	1352.78
644.898	1332.04
645.095	1304.73
645.293	1336.11
645.49	1348.51
645.687	1308.41
645.884	1346.38
646.081	1257.26
646.278	1271.4
646.475	1277.21
646.672	1258.03
646.87	1312.28
647.067	1285.35
647.264	1290.58
647.461	1245.25
647.658	1210.18
647.855	1288.06
648.052	1229.55
648.249	1173.17
648.446	1229.55
648.642	1207.08
648.839	1210.56
649.036	1222.96
649.233	1157.09
649.43	1160.38
649.627	1138.3
649.824	1152.83
650.021	1147.79
650.217	1166.39
650.414	1188.48
650.611	1191.97
650.808	1220.64
651.004	1228.58
651.201	1188.09
651.398	1273.92
651.595	1220.83
651.791	1164.65
651.988	1218.9
652.185	1149.34
652.381	1189.64
652.578	1119.12
652.775	1170.85
652.971	1149.53
653.168	1205.92
653.364	1209.98
653.561	1101.49
653.757	1171.04
653.954	1213.66
654.15	1161.16
654.347	1234.98
654.543	1179.18
654.74	1100.32
654.936	1129.77
655.133	1179.76
655.329	1159.42
655.525	1168.52
655.722	1161.74
655.918	1106.52
656.115	1125.7
656.311	1030.57
656.507	1002.48
656.704	963.73
656.9	956.37
657.096	986.98
657.292	999.38
657.489	1071.26
657.685	1051.11
657.881	1057.31
658.077	1026.7
658.273	1036.58
658.47	1161.93
658.666	1081.72
658.862	1109.62
659.058	1094.9
659.254	1136.17
659.45	1094.32
659.646	1104.78
659.842	1075.91
660.038	1139.27
660.234	1067.97
660.43	1126.09
660.626	1214.05
660.822	1142.75
661.018	1163.87
661.214	1140.04
661.41	1061.57
661.606	1131.71
661.802	1158.25
661.998	1114.85
662.194	1083.47
662.39	1107.69
662.586	1137.72
662.781	1113.11
662.977	1148.76
663.173	1133.84
663.369	1096.06
663.564	1128.8
663.76	1134.62
663.956	1098.58
664.152	1135.39
664.347	1049.95
664.543	1108.46
664.739	1089.28
664.934	1037.16
665.13	1043.75
665.326	1143.14
665.521	1101.1
665.717	1058.67
665.912	1032.12
666.108	993.37
666.304	1045.49
666.499	1091.22
666.695	986.98
666.89	1043.75
667.086	1115.63
667.281	1099.16
667.477	1155.35
667.672	1064.67
667.867	1047.43
668.063	1086.37
668.258	1018.37
668.454	1039.1
668.649	1137.72
668.844	1047.04
669.04	1091.41
669.235	1021.66
669.43	1046.07
669.626	992.21
669.821	1031.35
670.016	993.18
670.211	1045.49
670.407	992.99
670.602	1058.86
670.797	1028.06
670.992	1075.33
671.187	1007.91
671.382	1041.04
671.578	1004.42
671.773	1065.06
671.968	973.81
672.163	1017.21
672.358	1049.95
672.553	995.89
672.748	994.34
672.943	1072.23
673.138	1010.04
673.333	1015.85
673.528	967.61
673.723	1051.3
673.918	988.72
674.113	942.23
674.308	1088.12
674.503	1027.67
674.698	1032.12
674.892	1007.13
675.087	1035.61
675.282	1019.53
675.477	979.23
675.672	1067.58
675.867	995.7
676.061	957.14
676.256	946.29
676.451	971.67
676.646	1005.77
676.84	938.35
677.035	936.41
677.23	950.94
677.424	1019.53
677.619	1016.82
677.814	1025.15
678.008	1051.3
678.203	946.1
678.397	955.21
678.592	980.97
678.787	1054.79
678.981	952.3
679.176	977.87
679.37	967.61
679.565	967.61
679.759	964.7
679.954	1002.09
680.148	1056.73
680.342	1013.52
680.537	1018.95
680.731	981.36
680.926	970.71
681.12	1010.23
681.314	953.85
681.509	975.74
681.703	969.54
681.897	1010.62
682.092	985.43
682.286	947.65
682.48	1004.81
682.674	1007.13
682.869	982.33
683.063	957.14
683.257	1052.08
683.451	953.46
683.645	962.76
683.839	978.46
684.034	924.79
684.228	997.25
684.422	901.15
684.616	933.7
684.81	978.84
685.004	941.64
685.198	930.41
685.392	1018.76
685.586	948.81
685.78	975.16
685.974	995.31
686.168	1006.36
686.362	1026.7
686.556	922.66
686.75	892.24
686.944	890.69
687.138	874.99
687.331	783.74
687.525	816.68
687.719	754.48
687.913	830.05
688.107	823.26
688.301	767.85
688.494	850.78
688.688	789.75
688.882	748.09
689.076	763.4
689.269	808.73
689.463	892.43
689.657	813.19
689.85	806.41
690.044	854.85
690.238	843.22
690.431	838.96
690.625	818.23
690.818	850.2
691.012	877.32
691.205	891.46
691.399	838.38
691.593	867.83
691.786	905.8
691.98	948.04
692.173	947.46
692.366	908.9
692.56	990.08
692.753	995.12
692.947	897.86
693.14	994.15
693.333	997.06
693.527	918.2
693.72	951.33
693.914	925.76
694.107	925.18
694.3	969.74
694.493	900.96
694.687	995.31
694.88	920.72
695.073	993.76
695.266	996.47
695.46	951.14
695.653	1014.88
695.846	1036.58
696.039	912.39
696.232	1033.29
696.425	1012.56
696.618	1004.22
696.812	1014.11
697.005	1098
697.198	1165.62
697.391	1045.1
697.584	1107.69
697.777	1130.74
697.97	1093.54
698.163	1136.36
698.356	1086.37
698.549	1211.34
698.742	1175.5
698.935	1145.27
699.127	1166.39
699.32	1115.63
699.513	1141.01
699.706	1208.63
699.899	1200.88
700.092	1135.78
700.285	1200.3
700.477	1149.34
700.67	1209.6
700.863	1208.43
701.056	1309.76
701.248	1260.94
701.441	1289.61
701.634	1221.61
701.826	1342.89
702.019	1205.72
702.212	1315.77
702.404	1246.8
702.597	1227.61
702.79	1269.66
702.982	1320.42
703.175	1360.33
703.367	1385.52
703.56	1393.85
703.752	1494.02
703.945	1419.62
704.137	1437.06
704.33	1496.54
704.522	1465.92
704.715	1470.38
704.907	1523.66
705.1	1529.67
705.292	1518.04
705.484	1518.62
705.677	1597.28
705.869	1575.2
706.061	1613.17
706.254	1629.83
706.446	1621.89
706.638	1592.05
706.831	1724.77
707.023	1638.94
707.215	1752.09
707.407	1743.37
707.599	1712.95
707.792	1774.37
707.984	1765.65
708.176	1793.55
708.368	1732.13
708.56	1794.91
708.752	1801.49
708.944	1790.45
709.136	1837.34
709.329	1858.07
709.521	1960.56
709.713	1950.87
709.905	1956.1
710.097	1984.78
710.289	1928.4
710.481	1938.47
710.672	2001.05
710.864	2011.13
711.056	2066.35
711.248	2063.25
711.44	2069.45
711.632	2029.53
711.824	2098.9
712.016	2124.28
712.207	2149.08
712.399	2161.67
712.591	2229.48
712.783	2195.96
712.975	2195.58
713.166	2195.58
713.358	2211.85
713.55	2284.12
713.741	2284.51
713.933	2281.02
714.125	2301.94
714.316	2298.26
714.508	2372.85
714.7	2359.49
714.891	2354.25
715.083	2432.72
715.274	2394.17
715.466	2428.46
715.657	2442.8
715.849	2357.35
716.04	2439.12
716.232	2361.04
716.423	2466.82
716.615	2397.27
716.806	2366.07
716.998	2333.33
717.189	2281.6
717.381	2234.33
717.572	2192.67
717.763	2244.01
717.955	2223.48
718.146	2157.21
718.337	2144.62
718.528	2069.25
718.72	2025.27
718.911	2118.85
719.102	2047.55
719.293	2097.54
719.485	2104.51
719.676	2082.43
719.867	2081.07
720.058	2101.22
720.249	2098.31
720.44	2148.11
720.632	2186.28
720.823	2204.29
721.014	2310.47
721.205	2325.77
721.396	2435.05
721.587	2544.9
721.778	2550.71
721.969	2634.41
722.16	2680.53
722.351	2666.38
722.542	2833
722.733	2843.27
722.924	2813.24
723.115	2854.7
723.305	2854.9
723.496	2856.25
723.687	2718.11
723.878	2728.96
724.069	2724.89
724.26	2779.14
724.45	2697.19
724.641	2670.06
724.832	2754.73
725.023	2696.22
725.213	2710.75
725.404	2734
725.595	2723.73
725.785	2673.94
725.976	2805.1
726.167	2774.11
726.357	2771.2
726.548	2905.08
726.739	2759.38
726.929	2940.53
727.12	2910.7
727.31	2977.73
727.501	2922.32
727.691	2939.37
727.882	2970.56
728.072	3019.97
728.263	2987.81
728.453	3042.64
728.644	3049.03
728.834	3022.88
729.024	3010.67
729.215	2997.3
729.405	3030.05
729.596	3134.09
729.786	3128.08
729.976	3157.92
730.167	3200.74
730.357	3142.42
730.547	3142.81
730.737	3229.99
730.928	3248.2
731.118	3311.75
731.308	3253.82
731.498	3284.44
731.688	3359.42
731.879	3390.03
732.069	3425.87
732.259	3502.4
732.449	3524.88
732.639	3596.56
732.829	3561.3
733.019	3648.29
733.209	3720.37
733.399	3702.54
733.589	3803.68
733.779	3816.47
733.969	3793.99
734.159	3873.62
734.349	3920.89
734.539	3979.02
734.729	3946.08
734.919	4000.53
735.109	4046.06
735.299	3928.26
735.488	4013.7
735.678	4017.57
735.868	4061.17
736.058	4035.4
736.248	4015.83
736.437	3977.08
736.627	3980.96
736.817	4147
737.007	4067.76
737.196	4126.07
737.386	4075.31
737.576	4063.3
737.765	4162.3
737.955	4090.23
738.144	4241.35
738.334	4229.15
738.524	4126.46
738.713	4201.25
738.903	4185.94
739.092	4198.53
739.282	4203.38
739.471	4244.07
739.661	4233.22
739.85	4253.17
740.04	4269.64
740.229	4306.06
740.419	4322.15
740.608	4329.31
740.797	4344.23
740.987	4369.81
741.176	4375.43
741.365	4307.42
741.555	4294.44
741.744	4400.03
741.933	4355.08
742.123	4423.67
742.312	4427.16
742.501	4456.22
742.69	4486.44
742.88	4341.91
743.069	4498.07
743.258	4443.24
743.447	4530.62
743.636	4547.86
743.825	4484.12
744.014	4518.22
744.204	4533.91
744.393	4413.01
744.582	4602.11
744.771	4601.72
744.96	4521.71
745.149	4532.36
745.338	4525.39
745.527	4604.82
745.716	4496.52
745.905	4527.52
746.094	4566.85
746.283	4616.64
746.471	4564.14
746.66	4620.71
746.849	4633.11
747.038	4680.77
747.227	4588.94
747.416	4611.22
747.604	4576.15
747.793	4565.1
747.982	4568.59
748.171	4600.56
748.359	4624.97
748.548	4586.8
748.737	4608.12
748.926	4593.97
749.114	4465.13
749.303	4612.96
749.491	4552.9
749.68	4513.57
749.869	4642.99
750.057	4519.38
750.246	4556.39
750.434	4535.07
750.623	4517.83
750.811	4485.86
751	4573.63
751.188	4544.37
751.377	4532.75
751.565	4542.24
751.754	4516.09
751.942	4489.54
752.131	4556.77
752.319	4512.6
752.507	4464.36
752.696	4524.22
752.884	4548.44
753.072	4451.37
753.261	4508.72
753.449	4545.34
753.637	4457.96
753.825	4565.3
754.014	4508.14
754.202	4529.07
754.39	4554.64
754.578	4548.83
754.766	4463.77
754.955	4434.33
755.143	4541.47
755.331	4486.83
755.519	4494
755.707	4515.7
755.895	4438.59
756.083	4476.76
756.271	4389.57
756.459	4444.4
756.647	4480.05
756.835	4448.66
757.023	4432.97
757.211	4398.48
757.399	4394.8
757.587	4452.92
757.775	4313.04
757.963	4350.63
758.151	4445.17
758.339	4277.97
758.526	4329.9
758.714	4373.1
758.902	4253.17
759.09	4214.42
759.278	4006.53
759.465	3742.07
759.653	3364.45
759.841	3090.3
760.028	2725.67
760.216	2404.05
760.404	2259.9
760.591	1958.24
760.779	1712.37
760.967	1529.47
761.154	1319.84
761.342	1357.43
761.529	1388.62
761.717	1483.75
761.905	1491.5
762.092	1599.03
762.28	1569.97
762.467	1634.48
762.655	1555.82
762.842	1599.8
763.029	1612.98
763.217	1637.78
763.404	1652.89
763.592	1679.63
763.779	1678.27
763.966	1730.97
764.154	1771.85
764.341	1816.22
764.528	1840.05
764.716	1915.8
764.903	1966.37
765.09	2076.81
765.277	2119.63
765.465	2285.28
765.652	2333.14
765.839	2394.55
766.026	2566.6
766.213	2605.74
766.4	2690.41
766.588	2898.3
766.775	2909.34
766.962	3035.86
767.149	3082.94
767.336	3286.37
767.523	3224.57
767.71	3319.5
767.897	3500.27
768.084	3537.08
768.271	3541.54
768.458	3645
768.645	3694.4
768.832	3629.31
769.019	3724.24
769.206	3726.76
769.392	3829.83
769.579	3916.25
769.766	3842.43
769.953	3793.22
770.14	3913.92
770.327	3900.16
770.513	3939.3
770.7	3979.41
770.887	3901.33
771.073	3910.63
771.26	3916.83
771.447	3903.07
771.634	3886.8
771.82	3977.66
772.007	3826.35
772.193	3884.28
772.38	3904.62
772.567	3936.59
772.753	3858.51
772.94	3939.69
773.126	3928.84
773.313	3957.13
773.499	3900.16
773.686	3951.7
773.872	3853.66
774.059	3878.08
774.245	3822.47
774.432	3845.72
774.618	3777.52
774.804	3853.86
774.991	3791.47
775.177	3864.32
775.363	3802.13
775.55	3865.68
775.736	3763.38
775.922	3828.28
776.109	3775.58
776.295	3827.7
776.481	3826.54
776.667	3851.73
776.853	3803.29
777.04	3775
777.226	3750.4
777.412	3852.5
777.598	3753.5
777.784	3758.92
777.97	3708.55
778.156	3767.83
778.342	3716.88
778.528	3725.4
778.715	3701.77
778.901	3729.47
779.087	3700.41
779.272	3658.17
779.458	3650.23
779.644	3707.19
779.83	3652.94
780.016	3764.93
780.202	3702.93
780.388	3663.99
780.574	3549.09
780.76	3636.67
780.946	3673.29
781.131	3637.25
781.317	3616.52
781.503	3582.22
781.689	3606.83
781.874	3666.31
782.06	3571.57
782.246	3609.35
782.432	3558.01
782.617	3580.09
782.803	3625.04
782.989	3493.29
783.174	3540.57
783.36	3486.71
783.545	3516.93
783.731	3502.21
783.916	3356.51
784.102	3522.94
784.288	3486.9
784.473	3489.03
784.659	3402.43
784.844	3520.61
785.029	3430.33
785.215	3447.96
785.4	3373.75
785.586	3536.5
785.771	3407.66
785.956	3471.98
786.142	3379.76
786.327	3382.47
786.512	3392.55
786.698	3377.24
786.883	3321.25
787.068	3369.49
787.254	3375.3
787.439	3332.68
787.624	3314.85
787.809	3276.88
787.994	3294.7
788.18	3394.48
788.365	3255.37
788.55	3263.32
788.735	3310.98
788.92	3269.52
789.105	3256.15
789.29	3274.36
789.475	3223.79
789.66	3248.2
789.845	3225.73
790.03	3168.96
790.215	3220.11
790.4	3256.73
790.585	3263.32
790.77	3237.16
790.955	3142.81
791.14	3149.2
791.325	3247.43
791.51	3064.34
791.695	3176.52
791.879	3161.79
792.064	3081.58
792.249	3180.2
792.434	3130.6
792.618	3170.71
792.803	3153.07
792.988	3125.18
793.173	3158.5
793.357	3187.56
793.542	3121.88
793.727	3168.57
793.911	3189.5
794.096	3155.4
794.281	3130.21
794.465	3279.2
794.65	3170.12
794.834	3174.19
795.019	3198.99
795.203	3265.06
795.388	3191.05
795.572	3230.96
795.757	3194.15
795.941	3223.79
796.126	3188.34
796.31	3160.05
796.494	3193.37
796.679	3166.06
796.863	3134.28
797.048	3267.19
797.232	3197.64
797.416	3241.23
797.601	3208.87
797.785	3299.35
797.969	3286.57
798.153	3189.89
798.338	3281.53
798.522	3248.79
798.706	3288.89
798.89	3243.36
799.074	3346.24
799.258	3305.17
799.443	3244.91
799.627	3170.12
799.811	3318.34
799.995	3225.15
800.179	3209.46
800.363	3237.35
800.547	3269.32
800.731	3287.15
800.915	3175.16
801.099	3164.7
801.283	3203.84
801.467	3216.04
801.651	3181.36
801.835	3253.05
802.019	3235.42
802.202	3277.65
802.386	3188.53
802.57	3165.09
802.754	3201.9
802.938	3123.24
803.121	3187.56
803.305	3236.58
803.489	3229.6
803.673	3242.59
803.856	3232.32
804.04	3223.4
804.224	3225.15
804.407	3217.98
804.591	3173.81
804.775	3180.59
804.958	3199.96
805.142	3288.12
805.326	3161.79
805.509	3187.56
805.693	3186.59
805.876	3207.52
806.06	3231.54
806.243	3267
806.427	3261.57
806.61	3308.46
806.794	3191.82
806.977	3264.29
807.16	3220.3
807.344	3261.96
807.527	3261.96
807.71	3152.11
807.894	3185.43
808.077	3217.98
808.26	3155.59
808.444	3168.38
808.627	3218.37
808.81	3156.37
808.993	3087.2
809.177	3117.62
809.36	3117.43
809.543	3121.49
809.726	3013.38
809.909	3017.26
810.092	3016.68
810.276	3072.09
810.459	3029.85
810.642	2980.64
810.825	2980.45
811.008	3025.78
811.191	2902.37
811.374	2946.73
811.557	2935.88
811.74	2990.13
811.923	2874.85
812.106	2876.02
812.289	2885.51
812.472	2808.01
812.654	2847.54
812.837	2814.21
813.02	2736.13
813.203	2734
813.386	2631.12
813.569	2625.31
813.751	2554.59
813.934	2613.29
814.117	2560.21
814.3	2514.87
814.482	2487.36
814.665	2425.94
814.848	2356.39
815.03	2314.54
815.213	2358.52
815.396	2311.24
815.578	2305.82
815.761	2271.91
815.943	2354.84
816.126	2157.99
816.309	2201.19
816.491	2114.2
816.674	2069.25
816.856	2107.81
817.039	2117.3
817.221	2207.78
817.403	2107.61
817.586	2139.2
817.768	2170.97
817.951	2091.53
818.133	2077.58
818.315	2047.55
818.498	2109.36
818.68	2219.6
818.862	2159.35
819.045	2178.72
819.227	2177.56
819.409	2123.11
819.591	2162.25
819.774	2118.46
819.956	2125.05
820.138	2175.04
820.32	2143.26
820.502	2247.69
820.684	2323.26
820.866	2308.14
821.048	2341.08
821.231	2329.65
821.413	2371.11
821.595	2328.87
821.777	2356.58
821.959	2348.25
822.141	2399.59
822.323	2248.66
822.505	2203.91
822.686	2161.09
822.868	2102.19
823.05	1919.1
823.232	1900.31
823.414	1819.71
823.596	1914.64
823.778	1896.04
823.96	1957.85
824.141	1927.62
824.323	1945.45
824.505	2012.29
824.687	2100.64
824.868	2114.59
825.05	2204.68
825.232	2256.03
825.413	2348.25
825.595	2318.02
825.777	2171.55
825.958	2249.63
826.14	2248.66
826.321	2272.69
826.503	2211.46
826.685	2249.44
826.866	2316.28
827.048	2258.93
827.229	2263.58
827.411	2184.14
827.592	2144.04
827.773	2160.9
827.955	2082.43
828.136	2064.6
828.318	2049.49
828.499	2083.2
828.68	2014.62
828.862	2081.27
829.043	2092.89
829.224	2070.22
829.406	2017.13
829.587	2027.02
829.768	2027.6
829.949	1983.23
830.131	2033.41
830.312	2092.31
830.493	2035.15
830.674	2071
830.855	2039.42
831.036	2015.78
831.218	2101.41
831.399	2111.68
831.58	2057.24
831.761	2027.98
831.942	2087.46
832.123	2023.33
832.304	1978.58
832.485	1967.54
832.666	2011.32
832.847	2062.47
833.028	2019.85
833.209	2065.77
833.389	2009.58
833.57	1949.32
833.751	1947.77
833.932	2048.72
834.113	2012.29
834.294	1979.55
834.475	2045.03
834.655	2107.81
834.836	2079.33
835.017	2096.18
835.198	2033.22
835.378	2030.89
835.559	2065.18
835.74	2044.84
835.92	2039.03
836.101	2023.53
836.281	2057.24
836.462	2052.2
836.643	2100.06
836.823	2083.2
837.004	2090.37
837.184	2182.79
837.365	2108.78
837.545	2133.77
837.726	2048.72
837.906	2113.62
838.087	2069.64
838.267	2037.67
838.448	2077.39
838.628	2057.63
838.808	2050.27
838.989	2129.12
839.169	2027.4
839.349	2092.7
839.53	2108.58
839.71	2109.36
839.89	2032.25
840.07	2120.4
840.251	2011.71
840.431	2114.78
840.611	2075.07
840.791	2021.01
840.971	2084.36
841.151	2032.44
841.332	2021.78
841.512	2095.8
841.692	2026.43
841.872	2016.55
842.052	2052.98
842.232	2039.03
842.412	1968.89
842.592	2015.58
842.772	2049.88
842.952	2052.2
843.132	1985.36
843.312	2003.38
843.492	1946.61
843.672	2023.53
843.851	1956.69
844.031	1982.07
844.211	1991.56
844.391	1941.57
844.571	1996.6
844.751	2014.81
844.93	1997.18
845.11	1951.26
845.29	2007.45
845.47	2020.04
845.649	1965.79
845.829	1999.5
846.009	1953
846.188	1963.85
846.368	1968.31
846.547	1961.53
846.727	1984.59
846.907	1905.92
847.086	1949.71
847.266	1987.3
847.445	1948.74
847.625	1934.4
847.804	1917.74
847.984	1929.37
848.163	1921.23
848.343	1900.5
848.522	1913.87
848.701	1926.85
848.881	1880.93
849.06	1892.75
849.239	1903.21
849.419	1918.32
849.598	1813.51
849.777	1840.24
849.957	1831.14
850.136	1766.43
850.315	1734.46
850.494	1732.33
850.674	1738.33
850.853	1836.95
851.032	1800.33
851.211	1800.14
851.39	1802.66
851.569	1758.48
851.748	1733.68
851.927	1816.41
852.107	1793.16
852.286	1764.68
852.465	1745.89
852.644	1823.58
852.823	1810.02
853.002	1763.13
853.181	1800.91
853.359	1808.08
853.538	1695.32
853.717	1798.78
853.896	1694.74
854.075	1614.72
854.254	1565.32
854.433	1480.45
854.611	1550.01
854.79	1463.99
854.969	1566.67
855.148	1570.93
855.327	1505.84
855.505	1595.93
855.684	1581.78
855.863	1624.41
856.041	1569.77
856.22	1623.05
856.399	1600.19
856.577	1736.39
856.756	1696.68
856.934	1799.17
857.113	1814.67
857.291	1718.76
857.47	1660.64
857.648	1728.26
857.827	1708.11
858.005	1696.29
858.184	1667.42
858.362	1785.03
858.541	1665.29
858.719	1680.6
858.898	1701.91
859.076	1647.46
859.254	1724.19
859.433	1630.61
859.611	1671.1
859.789	1607.94
859.967	1712.37
860.146	1721.67
860.324	1627.9
860.502	1668.39
860.68	1588.57
860.859	1585.66
861.037	1627.32
861.215	1660.64
861.393	1634.48
861.571	1644.37
861.749	1592.63
861.927	1642.43
862.105	1655.99
862.283	1602.32
862.461	1603.68
862.639	1508.74
862.817	1589.53
862.995	1602.52
863.173	1531.02
863.351	1584.69
863.529	1581.98
863.707	1614.14
863.885	1614.53
864.063	1501.96
864.241	1531.41
864.418	1627.9
864.596	1548.07
864.774	1513.39
864.952	1526.18
865.129	1586.24
865.307	1513.78
865.485	1440.54
865.663	1550.01
865.84	1456.62
866.018	1470.77
866.196	1373.12
866.373	1359.17
866.551	1352.19
866.728	1285.16
866.906	1303.76
867.084	1362.46
867.261	1388.81
867.439	1392.49
867.616	1423.3
867.794	1400.63
867.971	1439.19
868.149	1432.6
868.326	1479.49
868.503	1447.52
868.681	1462.44
868.858	1429.5
869.035	1416.71
869.213	1476.19
869.39	1420.39
869.567	1535.29
869.745	1403.54
869.922	1447.13
870.099	1437.64
870.276	1449.65
870.454	1444.42
870.631	1455.27
870.808	1373.12
870.985	1470.19
871.162	1509.32
871.339	1435.12
871.517	1358.78
871.694	1385.71
871.871	1401.21
872.048	1359.56
872.225	1393.07
872.402	1404.31
872.579	1353.36
872.756	1390.94
872.933	1391.14
873.11	1386.87
873.287	1416.32
873.463	1344.44
873.64	1358.2
873.817	1404.89
873.994	1356.46
874.171	1329.33
874.348	1361.88
874.524	1304.34
874.701	1358.98
874.878	1264.43
875.055	1382.61
875.231	1347.16
875.408	1340.76
875.585	1309.18
875.762	1327.2
875.938	1318.48
876.115	1315.77
876.291	1293.3
876.468	1350.26
876.645	1240.01
876.821	1299.11
876.998	1279.15
877.174	1290.78
877.351	1288.45
877.527	1282.45
877.704	1279.93
877.88	1286.32
878.057	1256.29
878.233	1348.71
878.409	1211.73
878.586	1278.38
878.762	1280.31
878.938	1254.93
879.115	1208.63
879.291	1247.57
879.467	1166.39
879.644	1217.54
879.82	1280.7
879.996	1235.56
880.172	1177.63
880.349	1227.03
880.525	1226.06
880.701	1166.58
880.877	1179.95
881.053	1224.32
881.229	1202.04
881.405	1241.18
881.581	1180.15
881.757	1184.99
881.933	1224.9
882.109	1237.69
882.285	1211.34
882.461	1166.2
882.637	1184.6
882.813	1167.17
882.989	1196.81
883.165	1245.83
883.341	1156.7
883.517	1246.41
883.693	1221.8
883.869	1225.29
884.044	1208.43
884.22	1239.63
884.396	1282.64
884.572	1210.95
884.747	1239.63
884.923	1244.66
885.099	1235.75
885.275	1234.01
885.45	1197.97
885.626	1181.31
885.801	1196.42
885.977	1186.93
886.153	1126.67
886.328	1199.33
886.504	1169.68
886.679	1202.23
886.855	1154.96
887.03	1212.31
887.206	1219.28
887.381	1196.03
887.557	1225.87
887.732	1224.32
887.908	1220.06
888.083	1257.65
888.258	1188.67
888.434	1203.59
888.609	1172.01
888.784	1263.85
888.96	1166.97
889.135	1148.57
889.31	1174.53
889.485	1167.55
889.661	1209.6
889.836	1231.1
890.011	1231.68
890.186	1180.73
890.361	1160.58
890.537	1160
890.712	1218.31
890.887	1199.13
891.062	1198.75
891.237	1280.51
891.412	1163.48
891.587	1195.65
891.762	1247.18
891.937	1259.2
892.112	1170.46
892.287	1193.13
892.462	1126.28
892.637	1134.42
892.812	1141.59
892.987	1128.8
893.161	1080.37
893.336	1140.04
893.511	1081.14
893.686	1127.45
893.861	1111.37
894.035	1119.5
894.21	1131.71
894.385	1050.72
894.56	1103.04
894.734	1052.47
894.909	1005.39
895.084	1045.1
895.258	1009.65
895.433	1041.42
895.608	980.59
895.782	958.5
895.957	970.9
896.131	987.76
896.306	906.19
896.48	918.98
896.655	920.91
896.829	858.33
897.004	830.05
897.178	860.85
897.353	831.01
897.527	933.12
897.701	862.4
897.876	794.2
898.05	927.89
898.224	889.72
898.399	918.01
898.573	839.73
898.747	760.1
898.921	821.52
899.096	733.56
899.27	710.12
899.444	723.48
899.618	747.32
899.792	770.18
899.967	778.51
900.141	818.61
900.315	736.47
900.489	747.9
900.663	756.42
900.837	763.4
901.011	692.29
901.185	819.58
901.359	758.17
901.533	778.31
901.707	782.58
901.881	762.62
902.055	716.12
902.229	767.27
902.403	833.15
902.576	769.98
902.75	770.57
902.924	890.69
903.098	835.66
903.272	867.44
903.446	919.56
903.619	870.54
903.793	887.2
903.967	893.4
904.14	968.19
904.314	954.24
904.488	927.69
904.661	937.77
904.835	927.31
905.009	986.79
905.182	1019.53
905.356	960.44
905.529	935.83
905.703	917.23
905.876	909.48
906.05	883.13
906.223	858.53
906.397	785.68
906.57	777.73
906.744	768.05
906.917	746.73
907.09	760.88
907.264	786.26
907.437	752.74
907.61	688.42
907.784	720.38
907.957	714.77
908.13	704.3
908.304	745.18
908.477	682.02
908.65	676.6
908.823	653.35
908.996	739.57
909.17	650.64
909.343	677.37
909.516	690.35
909.689	701.01
909.862	636.49
910.035	677.76
910.208	644.44
910.381	639.59
910.554	737.43
910.727	677.37
910.9	657.61
911.073	650.83
911.246	747.51
911.419	744.6
911.592	690.74
911.765	648.12
911.938	653.15
912.11	686.48
912.283	644.82
912.456	711.47
912.629	670.98
912.802	640.56
912.974	637.27
913.147	584.96
913.32	527.61
913.493	557.44
913.665	586.31
913.838	598.71
914.01	573.33
914.183	599.29
914.356	615.95
914.528	607.82
914.701	690.16
914.873	654.12
915.046	587.67
915.218	550.66
915.391	488.47
915.563	483.63
915.736	576.82
915.908	601.23
916.081	573.52
916.253	547.95
916.425	571.78
916.598	593.87
916.77	599.49
916.942	553.57
917.115	463.48
917.287	596.58
917.459	531.67
917.632	514.24
917.804	459.79
917.976	546.4
918.148	554.15
918.32	550.08
918.493	586.7
918.665	602.2
918.837	591.54
919.009	632.23
919.181	633.59
919.353	614.99
919.525	598.71
919.697	584.57
919.869	622.15
920.041	638.62
920.213	705.08
920.385	648.31
920.557	608.59
920.729	613.24
920.901	618.47
921.073	585.15
921.244	597.55
921.416	654.32
921.588	586.89
921.76	591.93
921.932	646.95
922.103	594.64
922.275	613.24
922.447	573.72
922.619	508.23
922.79	590.19
922.962	553.57
923.134	590.96
923.305	508.43
923.477	511.14
923.648	520.05
923.82	565.97
923.991	491.57
924.163	475.1
924.335	539.04
924.506	493.12
924.677	581.08
924.849	501.06
925.02	522.37
925.192	554.15
925.363	519.27
925.535	522.76
925.706	501.26
925.877	571.01
926.049	512.11
926.22	531.48
926.391	516.76
926.562	540.97
926.734	476.84
926.905	572.36
927.076	467.54
927.247	477.04
927.419	467.16
927.59	446.04
927.761	449.53
927.932	410.97
928.103	463.09
928.274	371.83
928.445	396.05
928.616	393.92
928.787	382.88
928.958	427.83
929.129	390.05
929.3	384.62
929.471	355.36
929.642	266.63
929.813	246.48
929.984	359.82
930.155	259.07
930.326	311.58
930.496	266.43
930.667	205.02
930.838	261.59
931.009	228.27
931.18	229.43
931.35	236.02
931.521	255.58
931.692	185.45
931.863	150.19
932.033	193
932.204	192.23
932.374	184.48
932.545	150.38
932.716	200.95
932.886	196.3
933.057	101.94
933.227	124.61
933.398	187.19
933.568	103.88
933.739	72.11
933.909	72.88
934.08	136.24
934.25	31.23
934.421	69.39
934.591	126.94
934.761	75.98
934.932	44.79
935.102	106.4
935.272	112.02
935.443	116.67
935.613	75.21
935.783	100.01
935.953	63.19
936.123	264.3
936.294	59.13
936.464	56.22
936.634	104.27
936.804	52.54
936.974	30.06
937.144	110.08
937.314	92.06
937.484	70.94
937.655	50.6
937.825	109.69
937.995	83.73
938.165	130.04
938.334	69.59
938.504	95.74
938.674	94.19
938.844	99.81
939.014	138.95
939.184	164.33
939.354	215.09
939.524	206.37
939.694	117.25
939.863	133.91
940.033	213.93
940.203	206.76
940.373	157.94
940.542	193.97
940.712	135.66
940.882	181.96
941.051	184.67
941.221	198.43
941.391	199.59
941.56	142.63
941.73	109.5
941.899	262.56
942.069	132.94
942.238	178.86
942.408	127.52
942.577	176.92
942.747	137.98
942.916	83.54
943.086	139.92
943.255	164.14
943.425	167.04
943.594	119.77
943.763	56.22
943.933	66.49
944.102	35.88
944.271	87.99
944.441	125.58
944.61	82.76
944.779	104.46
944.948	191.65
945.117	76.37
945.287	94.19
945.456	17.47
945.625	56.22
945.794	125.77
945.963	99.81
946.132	135.66
946.301	109.31
946.47	135.66
946.639	56.22
946.808	95.36
946.977	114.73
947.146	152.71
947.315	70.36
947.484	139.92
947.653	122.09
947.822	86.06
947.991	52.15
948.16	206.57
948.329	169.56
948.498	89.93
948.666	106.21
948.835	117.83
949.004	58.54
949.173	46.53
949.341	114.92
949.51	128.29
949.679	170.14
949.847	137.4
950.016	191.45
950.185	181.38
950.353	99.42
950.522	111.44
950.69	179.64
950.859	104.85
951.028	160.84
951.196	131.2
951.365	61.45
951.533	100.01
951.701	137.98
951.87	137.4
952.038	69.78
952.207	91.87
952.375	186.22
952.543	92.26
952.712	88.19
952.88	84.7
953.048	182.93
953.217	129.26
953.385	107.17
953.553	201.34
953.721	68.04
953.89	106.4
954.058	76.17
954.226	90.32
954.394	104.27
954.562	50.6
954.73	104.27
954.898	92.84
955.067	150.19
955.235	81.21
955.403	125.97
955.571	204.05
955.739	146.31
955.907	81.6
956.075	73.85
956.243	82.76
956.41	131.01
956.578	44.01
956.746	66.49
956.914	75.01
957.082	135.85
957.25	119.77
957.418	94.77
957.585	112.21
957.753	157.16
957.921	84.51
958.089	120.93
958.256	130.04
958.424	120.74
958.592	113.18
958.759	82.76
958.927	135.27
959.095	82.18
959.262	110.27
959.43	94.39
959.597	80.24
959.765	110.66
959.932	80.44
960.1	131.01
960.267	99.81
960.435	104.46
960.602	129.46
960.77	103.3
960.937	67.84
961.104	98.65
961.272	35.88
961.439	82.96
961.606	131.78
961.774	130.62
961.941	91.67
962.108	108.92
962.275	129.26
962.443	163.36
962.61	116.28
962.777	183.12
962.944	138.95
963.111	125.19
963.278	114.15
963.446	140.89
963.613	107.56
963.78	127.32
963.947	143.6
964.114	145.54
964.281	207.92
964.448	146.31
964.615	86.44
964.782	137.21
964.949	171.89
965.116	121.9
965.282	189.9
965.449	118.99
965.616	84.12
965.783	147.09
965.95	134.49
966.117	71.14
966.283	131.2
966.45	119.57
966.617	134.3
966.784	145.15
966.95	163.75
967.117	161.81
967.284	97.68
967.45	108.34
967.617	196.69
967.784	164.91
967.95	203.27
968.117	125.77
968.283	177.12
968.45	257.33
968.616	157.16
968.783	165.1
968.949	145.15
969.116	195.33
969.282	115.51
969.449	165.1
969.615	137.01
969.781	79.86
969.948	111.82
970.114	84.89
970.28	209.86
970.447	143.99
970.613	173.44
970.779	136.24
970.945	167.43
971.112	161.81
971.278	139.72
971.444	112.02
971.61	159.87
971.776	123.06
971.942	156.97
972.108	158.52
972.275	153.67
972.441	149.41
972.607	222.45
972.773	108.92
972.939	151.35
973.105	116.28
973.271	107.37
973.437	107.95
973.602	94.58
973.768	134.49
973.934	124.03
974.1	170.72
974.266	46.92
974.432	120.74
974.598	123.26
974.763	158.32
974.929	126.94
975.095	178.09
975.261	103.69
975.426	77.34
975.592	113.76
975.758	183.7
975.923	58.35
976.089	77.92
976.255	123.06
976.42	118.22
976.586	143.99
976.751	124.61
976.917	209.09
977.082	138.17
977.248	78.11
977.413	49.83
977.579	77.92
977.744	131.01
977.91	73.07
978.075	103.11
978.24	133.72
978.406	122.87
978.571	120.35
978.736	89.16
978.902	147.09
979.067	71.53
979.232	48.66
979.397	117.06
979.563	172.66
979.728	81.79
979.893	105.82
980.058	81.41
980.223	163.17
980.388	125.39
980.554	121.32
980.719	90.9
980.884	141.27
981.049	143.21
981.214	108.14
981.379	129.84
981.544	84.31
981.709	84.31
981.874	90.12
982.039	115.12
982.204	132.94
982.368	114.15
982.533	93.03
982.698	162.59
982.863	160.45
983.028	88.38
983.193	123.84
983.357	127.52
983.522	123.45
983.687	98.46
983.852	87.02
984.016	108.53
984.181	111.05
984.346	135.66
984.51	128.1
984.675	99.23
984.839	132.56
985.004	128.29
985.168	151.74
985.333	126.74
985.498	98.07
985.662	115.51
985.827	122.09
985.991	139.34
986.155	85.86
986.32	152.71
986.484	160.84
986.649	111.82
986.813	61.06
986.977	109.11
987.142	120.54
987.306	89.54
987.47	65.52
987.634	107.37
987.799	113.57
987.963	123.64
988.127	120.16
988.291	175.95
988.455	115.31
988.62	91.48
988.784	129.46
988.948	120.74
989.112	75.79
989.276	108.14
989.44	91.67
989.604	68.23
989.768	58.54
989.932	165.69
990.096	58.93
990.26	64.94
990.424	67.07
990.588	89.93
990.752	164.33
990.915	143.02
991.079	82.57
991.243	80.05
991.407	114.92
991.571	93.22
991.734	129.26
991.898	88.96
992.062	175.18
992.226	87.41
992.389	62.23
992.553	34.71
992.717	60.09
992.88	92.84
993.044	100.2
993.207	83.34
993.371	100.2
993.535	106.01
993.698	112.99
993.862	117.06
994.025	132.17
994.189	111.05
994.352	83.73
994.515	134.3
994.679	98.65
994.842	102.33
995.006	120.93
995.169	49.24
995.332	79.27
995.496	120.35
995.659	42.66
995.822	37.43
995.985	84.7
996.149	132.56
996.312	84.12
996.475	117.25
996.638	78.5
996.801	133.52
996.964	178.47
997.128	83.92
997.291	75.59
997.454	103.88
997.617	39.56
997.78	123.06
997.943	41.69
998.106	138.37
998.269	56.03
998.432	88.19
998.595	72.88
998.758	35.29
998.92	71.33
999.083	28.71
999.246	75.79
999.409	41.69
999.572	7.2
999.735	45.56
999.897	72.88
1000.06	50.6
1000.223	68.62
1000.386	122.48
1000.548	90.12
1000.711	95.55
1000.874	94.97
1001.036	31.42
1001.199	121.71
1001.361	46.14
1001.524	65.91
1001.687	119.19
1001.849	52.15
1002.012	69.2
1002.174	95.16
1002.337	92.26
1002.499	59.71
1002.661	111.82
1002.824	15.14
1002.986	38.01
1003.149	75.59
1003.311	38.59
1003.473	129.46
1003.636	44.01
1003.798	80.24
1003.96	73.07
1004.123	64.55
1004.285	30.26
1004.447	78.5
1004.609	70.94
1004.771	131.01
1004.933	-17.6
1005.096	25.03
1005.258	-10.82
1005.42	22.12
1005.582	92.64
1005.744	90.51
1005.906	10.49
1006.068	81.02
1006.23	12.63
1006.392	9.14
1006.554	37.04
1006.716	96.52
1006.878	79.47
1007.04	-2.1
1007.202	15.92
1007.363	25.99
1007.525	86.06
1007.687	100.97
1007.849	89.74
1008.011	-14.89
1008.172	-1.13
1008.334	72.3
1008.496	78.89
1008.658	11.66
1008.819	36.65
1008.981	13.98
1009.143	25.61
1009.304	50.41
1009.466	65.33
1009.627	111.44
1009.789	159.87
1009.95	52.73
1010.112	19.41
1010.273	79.86
1010.435	28.71
1010.596	44.4
1010.758	22.7
1010.919	42.46
1011.081	5.46
1011.242	5.07
1011.403	56.22
1011.565	40.72
1011.726	60.48
1011.887	6.81
1012.049	-4.04
1012.21	50.6
1012.371	105.62
1012.532	-30.58
1012.693	46.73
1012.855	27.16
1013.016	31.42
1013.177	84.12
1013.338	35.68
1013.499	120.54
1013.66	85.67
1013.821	43.82
1013.982	42.85
1014.143	37.23
1014.304	13.21
1014.465	63.97
1014.626	82.18
1014.787	29.87
1014.948	117.83
1015.109	-34.26
1015.27	76.56
1015.431	42.27
1015.592	16.31
1015.752	96.52
1015.913	25.41
1016.074	41.11
1016.235	58.35
1016.395	34.13
1016.556	26.58
1016.717	37.62
1016.877	66.88
1017.038	2.94
1017.199	43.24
1017.359	30.84
1017.52	55.06
1017.681	8.75
1017.841	42.08
1018.002	34.13
1018.162	16.11
1018.323	70.36
1018.483	-2.49
1018.644	1.19
1018.804	6.62
1018.964	-25.74
1019.125	14.37
1019.285	45.76
1019.446	-14.31
1019.606	15.73
1019.766	-39.49
1019.926	62.81
1020.087	55.06
1020.247	-37.94
1020.407	41.49
1020.567	68.04
1020.728	29.09
1020.888	-16.82
1021.048	-12.37
1021.208	-7.14
1021.368	12.63
1021.528	64.94
1021.688	45.56
1021.848	56.41
1022.008	23.67
1022.168	21.73
1022.328	29.09
1022.488	28.13
1022.648	-0.16
1022.808	15.73
1022.968	31.03
1023.128	-13.92
1023.288	13.4
1023.448	21.93
1023.608	53.89
1023.767	28.51
1023.927	1.78
1024.087	-3.07
1024.247	-14.11
1024.406	17.86
1024.566	-23.22
1024.726	-17.79
1024.885	26.19
1025.045	33.36
1025.205	41.69
1025.364	13.4
1025.524	14.76
1025.683	-4.23
1025.843	4.29
1026.003	36.46
1026.162	87.99
1026.321	50.79
1026.481	35.68
1026.64	-9.27
1026.8	45.95
1026.959	28.32
1027.119	4.1
1027.278	5.26
1027.437	-11.79
1027.597	-0.94
1027.756	20.76
1027.915	42.66
1028.074	40.14
1028.234	3.13
1028.393	42.27
1028.552	-5.2
1028.711	-70.1
1028.87	55.25
1029.03	-43.56
1029.189	11.66
1029.348	-31.74
1029.507	1.78
1029.666	5.65
1029.825	-11.79
1029.984	12.24
1030.143	16.5
1030.302	-11.21
1030.461	-48.99
1030.62	27.16
1030.779	38.98
1030.938	-39.49
1031.097	-27.29
1031.255	25.41
1031.414	77.14
1031.573	30.06
1031.732	-36.78
1031.891	8.36
1032.049	46.34
1032.208	21.15
1032.367	-21.67
1032.525	17.66
1032.684	11.46
1032.843	13.21
1033.001	-46.27
1033.16	173.24
1033.319	37.23
1033.477	45.18
1033.636	-9.07
1033.794	-46.85
1033.953	21.93
1034.111	47.31
1034.27	-1.13
1034.428	34.52
1034.587	-21.67
1034.745	19.21
1034.903	19.99
1035.062	22.7
1035.22	-48.4
1035.378	47.69
1035.537	-14.89
1035.695	28.32
1035.853	26.77
1036.011	63.39
1036.17	1.39
1036.328	-74.56
1036.486	15.34
1036.644	34.91
1036.802	-88.51
1036.96	-3.65
1037.119	25.22
1037.277	9.14
1037.435	-42.4
1037.593	-24.77
1037.751	7.2
1037.909	34.13
1038.067	34.13
