Data from gum_old_FLMT105791__199__15-48-26-249.txt Node

Date: Mon Mar 20 15:48:26 GMT 2023
User: antho
Spectrometer: FLMT10579
Trigger mode: 0
Integration Time (sec): 1.000000E-1
Scans to average: 10
Electric dark correction enabled: true
Nonlinearity correction enabled: false
Boxcar width: 0
XAxis mode: Wavelengths
Number of Pixels in Spectrum: 3648
>>>>>Begin Spectral Data<<<<<
345.248	-197.65
345.464	-197.65
345.681	-197.65
345.898	-215.87
346.114	-176.15
346.331	-22.12
346.548	10.82
346.764	4.81
346.981	-18.63
347.197	-23.28
347.414	21.28
347.631	-34.52
347.847	61.58
348.064	21.67
348.28	31.94
348.497	-49.63
348.713	-3.91
348.93	41.43
349.146	25.54
349.363	7.52
349.579	12.37
349.796	3.65
350.012	6.36
350.229	32.13
350.445	14.11
350.661	-0.42
350.878	-5.46
351.094	37.17
351.311	25.93
351.527	36
351.743	-14.37
351.96	66.62
352.176	66.04
352.392	20.89
352.609	47.63
352.825	9.66
353.041	36.97
353.257	6.17
353.474	25.54
353.69	42.01
353.906	12.76
354.122	-26.96
354.339	83.67
354.555	7.52
354.771	13.14
354.987	90.25
355.203	93.74
355.42	8.3
355.636	8.88
355.852	-16.11
356.068	50.34
356.284	-10.49
356.5	80.95
356.716	30.19
356.932	32.32
357.148	30.19
357.364	21.67
357.58	57.51
357.796	66.04
358.012	80.95
358.228	38.33
358.444	-42.66
358.66	63.52
358.876	24.19
359.092	21.47
359.308	16.82
359.524	70.69
359.74	9.27
359.956	-11.46
360.172	63.32
360.388	43.75
360.604	-7.2
360.819	93.16
361.035	14.69
361.251	54.02
361.467	-11.27
361.683	49.76
361.898	40.27
362.114	54.99
362.33	44.92
362.546	60.61
362.762	46.85
362.977	38.91
363.193	-5.26
363.409	120.09
363.624	19.92
363.84	8.69
364.056	4.04
364.271	48.79
364.487	68.36
364.703	22.44
364.918	-1.19
365.134	34.84
365.35	36
365.565	155.74
365.781	30.58
365.996	60.8
366.212	131.52
366.427	40.07
366.643	17.6
366.858	33.29
367.074	27.29
367.289	94.32
367.505	137.14
367.72	14.11
367.936	31.35
368.151	80.57
368.367	87.15
368.582	26.7
368.798	24.19
369.013	82.7
369.228	46.47
369.444	39.3
369.659	84.05
369.874	63.71
370.09	111.18
370.305	-33.74
370.52	73.2
370.736	95.68
370.951	64.1
371.166	102.46
371.381	110.6
371.597	73.4
371.812	25.15
372.027	47.24
372.242	71.65
372.458	130.55
372.673	53.64
372.888	41.43
373.103	69.14
373.318	157.68
373.533	79.99
373.749	54.41
373.964	-14.76
374.179	108.08
374.394	21.09
374.609	89.67
374.824	24.57
375.039	103.04
375.254	30.77
375.469	83.28
375.684	52.09
375.899	104.01
376.114	57.12
376.329	75.14
376.544	86.96
376.759	78.44
376.974	28.45
377.189	65.84
377.404	37.75
377.619	115.83
377.834	24.57
378.049	17.21
378.264	24.96
378.478	61.97
378.693	38.72
378.908	99.36
379.123	50.73
379.338	100.52
379.553	98.97
379.767	99.75
379.982	113.12
380.197	82.31
380.412	75.72
380.626	78.63
380.841	133.07
381.056	113.7
381.271	126.68
381.485	54.99
381.7	26.9
381.915	78.05
382.129	76.3
382.344	88.51
382.559	73.01
382.773	99.94
382.988	21.47
383.202	69.91
383.417	38.91
383.632	196.81
383.846	38.72
384.061	64.49
384.275	46.47
384.49	90.06
384.704	106.72
384.919	85.6
385.133	71.65
385.348	114.28
385.562	51.89
385.777	105.75
385.991	77.08
386.206	84.64
386.42	50.34
386.634	133.46
386.849	102.65
387.063	103.82
387.277	87.54
387.492	53.05
387.706	48.02
387.92	29.42
388.135	102.46
388.349	99.36
388.563	92.39
388.778	111.95
388.992	122.03
389.206	135.78
389.42	163.88
389.635	101.88
389.849	132.3
390.063	114.08
390.277	133.27
390.491	144.5
390.706	109.24
390.92	131.13
391.134	80.95
391.348	126.48
391.562	67.59
391.776	112.34
391.99	83.86
392.205	143.73
392.419	67.78
392.633	111.18
392.847	167.17
393.061	76.11
393.275	154.77
393.489	92.77
393.703	103.62
393.917	113.5
394.131	61.19
394.345	103.82
394.559	127.84
394.773	59.06
394.986	126.68
395.2	136.56
395.414	149.73
395.628	116.41
395.842	137.92
396.056	110.98
396.27	68.55
396.484	126.68
396.697	136.75
396.911	147.41
397.125	125.52
397.339	98.59
397.553	105.95
397.766	164.85
397.98	165.23
398.194	178.99
398.408	120.87
398.621	190.81
398.835	212.51
399.049	189.65
399.262	229.75
399.476	216.38
399.69	198.36
399.903	268.31
400.117	201.46
400.331	243.51
400.544	150.9
400.758	308.8
400.971	213.28
401.185	239.44
401.398	157.48
401.612	269.86
401.826	244.09
402.039	236.92
402.253	194.88
402.466	239.25
402.68	212.31
402.893	248.55
403.106	217.93
403.32	222.78
403.533	226.46
403.747	217.55
403.96	237.7
404.174	254.94
404.387	195.46
404.6	242.73
404.814	273.73
405.027	246.22
405.24	215.03
405.454	223.16
405.667	284.39
405.88	172.21
406.094	273.35
406.307	278.96
406.52	267.73
406.733	197.59
406.947	198.95
407.16	320.23
407.373	283.03
407.586	224.91
407.799	208.05
408.012	263.08
408.226	252.23
408.439	336.31
408.652	186.93
408.865	283.81
409.078	328.56
409.291	318.49
409.504	251.26
409.717	290.59
409.93	286.52
410.143	270.25
410.357	203.21
410.57	185.38
410.783	236.53
410.996	251.06
411.209	272.57
411.421	337.67
411.634	297.37
411.847	248.55
412.06	297.37
412.273	280.9
412.486	313.26
412.699	375.26
412.912	290.39
413.125	348.71
413.338	297.37
413.55	317.91
413.763	290.2
413.976	307.83
414.189	267.34
414.402	280.13
414.615	406.26
414.827	265.01
415.04	339.22
415.253	337.48
415.466	349.1
415.678	360.14
415.891	322.75
416.104	301.44
416.316	321.78
416.529	296.01
416.742	351.04
416.954	366.34
417.167	360.34
417.38	321.98
417.592	367.12
417.805	276.45
418.017	261.91
418.23	342.9
418.442	270.83
418.655	304.93
418.868	327.21
419.08	362.66
419.293	351.43
419.505	362.28
419.718	329.14
419.93	394.24
420.142	321.2
420.355	382.81
420.567	387.46
420.78	339.03
420.992	343.29
421.205	404.9
421.417	326.63
421.629	351.81
421.842	339.41
422.054	323.53
422.266	393.27
422.479	427.57
422.691	328.56
422.903	381.84
423.115	308.61
423.328	342.13
423.54	329.92
423.752	362.28
423.964	324.69
424.177	368.28
424.389	347.74
424.601	449.66
424.813	379.32
425.025	425.63
425.238	395.79
425.45	367.7
425.662	369.25
425.874	694.75
426.086	382.81
426.298	400.25
426.51	403.35
426.722	378.55
426.934	366.92
427.146	408.19
427.358	350.65
427.57	404.71
427.782	390.17
427.994	373.9
428.206	361.89
428.418	330.69
428.63	411.1
428.842	442.1
429.054	395.79
429.266	410.13
429.478	362.08
429.69	368.47
429.902	316.94
430.114	414.2
430.325	402.38
430.537	346.58
430.749	327.79
430.961	260.75
431.173	308.41
431.384	330.5
431.596	240.6
431.808	326.04
432.02	411.1
432.231	427.18
432.443	488.79
432.655	461.47
432.867	409.74
433.078	463.22
433.29	502.94
433.502	469.61
433.713	488.21
433.925	488.4
434.136	515.53
434.348	376.42
434.56	366.73
434.771	558.54
434.983	375.64
435.194	422.92
435.406	464.19
435.617	493.83
435.829	560.09
436.04	508.75
436.252	519.6
436.463	546.92
436.675	556.8
436.886	542.65
437.098	530.45
437.309	566.48
437.521	561.45
437.732	536.65
437.943	530.45
438.155	509.33
438.366	484.14
438.578	586.83
438.789	493.44
439	505.84
439.211	501.77
439.423	515.72
439.634	509.91
439.845	553.31
440.057	538.39
440.268	572.3
440.479	522.31
440.69	528.51
440.902	532.97
441.113	520.76
441.324	513.79
441.535	566.29
441.746	632.55
441.957	559.9
442.168	544.59
442.38	611.05
442.591	636.23
442.802	567.07
443.013	549.63
443.224	596.13
443.435	554.47
443.646	586.63
443.857	600
444.068	568.62
444.279	570.55
444.49	689.71
444.701	608.14
444.912	718.77
445.123	663.36
445.334	648.44
445.545	633.33
445.756	600.2
445.967	600.2
446.178	615.7
446.388	658.51
446.599	629.26
446.81	647.86
447.021	596.9
447.232	655.61
447.443	683.9
447.653	633.71
447.864	701.53
448.075	672.46
448.286	685.25
448.496	683.9
448.707	678.66
448.918	610.08
449.129	738.34
449.339	650.18
449.55	669.75
449.761	701.33
449.971	729.62
450.182	659.29
450.393	753.26
450.603	660.45
450.814	732.91
451.024	721.29
451.235	780.77
451.446	756.36
451.656	800.92
451.867	698.62
452.077	702.11
452.288	790.07
452.498	757.33
452.709	710.83
452.919	734.66
453.13	692.23
453.34	712.18
453.55	679.25
453.761	732.53
453.971	704.24
454.182	728.07
454.392	728.26
454.602	798.59
454.813	730.01
455.023	748.22
455.233	658.13
455.444	731.17
455.654	639.91
455.864	739.11
456.075	693.78
456.285	694.55
456.495	735.04
456.705	778.83
456.916	819.52
457.126	805.76
457.336	748.8
457.546	695.13
457.756	714.89
457.967	773.21
458.177	753.26
458.387	759.07
458.597	717.41
458.807	748.61
459.017	726.52
459.227	712.38
459.437	753.26
459.647	807.7
459.857	778.25
460.068	731.94
460.278	803.82
460.488	786.97
460.698	838.31
460.908	779.61
461.117	723.61
461.327	717.8
461.537	797.63
461.747	794.14
461.957	809.64
462.167	938.87
462.377	839.86
462.587	808.67
462.797	834.24
463.007	799.37
463.216	841.61
463.426	877.26
463.636	867.18
463.846	786.97
464.056	831.14
464.265	838.7
464.475	795.11
464.685	817.97
464.895	843.54
465.104	805.37
465.314	844.51
465.524	779.41
465.733	788.71
465.943	894.69
466.153	915.04
466.362	881.52
466.572	840.06
466.782	771.28
466.991	810.61
467.201	911.94
467.41	776.51
467.62	840.64
467.829	849.36
468.039	872.61
468.249	811.77
468.458	850.52
468.668	905.54
468.877	876.29
469.086	958.24
469.296	945.07
469.505	878.61
469.715	968.9
469.924	920.07
470.134	967.35
470.343	951.27
470.552	886.36
470.762	902.05
470.971	842.96
471.18	890.04
471.39	916.78
471.599	860.98
471.808	948.36
472.018	920.85
472.227	996.41
472.436	1010.36
472.645	958.63
472.855	946.81
473.064	1036.13
473.273	1013.65
473.482	1036.71
473.691	1048.53
473.901	1044.65
474.11	990.02
474.319	1051.05
474.528	1018.88
474.737	1122.54
474.946	1075.46
475.155	1066.74
475.364	1094.06
475.573	1085.53
475.783	1104.91
475.992	1124.48
476.201	1099.1
476.41	1075.07
476.619	1053.37
476.828	1122.35
477.037	1075.26
477.245	1053.76
477.454	1136.88
477.663	1099.48
477.872	1122.54
478.081	1220.96
478.29	1124.86
478.499	1238.79
478.708	1209.53
478.917	1267.66
479.125	1157.61
479.334	1176.79
479.543	1188.03
479.752	1204.11
479.961	1225.03
480.169	1256.61
480.378	1219.99
480.587	1359.1
480.796	1274.44
481.004	1262.42
481.213	1285.09
481.422	1296.14
481.63	1263.01
481.839	1334.11
482.048	1357.55
482.256	1334.69
482.465	1343.22
482.674	1338.76
482.882	1361.43
483.091	1407.74
483.299	1381.58
483.508	1373.83
483.716	1385.84
483.925	1340.5
484.134	1362.2
484.342	1332.56
484.551	1386.62
484.759	1379.45
484.967	1425.56
485.176	1408.9
485.384	1411.22
485.593	1419.94
485.801	1426.33
486.01	1335.66
486.218	1288.19
486.426	1204.49
486.635	1200.23
486.843	1236.85
487.051	1255.26
487.26	1204.11
487.468	1306.99
487.676	1353.29
487.885	1354.84
488.093	1339.54
488.301	1471.87
488.509	1413.93
488.717	1465.08
488.926	1439.32
489.134	1436.41
489.342	1446.29
489.55	1377.51
489.758	1464.12
489.967	1447.65
490.175	1585.79
490.383	1524.37
490.591	1594.12
490.799	1487.56
491.007	1573
491.215	1549.75
491.423	1517.59
491.631	1551.11
491.839	1542.2
492.047	1617.76
492.255	1488.33
492.463	1448.42
492.671	1477.87
492.879	1573.58
493.087	1516.81
493.295	1553.82
493.503	1570.1
493.711	1634.03
493.919	1627.64
494.127	1641.2
494.334	1632.68
494.542	1581.53
494.75	1617.56
494.958	1610.59
495.166	1710.37
495.374	1703.2
495.581	1697.39
495.789	1702.42
495.997	1743.11
496.205	1657.48
496.412	1673.75
496.62	1672.59
496.828	1695.26
497.035	1672.01
497.243	1703.78
497.451	1694.48
497.658	1716.37
497.866	1728.19
498.074	1794.07
498.281	1660.58
498.489	1807.05
498.696	1697
498.904	1647.4
499.112	1639.46
499.319	1728.58
499.527	1682.47
499.734	1777.99
499.942	1701.46
500.149	1710.76
500.357	1739.62
500.564	1707.66
500.771	1705.33
500.979	1679.37
501.186	1657.67
501.394	1716.76
501.601	1697
501.808	1736.14
502.016	1684.02
502.223	1684.21
502.43	1686.73
502.638	1701.46
502.845	1673.56
503.052	1817.12
503.26	1711.72
503.467	1821.97
503.674	1777.99
503.881	1779.92
504.089	1832.62
504.296	1772.17
504.503	1714.24
504.71	1781.67
504.917	1707.27
505.125	1779.34
505.332	1795.62
505.539	1826.04
505.746	1885.9
505.953	1865.95
506.16	1872.92
506.367	1937.63
506.574	1941.51
506.781	1960.69
506.988	1866.33
507.195	1893.27
507.402	1893.07
507.609	1903.53
507.816	1853.55
508.023	1874.67
508.23	1837.47
508.437	1785.93
508.644	1873.31
508.851	1925.43
509.058	1912.06
509.265	1909.35
509.472	1957.01
509.679	2044.39
509.885	1931.24
510.092	1976
510.299	1943.64
510.506	1920.2
510.713	1929.3
510.92	1950.42
511.126	1983.94
511.333	2005.06
511.54	1956.81
511.746	2033.73
511.953	2019.01
512.16	2044.78
512.367	2006.22
512.573	1980.65
512.78	2011.65
512.987	2003.51
513.193	2019.78
513.4	1908.77
513.606	1971.73
513.813	1999.44
514.02	1992.27
514.226	2033.73
514.433	2021.72
514.639	1929.69
514.846	1994.4
515.052	1973.67
515.259	2009.32
515.465	2025.98
515.672	1994.21
515.878	2083.72
516.085	2029.47
516.291	2084.49
516.497	2040.51
516.704	2016.88
516.91	1946.74
517.117	1855.29
517.323	1783.02
517.529	1819.25
517.736	1811.12
517.942	1827.97
518.148	1845.6
518.354	1932.6
518.561	1924.07
518.767	1911.09
518.973	1999.63
519.179	1972.12
519.386	1957.01
519.592	1944.8
519.798	1980.26
520.004	2107.36
520.21	2083.53
520.417	2096.7
520.623	2174.59
520.829	2175.75
521.035	2150.37
521.241	2161.22
521.447	2168.97
521.653	2288.9
521.859	2182.14
522.065	2249.37
522.271	2326.48
522.477	2258.29
522.683	2328.42
522.889	2267
523.095	2266.42
523.301	2191.64
523.507	2181.56
523.713	2209.85
523.919	2215.85
524.125	2276.69
524.331	2290.06
524.537	2408.25
524.742	2400.11
524.948	2392.55
525.154	2442.54
525.36	2558.21
525.566	2385.96
525.772	2484.39
525.977	2377.83
526.183	2430.91
526.389	2436.15
526.595	2385.19
526.8	2322.22
527.006	2282.12
527.212	2243.95
527.417	2179.43
527.623	2182.34
527.829	2278.05
528.034	2323.97
528.24	2325.71
528.446	2336.75
528.651	2461.91
528.857	2449.32
529.062	2494.85
529.268	2472.76
529.473	2528.56
529.679	2523.91
529.884	2622.92
530.09	2574.48
530.295	2544.26
530.501	2564.21
530.706	2585.72
530.912	2496.01
531.117	2533.41
531.323	2574.29
531.528	2651.01
531.733	2650.62
531.939	2571.57
532.144	2643.26
532.35	2606.64
532.555	2648.88
532.76	2595.79
532.966	2585.91
533.171	2583.78
533.376	2527.21
533.581	2492.72
533.787	2529.92
533.992	2597.92
534.197	2598.89
534.402	2598.7
534.607	2614.2
534.813	2680.46
535.018	2571.57
535.223	2613.62
535.428	2633.96
535.633	2683.56
535.838	2684.34
536.043	2685.69
536.249	2800.2
536.454	2676
536.659	2768.62
536.864	2687.44
537.069	2666.12
537.274	2722.7
537.479	2669.22
537.684	2695.38
537.889	2625.63
538.094	2825
538.299	2707.78
538.504	2695.57
538.708	2737.62
538.913	2778.11
539.118	2748.85
539.323	2774.62
539.528	2719.4
539.733	2692.86
539.938	2731.8
540.142	2731.03
540.347	2691.31
540.552	2642.49
540.757	2619.43
540.962	2689.37
541.166	2587.27
541.371	2568.67
541.576	2656.05
541.781	2571.57
541.985	2716.3
542.19	2730.83
542.395	2819.96
542.599	2819.76
542.804	2744.59
543.008	2820.73
543.213	2706.81
543.418	2667.67
543.622	2770.75
543.827	2683.17
544.031	2816.08
544.236	2798.65
544.44	2788.96
544.645	2905.4
544.849	2787.99
545.054	2851.73
545.258	2857.35
545.463	2880.21
545.667	2775.78
545.872	2833.71
546.076	2862.78
546.281	2855.22
546.485	2761.25
546.689	2851.54
546.894	2856.96
547.098	2821.7
547.302	2829.65
547.507	2821.31
547.711	2861.03
547.915	2877.31
548.119	2767.07
548.324	2765.13
548.528	2886.03
548.732	2810.85
548.936	2857.35
549.141	2901.33
549.345	2806.78
549.549	2837.59
549.753	2872.85
549.957	2953.06
550.161	2931.36
550.366	2901.91
550.57	2827.13
550.774	2825.96
550.978	2828.68
551.182	2877.5
551.386	2806.4
551.59	2800.78
551.794	2816.47
551.998	2843.01
552.202	2817.63
552.406	2801.94
552.61	2872.85
552.814	2883.12
553.018	2917.99
553.222	2849.21
553.426	2830.23
553.63	2918.77
553.833	2845.53
554.037	2806.59
554.241	2845.53
554.445	2861.03
554.649	2853.48
554.853	2838.36
555.056	2891.06
555.26	2888.74
555.464	2849.21
555.668	2851.54
555.871	2890.1
556.075	2911.21
556.279	2844.76
556.483	2799.42
556.686	2834.3
556.89	2839.33
557.094	2865.88
557.297	2714.75
557.501	2831.58
557.704	2746.53
557.908	2840.88
558.112	2731.03
558.315	2862.58
558.519	2791.09
558.722	2731.42
558.926	2740.72
559.129	2654.69
559.333	2651.01
559.536	2665.35
559.74	2634.93
559.943	2624.08
560.147	2688.4
560.35	2654.89
560.553	2653.92
560.757	2655.66
560.96	2760.87
561.164	2650.62
561.367	2789.15
561.57	2707.97
561.774	2720.76
561.977	2728.7
562.18	2677.94
562.384	2789.35
562.587	2666.51
562.79	2673.49
562.993	2653.72
563.197	2699.64
563.4	2760.28
563.603	2695.77
563.806	2766.87
564.009	2666.9
564.212	2691.12
564.416	2614.97
564.619	2682.79
564.822	2606.06
565.025	2682.98
565.228	2624.66
565.431	2663.02
565.634	2528.95
565.837	2583.59
566.04	2578.16
566.243	2568.28
566.446	2444.67
566.649	2594.44
566.852	2507.44
567.055	2537.86
567.258	2584.75
567.461	2632.61
567.664	2620.01
567.867	2521.39
568.07	2540.96
568.273	2588.62
568.475	2694.22
568.678	2538.06
568.881	2518.68
569.084	2510.54
569.287	2404.95
569.489	2465.4
569.692	2528.37
569.895	2514.42
570.098	2417.74
570.3	2422.58
570.503	2383.45
570.706	2409.21
570.909	2395.26
571.111	2336.17
571.314	2314.47
571.516	2375.5
571.719	2363.68
571.922	2309.82
572.124	2357.1
572.327	2364.65
572.529	2337.14
572.732	2327.26
572.935	2415.61
573.137	2504.15
573.34	2371.63
573.542	2416
573.745	2432.85
573.947	2396.43
574.15	2372.98
574.352	2348.38
574.554	2441.18
574.757	2329.58
574.959	2301.3
575.162	2307.88
575.364	2290.25
575.566	2416
575.769	2308.85
575.971	2336.95
576.173	2178.85
576.376	2297.03
576.578	2329.78
576.78	2348.38
576.982	2260.03
577.185	2279.99
577.387	2253.83
577.589	2250.92
577.791	2299.55
577.993	2285.41
578.196	2263.71
578.398	2280.76
578.6	2292.38
578.802	2201.32
579.004	2193.38
579.206	2217.6
579.408	2252.67
579.61	2212.17
579.812	2281.73
580.014	2243.95
580.216	2205.78
580.418	2214.69
580.62	2217.6
580.822	2175.17
581.024	2245.3
581.226	2296.45
581.428	2201.13
581.63	2291.8
581.832	2186.21
582.034	2263.9
582.236	2232.9
582.438	2244.53
582.64	2295.87
582.841	2322.8
583.043	2336.95
583.245	2261
583.447	2230.19
583.649	2251.7
583.85	2269.72
584.052	2256.93
584.254	2204.62
584.456	2248.02
584.657	2168.97
584.859	2233.87
585.061	2194.74
585.262	2199
585.464	2129.25
585.666	2211.2
585.867	2135.45
586.069	2238.14
586.27	2153.47
586.472	2174.2
586.674	2118.4
586.875	2124.02
587.077	2132.54
587.278	2160.25
587.48	2151.14
587.681	2252.09
587.883	2174.97
588.084	2109.88
588.285	2092.63
588.487	2118.4
588.688	2142.62
588.89	2056.4
589.091	1981.23
589.292	1995.76
589.494	1916.71
589.695	1903.15
589.896	1850.25
590.098	1863.62
590.299	1887.84
590.5	1879.7
590.702	1904.5
590.903	1949.06
591.104	2018.81
591.305	1997.5
591.507	2061.63
591.708	2029.66
591.909	2015.33
592.11	2098.06
592.311	2054.46
592.512	2015.91
592.714	1937.25
592.915	1983.16
593.116	1954.68
593.317	2008.93
593.518	2000.99
593.719	2003.7
593.92	2062.79
594.121	2048.46
594.322	2035.67
594.523	2033.54
594.724	1941.12
594.925	2017.26
595.126	1996.92
595.327	2037.41
595.528	1986.65
595.729	1995.56
595.929	1974.83
596.13	2005.25
596.331	2032.38
596.532	1997.89
596.733	2059.5
596.934	2049.23
597.135	2059.5
597.335	1986.26
597.536	1966.89
597.737	2045.16
597.938	1957.98
598.138	1995.37
598.339	2011.84
598.54	2001.18
598.74	1945.77
598.941	1966.7
599.142	2051.36
599.342	2009.32
599.543	1969.02
599.744	1995.37
599.944	1956.04
600.145	1985.3
600.345	1997.31
600.546	2076.55
600.746	2054.46
600.947	2068.99
601.147	1989.75
601.348	2028.69
601.548	1957.59
601.749	1994.4
601.949	1902.76
602.15	1951.39
602.35	1923.49
602.551	2013.2
602.751	1914.58
602.951	1947.71
603.152	1930.08
603.352	1976.77
603.552	1947.71
603.753	2004.48
603.953	1991.69
604.153	1971.73
604.354	1948.1
604.554	1931.24
604.754	1991.69
604.954	1934.73
605.155	1981.42
605.355	1978.13
605.555	1993.24
605.755	2018.62
605.955	1924.07
606.155	2002.15
606.356	1986.26
606.556	1964.18
606.756	2001.38
606.956	1904.5
607.156	2013.39
607.356	1915.93
607.556	1904.7
607.756	1897.33
607.956	2032.76
608.156	1938.99
608.356	1872.15
608.556	1952.55
608.756	1941.12
608.956	1920.39
609.156	1932.6
609.356	1855.87
609.556	1838.05
609.755	1897.53
609.955	1836.69
610.155	1890.94
610.355	1904.7
610.555	1830.1
610.755	1867.11
610.954	1778.76
611.154	1865.75
611.354	1899.08
611.554	1801.43
611.753	1851.61
611.953	1782.25
612.153	1863.23
612.352	1876.41
612.552	1804.34
612.752	1734.01
612.951	1812.67
613.151	1802.79
613.351	1788.84
613.55	1776.05
613.75	1828.55
613.949	1766.75
614.149	1827.2
614.348	1789.22
614.548	1757.45
614.747	1743.11
614.947	1785.93
615.146	1694.29
615.346	1789.8
615.545	1766.55
615.745	1765.97
615.944	1784.19
616.144	1751.25
616.343	1768.69
616.542	1747.76
616.742	1729.74
616.941	1731.29
617.14	1652.44
617.34	1692.74
617.539	1691.77
617.738	1646.63
617.938	1793.1
618.137	1734.2
618.336	1677.43
618.535	1763.45
618.734	1729.94
618.934	1739.82
619.133	1728.19
619.332	1764.04
619.531	1656.89
619.73	1739.24
619.929	1735.17
620.128	1764.23
620.328	1764.42
620.527	1690.8
620.726	1720.06
620.925	1737.88
621.124	1721.02
621.323	1713.27
621.522	1656.51
621.721	1701.65
621.92	1643.33
622.119	1706.88
622.318	1643.72
622.517	1686.15
622.715	1662.9
622.914	1609.04
623.113	1666.97
623.312	1561.96
623.511	1651.08
623.71	1633.64
623.909	1606.13
624.107	1715.21
624.306	1599.35
624.505	1642.56
624.704	1598.38
624.902	1585.4
625.101	1674.33
625.3	1634.23
625.499	1591.41
625.697	1589.66
625.896	1594.89
626.095	1614.66
626.293	1542.39
626.492	1550.72
626.69	1583.08
626.889	1572.23
627.088	1622.21
627.286	1559.05
627.485	1555.56
627.683	1537.35
627.882	1604.39
628.08	1489.11
628.279	1521.66
628.477	1586.18
628.676	1501.31
628.874	1582.5
629.073	1492.02
629.271	1486.01
629.469	1523.98
629.668	1498.99
629.866	1502.48
630.065	1490.08
630.263	1562.54
630.461	1520.11
630.66	1525.53
630.858	1505.77
631.056	1543.94
631.254	1557.7
631.453	1490.08
631.651	1540.26
631.849	1514.3
632.047	1498.8
632.245	1473.22
632.444	1511.78
632.642	1545.49
632.84	1534.06
633.038	1488.53
633.236	1458.5
633.434	1498.8
633.632	1460.24
633.83	1483.68
634.028	1520.11
634.227	1504.03
634.425	1592.38
634.623	1485.62
634.821	1560.6
635.019	1501.7
635.216	1514.49
635.414	1535.8
635.612	1508.1
635.81	1516.81
636.008	1560.6
636.206	1471.67
636.404	1531.93
636.602	1462.37
636.8	1486.98
636.997	1523.4
637.195	1561.57
637.393	1511.97
637.591	1578.43
637.789	1497.25
637.986	1519.33
638.184	1520.5
638.382	1538.32
638.58	1522.43
638.777	1576.1
638.975	1496.08
639.173	1496.86
639.37	1496.47
639.568	1513.71
639.765	1512.36
639.963	1474.58
640.161	1506.93
640.358	1528.63
640.556	1450.75
640.753	1456.56
640.951	1441.25
641.148	1496.28
641.346	1459.27
641.543	1449.97
641.741	1482.33
641.938	1417.03
642.136	1462.76
642.333	1375.96
642.531	1440.48
642.728	1488.72
642.925	1454.62
643.123	1444.74
643.32	1461.21
643.517	1425.95
643.715	1429.63
643.912	1402.5
644.109	1425.56
644.306	1421.1
644.504	1369.95
644.701	1420.91
644.898	1423.43
645.095	1396.11
645.293	1422.27
645.49	1397.47
645.687	1393.01
645.884	1438.93
646.081	1319.77
646.278	1377.12
646.475	1377.12
646.672	1357.94
646.87	1383.13
647.067	1383.32
647.264	1381
647.461	1317.45
647.658	1274.05
647.855	1347.29
648.052	1311.64
648.249	1263.01
648.446	1294.2
648.642	1284.9
648.839	1273.66
649.036	1305.05
649.233	1263.2
649.43	1260.29
649.627	1192.48
649.824	1272.5
650.021	1250.02
650.217	1240.72
650.414	1233.17
650.611	1280.25
650.808	1321.13
651.004	1272.69
651.201	1318.03
651.398	1371.7
651.595	1290.91
651.791	1270.37
651.988	1304.66
652.185	1240.34
652.381	1297.69
652.578	1214.18
652.775	1276.76
652.971	1283.74
653.168	1252.16
653.364	1285.29
653.561	1222.51
653.757	1277.73
653.954	1261.84
654.15	1245.37
654.347	1321.52
654.543	1237.04
654.74	1199.46
654.936	1197.33
655.133	1234.33
655.329	1194.23
655.525	1234.72
655.722	1269.21
655.918	1158.19
656.115	1239.95
656.311	1105.1
656.507	1093.28
656.704	1011.13
656.9	1049.5
657.096	1087.28
657.292	1055.89
657.489	1158.96
657.685	1131.84
657.881	1122.93
658.077	1110.14
658.273	1146.76
658.47	1260.87
658.666	1159.74
658.862	1212.44
659.058	1154.51
659.254	1232.01
659.45	1183.38
659.646	1206.04
659.842	1167.29
660.038	1262.81
660.234	1146.56
660.43	1167.29
660.626	1260.68
660.822	1193.26
661.018	1250.61
661.214	1162.26
661.41	1137.07
661.606	1234.72
661.802	1226.97
661.998	1186.48
662.194	1152.76
662.39	1165.94
662.586	1218.44
662.781	1194.23
662.977	1198.49
663.173	1232.01
663.369	1187.06
663.564	1195.58
663.76	1256.61
663.956	1162.45
664.152	1231.81
664.347	1122.93
664.543	1168.07
664.739	1138.04
664.934	1081.66
665.13	1107.23
665.326	1176.79
665.521	1158.19
665.717	1100.45
665.912	1119.05
666.108	1041.55
666.304	1116.15
666.499	1111.88
666.695	1034.77
666.89	1092.51
667.086	1147.34
667.281	1129.13
667.477	1185.31
667.672	1139.01
667.867	1124.67
668.063	1119.25
668.258	1077.01
668.454	1088.25
668.649	1150.83
668.844	1071.97
669.04	1139.2
669.235	1101.03
669.43	1062.48
669.626	1049.3
669.821	1089.41
670.016	1046.01
670.211	1091.93
670.407	1049.69
670.602	1075.85
670.797	1065.38
670.992	1135.91
671.187	1031.87
671.382	1087.86
671.578	1051.82
671.773	1064.22
671.968	1006.87
672.163	1068.48
672.358	1079.33
672.553	1011.72
672.748	1028.38
672.943	1125.06
673.138	1050.47
673.333	1073.13
673.528	990.98
673.723	1083.21
673.918	1067.51
674.113	1012.1
674.308	1112.66
674.503	1076.04
674.698	1115.76
674.892	1052.79
675.087	1089.02
675.282	1061.12
675.477	1021.98
675.672	1084.56
675.867	1027.99
676.061	994.47
676.256	956.69
676.451	1021.79
676.646	1045.82
676.84	990.21
677.035	969.29
677.23	980.72
677.424	1055.89
677.619	1063.45
677.814	1065.58
678.008	1057.63
678.203	990.98
678.397	980.13
678.592	1043.88
678.787	1072.16
678.981	997.96
679.176	1020.43
679.37	1046.4
679.565	983.04
679.759	1018.11
679.954	1056.47
680.148	1098.71
680.342	1064.41
680.537	1027.6
680.731	1016.75
680.926	1052.21
681.12	1058.02
681.314	959.6
681.509	999.32
681.703	1024.31
681.897	1060.54
682.092	1000.87
682.286	993.7
682.48	1096.96
682.674	1051.82
682.869	1004.55
683.063	1007.26
683.257	1081.85
683.451	988.27
683.645	1021.98
683.839	1002.61
684.034	998.15
684.228	1024.89
684.422	952.24
684.616	942.55
684.81	1017.72
685.004	1001.06
685.198	1014.23
685.392	1015.01
685.586	954.56
685.78	1009.97
685.974	1002.8
686.168	1000.28
686.362	1066.74
686.556	964.05
686.75	930.73
686.944	903.41
687.138	922.98
687.331	847.61
687.525	854.59
687.719	782.32
687.913	853.23
688.107	848
688.301	817.77
688.494	879.39
688.688	827.66
688.882	804.6
689.076	793.36
689.269	838.12
689.463	945.45
689.657	847.42
689.85	867.96
690.044	868.34
690.238	903.02
690.431	878.03
690.625	882.1
690.818	933.44
691.012	927.82
691.205	947.2
691.399	929.18
691.593	957.27
691.786	983.04
691.98	1004.35
692.173	1003.38
692.366	1019.47
692.56	996.41
692.753	1072.36
692.947	952.24
693.14	1057.05
693.333	1065.96
693.527	973.35
693.72	1042.52
693.914	989.05
694.107	1000.48
694.3	1028.77
694.493	997.96
694.687	1056.67
694.88	1031.28
695.073	1082.05
695.266	1061.9
695.46	1053.95
695.653	1100.84
695.846	1080.69
696.039	1002.22
696.232	1050.08
696.425	1126.41
696.618	1083.79
696.812	1104.13
697.005	1181.44
697.198	1242.47
697.391	1178.53
697.584	1187.44
697.777	1267.27
697.97	1202.56
698.163	1219.99
698.356	1181.44
698.549	1299.04
698.742	1256.22
698.935	1219.03
699.127	1210.31
699.32	1193.84
699.513	1234.33
699.706	1239.76
699.899	1282.77
700.092	1240.14
700.285	1255.64
700.477	1200.04
700.67	1299.24
700.863	1307.57
701.056	1374.99
701.248	1362.01
701.441	1386.62
701.634	1337.21
701.826	1435.83
702.019	1354.26
702.212	1400.37
702.404	1352.71
702.597	1356.78
702.79	1368.6
702.982	1450.55
703.175	1443
703.367	1481.75
703.56	1457.33
703.752	1562.54
703.945	1529.8
704.137	1503.25
704.33	1550.72
704.522	1574.75
704.715	1585.01
704.907	1607.1
705.1	1641.39
705.292	1628.41
705.484	1608.46
705.677	1649.92
705.869	1688.09
706.061	1727.61
706.254	1744.27
706.446	1693.71
706.638	1700.49
706.831	1807.05
707.023	1751.44
707.215	1881.45
707.407	1903.15
707.599	1823.9
707.792	1899.66
707.984	1863.23
708.176	1920.39
708.368	1874.47
708.56	1936.86
708.752	1918.07
708.944	1887.07
709.136	1967.47
709.329	1918.45
709.521	2063.76
709.713	2017.85
709.905	2059.11
710.097	2080.43
710.289	2008.55
710.481	2082.94
710.672	2072.09
710.864	2119.56
711.056	2159.47
711.248	2140.49
711.44	2173.42
711.632	2171.1
711.824	2187.37
712.016	2255.19
712.207	2247.82
712.399	2222.25
712.591	2324.16
712.783	2299.75
712.975	2335.78
713.166	2265.45
713.358	2310.6
713.55	2369.11
713.741	2400.5
713.933	2403.21
714.125	2398.95
714.316	2356.71
714.508	2460.95
714.7	2521.2
714.891	2475.09
715.083	2565.76
715.274	2501.83
715.466	2551.81
715.657	2569.44
715.849	2470.24
716.04	2543.48
716.232	2469.08
716.423	2572.54
716.615	2504.73
716.806	2429.56
716.998	2438.08
717.189	2372.21
717.381	2310.02
717.572	2290.06
717.763	2258.29
717.955	2275.14
718.146	2240.85
718.337	2170.71
718.528	2190.09
718.72	2107.94
718.911	2187.96
719.102	2103.87
719.293	2189.12
719.485	2209.07
719.676	2159.09
719.867	2130.99
720.058	2130.99
720.249	2142.23
720.44	2167.61
720.632	2245.89
720.823	2270.69
721.014	2382.67
721.205	2438.47
721.396	2503.18
721.587	2654.89
721.778	2663.6
721.969	2708.55
722.16	2734.13
722.351	2777.92
722.542	2907.73
722.733	2890.48
722.924	2854.25
723.115	2908.31
723.305	2871.5
723.496	2936.59
723.687	2781.21
723.878	2774.62
724.069	2797.68
724.26	2845.15
724.45	2730.45
724.641	2728.9
724.832	2792.83
725.023	2750.98
725.213	2784.5
725.404	2759.32
725.595	2796.9
725.785	2738.2
725.976	2834.49
726.167	2856.58
726.357	2820.35
726.548	2982.13
726.739	2870.14
726.929	2970.31
727.12	3006.54
727.31	3010.22
727.501	2939.89
727.691	2979.22
727.882	2992.97
728.072	3048
728.263	3003.24
728.453	3081.32
728.644	3137.12
728.834	3098.18
729.024	3050.32
729.215	3101.47
729.405	3090.43
729.596	3147.39
729.786	3192.34
729.976	3202.42
730.167	3239.42
730.357	3207.26
730.547	3223.53
730.737	3255.7
730.928	3292.12
731.118	3351.79
731.308	3270.03
731.498	3295.03
731.688	3431.42
731.879	3391.51
732.069	3463.59
732.259	3500.59
732.449	3519.97
732.639	3631.57
732.829	3683.1
733.019	3677.68
733.209	3717.2
733.399	3747.81
733.589	3816.01
733.779	3851.86
733.969	3878.59
734.159	3921.02
734.349	3956.09
734.539	3994.84
734.729	3992.52
734.919	4076.41
735.109	4103.15
735.299	3976.44
735.488	4090.36
735.678	4081.64
735.868	4077.77
736.058	4098.69
736.248	4046.18
736.437	3984.77
736.627	3998.72
736.817	4185.88
737.007	4112.45
737.196	4135.7
737.386	4101.6
737.576	4138.8
737.765	4226.76
737.955	4182.78
738.144	4311.42
738.334	4233.73
738.524	4196.15
738.713	4209.71
738.903	4218.04
739.092	4269.58
739.282	4224.24
739.471	4313.75
739.661	4235.28
739.85	4314.52
740.04	4300.19
740.229	4336.61
740.419	4400.94
740.608	4375.94
740.797	4335.64
740.987	4419.54
741.176	4394.35
741.365	4368
741.555	4267.25
741.744	4403.07
741.933	4429.8
742.123	4427.67
742.312	4407.52
742.501	4468.55
742.69	4446.27
742.88	4312.59
743.069	4544.31
743.258	4453.25
743.447	4535.78
743.636	4516.6
743.825	4500.13
744.014	4487.93
744.204	4552.25
744.393	4486.18
744.582	4570.08
744.771	4641.18
744.96	4569.5
745.149	4567.75
745.338	4548.18
745.527	4611.73
745.716	4616.96
745.905	4535.78
746.094	4588.87
746.283	4621.23
746.471	4607.47
746.66	4679.74
746.849	4656.88
747.038	4688.26
747.227	4599.33
747.416	4679.35
747.604	4552.25
747.793	4607.86
747.982	4598.36
748.171	4671.79
748.359	4640.99
748.548	4666.18
748.737	4609.99
748.926	4668.31
749.114	4505.75
749.303	4615.41
749.491	4611.15
749.68	4515.83
749.869	4623.94
750.057	4558.07
750.246	4515.83
750.434	4584.03
750.623	4527.84
750.811	4542.76
751	4616.58
751.188	4547.02
751.377	4569.5
751.565	4598.36
751.754	4531.33
751.942	4500.33
752.131	4599.14
752.319	4494.32
752.507	4468.36
752.696	4539.47
752.884	4542.37
753.072	4528.81
753.261	4578.6
753.449	4540.24
753.637	4492.38
753.825	4602.63
754.014	4509.24
754.202	4510.02
754.39	4565.04
754.578	4577.83
754.766	4475.92
754.955	4462.16
755.143	4559.61
755.331	4524.55
755.519	4532.1
755.707	4531.72
755.895	4515.25
756.083	4472.23
756.271	4384.85
756.459	4436.97
756.647	4488.9
756.835	4402.29
757.023	4391.05
757.211	4405.39
757.399	4431.74
757.587	4392.8
757.775	4386.79
757.963	4372.84
758.151	4383.31
758.339	4343.97
758.526	4321.69
758.714	4343.78
758.902	4219.01
759.09	4145.19
759.278	3972.95
759.465	3801.09
759.653	3339.2
759.841	3101.86
760.028	2704.68
760.216	2350.7
760.404	2254.02
760.591	1925.43
760.779	1718.51
760.967	1520.88
761.154	1335.47
761.342	1392.82
761.529	1382.16
761.717	1465.67
761.905	1496.86
762.092	1603.81
762.28	1537.74
762.467	1610.98
762.655	1550.33
762.842	1577.85
763.029	1624.93
763.217	1616.4
763.404	1647.98
763.592	1692.74
763.779	1689.44
763.966	1732.84
764.154	1778.76
764.341	1865.37
764.528	1825.07
764.716	1949.45
764.903	1953.13
765.09	2051.75
765.277	2130.99
765.465	2241.82
765.652	2342.37
765.839	2428.01
766.026	2573.9
766.213	2604.32
766.4	2703.13
766.588	2915.67
766.775	2903.08
766.962	3027.66
767.149	3048.39
767.336	3298.13
767.523	3220.82
767.71	3339.39
767.897	3451.57
768.084	3512.6
768.271	3561.43
768.458	3630.79
768.645	3709.84
768.832	3680.58
769.019	3720.88
769.206	3761.38
769.392	3802.26
769.579	3927.61
769.766	3856.7
769.953	3818.53
770.14	3897.77
770.327	3855.54
770.513	3915.99
770.7	3972.17
770.887	3869.49
771.073	3899.91
771.26	3928.19
771.447	3890.22
771.634	3851.86
771.82	3975.27
772.007	3850.89
772.193	3922.19
772.38	3936.91
772.567	3910.37
772.753	3907.46
772.94	3940.59
773.126	3919.67
773.313	3943.11
773.499	3933.42
773.686	3940.98
773.872	3871.42
774.059	3903.2
774.245	3847.79
774.432	3871.81
774.618	3748.78
774.804	3825.7
774.991	3790.05
775.177	3878.98
775.363	3823.18
775.55	3854.96
775.736	3802.06
775.922	3827.06
776.109	3791.41
776.295	3808.84
776.481	3831.13
776.667	3849.53
776.853	3754.4
777.04	3766.61
777.226	3765.25
777.412	3839.65
777.598	3767.38
777.784	3799.35
777.97	3741.23
778.156	3756.73
778.342	3727.86
778.528	3762.54
778.715	3650.75
778.901	3656.75
779.087	3734.64
779.272	3647.45
779.458	3678.26
779.644	3727.86
779.83	3642.61
780.016	3752.85
780.202	3676.52
780.388	3617.42
780.574	3592.24
780.76	3625.37
780.946	3684.46
781.131	3677.48
781.317	3599.21
781.503	3552.9
781.689	3601.34
781.874	3758.66
782.06	3554.84
782.246	3610.45
782.432	3594.95
782.617	3638.93
782.803	3635.63
782.989	3543.41
783.174	3538.95
783.36	3514.74
783.545	3512.8
783.731	3537.6
783.916	3460.1
784.102	3504.27
784.288	3448.86
784.473	3480.06
784.659	3476.76
784.844	3537.02
785.029	3440.92
785.215	3425.42
785.4	3408.56
785.586	3501.56
785.771	3388.03
785.956	3441.11
786.142	3404.88
786.327	3386.48
786.512	3389.58
786.698	3372.72
786.883	3287.86
787.068	3320.8
787.254	3391.32
787.439	3302.58
787.624	3350.24
787.809	3299.29
787.994	3260.73
788.18	3376.59
788.365	3255.7
788.55	3272.55
788.735	3296.77
788.92	3296.19
789.105	3249.11
789.29	3295.41
789.475	3230.7
789.66	3240
789.845	3172.97
790.03	3144.49
790.215	3228.77
790.4	3274.68
790.585	3320.02
790.77	3180.91
790.955	3140.42
791.14	3176.45
791.325	3272.36
791.51	3096.05
791.695	3216.56
791.879	3175.68
792.064	3120.46
792.249	3264.22
792.434	3152.82
792.618	3139.25
792.803	3216.17
792.988	3160.18
793.173	3212.49
793.357	3204.35
793.542	3104.96
793.727	3112.52
793.911	3177.81
794.096	3103.6
794.281	3217.72
794.465	3266.35
794.65	3118.52
794.834	3204.35
795.019	3205.52
795.203	3240.39
795.388	3259.57
795.572	3265.58
795.757	3271.39
795.941	3208.23
796.126	3268.1
796.31	3120.46
796.494	3206.1
796.679	3179.94
796.863	3157.66
797.048	3291.73
797.232	3188.27
797.416	3273.71
797.601	3192.73
797.785	3280.88
797.969	3303.16
798.153	3229.15
798.338	3302.39
798.522	3291.93
798.706	3277.98
798.89	3286.11
799.074	3383.18
799.258	3319.83
799.443	3263.25
799.627	3256.86
799.811	3296.38
799.995	3196.99
800.179	3222.57
800.363	3260.93
800.547	3260.15
800.731	3279.14
800.915	3241.36
801.099	3187.11
801.283	3221.79
801.467	3240.39
801.651	3211.72
801.835	3283.6
802.019	3236.32
802.202	3251.43
802.386	3202.42
802.57	3194.86
802.754	3189.05
802.938	3178.2
803.121	3174.13
803.305	3243.68
803.489	3187.11
803.673	3224.7
803.856	3197.77
804.04	3223.92
804.224	3249.69
804.407	3190.4
804.591	3159.99
804.775	3225.86
804.958	3207.84
805.142	3333.39
805.326	3182.85
805.509	3236.52
805.693	3267.9
805.876	3252.01
806.06	3207.45
806.243	3227.22
806.427	3284.18
806.61	3298.71
806.794	3212.3
806.977	3277.2
807.16	3229.54
807.344	3225.86
807.527	3234.38
807.71	3228.38
807.894	3252.01
808.077	3253.76
808.26	3171.8
808.444	3144.1
808.627	3250.66
808.81	3159.02
808.993	3088.69
809.177	3125.69
809.36	3124.34
809.543	3110.39
809.726	3062.34
809.909	3031.14
810.092	2985.61
810.276	3060.01
810.459	3042.19
810.642	3034.24
810.825	3018.36
811.008	2994.91
811.191	2876.15
811.374	2950.35
811.557	2956.36
811.74	3002.66
811.923	2909.86
812.106	2932.91
812.289	2854.64
812.472	2884.67
812.654	2857.74
812.837	2828.29
813.02	2802.33
813.203	2774.62
813.386	2621.17
813.569	2639.58
813.751	2561.5
813.934	2641.32
814.117	2580.68
814.3	2575.64
814.482	2486.33
814.665	2471.6
814.848	2380.93
815.03	2344.7
815.213	2382.28
815.396	2327.84
815.578	2279.02
815.761	2273.59
815.943	2360.39
816.126	2215.08
816.309	2233.1
816.491	2120.34
816.674	2072.29
816.856	2117.24
817.039	2110.07
817.221	2193.77
817.403	2146.88
817.586	2139.32
817.768	2191.25
817.951	2101.74
818.133	2036.25
818.315	2094.96
818.498	2139.32
818.68	2187.18
818.862	2167.81
819.045	2192.22
819.227	2157.73
819.409	2160.25
819.591	2204.23
819.774	2123.24
819.956	2091.28
820.138	2225.74
820.32	2204.23
820.502	2251.89
820.684	2306.53
820.866	2300.91
821.048	2336.37
821.231	2384.8
821.413	2363.49
821.595	2340.24
821.777	2371.63
821.959	2313.89
822.141	2376.86
822.323	2248.79
822.505	2218.76
822.686	2130.22
822.868	2081.2
823.05	1963.6
823.232	1927.75
823.414	1827.2
823.596	1927.37
823.778	1860.72
823.96	1923.49
824.141	1926.78
824.323	2011.84
824.505	2027.14
824.687	2098.83
824.868	2136.81
825.05	2242.4
825.232	2252.86
825.413	2355.74
825.595	2298.58
825.777	2221.86
825.958	2251.7
826.14	2290.25
826.321	2299.75
826.503	2259.64
826.685	2291.42
826.866	2320.48
827.048	2321.64
827.229	2229.8
827.411	2205.78
827.592	2193.77
827.773	2140.1
827.955	2074.42
828.136	2087.21
828.318	2054.46
828.499	2089.53
828.68	2021.91
828.862	2072.09
829.043	2080.23
829.224	2051.56
829.406	2064.54
829.587	2024.24
829.768	2064.93
829.949	2045.74
830.131	2069.77
830.312	2139.71
830.493	2060.47
830.674	2060.28
830.855	2044.97
831.036	2077.71
831.218	2110.26
831.399	2155.99
831.58	2078.88
831.761	2103.87
831.942	2105.23
832.123	2045.94
832.304	2000.6
832.485	2037.41
832.666	2033.73
832.847	2070.16
833.028	2010.29
833.209	2066.28
833.389	2032.96
833.57	1946.93
833.751	2022.5
833.932	2071.71
834.113	2024.05
834.294	1972.7
834.475	2076.16
834.655	2106.19
834.836	2087.98
835.017	2091.47
835.198	2005.25
835.378	2044.97
835.559	2069.19
835.74	2051.94
835.92	2062.21
836.101	2030.05
836.281	2084.49
836.462	2100.96
836.643	2122.47
836.823	2101.54
837.004	2118.01
837.184	2155.99
837.365	2155.21
837.545	2116.27
837.726	2069.58
837.906	2169.55
838.087	2105.61
838.267	2104.26
838.448	2062.02
838.628	2111.43
838.808	2080.62
838.989	2143.01
839.169	2034.12
839.349	2104.84
839.53	2137.58
839.71	2134.87
839.89	2060.86
840.07	2142.42
840.251	2068.41
840.431	2103.68
840.611	2060.47
840.791	2043.23
840.971	2087.01
841.151	2056.59
841.332	2046.91
841.512	2074.81
841.692	2007.96
841.872	2088.18
842.052	2054.66
842.232	2050.39
842.412	1984.13
842.592	1978.51
842.772	2040.13
842.952	2048.26
843.132	2006.22
843.312	2000.41
843.492	2019.2
843.672	2064.54
843.851	1961.66
844.031	1999.63
844.211	1995.37
844.391	1966.31
844.571	2058.53
844.751	2026.56
844.93	1974.64
845.11	1961.85
845.29	1986.85
845.47	2055.43
845.649	1977.93
845.829	2028.31
846.009	1951.39
846.188	2003.12
846.368	1988.4
846.547	1963.21
846.727	2038.77
846.907	1929.11
847.086	1939.18
847.266	1982.97
847.445	1940.54
847.625	1917.48
847.804	1937.05
847.984	1958.17
848.163	1931.82
848.343	1896.75
848.522	1928.92
848.701	1906.25
848.881	1906.25
849.06	1931.43
849.239	1926.78
849.419	1919.42
849.598	1835.34
849.777	1856.07
849.957	1870.98
850.136	1750.67
850.315	1733.23
850.494	1750.86
850.674	1754.54
850.853	1852.58
851.032	1796.39
851.211	1845.22
851.39	1803.17
851.569	1754.93
851.748	1750.86
851.927	1826.04
852.107	1800.27
852.286	1787.48
852.465	1756.29
852.644	1829.72
852.823	1814.8
853.002	1777.21
853.181	1782.05
853.359	1809.95
853.538	1707.27
853.717	1779.54
853.896	1692.54
854.075	1602.06
854.254	1592.18
854.433	1477.1
854.611	1572.03
854.79	1477.1
854.969	1573.39
855.148	1551.5
855.327	1548.2
855.505	1616.21
855.684	1553.63
855.863	1632.09
856.041	1594.89
856.22	1655.54
856.399	1600.71
856.577	1724.32
856.756	1692.35
856.934	1815.38
857.113	1802.98
857.291	1726.45
857.47	1678.4
857.648	1747.37
857.827	1751.44
858.005	1759.77
858.184	1686.15
858.362	1790.97
858.541	1672.98
858.719	1720.44
858.898	1672.2
859.076	1690.22
859.254	1743.5
859.433	1675.69
859.611	1645.08
859.789	1632.68
859.967	1734.78
860.146	1717.73
860.324	1618.53
860.502	1659.22
860.68	1604.19
860.859	1653.41
861.037	1614.27
861.215	1661.16
861.393	1672.98
861.571	1625.31
861.749	1587.34
861.927	1669.29
862.105	1658.44
862.283	1616.59
862.461	1596.83
862.639	1572.61
862.817	1602.45
862.995	1648.56
863.173	1552.08
863.351	1598.38
863.529	1623.38
863.707	1650.31
863.885	1589.66
864.063	1533.86
864.241	1563.31
864.418	1606.13
864.596	1568.93
864.774	1525.92
864.952	1586.37
865.129	1565.83
865.307	1543.94
865.485	1476.13
865.663	1574.55
865.84	1489.69
866.018	1507.9
866.196	1356.39
866.373	1388.36
866.551	1360.65
866.728	1292.07
866.906	1328.49
867.084	1327.14
867.261	1425.37
867.439	1442.61
867.616	1446.29
867.794	1416.84
867.971	1428.66
868.149	1455.98
868.326	1498.99
868.503	1487.37
868.681	1453.65
868.858	1429.82
869.035	1425.95
869.213	1455.59
869.39	1427.69
869.567	1507.51
869.745	1426.72
869.922	1465.47
870.099	1474.77
870.276	1486.59
870.454	1463.53
870.631	1450.36
870.808	1427.3
870.985	1495.12
871.162	1513.52
871.339	1445.13
871.517	1415.68
871.694	1384.1
871.871	1434.86
872.048	1457.33
872.225	1419.36
872.402	1436.99
872.579	1367.05
872.756	1409.09
872.933	1359.1
873.11	1384.1
873.287	1391.65
873.463	1360.65
873.64	1378.48
873.817	1395.53
873.994	1379.25
874.171	1354.45
874.348	1387.97
874.524	1290.32
874.701	1351.94
874.878	1276.18
875.055	1365.11
875.231	1333.34
875.408	1343.02
875.585	1270.17
875.762	1326.94
875.938	1304.47
876.115	1296.14
876.291	1306.79
876.468	1336.44
876.645	1306.02
876.821	1282.96
876.998	1307.37
877.174	1296.52
877.351	1303.5
877.527	1254.48
877.704	1324.81
877.88	1313.96
878.057	1286.45
878.233	1331.59
878.409	1268.04
878.586	1297.11
878.762	1276.96
878.938	1259.32
879.115	1201.2
879.291	1283.16
879.467	1203.14
879.644	1207.21
879.82	1283.54
879.996	1257
880.172	1183.38
880.349	1248.28
880.525	1286.64
880.701	1202.17
880.877	1211.28
881.053	1226.58
881.229	1197.71
881.405	1228.13
881.581	1186.09
881.757	1182.6
881.933	1275.41
882.109	1258.36
882.285	1219.99
882.461	1160.71
882.637	1238.79
882.813	1162.26
882.989	1221.93
883.165	1266.3
883.341	1152.38
883.517	1277.34
883.693	1245.76
883.869	1290.32
884.044	1192.87
884.22	1236.08
884.396	1245.18
884.572	1226.97
884.747	1260.29
884.923	1248.09
885.099	1261.07
885.275	1250.22
885.45	1192.48
885.626	1181.44
885.801	1222.13
885.977	1213.79
886.153	1138.23
886.328	1241.89
886.504	1174.27
886.679	1235.69
886.855	1190.35
887.03	1213.99
887.206	1259.52
887.381	1216.7
887.557	1183.38
887.732	1238.01
887.908	1224.84
888.083	1255.06
888.258	1192.48
888.434	1228.71
888.609	1210.69
888.784	1255.64
888.96	1216.7
889.135	1198.88
889.31	1188.61
889.485	1210.69
889.661	1201.39
889.836	1271.72
890.011	1226.58
890.186	1223.68
890.361	1157.03
890.537	1214.57
890.712	1230.65
890.887	1244.41
891.062	1197.13
891.237	1267.85
891.412	1154.7
891.587	1213.41
891.762	1242.66
891.937	1237.24
892.112	1173.88
892.287	1185.7
892.462	1164.97
892.637	1139.98
892.812	1129.13
892.987	1126.22
893.161	1100.84
893.336	1137.85
893.511	1133.2
893.686	1135.91
893.861	1143.08
894.035	1129.71
894.21	1122.93
894.385	1053.57
894.56	1108.59
894.734	1037.48
894.909	1062.48
895.084	1080.3
895.258	1056.47
895.433	1068.68
895.608	1034.19
895.782	972.97
895.957	1010.17
896.131	984.2
896.306	884.81
896.48	908.84
896.655	936.15
896.829	841.61
897.004	855.56
897.178	868.54
897.353	880.36
897.527	928.6
897.701	898.76
897.876	831.92
898.05	915.42
898.224	896.63
898.399	950.69
898.573	867.37
898.747	760.62
898.921	795.11
899.096	717.99
899.27	745.89
899.444	732.72
899.618	779.03
899.792	792.01
899.967	755.58
900.141	809.25
900.315	732.91
900.489	784.64
900.663	778.25
900.837	760.04
901.011	722.84
901.185	848.19
901.359	753.06
901.533	769.53
901.707	814.87
901.881	771.47
902.055	718.96
902.229	749.19
902.403	810.61
902.576	765.27
902.75	790.65
902.924	884.04
903.098	840.44
903.272	895.85
903.446	929.37
903.619	876.48
903.793	924.53
903.967	926.47
904.14	966.57
904.314	937.7
904.488	902.44
904.661	949.72
904.835	953.4
905.009	1010.36
905.182	993.5
905.356	950.69
905.529	925.3
905.703	888.3
905.876	899.54
906.05	870.09
906.223	864.86
906.397	804.21
906.57	790.07
906.744	782.9
906.917	786.58
907.09	801.5
907.264	774.96
907.437	747.44
907.61	714.12
907.784	705.79
907.957	711.6
908.13	700.56
908.304	736.98
908.477	675.56
908.65	716.64
908.823	668.98
908.996	716.06
909.17	673.82
909.343	680.21
909.516	693.78
909.689	674.6
909.862	684.86
910.035	677.11
910.208	639.72
910.381	654.64
910.554	746.09
910.727	668.59
910.9	675.95
911.073	664.33
911.246	725.74
911.419	734.85
911.592	705.4
911.765	672.85
911.938	656.38
912.11	698.04
912.283	664.13
912.456	736.01
912.629	693.39
912.802	625.19
912.974	623.64
913.147	594
913.32	519.4
913.493	548.66
913.665	614.15
913.838	618.02
914.01	581.6
914.183	607.17
914.356	588.96
914.528	639.91
914.701	687
914.873	655.61
915.046	593.8
915.218	578.11
915.391	497.51
915.563	529.09
915.736	579.08
915.908	604.85
916.081	577.92
916.253	567.84
916.425	630.42
916.598	596.13
916.77	600.2
916.942	566.68
917.115	497.12
917.287	588.38
917.459	541.3
917.632	507.39
917.804	472.71
917.976	551.76
918.148	544.78
918.32	575.59
918.493	614.15
918.665	658.32
918.837	587.41
919.009	673.43
919.181	663.36
919.353	590.9
919.525	613.18
919.697	595.55
919.869	618.41
920.041	663.36
920.213	734.66
920.385	642.82
920.557	622.48
920.729	633.33
920.901	629.06
921.073	607.75
921.244	595.74
921.416	629.45
921.588	593.42
921.76	585.47
921.932	690.68
922.103	583.73
922.275	587.8
922.447	595.16
922.619	526.77
922.79	570.36
922.962	563
923.134	591.28
923.305	512.82
923.477	518.44
923.648	538.59
923.82	538
923.991	482.01
924.163	479.3
924.335	525.22
924.506	488.79
924.677	572.88
924.849	516.89
925.02	539.75
925.192	592.83
925.363	535.1
925.535	558.15
925.706	512.24
925.877	588.57
926.049	525.8
926.22	534.13
926.391	552.92
926.562	554.08
926.734	506.42
926.905	581.4
927.076	447.33
927.247	494.02
927.419	441.71
927.59	426.21
927.761	442.49
927.932	412.65
928.103	457.21
928.274	396.96
928.445	386.11
928.616	406.64
928.787	398.89
928.958	442.29
929.129	407.61
929.3	392.31
929.471	336.31
929.642	294.85
929.813	264.43
929.984	362.47
930.155	246.8
930.326	327.4
930.496	279.54
930.667	228.4
930.838	275.28
931.009	217.74
931.18	235.37
931.35	248.16
931.521	242.93
931.692	194.1
931.863	104.98
932.033	202.82
932.204	209.8
932.374	173.76
932.545	146.83
932.716	217.74
932.886	193.13
933.057	95.68
933.227	141.21
933.398	211.93
933.568	84.83
933.739	73.4
933.909	99.17
934.08	124.55
934.25	47.24
934.421	90.06
934.591	117.18
934.761	88.9
934.932	42.98
935.102	106.92
935.272	82.5
935.443	87.74
935.613	84.64
935.783	117.18
935.953	87.35
936.123	249.71
936.294	48.6
936.464	74.95
936.634	87.54
936.804	54.22
936.974	28.06
937.144	117.18
937.314	70.49
937.484	65.45
937.655	33.29
937.825	133.85
937.995	75.72
938.165	125.32
938.334	90.25
938.504	106.72
938.674	104.4
938.844	109.05
939.014	171.43
939.184	156.71
939.354	220.65
939.524	196.23
939.694	173.95
939.863	131.72
940.033	210.38
940.203	206.5
940.373	170.27
940.542	195.07
940.712	160.78
940.882	184.61
941.051	208.05
941.221	189.65
941.391	184.61
941.56	154
941.73	105.17
941.899	257.46
942.069	159.42
942.238	179.38
942.408	122.8
942.577	168.33
942.747	139.47
942.916	89.87
943.086	100.33
943.255	172.02
943.425	130.75
943.594	92
943.763	46.27
943.933	72.43
944.102	50.92
944.271	107.88
944.441	117.38
944.61	93.35
944.779	121.45
944.948	208.25
945.117	87.93
945.287	114.08
945.456	40.27
945.625	49.18
945.794	138.3
945.963	81.54
946.132	138.11
946.301	114.67
946.47	135.98
946.639	65.07
946.808	83.86
946.977	116.6
947.146	160.97
947.315	94.71
947.484	158.26
947.653	143.15
947.822	89.09
947.991	73.2
948.16	197.98
948.329	127.65
948.498	131.72
948.666	116.41
948.835	149.93
949.004	96.45
949.173	78.82
949.341	139.47
949.51	129.58
949.679	150.12
949.847	129.58
950.016	215.03
950.185	157.48
950.353	116.02
950.522	94.71
950.69	171.24
950.859	128.03
951.028	161.55
951.196	150.12
951.365	114.67
951.533	109.82
951.701	134.23
951.87	166.4
952.038	80.76
952.207	128.23
952.375	169.5
952.543	105.95
952.712	126.68
952.88	94.13
953.048	179.77
953.217	125.71
953.385	100.72
953.553	172.6
953.721	68.36
953.89	142.95
954.058	45.3
954.226	88.9
954.394	131.52
954.562	63.52
954.73	100.52
954.898	83.47
955.067	133.07
955.235	107.5
955.403	165.43
955.571	175.7
955.739	139.08
955.907	73.79
956.075	83.28
956.243	89.87
956.41	153.03
956.578	43.56
956.746	57.9
956.914	119.12
957.082	110.79
957.25	139.27
957.418	72.43
957.585	127.07
957.753	143.53
957.921	76.69
958.089	79.99
958.256	107.3
958.424	103.82
958.592	125.13
958.759	91.61
958.927	120.48
959.095	92.77
959.262	131.72
959.43	111.37
959.597	59.06
959.765	105.56
959.932	72.04
960.1	168.33
960.267	109.43
960.435	114.86
960.602	168.72
960.77	89.29
960.937	74.75
961.104	110.98
961.272	62.35
961.439	75.53
961.606	149.15
961.774	156.32
961.941	96.26
962.108	135.98
962.275	114.47
962.443	150.9
962.61	147.22
962.777	191.2
962.944	168.72
963.111	108.27
963.278	131.72
963.446	140.43
963.613	135.78
963.78	163.49
963.947	123.19
964.114	119.9
964.281	215.03
964.448	142.95
964.615	117.96
964.782	133.27
964.949	167.95
965.116	161.17
965.282	197.4
965.449	96.26
965.616	92.39
965.783	145.67
965.95	132.1
966.117	86.77
966.283	111.57
966.45	154.58
966.617	135.98
966.784	147.8
966.95	161.75
967.117	146.44
967.284	96.45
967.45	112.34
967.617	164.46
967.784	165.04
967.95	203.4
968.117	153.42
968.283	198.75
968.45	241.38
968.616	160.2
968.783	194.68
968.949	135.01
969.116	188.68
969.282	116.02
969.449	161.75
969.615	148.96
969.781	99.36
969.948	132.1
970.114	102.27
970.28	201.08
970.447	129.97
970.613	203.6
970.779	122.42
970.945	180.35
971.112	156.71
971.278	117.18
971.444	147.22
971.61	191.39
971.776	115.63
971.942	162.72
972.108	166.98
972.275	115.63
972.441	159.03
972.607	232.66
972.773	121.83
972.939	137.92
973.105	123.58
973.271	95.87
973.437	99.17
973.602	117.96
973.768	167.17
973.934	120.67
974.1	135.4
974.266	42.79
974.432	132.88
974.598	108.85
974.763	142.95
974.929	98.2
975.095	199.72
975.261	110.98
975.426	96.84
975.592	144.12
975.758	212.7
975.923	90.25
976.089	99.36
976.255	181.12
976.42	151.87
976.586	159.81
976.751	146.63
976.917	243.31
977.082	127.07
977.248	93.16
977.413	64.68
977.579	106.72
977.744	137.53
977.91	79.79
978.075	118.73
978.24	164.85
978.406	131.52
978.571	104.01
978.736	100.91
978.902	147.41
979.067	91.61
979.232	59.06
979.397	132.3
979.563	193.71
979.728	89.67
979.893	94.32
980.058	100.33
980.223	147.99
980.388	146.44
980.554	111.18
980.719	89.29
980.884	110.4
981.049	159.62
981.214	100.14
981.379	141.21
981.544	115.05
981.709	112.73
981.874	88.9
982.039	103.23
982.204	123.58
982.368	126.29
982.533	80.57
982.698	158.84
982.863	163.88
983.028	87.54
983.193	113.31
983.357	129.78
983.522	130.55
983.687	107.69
983.852	113.7
984.016	115.63
984.181	138.3
984.346	117.96
984.51	148.38
984.675	102.27
984.839	148.38
985.004	123.38
985.168	176.28
985.333	118.73
985.498	104.59
985.662	120.67
985.827	130.94
985.991	125.71
986.155	111.37
986.32	148.38
986.484	165.04
986.649	111.18
986.813	48.6
986.977	120.09
987.142	135.59
987.306	69.52
987.47	72.62
987.634	112.53
987.799	127.45
987.963	120.48
988.127	146.63
988.291	179.77
988.455	106.33
988.62	92
988.784	117.77
988.948	137.72
989.112	89.29
989.276	104.4
989.44	122.22
989.604	70.3
989.768	99.94
989.932	189.07
990.096	78.44
990.26	86.19
990.424	61.39
990.588	102.65
990.752	188.68
990.915	141.4
991.079	79.21
991.243	83.86
991.407	137.72
991.571	93.16
991.734	139.47
991.898	145.28
992.062	205.15
992.226	77.08
992.389	58.48
992.553	25.15
992.717	58.09
992.88	78.82
993.044	83.67
993.207	89.09
993.371	147.02
993.535	100.14
993.698	81.73
993.862	108.66
994.025	129.58
994.189	95.49
994.352	106.72
994.515	106.33
994.679	131.52
994.842	86.96
995.006	124.93
995.169	58.87
995.332	54.41
995.496	124.55
995.659	22.05
995.822	66.62
995.985	94.13
996.149	133.07
996.312	100.33
996.475	148.57
996.638	80.18
996.801	140.24
996.964	147.99
997.128	75.72
997.291	68.17
997.454	94.13
997.617	23.99
997.78	115.25
997.943	55.77
998.106	146.83
998.269	53.83
998.432	72.82
998.595	79.4
998.758	29.22
998.92	36.39
999.083	0.36
999.246	98.39
999.409	31.16
999.572	14.11
999.735	72.62
999.897	105.75
1000.06	59.84
1000.223	76.5
1000.386	107.3
1000.548	103.62
1000.711	88.51
1000.874	91.8
1001.036	4.23
1001.199	114.86
1001.361	47.05
1001.524	80.57
1001.687	91.42
1001.849	74.17
1002.012	107.3
1002.174	98
1002.337	105.56
1002.499	54.22
1002.661	111.18
1002.824	43.56
1002.986	37.36
1003.149	64.87
1003.311	43.95
1003.473	104.01
1003.636	30.97
1003.798	70.88
1003.96	93.35
1004.123	74.75
1004.285	27.48
1004.447	67.39
1004.609	76.11
1004.771	118.15
1004.933	-2.55
1005.096	32.52
1005.258	-9.53
1005.42	39.49
1005.582	97.62
1005.744	86.38
1005.906	17.02
1006.068	82.12
1006.23	10.43
1006.392	0.36
1006.554	17.99
1006.716	117.96
1006.878	65.84
1007.04	35.62
1007.202	54.02
1007.363	66.81
1007.525	74.56
1007.687	68.55
1007.849	91.8
1008.011	7.33
1008.172	20.31
1008.334	49.95
1008.496	85.8
1008.658	5.2
1008.819	36.2
1008.981	-2.16
1009.143	17.02
1009.304	47.44
1009.466	79.79
1009.627	82.89
1009.789	148.38
1009.95	60.8
1010.112	22.64
1010.273	69.52
1010.435	13.53
1010.596	38.52
1010.758	46.08
1010.919	51.7
1011.081	22.25
1011.242	38.52
1011.403	80.37
1011.565	52.09
1011.726	61.77
1011.887	8.88
1012.049	18.76
1012.21	79.02
1012.371	121.83
1012.532	-36.46
1012.693	52.47
1012.855	13.14
1013.016	57.12
1013.177	91.42
1013.338	46.66
1013.499	102.27
1013.66	79.99
1013.821	83.09
1013.982	52.28
1014.143	68.55
1014.304	26.51
1014.465	51.31
1014.626	80.95
1014.787	45.89
1014.948	122.8
1015.109	-25.61
1015.27	108.47
1015.431	17.99
1015.592	5.01
1015.752	97.04
1015.913	61
1016.074	45.5
1016.235	48.99
1016.395	41.62
1016.556	24.96
1016.717	33.87
1016.877	83.86
1017.038	10.62
1017.199	42.79
1017.359	47.63
1017.52	50.73
1017.681	14.11
1017.841	20.5
1018.002	28.84
1018.162	6.56
1018.323	73.98
1018.483	14.5
1018.644	33.29
1018.804	-1
1018.964	14.89
1019.125	-10.49
1019.285	50.54
1019.446	2.68
1019.606	-16.11
1019.766	-19.02
1019.926	61.97
1020.087	29.8
1020.247	-13.98
1020.407	62.35
1020.567	90.25
1020.728	6.94
1020.888	-14.56
1021.048	-26.58
1021.208	-5.84
1021.368	9.27
1021.528	86.96
1021.688	66.04
1021.848	39.49
1022.008	46.47
1022.168	15.85
1022.328	38.52
1022.488	53.05
1022.648	-8.94
1022.808	50.34
1022.968	48.6
1023.128	-18.83
1023.288	0.16
1023.448	29.8
1023.608	54.8
1023.767	41.43
1023.927	3.84
1024.087	27.48
1024.247	-18.63
1024.406	32.32
1024.566	-23.48
1024.726	12.37
1024.885	16.82
1025.045	31.74
1025.205	40.46
1025.364	23.6
1025.524	26.51
1025.683	24.96
1025.843	29.61
1026.003	43.37
1026.162	75.53
1026.321	50.92
1026.481	35.81
1026.64	-4.49
1026.8	30.39
1026.959	24.57
1027.119	39.1
1027.278	12.17
1027.437	-3.91
1027.597	28.84
1027.756	34.45
1027.915	52.86
1028.074	52.09
1028.234	-8.94
1028.393	37.17
1028.552	8.3
1028.711	-54.09
1028.87	61.77
1029.03	-44.79
1029.189	28.25
1029.348	-39.36
1029.507	-7.98
1029.666	27.29
1029.825	-11.27
1029.984	-14.56
1030.143	21.86
1030.302	0.74
1030.461	-31.81
1030.62	39.69
1030.779	52.28
1030.938	-8.36
1031.097	-22.31
1031.255	30.77
1031.414	62.16
1031.573	46.85
1031.732	-21.34
1031.891	5.2
1032.049	63.52
1032.208	43.17
1032.367	-10.69
1032.525	16.24
1032.684	11.4
1032.843	32.52
1033.001	-34.13
1033.16	164.46
1033.319	66.04
1033.477	31.74
1033.636	-25.22
1033.794	-29.87
1033.953	25.35
1034.111	28.25
1034.27	-0.42
1034.428	27.67
1034.587	-5.84
1034.745	18.76
1034.903	6.56
1035.062	49.76
1035.22	-47.89
1035.378	40.27
1035.537	-8.56
1035.695	29.22
1035.853	16.63
1036.011	45.69
1036.17	55.77
1036.328	-62.23
1036.486	31.74
1036.644	15.47
1036.802	-64.94
1036.96	-22.12
1037.119	1.32
1037.277	-2.55
1037.435	-34.71
1037.593	-14.37
1037.751	-15.14
1037.909	25.54
1038.067	25.54
