Data from gum_old_FLMT105791__177__15-48-04-249.txt Node

Date: Mon Mar 20 15:48:04 GMT 2023
User: antho
Spectrometer: FLMT10579
Trigger mode: 0
Integration Time (sec): 1.000000E-1
Scans to average: 10
Electric dark correction enabled: true
Nonlinearity correction enabled: false
Boxcar width: 0
XAxis mode: Wavelengths
Number of Pixels in Spectrum: 3648
>>>>>Begin Spectral Data<<<<<
345.248	-189.48
345.464	-189.48
345.681	-189.48
345.898	-208.67
346.114	-176.89
346.331	-36.81
346.548	52.51
346.764	-5.81
346.981	-22.47
347.197	-16.08
347.414	31
347.631	-17.63
347.847	66.84
348.064	0
348.28	-2.32
348.497	-55.99
348.713	6.78
348.93	26.54
349.146	24.41
349.363	14.72
349.579	26.54
349.796	7.56
350.012	18.21
350.229	31.39
350.445	21.89
350.661	-10.07
350.878	10.66
351.094	49.6
351.311	37.97
351.527	28.48
351.743	0.77
351.96	40.69
352.176	66.65
352.392	49.79
352.609	62.77
352.825	-4.65
353.041	26.93
353.257	36.81
353.474	22.28
353.69	38.94
353.906	46.31
354.122	-12.59
354.339	91.06
354.555	39.33
354.771	13.56
354.987	74.21
355.203	70.14
355.42	10.85
355.636	7.56
355.852	-7.94
356.068	8.14
356.284	-11.24
356.5	67.04
356.716	43.4
356.932	25.77
357.148	56.77
357.364	30.61
357.58	81.76
357.796	96.1
358.012	77.11
358.228	55.99
358.444	-69.75
358.66	76.14
358.876	23.64
359.092	2.91
359.308	51.15
359.524	39.72
359.74	35.07
359.956	-16.08
360.172	40.3
360.388	71.69
360.604	17.24
360.819	119.35
361.035	23.44
361.251	63.74
361.467	10.85
361.683	71.11
361.898	61.81
362.114	75.17
362.33	50.18
362.546	53.67
362.762	44.95
362.977	42.04
363.193	16.66
363.409	71.88
363.624	-15.69
363.84	21.51
364.056	17.24
364.271	59.48
364.487	56.19
364.703	31.58
364.918	30.42
365.134	38.94
365.35	5.04
365.565	156.94
365.781	65.29
365.996	66.26
366.212	111.6
366.427	68.2
366.643	33.32
366.858	33.71
367.074	18.21
367.289	89.12
367.505	176.7
367.72	-24.41
367.936	38.56
368.151	108.69
368.367	103.46
368.582	35.07
368.798	29.84
369.013	103.85
369.228	62.19
369.444	73.24
369.659	117.41
369.874	73.43
370.09	142.4
370.305	-12.59
370.52	17.05
370.736	108.89
370.951	51.15
371.166	88.54
371.381	137.17
371.597	95.32
371.812	32.55
372.027	65.87
372.242	51.15
372.458	139.5
372.673	27.32
372.888	55.61
373.103	84.47
373.318	157.32
373.533	83.89
373.749	58.12
373.964	20.54
374.179	130.2
374.394	8.91
374.609	88.74
374.824	30.03
375.039	102.49
375.254	73.82
375.469	131.55
375.684	57.93
375.899	110.24
376.114	65.87
376.329	75.56
376.544	114.89
376.759	95.71
376.974	52.7
377.189	69.75
377.404	59.09
377.619	99.78
377.834	35.65
378.049	28.87
378.264	16.27
378.478	88.74
378.693	50.37
378.908	77.31
379.123	72.07
379.338	126.71
379.553	99.39
379.767	78.86
379.982	106.37
380.197	93
380.412	75.56
380.626	105.4
380.841	167.98
381.056	89.32
381.271	158.49
381.485	67.04
381.7	53.47
381.915	98.62
382.129	67.23
382.344	62.97
382.559	53.86
382.773	111.6
382.988	18.41
383.202	68.2
383.417	45.53
383.632	162.55
383.846	61.22
384.061	72.07
384.275	53.09
384.49	83.12
384.704	106.37
384.919	72.27
385.133	85.44
385.348	117.99
385.562	45.92
385.777	103.27
385.991	64.32
386.206	54.83
386.42	53.28
386.634	115.28
386.849	87.77
387.063	114.89
387.277	66.84
387.492	85.83
387.706	65.49
387.92	54.64
388.135	123.03
388.349	102.3
388.563	80.21
388.778	95.52
388.992	90.87
389.206	116.05
389.42	181.54
389.635	97.84
389.849	129.42
390.063	155.39
390.277	127.1
390.491	181.73
390.706	142.4
390.92	164.69
391.134	114.7
391.348	165.65
391.562	79.82
391.776	87.19
391.99	105.79
392.205	167.4
392.419	76.53
392.633	109.08
392.847	191.03
393.061	89.51
393.275	184.06
393.489	93
393.703	117.6
393.917	126.52
394.131	82.92
394.345	115.86
394.559	134.65
394.773	108.69
394.986	133.88
395.2	128.65
395.414	168.75
395.628	113.92
395.842	126.71
396.056	125.55
396.27	82.54
396.484	151.51
396.697	133.1
396.911	156.55
397.125	130.78
397.339	128.45
397.553	128.65
397.766	177.67
397.98	148.22
398.194	198.01
398.408	132.72
398.621	175.34
398.835	196.07
399.049	191.23
399.262	232.11
399.476	212.54
399.69	227.65
399.903	270.66
400.117	209.63
400.331	211.38
400.544	192.2
400.758	331.89
400.971	201.11
401.185	251.87
401.398	191.62
401.612	278.61
401.826	241.99
402.039	282.1
402.253	192.97
402.466	261.17
402.68	240.63
402.893	206.53
403.106	235.6
403.32	215.45
403.533	251.87
403.747	239.47
403.96	247.8
404.174	241.99
404.387	194.91
404.6	224.94
404.814	278.8
405.027	230.17
405.24	236.95
405.454	228.43
405.667	281.9
405.88	186.77
406.094	257.3
406.307	264.66
406.52	266.79
406.733	187.74
406.947	179.41
407.16	324.14
407.373	285.58
407.586	227.46
407.799	232.11
408.012	307.67
408.226	232.11
408.439	302.25
408.652	224.17
408.865	293.14
409.078	357.27
409.291	294.88
409.504	248.77
409.717	334.02
409.93	306.51
410.143	272.8
410.357	229.2
410.57	209.05
410.783	232.3
410.996	258.65
411.209	242.38
411.421	307.48
411.634	269.7
411.847	273.18
412.06	312.51
412.273	292.56
412.486	292.75
412.699	384.39
412.912	301.86
413.125	315.03
413.338	312.51
413.55	320.65
413.763	305.35
413.976	312.51
414.189	299.34
414.402	292.56
414.615	374.32
414.827	274.73
415.04	365.21
415.253	328.01
415.466	365.99
415.678	387.49
415.891	298.76
416.104	327.43
416.316	330.34
416.529	301.66
416.742	370.06
416.954	366.18
417.167	309.8
417.38	333.44
417.592	337.51
417.805	291.59
418.017	283.84
418.23	341.19
418.442	309.61
418.655	294.5
418.868	341.77
419.08	392.14
419.293	387.69
419.505	339.25
419.718	326.08
419.93	382.26
420.142	313.68
420.355	398.54
420.567	377.61
420.78	359.4
420.992	342.35
421.205	418.69
421.417	326.66
421.629	343.13
421.842	331.31
422.054	317.94
422.266	411.13
422.479	412.29
422.691	311.55
422.903	391.95
423.115	336.54
423.328	306.7
423.54	343.51
423.752	323.17
423.964	342.35
424.177	380.71
424.389	395.44
424.601	452.21
424.813	398.73
425.025	421.98
425.238	399.12
425.45	394.08
425.662	348.36
425.874	704.08
426.086	357.85
426.298	392.53
426.51	369.09
426.722	358.63
426.934	347.78
427.146	410.36
427.358	328.01
427.57	390.01
427.782	343.51
427.994	343.51
428.206	354.17
428.418	353.59
428.63	424.69
428.842	427.41
429.054	409
429.266	402.03
429.478	360.18
429.69	395.83
429.902	345.26
430.114	392.14
430.325	383.23
430.537	338.67
430.749	340.03
430.961	269.7
431.173	317.55
431.384	330.92
431.596	244.7
431.808	329.95
432.02	394.08
432.231	431.67
432.443	496.96
432.655	456.08
432.867	399.7
433.078	436.32
433.29	511.3
433.502	491.34
433.713	515.37
433.925	467.9
434.136	524.47
434.348	418.88
434.56	398.93
434.771	524.09
434.983	360.56
435.194	433.61
435.406	470.22
435.617	533.97
435.829	536.87
436.04	504.32
436.252	525.25
436.463	566.13
436.675	564.19
436.886	535.32
437.098	557.22
437.309	601
437.521	529.9
437.732	530.67
437.943	503.94
438.155	500.45
438.366	468.09
438.578	581.63
438.789	512.46
439	521.96
439.211	501.42
439.423	480.88
439.634	542.3
439.845	540.36
440.057	553.73
440.268	565.94
440.479	511.69
440.69	537.84
440.902	550.44
441.113	519.44
441.324	510.91
441.535	586.28
441.746	619.99
441.957	516.14
442.168	560.32
442.38	603.52
442.591	611.27
442.802	566.13
443.013	581.44
443.224	588.02
443.435	583.95
443.646	576.2
443.857	594.42
444.068	536.49
444.279	553.92
444.49	655.06
444.701	613.79
444.912	705.63
445.123	673.85
445.334	616.12
445.545	648.67
445.756	610.3
445.967	569.04
446.178	623.28
446.388	636.46
446.599	645.76
446.81	631.62
447.021	591.9
447.232	654.67
447.443	686.64
447.653	601.78
447.864	690.13
448.075	647.12
448.286	682.96
448.496	640.72
448.707	687.61
448.918	634.91
449.129	750.77
449.339	638.78
449.55	680.25
449.761	608.95
449.971	702.14
450.182	643.24
450.393	699.04
450.603	664.36
450.814	712.02
451.024	719
451.235	757.55
451.446	745.73
451.656	771.5
451.867	731.59
452.077	724.61
452.288	801.53
452.498	738.37
452.709	700.59
452.919	743.02
453.13	660.48
453.34	712.41
453.55	621.15
453.761	730.43
453.971	725.39
454.182	756.78
454.392	706.79
454.602	777.9
454.813	731.78
455.023	764.72
455.233	655.06
455.444	696.13
455.654	622.51
455.864	720.93
456.075	697.49
456.285	699.62
456.495	729.26
456.705	735.27
456.916	794.17
457.126	824.01
457.336	737.4
457.546	682.38
457.756	704.85
457.967	806.57
458.177	734.88
458.387	758.13
458.597	720.16
458.807	728.49
459.017	739.73
459.227	690.71
459.437	718.61
459.647	780.22
459.857	750.19
460.068	747.86
460.278	786.23
460.488	773.44
460.698	824.78
460.908	737.79
461.117	689.55
461.327	714.35
461.537	772.66
461.747	793.39
461.957	766.66
462.167	915.46
462.377	831.37
462.587	785.65
462.797	834.47
463.007	836.79
463.216	824.98
463.426	892.98
463.636	871.28
463.846	772.66
464.056	801.14
464.265	821.29
464.475	778.67
464.685	788.36
464.895	824.78
465.104	821.88
465.314	868.57
465.524	791.65
465.733	777.12
465.943	866.83
466.153	897.82
466.362	866.05
466.572	846.68
466.782	813.54
466.991	851.71
467.201	840.86
467.41	752.13
467.62	835.44
467.829	838.73
468.039	856.36
468.249	831.56
468.458	874.57
468.668	854.43
468.877	859.46
469.086	930.18
469.296	928.82
469.505	855.59
469.715	980.94
469.924	903.64
470.134	939.09
470.343	952.66
470.552	875.16
470.762	869.15
470.971	868.57
471.18	865.66
471.39	886.78
471.599	838.93
471.808	945.87
472.018	886.39
472.227	977.65
472.436	984.43
472.645	960.21
472.855	940.84
473.064	1024.73
473.273	1000.51
473.482	986.95
473.691	1020.85
473.901	997.8
474.11	971.84
474.319	1040.42
474.528	993.54
474.737	1082.08
474.946	1051.27
475.155	1039.07
475.364	1104.94
475.573	1078.4
475.783	1066.58
475.992	1085.57
476.201	1087.89
476.41	1069.48
476.619	1018.34
476.828	1038.87
477.037	1056.5
477.245	1049.92
477.454	1125.67
477.663	1077.62
477.872	1120.25
478.081	1175.66
478.29	1087.7
478.499	1238.82
478.708	1180.31
478.917	1242.5
479.125	1154.73
479.334	1176.24
479.543	1147.76
479.752	1181.66
479.961	1184.96
480.169	1249.67
480.378	1211.7
480.587	1357.78
480.796	1269.63
481.004	1248.7
481.213	1268.46
481.422	1218.09
481.63	1281.25
481.839	1315.35
482.048	1326.01
482.256	1284.35
482.465	1320
482.674	1341.51
482.882	1319.42
483.091	1380.26
483.299	1321.36
483.508	1394.4
483.716	1340.34
483.925	1333.17
484.134	1259.55
484.342	1359.91
484.551	1358.36
484.759	1367.08
484.967	1406.8
485.176	1402.34
485.384	1402.92
485.593	1413.39
485.801	1373.86
486.01	1327.94
486.218	1271.37
486.426	1186.51
486.635	1198.71
486.843	1187.28
487.051	1209.76
487.26	1191.55
487.468	1263.43
487.676	1336.66
487.885	1293.07
488.093	1342.47
488.301	1388.39
488.509	1414.94
488.717	1455.04
488.926	1418.81
489.134	1412.42
489.342	1433.92
489.55	1398.08
489.758	1429.66
489.967	1406.41
490.175	1592.99
490.383	1475.77
490.591	1597.83
490.799	1508.71
491.007	1586.21
491.215	1532.73
491.423	1499.6
491.631	1530.22
491.839	1504.45
492.047	1559.86
492.255	1497.47
492.463	1444.58
492.671	1450.78
492.879	1521.5
493.087	1532.73
493.295	1527.31
493.503	1574.97
493.711	1602.1
493.919	1640.46
494.127	1604.03
494.334	1615.27
494.542	1520.92
494.75	1611.98
494.958	1589.89
495.166	1662.35
495.374	1662.54
495.581	1653.05
495.789	1645.69
495.997	1728.03
496.205	1612.95
496.412	1617.4
496.62	1622.25
496.828	1652.47
497.035	1668.74
497.243	1701.68
497.451	1662.35
497.658	1670.29
497.866	1677.66
498.074	1759.22
498.281	1638.33
498.489	1735.2
498.696	1691.41
498.904	1630.19
499.112	1623.02
499.319	1740.43
499.527	1667.58
499.734	1723.96
499.942	1631.55
500.149	1660.41
500.357	1701.88
500.564	1643.75
500.771	1678.04
500.979	1601.51
501.186	1614.3
501.394	1668.16
501.601	1654.41
501.808	1699.16
502.016	1669.13
502.223	1666.23
502.43	1671.65
502.638	1660.8
502.845	1649.76
503.052	1776.86
503.26	1682.89
503.467	1782.09
503.674	1719.12
503.881	1753.99
504.089	1810.96
504.296	1753.99
504.503	1680.18
504.71	1677.27
504.917	1684.83
505.125	1740.43
505.332	1774.92
505.539	1754.19
505.746	1865.79
505.953	1810.18
506.16	1831.11
506.367	1882.84
506.574	1898.92
506.781	1885.35
506.988	1806.11
507.195	1798.56
507.402	1798.56
507.609	1869.08
507.816	1778.21
508.023	1786.16
508.23	1773.56
508.437	1761.74
508.644	1815.22
508.851	1856.1
509.058	1865.59
509.265	1853.39
509.472	1911.32
509.679	1962.47
509.885	1866.56
510.092	1894.46
510.299	1883.03
510.506	1870.05
510.713	1884.97
510.92	1848.35
511.126	1917.71
511.333	1952.58
511.54	1928.95
511.746	1959.56
511.953	1954.91
512.16	1998.89
512.367	1953.17
512.573	1937.08
512.78	1962.85
512.987	1910.54
513.193	1911.12
513.4	1822.77
513.606	1935.92
513.813	1924.49
514.02	1962.47
514.226	1980.1
514.433	1972.35
514.639	1925.27
514.846	1948.71
515.052	1893.69
515.259	1945.42
515.465	1945.03
515.672	1971.57
515.878	2044.23
516.085	2009.93
516.291	2016.13
516.497	1975.06
516.704	1924.1
516.91	1921
517.117	1823.16
517.323	1725.13
517.529	1773.95
517.736	1753.41
517.942	1788.09
518.148	1802.82
518.354	1879.54
518.561	1911.32
518.767	1870.82
518.973	1942.7
519.179	1904.92
519.386	1904.54
519.592	1918.1
519.798	1945.22
520.004	2057.79
520.21	2017.3
520.417	2043.26
520.623	2119.79
520.829	2136.64
521.035	2092.28
521.241	2105.45
521.447	2126.76
521.653	2203.68
521.859	2089.18
522.065	2154.66
522.271	2274.98
522.477	2208.52
522.683	2205.81
522.889	2206.2
523.095	2171.13
523.301	2183.34
523.507	2142.46
523.713	2189.15
523.919	2136.64
524.125	2284.09
524.331	2225.77
524.537	2344.15
524.742	2302.49
524.948	2333.49
525.154	2357.9
525.36	2423.39
525.566	2327.49
525.772	2384.25
525.977	2325.55
526.183	2375.53
526.389	2373.4
526.595	2297.07
526.8	2291.64
527.006	2180.04
527.212	2092.86
527.417	2141.88
527.623	2121.34
527.829	2196.71
528.034	2257.74
528.24	2265.87
528.446	2258.9
528.651	2372.05
528.857	2377.08
529.062	2448.38
529.268	2418.16
529.473	2476.09
529.679	2487.52
529.884	2587.69
530.09	2492.95
530.295	2501.66
530.501	2523.95
530.706	2489.65
530.912	2451.68
531.117	2504.57
531.323	2467.76
531.528	2551.65
531.733	2588.85
531.939	2552.62
532.144	2565.02
532.35	2544.68
532.555	2607.84
532.76	2536.93
532.966	2520.07
533.171	2480.35
533.376	2448.96
533.581	2398.98
533.787	2455.94
533.992	2518.13
534.197	2557.08
534.402	2502.63
534.607	2553.39
534.813	2627.02
535.018	2547.19
535.223	2536.34
535.428	2555.53
535.633	2595.44
535.838	2604.16
536.043	2636.51
536.249	2752.57
536.454	2648.14
536.659	2661.12
536.864	2630.31
537.069	2603.38
537.274	2618.88
537.479	2622.76
537.684	2627.6
537.889	2540.03
538.094	2716.14
538.299	2623.72
538.504	2637.48
538.708	2679.52
538.913	2704.52
539.118	2663.25
539.323	2683.59
539.528	2626.44
539.733	2642.71
539.938	2657.24
540.142	2670.03
540.347	2589.63
540.552	2585.36
540.757	2564.24
540.962	2540.99
541.166	2547.58
541.371	2532.86
541.576	2627.41
541.781	2491.2
541.985	2661.89
542.19	2636.71
542.395	2706.84
542.599	2747.72
542.804	2672.94
543.008	2714.59
543.213	2629.34
543.418	2578.97
543.622	2696.38
543.827	2636.71
544.031	2748.69
544.236	2754.7
544.44	2691.92
544.645	2786.28
544.849	2720.6
545.054	2728.93
545.258	2836.07
545.463	2787.05
545.667	2718.85
545.872	2765.55
546.076	2742.3
546.281	2745.59
546.485	2713.62
546.689	2743.85
546.894	2797.13
547.098	2729.7
547.302	2692.89
547.507	2762.45
547.711	2785.12
547.915	2787.83
548.119	2657.05
548.324	2724.09
548.528	2758.96
548.732	2719.63
548.936	2797.52
549.141	2837.23
549.345	2718.27
549.549	2766.52
549.753	2754.89
549.957	2832.39
550.161	2826
550.366	2795.39
550.57	2744.04
550.774	2755.86
550.978	2765.55
551.182	2773.3
551.386	2734.55
551.59	2797.9
551.794	2742.88
551.998	2749.85
552.202	2774.85
552.406	2742.69
552.61	2808.17
552.814	2819.22
553.018	2837.04
553.222	2761.87
553.426	2717.3
553.63	2829.1
553.833	2750.63
554.037	2646.2
554.241	2793.25
554.445	2742.49
554.649	2795.19
554.853	2718.85
555.056	2799.65
555.26	2854.28
555.464	2808.17
555.668	2801.39
555.871	2815.53
556.075	2803.33
556.279	2786.67
556.483	2738.23
556.686	2733.58
556.89	2749.85
557.094	2764.97
557.297	2668.48
557.501	2756.44
557.704	2598.34
557.908	2724.86
558.112	2632.44
558.315	2764.39
558.519	2669.64
558.722	2642.52
558.926	2674.87
559.129	2581.68
559.333	2560.95
559.536	2561.92
559.74	2571.61
559.943	2521.62
560.147	2527.43
560.35	2576.84
560.553	2545.64
560.757	2502.44
560.96	2674.29
561.164	2603.58
561.367	2695.02
561.57	2630.31
561.774	2657.44
561.977	2582.65
562.18	2591.18
562.384	2694.83
562.587	2557.08
562.79	2582.46
562.993	2522.01
563.197	2598.15
563.4	2643.49
563.603	2657.44
563.806	2745.2
564.009	2590.59
564.212	2603.96
564.416	2506.9
564.619	2590.01
564.822	2532.86
565.025	2615.59
565.228	2536.73
565.431	2581.29
565.634	2465.82
565.837	2507.09
566.04	2475.51
566.243	2479.58
566.446	2373.02
566.649	2472.6
566.852	2420.87
567.055	2428.43
567.258	2446.45
567.461	2553.59
567.664	2556.3
567.867	2382.9
568.07	2466.6
568.273	2497.21
568.475	2542.16
568.678	2442.38
568.881	2431.92
569.084	2420.87
569.287	2285.64
569.489	2384.45
569.692	2423.2
569.895	2428.82
570.098	2353.45
570.3	2319.35
570.503	2275.75
570.706	2333.3
570.909	2337.37
571.111	2279.44
571.314	2236.81
571.516	2301.33
571.719	2295.32
571.922	2230.22
572.124	2272.65
572.327	2321.87
572.529	2232.94
572.732	2292.22
572.935	2302.49
573.137	2390.26
573.34	2302.69
573.542	2379.22
573.745	2311.6
573.947	2305.4
574.15	2281.18
574.352	2249.21
574.554	2329.23
574.757	2247.47
574.959	2218.02
575.162	2288.93
575.364	2217.05
575.566	2311.21
575.769	2198.26
575.971	2226.16
576.173	2089.37
576.376	2233.91
576.578	2231.58
576.78	2253.86
576.982	2114.17
577.185	2194.19
577.387	2134.32
577.589	2196.32
577.791	2197.87
577.993	2187.02
578.196	2159.51
578.398	2166.48
578.6	2202.13
578.802	2078.52
579.004	2123.28
579.206	2088.6
579.408	2135.68
579.61	2073.87
579.812	2197.29
580.014	2096.54
580.216	2103.32
580.418	2149.24
580.62	2118.24
580.822	2065.35
581.024	2169.58
581.226	2156.6
581.428	2112.62
581.63	2222.86
581.832	2073.29
582.034	2174.62
582.236	2141.1
582.438	2144.78
582.64	2192.44
582.841	2171.52
583.043	2253.67
583.245	2166.09
583.447	2192.25
583.649	2159.12
583.85	2170.94
584.052	2170.55
584.254	2058.95
584.456	2160.28
584.657	2074.65
584.859	2125.02
585.061	2110.68
585.262	2106.81
585.464	2041.13
585.666	2053.72
585.867	2068.83
586.069	2101.19
586.27	2056.43
586.472	2088.98
586.674	2026.21
586.875	2000.05
587.077	1993.27
587.278	2102.35
587.48	2020.01
587.681	2160.28
587.883	2098.86
588.084	1981.26
588.285	2022.53
588.487	1968.86
588.688	2049.65
588.89	1958.2
589.091	1891.17
589.292	1898.92
589.494	1871.6
589.695	1777.05
589.896	1763.68
590.098	1734.81
590.299	1786.74
590.5	1746.83
590.702	1823.55
590.903	1859.59
591.104	1910.15
591.305	1933.02
591.507	1969.63
591.708	1930.3
591.909	1891.55
592.11	1997.92
592.311	1949.1
592.512	1892.52
592.714	1800.88
592.915	1877.22
593.116	1848.15
593.317	1868.11
593.518	1880.32
593.719	1902.21
593.92	1959.37
594.121	1934.95
594.322	1873.15
594.523	1896.79
594.724	1865.79
594.925	1874.5
595.126	1889.81
595.327	1904.54
595.528	1910.15
595.729	1900.47
595.929	1878.96
596.13	1887.49
596.331	1920.81
596.532	1890.2
596.733	1974.09
596.934	1926.82
597.135	1957.04
597.335	1940.38
597.536	1876.83
597.737	1922.55
597.938	1847.96
598.138	1914.03
598.339	1922.55
598.54	1899.89
598.74	1889.42
598.941	1883.42
599.142	1932.63
599.342	1951.23
599.543	1884
599.744	1879.74
599.944	1863.07
600.145	1861.72
600.345	1856.49
600.546	1943.48
600.746	1986.88
600.947	1995.6
601.147	1853.58
601.348	1905.12
601.548	1856.29
601.749	1877.41
601.949	1815.02
602.15	1848.35
602.35	1852.03
602.551	1902.6
602.751	1822.77
602.951	1846.8
603.152	1773.76
603.352	1877.41
603.552	1892.33
603.753	1919.84
603.953	1885.35
604.153	1857.45
604.354	1873.73
604.554	1843.5
604.754	1894.46
604.954	1841.18
605.155	1895.62
605.355	1863.07
605.555	1896.79
605.755	1946
605.955	1867.14
606.155	1870.24
606.356	1854.35
606.556	1866.37
606.756	1828.01
606.956	1803.79
607.156	1937.86
607.356	1782.28
607.556	1828.01
607.756	1827.42
607.956	1861.33
608.156	1818.9
608.356	1786.54
608.556	1838.27
608.756	1786.74
608.956	1767.75
609.156	1810.96
609.356	1739.08
609.556	1779.57
609.755	1782.09
609.955	1766.78
610.155	1790.22
610.355	1763.68
610.555	1751.28
610.755	1743.53
610.954	1666.61
611.154	1756.12
611.354	1796.23
611.554	1712.92
611.753	1737.53
611.953	1643.56
612.153	1732.1
612.352	1770.07
612.552	1675.72
612.752	1673.01
612.951	1701.68
613.151	1716.99
613.351	1684.63
613.55	1693.16
613.75	1726.68
613.949	1683.86
614.149	1695.09
614.348	1684.24
614.548	1652.86
614.747	1598.61
614.947	1634.06
615.146	1609.46
615.346	1733.84
615.545	1685.02
615.745	1694.9
615.944	1663.71
616.144	1613.14
616.343	1663.51
616.542	1626.51
616.742	1642.98
616.941	1627.09
617.14	1540.1
617.34	1599.38
617.539	1576.13
617.738	1574.39
617.938	1658.48
618.137	1592.99
618.336	1558.5
618.535	1615.85
618.734	1626.12
618.934	1631.74
619.133	1601.13
619.332	1611.4
619.531	1555.79
619.73	1641.04
619.929	1656.35
620.128	1621.47
620.328	1618.95
620.527	1569.55
620.726	1592.21
620.925	1648.79
621.124	1601.51
621.323	1607.71
621.522	1573.23
621.721	1582.72
621.92	1559.47
622.119	1612.56
622.318	1561.02
622.517	1593.18
622.715	1570.13
622.914	1502.32
623.113	1562.57
623.312	1525.18
623.511	1584.46
623.71	1532.93
623.909	1509.29
624.107	1615.08
624.306	1497.67
624.505	1500.96
624.704	1531.38
624.902	1493.02
625.101	1552.5
625.3	1522.85
625.499	1474.22
625.697	1470.15
625.896	1508.13
626.095	1523.43
626.293	1462.21
626.492	1482.36
626.69	1506.58
626.889	1505.42
627.088	1507.93
627.286	1474.22
627.485	1468.99
627.683	1487.59
627.882	1511.62
628.08	1414.55
628.279	1450.78
628.477	1523.63
628.676	1415.9
628.874	1471.51
629.073	1432.57
629.271	1430.63
629.469	1510.45
629.668	1442.25
629.866	1456.79
630.065	1389.36
630.263	1457.37
630.461	1400.4
630.66	1416.49
630.858	1435.09
631.056	1468.02
631.254	1488.56
631.453	1434.89
631.651	1472.67
631.849	1452.33
632.047	1431.6
632.245	1402.15
632.444	1410.29
632.642	1413.19
632.84	1456.2
633.038	1433.15
633.236	1371.54
633.434	1401.95
633.632	1404.28
633.83	1380.06
634.028	1441.87
634.227	1421.52
634.425	1461.05
634.623	1380.26
634.821	1428.5
635.019	1457.37
635.216	1404.09
635.414	1450.59
635.612	1426.75
635.81	1391.3
636.008	1447.68
636.206	1401.76
636.404	1435.86
636.602	1386.07
636.8	1416.87
636.997	1401.37
637.195	1464.92
637.393	1403.12
637.591	1499.8
637.789	1412.42
637.986	1435.47
638.184	1423.27
638.382	1411.64
638.58	1464.92
638.777	1445.74
638.975	1414.35
639.173	1403.89
639.37	1399.05
639.568	1434.31
639.765	1439.93
639.963	1368.24
640.161	1424.04
640.358	1450.97
640.556	1316.51
640.753	1319.42
640.951	1336.08
641.148	1412.8
641.346	1363.59
641.543	1352.55
641.741	1374.25
641.938	1314.38
642.136	1385.49
642.333	1299.85
642.531	1411.84
642.728	1404.28
642.925	1374.06
643.123	1339.18
643.32	1357.78
643.517	1306.44
643.715	1331.62
643.912	1353.32
644.109	1343.44
644.306	1382.39
644.504	1303.34
644.701	1351
644.898	1345.96
645.095	1277.18
645.293	1283.19
645.49	1315.35
645.687	1344.99
645.884	1345.19
646.081	1233.59
646.278	1301.21
646.475	1223.32
646.672	1268.66
646.87	1284.74
647.067	1295.59
647.264	1272.73
647.461	1221.58
647.658	1236.11
647.855	1279.31
648.052	1238.63
648.249	1144.46
648.446	1241.34
648.642	1231.84
648.839	1184.57
649.036	1197.16
649.233	1178.37
649.43	1202.59
649.627	1141.17
649.824	1193.87
650.021	1188.45
650.217	1163.26
650.414	1172.95
650.611	1202.78
650.808	1202.2
651.004	1231.26
651.201	1236.3
651.398	1262.26
651.595	1225.06
651.791	1178.76
651.988	1232.04
652.185	1123.73
652.381	1228.36
652.578	1164.61
652.775	1195.03
652.971	1198.71
653.168	1167.71
653.364	1198.91
653.561	1141.95
653.757	1163.45
653.954	1185.54
654.15	1158.61
654.347	1252.19
654.543	1171.78
654.74	1136.52
654.936	1109.01
655.133	1159.96
655.329	1163.06
655.525	1151.83
655.722	1175.27
655.918	1096.22
656.115	1132.84
656.311	1021.44
656.507	983.65
656.704	950.52
656.9	994.31
657.096	991.21
657.292	1000.7
657.489	1078.4
657.685	1055.92
657.881	1044.1
658.077	1074.52
658.273	1123.15
658.47	1181.86
658.666	1091.96
658.862	1146.01
659.058	1106.68
659.254	1141.75
659.45	1091.38
659.646	1143.69
659.842	1106.49
660.038	1158.8
660.234	1085.18
660.43	1110.56
660.626	1195.81
660.822	1119.67
661.018	1135.94
661.214	1128
661.41	1069.29
661.606	1151.05
661.802	1176.43
661.998	1124.9
662.194	1093.9
662.39	1121.8
662.586	1127.8
662.781	1141.75
662.977	1155.51
663.173	1140.4
663.369	1126.83
663.564	1144.08
663.76	1138.46
663.956	1097.97
664.152	1128.38
664.347	1059.02
664.543	1116.76
664.739	1071.23
664.934	1049.14
665.13	1046.24
665.326	1112.69
665.521	1083.43
665.717	1069.87
665.912	1018.72
666.108	1003.61
666.304	1063.87
666.499	1049.14
666.695	974.16
666.89	1062.7
667.086	1068.13
667.281	1074.91
667.477	1118.89
667.672	1066.19
667.867	1056.89
668.063	1066.77
668.258	1004.58
668.454	1033.25
668.649	1123.73
668.844	1074.72
669.04	1081.3
669.235	1056.12
669.43	1017.95
669.626	964.86
669.821	1027.05
670.016	997.41
670.211	1026.28
670.407	963.31
670.602	1032.09
670.797	1018.53
670.992	1088.47
671.187	1002.06
671.382	1022.99
671.578	960.6
671.773	1043.52
671.968	975.71
672.163	994.89
672.358	1039.45
672.553	1005.94
672.748	1004
672.943	1093.9
673.138	1040.81
673.333	1038.87
673.528	970.48
673.723	1012.33
673.918	1007.68
674.113	923.01
674.308	1086.15
674.503	1021.24
674.698	1020.85
674.892	985.98
675.087	1042.75
675.282	1005.16
675.477	964.67
675.672	1029.77
675.867	981.52
676.061	954.79
676.256	945.49
676.451	970.48
676.646	985.2
676.84	976.87
677.035	942.97
677.23	950.33
677.424	1010.97
677.619	1019.11
677.814	1015.82
678.008	1012.33
678.203	932.51
678.397	961.57
678.592	959.63
678.787	1012.52
678.981	955.37
679.176	1008.84
679.37	965.44
679.565	962.34
679.759	967.57
679.954	997.6
680.148	1034.22
680.342	1056.89
680.537	989.85
680.731	946.84
680.926	951.49
681.12	993.92
681.314	932.31
681.509	949.75
681.703	985.79
681.897	1004.58
682.092	950.91
682.286	938.32
682.48	1025.5
682.674	1008.26
682.869	956.72
683.063	960.79
683.257	1039.65
683.451	942.39
683.645	945.68
683.839	942.39
684.034	952.27
684.228	1020.27
684.422	915.07
684.616	913.91
684.81	988.5
685.004	928.63
685.198	977.26
685.392	1012.33
685.586	919.72
685.78	952.66
685.974	982.69
686.168	958.47
686.362	991.99
686.556	912.36
686.75	898.21
686.944	891.24
687.138	899.18
687.331	784.68
687.525	816.45
687.719	774.21
687.913	840.86
688.107	799.01
688.301	777.12
688.494	831.37
688.688	773.63
688.882	782.74
689.076	745.15
689.269	773.83
689.463	926.31
689.657	823.23
689.85	821.49
690.044	845.32
690.238	818.19
690.431	812.58
690.625	842.61
690.818	860.43
691.012	875.93
691.205	892.79
691.399	841.25
691.593	881.16
691.786	954.4
691.98	949.94
692.173	976.49
692.366	921.07
692.56	934.83
692.753	985.2
692.947	927.47
693.14	982.49
693.333	985.59
693.527	893.37
693.72	946.07
693.914	937.54
694.107	922.62
694.3	942.77
694.493	936.57
694.687	1001.67
694.88	916.04
695.073	1028.02
695.266	991.02
695.46	989.85
695.653	996.83
695.846	1005.74
696.039	962.15
696.232	995.28
696.425	1030.35
696.618	1034.22
696.812	1066
697.005	1098.74
697.198	1151.83
697.391	1078.4
697.584	1118.7
697.777	1173.33
697.97	1145.82
698.163	1164.42
698.356	1127.8
698.549	1218.48
698.742	1196
698.935	1119.47
699.127	1184.57
699.32	1140.78
699.513	1154.93
699.706	1180.11
699.899	1200.65
700.092	1171.01
700.285	1191.74
700.477	1124.12
700.67	1241.73
700.863	1262.07
701.056	1355.26
701.248	1294.43
701.441	1291.71
701.634	1274.47
701.826	1387.42
702.019	1269.24
702.212	1332.98
702.404	1283.77
702.597	1274.28
702.79	1289.39
702.982	1323.49
703.175	1375.8
703.367	1375.41
703.56	1387.42
703.752	1497.86
703.945	1440.9
704.137	1465.7
704.33	1497.08
704.522	1480.62
704.715	1504.06
704.907	1518.78
705.1	1571.48
705.292	1573.42
705.484	1566.25
705.677	1609.85
705.869	1578.07
706.061	1668.55
706.254	1666.61
706.446	1655.38
706.638	1643.95
706.831	1716.99
707.023	1647.05
707.215	1800.49
707.407	1763.1
707.599	1777.05
707.792	1787.12
707.984	1777.82
708.176	1820.06
708.368	1819.67
708.56	1846.41
708.752	1839.24
708.944	1823.55
709.136	1912.67
709.329	1890.39
709.521	2021.56
709.713	1970.6
709.905	1987.46
710.097	2015.75
710.289	1973.12
710.481	1978.74
710.672	2048.88
710.864	2043.45
711.056	2102.93
711.248	2053.53
711.44	2118.04
711.632	2120.37
711.824	2163.96
712.016	2247.66
712.207	2159.51
712.399	2209.88
712.591	2260.26
712.783	2249.79
712.975	2282.15
713.166	2222.67
713.358	2249.79
713.55	2365.65
713.741	2345.12
713.933	2356.55
714.125	2357.32
714.316	2314.12
714.508	2414.67
714.7	2403.82
714.891	2447.61
715.083	2510.77
715.274	2440.25
715.466	2484.23
715.657	2511.55
715.849	2426.49
716.04	2535.76
716.232	2437.92
716.423	2481.9
716.615	2420.48
716.806	2404.98
716.998	2404.4
717.189	2317.41
717.381	2280.02
717.572	2278.47
717.763	2257.35
717.955	2249.79
718.146	2237.59
718.337	2185.66
718.528	2179.27
718.72	2071.93
718.911	2150.59
719.102	2119.79
719.293	2175.78
719.485	2109.13
719.676	2143.81
719.867	2074.65
720.058	2110.49
720.249	2173.46
720.44	2135.09
720.632	2200.58
720.823	2243.79
721.014	2377.28
721.205	2399.37
721.396	2486.16
721.587	2588.66
721.778	2658.99
721.969	2681.46
722.16	2749.27
722.351	2738.62
722.542	2895.75
722.733	2879.47
722.924	2808.75
723.115	2938.56
723.305	2854.87
723.496	2921.71
723.687	2725.64
723.878	2769.04
724.069	2776.79
724.26	2794.03
724.45	2693.67
724.641	2724.09
724.832	2812.24
725.023	2761.09
725.213	2779.5
725.404	2774.46
725.595	2758.77
725.785	2729.7
725.976	2858.93
726.167	2858.55
726.357	2836.27
726.548	2962.59
726.739	2854.28
726.929	2941.08
727.12	2973.24
727.31	3030.4
727.501	2956
727.691	2988.94
727.882	2995.91
728.072	3055.98
728.263	3020.52
728.453	3093.56
728.644	3081.94
728.834	3071.67
729.024	3044.54
729.215	3036.02
729.405	3098.02
729.596	3167.57
729.786	3166.22
729.976	3186.17
730.167	3241.78
730.357	3249.33
730.547	3225.89
730.737	3278.78
730.928	3245.27
731.118	3353.18
731.308	3303.97
731.498	3306.68
731.688	3379.53
731.879	3379.92
732.069	3502.17
732.259	3501.4
732.449	3519.03
732.639	3617.26
732.829	3659.11
733.019	3673.45
733.209	3795.7
733.399	3761.99
733.589	3792.41
733.779	3868.55
733.969	3838.91
734.159	3923.19
734.349	3988.67
734.539	4019.29
734.729	4037.89
734.919	4036.72
735.109	4148.32
735.299	4001.46
735.488	4076.83
735.678	4066.17
735.868	4078.77
736.058	4079.54
736.248	4056.1
736.437	4033.24
736.627	4062.1
736.817	4178.74
737.007	4062.88
737.196	4167.7
737.386	4134.37
737.576	4129.33
737.765	4210.51
737.955	4169.44
738.144	4290.53
738.334	4237.06
738.524	4151.23
738.713	4226.21
738.903	4211.68
739.092	4226.01
739.282	4210.13
739.471	4299.25
739.661	4281.23
739.85	4324.05
740.04	4297.89
740.229	4305.84
740.419	4347.69
740.608	4431.97
740.797	4362.41
740.987	4432.74
741.176	4402.13
741.365	4370.36
741.555	4284.72
741.744	4442.04
741.933	4373.46
742.123	4419.18
742.312	4441.85
742.501	4473.43
742.69	4457.74
742.88	4372.49
743.069	4555.97
743.258	4472.07
743.447	4512.95
743.636	4538.34
743.825	4466.07
744.014	4554.22
744.204	4558.29
744.393	4435.46
744.582	4536.01
744.771	4584.83
744.96	4526.71
745.149	4578.05
745.338	4527.49
745.527	4593.94
745.716	4528.65
745.905	4522.84
746.094	4627.46
746.283	4661.95
746.471	4608.67
746.66	4647.61
746.849	4647.41
747.038	4658.85
747.227	4572.05
747.416	4639.86
747.604	4604.4
747.793	4569.92
747.982	4609.05
748.171	4624.17
748.359	4671.05
748.548	4632.5
748.737	4634.05
748.926	4569.92
749.114	4547.05
749.303	4622.62
749.491	4596.46
749.68	4474.2
749.869	4589.29
750.057	4549.57
750.246	4562.17
750.434	4583.28
750.623	4567.98
750.811	4532.52
751	4619.13
751.188	4533.1
751.377	4534.46
751.565	4531.17
751.754	4493.58
751.942	4485.44
752.131	4628.43
752.319	4492.22
752.507	4465.87
752.696	4528.07
752.884	4528.45
753.072	4451.15
753.261	4524.97
753.449	4515.28
753.637	4451.34
753.825	4570.11
754.014	4520.12
754.202	4462.77
754.39	4577.47
754.578	4553.25
754.766	4457.93
754.955	4428.09
755.143	4540.85
755.331	4478.66
755.519	4469.36
755.707	4437.2
755.895	4487.96
756.083	4506.37
756.271	4414.34
756.459	4384.31
756.647	4425.77
756.835	4415.89
757.023	4399.81
757.211	4409.3
757.399	4379.46
757.587	4393.8
757.775	4331.99
757.963	4333.16
758.151	4393.22
758.339	4291.69
758.526	4326.38
758.714	4354.47
758.902	4263.41
759.09	4195.6
759.278	3977.63
759.465	3753.47
759.653	3328
759.841	3100.54
760.028	2686.11
760.216	2371.66
760.404	2260.64
760.591	1895.04
760.779	1671.65
760.967	1486.82
761.154	1309.73
761.342	1377.35
761.529	1364.76
761.717	1487.01
761.905	1496.31
762.092	1628.06
762.28	1536.22
762.467	1617.4
762.655	1546.68
762.842	1592.99
763.029	1621.66
763.217	1648.21
763.404	1602.1
763.592	1679.01
763.779	1651.11
763.966	1747.41
764.154	1755.93
764.341	1821.61
764.528	1804.37
764.716	1901.63
764.903	1967.5
765.09	2044.03
765.277	2095.76
765.465	2298.81
765.652	2361.78
765.839	2398.4
766.026	2555.14
766.213	2618.49
766.4	2725.25
766.588	2864.17
766.775	2885.28
766.962	3076.51
767.149	3077.87
767.336	3278.98
767.523	3200.12
767.71	3341.75
767.897	3472.92
768.084	3543.25
768.271	3566.31
768.458	3613.39
768.645	3693.6
768.832	3635.09
769.019	3675.97
769.206	3693.02
769.392	3807.91
769.579	3859.83
769.766	3820.7
769.953	3838.91
770.14	3861.19
770.327	3839.88
770.513	3905.36
770.7	3988.67
770.887	3856.15
771.073	3917.38
771.26	3895.68
771.447	3831.93
771.634	3878.04
771.82	4026.07
772.007	3836.78
772.193	3933.26
772.38	3967.75
772.567	3876.69
772.753	3826.9
772.94	3918.93
773.126	3934.42
773.313	3970.85
773.499	3911.37
773.686	3935.97
773.872	3856.54
774.059	3897.42
774.245	3828.64
774.432	3872.04
774.618	3770.9
774.804	3860.22
774.991	3798.22
775.177	3840.07
775.363	3727.7
775.55	3871.65
775.736	3745.72
775.922	3824.76
776.109	3770.13
776.295	3795.31
776.481	3810.43
776.667	3816.82
776.853	3746.1
777.04	3766.45
777.226	3735.83
777.412	3819.73
777.598	3753.85
777.784	3711.81
777.97	3714.91
778.156	3714.91
778.342	3738.55
778.528	3666.09
778.715	3594.2
778.901	3669.38
779.087	3724.4
779.272	3620.17
779.458	3661.44
779.644	3663.57
779.83	3617.45
780.016	3754.24
780.202	3640.51
780.388	3614.55
780.574	3569.6
780.76	3600.4
780.946	3645.16
781.131	3629.85
781.317	3569.21
781.503	3523.87
781.689	3542.28
781.874	3718.4
782.06	3534.53
782.246	3585.68
782.432	3550.22
782.617	3611.45
782.803	3629.47
782.989	3514.38
783.174	3507.02
783.36	3447.93
783.545	3468.27
783.731	3489
783.916	3360.74
784.102	3503.14
784.288	3467.88
784.473	3432.23
784.659	3446.57
784.844	3528.72
785.029	3402.59
785.215	3427.19
785.4	3358.22
785.586	3511.09
785.771	3364.61
785.956	3416.93
786.142	3398.52
786.327	3384.76
786.512	3350.66
786.698	3376.05
786.883	3278.98
787.068	3326.45
787.254	3340.4
787.439	3328
787.624	3265.8
787.809	3332.26
787.994	3320.05
788.18	3384.38
788.365	3222.21
788.55	3234.22
788.735	3237.13
788.92	3233.64
789.105	3210.97
789.29	3272.78
789.475	3204.97
789.66	3212.33
789.845	3174.16
790.03	3159.44
790.215	3281.88
790.4	3215.82
790.585	3257.28
790.77	3205.35
790.955	3116.23
791.14	3177.65
791.325	3274.33
791.51	3116.81
791.695	3150.14
791.879	3146.84
792.064	3096.66
792.249	3202.64
792.434	3136.38
792.618	3147.42
792.803	3182.49
792.988	3119.52
793.173	3105.77
793.357	3150.72
793.542	3096.86
793.727	3104.41
793.911	3162.54
794.096	3112.55
794.281	3163.7
794.465	3245.46
794.65	3107.12
794.834	3193.92
795.019	3189.85
795.203	3235.38
795.388	3187.53
795.572	3255.53
795.757	3177.45
795.941	3197.99
796.126	3205.35
796.31	3118.75
796.494	3203.42
796.679	3169.32
796.863	3115.84
797.048	3169.9
797.232	3185.4
797.416	3190.24
797.601	3166.8
797.785	3244.3
797.969	3255.15
798.153	3222.6
798.338	3216.98
798.522	3299.52
798.706	3266.97
798.89	3255.34
799.074	3391.55
799.258	3282.08
799.443	3223.76
799.627	3227.25
799.811	3267.93
799.995	3206.52
800.179	3200.9
800.363	3168.35
800.547	3249.92
800.731	3257.28
800.915	3148.97
801.099	3189.66
801.283	3235.38
801.467	3227.44
801.651	3223.57
801.835	3232.87
802.019	3235.38
802.202	3244.1
802.386	3143.94
802.57	3144.71
802.754	3167.57
802.938	3173.97
803.121	3160.99
803.305	3243.33
803.489	3175.32
803.673	3216.59
803.856	3202.45
804.04	3184.24
804.224	3229.77
804.407	3180.55
804.591	3153.82
804.775	3177.26
804.958	3149.55
805.142	3264.45
805.326	3191.99
805.509	3230.74
805.693	3246.62
805.876	3207.1
806.06	3223.76
806.243	3228.22
806.427	3228.41
806.61	3286.73
806.794	3152.07
806.977	3209.42
807.16	3173.58
807.344	3180.75
807.527	3204.39
807.71	3217.17
807.894	3172.61
808.077	3191.79
808.26	3157.69
808.444	3173
808.627	3212.14
808.81	3118.75
808.993	3046.09
809.177	3060.24
809.36	3086.01
809.543	3117.2
809.726	3004.24
809.909	3037.18
810.092	3034.08
810.276	3024.2
810.459	2989.52
810.642	3016.45
810.825	2986.61
811.008	2998.82
811.191	2901.56
811.374	2898.85
811.557	2941.08
811.74	3003.28
811.923	2844.21
812.106	2858.35
812.289	2840.14
812.472	2841.11
812.654	2881.99
812.837	2825.42
813.02	2770.39
813.203	2726.02
813.386	2609.58
813.569	2623.53
813.751	2530.53
813.934	2611.33
814.117	2523.56
814.3	2539.06
814.482	2475.7
814.665	2427.07
814.848	2358.68
815.03	2336.2
815.213	2337.17
815.396	2360.03
815.578	2267.62
815.761	2231.77
815.943	2309.85
816.126	2204.26
816.309	2206.01
816.491	2134.71
816.674	2063.02
816.856	2117.27
817.039	2097.7
817.221	2193.02
817.403	2124.63
817.586	2133.93
817.768	2152.73
817.951	2058.18
818.133	2059.92
818.315	2072.32
818.498	2119.98
818.68	2185.86
818.862	2164.35
819.045	2179.66
819.227	2141.29
819.409	2092.66
819.591	2145.94
819.774	2122.69
819.956	2103.9
820.138	2152.34
820.32	2129.48
820.502	2234.29
820.684	2265.1
820.866	2279.24
821.048	2339.89
821.231	2354.61
821.413	2303.27
821.595	2324.39
821.777	2328.84
821.959	2293
822.141	2399.75
822.323	2262
822.505	2199.22
822.686	2159.51
822.868	2043.06
823.05	1912.29
823.232	1889.42
823.414	1799.91
823.596	1889.81
823.778	1840.99
823.96	1932.82
824.141	1910.54
824.323	1943.87
824.505	2005.48
824.687	2061.08
824.868	2102.74
825.05	2217.44
825.232	2268.39
825.413	2312.18
825.595	2286.99
825.777	2200.39
825.958	2221.31
826.14	2244.56
826.321	2259.67
826.503	2223.83
826.685	2245.14
826.866	2289.32
827.048	2287.19
827.229	2184.69
827.411	2188.37
827.592	2143.62
827.773	2152.14
827.955	2062.25
828.136	2089.56
828.318	2052.75
828.499	2097.7
828.68	2038.8
828.862	2065.35
829.043	2082.78
829.224	2016.13
829.406	2013.61
829.587	2021.36
829.768	2038.41
829.949	2043.84
830.131	2024.46
830.312	2074.26
830.493	2054.3
830.674	2027.18
830.855	2050.04
831.036	2019.81
831.218	2139.74
831.399	2096.93
831.58	2033.38
831.761	2080.46
831.942	2051.2
832.123	2045.78
832.304	1979.13
832.485	2005.87
832.666	2021.56
832.847	2087.63
833.028	2025.24
833.209	2039.96
833.389	1998.5
833.57	1974.87
833.751	1974.87
833.932	2031.25
834.113	2014.97
834.294	1972.93
834.475	2052.56
834.655	2081.23
834.836	2107.39
835.017	2067.67
835.198	1996.18
835.378	2034.73
835.559	2099.44
835.74	2035.51
835.92	2053.72
836.101	1961.11
836.281	2069.41
836.462	2081.62
836.643	2092.28
836.823	2094.8
837.004	2088.21
837.184	2127.54
837.365	2127.34
837.545	2102.93
837.726	2057.98
837.906	2105.84
838.087	2074.06
838.267	2063.41
838.448	2016.91
838.628	2067.28
838.808	2061.08
838.989	2125.02
839.169	2043.84
839.349	2088.01
839.53	2102.16
839.71	2091.5
839.89	2043.65
840.07	2130.83
840.251	2045
840.431	2096.35
840.611	2074.84
840.791	2032.21
840.971	2062.25
841.151	2047.13
841.332	2036.28
841.512	2099.06
841.692	1993.85
841.872	2079.88
842.052	1996.18
842.232	2056.43
842.412	1945.03
842.592	1989.2
842.772	2066.12
842.952	1989.78
843.132	1986.49
843.312	1977.97
843.492	1994.05
843.672	2020.4
843.851	1946.58
844.031	2005.28
844.211	1980.87
844.391	1947.93
844.571	1987.65
844.751	2024.27
844.93	1966.53
845.11	1971.77
845.29	1966.34
845.47	1996.76
845.649	1955.88
845.829	1992.3
846.009	1916.35
846.188	2011.29
846.368	1966.53
846.547	1960.33
846.727	1971.18
846.907	1904.34
847.086	1950.65
847.266	1963.63
847.445	1936.7
847.625	1862.88
847.804	1901.05
847.984	1909.19
848.163	1908.41
848.343	1912.87
848.522	1910.15
848.701	1946.77
848.881	1902.6
849.06	1935.92
849.239	1924.49
849.419	1910.35
849.598	1799.52
849.777	1815.41
849.957	1803.98
850.136	1759.22
850.315	1744.69
850.494	1724.54
850.674	1786.54
850.853	1782.28
851.032	1748.37
851.211	1844.28
851.39	1800.88
851.569	1763.68
851.748	1747.79
851.927	1803.79
852.107	1774.53
852.286	1745.86
852.465	1734.23
852.644	1820.45
852.823	1804.37
853.002	1793.13
853.181	1752.44
853.359	1802.62
853.538	1722.41
853.717	1773.37
853.896	1694.71
854.075	1597.64
854.254	1538.55
854.433	1494.18
854.611	1560.25
854.79	1483.72
854.969	1565.67
855.148	1608.88
855.327	1508.52
855.505	1568.77
855.684	1570.13
855.863	1563.35
856.041	1586.79
856.22	1637.94
856.399	1634.26
856.577	1735.78
856.756	1689.48
856.934	1808.44
857.113	1795.84
857.291	1724.54
857.47	1690.44
857.648	1716.6
857.827	1670.29
858.005	1719.7
858.184	1652.28
858.362	1752.44
858.541	1714.47
858.719	1673.39
858.898	1659.06
859.076	1655.96
859.254	1708.46
859.433	1654.6
859.611	1643.36
859.789	1621.08
859.967	1730.74
860.146	1725.51
860.324	1605.78
860.502	1681.53
860.68	1571.68
860.859	1588.92
861.037	1649.56
861.215	1657.12
861.393	1628.45
861.571	1600.16
861.749	1584.08
861.927	1625.73
862.105	1675.53
862.283	1581.75
862.461	1597.45
862.639	1561.41
862.817	1597.25
862.995	1596.86
863.173	1597.45
863.351	1580.01
863.529	1605.58
863.707	1616.43
863.885	1599.77
864.063	1504.25
864.241	1507.16
864.418	1638.71
864.596	1558.89
864.774	1510.26
864.952	1562.57
865.129	1561.41
865.307	1517.04
865.485	1479.26
865.663	1563.35
865.84	1455.43
866.018	1479.65
866.196	1308.18
866.373	1368.63
866.551	1311.09
866.728	1279.51
866.906	1311.47
867.084	1358.56
867.261	1390.91
867.439	1395.95
867.616	1436.05
867.794	1405.83
867.971	1397.5
868.149	1417.45
868.326	1487.78
868.503	1477.52
868.681	1419.78
868.858	1422.3
869.035	1384.71
869.213	1462.99
869.39	1423.65
869.567	1494.95
869.745	1411.64
869.922	1448.84
870.099	1446.32
870.276	1474.03
870.454	1458.92
870.631	1442.25
870.808	1431.99
870.985	1464.92
871.162	1502.9
871.339	1456.59
871.517	1379.48
871.694	1392.85
871.871	1416.68
872.048	1407.77
872.225	1347.12
872.402	1449.81
872.579	1369.79
872.756	1380.64
872.933	1344.41
873.11	1389.75
873.287	1401.37
873.463	1348.29
873.64	1343.25
873.817	1389.94
873.994	1352.55
874.171	1300.04
874.348	1378.32
874.524	1292.88
874.701	1379.29
874.878	1288.61
875.055	1335.11
875.231	1350.61
875.408	1368.44
875.585	1284.54
875.762	1334.53
875.938	1286.48
876.115	1296.17
876.291	1284.74
876.468	1310.51
876.645	1280.48
876.821	1287.26
876.998	1273.89
877.174	1309.54
877.351	1306.24
877.527	1243.86
877.704	1316.51
877.88	1271.76
878.057	1259.55
878.233	1354.29
878.409	1269.82
878.586	1296.75
878.762	1247.15
878.938	1296.17
879.115	1198.13
879.291	1258.58
879.467	1177.4
879.644	1221.58
879.82	1247.93
879.996	1231.46
880.172	1152.21
880.349	1218.28
880.525	1223.13
880.701	1209.95
880.877	1187.09
881.053	1243.86
881.229	1190
881.405	1237.46
881.581	1181.08
881.757	1226.81
881.933	1227.78
882.109	1230.49
882.285	1197.36
882.461	1160.93
882.637	1204.91
882.813	1155.12
882.989	1209.18
883.165	1246.76
883.341	1154.15
883.517	1259.94
883.693	1189.03
883.869	1226.61
884.044	1186.12
884.22	1211.89
884.396	1258.78
884.572	1225.26
884.747	1227.39
884.923	1227
885.099	1236.3
885.275	1279.12
885.45	1209.37
885.626	1213.63
885.801	1173.72
885.977	1170.43
886.153	1147.37
886.328	1196.39
886.504	1149.31
886.679	1198.13
886.855	1172.75
887.03	1231.46
887.206	1219.25
887.381	1219.06
887.557	1229.52
887.732	1210.53
887.908	1230.88
888.083	1243.86
888.258	1202.01
888.434	1170.62
888.609	1207.43
888.784	1244.24
888.96	1200.26
889.135	1163.84
889.31	1134.39
889.485	1216.54
889.661	1193.1
889.836	1228.94
890.011	1214.8
890.186	1187.48
890.361	1180.11
890.537	1197.75
890.712	1180.7
890.887	1194.26
891.062	1196.39
891.237	1253.35
891.412	1162.87
891.587	1194.84
891.762	1218.48
891.937	1234.56
892.112	1160.16
892.287	1180.5
892.462	1126.83
892.637	1092.73
892.812	1104.94
892.987	1133.23
893.161	1115.4
893.336	1122.57
893.511	1115.02
893.686	1111.33
893.861	1115.79
894.035	1099.52
894.21	1120.63
894.385	1051.27
894.56	1115.02
894.734	1030.54
894.909	1010.78
895.084	1027.44
895.258	1000.9
895.433	1055.53
895.608	1021.44
895.782	954.79
895.957	975.9
896.131	980.75
896.306	934.25
896.48	917.59
896.655	922.24
896.829	843.38
897.004	860.43
897.178	874.38
897.353	849
897.527	913.13
897.701	873.22
897.876	835.44
898.05	921.46
898.224	902.67
898.399	929.21
898.573	872.44
898.747	760.46
898.921	787.39
899.096	719
899.27	715.9
899.444	710.86
899.618	761.43
899.792	779.83
899.967	757.94
900.141	809.09
900.315	721.71
900.489	773.05
900.663	783.32
900.837	790.68
901.011	699.23
901.185	839.12
901.359	778.86
901.533	759.49
901.707	771.11
901.881	772.08
902.055	724.23
902.229	761.43
902.403	830.98
902.576	772.28
902.75	769.56
902.924	902.47
903.098	817.61
903.272	868.18
903.446	919.33
903.619	887.75
903.793	922.82
903.967	925.34
904.14	948.2
904.314	924.95
904.488	888.33
904.661	942.39
904.835	939.48
905.009	955.95
905.182	1001.87
905.356	945.29
905.529	927.08
905.703	922.04
905.876	861.4
906.05	852.88
906.223	846.68
906.397	779.64
906.57	757.94
906.744	767.05
906.917	762.59
907.09	777.51
907.264	737.21
907.437	700.59
907.61	675.02
907.784	736.82
907.957	728.49
908.13	712.02
908.304	732.95
908.477	669.98
908.65	672.11
908.823	665.91
908.996	727.13
909.17	673.85
909.343	679.08
909.516	731.2
909.689	680.63
909.862	653.12
910.035	679.86
910.208	630.07
910.381	633.94
910.554	735.27
910.727	641.69
910.9	660.87
911.073	657.58
911.246	719.19
911.419	715.51
911.592	697.49
911.765	664.94
911.938	651.57
912.11	653.7
912.283	661.07
912.456	742.05
912.629	689.74
912.802	649.63
912.974	626
913.147	577.75
913.32	519.05
913.493	529.12
913.665	605.65
913.838	608.17
914.01	584.15
914.183	599.65
914.356	596.35
914.528	656.8
914.701	662.42
914.873	673.27
915.046	588.22
915.218	540.55
915.391	490.57
915.563	476.23
915.736	575.43
915.908	586.28
916.081	546.75
916.253	572.91
916.425	599.84
916.598	613.21
916.77	596.16
916.942	566.52
917.115	508.78
917.287	590.93
917.459	564.97
917.632	511.49
917.804	457.24
917.976	562.06
918.148	580.66
918.32	526.02
918.493	598.68
918.665	614.37
918.837	573.49
919.009	644.6
919.181	625.22
919.353	602.94
919.525	593.25
919.697	568.45
919.869	592.87
920.041	663.97
920.213	719.58
920.385	649.25
920.557	612.63
920.729	614.95
920.901	643.05
921.073	591.51
921.244	603.72
921.416	638.98
921.588	621.15
921.76	578.72
921.932	644.21
922.103	600.04
922.275	561.29
922.447	595.97
922.619	546.17
922.79	590.35
922.962	575.82
923.134	594.03
923.305	533.39
923.477	485.34
923.648	513.82
923.82	539.2
923.991	487.86
924.163	484.17
924.335	536.1
924.506	501.81
924.677	538.62
924.849	508.97
925.02	536.29
925.192	542.69
925.363	498.9
925.535	522.15
925.706	489.6
925.877	572.91
926.049	527.77
926.22	513.24
926.391	550.63
926.562	553.34
926.734	470.03
926.905	534.16
927.076	455.69
927.247	500.84
927.419	446.01
927.59	470.42
927.761	462.86
927.932	421.79
928.103	480.11
928.274	400.67
928.445	378
928.616	388.66
928.787	396.79
928.958	435.35
929.129	414.23
929.3	375.68
929.471	362.31
929.642	297.98
929.813	270.66
929.984	346.81
930.155	275.31
930.326	315.03
930.496	270.28
930.667	224.17
930.838	267.76
931.009	226.88
931.18	239.28
931.35	230.17
931.521	246.83
931.692	196.27
931.863	140.27
932.033	224.94
932.204	205.37
932.374	206.92
932.545	148.02
932.716	204.6
932.886	189.48
933.057	106.37
933.227	126.52
933.398	219.71
933.568	112.37
933.739	53.09
933.909	68.39
934.08	139.69
934.25	61.42
934.421	99.97
934.591	100.75
934.761	72.85
934.932	44.17
935.102	115.47
935.272	63.74
935.443	97.65
935.613	67.04
935.783	119.93
935.953	50.57
936.123	246.83
936.294	72.27
936.464	70.91
936.634	78.27
936.804	65.68
936.974	28.48
937.144	119.74
937.314	97.84
937.484	80.79
937.655	72.27
937.825	130
937.995	86.22
938.165	131.17
938.334	83.51
938.504	130.39
938.674	98.42
938.844	95.71
939.014	176.89
939.184	180.96
939.354	229.01
939.524	169.34
939.694	153.64
939.863	159.65
940.033	224.75
940.203	215.25
940.373	187.16
940.542	165.85
940.712	158.29
940.882	175.15
941.051	207.31
941.221	187.93
941.391	196.65
941.56	147.25
941.73	170.89
941.899	258.46
942.069	156.55
942.238	166.62
942.408	144.73
942.577	186.19
942.747	138.34
942.916	109.27
943.086	105.79
943.255	162.94
943.425	151.32
943.594	101.52
943.763	50.37
943.933	90.29
944.102	49.21
944.271	78.66
944.441	113.54
944.61	86.41
944.779	139.89
944.948	230.37
945.117	92.8
945.287	92.61
945.456	44.17
945.625	87.77
945.794	121.29
945.963	93.39
946.132	144.73
946.301	88.54
946.47	161.97
946.639	49.41
946.808	88.15
946.977	140.47
947.146	156.74
947.315	80.99
947.484	158.29
947.653	125.74
947.822	95.32
947.991	78.66
948.16	184.83
948.329	136.79
948.498	112.76
948.666	133.1
948.835	128.84
949.004	76.72
949.173	93.58
949.341	110.05
949.51	127.1
949.679	177.08
949.847	166.24
950.016	198.98
950.185	199.56
950.353	80.21
950.522	124
950.69	145.12
950.859	86.02
951.028	163.72
951.196	123.22
951.365	110.05
951.533	99.59
951.701	157.13
951.87	152.48
952.038	69.75
952.207	85.25
952.375	175.73
952.543	98.62
952.712	113.54
952.88	94.94
953.048	161.39
953.217	127.1
953.385	96.29
953.553	180.18
953.721	110.63
953.89	99.2
954.058	77.11
954.226	87.77
954.394	92.8
954.562	70.14
954.73	123.8
954.898	104.04
955.067	136.4
955.235	94.35
955.403	153.64
955.571	187.74
955.739	147.25
955.907	86.22
956.075	52.31
956.243	69.56
956.41	129.42
956.578	55.99
956.746	53.47
956.914	113.54
957.082	131.94
957.25	127.68
957.418	88.15
957.585	103.65
957.753	190.26
957.921	110.82
958.089	126.9
958.256	123.61
958.424	127.1
958.592	125.94
958.759	73.62
958.927	142.6
959.095	78.66
959.262	108.69
959.43	113.73
959.597	89.51
959.765	114.89
959.932	77.69
960.1	156.74
960.267	90.09
960.435	102.49
960.602	167.4
960.77	105.01
960.937	67.62
961.104	144.73
961.272	63.16
961.439	77.69
961.606	144.73
961.774	138.34
961.941	100.75
962.108	133.3
962.275	145.89
962.443	151.51
962.61	155.77
962.777	230.95
962.944	157.13
963.111	149.77
963.278	152.67
963.446	149.19
963.613	149.96
963.78	145.12
963.947	144.54
964.114	117.02
964.281	224.55
964.448	124.97
964.615	99.59
964.782	128.84
964.949	175.15
965.116	173.99
965.282	159.26
965.449	136.79
965.616	109.85
965.783	165.65
965.95	145.89
966.117	79.44
966.283	122.06
966.45	111.79
966.617	118.38
966.784	162.17
966.95	165.07
967.117	175.73
967.284	109.47
967.45	106.75
967.617	175.53
967.784	164.3
967.95	190.65
968.117	135.04
968.283	180.18
968.45	250.32
968.616	142.02
968.783	177.08
968.949	156.74
969.116	200.72
969.282	140.47
969.449	167.2
969.615	126.9
969.781	103.27
969.948	133.88
970.114	128.65
970.28	199.37
970.447	142.79
970.613	207.89
970.779	147.64
970.945	163.14
971.112	163.72
971.278	134.65
971.444	133.88
971.61	205.95
971.776	135.43
971.942	183.67
972.108	173.21
972.275	135.24
972.441	151.51
972.607	206.34
972.773	127.29
972.939	173.4
973.105	137.95
973.271	119.93
973.437	122.06
973.602	99.97
973.768	131.55
973.934	141.44
974.1	180.18
974.266	69.56
974.432	122.64
974.598	107.92
974.763	167.79
974.929	148.6
975.095	224.94
975.261	129.42
975.426	86.8
975.592	86.99
975.758	193.55
975.923	64.91
976.089	100.75
976.255	162.55
976.42	145.89
976.586	157.9
976.751	131.94
976.917	180.18
977.082	138.53
977.248	90.29
977.413	66.26
977.579	110.05
977.744	117.41
977.91	80.6
978.075	116.05
978.24	160.62
978.406	131.55
978.571	99.97
978.736	88.74
978.902	157.71
979.067	69.17
979.232	76.34
979.397	137.75
979.563	187.74
979.728	101.33
979.893	115.47
980.058	95.71
980.223	160.23
980.388	133.69
980.554	107.92
980.719	102.3
980.884	126.9
981.049	143.37
981.214	98.62
981.379	130.2
981.544	86.41
981.709	136.59
981.874	118.38
982.039	117.22
982.204	142.4
982.368	134.27
982.533	102.88
982.698	157.13
982.863	166.62
983.028	105.59
983.193	141.44
983.357	126.9
983.522	124.58
983.687	126.13
983.852	125.16
984.016	108.11
984.181	126.13
984.346	173.02
984.51	145.5
984.675	124.58
984.839	155.19
985.004	122.25
985.168	165.85
985.333	139.89
985.498	91.25
985.662	161.78
985.827	129.04
985.991	124.77
986.155	85.25
986.32	118.19
986.484	171.08
986.649	127.87
986.813	54.44
986.977	135.82
987.142	161.2
987.306	41.66
987.47	84.28
987.634	102.49
987.799	127.1
987.963	134.27
988.127	130
988.291	185.22
988.455	94.55
988.62	126.71
988.784	148.99
988.948	146.67
989.112	80.99
989.276	136.2
989.44	124.77
989.604	105.2
989.768	78.86
989.932	178.63
990.096	85.83
990.26	75.95
990.424	58.71
990.588	133.3
990.752	163.14
990.915	141.82
991.079	93.77
991.243	79.24
991.407	138.53
991.571	98.04
991.734	128.26
991.898	139.89
992.062	182.32
992.226	81.18
992.389	81.96
992.553	46.31
992.717	98.81
992.88	90.29
993.044	83.51
993.207	88.54
993.371	109.27
993.535	111.6
993.698	115.09
993.862	129.62
994.025	141.24
994.189	109.47
994.352	134.46
994.515	117.99
994.679	153.45
994.842	90.87
995.006	131.55
995.169	57.74
995.332	67.62
995.496	117.6
995.659	31.58
995.822	82.73
995.985	86.61
996.149	143.76
996.312	87.38
996.475	162.55
996.638	82.92
996.801	139.69
996.964	177.08
997.128	93.97
997.291	75.76
997.454	101.33
997.617	32.74
997.78	126.13
997.943	73.04
998.106	136.01
998.269	73.04
998.432	109.85
998.595	81.37
998.758	23.25
998.92	61.61
999.083	18.99
999.246	79.24
999.409	45.72
999.572	29.84
999.735	52.12
999.897	82.15
1000.06	65.49
1000.223	89.51
1000.386	97.26
1000.548	71.11
1000.711	97.07
1000.874	96.49
1001.036	36.62
1001.199	119.74
1001.361	32.55
1001.524	106.56
1001.687	88.54
1001.849	46.5
1002.012	67.42
1002.174	79.05
1002.337	100.94
1002.499	57.54
1002.661	119.74
1002.824	46.69
1002.986	32.16
1003.149	65.1
1003.311	30.61
1003.473	126.32
1003.636	39.14
1003.798	92.03
1003.96	86.41
1004.123	101.72
1004.285	24.61
1004.447	60.06
1004.609	42.62
1004.771	145.5
1004.933	6.2
1005.096	38.56
1005.258	12.59
1005.42	37.59
1005.582	94.94
1005.744	42.82
1005.906	26.16
1006.068	76.14
1006.23	22.86
1006.392	27.12
1006.554	25.38
1006.716	93.77
1006.878	56.77
1007.04	47.27
1007.202	34.87
1007.363	85.06
1007.525	55.8
1007.687	90.09
1007.849	137.17
1008.011	11.24
1008.172	-8.33
1008.334	50.37
1008.496	80.6
1008.658	20.73
1008.819	18.6
1008.981	36.42
1009.143	16.08
1009.304	41.85
1009.466	71.49
1009.627	111.4
1009.789	134.65
1009.95	59.09
1010.112	37.2
1010.273	78.27
1010.435	45.53
1010.596	26.93
1010.758	50.76
1010.919	40.3
1011.081	10.07
1011.242	45.14
1011.403	82.34
1011.565	50.37
1011.726	66.65
1011.887	9.3
1012.049	39.52
1012.21	99.59
1012.371	122.84
1012.532	-33.32
1012.693	64.71
1012.855	38.36
1013.016	63.74
1013.177	83.31
1013.338	19.18
1013.499	99.59
1013.66	59.48
1013.821	69.56
1013.982	41.46
1014.143	66.07
1014.304	16.66
1014.465	71.49
1014.626	91.25
1014.787	4.46
1014.948	138.92
1015.109	-14.34
1015.27	79.24
1015.431	14.14
1015.592	27.9
1015.752	106.95
1015.913	63.16
1016.074	67.81
1016.235	34.87
1016.395	63.94
1016.556	12.59
1016.717	10.46
1016.877	92.8
1017.038	20.73
1017.199	54.83
1017.359	41.46
1017.52	53.09
1017.681	25.96
1017.841	24.22
1018.002	45.53
1018.162	27.51
1018.323	88.93
1018.483	31.39
1018.644	19.18
1018.804	20.54
1018.964	7.36
1019.125	36.42
1019.285	41.27
1019.446	-6.01
1019.606	0.39
1019.766	-35.26
1019.926	56.57
1020.087	35.84
1020.247	-2.32
1020.407	70.33
1020.567	110.05
1020.728	37.01
1020.888	-13.76
1021.048	13.76
1021.208	-4.46
1021.368	5.23
1021.528	98.23
1021.688	60.84
1021.848	59.67
1022.008	33.52
1022.168	41.66
1022.328	9.49
1022.488	64.32
1022.648	22.67
1022.808	12.59
1022.968	28.09
1023.128	24.02
1023.288	7.94
1023.448	59.48
1023.608	40.49
1023.767	34.87
1023.927	8.33
1024.087	-1.36
1024.247	-28.87
1024.406	10.85
1024.566	-28.87
1024.726	-6.59
1024.885	15.5
1025.045	53.47
1025.205	-2.52
1025.364	12.98
1025.524	39.91
1025.683	23.06
1025.843	30.03
1026.003	30.03
1026.162	97.65
1026.321	53.86
1026.481	9.88
1026.64	12.59
1026.8	37.59
1026.959	21.31
1027.119	21.12
1027.278	50.96
1027.437	4.65
1027.597	45.34
1027.756	50.57
1027.915	42.04
1028.074	29.06
1028.234	4.46
1028.393	28.67
1028.552	19.18
1028.711	-31.97
1028.87	36.23
1029.03	-17.05
1029.189	45.34
1029.348	-34.87
1029.507	-6.78
1029.666	16.86
1029.825	4.07
1029.984	2.32
1030.143	48.24
1030.302	5.04
1030.461	-42.82
1030.62	20.92
1030.779	48.24
1030.938	-4.26
1031.097	-27.71
1031.255	44.56
1031.414	92.42
1031.573	55.8
1031.732	-54.64
1031.891	21.12
1032.049	80.41
1032.208	43.79
1032.367	-10.27
1032.525	-12.21
1032.684	4.84
1032.843	19.96
1033.001	-19.18
1033.16	189.68
1033.319	73.43
1033.477	37.01
1033.636	10.46
1033.794	-35.46
1033.953	39.33
1034.111	54.44
1034.27	11.82
1034.428	35.46
1034.587	-5.62
1034.745	16.47
1034.903	23.83
1035.062	46.31
1035.22	-10.07
1035.378	68.97
1035.537	2.13
1035.695	56.57
1035.853	12.4
1036.011	51.54
1036.17	19.96
1036.328	-45.34
1036.486	18.21
1036.644	21.31
1036.802	-71.3
1036.96	-27.51
1037.119	-7.94
1037.277	14.72
1037.435	-30.61
1037.593	-34.29
1037.751	29.06
1037.909	35.65
1038.067	35.65
