Data from gum_old_FLMT105791__152__15-47-39-250.txt Node

Date: Mon Mar 20 15:47:39 GMT 2023
User: antho
Spectrometer: FLMT10579
Trigger mode: 0
Integration Time (sec): 1.000000E-1
Scans to average: 10
Electric dark correction enabled: true
Nonlinearity correction enabled: false
Boxcar width: 0
XAxis mode: Wavelengths
Number of Pixels in Spectrum: 3648
>>>>>Begin Spectral Data<<<<<
345.248	-163.57
345.464	-163.57
345.681	-163.57
345.898	-163.38
346.114	-166.86
346.331	-32.4
346.548	16.61
346.764	-22.52
346.981	-14.58
347.197	8.48
347.414	3.83
347.631	-21.55
347.847	96.24
348.064	-10.51
348.28	29.98
348.497	-35.31
348.713	-18.26
348.93	33.08
349.146	48
349.363	17.97
349.579	21.65
349.796	7.7
350.012	-14.97
350.229	29.59
350.445	12.35
350.661	0.15
350.878	33.08
351.094	25.72
351.311	10.22
351.527	30.37
351.743	-14.39
351.96	65.44
352.176	61.95
352.392	44.9
352.609	50.52
352.825	4.6
353.041	23.2
353.257	7.9
353.474	14.68
353.69	54.2
353.906	15.06
354.122	-3.34
354.339	90.82
354.555	35.21
354.771	31.73
354.987	88.11
355.203	71.25
355.42	0.73
355.636	15.84
355.852	6.73
356.068	41.03
356.284	-15.55
356.5	105.16
356.716	41.99
356.932	22.62
357.148	44.13
357.364	35.79
357.58	90.24
357.796	93.73
358.012	68.15
358.228	55.36
358.444	-20.2
358.66	68.73
358.876	20.3
359.092	-9.54
359.308	38.7
359.524	45.48
359.74	5.76
359.956	15.06
360.172	49.55
360.388	37.73
360.604	34.63
360.819	106.9
361.035	38.7
361.251	54.98
361.467	-4.89
361.683	75.32
361.898	46.26
362.114	74.74
362.33	63.69
362.546	96.83
362.762	34.63
362.977	41.41
363.193	-17.87
363.409	75.71
363.624	7.12
363.84	16.03
364.056	8.67
364.271	59.24
364.487	34.24
364.703	13.13
364.918	42.38
365.134	19.13
365.35	7.9
365.565	156.5
365.781	54.39
365.996	84.62
366.212	99.73
366.427	62.14
366.643	23.39
366.858	54.01
367.074	-0.05
367.289	110.19
367.505	150.88
367.72	-18.45
367.936	23.2
368.151	97.99
368.367	91.21
368.582	52.84
368.798	40.64
369.013	122.21
369.228	66.21
369.444	51.68
369.659	112.91
369.874	70.09
370.09	95.08
370.305	-15.35
370.52	35.99
370.736	85.59
370.951	48.97
371.166	91.79
371.381	118.52
371.597	104.96
371.812	26.11
372.027	35.21
372.242	67.76
372.458	128.02
372.673	56.33
372.888	50.91
373.103	80.16
373.318	145.84
373.533	63.5
373.749	83.26
373.964	-21.55
374.179	90.82
374.394	18.94
374.609	103.41
374.824	26.69
375.039	123.56
375.254	24.75
375.469	121.04
375.684	67.38
375.899	122.79
376.114	75.51
376.329	70.28
376.544	92.37
376.759	76.29
376.974	34.05
377.189	56.14
377.404	55.56
377.619	105.93
377.834	-0.63
378.049	61.56
378.264	45.09
378.478	73.96
378.693	36.38
378.908	85.39
379.123	66.99
379.338	109.42
379.553	69.12
379.767	92.18
379.982	90.24
380.197	85.01
380.412	65.44
380.626	92.56
380.841	156.69
381.056	76.09
381.271	188.08
381.485	51.49
381.7	45.09
381.915	72.22
382.129	47.42
382.344	59.04
382.559	57.88
382.773	106.32
382.988	5.38
383.202	64.08
383.417	28.24
383.632	167.74
383.846	51.49
384.061	85.01
384.275	56.91
384.49	81.71
384.704	104.38
384.919	82.1
385.133	95.66
385.348	101.48
385.562	48.39
385.777	118.33
385.991	89.66
386.206	62.92
386.42	54.59
386.634	134.02
386.849	133.44
387.063	96.05
387.277	45.29
387.492	63.5
387.706	59.43
387.92	65.44
388.135	129.18
388.349	104.58
388.563	120.66
388.778	104.77
388.992	91.4
389.206	87.14
389.42	180.91
389.635	100.7
389.849	158.05
390.063	146.23
390.277	128.6
390.491	191.18
390.706	127.63
390.92	138.48
391.134	105.54
391.348	160.18
391.562	44.9
391.776	131.31
391.99	104.96
392.205	140.42
392.419	122.98
392.633	132.47
392.847	150.49
393.061	79.58
393.275	141.58
393.489	111.94
393.703	103.8
393.917	121.43
394.131	66.79
394.345	103.03
394.559	130.92
394.773	74.54
394.986	146.04
395.2	121.82
395.414	151.46
395.628	89.66
395.842	153.79
396.056	135.96
396.27	88.11
396.484	134.99
396.697	141.58
396.911	165.22
397.125	144.29
397.339	144.49
397.553	117.75
397.766	182.46
397.98	158.24
398.194	181.11
398.408	115.62
398.621	211.14
398.835	221.02
399.049	178.2
399.262	230.32
399.476	206.49
399.69	204.16
399.903	274.88
400.117	188.08
400.331	238.84
400.544	187.69
400.758	311.88
400.971	221.99
401.185	265.97
401.398	150.49
401.612	274.69
401.826	239.42
402.039	248.53
402.253	212.1
402.466	248.53
402.68	218.69
402.893	244.27
403.106	236.13
403.32	189.63
403.533	236.32
403.747	212.49
403.96	226.44
404.174	253.57
404.387	188.66
404.6	225.86
404.814	270.23
405.027	198.15
405.24	205.71
405.454	178.39
405.667	238.84
405.88	170.06
406.094	237.29
406.307	259.96
406.52	244.27
406.733	196.8
406.947	166.38
407.16	289.22
407.373	289.8
407.586	211.14
407.799	223.15
408.012	260.35
408.226	268.29
408.439	282.82
408.652	213.46
408.865	283.02
409.078	293.48
409.291	281.08
409.504	230.9
409.717	283.02
409.93	276.62
410.143	256.86
410.357	178.97
410.57	215.4
410.783	247.56
410.996	255.5
411.209	247.37
411.421	323.7
411.634	293.87
411.847	259.19
412.06	288.63
412.273	288.44
412.486	292.32
412.699	364.97
412.912	294.25
413.125	321.18
413.338	319.63
413.55	346.37
413.763	275.27
413.976	310.53
414.189	269.07
414.402	280.11
414.615	356.64
414.827	270.42
415.04	346.57
415.253	313.05
415.466	345.6
415.678	396.94
415.891	311.69
416.104	279.53
416.316	283.21
416.529	288.44
416.742	358.97
416.954	375.05
417.167	325.64
417.38	314.21
417.592	344.82
417.805	284.95
418.017	253.37
418.23	337.27
418.442	301.23
418.655	298.52
418.868	326.8
419.08	351.22
419.293	344.05
419.505	321.77
419.718	343.85
419.93	365.94
420.142	303.75
420.355	414.18
420.567	407.79
420.78	343.47
420.992	317.12
421.205	423.1
421.417	313.43
421.629	342.11
421.842	306.85
422.054	319.05
422.266	370.78
422.479	403.33
422.691	330.87
422.903	368.27
423.115	301.03
423.328	307.43
423.54	361.1
423.752	345.6
423.964	335.33
424.177	335.13
424.389	355.28
424.601	484.9
424.813	370.98
425.025	386.86
425.238	407.98
425.45	353.15
425.662	350.05
425.874	706.94
426.086	363.23
426.298	381.05
426.51	394.81
426.722	369.82
426.934	337.46
427.146	411.08
427.358	366.72
427.57	432.2
427.782	359.55
427.994	367.88
428.206	324.48
428.418	333.97
428.63	388.61
428.842	420
429.054	357.22
429.266	402.95
429.478	334.55
429.69	384.93
429.902	329.9
430.114	403.33
430.325	363.42
430.537	301.23
430.749	313.82
430.961	259.96
431.173	291.93
431.384	320.8
431.596	272.17
431.808	349.08
432.02	383.18
432.231	406.24
432.443	492.07
432.655	440.53
432.867	406.05
433.078	443.63
433.29	486.84
433.502	450.8
433.713	490.13
433.925	431.62
434.136	478.31
434.348	378.34
434.56	338.43
434.771	517.84
434.983	365.94
435.194	403.33
435.406	425.03
435.617	494.01
435.829	539.73
436.04	509.12
436.252	483.74
436.463	538.76
436.675	534.69
436.886	544.77
437.098	515.71
437.309	562.98
437.521	483.74
437.732	525.78
437.943	491.49
438.155	497.3
438.366	444.8
438.578	562.4
438.789	462.62
439	500.01
439.211	475.21
439.423	495.94
439.634	513.77
439.845	517.06
440.057	527.14
440.268	533.73
440.479	491.29
440.69	515.71
440.902	484.9
441.113	506.99
441.324	483.16
441.535	539.15
441.746	600.37
441.957	509.89
442.168	570.92
442.38	558.72
442.591	580.22
442.802	531.59
443.013	562.59
443.224	581.19
443.435	557.75
443.646	548.84
443.857	578.09
444.068	541.67
444.279	531.01
444.49	681.55
444.701	577.51
444.912	702.29
445.123	637.19
445.334	614.71
445.545	602.51
445.756	568.99
445.967	536.63
446.178	595.92
446.388	628.47
446.599	575.38
446.81	597.86
447.021	583.32
447.232	648.04
447.443	664.7
447.653	575.77
447.864	651.52
448.075	606.96
448.286	680.59
448.496	635.05
448.707	680.2
448.918	610.64
449.129	695.5
449.339	615.49
449.55	635.05
449.761	647.65
449.971	693.57
450.182	629.44
450.393	689.3
450.603	610.06
450.814	708.68
451.024	684.07
451.235	754.79
451.446	736.19
451.656	756.92
451.867	658.89
452.077	680.59
452.288	754.98
452.498	725.73
452.709	656.37
452.919	657.72
453.13	618.2
453.34	701.7
453.55	629.82
453.761	674.97
453.971	667.99
454.182	691.63
454.392	646.87
454.602	708.49
454.813	678.26
455.023	721.27
455.233	639.12
455.444	704.22
455.654	607.74
455.864	677.87
456.075	657.53
456.285	650.94
456.495	662.37
456.705	699.96
456.916	744.33
457.126	773.97
457.336	718.56
457.546	629.24
457.756	683.3
457.967	765.64
458.177	701.32
458.387	720.88
458.597	666.83
458.807	700.74
459.017	673.61
459.227	660.44
459.437	694.15
459.647	756.73
459.857	748.98
460.068	705.97
460.278	752.85
460.488	719.14
460.698	792.96
460.908	721.27
461.117	696.67
461.327	686.4
461.537	751.69
461.747	764.09
461.957	762.54
462.167	851.66
462.377	772.23
462.587	759.25
462.797	822.6
463.007	769.9
463.216	772.62
463.426	830.55
463.636	788.12
463.846	708.87
464.056	742.39
464.265	799.55
464.475	708.1
464.685	746.46
464.895	816.4
465.104	733.48
465.314	789.08
465.524	744.91
465.733	729.6
465.943	859.41
466.153	853.02
466.362	798.97
466.572	802.26
466.782	746.65
466.991	817.18
467.201	844.88
467.41	716.82
467.62	830.74
467.829	779.4
468.039	840.23
468.249	812.14
468.458	834.03
468.668	838.68
468.877	828.61
469.086	886.93
469.296	852.63
469.505	816.6
469.715	903.39
469.924	841.59
470.134	896.81
470.343	880.34
470.552	872.01
470.762	843.91
470.971	815.24
471.18	846.43
471.39	855.35
471.599	812.91
471.808	905.14
472.018	818.73
472.227	917.93
472.436	950.09
472.645	903.78
472.855	885.38
473.064	988.06
473.273	945.83
473.482	954.93
473.691	971.21
473.901	926.84
474.11	901.26
474.319	1034.76
474.528	939.04
474.737	1027.2
474.946	964.62
475.155	980.12
475.364	1049.87
475.573	989.22
475.783	1003.17
475.992	1017.32
476.201	1043.09
476.41	1005.69
476.619	1004.14
476.828	1026.81
477.037	981.48
477.245	975.08
477.454	1046.19
477.663	1013.25
477.872	1064.98
478.081	1131.63
478.29	1035.14
478.499	1164.37
478.708	1124.65
478.917	1169.8
479.125	1074.67
479.334	1105.86
479.543	1091.91
479.752	1101.6
479.961	1135.5
480.169	1166.5
480.378	1121.94
480.587	1277.91
480.796	1188.4
481.004	1162.24
481.213	1221.72
481.422	1193.82
481.63	1192.85
481.839	1213.97
482.048	1267.06
482.256	1231.41
482.465	1266.28
482.674	1270.74
482.882	1250.98
483.091	1347.85
483.299	1263.96
483.508	1271.9
483.716	1254.08
483.925	1304.45
484.134	1241.1
484.342	1246.33
484.551	1297.48
484.759	1304.45
484.967	1322.66
485.176	1371.1
485.384	1311.81
485.593	1326.73
485.801	1288.76
486.01	1263.18
486.218	1208.55
486.426	1108.19
486.635	1110.9
486.843	1101.79
487.051	1184.52
487.26	1163.4
487.468	1208.35
487.676	1241.68
487.885	1284.3
488.093	1291.86
488.301	1326.35
488.509	1320.73
488.717	1373.04
488.926	1356.18
489.134	1348.82
489.342	1335.06
489.55	1306.97
489.758	1343.39
489.967	1335.26
490.175	1473.4
490.383	1439.3
490.591	1511.37
490.799	1431.74
491.007	1487.16
491.215	1454.99
491.423	1447.05
491.631	1460.81
491.839	1408.3
492.047	1479.41
492.255	1392.41
492.463	1360.44
492.671	1364.13
492.879	1478.05
493.087	1419.73
493.295	1469.91
493.503	1455.38
493.711	1507.5
493.919	1546.44
494.127	1506.92
494.334	1521.25
494.542	1462.55
494.75	1514.47
494.958	1491.61
495.166	1595.85
495.374	1526.1
495.581	1538.89
495.789	1576.47
495.997	1615.22
496.205	1527.84
496.412	1578.8
496.62	1546.25
496.828	1532.69
497.035	1554.77
497.243	1585.39
497.451	1570.08
497.658	1587.9
497.866	1573.57
498.074	1676.45
498.281	1576.09
498.489	1649.71
498.696	1582.48
498.904	1574.15
499.112	1526.87
499.319	1636.53
499.527	1578.8
499.734	1665.4
499.942	1588.68
500.149	1558.07
500.357	1627.04
500.564	1585.19
500.771	1618.32
500.979	1546.05
501.186	1553.42
501.394	1597.01
501.601	1558.84
501.808	1593.33
502.016	1536.56
502.223	1587.32
502.43	1586.16
502.638	1572.21
502.845	1576.47
503.052	1669.47
503.26	1618.71
503.467	1685.16
503.674	1626.65
503.881	1690.4
504.089	1716.16
504.296	1688.46
504.503	1579.57
504.71	1638.08
504.917	1602.63
505.125	1669.67
505.332	1676.83
505.539	1667.73
505.746	1744.06
505.953	1715.78
506.16	1725.85
506.367	1797.54
506.574	1816.53
506.781	1793.86
506.988	1741.93
507.195	1742.51
507.402	1713.84
507.609	1793.28
507.816	1734.76
508.023	1724.5
508.23	1711.71
508.437	1674.7
508.644	1722.75
508.851	1786.88
509.058	1815.36
509.265	1753.95
509.472	1794.63
509.679	1876.39
509.885	1811.88
510.092	1796.38
510.299	1793.28
510.506	1766.73
510.713	1759.95
510.92	1823.11
511.126	1818.08
511.333	1852.37
511.54	1849.27
511.746	1866.9
511.953	1940.33
512.16	1904.29
512.367	1875.81
512.573	1843.84
512.78	1876.78
512.987	1823.89
513.193	1822.53
513.4	1810.71
513.606	1829.7
513.813	1876.39
514.02	1830.48
514.226	1878.72
514.433	1882.98
514.639	1802.38
514.846	1857.79
515.052	1793.86
515.259	1865.74
515.465	1878.14
515.672	1869.42
515.878	1965.52
516.085	1937.23
516.291	1927.74
516.497	1888.99
516.704	1889.37
516.91	1815.75
517.117	1778.94
517.323	1668.12
517.529	1727.79
517.736	1709.19
517.942	1698.15
518.148	1742.9
518.354	1809.16
518.561	1795.99
518.767	1793.86
518.973	1818.85
519.179	1863.99
519.386	1847.53
519.592	1840.94
519.798	1859.34
520.004	1984.5
520.21	1939.75
520.417	2029.84
520.623	2029.84
520.829	2020.93
521.035	2039.14
521.241	2002.72
521.447	2078.47
521.653	2192.4
521.859	2032.75
522.065	2075.76
522.271	2178.83
522.477	2161.2
522.683	2186.97
522.889	2145.9
523.095	2122.06
523.301	2104.63
523.507	2055.22
523.713	2137.95
523.919	2103.47
524.125	2201.7
524.331	2179.61
524.537	2286.36
524.742	2278.03
524.948	2289.27
525.154	2248.97
525.36	2378.97
525.566	2280.74
525.772	2320.66
525.977	2223.59
526.183	2282.49
526.389	2331.7
526.595	2213.71
526.8	2218.74
527.006	2125.16
527.212	2086.22
527.417	2049.8
527.623	2031.59
527.829	2179.41
528.034	2242.77
528.24	2229.98
528.446	2212.16
528.651	2354.76
528.857	2330.92
529.062	2377.23
529.268	2354.76
529.473	2391.18
529.679	2435.94
529.884	2477.4
530.09	2453.57
530.295	2421.02
530.501	2464.03
530.706	2427.41
530.912	2408.04
531.117	2440.2
531.323	2439.42
531.528	2503.17
531.733	2507.82
531.939	2477.59
532.144	2518.47
532.35	2502.58
532.555	2488.05
532.76	2489.6
532.966	2481.66
533.171	2407.07
533.376	2401.84
533.581	2364.44
533.787	2418.69
533.992	2465
534.197	2502.97
534.402	2475.07
534.607	2520.99
534.813	2612.25
535.018	2486.31
535.223	2521.18
535.428	2520.41
535.633	2583.18
535.838	2600.04
536.043	2626.2
536.249	2721.13
536.454	2573.88
536.659	2630.85
536.864	2567.3
537.069	2552.38
537.274	2611.47
537.479	2607.79
537.684	2579.89
537.889	2461.12
538.094	2670.37
538.299	2576.01
538.504	2560.13
538.708	2573.5
538.913	2669.21
539.118	2582.02
539.323	2618.25
539.528	2588.41
539.733	2592.87
539.938	2614.38
540.142	2618.64
540.347	2529.32
540.552	2498.52
540.757	2553.93
540.962	2559.16
541.166	2458.99
541.371	2481.85
541.576	2558.77
541.781	2442.33
541.985	2595.2
542.19	2560.9
542.395	2666.3
542.599	2718.42
542.804	2641.89
543.008	2698.66
543.213	2607.01
543.418	2565.75
543.622	2643.25
543.827	2535.91
544.031	2649.06
544.236	2704.28
544.44	2701.56
544.645	2758.14
544.849	2689.94
545.054	2708.54
545.258	2798.05
545.463	2727.53
545.667	2653.9
545.872	2712.41
546.076	2709.31
546.281	2707.38
546.485	2632.78
546.689	2678.89
546.894	2720.55
547.098	2662.04
547.302	2685.29
547.507	2709.12
547.711	2762.21
547.915	2795.14
548.119	2651.19
548.324	2626.97
548.528	2725.2
548.732	2649.44
548.936	2756.78
549.141	2745.16
549.345	2693.43
549.549	2701.56
549.753	2743.8
549.957	2819.36
550.161	2773.64
550.366	2800.37
550.57	2643.44
550.774	2724.81
550.978	2742.83
551.182	2752.52
551.386	2689.16
551.59	2692.84
551.794	2686.26
551.998	2750.58
552.202	2714.93
552.406	2693.62
552.61	2750.58
552.814	2738.76
553.018	2774.99
553.222	2672.69
553.426	2703.89
553.63	2799.02
553.833	2737.79
554.037	2632.4
554.241	2707.57
554.445	2762.4
554.649	2697.3
554.853	2701.95
555.056	2793.4
555.26	2785.65
555.464	2756.39
555.668	2715.71
555.871	2755.81
556.075	2782.16
556.279	2734.11
556.483	2692.46
556.686	2683.35
556.89	2700.4
557.094	2710.48
557.297	2621.93
557.501	2744.96
557.704	2558.58
557.908	2710.48
558.112	2570.2
558.315	2715.13
558.519	2667.27
558.722	2626.78
558.926	2652.54
559.129	2554.12
559.333	2517.7
559.536	2524.87
559.74	2548.5
559.943	2491.73
560.147	2488.25
560.35	2476.04
560.553	2534.36
560.757	2482.05
560.96	2578.53
561.164	2558.58
561.367	2644.99
561.57	2599.85
561.774	2578.92
561.977	2547.73
562.18	2522.54
562.384	2597.52
562.587	2500.07
562.79	2520.22
562.993	2481.66
563.197	2530.68
563.4	2601.4
563.603	2621.74
563.806	2652.93
564.009	2508.4
564.212	2543.27
564.416	2446.98
564.619	2528.93
564.822	2455.89
565.025	2527.58
565.228	2487.28
565.431	2517.7
565.634	2392.54
565.837	2411.91
566.04	2411.33
566.243	2406.1
566.446	2290.82
566.649	2409.2
566.852	2390.02
567.055	2346.62
567.258	2429.93
567.461	2450.08
567.664	2471.78
567.867	2328.99
568.07	2382.46
568.273	2421.21
568.475	2473.72
568.678	2338.67
568.881	2324.34
569.084	2355.92
569.287	2242.96
569.489	2281.52
569.692	2350.3
569.895	2335.96
570.098	2259.63
570.3	2265.05
570.503	2175.93
570.706	2223.39
570.909	2191.81
571.111	2180.96
571.314	2186
571.516	2186.58
571.719	2201.11
571.922	2165.27
572.124	2185.42
572.327	2234.83
572.529	2177.09
572.732	2186.78
572.935	2245.68
573.137	2322.98
573.34	2198.98
573.542	2285.39
573.745	2231.53
573.947	2243.74
574.15	2222.81
574.352	2179.22
574.554	2251.49
574.757	2179.61
574.959	2099.4
575.162	2153.45
575.364	2112.96
575.566	2265.24
575.769	2141.05
575.971	2137.18
576.173	2007.95
576.376	2114.32
576.578	2128.46
576.78	2207.51
576.982	2046.12
577.185	2080.6
577.387	2065.3
577.589	2059.29
577.791	2104.24
577.993	2130.2
578.196	2085.83
578.398	2103.47
578.6	2097.27
578.802	2006.4
579.004	2008.72
579.206	2015.5
579.408	2080.41
579.61	2025
579.812	2076.53
580.014	1983.15
580.216	2023.06
580.418	1994.58
580.62	2018.02
580.822	2002.91
581.024	2055.8
581.226	2072.66
581.428	2011.44
581.63	2116.25
581.832	2004.85
582.034	2083.51
582.236	2041.27
582.438	2075.57
582.64	2114.7
582.841	2076.53
583.043	2150.16
583.245	2068.01
583.447	2059.29
583.649	2051.73
583.85	2057.93
584.052	2085.83
584.254	1988.38
584.456	2064.52
584.657	1940.52
584.859	2030.62
585.061	2008.72
585.262	2003.3
585.464	1920.37
585.666	2020.35
585.867	1970.75
586.069	2005.62
586.27	1971.14
586.472	1942.85
586.674	1949.63
586.875	1922.89
587.077	1938.78
587.278	1961.45
587.48	1918.63
587.681	2022.87
587.883	1965.13
588.084	1909.52
588.285	1916.11
588.487	1894.22
588.688	1973.65
588.89	1829.7
589.091	1807.61
589.292	1810.71
589.494	1747.55
589.695	1689.04
589.896	1674.9
590.098	1654.17
590.299	1706.48
590.5	1670.44
590.702	1760.73
590.903	1732.05
591.104	1845.78
591.305	1788.82
591.507	1861.67
591.708	1820.21
591.909	1846.36
592.11	1880.85
592.311	1824.08
592.512	1783.01
592.714	1761.31
592.915	1777.78
593.116	1800.06
593.317	1827.76
593.518	1777.19
593.719	1802.38
593.92	1847.91
594.121	1876.59
594.322	1799.28
594.523	1821.56
594.724	1757.63
594.925	1753.95
595.126	1805.68
595.327	1801.8
595.528	1833.38
595.729	1776.42
595.929	1760.15
596.13	1783.2
596.331	1845.78
596.532	1815.17
596.733	1868.84
596.934	1864.38
597.135	1856.63
597.335	1847.72
597.536	1751.04
597.737	1791.14
597.938	1772.93
598.138	1811.49
598.339	1783.2
598.54	1790.76
598.74	1785.91
598.941	1800.64
599.142	1833.58
599.342	1812.65
599.543	1733.6
599.744	1801.8
599.944	1779.33
600.145	1767.12
600.345	1797.73
600.546	1846.17
600.746	1843.65
600.947	1856.05
601.147	1801.8
601.348	1837.45
601.548	1747.94
601.749	1772.54
601.949	1705.51
602.15	1704.54
602.35	1753.75
602.551	1787.46
602.751	1742.32
602.951	1725.46
603.152	1675.09
603.352	1759.18
603.552	1757.82
603.753	1770.03
603.953	1770.03
604.153	1785.91
604.354	1750.65
604.554	1721.78
604.754	1788.04
604.954	1691.17
605.155	1770.22
605.355	1707.83
605.555	1786.49
605.755	1797.54
605.955	1723.53
606.155	1785.72
606.356	1744.65
606.556	1771.19
606.756	1765.18
606.956	1667.92
607.156	1803.93
607.356	1687.49
607.556	1751.81
607.756	1740.77
607.956	1765.57
608.156	1702.99
608.356	1692.91
608.556	1762.86
608.756	1718.88
608.956	1655.91
609.156	1689.62
609.356	1622.97
609.556	1657.65
609.755	1674.7
609.955	1628.59
610.155	1669.08
610.355	1682.26
610.555	1626.27
610.755	1666.37
610.954	1560.78
611.154	1654.94
611.354	1709.19
611.554	1607.86
611.753	1629.17
611.953	1579.57
612.153	1654.17
612.352	1651.65
612.552	1568.14
612.752	1564.07
612.951	1585.58
613.151	1631.3
613.351	1557.87
613.55	1596.43
613.75	1626.85
613.949	1604.37
614.149	1589.65
614.348	1567.17
614.548	1554.77
614.747	1477.27
614.947	1519.7
615.146	1492.19
615.346	1621.81
615.545	1591
615.745	1584.22
615.944	1606.31
616.144	1539.27
616.343	1579.19
616.542	1519.51
616.742	1542.18
616.941	1525.32
617.14	1430
617.34	1535.01
617.539	1487.93
617.738	1467.01
617.938	1572.79
618.137	1495.49
618.336	1467.01
618.535	1552.84
618.734	1528.62
618.934	1547.99
619.133	1522.42
619.332	1547.02
619.531	1486.57
619.73	1518.93
619.929	1554.97
620.128	1517.57
620.328	1566.2
620.527	1478.44
620.726	1490.64
620.925	1510.79
621.124	1520.29
621.323	1533.65
621.522	1460.81
621.721	1466.42
621.92	1426.51
622.119	1490.06
622.318	1428.45
622.517	1467.2
622.715	1453.83
622.914	1402.88
623.113	1484.25
623.312	1383.69
623.511	1494.32
623.71	1467.2
623.909	1436.2
624.107	1480.57
624.306	1398.61
624.505	1394.54
624.704	1408.88
624.902	1395.51
625.101	1459.45
625.3	1420.12
625.499	1367.03
625.697	1399.58
625.896	1363.16
626.095	1380.98
626.293	1329.64
626.492	1373.43
626.69	1407.33
626.889	1365.87
627.088	1436.2
627.286	1368.19
627.485	1368.19
627.683	1349.59
627.882	1429.81
628.08	1309.3
628.279	1354.83
628.477	1402.1
628.676	1300.38
628.874	1378.85
629.073	1325.18
629.271	1309.68
629.469	1373.04
629.668	1353.47
629.866	1356.38
630.065	1332.35
630.263	1388.34
630.461	1292.25
630.66	1345.53
630.858	1318.4
631.056	1376.72
631.254	1382.34
631.453	1305.03
631.651	1380.59
631.849	1320.15
632.047	1349.79
632.245	1330.61
632.444	1331.38
632.642	1345.14
632.84	1352.89
633.038	1300
633.236	1322.08
633.434	1326.15
633.632	1295.73
633.83	1264.73
634.028	1372.84
634.227	1318.4
634.425	1415.08
634.623	1320.53
634.821	1340.88
635.019	1274.42
635.216	1297.86
635.414	1339.52
635.612	1313.56
635.81	1334.68
636.008	1376.72
636.206	1311.81
636.404	1349.79
636.602	1289.53
636.8	1340.29
636.997	1314.33
637.195	1329.64
637.393	1322.08
637.591	1364.51
637.789	1349.98
637.986	1346.11
638.184	1319.76
638.382	1357.15
638.58	1313.36
638.777	1404.62
638.975	1318.6
639.173	1328.28
639.37	1329.06
639.568	1337
639.765	1319.56
639.963	1303.48
640.161	1339.52
640.358	1337.58
640.556	1262.99
640.753	1261.25
640.951	1241.87
641.148	1293.21
641.346	1271.13
641.543	1266.48
641.741	1294.96
641.938	1214.17
642.136	1252.53
642.333	1236.83
642.531	1314.53
642.728	1333.13
642.925	1275
643.123	1227.15
643.32	1256.79
643.517	1237.42
643.715	1227.15
643.912	1282.75
644.109	1292.83
644.306	1243.03
644.504	1184.72
644.701	1246.71
644.898	1278.49
645.095	1215.52
645.293	1258.15
645.49	1279.85
645.687	1226.57
645.884	1261.44
646.081	1148.68
646.278	1197.31
646.475	1194.21
646.672	1201.96
646.87	1212.42
647.067	1212.03
647.264	1227.34
647.461	1151.39
647.658	1097.34
647.855	1211.26
648.052	1150.42
648.249	1071.76
648.446	1142.29
648.642	1111.29
648.839	1095.01
649.036	1138.02
649.233	1114.58
649.43	1102.95
649.627	1106.05
649.824	1123.49
650.021	1077.38
650.217	1086.68
650.414	1084.74
650.611	1122.72
650.808	1137.83
651.004	1134.73
651.201	1149.26
651.398	1208.55
651.595	1132.79
651.791	1076.99
651.988	1171.73
652.185	1105.67
652.381	1121.17
652.578	1053.16
652.775	1108.96
652.971	1132.21
653.168	1129.89
653.364	1128.72
653.561	1069.63
653.757	1097.53
653.954	1117.29
654.15	1086.87
654.347	1170.18
654.543	1094.62
654.74	1059.36
654.936	1021.39
655.133	1124.46
655.329	1070.99
655.525	1068.08
655.722	1113.8
655.918	1036.11
656.115	1062.27
656.311	978.38
656.507	960.55
656.704	881.5
656.9	919.86
657.096	932.46
657.292	911.53
657.489	979.15
657.685	970.63
657.881	954.93
658.077	972.37
658.273	1025.46
658.47	1070.4
658.666	1027.78
658.862	1084.74
659.058	1019.45
659.254	1062.46
659.45	1057.42
659.646	1061.3
659.842	1013.06
660.038	1076.6
660.234	1039.6
660.43	1029.91
660.626	1122.33
660.822	1073.7
661.018	1097.53
661.214	1044.64
661.41	1012.28
661.606	1065.76
661.802	1081.06
661.998	1039.41
662.194	1017.9
662.39	1053.36
662.586	1058.01
662.781	1064.79
662.977	1075.64
663.173	1060.14
663.369	1050.64
663.564	1036.69
663.76	1081.25
663.956	1028.36
664.152	1059.17
664.347	964.23
664.543	1063.62
664.739	990.58
664.934	954.35
665.13	976.44
665.326	1034.76
665.521	1023.91
665.717	981.28
665.912	939.63
666.108	918.31
666.304	964.81
666.499	994.84
666.695	917.73
666.89	980.31
667.086	1017.9
667.281	1011.89
667.477	1061.49
667.672	988.64
667.867	972.76
668.063	977.41
668.258	962.29
668.454	943.5
668.649	1041.15
668.844	982.25
669.04	995.42
669.235	960.36
669.43	953.58
669.626	913.66
669.821	944.08
670.016	921.99
670.211	972.37
670.407	922.38
670.602	990.58
670.797	986.71
670.992	997.56
671.187	912.11
671.382	964.23
671.578	926.84
671.773	991.36
671.968	918.51
672.163	954.74
672.358	964.81
672.553	919.09
672.748	908.82
672.943	1042.12
673.138	943.69
673.333	950.48
673.528	904.56
673.723	959.39
673.918	941.56
674.113	899.71
674.308	1018.48
674.503	983.99
674.698	977.21
674.892	950.86
675.087	977.21
675.282	941.56
675.477	891
675.672	965.59
675.867	909.98
676.061	894.1
676.256	880.73
676.451	893.51
676.646	921.61
676.84	862.32
677.035	853.8
677.23	896.03
677.424	968.11
677.619	947.57
677.814	969.46
678.008	952.99
678.203	878.01
678.397	879.76
678.592	905.33
678.787	966.94
678.981	892.35
679.176	921.22
679.37	935.94
679.565	902.43
679.759	898.74
679.954	906.69
680.148	957.26
680.342	968.3
680.537	924.9
680.731	916.96
680.926	921.03
681.12	974.69
681.314	885.18
681.509	907.85
681.703	928.39
681.897	934.59
682.092	896.42
682.286	893.51
682.48	983.61
682.674	992.91
682.869	903.2
683.063	917.34
683.257	973.53
683.451	891.19
683.645	921.41
683.839	898.16
684.034	919.86
684.228	957.26
684.422	840.62
684.616	863.1
684.81	903.98
685.004	878.01
685.198	915.99
685.392	915.02
685.586	858.25
685.78	924.51
685.974	904.94
686.168	949.12
686.362	961.13
686.556	845.46
686.75	818.53
686.944	844.3
687.138	831.51
687.331	758.67
687.525	776.88
687.719	703.64
687.913	769.32
688.107	781.33
688.301	717.2
688.494	815.82
688.688	771.65
688.882	754.21
689.076	695.31
689.269	773.97
689.463	857.67
689.657	773.2
689.85	781.14
690.044	787.73
690.238	808.65
690.431	789.47
690.625	766.61
690.818	827.06
691.012	812.91
691.205	860.38
691.399	816.4
691.593	835.97
691.786	875.69
691.98	890.8
692.173	933.23
692.366	871.23
692.56	875.3
692.753	942.34
692.947	835.78
693.14	942.92
693.333	934.2
693.527	862.13
693.72	929.16
693.914	873.36
694.107	902.62
694.3	934.01
694.493	891.38
694.687	970.82
694.88	894.1
695.073	937.11
695.266	947.18
695.46	883.83
695.653	940.21
695.846	976.63
696.039	875.88
696.232	935.36
696.425	998.14
696.618	989.03
696.812	1002.4
697.005	1059.94
697.198	1149.45
697.391	1073.5
697.584	1070.6
697.777	1124.07
697.97	1102.18
698.163	1147.71
698.356	1117.29
698.549	1158.37
698.742	1118.07
698.935	1077.96
699.127	1141.12
699.32	1084.55
699.513	1110.12
699.706	1124.65
699.899	1137.25
700.092	1095.01
700.285	1172.7
700.477	1110.32
700.67	1175.42
700.863	1207.77
701.056	1287.21
701.248	1241.68
701.441	1254.27
701.634	1213
701.826	1302.13
702.019	1206.42
702.212	1276.36
702.404	1218.23
702.597	1242.84
702.79	1261.63
702.982	1291.28
703.175	1324.99
703.367	1348.24
703.56	1335.84
703.752	1451.51
703.945	1399.78
704.137	1432.91
704.33	1468.56
704.522	1436.01
704.715	1468.75
704.907	1478.44
705.1	1525.71
705.292	1525.71
705.484	1475.92
705.677	1566.2
705.869	1581.51
706.061	1609.22
706.254	1643.51
706.446	1607.47
706.638	1629.56
706.831	1688.65
707.023	1671.99
707.215	1754.33
707.407	1761.5
707.599	1702.8
707.792	1796.76
707.984	1788.04
708.176	1816.91
708.368	1786.88
708.56	1856.83
708.752	1829.51
708.944	1788.82
709.136	1867.09
709.329	1846.56
709.521	2002.14
709.713	1918.24
709.905	1940.72
710.097	1997.87
710.289	1914.17
710.481	1967.84
710.672	2004.46
710.864	2004.27
711.056	2078.28
711.248	2079.05
711.44	2092.42
711.632	2076.92
711.824	2123.23
712.016	2207.31
712.207	2192.2
712.399	2218.94
712.591	2225.53
712.783	2228.63
712.975	2271.64
713.166	2234.24
713.358	2283.26
713.55	2350.49
713.741	2359.99
713.933	2368.32
714.125	2371.42
714.316	2361.73
714.508	2419.66
714.7	2435.35
714.891	2457.44
715.083	2485.15
715.274	2434.58
715.466	2507.62
715.657	2555.28
715.849	2420.05
716.04	2536.88
716.232	2459.57
716.423	2552.57
716.615	2472.94
716.806	2437.29
716.998	2451.24
717.189	2351.27
717.381	2290.24
717.572	2257.49
717.763	2277.84
717.955	2284.04
718.146	2284.04
718.337	2198.98
718.528	2203.44
718.72	2113.15
718.911	2191.62
719.102	2135.43
719.293	2189.68
719.485	2189.68
719.676	2186.39
719.867	2127.3
720.058	2184.45
720.249	2174.38
720.44	2226.11
720.632	2266.41
720.823	2317.94
721.014	2435.94
721.205	2486.31
721.396	2558.96
721.587	2691.29
721.778	2702.34
721.969	2709.51
722.16	2806.19
722.351	2800.96
722.542	2933.48
722.733	2975.13
722.924	2881.36
723.115	2985.21
723.305	2897.44
723.496	2998.58
723.687	2820.52
723.878	2849
724.069	2870.9
724.26	2856.75
724.45	2815.49
724.641	2798.44
724.832	2882.72
725.023	2810.64
725.213	2840.87
725.404	2836.99
725.595	2872.45
725.785	2798.05
725.976	2935.03
726.167	2915.65
726.357	2892.79
726.548	3091.19
726.739	2983.27
726.929	3045.66
727.12	3123.74
727.31	3121.03
727.501	3056.31
727.691	3146.6
727.882	3090.99
728.072	3167.72
728.263	3123.74
728.453	3217.9
728.644	3248.51
728.834	3229.72
729.024	3203.37
729.215	3130.33
729.405	3245.8
729.596	3320.78
729.786	3293.46
729.976	3365.92
730.167	3386.27
730.357	3351.97
730.547	3336.09
730.737	3381.23
730.928	3403.51
731.118	3494.57
731.308	3409.13
731.498	3396.15
731.688	3488.76
731.879	3558.7
732.069	3615.86
732.259	3651.12
732.449	3675.34
732.639	3718.93
732.829	3787.9
733.019	3816.97
733.209	3920.04
733.399	3929.92
733.589	3972.74
733.779	3985.72
733.969	3996.18
734.159	4079.88
734.349	4120.18
734.539	4185.28
734.729	4213.95
734.919	4189.54
735.109	4332.14
735.299	4194.19
735.488	4250.77
735.678	4272.47
735.868	4279.44
736.058	4253.87
736.248	4262
736.437	4230.62
736.627	4189.54
736.817	4333.69
737.007	4236.04
737.196	4319.16
737.386	4354.23
737.576	4250.96
737.765	4373.6
737.955	4354.81
738.144	4512.32
738.334	4448.58
738.524	4399.18
738.713	4422.43
738.903	4410.41
739.092	4478.61
739.282	4449.55
739.471	4499.54
739.661	4458.85
739.85	4499.92
740.04	4472.41
740.229	4542.55
740.419	4551.46
740.608	4588.66
740.797	4618.89
740.987	4628.96
741.176	4635.94
741.365	4572.58
741.555	4554.56
741.744	4653.95
741.933	4605.13
742.123	4623.34
742.312	4643.49
742.501	4669.07
742.69	4694.64
742.88	4605.32
743.069	4768.26
743.258	4735.91
743.447	4718.86
743.636	4757.61
743.825	4703.36
744.014	4776.98
744.204	4776.6
744.393	4721.57
744.582	4790.93
744.771	4825.03
744.96	4743.66
745.149	4801.4
745.338	4752.57
745.527	4862.04
745.716	4805.27
745.905	4744.63
746.094	4880.06
746.283	4864.36
746.471	4835.11
746.66	4894.78
746.849	4863.01
747.038	4899.24
747.227	4868.82
747.416	4872.89
747.604	4801.01
747.793	4819.03
747.982	4864.17
748.171	4873.47
748.359	4863.39
748.548	4885.09
748.737	4866.49
748.926	4850.99
749.114	4742.5
749.303	4863.01
749.491	4833.56
749.68	4732.23
749.869	4877.34
750.057	4784.93
750.246	4784.15
750.434	4802.36
750.623	4762.06
750.811	4732.42
751	4848.86
751.188	4824.06
751.377	4824.26
751.565	4762.06
751.754	4736.88
751.942	4693.87
752.131	4855.06
752.319	4772.72
752.507	4729.52
752.696	4806.43
752.884	4823.48
753.072	4747.15
753.261	4775.43
753.449	4769.62
753.637	4711.88
753.825	4839.95
754.014	4733.58
754.202	4741.14
754.39	4768.07
754.578	4810.11
754.766	4714.21
754.955	4723.32
755.143	4787.83
755.331	4742.5
755.519	4744.05
755.707	4716.92
755.895	4685.92
756.083	4703.55
756.271	4648.72
756.459	4695.42
756.647	4725.06
756.835	4640.78
757.023	4643.69
757.211	4626.83
757.399	4698.32
757.587	4629.74
757.775	4563.47
757.963	4588.47
758.151	4652.6
758.339	4621.79
758.526	4560.18
758.714	4597.38
758.902	4506.32
759.09	4400.14
759.278	4194
759.465	3919.07
759.653	3527.12
759.841	3242.12
760.028	2812.77
760.216	2522.35
760.404	2354.37
760.591	2023.25
760.779	1783.01
760.967	1572.6
761.154	1406.75
761.342	1473.79
761.529	1457.9
761.717	1587.13
761.905	1566.4
762.092	1696.6
762.28	1655.33
762.467	1692.33
762.655	1633.24
762.842	1678.38
763.029	1699.5
763.217	1761.89
763.404	1735.54
763.592	1785.33
763.779	1728.56
763.966	1818.66
764.154	1878.52
764.341	1928.12
764.528	1965.71
764.716	2017.83
764.903	2073.05
765.09	2172.44
765.277	2198.98
765.465	2379.17
765.652	2475.65
765.839	2524.28
766.026	2668.63
766.213	2716.68
766.4	2879.04
766.588	3015.82
766.775	3085.38
766.962	3167.14
767.149	3250.06
767.336	3432.76
767.523	3362.82
767.71	3522.47
767.897	3650.15
768.084	3744.12
768.271	3749.54
768.458	3792.36
768.645	3894.08
768.832	3835.18
769.019	3879.16
769.206	3921.59
769.392	4009.16
769.579	4114.76
769.766	4049.07
769.953	4039.39
770.14	4080.27
770.327	4056.24
770.513	4132.77
770.7	4200
770.887	4073.87
771.073	4121.15
771.26	4108.75
771.447	4065.35
771.634	4038.81
771.82	4190.7
772.007	4012.46
772.193	4115.14
772.38	4117.47
772.567	4107.01
772.753	4108.56
772.94	4129.87
773.126	4127.16
773.313	4130.25
773.499	4089.96
773.686	4140.33
773.872	4087.24
774.059	4084.92
774.245	4056.24
774.432	4046.36
774.618	3957.43
774.804	4039.19
774.991	4002.58
775.177	4044.62
775.363	4028.15
775.55	4013.62
775.736	4070
775.922	3994.44
776.109	3992.11
776.295	4035.32
776.481	4007.42
776.667	4038.81
776.853	3972.93
777.04	3950.46
777.226	3982.62
777.412	4054.69
777.598	3934.57
777.784	3947.75
777.97	3967.89
778.156	3964.02
778.342	3915.97
778.528	3924.69
778.715	3821.81
778.901	3844.67
779.087	3901.25
779.272	3841.96
779.458	3872.76
779.644	3869.28
779.83	3781.32
780.016	3953.17
780.202	3845.25
780.388	3823.17
780.574	3752.64
780.76	3810.38
780.946	3849.71
781.131	3798.17
781.317	3784.61
781.503	3788.1
781.689	3776.09
781.874	3875.67
782.06	3760.59
782.246	3785
782.432	3750.51
782.617	3801.47
782.803	3786.55
782.989	3733.85
783.174	3734.43
783.36	3642.01
783.545	3690.64
783.731	3641.43
783.916	3599.19
784.102	3707.69
784.288	3634.26
784.473	3669.91
784.659	3608.88
784.844	3667.59
785.029	3565.09
785.215	3586.02
785.4	3568.97
785.586	3676.5
785.771	3561.8
785.956	3605.97
786.142	3580.79
786.327	3543.2
786.512	3583.89
786.698	3531.38
786.883	3490.11
787.068	3498.64
787.254	3558.7
787.439	3501.74
787.624	3489.53
787.809	3454.46
787.994	3422.5
788.18	3543.2
788.365	3419.01
788.55	3450.01
788.735	3446.71
788.92	3431.6
789.105	3439.55
789.29	3464.15
789.475	3337.64
789.66	3368.63
789.845	3366.31
790.03	3322.52
790.215	3418.43
790.4	3433.15
790.585	3410.29
790.77	3368.63
790.955	3294.43
791.14	3311.87
791.325	3447.3
791.51	3217.71
791.695	3321.36
791.879	3296.75
792.064	3248.12
792.249	3354.3
792.434	3328.34
792.618	3308.38
792.803	3324.65
792.988	3296.56
793.173	3319.62
793.357	3334.34
793.542	3229.14
793.727	3268.08
793.911	3322.52
794.096	3256.84
794.281	3343.83
794.465	3396.92
794.65	3300.05
794.834	3367.47
795.019	3387.43
795.203	3370.38
795.388	3351.78
795.572	3409.52
795.757	3365.53
795.941	3362.82
796.126	3382.58
796.31	3303.73
796.494	3343.06
796.679	3358.95
796.863	3312.06
797.048	3407.58
797.232	3354.49
797.416	3370.38
797.601	3383.55
797.785	3435.48
797.969	3423.66
798.153	3356.62
798.338	3402.35
798.522	3463.38
798.706	3422.88
798.89	3423.85
799.074	3521.31
799.258	3494.96
799.443	3417.85
799.627	3429.28
799.811	3472.1
799.995	3406.61
800.179	3362.43
800.363	3401.96
800.547	3402.93
800.731	3450.98
800.915	3332.99
801.099	3350.03
801.283	3364.76
801.467	3372.9
801.651	3337.05
801.835	3418.43
802.019	3424.82
802.202	3406.22
802.386	3336.09
802.57	3315.16
802.754	3338.6
802.938	3283.39
803.121	3306.25
803.305	3445.55
803.489	3342.67
803.673	3360.88
803.856	3416.1
804.04	3361.85
804.224	3358.95
804.407	3344.42
804.591	3308.57
804.775	3380.65
804.958	3376.97
805.142	3465.9
805.326	3361.66
805.509	3344.8
805.693	3415.52
805.876	3394.98
806.06	3423.08
806.243	3394.21
806.427	3417.07
806.61	3463.76
806.794	3403.12
806.977	3387.43
807.16	3392.47
807.344	3410.68
807.527	3317.29
807.71	3343.25
807.894	3353.72
808.077	3405.45
808.26	3286.29
808.444	3317.29
808.627	3425.21
808.81	3327.75
808.993	3264.2
809.177	3250.64
809.36	3266.14
809.543	3319.23
809.726	3205.31
809.909	3203.76
810.092	3189.03
810.276	3128.58
810.459	3193.68
810.642	3132.84
810.825	3119.67
811.008	3158.61
811.191	3055.35
811.374	3055.54
811.557	3093.71
811.74	3149.51
811.923	2984.82
812.106	3026.48
812.289	2981.33
812.472	3029
812.654	2965.06
812.837	2942.2
813.02	2883.3
813.203	2869.54
813.386	2773.64
813.569	2756.59
813.751	2686.84
813.934	2729.46
814.117	2710.09
814.3	2635.69
814.482	2593.06
814.665	2584.54
814.848	2527.58
815.03	2452.6
815.213	2470.62
815.396	2454.92
815.578	2397.57
815.761	2408.62
815.943	2410.36
816.126	2307.29
816.309	2282.68
816.491	2228.43
816.674	2137.18
816.856	2210.22
817.039	2233.47
817.221	2270.86
817.403	2247.03
817.586	2248.58
817.768	2278.61
817.951	2187.75
818.133	2128.07
818.315	2176.12
818.498	2243.93
818.68	2298.57
818.862	2233.08
819.045	2291.79
819.227	2266.79
819.409	2242.19
819.591	2262.14
819.774	2230.37
819.956	2212.93
820.138	2287.72
820.32	2288.88
820.502	2331.31
820.684	2426.44
820.866	2428.77
821.048	2452.79
821.231	2467.13
821.413	2474.49
821.595	2435.35
821.777	2424.89
821.959	2440
822.141	2510.92
822.323	2338.67
822.505	2329.57
822.686	2261.37
822.868	2192.4
823.05	2035.27
823.232	2012.6
823.414	1933.74
823.596	1998.07
823.778	1973.85
823.96	2037.2
824.141	2042.43
824.323	2014.15
824.505	2112.77
824.687	2175.73
824.868	2218.36
825.05	2342.55
825.232	2364.83
825.413	2449.3
825.595	2395.05
825.777	2365.22
825.958	2341.97
826.14	2354.76
826.321	2402.22
826.503	2349.72
826.685	2367.16
826.866	2431.29
827.048	2401.84
827.229	2350.88
827.411	2311.55
827.592	2283.84
827.773	2267.96
827.955	2231.53
828.136	2235.99
828.318	2142.8
828.499	2212.54
828.68	2126.13
828.862	2153.65
829.043	2200.53
829.224	2134.66
829.406	2135.82
829.587	2140.28
829.768	2122.26
829.949	2124.97
830.131	2153.65
830.312	2229.79
830.493	2115.67
830.674	2182.71
830.855	2142.41
831.036	2147.25
831.218	2183.1
831.399	2249.74
831.58	2172.44
831.761	2173.02
831.942	2158.49
832.123	2115.87
832.304	2088.93
832.485	2109.47
832.666	2109.28
832.847	2167.6
833.028	2164.5
833.209	2141.63
833.389	2118
833.57	2056.58
833.751	2104.82
833.932	2141.25
834.113	2108.89
834.294	2084.09
834.475	2164.5
834.655	2199.37
834.836	2136.79
835.017	2152.29
835.198	2071.5
835.378	2129.62
835.559	2210.22
835.74	2152.1
835.92	2167.01
836.101	2138.15
836.281	2157.13
836.462	2150.35
836.643	2213.71
836.823	2226.11
837.004	2217.97
837.184	2257.3
837.365	2212.16
837.545	2229.4
837.726	2181.55
837.906	2223.78
838.087	2176.12
838.267	2189.88
838.448	2144.35
838.628	2162.75
838.808	2188.52
838.989	2254.2
839.169	2145.51
839.349	2207.31
839.53	2203.05
839.71	2215.64
839.89	2158.49
840.07	2243.16
840.251	2131.95
840.431	2160.62
840.611	2164.88
840.791	2148.22
840.971	2151.13
841.151	2175.93
841.332	2100.56
841.512	2224.36
841.692	2105.4
841.872	2154.42
842.052	2162.75
842.232	2182.13
842.412	2080.41
842.592	2132.91
842.772	2156.55
842.952	2168.18
843.132	2114.32
843.312	2087.58
843.492	2076.15
843.672	2147.06
843.851	2071.5
844.031	2115.87
844.211	2068.01
844.391	2043.79
844.571	2095.91
844.751	2130.4
844.93	2126.71
845.11	2040.69
845.29	2081.57
845.47	2105.6
845.649	2101.72
845.829	2097.85
846.009	2040.88
846.188	2073.05
846.368	2083.51
846.547	2042.05
846.727	2101.72
846.907	2039.53
847.086	2085.45
847.266	2090.87
847.445	2010.08
847.625	2032.17
847.804	2007.75
847.984	2054.64
848.163	1971.52
848.343	2015.5
848.522	2016.28
848.701	2028.1
848.881	2006.01
849.06	2017.44
849.239	2016.47
849.419	2014.73
849.598	1919.02
849.777	1908.36
849.957	1931.61
850.136	1836.68
850.315	1836.68
850.494	1836.68
850.674	1873.87
850.853	1906.23
851.032	1875.42
851.211	1952.15
851.39	1905.26
851.569	1817.11
851.748	1829.89
851.927	1921.92
852.107	1880.27
852.286	1829.7
852.465	1826.99
852.644	1940.14
852.823	1860.89
853.002	1863.41
853.181	1846.75
853.359	1892.67
853.538	1821.18
853.717	1870.77
853.896	1757.82
854.075	1700.08
854.254	1654.94
854.433	1584.03
854.611	1630.53
854.79	1566.01
854.969	1629.37
855.148	1664.24
855.327	1571.05
855.505	1672.18
855.684	1678.38
855.863	1720.43
856.041	1641.38
856.22	1712.87
856.399	1708.41
856.577	1812.07
856.756	1766.73
856.934	1880.85
857.113	1838.23
857.291	1795.6
857.47	1751.04
857.648	1765.38
857.827	1760.73
858.005	1817.49
858.184	1779.71
858.362	1857.02
858.541	1801.22
858.719	1779.13
858.898	1768.09
859.076	1728.18
859.254	1840.94
859.433	1753.56
859.611	1701.63
859.789	1734.57
859.967	1767.12
860.146	1834.35
860.324	1714.61
860.502	1694.66
860.68	1680.52
860.859	1677.03
861.037	1709
861.215	1743.87
861.393	1716.94
861.571	1714.23
861.749	1661.92
861.927	1723.33
862.105	1681.29
862.283	1702.02
862.461	1672.77
862.639	1663.66
862.817	1652.03
862.995	1695.82
863.173	1651.65
863.351	1677.22
863.529	1669.08
863.707	1733.41
863.885	1662.3
864.063	1603.98
864.241	1627.23
864.418	1704.54
864.596	1642.54
864.774	1604.18
864.952	1648.74
865.129	1655.91
865.307	1573.18
865.485	1580.35
865.663	1652.81
865.84	1555.94
866.018	1552.64
866.196	1410.24
866.373	1433.1
866.551	1400.16
866.728	1332.93
866.906	1379.63
867.084	1427.87
867.261	1476.69
867.439	1461.19
867.616	1505.37
867.794	1471.07
867.971	1524.35
868.149	1495.29
868.326	1592.94
868.503	1564.07
868.681	1531.52
868.858	1499.94
869.035	1506.72
869.213	1520.48
869.39	1498.59
869.567	1591
869.745	1470.3
869.922	1524.94
870.099	1556.52
870.276	1549.15
870.454	1503.24
870.631	1539.27
870.808	1521.64
870.985	1513.7
871.162	1597.98
871.339	1530.75
871.517	1458.09
871.694	1459.45
871.871	1481.34
872.048	1461.97
872.225	1460.22
872.402	1482.7
872.579	1392.41
872.756	1477.08
872.933	1401.52
873.11	1432.71
873.287	1493.55
873.463	1439.69
873.64	1403.26
873.817	1443.76
873.994	1446.47
874.171	1410.24
874.348	1456.16
874.524	1364.51
874.701	1385.24
874.878	1358.89
875.055	1424.57
875.231	1395.51
875.408	1416.05
875.585	1343.2
875.762	1433.49
875.938	1362.77
876.115	1360.06
876.291	1361.8
876.468	1356.76
876.645	1352.5
876.821	1362.58
876.998	1372.07
877.174	1392.8
877.351	1369.94
877.527	1328.28
877.704	1368.78
877.88	1340.49
878.057	1327.9
878.233	1365.87
878.409	1330.8
878.586	1360.64
878.762	1334.09
878.938	1351.14
879.115	1255.24
879.291	1337.39
879.467	1249.23
879.644	1275.97
879.82	1365.29
879.996	1295.54
880.172	1237.22
880.349	1309.49
880.525	1331.96
880.701	1271.71
880.877	1235.09
881.053	1278.68
881.229	1220.56
881.405	1320.53
881.581	1229.86
881.757	1266.28
881.933	1306.58
882.109	1314.91
882.285	1296.9
882.461	1211.84
882.637	1270.55
882.813	1239.35
882.989	1248.85
883.165	1336.23
883.341	1211.65
883.517	1287.01
883.693	1284.88
883.869	1299.03
884.044	1239.16
884.22	1307.36
884.396	1346.88
884.572	1315.88
884.747	1312.78
884.923	1333.9
885.099	1311.23
885.275	1280.04
885.45	1296.51
885.626	1268.22
885.801	1224.82
885.977	1248.26
886.153	1182.58
886.328	1276.16
886.504	1208.35
886.679	1273.84
886.855	1221.53
887.03	1278.1
887.206	1312.98
887.381	1268.8
887.557	1282.36
887.732	1288.18
887.908	1270.74
888.083	1290.31
888.258	1244.78
888.434	1242.65
888.609	1270.93
888.784	1306.78
888.96	1243.42
889.135	1256.79
889.31	1235.09
889.485	1256.98
889.661	1264.15
889.836	1296.31
890.011	1267.45
890.186	1246.33
890.361	1246.13
890.537	1271.51
890.712	1256.98
890.887	1303.1
891.062	1252.33
891.237	1329.06
891.412	1219.01
891.587	1296.12
891.762	1303.48
891.937	1323.83
892.112	1205.45
892.287	1230.44
892.462	1204.67
892.637	1164.37
892.812	1161.66
892.987	1196.34
893.161	1173.28
893.336	1172.12
893.511	1172.12
893.686	1194.6
893.861	1167.08
894.035	1165.92
894.21	1188.98
894.385	1088.23
894.56	1180.07
894.734	1076.8
894.909	1098.3
895.084	1098.89
895.258	1090.75
895.433	1073.31
895.608	1054.71
895.782	1001.82
895.957	1053.16
896.131	1061.88
896.306	967.72
896.48	957.84
896.655	969.27
896.829	911.53
897.004	896.61
897.178	920.64
897.353	908.43
897.527	971.79
897.701	887.7
897.876	860.96
898.05	971.59
898.224	913.47
898.399	966.56
898.573	894.1
898.747	791.99
898.921	884.41
899.096	735.42
899.27	729.02
899.444	768.74
899.618	773.58
899.792	804.39
899.967	799.55
900.141	866
900.315	791.22
900.489	799.74
900.663	804.39
900.837	805.17
901.011	761.96
901.185	886.93
901.359	791.99
901.533	815.24
901.707	825.12
901.881	816.6
902.055	741.81
902.229	779.01
902.403	858.64
902.576	808.07
902.75	811.36
902.924	906.88
903.098	873.17
903.272	921.99
903.446	972.37
903.619	921.22
903.793	972.76
903.967	952.22
904.14	984.96
904.314	990.58
904.488	970.24
904.661	1000.46
904.835	975.08
905.009	1017.9
905.182	1062.46
905.356	1004.92
905.529	964.62
905.703	962.29
905.876	944.47
906.05	910.18
906.223	895.26
906.397	847.79
906.57	813.5
906.744	794.51
906.917	830.35
907.09	801.48
907.264	822.6
907.437	731.54
907.61	719.92
907.784	749.37
907.957	737.55
908.13	698.6
908.304	802.65
908.477	726.12
908.65	729.6
908.823	682.72
908.996	786.57
909.17	703.25
909.343	682.14
909.516	725.15
909.689	733.48
909.862	698.02
910.035	729.22
910.208	677.49
910.381	677.49
910.554	765.64
910.727	673.8
910.9	698.6
911.073	687.95
911.246	752.47
911.419	767.77
911.592	731.54
911.765	718.17
911.938	699.77
912.11	688.34
912.283	706.94
912.456	755.57
912.629	706.55
912.802	667.99
912.974	675.74
913.147	612
913.32	535.28
913.493	593.59
913.665	637.77
913.838	626.34
914.01	648.04
914.183	619.17
914.356	622.66
914.528	675.55
914.701	727.86
914.873	668.96
915.046	621.49
915.218	588.36
915.391	519
915.563	552.32
915.736	608.12
915.908	634.09
916.081	600.96
916.253	585.84
916.425	624.98
916.598	622.46
916.77	621.49
916.942	608.71
917.115	532.95
917.287	580.03
917.459	574.02
917.632	542.44
917.804	516.29
917.976	560.27
918.148	578.67
918.32	589.33
918.493	630.21
918.665	644.16
918.837	640.29
919.009	660.63
919.181	691.24
919.353	631.76
919.525	624.59
919.697	628.47
919.869	610.84
920.041	701.51
920.213	734.06
920.385	648.42
920.557	648.62
920.729	667.99
920.901	675.35
921.073	623.82
921.244	626.72
921.416	659.27
921.588	625.95
921.76	617.81
921.932	687.95
922.103	601.92
922.275	623.24
922.447	633.89
922.619	563.17
922.79	601.15
922.962	586.04
923.134	639.7
923.305	557.17
923.477	565.31
923.648	527.72
923.82	580.22
923.991	512.8
924.163	501.76
924.335	548.84
924.506	524.81
924.677	611.61
924.849	521.52
925.02	529.46
925.192	603.09
925.363	552.32
925.535	560.27
925.706	533.14
925.877	584.29
926.049	510.67
926.22	558.14
926.391	567.24
926.562	581.97
926.734	540.7
926.905	558.52
927.076	502.73
927.247	492.26
927.419	475.41
927.59	448.86
927.761	483.35
927.932	445.18
928.103	484.71
928.274	443.63
928.445	415.54
928.616	390.74
928.787	401.78
928.958	451.38
929.129	434.53
929.3	415.93
929.471	368.27
929.642	310.92
929.813	275.85
929.984	362.84
930.155	278.95
930.326	345.98
930.496	290.96
930.667	240.39
930.838	257.83
931.009	241.36
931.18	259.38
931.35	256.09
931.521	248.72
931.692	207.26
931.863	139.64
932.033	217.53
932.204	214.43
932.374	208.23
932.545	139.06
932.716	205.9
932.886	220.44
933.057	98.18
933.227	124.53
933.398	200.29
933.568	110.58
933.739	51.1
933.909	52.07
934.08	146.42
934.25	55.56
934.421	74.54
934.591	107.09
934.761	103.03
934.932	35.21
935.102	119.88
935.272	70.09
935.443	109.03
935.613	85.78
935.783	116.78
935.953	50.52
936.123	235.94
936.294	62.53
936.464	74.74
936.634	92.37
936.804	69.51
936.974	20.49
937.144	94.89
937.314	101.86
937.484	94.31
937.655	53.23
937.825	116.78
937.995	58.27
938.165	139.84
938.334	85.78
938.504	132.67
938.674	119.88
938.844	113.49
939.014	203.77
939.184	174.91
939.354	230.12
939.524	227.22
939.694	146.42
939.863	163.67
940.033	251.44
940.203	217.53
940.373	203.58
940.542	197.96
940.712	162.7
940.882	194.28
941.051	218.3
941.221	203.19
941.391	169.09
941.56	161.34
941.73	129.37
941.899	271.78
942.069	132.47
942.238	195.25
942.408	140.81
942.577	174.91
942.747	134.22
942.916	97.21
943.086	119.3
943.255	194.67
943.425	181.88
943.594	144.68
943.763	48.19
943.933	69.12
944.102	49.55
944.271	87.53
944.441	140.81
944.61	102.25
944.779	141.58
944.948	232.64
945.117	71.64
945.287	122.4
945.456	83.07
945.625	75.51
945.794	149.72
945.963	83.65
946.132	137.9
946.301	88.49
946.47	145.84
946.639	46.26
946.808	98.18
946.977	148.75
947.146	165.61
947.315	113.68
947.484	164.25
947.653	110
947.822	120.27
947.991	104.38
948.16	204.94
948.329	178.59
948.498	122.59
948.666	128.21
948.835	156.5
949.004	99.73
949.173	67.76
949.341	149.52
949.51	119.49
949.679	157.47
949.847	154.56
950.016	225.47
950.185	170.26
950.353	110.97
950.522	149.52
950.69	188.47
950.859	132.09
951.028	173.16
951.196	133.25
951.365	90.43
951.533	129.37
951.701	149.72
951.87	159.99
952.038	86.94
952.207	142.16
952.375	159.21
952.543	106.13
952.712	119.69
952.88	87.91
953.048	196.02
953.217	112.32
953.385	120.66
953.553	196.8
953.721	88.11
953.89	133.64
954.058	46.26
954.226	106.51
954.394	117.36
954.562	71.44
954.73	106.51
954.898	143.13
955.067	135.77
955.235	90.24
955.403	148.17
955.571	195.44
955.739	124.92
955.907	69.12
956.075	105.74
956.243	83.84
956.41	126.27
956.578	68.15
956.746	62.34
956.914	113.1
957.082	159.79
957.25	149.14
957.418	95.08
957.585	121.82
957.753	178.01
957.921	82.68
958.089	114.65
958.256	136.74
958.424	142.16
958.592	133.83
958.759	79.39
958.927	149.14
959.095	76.68
959.262	120.85
959.43	145.07
959.597	81.71
959.765	124.92
959.932	82.88
960.1	152.04
960.267	106.13
960.435	139.64
960.602	136.35
960.77	120.66
960.937	88.69
961.104	131.12
961.272	84.43
961.439	107.48
961.606	142.94
961.774	166.77
961.941	94.69
962.108	126.08
962.275	140.03
962.443	165.02
962.61	142.16
962.777	200.87
962.944	192.15
963.111	148.56
963.278	143.71
963.446	150.11
963.613	138.09
963.78	154.76
963.947	156.31
964.114	120.27
964.281	248.92
964.448	169.09
964.615	111.36
964.782	137.32
964.949	184.59
965.116	164.44
965.282	203.58
965.449	144.29
965.616	115.81
965.783	156.31
965.95	150.3
966.117	88.11
966.283	138.48
966.45	156.5
966.617	162.7
966.784	177.23
966.95	188.08
967.117	184.21
967.284	111.55
967.45	122.21
967.617	206.49
967.784	167.74
967.95	220.44
968.117	151.46
968.283	194.47
968.45	247.56
968.616	160.37
968.783	181.3
968.949	167.74
969.116	192.54
969.282	155.92
969.449	184.01
969.615	156.69
969.781	108.26
969.948	142.55
970.114	120.85
970.28	212.49
970.447	136.35
970.613	200.87
970.779	126.86
970.945	188.08
971.112	148.75
971.278	155.53
971.444	147.97
971.61	197.38
971.776	125.89
971.942	197.19
972.108	170.45
972.275	156.89
972.441	166.57
972.607	238.65
972.773	118.14
972.939	151.27
973.105	155.72
973.271	95.08
973.437	134.02
973.602	108.45
973.768	170.26
973.934	139.06
974.1	162.31
974.266	72.99
974.432	156.11
974.598	116.39
974.763	159.02
974.929	107.29
975.095	192.34
975.261	139.64
975.426	123.37
975.592	135.96
975.758	189.63
975.923	116.97
976.089	96.44
976.255	182.85
976.42	156.11
976.586	151.66
976.751	169.29
976.917	219.47
977.082	158.24
977.248	106.13
977.413	58.08
977.579	111.94
977.744	151.07
977.91	99.54
978.075	111.16
978.24	154.37
978.406	121.24
978.571	94.89
978.736	95.66
978.902	153.79
979.067	83.46
979.232	52.84
979.397	131.7
979.563	186.14
979.728	87.53
979.893	109.03
980.058	109.61
980.223	160.18
980.388	160.76
980.554	142.74
980.719	87.53
980.884	137.9
981.049	164.83
981.214	88.88
981.379	173.16
981.544	118.14
981.709	138.67
981.874	141.58
982.039	108.84
982.204	129.76
982.368	147.78
982.533	94.11
982.698	139.64
982.863	147.78
983.028	97.21
983.193	150.69
983.357	127.24
983.522	148.94
983.687	109.03
983.852	123.37
984.016	121.82
984.181	142.74
984.346	146.62
984.51	148.75
984.675	130.92
984.839	148.17
985.004	145.65
985.168	170.64
985.333	107.48
985.498	120.66
985.662	156.89
985.827	138.29
985.991	114.65
986.155	96.83
986.32	145.07
986.484	168.9
986.649	132.09
986.813	84.23
986.977	115.04
987.142	126.08
987.306	67.18
987.47	89.85
987.634	95.28
987.799	141.39
987.963	137.12
988.127	119.49
988.291	203.19
988.455	113.49
988.62	119.69
988.784	141.19
988.948	168.51
989.112	84.23
989.276	107.09
989.44	127.63
989.604	76.87
989.768	99.54
989.932	185.37
990.096	74.35
990.26	83.26
990.424	76.68
990.588	93.34
990.752	186.92
990.915	135.96
991.079	83.65
991.243	86.56
991.407	124.92
991.571	137.12
991.734	131.89
991.898	123.76
992.062	210.75
992.226	99.73
992.389	108.06
992.553	51.88
992.717	67.96
992.88	88.69
993.044	114.07
993.207	81.71
993.371	124.92
993.535	135.57
993.698	86.94
993.862	153.4
994.025	151.66
994.189	83.65
994.352	116.01
994.515	122.4
994.679	125.89
994.842	65.83
995.006	147.01
995.169	76.29
995.332	59.24
995.496	155.34
995.659	30.56
995.822	94.11
995.985	90.04
996.149	150.3
996.312	91.01
996.475	159.6
996.638	98.96
996.801	158.63
996.964	153.21
997.128	80.74
997.291	75.32
997.454	100.51
997.617	41.99
997.78	102.83
997.943	61.37
998.106	127.24
998.269	88.69
998.432	66.79
998.595	76.09
998.758	36.38
998.92	53.43
999.083	56.72
999.246	91.4
999.409	8.48
999.572	11
999.735	55.36
999.897	122.4
1000.06	62.92
1000.223	79.19
1000.386	160.96
1000.548	131.51
1000.711	85.59
1000.874	104.96
1001.036	55.36
1001.199	109.61
1001.361	61.56
1001.524	94.11
1001.687	116.2
1001.849	63.69
1002.012	94.11
1002.174	92.18
1002.337	85.98
1002.499	56.72
1002.661	123.56
1002.824	47.23
1002.986	29.4
1003.149	87.53
1003.311	58.08
1003.473	145.65
1003.636	55.36
1003.798	91.98
1003.96	113.68
1004.123	73.19
1004.285	58.27
1004.447	59.43
1004.609	60.21
1004.771	149.52
1004.933	22.81
1005.096	64.28
1005.258	14.29
1005.42	13.71
1005.582	122.79
1005.744	92.95
1005.906	23.78
1006.068	49.74
1006.23	-1.21
1006.392	4.6
1006.554	57.49
1006.716	108.84
1006.878	95.28
1007.04	30.18
1007.202	27.46
1007.363	60.21
1007.525	98.57
1007.687	77.84
1007.849	135.57
1008.011	18.16
1008.172	35.79
1008.334	54.78
1008.496	81.13
1008.658	-2.18
1008.819	28.63
1008.981	-1.79
1009.143	35.6
1009.304	70.48
1009.466	48
1009.627	100.89
1009.789	141
1009.95	73.38
1010.112	41.03
1010.273	57.69
1010.435	21.26
1010.596	51.68
1010.758	56.14
1010.919	30.76
1011.081	19.52
1011.242	40.64
1011.403	83.07
1011.565	26.11
1011.726	66.41
1011.887	12.93
1012.049	44.71
1012.21	97.6
1012.371	102.83
1012.532	-10.51
1012.693	65.63
1012.855	20.1
1013.016	36.18
1013.177	81.13
1013.338	53.81
1013.499	133.06
1013.66	79.97
1013.821	79
1013.982	54.78
1014.143	39.28
1014.304	37.15
1014.465	67.96
1014.626	106.9
1014.787	46.06
1014.948	156.89
1015.109	-8.96
1015.27	79.97
1015.431	-1.21
1015.592	6.54
1015.752	102.44
1015.913	44.9
1016.074	45.87
1016.235	55.56
1016.395	39.28
1016.556	37.73
1016.717	53.43
1016.877	95.66
1017.038	33.66
1017.199	82.1
1017.359	35.99
1017.52	49.94
1017.681	13.13
1017.841	42.19
1018.002	44.13
1018.162	25.33
1018.323	87.53
1018.483	9.06
1018.644	7.31
1018.804	4.41
1018.964	28.24
1019.125	11.96
1019.285	35.99
1019.446	-3.15
1019.606	0.53
1019.766	-43.45
1019.926	62.53
1020.087	65.44
1020.247	-14.58
1020.407	46.64
1020.567	94.69
1020.728	24.75
1020.888	-6.64
1021.048	3.05
1021.208	-4.31
1021.368	14.68
1021.528	80.16
1021.688	61.76
1021.848	56.91
1022.008	59.82
1022.168	47.81
1022.328	37.34
1022.488	36.57
1022.648	3.44
1022.808	40.06
1022.968	47.61
1023.128	14.87
1023.288	4.6
1023.448	40.83
1023.608	56.33
1023.767	22.62
1023.927	-12.84
1024.087	18.36
1024.247	-21.55
1024.406	10.22
1024.566	3.63
1024.726	-1.21
1024.885	23.98
1025.045	61.18
1025.205	34.63
1025.364	51.1
1025.524	19.52
1025.683	25.53
1025.843	49.36
1026.003	25.14
1026.162	92.76
1026.321	70.86
1026.481	61.37
1026.64	7.51
1026.8	17.97
1026.959	35.79
1027.119	33.28
1027.278	14.1
1027.437	31.14
1027.597	42.58
1027.756	22.81
1027.915	41.99
1028.074	48.39
1028.234	-11.09
1028.393	16.81
1028.552	32.69
1028.711	-66.89
1028.87	60.01
1029.03	-15.35
1029.189	15.65
1029.348	-23.88
1029.507	6.35
1029.666	19.52
1029.825	-7.22
1029.984	14.48
1030.143	31.73
1030.302	19.91
1030.461	-19.81
1030.62	45.87
1030.779	30.56
1030.938	-11.29
1031.097	-20.97
1031.255	78.42
1031.414	83.65
1031.573	70.09
1031.732	-63.4
1031.891	20.88
1032.049	44.32
1032.208	44.51
1032.367	-8.77
1032.525	1.11
1032.684	27.85
1032.843	31.92
1033.001	-43.45
1033.16	171.22
1033.319	68.54
1033.477	46.06
1033.636	-37.83
1033.794	-31.82
1033.953	62.53
1034.111	36.57
1034.27	-6.44
1034.428	29.01
1034.587	-8.77
1034.745	43.16
1034.903	20.49
1035.062	52.65
1035.22	-38.02
1035.378	46.06
1035.537	-6.44
1035.695	64.86
1035.853	4.41
1036.011	68.73
1036.17	27.08
1036.328	-47.71
1036.486	0.73
1036.644	37.15
1036.802	-78.9
1036.96	-12.84
1037.119	7.51
1037.277	-5.86
1037.435	-12.64
1037.593	-28.72
1037.751	32.31
1037.909	46.26
1038.067	46.26
