Data from gum_old_FLMT105791__121__15-46-10-253.txt Node

Date: Mon Mar 20 15:46:10 GMT 2023
User: antho
Spectrometer: FLMT10579
Trigger mode: 0
Integration Time (sec): 1.000000E-1
Scans to average: 10
Electric dark correction enabled: true
Nonlinearity correction enabled: false
Boxcar width: 0
XAxis mode: Wavelengths
Number of Pixels in Spectrum: 3648
>>>>>Begin Spectral Data<<<<<
345.248	-178.6
345.464	-178.6
345.681	-178.6
345.898	-178.8
346.114	-167.37
346.331	-46.85
346.548	6.81
346.764	-9.46
346.981	8.94
347.197	-40.65
347.414	6.04
347.631	-13.14
347.847	86.83
348.064	9.53
348.28	27.16
348.497	-48.21
348.713	13.01
348.93	40.33
349.146	28.9
349.363	29.29
349.579	10.49
349.796	10.11
350.012	21.54
350.229	25.22
350.445	31.81
350.661	-10.04
350.878	3.13
351.094	51.76
351.311	31.23
351.527	6.62
351.743	12.24
351.96	51.96
352.176	66.49
352.392	22.31
352.609	32.39
352.825	-3.65
353.041	-23.8
353.257	12.43
353.474	19.6
353.69	57.58
353.906	9.91
354.122	7.98
354.339	71.14
354.555	30.64
354.771	28.51
354.987	79.66
355.203	81.6
355.42	1.58
355.636	9.53
355.852	26.38
356.068	13.59
356.284	-28.45
356.5	100.59
356.716	35.29
356.932	15.92
357.148	57.96
357.364	33.36
357.58	71.14
357.796	66.88
358.012	51.96
358.228	73.85
358.444	-28.84
358.66	95.74
358.876	26.96
359.092	-1.71
359.308	31.42
359.524	56.8
359.74	9.53
359.956	-1.52
360.172	50.41
360.388	73.46
360.604	25.61
360.819	103.3
361.035	60.29
361.251	53.12
361.467	-0.16
361.683	67.46
361.898	40.53
362.114	39.75
362.33	44.21
362.546	67.65
362.762	21.93
362.977	46.34
363.193	-3.65
363.409	70.36
363.624	-14.5
363.84	-11.01
364.056	8.75
364.271	38.2
364.487	52.15
364.703	4.88
364.918	0.81
365.134	30.45
365.35	20.76
365.565	162.78
365.781	51.76
365.996	76.95
366.212	92.45
366.427	34.13
366.643	3.91
366.858	32
367.074	13.4
367.289	107.56
367.505	129.65
367.72	-10.04
367.936	21.15
368.151	78.5
368.367	76.17
368.582	33.94
368.798	13.4
369.013	102.14
369.228	66.1
369.444	41.69
369.659	94.58
369.874	58.35
370.09	114.54
370.305	-1.32
370.52	43.24
370.736	101.75
370.951	50.79
371.166	110.08
371.381	113.57
371.597	101.75
371.812	15.92
372.027	10.49
372.242	54.86
372.458	143.41
372.673	54.86
372.888	30.84
373.103	53.12
373.318	129.65
373.533	54.09
373.749	78.11
373.964	-12.17
374.179	73.85
374.394	10.49
374.609	112.21
374.824	47.5
375.039	85.28
375.254	20.76
375.469	111.82
375.684	80.63
375.899	101.94
376.114	53.12
376.329	50.79
376.544	114.15
376.759	70.36
376.974	11.46
377.189	32
377.404	59.32
377.619	120.35
377.834	-2.1
378.049	1
378.264	23.48
378.478	55.06
378.693	27.35
378.908	83.54
379.123	46.53
379.338	125
379.553	69.59
379.767	68.43
379.982	83.15
380.197	78.11
380.412	89.35
380.626	85.28
380.841	139.14
381.056	86.25
381.271	117.44
381.485	49.24
381.7	40.72
381.915	81.21
382.129	59.71
382.344	64.16
382.559	57.58
382.773	111.63
382.988	17.66
383.202	79.86
383.417	28.13
383.632	142.44
383.846	40.91
384.061	44.4
384.275	60.29
384.49	65.13
384.704	64.94
384.919	85.47
385.133	83.54
385.348	103.11
385.562	46.14
385.777	121.51
385.991	77.72
386.206	61.84
386.42	48.08
386.634	117.06
386.849	99.81
387.063	93.03
387.277	33.55
387.492	59.13
387.706	8.36
387.92	38.39
388.135	117.83
388.349	85.09
388.563	96.52
388.778	60.68
388.992	104.46
389.206	117.44
389.42	153.29
389.635	85.09
389.849	96.13
390.063	129.07
390.277	98.46
390.491	160.65
390.706	134.49
390.92	119.77
391.134	112.02
391.348	124.03
391.562	61.84
391.776	86.25
391.99	87.22
392.205	138.56
392.419	54.28
392.633	94.97
392.847	158.91
393.061	61.06
393.275	155.22
393.489	63.97
393.703	67.65
393.917	114.15
394.131	51.38
394.345	102.14
394.559	120.74
394.773	70.17
394.986	118.99
395.2	100.39
395.414	136.62
395.628	61.45
395.842	128.29
396.056	104.46
396.27	60.48
396.484	110.47
396.697	129.65
396.911	120.35
397.125	98.46
397.339	146.7
397.553	117.44
397.766	166.65
397.98	146.89
398.194	133.14
398.408	113.37
398.621	148.25
398.835	175.57
399.049	187.77
399.262	199.4
399.476	199.59
399.69	181.77
399.903	229.04
400.117	170.14
400.331	185.64
400.544	152.12
400.758	303.25
400.971	182.93
401.185	204.82
401.398	131.97
401.612	257.33
401.826	196.69
402.039	221.1
402.253	160.84
402.466	183.51
402.68	191.07
402.893	208.89
403.106	188.35
403.32	180.99
403.533	198.43
403.747	183.12
403.96	203.66
404.174	197.07
404.387	175.18
404.6	198.04
404.814	221.87
405.027	194.36
405.24	214.7
405.454	171.3
405.667	252.1
405.88	139.34
406.094	235.44
406.307	240.86
406.52	218.39
406.733	145.54
406.947	162.2
407.16	271.86
407.373	253.07
407.586	164.14
407.799	161.23
408.012	244.74
408.226	236.21
408.439	261.59
408.652	162.39
408.865	224.39
409.078	297.24
409.291	261.59
409.504	210.64
409.717	282.13
409.93	263.33
410.143	221.29
410.357	177.31
410.57	175.95
410.783	187.97
410.996	216.84
411.209	192.42
411.421	257.91
411.634	233.5
411.847	207.92
412.06	246.09
412.273	252.48
412.486	257.72
412.699	326.69
412.912	252.87
413.125	262.56
413.338	249.58
413.55	287.94
413.763	255.2
413.976	243.96
414.189	274.38
414.402	224.59
414.615	309.25
414.827	239.5
415.04	299.57
415.253	267.79
415.466	317.58
415.678	313.32
415.891	260.43
416.104	258.49
416.316	241.25
416.529	281.16
416.742	307.32
416.954	313.32
417.167	285.62
417.38	255.2
417.592	278.45
417.805	228.27
418.017	217.61
418.23	306.93
418.442	228.07
418.655	248.42
418.868	259.07
419.08	297.82
419.293	328.24
419.505	297.43
419.718	302.28
419.93	315.26
420.142	237.18
420.355	338.31
420.567	324.56
420.78	292.2
420.992	296.27
421.205	365.44
421.417	267.21
421.629	269.92
421.842	251.9
422.054	257.72
422.266	320.68
422.479	322.62
422.691	281.16
422.903	325.53
423.115	276.7
423.328	272.44
423.54	289.49
423.752	292.01
423.964	262.95
424.177	299.76
424.389	293.37
424.601	423.18
424.813	315.07
425.025	322.23
425.238	328.05
425.45	308.28
425.662	283.68
425.874	629.32
426.086	297.63
426.298	337.35
426.51	317.97
426.722	317
426.934	285.03
427.146	337.93
427.358	260.82
427.57	351.1
427.782	263.14
427.994	319.33
428.206	289.3
428.418	268.95
428.63	346.45
428.842	346.45
429.054	324.75
429.266	352.26
429.478	279.8
429.69	293.37
429.902	256.55
430.114	321.27
430.325	311.58
430.537	290.65
430.749	243.38
430.961	208.12
431.173	258.49
431.384	277.67
431.596	178.09
431.808	287.94
432.02	286.58
432.231	352.65
432.443	376.48
432.655	360.6
432.867	310.03
433.078	378.03
433.29	406.32
433.502	379
433.713	396.63
433.925	366.8
434.136	382.3
434.348	307.12
434.56	276.51
434.771	437.71
434.983	259.07
435.194	308.67
435.406	348.58
435.617	393.15
435.829	436.93
436.04	384.04
436.252	403.8
436.463	442.36
436.675	407.1
436.886	404.96
437.098	420.08
437.309	467.93
437.521	375.32
437.732	415.62
437.943	375.32
438.155	390.05
438.366	328.82
438.578	476.84
438.789	376.29
439	348.58
439.211	372.22
439.423	402.83
439.634	396.63
439.845	390.82
440.057	373.77
440.268	446.62
440.479	365.25
440.69	429.76
440.902	391.79
441.113	369.51
441.324	402.25
441.535	448.17
441.746	468.13
441.957	386.17
442.168	414.26
442.38	440.61
442.591	466.77
442.802	420.27
443.013	407.1
443.224	459.41
443.435	425.89
443.646	417.17
443.857	419.5
444.068	422.01
444.279	406.32
444.49	528.77
444.701	451.27
444.912	595.03
445.123	512.49
445.334	436.74
445.545	477.81
445.756	439.64
445.967	437.32
446.178	440.23
446.388	475.88
446.599	459.6
446.81	484.79
447.021	419.88
447.232	494.67
447.443	513.07
447.653	432.09
447.864	522.18
448.075	487.11
448.286	504.74
448.496	486.53
448.707	514.04
448.918	478.01
449.129	595.03
449.339	472.78
449.55	515.59
449.761	491.57
449.971	520.82
450.182	496.41
450.393	537.68
450.603	447.98
450.814	558.22
451.024	521.99
451.235	571.2
451.446	607.43
451.656	590.96
451.867	505.33
452.077	515.98
452.288	598.71
452.498	596.19
452.709	507.46
452.919	565
453.13	489.63
453.34	546.4
453.55	489.24
453.761	521.41
453.971	521.21
454.182	529.54
454.392	550.08
454.602	591.16
454.813	573.52
455.023	550.47
455.233	486.14
455.444	537.87
455.654	451.46
455.864	531.48
456.075	514.04
456.285	490.79
456.495	520.63
456.705	493.89
456.916	609.75
457.126	613.05
457.336	545.04
457.546	494.28
457.756	499.32
457.967	590.96
458.177	520.82
458.387	550.08
458.597	528.77
458.807	536.52
459.017	539.23
459.227	554.54
459.437	525.86
459.647	574.49
459.857	557.44
460.068	533.03
460.278	605.3
460.488	543.49
460.698	600.65
460.908	534.77
461.117	510.94
461.327	534.58
461.537	566.74
461.747	589.8
461.957	575.27
462.167	687.25
462.377	616.92
462.587	586.7
462.797	606.46
463.007	555.89
463.216	590.19
463.426	649.09
463.636	628.74
463.846	546.01
464.056	577.01
464.265	604.33
464.475	554.15
464.685	571.97
464.895	633.97
465.104	572.56
465.314	644.05
465.524	554.34
465.733	567.52
465.943	639.01
466.153	679.31
466.362	662.65
466.572	620.6
466.782	607.43
466.991	633
467.201	664.59
467.41	520.44
467.62	631.26
467.829	588.83
468.039	614.4
468.249	629.52
468.458	633
468.668	672.14
468.877	638.43
469.086	681.44
469.296	658.97
469.505	613.44
469.715	727.36
469.924	657.42
470.134	676.6
470.343	707.79
470.552	639.2
470.762	622.35
470.971	593.67
471.18	658.39
471.39	640.56
471.599	651.02
471.808	684.73
472.018	649.47
472.227	730.07
472.436	731.23
472.645	696.36
472.855	675.05
473.064	784.13
473.273	731.82
473.482	726.39
473.691	749.25
473.901	743.83
474.11	692.87
474.319	772.7
474.528	719.42
474.737	773.28
474.946	761.85
475.155	785.29
475.364	812.41
475.573	779.67
475.783	769.6
475.992	800.01
476.201	818.23
476.41	795.36
476.619	744.99
476.828	767.85
477.037	755.07
477.245	775.6
477.454	820.16
477.663	799.43
477.872	800.6
478.081	844.38
478.29	793.81
478.499	932.15
478.708	838.57
478.917	909.09
479.125	847.29
479.334	842.06
479.543	836.05
479.752	870.15
479.961	890.3
480.169	905.03
480.378	867.24
480.587	1003.06
480.796	907.16
481.004	890.49
481.213	937.19
481.422	918.98
481.63	918.59
481.839	930.99
482.048	987.95
482.256	921.11
482.465	962.57
482.674	983.11
482.882	959.08
483.091	1008.68
483.299	955.01
483.508	995.12
483.716	995.7
483.925	984.46
484.134	936.61
484.342	937.19
484.551	1010.23
484.759	958.11
484.967	1005.58
485.176	1020.89
485.384	1030.77
485.593	1038.71
485.801	1027.47
486.01	966.83
486.218	913.74
486.426	849.23
486.635	844.19
486.843	871.89
487.051	914.52
487.26	879.26
487.468	914.33
487.676	965.47
487.885	949.01
488.093	991.05
488.301	1017.21
488.509	1030.96
488.717	1041.42
488.926	1037.94
489.134	1033.09
489.342	1011.01
489.55	1001.71
489.758	1053.24
489.967	1007.52
490.175	1141.2
490.383	1034.45
490.591	1160.38
490.799	1061.77
491.007	1104.2
491.215	1109.82
491.423	1100.32
491.631	1091.99
491.839	1102.07
492.047	1145.85
492.255	1030.38
492.463	1029.41
492.671	1062.35
492.879	1104.78
493.087	1084.24
493.295	1131.71
493.503	1133.07
493.711	1179.18
493.919	1186.15
494.127	1159.03
494.334	1163.48
494.542	1087.54
494.75	1141.78
494.958	1132.29
495.166	1219.86
495.374	1199.13
495.581	1216.96
495.789	1186.15
495.997	1262.1
496.205	1170.27
496.412	1166.97
496.62	1163.68
496.828	1187.12
497.035	1174.14
497.243	1203.98
497.451	1234.4
497.658	1221.03
497.866	1220.06
498.074	1273.53
498.281	1191
498.489	1282.25
498.696	1172.01
498.904	1174.14
499.112	1155.93
499.319	1278.38
499.527	1182.67
499.734	1259.39
499.942	1189.06
500.149	1203.98
500.357	1225.48
500.564	1147.02
500.771	1189.25
500.979	1184.99
501.186	1180.15
501.394	1236.91
501.601	1172.98
501.808	1210.37
502.016	1190.22
502.223	1185.96
502.43	1186.93
502.638	1185.96
502.845	1171.82
503.052	1257.06
503.26	1206.88
503.467	1298.91
503.674	1250.67
503.881	1262.88
504.089	1336.69
504.296	1239.43
504.503	1195.45
504.71	1232.07
504.917	1176.47
505.125	1264.04
505.332	1236.33
505.539	1269.46
505.746	1321.39
505.953	1324.68
506.16	1305.31
506.367	1351.03
506.574	1367.11
506.781	1370.99
506.988	1270.24
507.195	1322.36
507.402	1273.34
507.609	1305.69
507.816	1253
508.023	1276.63
508.23	1255.51
508.437	1266.75
508.644	1302.79
508.851	1353.74
509.058	1334.76
509.265	1332.43
509.472	1336.11
509.679	1451.78
509.885	1351.03
510.092	1348.71
510.299	1301.82
510.506	1346.77
510.713	1334.95
510.92	1352.39
511.126	1369.05
511.333	1376.41
511.54	1374.09
511.746	1426.79
511.953	1408.38
512.16	1463.6
512.367	1377.38
512.573	1401.21
512.78	1408.57
512.987	1352.39
513.193	1353.94
513.4	1294.26
513.606	1377.58
513.813	1355.88
514.02	1374.86
514.226	1430.08
514.433	1425.43
514.639	1323.71
514.846	1366.14
515.052	1308.79
515.259	1345.03
515.465	1418.26
515.672	1376.03
515.878	1453.33
516.085	1380.87
516.291	1447.91
516.497	1404.31
516.704	1382.03
516.91	1336.11
517.117	1266.36
517.323	1231.68
517.529	1294.26
517.736	1294.85
517.942	1296.01
518.148	1281.28
518.354	1357.62
518.561	1347.54
518.767	1336.11
518.973	1378.74
519.179	1401.41
519.386	1361.49
519.592	1349.09
519.798	1386.29
520.004	1500.02
520.21	1441.51
520.417	1438.41
520.623	1544.97
520.829	1576.36
521.035	1518.24
521.241	1499.05
521.447	1558.15
521.653	1654.44
521.859	1512.23
522.065	1508.74
522.271	1699.58
522.477	1607.55
522.683	1625.57
522.889	1618.02
523.095	1595.93
523.301	1581.01
523.507	1570.93
523.713	1597.48
523.919	1566.28
524.125	1674.01
524.331	1648.24
524.537	1751.51
524.742	1714.7
524.948	1721.67
525.154	1723.8
525.36	1808.28
525.566	1709.08
525.772	1779.02
525.977	1694.35
526.183	1710.82
526.389	1743.56
526.595	1696.87
526.8	1687.57
527.006	1630.42
527.212	1575.2
527.417	1532.57
527.623	1523.47
527.829	1668.39
528.034	1669.75
528.24	1675.75
528.446	1707.53
528.651	1762.94
528.857	1808.28
529.062	1839.66
529.268	1846.64
529.473	1787.93
529.679	1839.47
529.884	1920.07
530.09	1863.88
530.295	1877.83
530.501	1872.21
530.706	1896.43
530.912	1817.77
531.117	1882.48
531.323	1872.99
531.528	1958.24
531.733	1926.46
531.939	1873.37
532.144	1929.17
532.35	1908.44
532.555	1974.9
532.76	1919.87
532.966	1912.51
533.171	1876.28
533.376	1860.2
533.581	1819.9
533.787	1886.55
533.992	1899.14
534.197	1932.08
534.402	1894.11
534.607	1894.3
534.813	2034.96
535.018	1909.99
535.223	1906.31
535.428	1952.04
535.633	1995.63
535.838	1990.59
536.043	1979.74
536.249	2081.27
536.454	1987.3
536.659	2010.93
536.864	1974.32
537.069	1993.5
537.274	2021.4
537.479	2006.09
537.684	1972.38
537.889	1902.44
538.094	2053.56
538.299	1974.32
538.504	1968.5
538.708	2035.15
538.913	2060.34
539.118	2001.83
539.323	2040.58
539.528	1986.52
539.733	2028.37
539.938	2005.12
540.142	1997.76
540.347	1998.73
540.552	1944.09
540.757	1975.67
540.962	1961.14
541.166	1928.98
541.371	1957.85
541.576	1952.04
541.781	1864.46
541.985	2000.47
542.19	1969.28
542.395	2064.02
542.599	2076.62
542.804	2064.41
543.008	2088.63
543.213	2020.43
543.418	2013.65
543.622	2045.81
543.827	1991.17
544.031	2069.64
544.236	2106.84
544.44	2083.98
544.645	2192.67
544.849	2052.2
545.054	2082.43
545.258	2165.16
545.463	2137.26
545.667	2030.7
545.872	2113.62
546.076	2112.26
546.281	2112.65
546.485	2047.75
546.689	2126.6
546.894	2151.98
547.098	2088.24
547.302	2043.29
547.507	2099.48
547.711	2083.4
547.915	2117.11
548.119	2041.74
548.324	2052.98
548.528	2116.53
548.732	2100.25
548.936	2154.89
549.141	2138.61
549.345	2059.37
549.549	2089.6
549.753	2089.21
549.957	2193.64
550.161	2184.73
550.366	2144.62
550.57	2070.03
550.774	2093.66
550.978	2081.85
551.182	2153.92
551.386	2071.19
551.59	2076.62
551.794	2076.81
551.998	2107.23
552.202	2070.03
552.406	2046.39
552.61	2074.1
552.814	2116.14
553.018	2151.01
553.222	2131.45
553.426	2112.46
553.63	2184.92
553.833	2103.35
554.037	2051.43
554.241	2124.66
554.445	2104.13
554.649	2095.21
554.853	2062.47
555.056	2162.06
555.26	2119.05
555.464	2116.33
555.668	2130.48
555.871	2168.26
556.075	2150.63
556.279	2116.72
556.483	2057.82
556.686	2090.76
556.89	2105.68
557.094	2101.8
557.297	2004.73
557.501	2065.57
557.704	2006.28
557.908	2072.74
558.112	2045.62
558.315	2103.35
558.519	2046
558.722	2063.05
558.926	2007.45
559.129	1939.25
559.333	1934.02
559.536	1929.75
559.74	1946.8
559.943	1917.94
560.147	1918.13
560.35	1947.77
560.553	1928.2
560.757	1881.71
560.96	1991.95
561.164	1930.92
561.367	2039.42
561.57	1998.34
561.774	1987.69
561.977	1971.99
562.18	1921.62
562.384	2047.94
562.587	1952.23
562.79	1921.23
562.993	1940.02
563.197	1953.2
563.4	1988.27
563.603	1990.98
563.806	2046.97
564.009	1919.68
564.212	1973.54
564.416	1835.21
564.619	1936.54
564.822	1888.29
565.025	1920.84
565.228	1904.76
565.431	1938.09
565.634	1838.5
565.837	1862.14
566.04	1829.39
566.243	1815.44
566.446	1762.94
566.649	1890.42
566.852	1794.52
567.055	1830.36
567.258	1858.65
567.461	1882.48
567.664	1870.47
567.867	1790.45
568.07	1834.04
568.273	1829.2
568.475	1854
568.678	1785.8
568.881	1807.31
569.084	1803.04
569.287	1682.73
569.489	1727.68
569.692	1773.4
569.895	1790.64
570.098	1712.76
570.3	1685.05
570.503	1663.55
570.706	1689.9
570.909	1660.64
571.111	1629.06
571.314	1623.44
571.516	1633.9
571.719	1651.73
571.922	1663.35
572.124	1644.17
572.327	1705.59
572.529	1645.91
572.732	1601.93
572.935	1678.08
573.137	1754.22
573.34	1669.75
573.542	1741.43
573.745	1685.44
573.947	1677.88
574.15	1635.65
574.352	1606.58
574.554	1698.81
574.757	1618.4
574.959	1560.67
575.162	1614.14
575.364	1611.82
575.566	1695.9
575.769	1583.72
575.971	1568.03
576.173	1477.94
576.376	1571.13
576.578	1598.06
576.78	1669.55
576.982	1480.07
577.185	1529.28
577.387	1517.65
577.589	1548.85
577.791	1559.89
577.993	1557.37
578.196	1553.5
578.398	1542.45
578.6	1578.49
578.802	1489.56
579.004	1471.15
579.206	1506.22
579.408	1518.24
579.61	1512.42
579.812	1575
580.014	1516.49
580.216	1473.29
580.418	1500.99
580.62	1509.32
580.822	1420.2
581.024	1517.07
581.226	1558.15
581.428	1493.63
581.63	1557.37
581.832	1468.06
582.034	1548.46
582.236	1533.93
582.438	1528.31
582.64	1522.69
582.841	1568.03
583.043	1588.76
583.245	1517.27
583.447	1539.74
583.649	1496.54
583.85	1497.89
584.052	1538
584.254	1494.6
584.456	1553.5
584.657	1475.03
584.859	1498.28
585.061	1479.1
585.262	1471.93
585.464	1427.17
585.666	1483.94
585.867	1414
586.069	1497.5
586.27	1451.2
586.472	1462.44
586.674	1419.42
586.875	1414.77
587.077	1422.91
587.278	1455.66
587.48	1424.66
587.681	1557.18
587.883	1452.56
588.084	1411.09
588.285	1418.07
588.487	1441.12
588.688	1422.33
588.89	1297.36
589.091	1338.44
589.292	1346.19
589.494	1291.36
589.695	1287.48
589.896	1235.75
590.098	1204.37
590.299	1272.95
590.5	1251.25
590.702	1265.98
590.903	1274.7
591.104	1359.36
591.305	1356.84
591.507	1414.19
591.708	1371.38
591.909	1344.25
592.11	1417.87
592.311	1329.72
592.512	1316.93
592.714	1284.77
592.915	1298.91
593.116	1291.75
593.317	1291.55
593.518	1317.32
593.719	1301.24
593.92	1368.66
594.121	1373.31
594.322	1338.24
594.523	1311.31
594.724	1300.85
594.925	1300.27
595.126	1335.14
595.327	1360.53
595.528	1334.37
595.729	1332.63
595.929	1295.23
596.13	1304.53
596.331	1331.46
596.532	1355.49
596.733	1400.44
596.934	1360.53
597.135	1326.81
597.335	1338.44
597.536	1301.04
597.737	1327.59
597.938	1299.3
598.138	1359.36
598.339	1291.75
598.54	1350.45
598.74	1325.26
598.941	1309.96
599.142	1376.22
599.342	1338.24
599.543	1277.6
599.744	1297.94
599.944	1295.23
600.145	1305.89
600.345	1314.41
600.546	1382.42
600.746	1382.03
600.947	1403.15
601.147	1323.71
601.348	1347.16
601.548	1290.97
601.749	1285.16
601.949	1257.06
602.15	1265.4
602.35	1294.85
602.551	1360.14
602.751	1257.06
602.951	1242.92
603.152	1176.66
603.352	1308.41
603.552	1264.04
603.753	1329.53
603.953	1336.5
604.153	1327.01
604.354	1284
604.554	1304.14
604.754	1291.16
604.954	1258.42
605.155	1308.6
605.355	1304.92
605.555	1321.39
605.755	1375.44
605.955	1311.7
606.155	1321.39
606.356	1303.56
606.556	1322.36
606.756	1293.68
606.956	1240.21
607.156	1331.85
607.356	1270.82
607.556	1290
607.756	1285.35
607.956	1312.86
608.156	1308.21
608.356	1262.1
608.556	1262.49
608.756	1288.84
608.956	1234.59
609.156	1245.83
609.356	1253
609.556	1177.63
609.755	1258.61
609.955	1233.81
610.155	1261.71
610.355	1249.7
610.555	1201.85
610.755	1210.95
610.954	1151.67
611.154	1213.28
611.354	1264.43
611.554	1188.48
611.753	1202.23
611.953	1178.79
612.153	1206.5
612.352	1215.21
612.552	1138.3
612.752	1137.52
612.951	1209.6
613.151	1180.92
613.351	1165.03
613.55	1168.52
613.75	1199.33
613.949	1192.55
614.149	1177.82
614.348	1184.22
614.548	1162.32
614.747	1061.19
614.947	1145.47
615.146	1082.5
615.346	1178.6
615.545	1166.39
615.745	1161.55
615.944	1172.01
616.144	1154.38
616.343	1151.86
616.542	1137.72
616.742	1127.25
616.941	1093.93
617.14	1054.6
617.34	1089.28
617.539	1121.63
617.738	1095.29
617.938	1192.93
618.137	1125.32
618.336	1052.66
618.535	1127.83
618.734	1109.62
618.934	1136.75
619.133	1130.16
619.332	1127.45
619.531	1116.99
619.73	1092.57
619.929	1180.53
620.128	1160.77
620.328	1171.62
620.527	1077.85
620.726	1134.42
620.925	1109.43
621.124	1110.79
621.323	1106.72
621.522	1071.84
621.721	1056.92
621.92	1044.72
622.119	1106.14
622.318	1054.02
622.517	1097.03
622.715	1085.21
622.914	1022.05
623.113	1066.03
623.312	1029.02
623.511	1089.86
623.71	1032.12
623.909	1043.36
624.107	1106.52
624.306	1019.34
624.505	1044.52
624.704	1028.25
624.902	1022.44
625.101	1105.75
625.3	1058.28
625.499	1040.65
625.697	1023.79
625.896	998.41
626.095	1042.2
626.293	990.66
626.492	988.14
626.69	1055.18
626.889	1003.84
627.088	1058.09
627.286	1009.07
627.485	1005.39
627.683	1007.71
627.882	1024.76
628.08	942.03
628.279	1012.36
628.477	1065.45
628.676	974.77
628.874	1029.8
629.073	979.42
629.271	922.46
629.469	1036.77
629.668	995.12
629.866	965.09
630.065	1001.71
630.263	1019.92
630.461	963.54
630.66	1011.01
630.858	1018.37
631.056	1054.79
631.254	1036.39
631.453	966.06
631.651	1012.75
631.849	992.99
632.047	1010.04
632.245	962.57
632.444	1002.87
632.642	993.37
632.84	990.27
633.038	954.82
633.236	931.38
633.434	965.86
633.632	942.23
633.83	933.7
634.028	973.42
634.227	960.05
634.425	1032.32
634.623	964.31
634.821	973.22
635.019	993.76
635.216	966.64
635.414	1002.87
635.612	980.39
635.81	956.17
636.008	1017.59
636.206	972.84
636.404	982.33
636.602	939.71
636.8	940.48
636.997	965.09
637.195	974.58
637.393	958.11
637.591	1029.02
637.789	987.17
637.986	951.72
638.184	986.79
638.382	1011.01
638.58	992.99
638.777	1038.13
638.975	954.82
639.173	983.3
639.37	956.37
639.568	937.96
639.765	988.14
639.963	930.79
640.161	977.87
640.358	992.6
640.556	917.23
640.753	911.42
640.951	899.6
641.148	954.82
641.346	910.64
641.543	904.25
641.741	933.12
641.938	876.35
642.136	937.38
642.333	855.23
642.531	959.27
642.728	962.18
642.925	909.87
643.123	910.26
643.32	922.85
643.517	914.71
643.715	921.69
643.912	891.66
644.109	924.21
644.306	930.99
644.504	862.79
644.701	909.87
644.898	954.24
645.095	868.79
645.293	867.05
645.49	931.38
645.687	892.24
645.884	951.14
646.081	845.35
646.278	868.02
646.475	880.42
646.672	862.79
646.87	887.98
647.067	908.51
647.264	890.69
647.461	844
647.658	787.81
647.855	880.81
648.052	855.62
648.249	775.8
648.446	845.55
648.642	819.39
648.839	810.67
649.036	826.75
649.233	791.88
649.43	797.11
649.627	788.58
649.824	789.16
650.021	771.15
650.217	800.4
650.414	822.1
650.611	795.95
650.808	838.18
651.004	848.84
651.201	840.12
651.398	883.13
651.595	822.88
651.791	813.77
651.988	859.88
652.185	803.7
652.381	841.48
652.578	773.66
652.775	822.88
652.971	790.91
653.168	817.84
653.364	862.21
653.561	772.5
653.757	800.4
653.954	846.71
654.15	755.07
654.347	880.61
654.543	811.45
654.74	777.54
654.936	762.04
655.133	769.21
655.329	789.16
655.525	819.78
655.722	823.26
655.918	750.8
656.115	799.24
656.311	705.47
656.507	685.9
656.704	680.47
656.9	684.35
657.096	695.2
657.292	678.92
657.489	757
657.685	732.4
657.881	732.4
658.077	694.23
658.273	759.72
658.47	844.58
658.666	767.08
658.862	793.43
659.058	730.65
659.254	814.35
659.45	775.21
659.646	792.26
659.842	761.27
660.038	817.26
660.234	758.94
660.43	777.54
660.626	869.76
660.822	812.22
661.018	816.48
661.214	766.11
661.41	733.37
661.606	825.2
661.802	854.85
661.998	778.31
662.194	765.92
662.39	805.44
662.586	799.05
662.781	826.95
662.977	813.19
663.173	839.15
663.369	801.18
663.564	811.64
663.76	848.45
663.956	757.39
664.152	832.18
664.347	700.23
664.543	769.4
664.739	766.3
664.934	737.05
665.13	709.92
665.326	821.52
665.521	761.85
665.717	733.56
665.912	724.65
666.108	692.68
666.304	760.88
666.499	755.07
666.695	676.6
666.89	726.58
667.086	799.05
667.281	775.99
667.477	857.95
667.672	754.48
667.867	741.12
668.063	786.06
668.258	727.55
668.454	770.18
668.649	823.85
668.844	786.84
669.04	780.25
669.235	747.7
669.43	742.86
669.626	706.05
669.821	712.05
670.016	669.04
670.211	724.84
670.407	710.7
670.602	753.32
670.797	716.9
670.992	783.55
671.187	711.47
671.382	782.77
671.578	731.62
671.773	737.63
671.968	685.32
672.163	734.14
672.358	764.56
672.553	728.91
672.748	710.5
672.943	815.32
673.138	720.97
673.333	758.94
673.528	678.92
673.723	755.65
673.918	732.4
674.113	682.22
674.308	809.12
674.503	758.75
674.698	783.93
674.892	725.03
675.087	749.06
675.282	778.7
675.477	681.05
675.672	738.79
675.867	731.82
676.061	700.23
676.256	684.73
676.451	716.12
676.646	737.05
676.84	688.22
677.035	668.65
677.23	659.74
677.424	732.4
677.619	741.5
677.814	767.08
678.008	757.58
678.203	680.09
678.397	665.75
678.592	718.25
678.787	744.6
678.981	701.4
679.176	699.65
679.37	719.42
679.565	690.16
679.759	706.43
679.954	725.81
680.148	768.24
680.342	772.31
680.537	728.13
680.731	707.6
680.926	744.99
681.12	739.18
681.314	680.86
681.509	704.11
681.703	718.25
681.897	747.32
682.092	717.48
682.286	683.38
682.48	807.96
682.674	747.12
682.869	713.8
683.063	709.15
683.257	797.3
683.451	691.9
683.645	731.04
683.839	694.62
684.034	689
684.228	749.06
684.422	673.5
684.616	664.78
684.81	726
685.004	708.76
685.198	708.76
685.392	736.66
685.586	674.08
685.78	707.6
685.974	698.1
686.168	735.5
686.362	810.28
686.556	677.57
686.75	665.36
686.944	695.97
687.138	695.97
687.331	587.67
687.525	594.45
687.719	537.87
687.913	629.71
688.107	589.99
688.301	592.9
688.494	629.71
688.688	568.1
688.882	572.75
689.076	547.95
689.269	617.89
689.463	676.99
689.657	614.21
689.85	606.46
690.044	627.19
690.238	599.49
690.431	602.59
690.625	634.55
690.818	622.54
691.012	639.2
691.205	667.49
691.399	604.52
691.593	652.57
691.786	692.68
691.98	696.94
692.173	709.53
692.366	694.03
692.56	698.1
692.753	741.12
692.947	642.89
693.14	727.17
693.333	729.88
693.527	651.41
693.72	706.63
693.914	677.95
694.107	697.13
694.3	732.78
694.493	708.95
694.687	744.6
694.88	699.27
695.073	763.01
695.266	763.78
695.46	716.32
695.653	790.52
695.846	769.6
696.039	691.52
696.232	695.97
696.425	769.4
696.618	750.61
696.812	743.83
697.005	846.32
697.198	904.25
697.391	833.73
697.584	847.29
697.777	901.54
697.97	874.41
698.163	903.86
698.356	855.04
698.549	966.06
698.742	915.49
698.935	846.71
699.127	924.21
699.32	848.26
699.513	885.07
699.706	926.73
699.899	962.37
700.092	934.09
700.285	958.11
700.477	886.43
700.67	937.38
700.863	997.44
701.056	1073.78
701.248	1080.37
701.441	1031.93
701.634	994.15
701.826	1088.12
702.019	999.57
702.212	1083.66
702.404	1035.61
702.597	1032.9
702.79	1058.28
702.982	1084.82
703.175	1121.44
703.367	1132.87
703.56	1171.04
703.752	1235.56
703.945	1216.38
704.137	1224.51
704.33	1267.91
704.522	1259.97
704.715	1267.72
704.907	1272.95
705.1	1314.8
705.292	1325.26
705.484	1313.06
705.677	1360.33
705.869	1386.1
706.061	1408.38
706.254	1451.2
706.446	1406.44
706.638	1395.4
706.831	1523.08
707.023	1417.1
707.215	1547.88
707.407	1523.27
707.599	1528.31
707.792	1576.75
707.984	1581.78
708.176	1586.43
708.368	1562.99
708.56	1586.43
708.752	1611.62
708.944	1624.02
709.136	1633.9
709.329	1644.56
709.521	1750.34
709.713	1700.36
709.905	1744.92
710.097	1806.73
710.289	1714.11
710.481	1775.53
710.672	1807.31
710.864	1813.12
711.056	1891.01
711.248	1882.09
711.44	1888.29
711.632	1847.99
711.824	1889.26
712.016	1940.6
712.207	1979.16
712.399	1975.29
712.591	2041.74
712.783	2019.07
712.975	2076.03
713.166	1958.82
713.358	2010.74
713.55	2096.96
713.741	2120.6
713.933	2092.89
714.125	2116.33
714.316	2090.56
714.508	2218.83
714.7	2177.94
714.891	2177.36
715.083	2273.07
715.274	2205.07
715.466	2251.57
715.657	2319.38
715.849	2202.36
716.04	2258.35
716.232	2236.46
716.423	2302.14
716.615	2219.79
716.806	2246.92
716.998	2182.59
717.189	2149.27
717.381	2077.58
717.572	2063.83
717.763	2126.41
717.955	2053.75
718.146	2019.07
718.337	1998.15
718.528	1973.93
718.72	1884.61
718.911	1964.05
719.102	1952.81
719.293	2003.57
719.485	1978.77
719.676	1948.74
719.867	1982.07
720.058	1960.56
720.249	1988.27
720.44	1972.57
720.632	2061.12
720.823	2074.68
721.014	2164.77
721.205	2220.76
721.396	2314.73
721.587	2411.99
721.778	2431.56
721.969	2444.54
722.16	2557.5
722.351	2489.3
722.542	2689.44
722.733	2700.29
722.924	2613.49
723.115	2698.74
723.305	2679.56
723.496	2684.01
723.687	2554.98
723.878	2586.56
724.069	2556.33
724.26	2583.26
724.45	2518.94
724.641	2534.63
724.832	2578.03
725.023	2548.78
725.213	2590.63
725.404	2534.83
725.595	2551.68
725.785	2554.59
725.976	2651.08
726.167	2661.15
726.357	2654.76
726.548	2739.81
726.739	2635.19
726.929	2786.5
727.12	2761.71
727.31	2810.34
727.501	2794.64
727.691	2789.8
727.882	2801.04
728.072	2851.41
728.263	2814.02
728.453	2872.72
728.644	2916.7
728.834	2920.38
729.024	2839.2
729.215	2853.35
729.405	2910.89
729.596	2984.51
729.786	3012.03
729.976	2984.32
730.167	3060.66
730.357	3014.35
730.547	3021.33
730.737	3029.66
730.928	3090.49
731.118	3169.54
731.308	3090.3
731.498	3090.11
731.688	3197.44
731.879	3222.05
732.069	3236.58
732.259	3253.05
732.449	3359.61
732.639	3374.53
732.829	3445.63
733.019	3470.05
733.209	3562.66
733.399	3490.19
733.589	3578.54
733.779	3624.07
733.969	3614.19
734.159	3681.62
734.349	3693.24
734.539	3746.91
734.729	3798.64
734.919	3812.78
735.109	3843.98
735.299	3831.19
735.488	3787.79
735.678	3875.56
735.868	3849.98
736.058	3836.03
736.248	3856.96
736.437	3796.32
736.627	3799.22
736.817	3975.14
737.007	3828.67
737.196	3916.25
737.386	3887.76
737.576	3874.4
737.765	3986.38
737.955	3905.98
738.144	4075.89
738.334	4006.53
738.524	3986.96
738.713	4035.79
738.903	3980.57
739.092	4085
739.282	4048.19
739.471	4067.37
739.661	4013.31
739.85	4088.1
740.04	4100.89
740.229	4107.86
740.419	4125.49
740.608	4167.15
740.797	4162.69
740.987	4208.03
741.176	4195.05
741.365	4141.77
741.555	4093.14
741.744	4204.54
741.933	4157.27
742.123	4207.64
742.312	4205.32
742.501	4261.12
742.69	4252.59
742.88	4193.88
743.069	4339
743.258	4241.35
743.447	4368.45
743.636	4319.63
743.825	4303.74
744.014	4319.63
744.204	4327.57
744.393	4298.7
744.582	4370.19
744.771	4359.54
744.96	4328.73
745.149	4345.98
745.338	4366.51
745.527	4396.35
745.716	4341.13
745.905	4368.64
746.094	4441.3
746.283	4436.46
746.471	4393.25
746.66	4452.15
746.849	4420.76
747.038	4456.61
747.227	4372.71
747.416	4433.94
747.604	4386.08
747.793	4392.09
747.982	4397.9
748.171	4466.87
748.359	4444.21
748.548	4416.11
748.737	4432.58
748.926	4419.02
749.114	4303.93
749.303	4408.94
749.491	4361.48
749.68	4305.1
749.869	4429.48
750.057	4373.29
750.246	4335.9
750.434	4398.29
750.623	4392.28
750.811	4333.58
751	4437.23
751.188	4370.97
751.377	4423.09
751.565	4338.61
751.754	4328.15
751.942	4349.46
752.131	4411.85
752.319	4310.52
752.507	4303.93
752.696	4370.78
752.884	4387.24
753.072	4387.05
753.261	4370.58
753.449	4347.14
753.637	4296.57
753.825	4439.75
754.014	4358.38
754.202	4324.08
754.39	4408.17
754.578	4383.76
754.766	4291.73
754.955	4297.93
755.143	4409.33
755.331	4295.99
755.519	4356.83
755.707	4324.86
755.895	4300.06
756.083	4334.35
756.271	4264.22
756.459	4279.91
756.647	4342.68
756.835	4294.44
757.023	4222.75
757.211	4227.98
757.399	4219.07
757.587	4260.53
757.775	4171.41
757.963	4240.77
758.151	4245.62
758.339	4177.42
758.526	4200.86
758.714	4214.81
758.902	4164.82
759.09	4064.46
759.278	3922.44
759.465	3648.87
759.653	3290.44
759.841	3058.72
760.028	2681.88
760.216	2371.69
760.404	2249.44
760.591	1916.39
760.779	1640.3
760.967	1478.13
761.154	1306.28
761.342	1327.01
761.529	1368.66
761.717	1424.46
761.905	1406.06
762.092	1565.7
762.28	1540.71
762.467	1588.37
762.655	1518.43
762.842	1538
763.029	1563.96
763.217	1587.79
763.404	1617.05
763.592	1670.13
763.779	1622.08
763.966	1675.36
764.154	1727.1
764.341	1771.46
764.528	1783.67
764.716	1866.59
764.903	1903.79
765.09	1979.74
765.277	2051.43
765.465	2215.34
765.652	2267.26
765.839	2352.32
766.026	2466.24
766.213	2538.9
766.4	2622.01
766.588	2822.54
766.775	2796.77
766.962	2925.42
767.149	2964.17
767.336	3169.54
767.523	3097.86
767.71	3207.13
767.897	3382.08
768.084	3437.88
768.271	3429.55
768.458	3528.17
768.645	3601.02
768.832	3486.51
769.019	3568.08
769.206	3621.75
769.392	3666.31
769.579	3747.68
769.766	3703.9
769.953	3670.38
770.14	3756.02
770.327	3732.96
770.513	3814.72
770.7	3865.68
770.887	3721.14
771.073	3813.17
771.26	3804.45
771.447	3758.53
771.634	3725.6
771.82	3865.1
772.007	3751.75
772.193	3794.38
772.38	3772.48
772.567	3767.45
772.753	3756.98
772.94	3742.26
773.126	3825.57
773.313	3846.3
773.499	3820.92
773.686	3847.85
773.872	3721.34
774.059	3788.18
774.245	3743.62
774.432	3758.15
774.618	3645.19
774.804	3754.66
774.991	3683.17
775.177	3745.75
775.363	3688.4
775.55	3752.14
775.736	3627.56
775.922	3675.03
776.109	3695.95
776.295	3679.68
776.481	3758.92
776.667	3721.92
776.853	3625.82
777.04	3619.04
777.226	3688.01
777.412	3740.9
777.598	3574.47
777.784	3628.92
777.97	3628.53
778.156	3630.86
778.342	3610.12
778.528	3613.61
778.715	3583.77
778.901	3575.44
779.087	3589.78
779.272	3582.42
779.458	3541.54
779.644	3597.72
779.83	3568.66
780.016	3637.06
780.202	3547.35
780.388	3539.02
780.574	3458.03
780.76	3480.7
780.946	3533.79
781.131	3535.73
781.317	3492.13
781.503	3476.05
781.689	3502.79
781.874	3585.13
782.06	3453.19
782.246	3506.08
782.432	3491.36
782.617	3506.86
782.803	3550.26
782.989	3417.35
783.174	3453
783.36	3401.07
783.545	3459.58
783.731	3363.48
783.916	3289.09
784.102	3415.8
784.288	3310.2
784.473	3401.85
784.659	3360.19
784.844	3405.14
785.029	3330.55
785.215	3337.91
785.4	3286.76
785.586	3334.62
785.771	3253.24
785.956	3333.45
786.142	3272.23
786.327	3276.3
786.512	3302.07
786.698	3267
786.883	3195.12
787.068	3256.73
787.254	3305.55
787.439	3263.7
787.624	3162.18
787.809	3236.97
787.994	3200.54
788.18	3300.52
788.365	3156.56
788.55	3214.11
788.735	3193.37
788.92	3173.03
789.105	3162.57
789.29	3193.76
789.475	3097.66
789.66	3121.69
789.845	3099.6
790.03	3113.16
790.215	3141.64
790.4	3150.36
790.585	3152.49
790.77	3131.37
790.955	2998.08
791.14	3087.39
791.325	3149.97
791.51	3009.12
791.695	3041.67
791.879	3039.35
792.064	3009.9
792.249	3130.02
792.434	3038.76
792.618	3045.16
792.803	3082.16
792.988	3035.66
793.173	3050.19
793.357	3118.78
793.542	2986.45
793.727	3013.58
793.911	3073.83
794.096	3050.58
794.281	3070.15
794.465	3133.89
794.65	3075.19
794.834	3087.2
795.019	3117.23
795.203	3089.72
795.388	3095.53
795.572	3171.29
795.757	3144.74
795.941	3134.47
796.126	3124.98
796.31	3049.81
796.494	3084.49
796.679	3034.31
796.863	3041.86
797.048	3145.91
797.232	3076.54
797.416	3123.24
797.601	3155.59
797.785	3172.84
797.969	3181.94
798.153	3095.34
798.338	3152.49
798.522	3136.22
798.706	3122.46
798.89	3161.41
799.074	3286.95
799.258	3239.49
799.443	3137.57
799.627	3144.55
799.811	3208.29
799.995	3159.27
800.179	3159.66
800.363	3143.58
800.547	3183.11
800.731	3167.22
800.915	3091.85
801.099	3082.94
801.283	3149.01
801.467	3138.16
801.651	3111.03
801.835	3170.12
802.019	3137.19
802.202	3143
802.386	3074.03
802.57	3081.97
802.754	3072.28
802.938	3026.56
803.121	3077.71
803.305	3150.56
803.489	3089.14
803.673	3132.54
803.856	3153.46
804.04	3112.97
804.224	3167.22
804.407	3146.68
804.591	3078.68
804.775	3095.34
804.958	3113.16
805.142	3171.67
805.326	3107.16
805.509	3099.6
805.693	3136.02
805.876	3134.47
806.06	3125.56
806.243	3166.64
806.427	3190.08
806.61	3210.42
806.794	3146.87
806.977	3186.01
807.16	3121.88
807.344	3105.99
807.527	3111.23
807.71	3115.1
807.894	3123.24
808.077	3135.64
808.26	3069.76
808.444	3056.98
808.627	3140.67
808.81	3041.48
808.993	3041.09
809.177	3009.9
809.36	3048.45
809.543	3030.05
809.726	2945.18
809.909	2990.33
810.092	2943.63
810.276	2943.25
810.459	2914.77
810.642	2926.97
810.825	2897.13
811.008	2948.87
811.191	2753.57
811.374	2866.33
811.557	2881.25
811.74	2948.09
811.923	2812.85
812.106	2791.74
812.289	2756.09
812.472	2770.42
812.654	2762.67
812.837	2741.75
813.02	2688.66
813.203	2679.94
813.386	2573.96
813.569	2529.21
813.751	2525.91
813.934	2539.48
814.117	2489.49
814.3	2506.93
814.482	2430.59
814.665	2403.47
814.848	2288.38
815.03	2293.03
815.213	2285.47
815.396	2247.11
815.578	2237.43
815.761	2171.36
815.943	2281.02
816.126	2150.05
816.309	2157.6
816.491	2061.12
816.674	1969.86
816.856	2055.88
817.039	2015.58
817.221	2123.5
817.403	2102
817.586	2065.77
817.768	2084.36
817.951	2033.02
818.133	2015
818.315	2036.12
818.498	2062.08
818.68	2150.82
818.862	2089.6
819.045	2155.86
819.227	2107.23
819.409	2083.2
819.591	2111.88
819.774	2064.99
819.956	2041.35
820.138	2106.45
820.32	2116.53
820.502	2183.18
820.684	2251.96
820.866	2208.36
821.048	2266.87
821.231	2293.61
821.413	2307.37
821.595	2251.76
821.777	2286.06
821.959	2240.72
822.141	2364.33
822.323	2205.26
822.505	2118.27
822.686	2074.68
822.868	2024.11
823.05	1869.11
823.232	1875.89
823.414	1771.27
823.596	1870.47
823.778	1852.84
823.96	1899.72
824.141	1878.02
824.323	1904.76
824.505	1979.55
824.687	2042.9
824.868	2054.33
825.05	2158.57
825.232	2213.4
825.413	2256.41
825.595	2198.09
825.777	2173.49
825.958	2192.67
826.14	2183.95
826.321	2187.83
826.503	2196.16
826.685	2217.66
826.866	2255.25
827.048	2239.94
827.229	2168.26
827.411	2171.16
827.592	2072.74
827.773	2097.15
827.955	2025.85
828.136	2061.89
828.318	1990.79
828.499	1988.85
828.68	2005.32
828.862	2026.43
829.043	2027.21
829.224	2000.08
829.406	1926.27
829.587	1949.71
829.768	1967.54
829.949	1999.89
830.131	1993.69
830.312	2058.6
830.493	2006.67
830.674	1982.26
830.855	1964.05
831.036	1965.21
831.218	2019.27
831.399	2046.97
831.58	2002.22
831.761	2014.23
831.942	2012.87
832.123	1979.94
832.304	1917.74
832.485	1935.18
832.666	1949.71
832.847	1997.37
833.028	1967.54
833.209	1962.3
833.389	1959.98
833.57	1914.06
833.751	1962.11
833.932	1981.49
834.113	1975.87
834.294	1926.85
834.475	1978.97
834.655	2046
834.836	2010.55
835.017	1983.81
835.198	1973.93
835.378	1986.14
835.559	2049.88
835.74	1981.1
835.92	1998.53
836.101	1969.28
836.281	2021.78
836.462	1995.63
836.643	1984.97
836.823	2018.49
837.004	2094.05
837.184	2106.06
837.365	2033.99
837.545	2079.13
837.726	1989.82
837.906	2059.95
838.087	2020.82
838.267	2017.91
838.448	1942.54
838.628	1993.11
838.808	2057.05
838.989	2030.12
839.169	1980.32
839.349	2015.58
839.53	2059.18
839.71	2039.42
839.89	1981.49
840.07	2057.05
840.251	1986.14
840.431	2042.13
840.611	2017.72
840.791	1969.28
840.971	2046.58
841.151	1990.2
841.332	1965.6
841.512	2022.75
841.692	1900.89
841.872	2000.86
842.052	1992.92
842.232	2013.45
842.412	1921.81
842.592	1970.44
842.772	2002.41
842.952	1966.37
843.132	1933.05
843.312	1936.92
843.492	1902.05
843.672	1968.12
843.851	1873.76
844.031	1915.8
844.211	1934.02
844.391	1892.94
844.571	1923.17
844.751	1937.12
844.93	1938.67
845.11	1891.59
845.29	1956.88
845.47	1909.6
845.649	1931.3
845.829	1953.59
846.009	1900.89
846.188	1918.13
846.368	1906.7
846.547	1898.56
846.727	1947.58
846.907	1857.1
847.086	1902.24
847.266	1977.61
847.445	1935.76
847.625	1860.01
847.804	1848.57
847.984	1902.24
848.163	1893.14
848.343	1847.22
848.522	1871.05
848.701	1882.29
848.881	1834.62
849.06	1866.21
849.239	1871.05
849.419	1870.27
849.598	1779.79
849.777	1803.82
849.957	1771.27
850.136	1705.98
850.315	1684.28
850.494	1686.6
850.674	1661.8
850.853	1769.53
851.032	1755.38
851.211	1797.23
851.39	1724.96
851.569	1697.84
851.748	1722.25
851.927	1751.12
852.107	1723.22
852.286	1699.2
852.465	1689.9
852.644	1750.93
852.823	1749.18
853.002	1705.01
853.181	1726.13
853.359	1724.96
853.538	1628.48
853.717	1733.29
853.896	1596.51
854.075	1559.7
854.254	1537.61
854.433	1449.26
854.611	1529.28
854.79	1421.56
854.969	1511.26
855.148	1537.22
855.327	1467.67
855.505	1549.24
855.684	1523.27
855.863	1559.31
856.041	1515.91
856.22	1600.77
856.399	1555.63
856.577	1620.92
856.756	1682.34
856.934	1736.98
857.113	1753.25
857.291	1631
857.47	1641.85
857.648	1647.66
857.827	1656.57
858.005	1734.46
858.184	1603.68
858.362	1726.13
858.541	1637.97
858.719	1635.26
858.898	1625.38
859.076	1638.36
859.254	1668.39
859.433	1601.74
859.611	1594.77
859.789	1585.27
859.967	1655.21
860.146	1678.85
860.324	1554.27
860.502	1603.68
860.68	1538
860.859	1575.78
861.037	1572.48
861.215	1610.07
861.393	1595.73
861.571	1561.25
861.749	1558.34
861.927	1593.99
862.105	1589.15
862.283	1556.21
862.461	1528.12
862.639	1508.55
862.817	1525.4
862.995	1570.74
863.173	1542.26
863.351	1565.7
863.529	1556.6
863.707	1603.87
863.885	1564.15
864.063	1483.17
864.241	1469.22
864.418	1567.25
864.596	1509.71
864.774	1481.42
864.952	1500.8
865.129	1527.34
865.307	1505.45
865.485	1406.06
865.663	1519.79
865.84	1417.1
866.018	1443.64
866.196	1288.06
866.373	1343.67
866.551	1278.57
866.728	1227.23
866.906	1292.13
867.084	1290.2
867.261	1358.39
867.439	1391.52
867.616	1357.23
867.794	1367.69
867.971	1352.78
868.149	1373.7
868.326	1431.63
868.503	1453.14
868.681	1389.59
868.858	1389.97
869.035	1326.04
869.213	1420.01
869.39	1405.09
869.567	1450.42
869.745	1368.47
869.922	1398.31
870.099	1418.07
870.276	1443.45
870.454	1383.19
870.631	1413.03
870.808	1384.74
870.985	1406.44
871.162	1474.06
871.339	1409.35
871.517	1359.94
871.694	1319.26
871.871	1383.97
872.048	1352
872.225	1374.28
872.402	1384.74
872.579	1317.71
872.756	1366.73
872.933	1323.52
873.11	1352.78
873.287	1352.19
873.463	1329.33
873.64	1318.87
873.817	1402.76
873.994	1314.41
874.171	1323.33
874.348	1348.32
874.524	1293.68
874.701	1317.13
874.878	1261.91
875.055	1309.76
875.231	1294.26
875.408	1330.49
875.585	1255.51
875.762	1308.21
875.938	1307.05
876.115	1238.66
876.291	1242.15
876.468	1302.4
876.645	1212.5
876.821	1278.57
876.998	1208.63
877.174	1245.83
877.351	1273.53
877.527	1240.4
877.704	1274.5
877.88	1236.14
878.057	1231.49
878.233	1307.44
878.409	1235.36
878.586	1255.71
878.762	1235.17
878.938	1205.53
879.115	1159.61
879.291	1218.12
879.467	1142.17
879.644	1166.97
879.82	1210.18
879.996	1210.56
880.172	1140.82
880.349	1196.42
880.525	1231.88
880.701	1123.96
880.877	1161.55
881.053	1192.55
881.229	1171.62
881.405	1221.61
881.581	1155.73
881.757	1155.54
881.933	1191.77
882.109	1199.52
882.285	1195.65
882.461	1145.85
882.637	1184.99
882.813	1147.6
882.989	1173.56
883.165	1214.25
883.341	1127.64
883.517	1199.13
883.693	1168.72
883.869	1191.58
884.044	1136.17
884.22	1196.62
884.396	1204.56
884.572	1182.28
884.747	1225.87
884.923	1182.67
885.099	1215.02
885.275	1218.9
885.45	1167.36
885.626	1132.29
885.801	1127.45
885.977	1179.76
886.153	1067.97
886.328	1214.05
886.504	1131.13
886.679	1177.05
886.855	1126.09
887.03	1182.28
887.206	1224.13
887.381	1187.51
887.557	1201.27
887.732	1156.9
887.908	1161.35
888.083	1204.17
888.258	1147.4
888.434	1153.02
888.609	1145.47
888.784	1183.44
888.96	1164.07
889.135	1120.86
889.31	1143.92
889.485	1166.78
889.661	1160
889.836	1206.88
890.011	1169.3
890.186	1171.43
890.361	1135
890.537	1176.47
890.712	1141.01
890.887	1180.92
891.062	1154.38
891.237	1230.71
891.412	1140.62
891.587	1166
891.762	1199.33
891.937	1215.6
892.112	1092.77
892.287	1131.9
892.462	1124.54
892.637	1081.72
892.812	1094.7
892.987	1128.03
893.161	1073.2
893.336	1098.39
893.511	1092.96
893.686	1107.1
893.861	1080.37
894.035	1083.08
894.21	1094.7
894.385	1021.86
894.56	1090.05
894.734	1008.29
894.909	1015.46
895.084	1043.55
895.258	995.7
895.433	1009.26
895.608	989.89
895.782	944.74
895.957	950.75
896.131	978.65
896.306	899.99
896.48	913.74
896.655	909.68
896.829	850.39
897.004	812.8
897.178	833.92
897.353	836.63
897.527	875.38
897.701	837.02
897.876	772.31
898.05	882.16
898.224	905.41
898.399	906.58
898.573	844.19
898.747	741.7
898.921	808.15
899.096	691.71
899.27	713.6
899.444	700.62
899.618	726.58
899.792	760.88
899.967	773.66
900.141	794.78
900.315	727.75
900.489	751.58
900.663	768.24
900.837	775.02
901.011	691.71
901.185	800.21
901.359	763.78
901.533	774.05
901.707	792.65
901.881	778.51
902.055	705.27
902.229	751.38
902.403	812.8
902.576	745.57
902.75	750.8
902.924	883.13
903.098	816.48
903.272	857.56
903.446	905.03
903.619	872.09
903.793	890.88
903.967	871.7
904.14	907.54
904.314	940.68
904.488	890.11
904.661	905.03
904.835	890.88
905.009	942.81
905.182	949.59
905.356	928.08
905.529	922.27
905.703	887.2
905.876	872.28
906.05	849.03
906.223	834.31
906.397	759.72
906.57	783.55
906.744	706.43
906.917	753.13
907.09	781.61
907.264	753.71
907.437	717.67
907.61	656.25
907.784	670.59
907.957	716.9
908.13	652.57
908.304	744.02
908.477	666.52
908.65	675.44
908.823	646.57
908.996	744.99
909.17	656.25
909.343	658.58
909.516	678.73
909.689	696.17
909.862	625.25
910.035	675.82
910.208	639.79
910.381	610.14
910.554	719.8
910.727	675.63
910.9	657.42
911.073	648.89
911.246	673.5
911.419	710.31
911.592	683.19
911.765	634.55
911.938	593.67
912.11	655.29
912.283	661.68
912.456	695.78
912.629	691.32
912.802	616.92
912.974	623.12
913.147	566.74
913.32	524.12
913.493	558.22
913.665	546.21
913.838	578.17
914.01	568.87
914.183	601.62
914.356	571.59
914.528	644.44
914.701	699.27
914.873	637.27
915.046	580.5
915.218	532.06
915.391	472
915.563	475.88
915.736	558.99
915.908	598.52
916.081	566.36
916.253	550.27
916.425	604.33
916.598	577.79
916.77	580.11
916.942	579.34
917.115	480.53
917.287	558.41
917.459	538.46
917.632	484.01
917.804	434.03
917.976	553.18
918.148	539.62
918.32	536.13
918.493	576.04
918.665	617.7
918.837	562.48
919.009	632.04
919.181	627.39
919.353	601.23
919.525	554.15
919.697	602.2
919.869	558.8
920.041	669.24
920.213	677.57
920.385	623.12
920.557	591.54
920.729	628.55
920.901	606.65
921.073	571.39
921.244	571.97
921.416	634.94
921.588	595.81
921.76	574.88
921.932	636.69
922.103	580.5
922.275	561.32
922.447	608.4
922.619	513.66
922.79	555.31
922.962	532.26
923.134	575.66
923.305	544.27
923.477	483.04
923.648	525.86
923.82	511.33
923.991	468.13
924.163	465.99
924.335	484.01
924.506	485.56
924.677	569.26
924.849	464.06
925.02	515.98
925.192	538.46
925.363	522.57
925.535	534
925.706	510.36
925.877	548.34
926.049	474.91
926.22	512.11
926.391	516.17
926.562	564.22
926.734	473.16
926.905	527.61
927.076	423.18
927.247	519.08
927.419	415.04
927.59	417.56
927.761	433.25
927.932	442.16
928.103	463.09
928.274	377.65
928.445	410.39
928.616	411.94
928.787	392.95
928.958	432.86
929.129	401.67
929.3	382.49
929.471	331.73
929.642	294.53
929.813	244.93
929.984	326.3
930.155	236.6
930.326	325.92
930.496	282.13
930.667	217.03
930.838	275.35
931.009	211.22
931.18	229.43
931.35	225.94
931.521	257.72
931.692	183.51
931.863	132.94
932.033	211.22
932.204	169.56
932.374	192.04
932.545	153.09
932.716	187.77
932.886	213.15
933.057	110.66
933.227	122.67
933.398	210.05
933.568	118.02
933.739	76.95
933.909	74.04
934.08	136.62
934.25	58.74
934.421	79.47
934.591	123.26
934.761	91.67
934.932	34.33
935.102	99.23
935.272	112.6
935.443	92.26
935.613	78.11
935.783	110.27
935.953	69.59
936.123	220.52
936.294	72.3
936.464	76.95
936.634	79.08
936.804	49.24
936.974	44.01
937.144	89.35
937.314	104.85
937.484	70.75
937.655	61.84
937.825	122.67
937.995	64.94
938.165	125
938.334	64.74
938.504	106.79
938.674	87.99
938.844	119.57
939.014	166.85
939.184	137.21
939.354	193
939.524	185.45
939.694	148.83
939.863	138.37
940.033	214.51
940.203	205.99
940.373	164.14
940.542	205.79
940.712	130.42
940.882	197.27
941.051	181.38
941.221	192.81
941.391	189.32
941.56	142.44
941.73	153.29
941.899	262.56
942.069	134.49
942.238	168.79
942.408	121.71
942.577	165.88
942.747	118.8
942.916	91.29
943.086	99.62
943.255	180.02
943.425	157.94
943.594	112.6
943.763	64.55
943.933	77.92
944.102	20.18
944.271	90.71
944.441	122.29
944.61	101.17
944.779	122.29
944.948	208.7
945.117	69.39
945.287	109.69
945.456	44.4
945.625	83.15
945.794	116.28
945.963	87.41
946.132	121.32
946.301	88.19
946.47	148.64
946.639	48.86
946.808	99.81
946.977	144.76
947.146	158.32
947.315	82.57
947.484	132.36
947.653	107.37
947.822	80.24
947.991	89.16
948.16	194.94
948.329	179.25
948.498	85.28
948.666	100.97
948.835	138.17
949.004	60.48
949.173	56.8
949.341	107.37
949.51	121.12
949.679	163.75
949.847	120.16
950.016	181.77
950.185	170.34
950.353	104.07
950.522	102.91
950.69	150.19
950.859	98.84
951.028	145.34
951.196	126.55
951.365	101.94
951.533	112.6
951.701	143.79
951.87	131.97
952.038	42.66
952.207	115.31
952.375	169.37
952.543	107.56
952.712	122.67
952.88	73.07
953.048	179.05
953.217	116.28
953.385	109.5
953.553	183.12
953.721	93.03
953.89	93.61
954.058	91.87
954.226	74.82
954.394	113.37
954.562	63.58
954.73	105.04
954.898	100.97
955.067	128.1
955.235	72.49
955.403	145.73
955.571	205.4
955.739	118.99
955.907	70.17
956.075	110.08
956.243	67.46
956.41	112.99
956.578	49.63
956.746	63.97
956.914	67.07
957.082	138.17
957.25	139.14
957.418	90.51
957.585	118.02
957.753	157.36
957.921	81.99
958.089	111.44
958.256	141.66
958.424	133.91
958.592	112.21
958.759	81.41
958.927	133.52
959.095	57.77
959.262	108.53
959.43	133.14
959.597	90.9
959.765	133.14
959.932	78.5
960.1	139.14
960.267	90.51
960.435	86.64
960.602	132.94
960.77	63.97
960.937	73.46
961.104	117.06
961.272	62.23
961.439	88.96
961.606	142.05
961.774	142.82
961.941	86.44
962.108	116.09
962.275	119.19
962.443	158.91
962.61	135.07
962.777	194.17
962.944	135.85
963.111	120.74
963.278	151.54
963.446	129.46
963.613	117.25
963.78	142.63
963.947	136.62
964.114	151.74
964.281	205.6
964.448	125.19
964.615	90.9
964.782	123.84
964.949	162.39
965.116	120.35
965.282	191.84
965.449	112.21
965.616	83.34
965.783	163.75
965.95	118.41
966.117	69.2
966.283	102.91
966.45	135.66
966.617	100.01
966.784	180.02
966.95	168.01
967.117	134.88
967.284	110.27
967.45	116.86
967.617	197.27
967.784	136.24
967.95	204.24
968.117	117.06
968.283	169.56
968.45	234.27
968.616	168.4
968.783	193.2
968.949	148.44
969.116	183.7
969.282	136.04
969.449	182.54
969.615	157.55
969.781	77.14
969.948	135.07
970.114	90.32
970.28	205.79
970.447	143.99
970.613	180.22
970.779	124.22
970.945	173.44
971.112	135.46
971.278	137.4
971.444	122.67
971.61	179.05
971.776	131.2
971.942	147.86
972.108	149.61
972.275	133.33
972.441	131.97
972.607	225.94
972.773	101.94
972.939	156.58
973.105	130.81
973.271	99.62
973.437	120.35
973.602	80.63
973.768	138.76
973.934	112.99
974.1	134.3
974.266	64.55
974.432	131.78
974.598	108.34
974.763	118.61
974.929	133.52
975.095	193.2
975.261	70.17
975.426	81.99
975.592	143.99
975.758	205.6
975.923	75.98
976.089	73.07
976.255	142.44
976.42	135.46
976.586	152.71
976.751	125.97
976.917	205.99
977.082	151.93
977.248	76.76
977.413	70.75
977.579	116.47
977.744	113.96
977.91	99.23
978.075	87.61
978.24	181.96
978.406	93.03
978.571	109.69
978.736	82.37
978.902	157.94
979.067	87.8
979.232	56.8
979.397	152.71
979.563	175.57
979.728	76.95
979.893	113.37
980.058	111.63
980.223	146.51
980.388	126.74
980.554	124.22
980.719	80.05
980.884	123.45
981.049	152.51
981.214	98.46
981.379	114.15
981.544	91.48
981.709	88.77
981.874	116.28
982.039	93.61
982.204	150.57
982.368	101.75
982.533	100.01
982.698	140.31
982.863	138.95
983.028	87.61
983.193	112.02
983.357	132.36
983.522	118.61
983.687	107.56
983.852	87.61
984.016	100.39
984.181	133.72
984.346	131.39
984.51	133.72
984.675	105.62
984.839	132.56
985.004	99.04
985.168	159.68
985.333	122.29
985.498	111.24
985.662	120.93
985.827	129.84
985.991	83.34
986.155	75.98
986.32	160.45
986.484	169.95
986.649	134.3
986.813	49.44
986.977	109.89
987.142	121.9
987.306	59.71
987.47	53.89
987.634	77.34
987.799	117.44
987.963	121.51
988.127	149.8
988.291	207.73
988.455	106.01
988.62	77.53
988.784	147.67
988.948	134.11
989.112	58.54
989.276	104.07
989.44	128.29
989.604	98.65
989.768	88.19
989.932	166.46
990.096	75.59
990.26	43.04
990.424	46.92
990.588	91.67
990.752	173.05
990.915	126.74
991.079	84.12
991.243	88.96
991.407	109.5
991.571	110.47
991.734	113.37
991.898	110.27
992.062	195.14
992.226	97.29
992.389	66.49
992.553	55.83
992.717	78.11
992.88	79.47
993.044	99.42
993.207	77.92
993.371	113.76
993.535	113.18
993.698	87.61
993.862	131.39
994.025	118.22
994.189	100.39
994.352	122.09
994.515	132.75
994.679	128.29
994.842	61.84
995.006	120.93
995.169	56.8
995.332	67.65
995.496	133.52
995.659	15.53
995.822	106.98
995.985	87.8
996.149	122.48
996.312	102.33
996.475	159.29
996.638	66.29
996.801	137.59
996.964	150.38
997.128	66.29
997.291	80.05
997.454	121.71
997.617	43.63
997.78	128.1
997.943	66.88
998.106	114.73
998.269	52.54
998.432	82.57
998.595	62.42
998.758	40.72
998.92	45.95
999.083	26.77
999.246	54.28
999.409	63.97
999.572	21.15
999.735	58.35
999.897	78.5
1000.06	48.86
1000.223	80.82
1000.386	107.17
1000.548	96.71
1000.711	104.85
1000.874	119.77
1001.036	23.09
1001.199	132.17
1001.361	41.69
1001.524	90.71
1001.687	120.16
1001.849	32.39
1002.012	82.18
1002.174	70.36
1002.337	77.14
1002.499	50.79
1002.661	95.55
1002.824	36.26
1002.986	57.77
1003.149	53.12
1003.311	41.49
1003.473	125.97
1003.636	56.22
1003.798	98.65
1003.96	72.69
1004.123	67.84
1004.285	36.26
1004.447	68.62
1004.609	39.75
1004.771	137.21
1004.933	6.23
1005.096	25.22
1005.258	9.91
1005.42	46.73
1005.582	128.87
1005.744	90.32
1005.906	21.73
1006.068	59.13
1006.23	42.85
1006.392	16.69
1006.554	21.54
1006.716	92.26
1006.878	83.34
1007.04	12.63
1007.202	40.14
1007.363	61.26
1007.525	77.53
1007.687	81.6
1007.849	97.1
1008.011	-18.57
1008.172	9.72
1008.334	34.13
1008.496	33.55
1008.658	16.31
1008.819	50.79
1008.981	6.62
1009.143	25.99
1009.304	40.72
1009.466	73.66
1009.627	93.61
1009.789	168.2
1009.95	57.58
1010.112	29.68
1010.273	63.19
1010.435	30.45
1010.596	60.29
1010.758	29.87
1010.919	55.64
1011.081	2.36
1011.242	16.89
1011.403	75.21
1011.565	35.1
1011.726	60.87
1011.887	0.81
1012.049	29.09
1012.21	66.1
1012.371	126.55
1012.532	-37.17
1012.693	57.58
1012.855	26.96
1013.016	72.3
1013.177	81.02
1013.338	57.96
1013.499	114.73
1013.66	81.99
1013.821	73.07
1013.982	65.71
1014.143	45.56
1014.304	35.88
1014.465	61.06
1014.626	102.33
1014.787	41.11
1014.948	148.06
1015.109	-30.19
1015.27	71.33
1015.431	26.58
1015.592	29.48
1015.752	101.94
1015.913	55.83
1016.074	52.15
1016.235	37.81
1016.395	17.66
1016.556	47.31
1016.717	27.16
1016.877	81.6
1017.038	20.96
1017.199	53.89
1017.359	50.6
1017.52	56.99
1017.681	37.81
1017.841	36.26
1018.002	47.11
1018.162	15.53
1018.323	92.26
1018.483	31.42
1018.644	23.09
1018.804	6.43
1018.964	-5.78
1019.125	18.05
1019.285	46.34
1019.446	13.59
1019.606	13.98
1019.766	-35.23
1019.926	62.42
1020.087	60.09
1020.247	-10.43
1020.407	75.01
1020.567	77.34
1020.728	42.85
1020.888	-16.44
1021.048	7.2
1021.208	-0.74
1021.368	23.86
1021.528	78.69
1021.688	42.27
1021.848	71.72
1022.008	46.14
1022.168	39.56
1022.328	36.46
1022.488	53.31
1022.648	11.85
1022.808	26.96
1022.968	45.18
1023.128	5.07
1023.288	7.39
1023.448	23.48
1023.608	97.49
1023.767	49.05
1023.927	-9.27
1024.087	-28.25
1024.247	-18.95
1024.406	7.2
1024.566	4.88
1024.726	-38.33
1024.885	36.26
1025.045	67.84
1025.205	16.89
1025.364	13.21
1025.524	34.71
1025.683	24.25
1025.843	20.38
1026.003	36.84
1026.162	65.91
1026.321	75.59
1026.481	23.86
1026.64	30.26
1026.8	25.99
1026.959	29.68
1027.119	34.91
1027.278	12.43
1027.437	1.97
1027.597	13.98
1027.756	44.98
1027.915	29.87
1028.074	19.41
1028.234	-0.16
1028.393	33.55
1028.552	17.47
1028.711	-53.83
1028.87	39.56
1029.03	-26.7
1029.189	13.01
1029.348	-34.45
1029.507	20.18
1029.666	-3.07
1029.825	-13.14
1029.984	-7.33
1030.143	26.19
1030.302	7.98
1030.461	-32.32
1030.62	21.54
1030.779	41.69
1030.938	-13.53
1031.097	0.61
1031.255	38.2
1031.414	106.4
1031.573	51.76
1031.732	-52.28
1031.891	13.98
1032.049	83.92
1032.208	25.99
1032.367	7.39
1032.525	18.05
1032.684	16.31
1032.843	16.5
1033.001	-37.36
1033.16	172.47
1033.319	40.91
1033.477	52.54
1033.636	-13.14
1033.794	-21.67
1033.953	72.11
1034.111	34.71
1034.27	-2.49
1034.428	41.49
1034.587	-30.39
1034.745	15.34
1034.903	34.52
1035.062	26.19
1035.22	-32.13
1035.378	56.61
1035.537	-20.31
1035.695	59.51
1035.853	26.58
1036.011	58.74
1036.17	28.13
1036.328	-60.8
1036.486	19.21
1036.644	24.25
1036.802	-66.81
1036.96	-16.05
1037.119	11.08
1037.277	-21.67
1037.435	-38.72
1037.593	-11.21
1037.751	17.86
1037.909	48.28
1038.067	48.28
