Data from gum_old_FLMT105791__6__15-42-28-259.txt Node

Date: Mon Mar 20 15:42:28 GMT 2023
User: antho
Spectrometer: FLMT10579
Trigger mode: 0
Integration Time (sec): 1.000000E-1
Scans to average: 10
Electric dark correction enabled: true
Nonlinearity correction enabled: false
Boxcar width: 0
XAxis mode: Wavelengths
Number of Pixels in Spectrum: 3648
>>>>>Begin Spectral Data<<<<<
345.248	-192.78
345.464	-192.78
345.681	-192.78
345.898	-182.7
346.114	-164.1
346.331	-46.11
346.548	21.51
346.764	-2.91
346.981	-14.34
347.197	-14.14
347.414	-2.91
347.631	6.78
347.847	66.26
348.064	6.59
348.28	21.89
348.497	-43.21
348.713	0.58
348.93	25.38
349.146	35.46
349.363	-1.74
349.579	12.59
349.796	28.67
350.012	17.44
350.229	33.13
350.445	29.64
350.661	10.46
350.878	3.87
351.094	31.97
351.311	48.44
351.527	35.26
351.743	19.76
351.96	50.76
352.176	39.14
352.392	60.64
352.609	45.92
352.825	0.58
353.041	42.24
353.257	31.58
353.474	42.82
353.69	37.59
353.906	-1.16
354.122	4.26
354.339	89.12
354.555	39.33
354.771	16.86
354.987	79.05
355.203	66.84
355.42	26.74
355.636	2.91
355.852	44.56
356.068	22.47
356.284	0
356.5	78.08
356.716	49.99
356.932	48.05
357.148	58.71
357.364	25.77
357.58	47.08
357.796	77.69
358.012	65.49
358.228	54.25
358.444	-32.16
358.66	84.67
358.876	74.98
359.092	18.21
359.308	34.68
359.524	63.74
359.74	41.46
359.956	18.99
360.172	29.26
360.388	84.67
360.604	39.72
360.819	106.56
361.035	40.88
361.251	61.03
361.467	7.36
361.683	111.21
361.898	55.8
362.114	88.54
362.33	48.24
362.546	90.29
362.762	52.12
362.977	39.72
363.193	15.69
363.409	95.13
363.624	24.61
363.84	42.62
364.056	1.55
364.271	59.67
364.487	59.29
364.703	29.64
364.918	27.9
365.134	48.24
365.35	46.31
365.565	153.64
365.781	57.35
365.996	87.96
366.212	137.95
366.427	76.14
366.643	58.71
366.858	51.34
367.074	17.63
367.289	137.17
367.505	177.47
367.72	5.04
367.936	64.13
368.151	101.91
368.367	88.35
368.582	82.34
368.798	61.03
369.013	127.29
369.228	79.44
369.444	73.82
369.659	103.85
369.874	91.25
370.09	133.3
370.305	50.96
370.52	49.79
370.736	103.27
370.951	95.9
371.166	106.37
371.381	151.32
371.597	112.57
371.812	56.96
372.027	50.18
372.242	86.99
372.458	176.5
372.673	53.28
372.888	62
373.103	95.71
373.318	172.05
373.533	116.83
373.749	89.7
373.964	5.62
374.179	128.26
374.394	27.71
374.609	115.67
374.824	53.67
375.039	120.32
375.254	48.05
375.469	117.22
375.684	83.7
375.899	98.04
376.114	105.79
376.329	78.27
376.544	143.18
376.759	126.32
376.974	76.72
377.189	83.51
377.404	76.34
377.619	123.03
377.834	32.36
378.049	51.34
378.264	62.19
378.478	130.39
378.693	94.35
378.908	145.89
379.123	86.41
379.338	146.47
379.553	97.84
379.767	108.11
379.982	123.03
380.197	123.22
380.412	101.33
380.626	110.82
380.841	176.5
381.056	118.96
381.271	200.14
381.485	87.57
381.7	68.97
381.915	120.51
382.129	62.39
382.344	99.39
382.559	96.49
382.773	134.27
382.988	13.56
383.202	100.36
383.417	63.55
383.632	156.94
383.846	83.12
384.061	99.39
384.275	69.36
384.49	110.05
384.704	117.22
384.919	124.58
385.133	104.04
385.348	127.68
385.562	71.49
385.777	137.37
385.991	126.13
386.206	104.04
386.42	92.22
386.634	147.05
386.849	155.39
387.063	114.89
387.277	115.86
387.492	93.58
387.706	90.09
387.92	94.55
388.135	138.92
388.349	134.07
388.563	138.53
388.778	154.03
388.992	131.75
389.206	162.17
389.42	213.12
389.635	127.68
389.849	154.03
390.063	198.4
390.277	166.62
390.491	222.03
390.706	161.2
390.92	181.35
391.134	163.33
391.348	189.87
391.562	112.57
391.776	162.17
391.99	143.95
392.205	187.74
392.419	161.59
392.633	167.01
392.847	220.1
393.061	145.5
393.275	193.55
393.489	100.75
393.703	120.51
393.917	168.56
394.131	87.77
394.345	160.23
394.559	160.81
394.773	134.07
394.986	184.64
395.2	161
395.414	220.87
395.628	155
395.842	210.99
396.056	193.75
396.27	135.04
396.484	191.42
396.697	169.53
396.911	188.32
397.125	141.63
397.339	155.19
397.553	175.73
397.766	209.44
397.98	198.59
398.194	222.03
398.408	212.15
398.621	260.98
398.835	254.78
399.049	260.59
399.262	304.57
399.476	291.98
399.69	289.85
399.903	351.26
400.117	299.53
400.331	285
400.544	276.28
400.758	368.89
400.971	285
401.185	338.09
401.398	228.43
401.612	355.53
401.826	344.68
402.039	328.21
402.253	291.59
402.466	330.53
402.68	287.13
402.893	335.76
403.106	315.42
403.32	310.77
403.533	343.13
403.747	306.9
403.96	333.83
404.174	344.87
404.387	298.56
404.6	321.04
404.814	373.35
405.027	312.51
405.24	318.71
405.454	301.47
405.667	379.36
405.88	266.79
406.094	360.56
406.307	382.46
406.52	337.12
406.733	277.64
406.947	296.82
407.16	378
407.373	394.47
407.586	354.56
407.799	283.26
408.012	361.53
408.226	330.92
408.439	397.57
408.652	338.48
408.865	381.49
409.078	412.88
409.291	390.21
409.504	340.03
409.717	427.02
409.93	379.36
410.143	372.96
410.357	319.88
410.57	305.73
410.783	329.56
410.996	358.43
411.209	367.15
411.421	410.36
411.634	386.33
411.847	369.48
412.06	414.04
412.273	386.33
412.486	400.86
412.699	491.34
412.912	406.48
413.125	416.56
413.338	422.18
413.55	415.59
413.763	396.6
413.976	418.69
414.189	400.28
414.402	412.49
414.615	464.61
414.827	382.46
415.04	403.96
415.253	425.86
415.466	466.16
415.678	485.34
415.891	434.19
416.104	415.98
416.316	429.34
416.529	422.76
416.742	456.27
416.954	465.38
417.167	452.98
417.38	434.19
417.592	472.74
417.805	420.24
418.017	388.46
418.23	480.3
418.442	413.65
418.655	408.03
418.868	446.2
419.08	481.66
419.293	461.7
419.505	470.42
419.718	456.08
419.93	495.22
420.142	447.94
420.355	481.66
420.567	488.82
420.78	479.91
420.992	433.03
421.205	529.9
421.417	447.17
421.629	455.69
421.842	458.41
422.054	439.03
422.266	518.47
422.479	529.12
422.691	475.84
422.903	496.96
423.115	453.37
423.328	441.55
423.54	487.08
423.752	479.52
423.964	466.74
424.177	472.94
424.389	458.02
424.601	593.84
424.813	523.12
425.025	498.71
425.238	494.64
425.45	474.87
425.662	479.14
425.874	760.65
426.086	489.6
426.298	494.25
426.51	477.59
426.722	487.08
426.934	480.49
427.146	516.72
427.358	455.69
427.57	527.57
427.782	502
427.994	484.56
428.206	450.85
428.418	481.07
428.63	506.07
428.842	541.14
429.054	524.47
429.266	524.28
429.478	458.99
429.69	470.03
429.902	432.44
430.114	492.31
430.325	462.47
430.537	430.7
430.749	420.04
430.961	353.01
431.173	396.6
431.384	407.45
431.596	357.46
431.808	442.91
432.02	555.28
432.231	549.27
432.443	599.84
432.655	574.07
432.867	532.42
433.078	555.67
433.29	625.61
433.502	594.03
433.713	623.48
433.925	610.69
434.136	624.64
434.348	508.2
434.56	480.11
434.771	637.82
434.983	501.22
435.194	554.31
435.406	596.55
435.617	630.26
435.829	690.13
436.04	616.31
436.252	627.16
436.463	677.53
436.675	697.3
436.886	674.24
437.098	690.13
437.309	728.68
437.521	653.12
437.732	645.95
437.943	654.09
438.155	627.74
438.366	576.98
438.578	710.86
438.789	608.37
439	645.76
439.211	610.3
439.423	603.33
439.634	675.4
439.845	653.9
440.057	650.8
440.268	713.38
440.479	659.32
440.69	701.75
440.902	671.92
441.113	657.38
441.324	647.12
441.535	696.52
441.746	748.45
441.957	687.42
442.168	696.52
442.38	729.65
442.591	755.03
442.802	705.43
443.013	739.73
443.224	739.15
443.435	712.6
443.646	748.45
443.857	712.41
444.068	726.16
444.279	716.28
444.49	820.52
444.701	751.93
444.912	865.66
445.123	818
445.334	747.28
445.545	782.35
445.756	741.66
445.967	716.86
446.178	776.35
446.388	752.13
446.599	774.99
446.81	766.08
447.021	724.03
447.232	805.41
447.443	812.96
447.653	764.14
447.864	810.25
448.075	782.16
448.286	819.36
448.496	799.4
448.707	838.93
448.918	800.18
449.129	878.84
449.339	780.61
449.55	796.49
449.761	796.88
449.971	840.86
450.182	819.55
450.393	835.83
450.603	803.86
450.814	892.59
451.024	892.01
451.235	903.64
451.446	911.19
451.656	925.14
451.867	857.33
452.077	855.2
452.288	924.37
452.498	891.43
452.709	812.77
452.919	854.23
453.13	811.41
453.34	845.32
453.55	800.37
453.761	882.71
453.971	823.23
454.182	863.53
454.392	873.99
454.602	907.71
454.813	880.97
455.023	884.46
455.233	792.23
455.444	870.51
455.654	774.21
455.864	848.03
456.075	839.7
456.285	830.21
456.495	843.38
456.705	886.39
456.916	944.71
457.126	962.92
457.336	905.38
457.546	787
457.756	867.79
457.967	946.26
458.177	866.83
458.387	870.31
458.597	836.6
458.807	882.32
459.017	845.71
459.227	852.49
459.437	849.78
459.647	914.49
459.857	899.76
460.068	864.89
460.278	942.97
460.488	916.42
460.698	949.17
460.908	890.66
461.117	871.86
461.327	899.96
461.537	922.82
461.747	934.06
461.957	947.42
462.167	1047.79
462.377	963.5
462.587	936.77
462.797	1001.67
463.007	950.72
463.216	986.56
463.426	1033.45
463.636	1004.19
463.846	892.79
464.056	938.9
464.265	939.48
464.475	920.69
464.685	983.07
464.895	982.49
465.104	942
465.314	1008.45
465.524	925.34
465.733	914.87
465.943	1062.12
466.153	1032.67
466.362	1018.14
466.572	1016.59
466.782	959.63
466.991	993.92
467.201	1049.53
467.41	894.34
467.62	993.15
467.829	984.82
468.039	1017.95
468.249	991.99
468.458	1021.05
468.668	1017.95
468.877	1015.24
469.086	1086.15
469.296	1085.37
469.505	1000.9
469.715	1124.9
469.924	1044.88
470.134	1121.99
470.343	1069.87
470.552	1056.89
470.762	1035.39
470.971	1008.07
471.18	1063.48
471.39	1053.4
471.599	1010.39
471.808	1118.31
472.018	1061.93
472.227	1133.03
472.436	1176.05
472.645	1126.83
472.855	1139.23
473.064	1192.13
473.273	1169.07
473.482	1171.78
473.691	1200.46
473.901	1168.68
474.11	1142.33
474.319	1272.14
474.528	1188.25
474.737	1290.94
474.946	1263.23
475.155	1237.66
475.364	1277.76
475.573	1247.93
475.783	1256.64
475.992	1280.86
476.201	1293.84
476.41	1235.53
476.619	1218.67
476.828	1251.03
477.037	1210.53
477.245	1228.94
477.454	1309.73
477.663	1302.95
477.872	1296.56
478.081	1422.88
478.29	1311.86
478.499	1422.88
478.708	1410.87
478.917	1436.83
479.125	1354.1
479.334	1376.57
479.543	1363.98
479.752	1413.77
479.961	1422.49
480.169	1464.15
480.378	1423.65
480.587	1555.02
480.796	1456.4
481.004	1468.02
481.213	1497.86
481.422	1470.35
481.63	1492.82
481.839	1526.53
482.048	1556.76
482.256	1534.28
482.465	1539.71
482.674	1549.98
482.882	1556.57
483.091	1618.95
483.299	1530.22
483.508	1628.83
483.716	1592.02
483.925	1612.17
484.134	1536.03
484.342	1599.58
484.551	1619.92
484.759	1606.36
484.967	1609.07
485.176	1644.91
485.384	1640.26
485.593	1619.53
485.801	1615.66
486.01	1570.9
486.218	1481.39
486.426	1388.01
486.635	1357.01
486.843	1382.97
487.051	1434.12
487.26	1434.31
487.468	1526.15
487.676	1564.9
487.885	1550.37
488.093	1605.97
488.301	1628.06
488.509	1648.21
488.717	1690.83
488.926	1696.26
489.134	1636.39
489.342	1665.26
489.55	1633.1
489.758	1702.07
489.967	1683.86
490.175	1788.29
490.383	1747.02
490.591	1842.15
490.799	1764.84
491.007	1823.36
491.215	1798.75
491.423	1781.7
491.631	1735.59
491.839	1792.74
492.047	1856.29
492.255	1690.44
492.463	1676.88
492.671	1678.63
492.879	1778.99
493.087	1741.59
493.295	1804.17
493.503	1783.64
493.711	1878.38
493.919	1888.65
494.127	1857.65
494.334	1860.94
494.542	1783.64
494.75	1871.02
494.958	1846.8
495.166	1941.54
495.374	1926.82
495.581	1940.96
495.789	1953.75
495.997	1957.82
496.205	1855.52
496.412	1869.47
496.62	1888.84
496.828	1951.23
497.035	1917.32
497.243	1958.2
497.451	1945.8
497.658	1947.93
497.866	1923.91
498.074	2026.6
498.281	1938.63
498.489	1994.43
498.696	1939.8
498.904	1900.66
499.112	1887.1
499.319	1992.69
499.527	1955.1
499.734	2014.78
499.942	1939.41
500.149	1933.6
500.357	1993.08
500.564	1869.66
500.771	1948.9
500.979	1883.03
501.186	1897.56
501.394	1928.56
501.601	1876.83
501.808	1915
502.016	1896.79
502.223	1863.46
502.43	1908.22
502.638	1881.48
502.845	1894.46
503.052	2012.65
503.26	1939.02
503.467	2023.5
503.674	1966.15
503.881	1976.8
504.089	2052.36
504.296	1980.29
504.503	1892.72
504.71	1940.77
504.917	1935.15
505.125	1969.63
505.332	1993.47
505.539	2020.01
505.746	2097.51
505.953	2072.13
506.16	2077.36
506.367	2121.53
506.574	2156.79
506.781	2188.37
506.988	2042.29
507.195	2055.08
507.402	2047.91
507.609	2084.53
507.816	2036.48
508.023	2040.93
508.23	2010.32
508.437	1994.63
508.644	2006.64
508.851	2069.03
509.058	2066.9
509.265	2078.13
509.472	2127.15
509.679	2181.01
509.885	2154.47
510.092	2103.32
510.299	2077.75
510.506	2060.7
510.713	2069.61
510.92	2110.68
511.126	2125.99
511.333	2160.48
511.54	2141.1
511.746	2179.46
511.953	2218.99
512.16	2185.47
512.367	2153.69
512.573	2168.42
512.78	2186.05
512.987	2130.44
513.193	2131.03
513.4	2037.25
513.606	2129.86
513.813	2122.11
514.02	2102.54
514.226	2190.31
514.433	2169.19
514.639	2034.15
514.846	2133.74
515.052	2096.35
515.259	2114.56
515.465	2121.53
515.672	2093.83
515.878	2235.26
516.085	2158.93
516.291	2216.47
516.497	2165.32
516.704	2069.8
516.91	2053.91
517.117	1979.52
517.323	1902.02
517.529	1921.2
517.736	1898.92
517.942	1920.42
518.148	1976.42
518.354	2014.58
518.561	1979.9
518.767	2000.25
518.973	2031.44
519.179	2081.81
519.386	2071.93
519.592	2031.25
519.798	2081.04
520.004	2170.94
520.21	2148.85
520.417	2174.04
520.623	2246.89
520.829	2220.54
521.035	2211.24
521.241	2225.38
521.447	2282.15
521.653	2349.57
521.859	2235.46
522.065	2295.71
522.271	2373.4
522.477	2359.65
522.683	2383.28
522.889	2339.5
523.095	2301.14
523.301	2289.9
523.507	2226.35
523.713	2285.05
523.919	2273.04
524.125	2368.17
524.331	2350.15
524.537	2440.63
524.742	2495.27
524.948	2471.05
525.154	2456.33
525.36	2565.6
525.566	2440.83
525.772	2488.68
525.977	2399.37
526.183	2424.55
526.389	2464.85
526.595	2381.54
526.8	2412.73
527.006	2272.07
527.212	2223.44
527.417	2188.76
527.623	2241.27
527.829	2308.3
528.034	2324.58
528.24	2343.76
528.446	2387.16
528.651	2500.11
528.857	2489.65
529.062	2534.02
529.268	2529.95
529.473	2593.89
529.679	2578.58
529.884	2627.79
530.09	2571.8
530.295	2569.28
530.501	2567.15
530.706	2609
530.912	2554.17
531.117	2619.46
531.323	2607.64
531.528	2635.93
531.733	2680.69
531.939	2652.4
532.144	2639.03
532.35	2640
532.555	2664.22
532.76	2616.94
532.966	2582.84
533.171	2578.78
533.376	2544.09
533.581	2502.05
533.787	2588.85
533.992	2591.95
534.197	2626.05
534.402	2589.82
534.607	2615.98
534.813	2695.8
535.018	2620.82
535.223	2678.75
535.428	2640.39
535.633	2695.41
535.838	2697.54
536.043	2699.67
536.249	2805.07
536.454	2720.02
536.659	2762.45
536.864	2701.61
537.069	2682.82
537.274	2693.86
537.479	2690.57
537.684	2701.42
537.889	2620.63
538.094	2781.24
538.299	2689.21
538.504	2718.85
538.708	2710.14
538.913	2818.44
539.118	2753.92
539.323	2745.79
539.528	2695.8
539.733	2703.94
539.938	2701.22
540.142	2708.01
540.347	2701.81
540.552	2619.08
540.757	2650.85
540.962	2635.35
541.166	2589.63
541.371	2596.99
541.576	2605.13
541.781	2547.78
541.985	2694.83
542.19	2676.42
542.395	2793.06
542.599	2776.4
542.804	2730.87
543.008	2809.92
543.213	2690.57
543.418	2673.13
543.622	2762.64
543.827	2679.91
544.031	2788.6
544.236	2804.3
544.44	2756.25
544.645	2850.22
544.849	2752.57
545.054	2805.85
545.258	2884.7
545.463	2835.1
545.667	2683.4
545.872	2804.3
546.076	2815.53
546.281	2819.8
546.485	2740.55
546.689	2771.75
546.894	2821.35
547.098	2795.58
547.302	2755.28
547.507	2764.19
547.711	2813.02
547.915	2811.66
548.119	2714.4
548.324	2702.19
548.528	2815.15
548.732	2795.19
548.936	2794.22
549.141	2802.36
549.345	2765.74
549.549	2791.51
549.753	2783.76
549.957	2868.62
550.161	2855.83
550.366	2829.68
550.57	2763.42
550.774	2822.51
550.978	2792.87
551.182	2822.12
551.386	2731.45
551.59	2775.62
551.794	2752.95
551.998	2838.59
552.202	2765.94
552.406	2780.08
552.61	2824.25
552.814	2756.64
553.018	2877.53
553.222	2804.88
553.426	2785.5
553.63	2836.46
553.833	2760.51
554.037	2731.45
554.241	2784.15
554.445	2772.33
554.649	2778.72
554.853	2766.9
555.056	2819.22
555.26	2837.23
555.464	2805.46
555.668	2835.1
555.871	2822.12
556.075	2847.12
556.279	2780.85
556.483	2754.89
556.686	2747.72
556.89	2749.66
557.094	2742.3
557.297	2676.42
557.501	2769.62
557.704	2665.57
557.908	2768.84
558.112	2696.19
558.315	2767.68
558.519	2684.76
558.722	2698.12
558.926	2691.73
559.129	2596.21
559.333	2627.41
559.536	2604.74
559.74	2572.19
559.943	2573.54
560.147	2607.84
560.35	2577.61
560.553	2619.66
560.757	2563.28
560.96	2671.19
561.164	2616.17
561.367	2751.02
561.57	2621.21
561.774	2662.09
561.977	2595.24
562.18	2609.39
562.384	2708.78
562.587	2644.07
562.79	2586.72
562.993	2598.15
563.197	2609.39
563.4	2658.21
563.603	2656.47
563.806	2702.19
564.009	2603.38
564.212	2604.35
564.416	2532.66
564.619	2578.39
564.822	2502.05
565.025	2606.29
565.228	2562.5
565.431	2601.83
565.634	2497.4
565.837	2496.05
566.04	2491.2
566.243	2467.37
566.446	2387.74
566.649	2496.05
566.852	2374.76
567.055	2466.01
567.258	2481.71
567.461	2546.03
567.664	2515.03
567.867	2426.68
568.07	2520.07
568.273	2490.62
568.475	2582.07
568.678	2438.31
568.881	2448.38
569.084	2452.26
569.287	2346.28
569.489	2365.65
569.692	2440.83
569.895	2441.8
570.098	2355.97
570.3	2348.8
570.503	2290.29
570.706	2315.09
570.909	2342.6
571.111	2267.04
571.314	2278.47
571.516	2255.99
571.719	2336.98
571.922	2284.28
572.124	2276.72
572.327	2292.42
572.529	2270.33
572.732	2271.11
572.935	2323.42
573.137	2387.35
573.34	2278.85
573.542	2364.1
573.745	2358.87
573.947	2334.46
574.15	2285.64
574.352	2254.25
574.554	2352.48
574.757	2286.41
574.959	2236.23
575.162	2270.52
575.364	2255.61
575.566	2319.93
575.769	2224.41
575.971	2227.9
576.173	2103.13
576.376	2221.89
576.578	2275.56
576.78	2256.77
576.982	2154.08
577.185	2228.29
577.387	2192.83
577.589	2156.02
577.791	2247.86
577.993	2221.12
578.196	2200.39
578.398	2197.67
578.6	2212.01
578.802	2135.87
579.004	2096.54
579.206	2151.37
579.408	2173.26
579.61	2134.9
579.812	2210.46
580.014	2175.01
580.216	2126.57
580.418	2118.24
580.62	2110.49
580.822	2134.13
581.024	2154.08
581.226	2181.4
581.428	2132.38
581.63	2252.51
581.832	2150.59
582.034	2237.39
582.236	2141.49
582.438	2215.69
582.64	2236.04
582.841	2237.97
583.043	2273.62
583.245	2164.74
583.447	2196.32
583.649	2186.82
583.85	2169.78
584.052	2230.81
584.254	2153.5
584.456	2215.11
584.657	2127.54
584.859	2177.72
585.061	2127.93
585.262	2125.6
585.464	2082.98
585.666	2151.76
585.867	2092.28
586.069	2155.24
586.27	2119.01
586.472	2092.08
586.674	2056.24
586.875	2088.21
587.077	2074.84
587.278	2116.88
587.48	2062.83
587.681	2197.87
587.883	2147.3
588.084	2037.83
588.285	2061.47
588.487	2040.16
588.688	2090.53
588.89	1981.65
589.091	1959.75
589.292	1949.68
589.494	1875.47
589.695	1846.02
589.896	1776.47
590.098	1819.09
590.299	1853.39
590.5	1798.94
590.702	1881.48
590.903	1876.05
591.104	1943.48
591.305	1969.05
591.507	2022.53
591.708	1986.1
591.909	1935.73
592.11	2021.36
592.311	2008.19
592.512	1936.5
592.714	1915
592.915	1970.6
593.116	1922.75
593.317	1946.38
593.518	1966.73
593.719	1943.48
593.92	1975.83
594.121	2016.33
594.322	1950.26
594.523	1964.79
594.724	1897.95
594.925	1954.91
595.126	1954.13
595.327	1932.24
595.528	1966.15
595.729	1977.77
595.929	1937.08
596.13	1982.42
596.331	1964.98
596.532	1955.68
596.733	2023.5
596.934	2009.16
597.135	1980.29
597.335	1983.58
597.536	1930.3
597.737	1971.57
597.938	1930.5
598.138	1970.22
598.339	1942.12
598.54	1986.3
598.74	1938.05
598.941	1957.04
599.142	1977.58
599.342	1956.85
599.543	1883.42
599.744	1933.4
599.944	1918.49
600.145	1921.59
600.345	1955.49
600.546	1996.37
600.746	2016.91
600.947	1992.5
601.147	1958.01
601.348	1923.91
601.548	1908.99
601.749	1954.91
601.949	1896.98
602.15	1888.84
602.35	1880.9
602.551	1935.92
602.751	1889.81
602.951	1900.66
603.152	1818.12
603.352	1943.48
603.552	1898.53
603.753	1914.8
603.953	1942.51
604.153	1947.55
604.354	1904.54
604.554	1929.14
604.754	1952.58
604.954	1863.07
605.155	1933.98
605.355	1905.89
605.555	1923.52
605.755	1976.22
605.955	1902.79
606.155	1967.31
606.356	1891.17
606.556	1892.14
606.756	1923.13
606.956	1868.3
607.156	1925.27
607.356	1891.75
607.556	1920.81
607.756	1864.04
607.956	1920.62
608.156	1897.37
608.356	1854.35
608.556	1920.23
608.756	1876.44
608.956	1851.25
609.156	1887.1
609.356	1823.16
609.556	1874.5
609.755	1828.01
609.955	1823.55
610.155	1850.67
610.355	1835.56
610.555	1837.89
610.755	1833.43
610.954	1735.39
611.154	1858.81
611.354	1854.16
611.554	1814.44
611.753	1789.84
611.953	1776.47
612.153	1842.15
612.352	1878.38
612.552	1768.72
612.752	1782.09
612.951	1796.81
613.151	1777.82
613.351	1785.57
613.55	1785.38
613.75	1814.06
613.949	1765.04
614.149	1804.76
614.348	1761.55
614.548	1767.17
614.747	1685.02
614.947	1726.29
615.146	1700.91
615.346	1809.79
615.545	1792.55
615.745	1772.98
615.944	1779.37
616.144	1737.53
616.343	1764.07
616.542	1730.74
616.742	1714.08
616.941	1702.26
617.14	1645.3
617.34	1712.53
617.539	1713.31
617.738	1681.73
617.938	1766.39
618.137	1698.19
618.336	1662.35
618.535	1729
618.734	1704.39
618.934	1734.62
619.133	1772.01
619.332	1729.78
619.531	1691.8
619.73	1719.31
619.929	1753.02
620.128	1779.37
620.328	1781.12
620.527	1713.89
620.726	1725.9
620.925	1728.42
621.124	1736.56
621.323	1726.09
621.522	1662.93
621.721	1687.93
621.92	1633.1
622.119	1703.81
622.318	1659.64
622.517	1681.34
622.715	1648.79
622.914	1597.45
623.113	1680.18
623.312	1599
623.511	1690.25
623.71	1640.46
623.909	1644.72
624.107	1724.74
624.306	1620.89
624.505	1609.26
624.704	1602.87
624.902	1621.66
625.101	1684.44
625.3	1618.95
625.499	1550.56
625.697	1571.1
625.896	1579.81
626.095	1605.97
626.293	1542.23
626.492	1572.65
626.69	1629.8
626.889	1613.33
627.088	1639.1
627.286	1582.72
627.485	1587.95
627.683	1568.77
627.882	1585.05
628.08	1532.73
628.279	1548.04
628.477	1607.71
628.676	1500.18
628.874	1576.91
629.073	1506.38
629.271	1517.04
629.469	1576.33
629.668	1541.26
629.866	1562.96
630.065	1492.05
630.263	1567.8
630.461	1520.92
630.66	1523.05
630.858	1528.08
631.056	1596.67
631.254	1586.98
631.453	1509.48
631.651	1563.35
631.849	1482.75
632.047	1510.26
632.245	1517.82
632.444	1528.47
632.642	1567.22
632.84	1574.2
633.038	1542.23
633.236	1468.8
633.434	1490.88
633.632	1504.06
633.83	1500.96
634.028	1543.78
634.227	1486.62
634.425	1576.13
634.623	1510.26
634.821	1510.65
635.019	1540.68
635.216	1494.76
635.414	1574.2
635.612	1533.7
635.81	1477.52
636.008	1570.52
636.206	1506.58
636.404	1554.63
636.602	1517.62
636.8	1498.83
636.997	1558.89
637.195	1528.47
637.393	1487.01
637.591	1568.58
637.789	1541.07
637.986	1500.57
638.184	1506.58
638.382	1555.21
638.58	1571.68
638.777	1603.84
638.975	1512.58
639.173	1538.74
639.37	1534.28
639.568	1536.8
639.765	1568.19
639.963	1470.54
640.161	1555.21
640.358	1565.67
640.556	1480.23
640.753	1446.52
640.951	1450.97
641.148	1470.54
641.346	1432.57
641.543	1471.7
641.741	1494.76
641.938	1437.6
642.136	1445.16
642.333	1412.8
642.531	1495.34
642.728	1517.62
642.925	1495.15
643.123	1437.22
643.32	1462.79
643.517	1418.62
643.715	1454.46
643.912	1427.72
644.109	1443.8
644.306	1425.4
644.504	1415.71
644.701	1456.4
644.898	1485.27
645.095	1406.8
645.293	1451.55
645.49	1467.44
645.687	1435.28
645.884	1500.96
646.081	1332.4
646.278	1404.28
646.475	1364.95
646.672	1374.25
646.87	1419
647.067	1382.19
647.264	1414.94
647.461	1373.28
647.658	1351
647.855	1410.29
648.052	1349.84
648.249	1306.44
648.446	1355.46
648.642	1374.06
648.839	1357.39
649.036	1307.99
649.233	1299.08
649.43	1291.91
649.627	1259.55
649.824	1297.33
650.021	1283.19
650.217	1318.06
650.414	1289.39
650.611	1314.38
650.808	1357.01
651.004	1330.66
651.201	1388.78
651.398	1431.21
651.595	1346.54
651.791	1287.26
651.988	1384.32
652.185	1297.33
652.381	1350.22
652.578	1264.78
652.775	1320
652.971	1299.46
653.168	1315.35
653.364	1357.59
653.561	1283.58
653.757	1331.04
653.954	1357.39
654.15	1295.2
654.347	1388.2
654.543	1319.81
654.74	1292.49
654.936	1255.68
655.133	1284.74
655.329	1319.61
655.525	1287.64
655.722	1303.73
655.918	1250.44
656.115	1257.03
656.311	1160.55
656.507	1145.43
656.704	1070.84
656.9	1111.14
657.096	1124.7
657.292	1113.27
657.489	1191.35
657.685	1187.67
657.881	1136.13
658.077	1170.04
658.273	1227.78
658.47	1257.81
658.666	1253.74
658.862	1268.66
659.058	1234.56
659.254	1268.66
659.45	1242.5
659.646	1272.14
659.842	1255.29
660.038	1301.21
660.234	1220.41
660.43	1287.26
660.626	1322.71
660.822	1277.96
661.018	1311.47
661.214	1279.31
661.41	1257.23
661.606	1268.08
661.802	1342.67
661.998	1269.24
662.194	1258.58
662.39	1313.61
662.586	1305.66
662.781	1293.84
662.977	1311.28
663.173	1335.89
663.369	1274.86
663.564	1286.68
663.76	1301.79
663.956	1273.69
664.152	1306.05
664.347	1218.09
664.543	1292.1
664.739	1271.18
664.934	1218.86
665.13	1206.08
665.326	1301.01
665.521	1262.07
665.717	1214.99
665.912	1212.08
666.108	1185.15
666.304	1290.74
666.499	1225.45
666.695	1195.03
666.89	1253.54
667.086	1281.44
667.281	1252.77
667.477	1309.34
667.672	1247.34
667.867	1248.7
668.063	1244.24
668.258	1198.52
668.454	1234.94
668.649	1294.62
668.844	1266.53
669.04	1222.16
669.235	1224.48
669.43	1199.3
669.626	1169.85
669.821	1213.05
670.016	1168.3
670.211	1219.64
670.407	1154.93
670.602	1230.1
670.797	1207.24
670.992	1287.84
671.187	1202.01
671.382	1236.3
671.578	1184.18
671.773	1246.57
671.968	1181.08
672.163	1171.2
672.358	1196.97
672.553	1179.92
672.748	1152.21
672.943	1255.48
673.138	1199.1
673.333	1266.33
673.528	1145.05
673.723	1203.36
673.918	1155.12
674.113	1175.85
674.308	1256.64
674.503	1202.98
674.698	1224.09
674.892	1208.01
675.087	1185.73
675.282	1194.65
675.477	1191.74
675.672	1207.82
675.867	1152.6
676.061	1170.62
676.256	1152.99
676.451	1173.53
676.646	1209.37
676.84	1154.73
677.035	1123.35
677.23	1126.06
677.424	1204.14
677.619	1214.99
677.814	1212.08
678.008	1229.52
678.203	1145.43
678.397	1155.7
678.592	1162.29
678.787	1221.96
678.981	1168.88
679.176	1186.31
679.37	1137.1
679.565	1171.4
679.759	1140.01
679.954	1190.38
680.148	1229.71
680.342	1206.46
680.537	1186.31
680.731	1159
680.926	1191.93
681.12	1187.09
681.314	1132.07
681.509	1146.98
681.703	1165.78
681.897	1175.46
682.092	1126.45
682.286	1146.01
682.48	1220.8
682.674	1191.35
682.869	1168.49
683.063	1171.59
683.257	1218.28
683.451	1125.28
683.645	1183.41
683.839	1151.44
684.034	1134
684.228	1164.61
684.422	1113.85
684.616	1120.83
684.81	1149.5
685.004	1138.65
685.198	1112.3
685.392	1138.07
685.586	1115.02
685.78	1124.12
685.974	1153.96
686.168	1144.66
686.362	1226.03
686.556	1094.67
686.75	1045.07
686.944	1017.75
687.138	1038.49
687.331	906.35
687.525	961.57
687.719	863.92
687.913	942.58
688.107	923.21
688.301	917.78
688.494	993.34
688.688	908.29
688.882	890.85
689.076	897.44
689.269	954.01
689.463	1007.87
689.657	928.63
689.85	945.87
690.044	935.22
690.238	924.17
690.431	928.63
690.625	950.14
690.818	957.89
691.012	976.1
691.205	1020.08
691.399	954.79
691.593	982.3
691.786	1073.36
691.98	1042.55
692.173	1065.42
692.366	1047.01
692.56	1064.06
692.753	1119.08
692.947	1013.1
693.14	1084.02
693.333	1085.57
693.527	1047.4
693.72	1079.56
693.914	1053.4
694.107	1029.19
694.3	1059.6
694.493	1027.44
694.687	1115.02
694.88	1004.19
695.073	1113.66
695.266	1080.92
695.46	1087.5
695.653	1083.43
695.846	1103.58
696.039	1023.18
696.232	1031.32
696.425	1100.29
696.618	1167.13
696.812	1123.93
697.005	1170.04
697.198	1217.31
697.391	1132.84
697.584	1210.34
697.777	1243.66
697.97	1211.11
698.163	1219.06
698.356	1218.28
698.549	1311.09
698.742	1222.55
698.935	1170.43
699.127	1258.58
699.32	1215.38
699.513	1203.56
699.706	1240.37
699.899	1262.46
700.092	1235.53
700.285	1288.42
700.477	1212.66
700.67	1305.28
700.863	1313.02
701.056	1365.14
701.248	1355.07
701.441	1333.95
701.634	1313.61
701.826	1419.78
702.019	1310.89
702.212	1392.66
702.404	1345.19
702.597	1315.35
702.79	1342.28
702.982	1408.15
703.175	1463.76
703.367	1443.22
703.56	1452.52
703.752	1533.51
703.945	1497.67
704.137	1524.21
704.33	1559.08
704.522	1546.88
704.715	1546.68
704.907	1593.38
705.1	1625.35
705.292	1613.33
705.484	1605.58
705.677	1637.16
705.869	1672.81
706.061	1691.41
706.254	1738.88
706.446	1689.09
706.638	1705.94
706.831	1782.28
707.023	1709.63
707.215	1815.99
707.407	1801.85
707.599	1808.24
707.792	1857.07
707.984	1837.89
708.176	1895.04
708.368	1870.44
708.56	1885.16
708.752	1899.11
708.944	1890.59
709.136	1955.49
709.329	1882.64
709.521	2083.56
709.713	2043.84
709.905	2038.8
710.097	2051.2
710.289	1996.57
710.481	2071.35
710.672	2103.71
710.864	2089.18
711.056	2136.64
711.248	2113.39
711.44	2162.61
711.632	2127.93
711.824	2165.9
712.016	2210.66
712.207	2241.27
712.399	2251.73
712.591	2300.36
712.783	2284.28
712.975	2301.14
713.166	2275.37
713.358	2280.99
713.55	2336.79
713.741	2363.72
713.933	2367.98
714.125	2389.29
714.316	2330.2
714.508	2456.71
714.7	2471.05
714.891	2439.47
715.083	2507.09
715.274	2474.35
715.466	2530.73
715.657	2555.72
715.849	2474.73
716.04	2493.72
716.232	2476.09
716.423	2530.92
716.615	2466.6
716.806	2458.85
716.998	2449.35
717.189	2344.15
717.381	2313.15
717.572	2279.05
717.763	2264.91
717.955	2276.92
718.146	2186.44
718.337	2191.09
718.528	2167.06
718.72	2074.65
718.911	2157.57
719.102	2123.86
719.293	2171.52
719.485	2182.95
719.676	2123.28
719.867	2121.34
720.058	2138.58
720.249	2150.79
720.44	2198.84
720.632	2242.43
720.823	2285.83
721.014	2420.1
721.205	2416.22
721.396	2533.05
721.587	2648.91
721.778	2639.03
721.969	2678.17
722.16	2771.17
722.351	2777.95
722.542	2880.05
722.733	2911.05
722.924	2850.6
723.115	2882.77
723.305	2856.8
723.496	2890.32
723.687	2755.67
723.878	2807.59
724.069	2782.79
724.26	2820.38
724.45	2721.76
724.641	2734.55
724.832	2764.39
725.023	2781.24
725.213	2773.69
725.404	2730.87
725.595	2766.71
725.785	2742.1
725.976	2868.62
726.167	2865.72
726.357	2873.08
726.548	2966.08
726.739	2879.08
726.929	2946.9
727.12	3023.81
727.31	3030.98
727.501	2952.71
727.691	2987
727.882	3005.02
728.072	3052.29
728.263	3032.73
728.453	3124.37
728.644	3146.65
728.834	3076.9
729.024	3081.55
729.215	3098.6
729.405	3118.94
729.596	3165.64
729.786	3205.55
729.976	3250.88
730.167	3250.5
730.357	3201.29
730.547	3210.39
730.737	3226.47
730.928	3312.5
731.118	3391.55
731.308	3322.38
731.498	3330.13
731.688	3443.28
731.879	3441.34
732.069	3520
732.259	3539.37
732.449	3579.29
732.639	3650.2
732.829	3677.52
733.019	3714.91
733.209	3779.04
733.399	3779.23
733.589	3848.01
733.779	3921.06
733.969	3873.39
734.159	3981.31
734.349	4003.59
734.539	4069.08
734.729	4071.99
734.919	4090
735.109	4155.1
735.299	4068.11
735.488	4123.52
735.678	4108.02
735.868	4149.48
736.058	4110.93
736.248	4063.27
736.437	4111.32
736.627	4088.07
736.817	4259.34
737.007	4160.33
737.196	4222.91
737.386	4244.81
737.576	4143.67
737.765	4314.56
737.955	4237.45
738.144	4352.73
738.334	4345.36
738.524	4266.7
738.713	4322.5
738.903	4324.44
739.092	4352.73
739.282	4312.81
739.471	4330.25
739.661	4359.12
739.85	4360.67
740.04	4396.51
740.229	4441.27
740.419	4454.44
740.608	4422.28
740.797	4399.61
740.987	4498.42
741.176	4525.35
741.365	4396.12
741.555	4395.54
741.744	4540.27
741.933	4429.26
742.123	4487.96
742.312	4529.62
742.501	4568.37
742.69	4526.13
742.88	4446.5
743.069	4635.98
743.258	4560.42
743.447	4618.16
743.636	4625.13
743.825	4563.72
744.014	4655.55
744.204	4640.63
744.393	4591.03
744.582	4655.75
744.771	4685
744.96	4609.83
745.149	4622.23
745.338	4594.13
745.527	4674.73
745.716	4690.04
745.905	4629.98
746.094	4725.69
746.283	4705.54
746.471	4724.91
746.66	4748.36
746.849	4756.3
747.038	4777.23
747.227	4744.68
747.416	4762.89
747.604	4675.12
747.793	4685.58
747.982	4715.61
748.171	4778.39
748.359	4739.44
748.548	4727.63
748.737	4713.29
748.926	4721.04
749.114	4600.14
749.303	4707.48
749.491	4707.48
749.68	4646.25
749.869	4750.29
750.057	4726.85
750.246	4641.6
750.434	4678.61
750.623	4689.07
750.811	4678.03
751	4718.52
751.188	4696.82
751.377	4678.8
751.565	4678.61
751.754	4633.85
751.942	4593.17
752.131	4662.33
752.319	4643.93
752.507	4534.85
752.696	4680.93
752.884	4684.81
753.072	4641.99
753.261	4650.32
753.449	4615.83
753.637	4592.58
753.825	4708.06
754.014	4641.99
754.202	4615.06
754.39	4708.06
754.578	4706.51
754.766	4592.39
754.955	4578.63
755.143	4648.38
755.331	4604.6
755.519	4584.45
755.707	4579.02
755.895	4617.97
756.083	4593.36
756.271	4519.74
756.459	4553.06
756.647	4582.7
756.835	4536.01
757.023	4589.68
757.211	4522.25
757.399	4536.01
757.587	4520.9
757.775	4439.72
757.963	4513.54
758.151	4500.17
758.339	4441.46
758.526	4476.72
758.714	4471.1
758.902	4381.21
759.09	4298.86
759.278	4100.85
759.465	3841.81
759.653	3437.08
759.841	3145.29
760.028	2774.65
760.216	2458.26
760.404	2312.95
760.591	2001.22
760.779	1736.94
760.967	1590.28
761.154	1397.5
761.342	1435.67
761.529	1409.32
761.717	1552.5
761.905	1554.63
762.092	1653.44
762.28	1644.72
762.467	1654.02
762.655	1620.89
762.842	1649.95
763.029	1681.14
763.217	1671.26
763.404	1714.86
763.592	1766.59
763.779	1716.21
763.966	1803.79
764.154	1849.9
764.341	1900.27
764.528	1905.31
764.716	1995.6
764.903	2081.04
765.09	2120.37
765.277	2176.17
765.465	2320.9
765.652	2421.45
765.839	2502.44
766.026	2624.89
766.213	2689.6
766.4	2791.12
766.588	2961.43
766.775	3022.46
766.962	3079.22
767.149	3207.68
767.336	3288.67
767.523	3303.97
767.71	3444.63
767.897	3575.02
768.084	3643.8
768.271	3635.86
768.458	3726.15
768.645	3837.75
768.832	3791.25
769.019	3820.11
769.206	3864.48
769.392	3886.96
769.579	3963.68
769.766	3967.94
769.953	3928.81
770.14	4006.5
770.327	3946.24
770.513	4059
770.7	4111.51
770.887	4005.53
771.073	4056.87
771.26	4037.11
771.447	3960.19
771.634	3983.06
771.82	4093.69
772.007	4000.11
772.193	4026.45
772.38	4075.47
772.567	4005.53
772.753	3973.17
772.94	4069.85
773.126	4050.67
773.313	4069.85
773.499	3995.84
773.686	4046.8
773.872	3983.83
774.059	4007.47
774.245	3945.27
774.432	4002.04
774.618	3933.07
774.804	3969.49
774.991	3886.57
775.177	3953.8
775.363	3922.61
775.55	3954.77
775.736	3880.56
775.922	3905.94
776.109	3948.96
776.295	3887.34
776.481	3926.09
776.667	3881.92
776.853	3875.53
777.04	3863.9
777.226	3891.8
777.412	3921.64
777.598	3849.37
777.784	3829.22
777.97	3867.58
778.156	3826.51
778.342	3843.17
778.528	3822.25
778.715	3729.63
778.901	3798.41
779.087	3848.21
779.272	3763.93
779.458	3797.06
779.644	3795.51
779.83	3743.97
780.016	3872.23
780.202	3767.61
780.388	3740.29
780.574	3677.71
780.76	3737
780.946	3783.3
781.131	3776.71
781.317	3701.54
781.503	3710.65
781.689	3636.44
781.874	3791.44
782.06	3677.9
782.246	3689.72
782.432	3680.42
782.617	3699.41
782.803	3740.1
782.989	3584.9
783.174	3641.29
783.36	3563.21
783.545	3624.43
783.731	3603.7
783.916	3537.24
784.102	3619.2
784.288	3552.94
784.473	3557.01
784.659	3522.71
784.844	3607.96
785.029	3540.92
785.215	3509.34
785.4	3431.46
785.586	3613.97
785.771	3488.23
785.956	3530.07
786.142	3449.28
786.327	3472.14
786.512	3473.31
786.698	3501.98
786.883	3426.61
787.068	3460.13
787.254	3439.01
787.439	3439.98
787.624	3417.7
787.809	3389.8
787.994	3396
788.18	3453.93
788.365	3339.43
788.55	3353.38
788.735	3398.33
788.92	3328.58
789.105	3372.56
789.29	3425.26
789.475	3295.45
789.66	3343.5
789.845	3308.62
790.03	3221.05
790.215	3325.86
790.4	3348.92
790.585	3326.83
790.77	3270.84
790.955	3217.95
791.14	3265.8
791.325	3355.9
791.51	3163.7
791.695	3272.58
791.879	3224.34
792.064	3221.82
792.249	3306.3
792.434	3198.77
792.618	3235.97
792.803	3276.46
792.988	3223.57
793.173	3228.02
793.357	3279.56
793.542	3194.7
793.727	3201.87
793.911	3271.23
794.096	3228.99
794.281	3289.25
794.465	3334.78
794.65	3191.02
794.834	3293.32
795.019	3313.47
795.203	3291.18
795.388	3263.67
795.572	3315.02
795.757	3325.28
795.941	3284.6
796.126	3268.52
796.31	3235.97
796.494	3238.68
796.679	3286.92
796.863	3258.83
797.048	3365.39
797.232	3266.77
797.416	3248.37
797.601	3251.66
797.785	3297.77
797.969	3351.63
798.153	3239.26
798.338	3317.92
798.522	3337.49
798.706	3370.04
798.89	3379.53
799.074	3437.85
799.258	3395.03
799.443	3333.42
799.627	3333.61
799.811	3356.48
799.995	3329.74
800.179	3287.12
800.363	3283.43
800.547	3315.21
800.731	3362.48
800.915	3241.39
801.099	3270.07
801.283	3271.23
801.467	3324.31
801.651	3302.03
801.835	3352.6
802.019	3323.73
802.202	3369.26
802.386	3285.57
802.57	3274.52
802.754	3303.58
802.938	3233.25
803.121	3280.14
803.305	3359.38
803.489	3297.97
803.673	3304.55
803.856	3275.68
804.04	3276.46
804.224	3319.67
804.407	3292.35
804.591	3246.23
804.775	3242.36
804.958	3296.61
805.142	3398.91
805.326	3253.98
805.509	3289.44
805.693	3298.55
805.876	3322.76
806.06	3276.07
806.243	3324.12
806.427	3372.36
806.61	3394.84
806.794	3296.22
806.977	3330.9
807.16	3302.81
807.344	3257.67
807.527	3269.29
807.71	3287.89
807.894	3301.45
808.077	3285.76
808.26	3216.98
808.444	3286.73
808.627	3308.43
808.81	3221.44
808.993	3139.48
809.177	3119.72
809.36	3142.58
809.543	3209.81
809.726	3087.17
809.909	3126.11
810.092	3058.69
810.276	3085.23
810.459	3111.97
810.642	3123.79
810.825	3060.04
811.008	3077.48
811.191	2995.91
811.374	2980.41
811.557	3008.89
811.74	3065.27
811.923	2951.93
812.106	2952.9
812.289	2914.35
812.472	2933.33
812.654	2931.2
812.837	2887.8
813.02	2876.37
813.203	2789.19
813.386	2694.44
813.569	2663.83
813.751	2647.75
813.934	2676.62
814.117	2630.31
814.3	2598.15
814.482	2510.77
814.665	2486.94
814.848	2457.49
815.03	2449.74
815.213	2350.15
815.396	2397.23
815.578	2345.5
815.761	2300.17
815.943	2346.09
816.126	2268.59
816.309	2234.87
816.491	2152.53
816.674	2118.43
816.856	2153.11
817.039	2164.54
817.221	2237.97
817.403	2170.74
817.586	2186.44
817.768	2239.72
817.951	2092.08
818.133	2093.05
818.315	2121.92
818.498	2173.46
818.68	2209.49
818.862	2169.19
819.045	2227.9
819.227	2190.12
819.409	2153.5
819.591	2207.17
819.774	2166.48
819.956	2162.61
820.138	2233.71
820.32	2184.5
820.502	2272.46
820.684	2343.37
820.866	2369.92
821.048	2375.34
821.231	2368.95
821.413	2401.5
821.595	2393.75
821.777	2347.25
821.959	2390.07
822.141	2452.84
822.323	2273.82
822.505	2253.67
822.686	2174.04
822.868	2090.15
823.05	1989.2
823.232	1944.45
823.414	1866.75
823.596	1967.89
823.778	1931.27
823.96	1940.77
824.141	1968.28
824.323	1998.89
824.505	2080.26
824.687	2125.41
824.868	2186.82
825.05	2284.47
825.232	2277.3
825.413	2374.37
825.595	2323.22
825.777	2271.49
825.958	2283.7
826.14	2279.82
826.321	2337.56
826.503	2280.79
826.685	2349.96
826.866	2358.29
827.048	2321.67
827.229	2275.17
827.411	2251.54
827.592	2215.31
827.773	2187.41
827.955	2160.67
828.136	2130.06
828.318	2072.9
828.499	2175.01
828.68	2074.45
828.862	2090.53
829.043	2164.54
829.224	2090.15
829.406	2072.71
829.587	2062.25
829.768	2084.33
829.949	2086.66
830.131	2083.95
830.312	2146.53
830.493	2116.69
830.674	2087.43
830.855	2107
831.036	2070.19
831.218	2130.44
831.399	2169
831.58	2099.25
831.761	2089.56
831.942	2067.48
832.123	2073.48
832.304	2020.98
832.485	2050.23
832.666	2063.21
832.847	2114.36
833.028	2072.71
833.209	2106.23
833.389	2087.43
833.57	2013.42
833.751	2049.07
833.932	2073.48
834.113	2070
834.294	2043.84
834.475	2063.99
834.655	2123.47
834.836	2100.22
835.017	2087.82
835.198	2028.92
835.378	2107.19
835.559	2137.42
835.74	2074.45
835.92	2126.96
836.101	2058.95
836.281	2159.89
836.462	2094.99
836.643	2133.35
836.823	2184.69
837.004	2107.58
837.184	2194.77
837.365	2157.76
837.545	2186.24
837.726	2063.99
837.906	2190.89
838.087	2127.34
838.267	2108.16
838.448	2073.29
838.628	2098.28
838.808	2128.7
838.989	2180.63
839.169	2061.08
839.349	2131.99
839.53	2124.63
839.71	2152.34
839.89	2057.98
840.07	2182.95
840.251	2089.56
840.431	2150.79
840.611	2094.8
840.791	2082.4
840.971	2118.63
841.151	2078.71
841.332	2091.11
841.512	2126.96
841.692	2014.78
841.872	2120.56
842.052	2045.2
842.232	2123.47
842.412	2041.9
842.592	2035.51
842.772	2049.46
842.952	2085.88
843.132	2058.37
843.312	2041.9
843.492	2026.79
843.672	2057.4
843.851	1952.97
844.031	2005.87
844.211	2035.9
844.391	2007.42
844.571	2049.65
844.751	2043.06
844.93	2014.58
845.11	1995.02
845.29	2018.65
845.47	2046.55
845.649	2021.95
845.829	1999.08
846.009	1974.28
846.188	2040.74
846.368	2004.12
846.547	2002.18
846.727	2030.08
846.907	1977.58
847.086	1995.98
847.266	2010.9
847.445	2006.25
847.625	2025.63
847.804	1941.93
847.984	1989.01
848.163	1956.65
848.343	1972.15
848.522	1977
848.701	1967.12
848.881	1928.37
849.06	1958.4
849.239	1962.66
849.419	1983
849.598	1828.01
849.777	1872.95
849.957	1839.24
850.136	1795.46
850.315	1765.04
850.494	1783.64
850.674	1803.98
850.853	1855.9
851.032	1799.14
851.211	1883.42
851.39	1854.94
851.569	1741.98
851.748	1806.89
851.927	1839.24
852.107	1846.02
852.286	1802.62
852.465	1755.35
852.644	1847.19
852.823	1829.36
853.002	1824.71
853.181	1815.22
853.359	1805.34
853.538	1755.16
853.717	1820.64
853.896	1713.89
854.075	1606.55
854.254	1626.9
854.433	1501.73
854.611	1562.77
854.79	1493.98
854.969	1587.56
855.148	1586.01
855.327	1541.26
855.505	1604.42
855.684	1595.51
855.863	1643.56
856.041	1631.55
856.22	1680.56
856.399	1640.07
856.577	1727.84
856.756	1735.98
856.934	1835.95
857.113	1818.32
857.291	1751.09
857.47	1693.54
857.648	1761.16
857.827	1762.71
858.005	1773.76
858.184	1699.94
858.362	1822.97
858.541	1706.91
858.719	1729.39
858.898	1685.79
859.076	1704.2
859.254	1776.27
859.433	1731.52
859.611	1681.53
859.789	1654.99
859.967	1737.91
860.146	1716.02
860.324	1608.49
860.502	1664.09
860.68	1608.88
860.859	1637.36
861.037	1644.33
861.215	1693.74
861.393	1645.11
861.571	1623.8
861.749	1609.26
861.927	1618.18
862.105	1683.66
862.283	1625.35
862.461	1602.48
862.639	1627.09
862.817	1598.8
862.995	1627.09
863.173	1598.03
863.351	1623.99
863.529	1616.05
863.707	1666.61
863.885	1643.95
864.063	1540.68
864.241	1569.35
864.418	1660.99
864.596	1586.21
864.774	1511.81
864.952	1559.67
865.129	1597.25
865.307	1546.1
865.485	1516.27
865.663	1575.55
865.84	1507.93
866.018	1513.75
866.196	1332.01
866.373	1386.26
866.551	1359.33
866.728	1288.23
866.906	1339.76
867.084	1375.99
867.261	1409.32
867.439	1422.69
867.616	1445.74
867.794	1419.2
867.971	1471.9
868.149	1456.59
868.326	1491.85
868.503	1481.2
868.681	1442.45
868.858	1454.46
869.035	1433.92
869.213	1482.75
869.39	1440.7
869.567	1552.69
869.745	1450.97
869.922	1486.62
870.099	1452.14
870.276	1498.83
870.454	1495.53
870.631	1463.57
870.808	1470.93
870.985	1445.35
871.162	1488.56
871.339	1494.57
871.517	1408.54
871.694	1403.7
871.871	1440.32
872.048	1408.15
872.225	1388.97
872.402	1419.78
872.579	1384.32
872.756	1436.64
872.933	1379.87
873.11	1388.01
873.287	1449.42
873.463	1381.22
873.64	1339.18
873.817	1427.34
873.994	1375.41
874.171	1369.6
874.348	1362.04
874.524	1330.07
874.701	1380.26
874.878	1294.04
875.055	1371.92
875.231	1389.56
875.408	1358.17
875.585	1287.26
875.762	1354.29
875.938	1326.01
876.115	1331.43
876.291	1331.04
876.468	1305.66
876.645	1273.31
876.821	1284.54
876.998	1317.29
877.174	1307.79
877.351	1325.04
877.527	1270.59
877.704	1280.67
877.88	1316.71
878.057	1285.9
878.233	1296.36
878.409	1241.14
878.586	1284.35
878.762	1304.89
878.938	1268.27
879.115	1215.96
879.291	1285.9
879.467	1236.3
879.644	1231.84
879.82	1289.58
879.996	1231.07
880.172	1174.88
880.349	1242.11
880.525	1260.91
880.701	1185.35
880.877	1239.98
881.053	1234.94
881.229	1217.31
881.405	1290.16
881.581	1195.42
881.757	1231.65
881.933	1245.99
882.109	1268.46
882.285	1243.47
882.461	1219.83
882.637	1206.27
882.813	1189.22
882.989	1215.76
883.165	1278.34
883.341	1166.94
883.517	1295.01
883.693	1279.7
883.869	1267.3
884.044	1199.3
884.22	1266.91
884.396	1288.42
884.572	1247.34
884.747	1275.05
884.923	1253.93
885.099	1269.63
885.275	1276.21
885.45	1176.05
885.626	1210.92
885.801	1175.66
885.977	1197.55
886.153	1182.83
886.328	1245.99
886.504	1194.84
886.679	1245.79
886.855	1199.49
887.03	1214.02
887.206	1231.26
887.381	1236.69
887.557	1199.49
887.732	1245.41
887.908	1227.58
888.083	1246.96
888.258	1176.63
888.434	1213.63
888.609	1200.07
888.784	1240.37
888.96	1187.86
889.135	1176.43
889.31	1180.7
889.485	1237.46
889.661	1223.13
889.836	1233.2
890.011	1205.69
890.186	1201.43
890.361	1208.6
890.537	1249.48
890.712	1180.7
890.887	1236.69
891.062	1221.58
891.237	1262.46
891.412	1184.38
891.587	1216.15
891.762	1273.11
891.937	1259.94
892.112	1150.66
892.287	1192.71
892.462	1159
892.637	1129.74
892.812	1133.62
892.987	1156.67
893.161	1140.78
893.336	1079.56
893.511	1128.58
893.686	1121.22
893.861	1110.56
894.035	1131.87
894.21	1133.62
894.385	1093.12
894.56	1109.98
894.734	1094.87
894.909	1091.18
895.084	1048.95
895.258	1039.26
895.433	1041.2
895.608	1048.37
895.782	978.42
895.957	976.87
896.131	984.04
896.306	903.83
896.48	895.5
896.655	930.96
896.829	875.35
897.004	870.12
897.178	884.46
897.353	860.43
897.527	892.59
897.701	882.32
897.876	847.26
898.05	939.67
898.224	911.39
898.399	902.67
898.573	883.1
898.747	759.88
898.921	814.32
899.096	717.45
899.27	717.64
899.444	739.53
899.618	761.81
899.792	788.94
899.967	796.69
900.141	832.14
900.315	697.88
900.489	792.04
900.663	766.66
900.837	765.11
901.011	700.2
901.185	841.06
901.359	800.56
901.533	781.38
901.707	782.74
901.881	778.28
902.055	734.3
902.229	765.69
902.403	847.45
902.576	791.26
902.75	807.54
902.924	876.32
903.098	836.21
903.272	862.18
903.446	908.09
903.619	876.12
903.793	941.42
903.967	880.97
904.14	954.01
904.314	936.96
904.488	919.52
904.661	950.33
904.835	943.94
905.009	978.81
905.182	982.49
905.356	960.02
905.529	941.42
905.703	875.16
905.876	910.81
906.05	880.39
906.223	855.01
906.397	794.36
906.57	808.7
906.744	766.66
906.917	774.6
907.09	787.39
907.264	769.95
907.437	743.6
907.61	711.25
907.784	724.23
907.957	730.81
908.13	676.76
908.304	729.07
908.477	700.78
908.65	709.89
908.823	669.59
908.996	763.36
909.17	705.05
909.343	661.65
909.516	701.36
909.689	675.4
909.862	655.06
910.035	672.3
910.208	655.06
910.381	638.59
910.554	731.2
910.727	699.81
910.9	672.3
911.073	663.97
911.246	728.49
911.419	756.2
911.592	722.29
911.765	681.6
911.938	660.29
912.11	679.08
912.283	676.76
912.456	738.37
912.629	682.18
912.802	633.75
912.974	608.17
913.147	583.37
913.32	531.64
913.493	568.26
913.665	593.25
913.838	611.08
914.01	600.04
914.183	612.05
914.356	592.87
914.528	670.17
914.701	699.04
914.873	633.36
915.046	604.88
915.218	583.37
915.391	479.91
915.563	514.59
915.736	569.04
915.908	608.95
916.081	590.35
916.253	568.26
916.425	590.93
916.598	611.47
916.77	575.43
916.942	574.27
917.115	526.02
917.287	587.05
917.459	552.76
917.632	515.37
917.804	440.58
917.976	555.09
918.148	542.1
918.32	581.63
918.493	584.54
918.665	614.37
918.837	569.42
919.009	634.13
919.181	630.45
919.353	597.13
919.525	602.17
919.697	592.09
919.869	618.63
920.041	675.02
920.213	706.98
920.385	645.37
920.557	604.3
920.729	656.03
920.901	639.95
921.073	596.74
921.244	593.06
921.416	626.77
921.588	602.17
921.76	579.69
921.932	663.78
922.103	601.78
922.275	614.57
922.447	587.25
922.619	544.24
922.79	571.17
922.962	580.66
923.134	617.47
923.305	540.36
923.477	519.63
923.648	540.36
923.82	532.03
923.991	517.89
924.163	495.61
924.335	546.17
924.506	473.32
924.677	591.7
924.849	493.47
925.02	518.27
925.192	564.19
925.363	530.09
925.535	523.31
925.706	519.05
925.877	576.2
926.049	495.22
926.22	523.7
926.391	523.7
926.562	554.89
926.734	505.29
926.905	566.52
927.076	476.81
927.247	516.72
927.419	495.99
927.59	441.55
927.761	469.84
927.932	459.76
928.103	467.51
928.274	390.21
928.445	390.21
928.616	386.33
928.787	387.11
928.958	426.24
929.129	380.33
929.3	382.46
929.471	336.54
929.642	302.25
929.813	257.88
929.984	356.11
930.155	266.01
930.326	336.35
930.496	247.03
930.667	230.75
930.838	293.53
931.009	215.64
931.18	238.7
931.35	240.25
931.521	255.36
931.692	167.2
931.863	124.77
932.033	200.14
932.204	194.33
932.374	186.19
932.545	146.47
932.716	234.82
932.886	211.38
933.057	92.22
933.227	119.93
933.398	184.25
933.568	92.03
933.739	80.41
933.909	85.83
934.08	130.39
934.25	49.02
934.421	75.17
934.591	115.28
934.761	68.59
934.932	57.54
935.102	109.47
935.272	95.13
935.443	91.64
935.613	82.92
935.783	121.87
935.953	60.84
936.123	238.89
936.294	78.86
936.464	66.84
936.634	78.27
936.804	51.15
936.974	24.61
937.144	99.2
937.314	101.33
937.484	50.76
937.655	42.62
937.825	132.91
937.995	61.61
938.165	139.69
938.334	64.71
938.504	119.15
938.674	83.89
938.844	118.96
939.014	176.89
939.184	156.55
939.354	212.93
939.524	191.42
939.694	152.09
939.863	134.27
940.033	243.35
940.203	204.79
940.373	173.79
940.542	179.6
940.712	165.07
940.882	175.53
941.051	212.15
941.221	157.9
941.391	184.83
941.56	156.74
941.73	121.67
941.899	257.1
942.069	165.85
942.238	155.58
942.408	164.3
942.577	128.26
942.747	115.09
942.916	64.91
943.086	86.61
943.255	171.08
943.425	140.47
943.594	139.5
943.763	66.26
943.933	67.04
944.102	74.4
944.271	97.45
944.441	123.03
944.61	99.78
944.779	121.29
944.948	202.08
945.117	98.81
945.287	108.11
945.456	40.11
945.625	93.19
945.794	144.73
945.963	80.02
946.132	126.9
946.301	61.22
946.47	140.85
946.639	52.89
946.808	89.32
946.977	127.68
947.146	165.46
947.315	89.7
947.484	121.48
947.653	98.23
947.822	96.87
947.991	72.66
948.16	196.27
948.329	143.95
948.498	90.87
948.666	126.71
948.835	168.37
949.004	89.9
949.173	80.6
949.341	120.32
949.51	131.55
949.679	146.86
949.847	141.05
950.016	182.32
950.185	192.58
950.353	115.47
950.522	114.89
950.69	168.56
950.859	85.83
951.028	142.6
951.196	134.07
951.365	99.78
951.533	101.33
951.701	120.12
951.87	130.59
952.038	66.84
952.207	111.6
952.375	143.57
952.543	98.42
952.712	112.18
952.88	94.55
953.048	173.99
953.217	109.08
953.385	99.59
953.553	164.49
953.721	91.84
953.89	136.01
954.058	61.22
954.226	63.55
954.394	113.54
954.562	84.28
954.73	133.1
954.898	115.86
955.067	125.94
955.235	86.61
955.403	111.21
955.571	184.25
955.739	123.22
955.907	107.72
956.075	104.04
956.243	100.94
956.41	149.38
956.578	38.56
956.746	45.72
956.914	95.32
957.082	112.76
957.25	131.55
957.418	95.9
957.585	136.79
957.753	164.1
957.921	84.09
958.089	109.27
958.256	114.5
958.424	96.29
958.592	127.1
958.759	87.38
958.927	120.9
959.095	81.37
959.262	102.88
959.43	104.04
959.597	74.79
959.765	128.65
959.932	69.94
960.1	118.38
960.267	113.54
960.435	113.34
960.602	122.64
960.77	110.24
960.937	70.72
961.104	142.79
961.272	64.32
961.439	89.9
961.606	116.44
961.774	153.06
961.941	90.67
962.108	116.05
962.275	121.29
962.443	136.01
962.61	127.68
962.777	190.26
962.944	126.32
963.111	154.8
963.278	127.1
963.446	124.58
963.613	115.86
963.78	129.62
963.947	146.86
964.114	136.79
964.281	185.61
964.448	159.45
964.615	108.5
964.782	132.14
964.949	148.6
965.116	138.92
965.282	196.46
965.449	127.1
965.616	79.82
965.783	163.52
965.95	127.87
966.117	78.66
966.283	105.4
966.45	110.05
966.617	109.27
966.784	138.72
966.95	156.16
967.117	149.38
967.284	116.44
967.45	110.24
967.617	189.68
967.784	158.87
967.95	178.44
968.117	158.68
968.283	201.88
968.45	246.06
968.616	157.32
968.783	173.79
968.949	153.45
969.116	192.39
969.282	140.08
969.449	145.31
969.615	161.59
969.781	120.12
969.948	127.87
970.114	127.87
970.28	199.56
970.447	128.65
970.613	213.9
970.779	127.68
970.945	186.19
971.112	184.64
971.278	166.24
971.444	129.62
971.61	188.32
971.776	126.32
971.942	187.55
972.108	176.12
972.275	138.53
972.441	147.44
972.607	187.55
972.773	102.88
972.939	165.85
973.105	142.99
973.271	110.24
973.437	118.38
973.602	103.85
973.768	179.41
973.934	133.3
974.1	179.02
974.266	65.1
974.432	116.83
974.598	128.84
974.763	145.89
974.929	111.4
975.095	182.51
975.261	96.29
975.426	96.49
975.592	116.44
975.758	181.54
975.923	73.82
976.089	122.64
976.255	137.75
976.42	125.55
976.586	134.65
976.751	120.12
976.917	209.63
977.082	155.19
977.248	103.46
977.413	61.81
977.579	117.22
977.744	149.19
977.91	88.35
978.075	101.72
978.24	146.67
978.406	111.79
978.571	106.17
978.736	82.34
978.902	158.87
979.067	92.03
979.232	61.81
979.397	118.96
979.563	164.1
979.728	80.6
979.893	115.47
980.058	97.07
980.223	156.16
980.388	130.39
980.554	129.42
980.719	102.3
980.884	138.34
981.049	147.83
981.214	96.49
981.379	131.75
981.544	122.25
981.709	98.04
981.874	124.58
982.039	96.68
982.204	145.12
982.368	146.09
982.533	71.11
982.698	114.89
982.863	170.89
983.028	95.71
983.193	127.87
983.357	117.6
983.522	114.7
983.687	104.24
983.852	94.94
984.016	118.77
984.181	101.72
984.346	139.5
984.51	135.82
984.675	138.92
984.839	117.8
985.004	124.39
985.168	149.96
985.333	124.39
985.498	114.12
985.662	142.99
985.827	121.87
985.991	138.53
986.155	113.15
986.32	140.66
986.484	177.86
986.649	109.08
986.813	64.91
986.977	119.54
987.142	133.3
987.306	110.44
987.47	94.74
987.634	103.65
987.799	122.25
987.963	113.54
988.127	130.2
988.291	161.2
988.455	111.6
988.62	100.55
988.784	141.63
988.948	131.36
989.112	94.74
989.276	91.84
989.44	112.57
989.604	73.24
989.768	90.67
989.932	194.72
990.096	86.22
990.26	81.57
990.424	80.41
990.588	84.67
990.752	157.52
990.915	155.97
991.079	98.04
991.243	65.68
991.407	90.09
991.571	93.58
991.734	146.67
991.898	114.5
992.062	187.93
992.226	96.29
992.389	67.62
992.553	39.91
992.717	74.79
992.88	91.64
993.044	89.32
993.207	65.68
993.371	120.51
993.535	117.02
993.698	100.55
993.862	138.92
994.025	136.4
994.189	94.16
994.352	96.1
994.515	125.94
994.679	133.88
994.842	88.35
995.006	130.59
995.169	48.63
995.332	55.41
995.496	120.12
995.659	11.82
995.822	94.94
995.985	68.59
996.149	133.3
996.312	87.77
996.475	147.64
996.638	68.78
996.801	134.27
996.964	150.93
997.128	77.69
997.291	79.44
997.454	68.78
997.617	17.44
997.78	123.8
997.943	77.31
998.106	108.11
998.269	90.48
998.432	72.85
998.595	84.86
998.758	23.64
998.92	53.86
999.083	58.12
999.246	67.04
999.409	52.7
999.572	6.97
999.735	50.96
999.897	94.74
1000.06	75.95
1000.223	91.64
1000.386	106.95
1000.548	98.23
1000.711	84.09
1000.874	84.67
1001.036	5.81
1001.199	97.45
1001.361	45.92
1001.524	95.71
1001.687	101.14
1001.849	59.29
1002.012	56.38
1002.174	83.31
1002.337	86.22
1002.499	78.27
1002.661	83.31
1002.824	21.7
1002.986	42.62
1003.149	65.1
1003.311	55.61
1003.473	139.69
1003.636	46.11
1003.798	65.49
1003.96	91.25
1004.123	85.83
1004.285	45.92
1004.447	43.21
1004.609	51.73
1004.771	120.32
1004.933	22.47
1005.096	16.27
1005.258	20.34
1005.42	52.12
1005.582	90.48
1005.744	63.55
1005.906	31.19
1006.068	55.22
1006.23	37.2
1006.392	-10.66
1006.554	31.77
1006.716	96.1
1006.878	83.12
1007.04	10.27
1007.202	37.59
1007.363	58.32
1007.525	66.26
1007.687	83.51
1007.849	111.02
1008.011	3.1
1008.172	9.69
1008.334	43.79
1008.496	58.71
1008.658	24.61
1008.819	29.45
1008.981	12.59
1009.143	17.24
1009.304	42.43
1009.466	62.39
1009.627	91.45
1009.789	183.28
1009.95	44.95
1010.112	27.71
1010.273	62.77
1010.435	57.35
1010.596	49.79
1010.758	56.57
1010.919	41.46
1011.081	19.18
1011.242	69.94
1011.403	84.09
1011.565	21.7
1011.726	57.93
1011.887	18.02
1012.049	6.78
1012.21	115.28
1012.371	103.85
1012.532	-27.51
1012.693	37.97
1012.855	19.57
1013.016	29.64
1013.177	90.09
1013.338	38.94
1013.499	106.95
1013.66	76.14
1013.821	54.25
1013.982	57.35
1014.143	74.79
1014.304	14.34
1014.465	67.42
1014.626	74.79
1014.787	31.58
1014.948	109.27
1015.109	-35.84
1015.27	75.17
1015.431	4.07
1015.592	29.26
1015.752	85.25
1015.913	45.92
1016.074	39.33
1016.235	64.91
1016.395	47.47
1016.556	39.33
1016.717	30.81
1016.877	84.86
1017.038	-0.97
1017.199	37.97
1017.359	57.54
1017.52	48.05
1017.681	28.87
1017.841	57.35
1018.002	35.26
1018.162	-25.19
1018.323	109.85
1018.483	32.16
1018.644	-9.11
1018.804	-6.39
1018.964	-4.46
1019.125	6.97
1019.285	48.44
1019.446	-2.32
1019.606	2.32
1019.766	-51.73
1019.926	43.4
1020.087	52.31
1020.247	6.97
1020.407	50.96
1020.567	81.37
1020.728	41.66
1020.888	-4.07
1021.048	-3.29
1021.208	2.91
1021.368	14.92
1021.528	74.01
1021.688	58.71
1021.848	55.22
1022.008	51.92
1022.168	38.17
1022.328	28.29
1022.488	41.66
1022.648	10.66
1022.808	47.08
1022.968	50.18
1023.128	-19.37
1023.288	0.19
1023.448	22.86
1023.608	36.81
1023.767	43.59
1023.927	-12.98
1024.087	-22.09
1024.247	-37.78
1024.406	8.91
1024.566	11.82
1024.726	-22.86
1024.885	20.92
1025.045	43.98
1025.205	13.17
1025.364	0
1025.524	31.39
1025.683	-4.65
1025.843	23.06
1026.003	40.11
1026.162	85.64
1026.321	66.07
1026.481	26.74
1026.64	16.08
1026.8	9.3
1026.959	37.78
1027.119	35.65
1027.278	-13.17
1027.437	2.13
1027.597	35.26
1027.756	29.06
1027.915	51.73
1028.074	41.27
1028.234	-21.89
1028.393	39.14
1028.552	9.69
1028.711	-58.9
1028.87	61.61
1029.03	-34.68
1029.189	10.46
1029.348	-31.19
1029.507	-13.76
1029.666	-3.87
1029.825	-17.82
1029.984	-2.91
1030.143	6.78
1030.302	12.98
1030.461	-52.12
1030.62	-2.91
1030.779	64.32
1030.938	-18.6
1031.097	-31.77
1031.255	39.52
1031.414	46.11
1031.573	69.56
1031.732	-51.34
1031.891	16.08
1032.049	69.17
1032.208	43.21
1032.367	-11.24
1032.525	2.91
1032.684	13.95
1032.843	20.34
1033.001	-37.97
1033.16	177.86
1033.319	60.64
1033.477	20.15
1033.636	-3.29
1033.794	-27.71
1033.953	39.14
1034.111	31.77
1034.27	-3.29
1034.428	28.09
1034.587	-46.31
1034.745	39.52
1034.903	24.8
1035.062	21.12
1035.22	-23.83
1035.378	32.74
1035.537	-15.11
1035.695	51.15
1035.853	-4.07
1036.011	25.96
1036.17	40.88
1036.328	-35.07
1036.486	15.31
1036.644	22.47
1036.802	-78.27
1036.96	-31
1037.119	-14.92
1037.277	-6.2
1037.435	-1.94
1037.593	-3.29
1037.751	16.27
1037.909	41.27
1038.067	41.27
