Data from gum_old_FLMT105791__143__15-46-32-252.txt Node

Date: Mon Mar 20 15:46:32 GMT 2023
User: antho
Spectrometer: FLMT10579
Trigger mode: 0
Integration Time (sec): 1.000000E-1
Scans to average: 10
Electric dark correction enabled: true
Nonlinearity correction enabled: false
Boxcar width: 0
XAxis mode: Wavelengths
Number of Pixels in Spectrum: 3648
>>>>>Begin Spectral Data<<<<<
345.248	-170.58
345.464	-170.58
345.681	-170.58
345.898	-216.88
346.114	-180.85
346.331	-25.66
346.548	47.97
346.764	-17.13
346.981	-8.8
347.197	-32.24
347.414	1.86
347.631	-19.84
347.847	60.17
348.064	17.55
348.28	45.26
348.497	-46.77
348.713	-22.36
348.93	37.7
349.146	30.92
349.363	-8.99
349.579	17.36
349.796	28.21
350.012	-9.38
350.229	26.85
350.445	13.68
350.661	-19.07
350.878	-11.51
351.094	7.28
351.311	26.85
351.527	42.35
351.743	-24.3
351.96	25.11
352.176	47.97
352.392	27.63
352.609	33.83
352.825	-14.22
353.041	19.68
353.257	23.17
353.474	23.56
353.69	17.55
353.906	18.33
354.122	-11.9
354.339	67.54
354.555	34.02
354.771	14.26
354.987	63.66
355.203	67.92
355.42	-2.02
355.636	0.69
355.852	-4.54
356.068	38.86
356.284	-22.17
356.5	80.71
356.716	38.47
356.932	33.44
357.148	59.21
357.364	-9.19
357.58	42.74
357.796	57.07
358.012	53.2
358.228	41.19
358.444	-46
358.66	71.02
358.876	39.25
359.092	-22.56
359.308	19.88
359.524	39.25
359.74	-21.78
359.956	-4.15
360.172	47.58
360.388	67.92
360.604	1.86
360.819	100.86
361.035	49.52
361.251	68.51
361.467	-12.09
361.683	65.21
361.898	41.96
362.114	68.12
362.33	34.79
362.546	53.97
362.762	15.42
362.977	37.89
363.193	-20.62
363.409	50.68
363.624	-8.99
363.84	5.54
364.056	-0.08
364.271	47.97
364.487	47.97
364.703	-3.96
364.918	2.83
365.134	46.22
365.35	6.7
365.565	143.49
365.781	50.1
365.996	58.82
366.212	86.52
366.427	52.81
366.643	44.67
366.858	4.18
367.074	-4.54
367.289	87.88
367.505	160.73
367.72	-34.18
367.936	41.19
368.151	67.73
368.367	47.97
368.582	54.36
368.798	16.58
369.013	87.49
369.228	62.11
369.444	54.17
369.659	78.77
369.874	77.61
370.09	79.16
370.305	-36.12
370.52	5.73
370.736	86.52
370.951	37.12
371.166	83.62
371.381	119.07
371.597	83.81
371.812	-2.02
372.027	10.58
372.242	39.44
372.458	114.81
372.673	23.36
372.888	34.02
373.103	45.64
373.318	158.4
373.533	61.14
373.749	43.32
373.964	-37.67
374.179	79.36
374.394	11.74
374.609	82.07
374.824	-25.46
375.039	99.7
375.254	2.05
375.469	82.84
375.684	64.63
375.899	83.23
376.114	55.72
376.329	57.07
376.544	65.02
376.759	70.44
376.974	14.06
377.189	51.26
377.404	69.28
377.619	60.76
377.834	24.53
378.049	-6.47
378.264	18.91
378.478	27.04
378.693	34.79
378.908	96.41
379.123	46.61
379.338	121.98
379.553	69.86
379.767	61.53
379.982	82.65
380.197	74.12
380.412	62.11
380.626	69.09
380.841	128.95
381.056	79.94
381.271	136.7
381.485	34.02
381.7	13.09
381.915	53.59
382.129	29.76
382.344	59.79
382.559	28.98
382.773	86.14
382.988	-6.67
383.202	53.97
383.417	2.83
383.632	128.95
383.846	50.49
384.061	43.32
384.275	45.45
384.49	55.52
384.704	63.27
384.919	58.04
385.133	64.05
385.348	81.29
385.562	40.8
385.777	111.13
385.991	56.3
386.206	38.67
386.42	28.79
386.634	134.19
386.849	97.57
387.063	93.89
387.277	40.8
387.492	39.64
387.706	41.96
387.92	26.46
388.135	93.31
388.349	77.42
388.563	78.58
388.778	99.31
388.992	84.59
389.206	92.53
389.42	143.87
389.635	67.15
389.849	132.44
390.063	108.61
390.277	90.4
390.491	114.81
390.706	93.5
390.92	103.96
391.134	108.22
391.348	123.53
391.562	40.22
391.776	75.87
391.99	45.64
392.205	107.45
392.419	87.49
392.633	66.18
392.847	134.96
393.061	66.37
393.275	154.34
393.489	47.77
393.703	76.84
393.917	124.3
394.131	41.77
394.345	72.77
394.559	108.81
394.773	73.16
394.986	104.93
395.2	102.41
395.414	122.37
395.628	65.41
395.842	103.77
396.056	92.72
396.27	41.19
396.484	114.42
396.697	103.77
396.911	125.66
397.125	92.92
397.339	126.24
397.553	89.82
397.766	151.62
397.98	124.11
398.194	126.24
398.408	114.23
398.621	131.86
398.835	154.72
399.049	127.99
399.262	180.49
399.476	185.92
399.69	171.97
399.903	229.51
400.117	130.89
400.331	159.95
400.544	101.64
400.758	278.33
400.971	169.06
401.185	190.37
401.398	110.94
401.612	186.69
401.826	185.34
402.039	190.18
402.253	133.02
402.466	185.34
402.68	158.99
402.893	173.13
403.106	172.94
403.32	166.54
403.533	180.3
403.747	162.47
403.96	177.2
404.174	181.46
404.387	138.84
404.6	164.41
404.814	215.37
405.027	164.22
405.24	166.93
405.454	179.14
405.667	226.41
405.88	110.36
406.094	170.03
406.307	224.86
406.52	173.52
406.733	166.35
406.947	114.04
407.16	232.03
407.373	224.08
407.586	184.56
407.799	137.87
408.012	214.78
408.226	189.6
408.439	262.25
408.652	145.04
408.865	206.07
409.078	225.83
409.291	217.3
409.504	160.54
409.717	217.5
409.93	241.91
410.143	207.81
410.357	153.56
410.57	131.67
410.783	168.67
410.996	201.42
411.209	192.5
411.421	210.14
411.634	236.29
411.847	186.3
412.06	200.64
412.273	194.83
412.486	206.07
412.699	302.16
412.912	210.72
413.125	261.48
413.338	208.78
413.55	255.86
413.763	207.23
413.976	225.25
414.189	186.11
414.402	186.89
414.615	293.06
414.827	192.5
415.04	260.7
415.253	245.01
415.466	264.58
415.678	301.58
415.891	240.94
416.104	217.69
416.316	226.99
416.529	206.84
416.742	271.36
416.954	290.15
417.167	230.87
417.38	225.44
417.592	257.6
417.805	197.54
418.017	185.92
418.23	256.63
418.442	179.72
418.655	217.11
418.868	250.63
419.08	265.55
419.293	296.35
419.505	261.28
419.718	215.17
419.93	294.8
420.142	226.6
420.355	295.77
420.567	261.67
420.78	278.14
420.992	239.2
421.205	315.73
421.417	207.81
421.629	253.34
421.842	215.37
422.054	219.05
422.266	280.08
422.479	287.05
422.691	223.89
422.903	285.7
423.115	214.59
423.328	233.38
423.54	254.7
423.752	226.8
423.964	218.27
424.177	293.06
424.389	241.72
424.601	377.73
424.813	262.45
425.025	287.44
425.238	283.76
425.45	250.24
425.662	235.13
425.874	578.64
426.086	257.8
426.298	277.17
426.51	253.73
426.722	249.47
426.934	232.03
427.146	309.14
427.358	244.62
427.57	315.53
427.782	253.73
427.994	237.26
428.206	233.97
428.418	186.11
428.63	278.92
428.842	294.8
429.054	279.88
429.266	315.92
429.478	241.33
429.69	266.52
429.902	195.41
430.114	262.06
430.325	267.29
430.537	198.7
430.749	207.81
430.961	157.82
431.173	213.23
431.384	232.61
431.596	136.12
431.808	219.63
432.02	255.08
432.231	322.9
432.443	342.08
432.655	301.39
432.867	253.92
433.078	301.2
433.29	372.88
433.502	306.43
433.713	360.29
433.925	326
434.136	359.9
434.348	270.2
434.56	230.87
434.771	363.97
434.983	223.89
435.194	248.5
435.406	304.1
435.617	376.37
435.829	386.06
436.04	360.29
436.252	350.99
436.463	349.25
436.675	372.3
436.886	315.73
437.098	347.5
437.309	413.57
437.521	337.04
437.732	341.88
437.943	332.97
438.155	356.22
438.366	288.41
438.578	365.33
438.789	321.54
439	341.11
439.211	305.85
439.423	330.26
439.634	341.5
439.845	327.16
440.057	342.27
440.268	386.44
440.479	316.5
440.69	363
440.902	322.51
441.113	330.84
441.324	320.38
441.535	378.11
441.746	391.48
441.957	341.88
442.168	339.36
442.38	389.16
442.591	395.94
442.802	343.05
443.013	378.89
443.224	385.28
443.435	351.96
443.646	375.4
443.857	346.92
444.068	364.36
444.279	349.05
444.49	462.2
444.701	388.58
444.912	464.14
445.123	410.86
445.334	415.12
445.545	420.35
445.756	396.33
445.967	345.18
446.178	401.56
446.388	439.14
446.599	415.12
446.81	429.65
447.021	382.76
447.232	408.53
447.443	467.04
447.653	365.13
447.864	430.62
448.075	408.73
448.286	428.49
448.496	431.2
448.707	453.29
448.918	387.03
449.129	522.46
449.339	400.39
449.55	430.04
449.761	415.51
449.971	463.17
450.182	411.05
450.393	420.16
450.603	421.71
450.814	466.66
451.024	449.99
451.235	491.07
451.446	516.64
451.656	480.61
451.867	436.24
452.077	446.12
452.288	505.79
452.498	495.14
452.709	420.54
452.919	486.81
453.13	404.27
453.34	474.99
453.55	390.13
453.761	438.37
453.971	484.48
454.182	459.1
454.392	464.14
454.602	518.39
454.813	485.06
455.023	490.1
455.233	417.64
455.444	451.93
455.654	398.65
455.864	429.26
456.075	442.44
456.285	468.01
456.495	435.27
456.705	493.59
456.916	490.87
457.126	531.95
457.336	474.99
457.546	417.64
457.756	465.11
457.967	510.83
458.177	469.37
458.387	473.05
458.597	435.27
458.807	449.41
459.017	453.48
459.227	457.36
459.437	434.3
459.647	495.91
459.857	486.22
460.068	429.07
460.278	497.07
460.488	489.71
460.698	533.69
460.908	465.3
461.117	440.31
461.327	476.54
461.537	491.26
461.747	487.97
461.957	512.57
462.167	605.19
462.377	529.82
462.587	483.32
462.797	536.02
463.007	485.64
463.216	537.37
463.426	535.63
463.636	552.68
463.846	434.69
464.056	501.34
464.265	563.14
464.475	465.88
464.685	492.23
464.895	533.89
465.104	498.24
465.314	518.77
465.524	469.56
465.733	450.38
465.943	563.53
466.153	589.3
466.362	563.72
466.572	518.39
466.782	507.54
466.991	543.19
467.201	568.18
467.41	471.31
467.62	532.72
467.829	504.63
468.039	513.74
468.249	506.76
468.458	518
468.668	547.64
468.877	569.15
469.086	608.09
469.296	592.2
469.505	518.19
469.715	622.43
469.924	568.57
470.134	605.57
470.343	579.42
470.552	536.02
470.762	546.29
470.971	518.58
471.18	548.81
471.39	545.12
471.599	494.36
471.808	581.74
472.018	552.68
472.227	605.57
472.436	646.26
472.645	579.8
472.855	553.26
473.064	668.54
473.273	625.14
473.482	626.11
473.691	653.04
473.901	635.41
474.11	600.73
474.319	654.01
474.528	636.19
474.737	699.54
474.946	640.06
475.155	621.85
475.364	698.18
475.573	648.97
475.783	626.5
475.992	685.01
476.201	665.83
476.41	635.8
476.619	613.9
476.828	669.9
477.037	616.23
477.245	646.65
477.454	704.77
477.663	676.68
477.872	697.8
478.081	769.1
478.29	654.01
478.499	753.79
478.708	711.17
478.917	795.25
479.125	713.68
479.334	738.48
479.543	713.68
479.752	748.17
479.961	728.22
480.169	774.91
480.378	736.16
480.587	874.88
480.796	758.05
481.004	733.83
481.213	807.65
481.422	767.35
481.63	771.23
481.839	803.78
482.048	829.16
482.256	798.55
482.465	815.6
482.674	858.61
482.882	832.06
483.091	882.44
483.299	815.01
483.508	841.75
483.716	789.05
483.925	813.08
484.134	770.84
484.342	811.33
484.551	863.45
484.759	836.52
484.967	872.94
485.176	875.85
485.384	845.24
485.593	899.29
485.801	852.21
486.01	845.82
486.218	797.58
486.426	719.11
486.635	704.97
486.843	751.85
487.051	777.81
487.26	740.81
487.468	824.31
487.676	829.74
487.885	794.48
488.093	830.32
488.301	855.12
488.509	899.68
488.717	904.72
488.926	875.46
489.134	895.03
489.342	878.95
489.55	822.57
489.758	894.64
489.967	853.76
490.175	960.13
490.383	915.96
490.591	981.64
490.799	906.08
491.007	960.71
491.215	947.15
491.423	912.47
491.631	935.91
491.839	922.35
492.047	967.49
492.255	899.68
492.463	840.98
492.671	874.3
492.879	979.7
493.087	907.63
493.295	946.96
493.503	967.69
493.711	1017.09
493.919	1029.69
494.127	987.45
494.334	1025.23
494.542	919.83
494.75	942.69
494.958	942.69
495.166	1022.9
495.374	1005.27
495.581	1033.17
495.789	1019.42
495.997	1048.67
496.205	977.96
496.412	1005.08
496.62	993.07
496.828	983.96
497.035	990.74
497.243	1026.59
497.451	1027.36
497.658	1017.48
497.866	1030.85
498.074	1086.07
498.281	991.71
498.489	1095.56
498.696	1027.55
498.904	1004.3
499.112	1002.56
499.319	1085.48
499.527	998.49
499.734	1088
499.942	987.45
500.149	1013.41
500.357	1048.48
500.564	968.27
500.771	1002.95
500.979	972.92
501.186	994.04
501.394	1031.62
501.601	1004.69
501.808	1016.12
502.016	1005.08
502.223	1010.5
502.43	1020.19
502.638	1001.4
502.845	984.74
503.052	1068.24
503.26	1023.68
503.467	1099.05
503.674	1043.83
503.881	1088.97
504.089	1110.09
504.296	1058.75
504.503	1004.3
504.71	1037.44
504.917	997.72
505.125	1075.8
505.332	1041.5
505.539	1066.69
505.746	1131.21
505.953	1094.98
506.16	1125.2
506.367	1161.24
506.574	1160.66
506.781	1174.03
506.988	1072.7
507.195	1149.03
507.402	1120.75
507.609	1152.72
507.816	1093.23
508.023	1115.52
508.23	1063.98
508.437	1063.4
508.644	1134.7
508.851	1151.75
509.058	1125.01
509.265	1119.58
509.472	1172.67
509.679	1245.91
509.885	1093.23
510.092	1117.07
510.299	1147.29
510.506	1106.99
510.713	1154.27
510.92	1106.41
511.126	1142.83
511.333	1162.79
511.54	1170.35
511.746	1217.43
511.953	1208.32
512.16	1242.42
512.367	1137.6
512.573	1149.03
512.78	1174.03
512.987	1196.5
513.193	1150.58
513.4	1095.17
513.606	1158.14
513.813	1177.51
514.02	1161.24
514.226	1247.26
514.433	1224.01
514.639	1109.12
514.846	1191.66
515.052	1114.93
515.259	1165.5
515.465	1173.06
515.672	1168.41
515.878	1288.34
516.085	1201.54
516.291	1228.86
516.497	1188.95
516.704	1209.68
516.91	1132.57
517.117	1068.24
517.323	1067.66
517.529	1084.13
517.736	1122.49
517.942	1111.83
518.148	1108.93
518.354	1129.27
518.561	1159.11
518.767	1159.3
518.973	1163.57
519.179	1202.51
519.386	1171.51
519.592	1176.55
519.798	1177.71
520.004	1278.26
520.21	1209.68
520.417	1274
520.623	1309.07
520.829	1306.16
521.035	1288.14
521.241	1315.46
521.447	1298.22
521.653	1457.48
521.859	1292.41
522.065	1353.82
522.271	1440.62
522.477	1375.91
522.683	1437.14
522.889	1400.91
523.095	1387.15
523.301	1400.32
523.507	1322.63
523.713	1391.02
523.919	1344.33
524.125	1434.62
524.331	1373.59
524.537	1468.72
524.742	1494.29
524.948	1480.73
525.154	1489.25
525.36	1582.45
525.566	1501.27
525.772	1532.65
525.977	1445.47
526.183	1487.9
526.389	1567.14
526.595	1433.07
526.8	1455.15
527.006	1409.82
527.212	1384.05
527.417	1335.81
527.623	1342.2
527.829	1428.61
528.034	1419.7
528.24	1497.59
528.446	1448.57
528.651	1544.47
528.857	1542.15
529.062	1593.3
529.268	1565.78
529.473	1587.68
529.679	1556.48
529.884	1661.69
530.09	1617.71
530.295	1644.06
530.501	1651.61
530.706	1630.3
530.912	1553
531.117	1597.17
531.323	1627.59
531.528	1695.21
531.733	1680.68
531.939	1664.98
532.144	1675.64
532.35	1646.77
532.555	1683.39
532.76	1659.17
532.966	1688.04
533.171	1684.36
533.376	1611.9
533.581	1552.03
533.787	1610.73
533.992	1691.53
534.197	1716.52
534.402	1643.48
534.607	1643.48
534.813	1783.94
535.018	1654.91
535.223	1671.76
535.428	1707.99
535.633	1747.33
535.838	1761.86
536.043	1738.22
536.249	1822.89
536.454	1719.81
536.659	1767.86
536.864	1739.19
537.069	1691.53
537.274	1738.41
537.479	1721.36
537.684	1768.25
537.889	1692.11
538.094	1823.86
538.299	1723.49
538.504	1753.53
538.708	1741.51
538.913	1820.56
539.118	1764.96
539.323	1780.46
539.528	1746.55
539.733	1770.77
539.938	1744.81
540.142	1780.65
540.347	1715.94
540.552	1720.78
540.757	1734.73
540.962	1744.61
541.166	1681.84
541.371	1675.45
541.576	1722.33
541.781	1640.18
541.985	1772.32
542.19	1720.01
542.395	1791.11
542.599	1849.24
542.804	1776.78
543.008	1852.72
543.213	1754.69
543.418	1757.01
543.622	1818.62
543.827	1743.45
544.031	1840.13
544.236	1862.99
544.44	1827.34
544.645	1887.79
544.849	1771.74
545.054	1847.11
545.258	1937.2
545.463	1891.67
545.667	1828.31
545.872	1862.61
546.076	1858.92
546.281	1830.64
546.485	1794.79
546.689	1883.92
546.894	1850.79
547.098	1815.14
547.302	1804.29
547.507	1841.29
547.711	1849.04
547.915	1888.57
548.119	1809.91
548.324	1762.63
548.528	1867.45
548.732	1831.8
548.936	1858.92
549.141	1864.93
549.345	1825.99
549.549	1866.87
549.753	1867.45
549.957	1918.6
550.161	1930.61
550.366	1874.81
550.57	1820.95
550.774	1876.17
550.978	1849.04
551.182	1888.37
551.386	1842.84
551.59	1791.89
551.794	1843.81
551.998	1852.34
552.202	1843.81
552.406	1818.24
552.61	1880.82
552.814	1877.33
553.018	1943.79
553.222	1890.31
553.426	1810.49
553.63	1935.26
553.833	1824.24
554.037	1819.79
554.241	1879.46
554.445	1854.86
554.649	1843.81
554.853	1832.38
555.056	1898.64
555.26	1919.37
555.464	1880.62
555.668	1869.19
555.871	1916.08
556.075	1914.72
556.279	1845.56
556.483	1802.35
556.686	1849.04
556.89	1806.42
557.094	1901.94
557.297	1758.18
557.501	1867.26
557.704	1771.35
557.908	1867.84
558.112	1788.98
558.315	1886.82
558.519	1823.47
558.722	1800.61
558.926	1823.08
559.129	1711.87
559.333	1705.86
559.536	1733.18
559.74	1720.78
559.943	1705.09
560.147	1703.34
560.35	1711.29
560.553	1724.27
560.757	1668.86
560.96	1789.56
561.164	1700.44
561.367	1842.84
561.57	1761.08
561.774	1746.16
561.977	1752.17
562.18	1705.28
562.384	1790.14
562.587	1725.04
562.79	1703.73
562.993	1717.49
563.197	1735.89
563.4	1779.88
563.603	1747.91
563.806	1803.9
564.009	1694.43
564.212	1744.03
564.416	1653.36
564.619	1731.63
564.822	1652.39
565.025	1736.09
565.228	1691.72
565.431	1687.85
565.634	1597.75
565.837	1633.98
566.04	1604.73
566.243	1601.82
566.446	1540.21
566.649	1651.03
566.852	1596.59
567.055	1571.98
567.258	1620.81
567.461	1665.18
567.664	1693.66
567.867	1581.09
568.07	1604.34
568.273	1574.12
568.475	1705.86
568.678	1597.56
568.881	1579.54
569.084	1603.76
569.287	1472.59
569.489	1502.82
569.692	1597.17
569.895	1604.73
570.098	1486.74
570.3	1512.7
570.503	1438.1
570.706	1489.25
570.909	1472.79
571.111	1397.03
571.314	1400.91
571.516	1439.07
571.719	1427.84
571.922	1450.7
572.124	1453.41
572.327	1458.64
572.529	1418.92
572.732	1442.37
572.935	1484.02
573.137	1512.5
573.34	1435.59
573.542	1507.47
573.745	1472.98
573.947	1451.09
574.15	1437.14
574.352	1416.99
574.554	1484.6
574.757	1406.52
574.959	1415.44
575.162	1386.18
575.364	1388.7
575.566	1533.23
575.769	1377.07
575.971	1403.81
576.173	1297.83
576.376	1388.12
576.578	1399.94
576.78	1483.44
576.982	1311.98
577.185	1376.49
577.387	1321.47
577.589	1320.69
577.791	1371.46
577.993	1401.29
578.196	1326.31
578.398	1374.36
578.6	1403.62
578.802	1269.54
579.004	1295.89
579.206	1299.58
579.408	1352.27
579.61	1295.31
579.812	1386.76
580.014	1284.85
580.216	1309.07
580.418	1292.21
580.62	1308.29
580.822	1232.35
581.024	1300.74
581.226	1349.17
581.428	1316.04
581.63	1371.84
581.832	1297.64
582.034	1354.79
582.236	1267.8
582.438	1311.59
582.64	1370.29
582.841	1369.13
583.043	1408.46
583.245	1309.46
583.447	1334.64
583.649	1334.64
583.85	1325.34
584.052	1355.18
584.254	1261.99
584.456	1325.54
584.657	1253.66
584.859	1310.43
585.061	1288.14
585.262	1272.06
585.464	1222.08
585.666	1276.91
585.867	1255.4
586.069	1324.96
586.27	1260.83
586.472	1256.56
586.674	1241.26
586.875	1244.55
587.077	1262.76
587.278	1283.49
587.48	1213.94
587.681	1341.04
587.883	1275.16
588.084	1195.53
588.285	1236.8
588.487	1218.98
588.688	1251.33
588.89	1162.98
589.091	1167.05
589.292	1176.35
589.494	1121.52
589.695	1128.88
589.896	1047.7
590.098	1036.85
590.299	1120.17
590.5	1046.35
590.702	1094.4
590.903	1110.87
591.104	1163.18
591.305	1160.47
591.507	1228.66
591.708	1205.8
591.909	1168.6
592.11	1222.46
592.311	1175
592.512	1166.08
592.714	1132.95
592.915	1099.24
593.116	1110.48
593.317	1191.27
593.518	1139.15
593.719	1136.63
593.92	1187.59
594.121	1211.42
594.322	1151.94
594.523	1150.58
594.724	1109.12
594.925	1150.2
595.126	1138.18
595.327	1176.74
595.528	1154.85
595.729	1157.17
595.929	1121.33
596.13	1129.85
596.331	1153.49
596.532	1154.27
596.733	1217.23
596.934	1211.42
597.135	1211.23
597.335	1162.6
597.536	1131.6
597.737	1157.95
597.938	1134.5
598.138	1163.37
598.339	1127.33
598.54	1160.66
598.74	1132.37
598.941	1139.73
599.142	1178.68
599.342	1114.16
599.543	1115.52
599.744	1136.25
599.944	1109.7
600.145	1101.95
600.345	1131.79
600.546	1195.92
600.746	1186.62
600.947	1207.35
601.147	1144.77
601.348	1165.7
601.548	1083.74
601.749	1110.87
601.949	1069.79
602.15	1069.21
602.35	1080.84
602.551	1169.77
602.751	1082.58
602.951	1116.87
603.152	1036.08
603.352	1142.25
603.552	1112.61
603.753	1129.08
603.953	1158.33
604.153	1121.52
604.354	1110.28
604.554	1101.18
604.754	1097.11
604.954	1083.16
605.155	1136.25
605.355	1087.62
605.555	1133.34
605.755	1182.94
605.955	1101.18
606.155	1147.1
606.356	1105.63
606.556	1116.48
606.756	1133.15
606.956	1025.23
607.156	1168.02
607.356	1070.57
607.556	1121.33
607.756	1084.52
607.956	1147.29
608.156	1092.27
608.356	1069.21
608.556	1160.85
608.756	1071.15
608.956	1058.36
609.156	1087.62
609.356	1043.83
609.556	1021.94
609.755	1090.52
609.955	1036.27
610.155	1066.5
610.355	1072.5
610.555	1013.8
610.755	1057.97
610.954	1010.7
611.154	1044.6
611.354	1095.17
611.554	999.65
611.753	1036.66
611.953	1018.25
612.153	1054.1
612.352	1069.02
612.552	982.22
612.752	941.72
612.951	1033.75
613.151	1063.4
613.351	959.74
613.55	1020.97
613.75	1046.74
613.949	1038.4
614.149	1015.74
614.348	1019.61
614.548	983.38
614.747	933.2
614.947	996.56
615.146	931.46
615.346	1038.6
615.545	1013.8
615.745	1006.63
615.944	1056.81
616.144	1011.86
616.343	1046.74
616.542	963.04
616.742	986.29
616.941	987.64
617.14	920.99
617.34	952.77
617.539	961.1
617.738	944.82
617.938	1026.39
618.137	956.26
618.336	904.33
618.535	976.6
618.734	953.93
618.934	979.89
619.133	958.97
619.332	988.61
619.531	908.98
619.73	942.69
619.929	1009.92
620.128	984.16
620.328	1050.8
620.527	931.46
620.726	938.62
620.925	986.48
621.124	934.56
621.323	945.99
621.522	905.69
621.721	930.87
621.92	927
622.119	981.64
622.318	885.34
622.517	902.2
622.715	923.9
622.914	847.56
623.113	926.42
623.312	877.21
623.511	951.41
623.71	901.43
623.909	885.34
624.107	964.39
624.306	843.11
624.505	876.04
624.704	869.07
624.902	883.21
625.101	960.32
625.3	920.99
625.499	864.03
625.697	885.73
625.896	859.96
626.095	890.58
626.293	835.74
626.492	859.77
626.69	912.66
626.889	850.08
627.088	910.92
627.286	850.28
627.485	850.66
627.683	894.45
627.882	920.61
628.08	775.49
628.279	879.14
628.477	934.75
628.676	844.85
628.874	897.36
629.073	877.21
629.271	820.44
629.469	862.68
629.668	865.58
629.866	861.9
630.065	846.79
630.263	908.79
630.461	831.29
630.66	855.51
630.858	881.28
631.056	911.69
631.254	899.29
631.453	841.94
631.651	887.28
631.849	839.04
632.047	853.76
632.245	835.55
632.444	858.61
632.642	854.54
632.84	863.06
633.038	826.06
633.236	787.7
633.434	804.16
633.632	765.22
633.83	805.71
634.028	877.98
634.227	827.61
634.425	917.89
634.623	830.51
634.821	837.68
635.019	847.95
635.216	835.36
635.414	864.23
635.612	843.49
635.81	823.93
636.008	878.76
636.206	844.46
636.404	868.1
636.602	804.16
636.8	831.29
636.997	831.09
637.195	851.63
637.393	845.43
637.591	877.79
637.789	850.47
637.986	825.28
638.184	833.61
638.382	846.4
638.58	865.58
638.777	884.76
638.975	827.03
639.173	804.75
639.37	832.84
639.568	846.01
639.765	867.33
639.963	808.04
640.161	865
640.358	856.09
640.556	779.36
640.753	790.41
640.951	768.13
641.148	815.98
641.346	793.7
641.543	800.29
641.741	819.66
641.938	781.69
642.136	793.51
642.333	764.83
642.531	828.77
642.728	845.24
642.925	802.42
643.123	769.48
643.32	808.23
643.517	747.4
643.715	792.35
643.912	781.5
644.109	761.93
644.306	797.38
644.504	757.86
644.701	805.13
644.898	783.43
645.095	754.56
645.293	759.02
645.49	794.09
645.687	790.99
645.884	802.03
646.081	701.87
646.278	756.7
646.475	720.85
646.672	729.77
646.87	776.26
647.067	763.86
647.264	748.95
647.461	696.25
647.658	704.58
647.855	741.58
648.052	722.98
648.249	653.23
648.446	728.22
648.642	706.32
648.839	661.76
649.036	705.35
649.233	645.49
649.43	688.3
649.627	668.35
649.824	691.79
650.021	684.62
650.217	696.25
650.414	677.65
650.611	692.57
650.808	719.69
651.004	721.05
651.201	732.87
651.398	794.67
651.595	726.67
651.791	682.1
651.988	738.87
652.185	704.77
652.381	719.88
652.578	640.25
652.775	720.47
652.971	703.22
653.168	690.43
653.364	707.48
653.561	628.82
653.757	673.58
653.954	729.77
654.15	673.58
654.347	771.61
654.543	703.22
654.74	662.73
654.936	650.33
655.133	692.57
655.329	685.01
655.525	693.15
655.722	692.95
655.918	666.22
656.115	704.77
656.311	595.89
656.507	608.87
656.704	518.19
656.9	592.59
657.096	584.45
657.292	581.16
657.489	633.28
657.685	631.73
657.881	614.1
658.077	606.93
658.273	653.04
658.47	718.53
658.666	676.87
658.862	647.62
659.058	633.09
659.254	703.61
659.45	639.09
659.646	667.77
659.842	657.3
660.038	703.61
660.234	630.95
660.43	674.55
660.626	734.8
660.822	696.25
661.018	695.28
661.214	659.24
661.41	621.85
661.606	683.65
661.802	684.62
661.998	680.36
662.194	668.73
662.39	707.48
662.586	669.51
662.781	727.44
662.977	679.39
663.173	675.32
663.369	658.08
663.564	681.91
663.76	689.66
663.956	649.55
664.152	697.99
664.347	604.99
664.543	673
664.739	655.37
664.934	606.15
665.13	618.17
665.326	672.8
665.521	675.32
665.717	640.06
665.912	613.71
666.108	532.92
666.304	629.21
666.499	639.09
666.695	550.94
666.89	619.14
667.086	683.65
667.281	666.6
667.477	690.43
667.672	657.11
667.867	668.15
668.063	693.53
668.258	572.64
668.454	632.12
668.649	720.08
668.844	653.04
669.04	642.77
669.235	639.29
669.43	647.23
669.626	588.14
669.821	605.38
670.016	582.9
670.211	633.67
670.407	612.35
670.602	650.91
670.797	625.14
670.992	647.23
671.187	595.89
671.382	655.56
671.578	613.52
671.773	632.7
671.968	564.3
672.163	657.88
672.358	654.78
672.553	602.47
672.748	593.56
672.943	704.19
673.138	620.49
673.333	655.75
673.528	579.8
673.723	656.72
673.918	623.79
674.113	573.22
674.308	701.67
674.503	660.02
674.698	651.68
674.892	630.57
675.087	659.43
675.282	614.49
675.477	605.96
675.672	674.35
675.867	616.81
676.061	590.85
676.256	563.53
676.451	590.65
676.646	615.26
676.84	593.75
677.035	585.81
677.23	564.3
677.424	605.77
677.619	633.28
677.814	668.35
678.008	631.34
678.203	561.59
678.397	616.42
678.592	605.19
678.787	679.39
678.981	596.47
679.176	624.37
679.37	613.13
679.565	590.46
679.759	575.54
679.954	608.09
680.148	644.32
680.342	640.45
680.537	603.25
680.731	592.2
680.926	602.09
681.12	625.34
681.314	570.5
681.509	592.2
681.703	627.27
681.897	618.94
682.092	574.38
682.286	607.9
682.48	679.2
682.674	627.27
682.869	621.65
683.063	611.77
683.257	682.1
683.451	564.3
683.645	609.84
683.839	601.5
684.034	596.27
684.228	635.41
684.422	552.1
684.616	582.9
684.81	624.75
685.004	592.98
685.198	599.37
685.392	620.69
685.586	577.29
685.78	612.35
685.974	630.37
686.168	611.39
686.362	644.32
686.556	567.21
686.75	549.58
686.944	568.18
687.138	585.62
687.331	506.76
687.525	527.88
687.719	462.98
687.913	534.27
688.107	533.5
688.301	484.09
688.494	542.02
688.688	500.37
688.882	468.98
689.076	494.56
689.269	500.37
689.463	591.04
689.657	470.92
689.85	518.58
690.044	526.72
690.238	520.71
690.431	518.39
690.625	506.18
690.818	549.77
691.012	531.37
691.205	531.37
691.399	510.83
691.593	542.99
691.786	604.8
691.98	606.15
692.173	614.49
692.366	591.82
692.56	609.64
692.753	643.55
692.947	551.52
693.14	623.01
693.333	655.37
693.527	523.81
693.72	617.97
693.914	577.29
694.107	586.2
694.3	636.19
694.493	566.63
694.687	639.48
694.88	602.86
695.073	666.41
695.266	626.69
695.46	607.9
695.653	688.69
695.846	680.36
696.039	611.58
696.232	642
696.425	668.54
696.618	692.57
696.812	648.97
697.005	747.78
697.198	793.9
697.391	698.77
697.584	753.4
697.777	792.54
697.97	775.68
698.163	754.18
698.356	778.4
698.549	872.17
698.742	832.84
698.935	790.21
699.127	826.06
699.32	785.18
699.513	783.05
699.706	815.6
699.899	835.94
700.092	833.61
700.285	906.46
700.477	781.3
700.67	876.63
700.863	877.59
701.056	1019.03
701.248	925.45
701.441	946.37
701.634	911.11
701.826	1056.81
702.019	899.49
702.212	973.11
702.404	896.19
702.597	944.82
702.79	967.88
702.982	988.81
703.175	1021.94
703.367	1001.2
703.56	1048.48
703.752	1166.86
703.945	1076.38
704.137	1139.54
704.33	1116.87
704.522	1124.62
704.715	1144.19
704.907	1170.15
705.1	1208.71
705.292	1221.88
705.484	1218.59
705.677	1246.68
705.869	1251.33
706.061	1285.24
706.254	1328.64
706.446	1267.41
706.638	1261.02
706.831	1372.42
707.023	1298.22
707.215	1453.02
707.407	1415.05
707.599	1413.5
707.792	1473.95
707.984	1432.87
708.176	1466.2
708.368	1456.9
708.56	1486.35
708.752	1503.59
708.944	1473.56
709.136	1527.23
709.329	1481.7
709.521	1664.4
709.713	1578.96
709.905	1651.03
710.097	1670.02
710.289	1610.35
710.481	1635.34
710.672	1689.98
710.864	1642.7
711.056	1752.56
711.248	1719.43
711.44	1721.36
711.632	1709.54
711.824	1758.18
712.016	1830.83
712.207	1809.91
712.399	1825.79
712.591	1904.45
712.783	1838.97
712.975	1882.56
713.166	1869.19
713.358	1890.31
713.55	1944.17
713.741	1961.61
713.933	1997.65
714.125	1931.19
714.316	1945.72
714.508	2066.04
714.7	2067.01
714.891	2060.03
715.083	2139.86
715.274	2062.75
715.466	2052.09
715.657	2120.29
715.849	2035.43
716.04	2076.89
716.232	2089.48
716.423	2140.05
716.615	2055
716.806	2025.74
716.998	2031.55
717.189	1970.13
717.381	1932.35
717.572	1928.67
717.763	1927.7
717.955	1913.95
718.146	1896.32
718.337	1849.62
718.528	1796.73
718.72	1763.99
718.911	1845.36
719.102	1761.86
719.293	1869.39
719.485	1838.58
719.676	1842.26
719.867	1759.34
720.058	1839.16
720.249	1799.06
720.44	1845.75
720.632	1898.64
720.823	1936.42
721.014	2070.5
721.205	2067.2
721.396	2143.54
721.587	2212.13
721.778	2244.09
721.969	2291.76
722.16	2316.17
722.351	2381.65
722.542	2493.64
722.733	2497.9
722.924	2400.25
723.115	2476.01
723.305	2478.72
723.496	2493.45
723.687	2363.83
723.878	2398.32
724.069	2386.89
724.26	2447.92
724.45	2354.53
724.641	2303.57
724.832	2433.97
725.023	2371.97
725.213	2402.77
725.404	2352.79
725.595	2387.47
725.785	2365.77
725.976	2457.22
726.167	2413.04
726.357	2455.28
726.548	2560.87
726.739	2431.06
726.929	2525.61
727.12	2605.04
727.31	2604.08
727.501	2577.73
727.691	2588.19
727.882	2595.55
728.072	2635.85
728.263	2616.67
728.453	2681.38
728.644	2669.76
728.834	2672.86
729.024	2648.83
729.215	2643.79
729.405	2717.42
729.596	2742.41
729.786	2754.23
729.976	2746.67
730.167	2819.52
730.357	2770.5
730.547	2773.22
730.737	2803.25
730.928	2893.53
731.118	2937.32
731.308	2862.34
731.498	2886.17
731.688	2950.88
731.879	2978.4
732.069	3025.09
732.259	3030.51
732.449	3055.89
732.639	3154.71
732.829	3154.71
733.019	3194.04
733.209	3247.51
733.399	3272.7
733.589	3351.36
733.779	3343.8
733.969	3344
734.159	3427.11
734.349	3459.86
734.539	3503.64
734.729	3532.12
734.919	3495.89
735.109	3582.5
735.299	3513.14
735.488	3565.06
735.678	3553.63
735.868	3554.79
736.058	3590.25
736.248	3535.22
736.437	3477.1
736.627	3527.67
736.817	3655.35
737.007	3569.71
737.196	3637.14
737.386	3647.99
737.576	3615.44
737.765	3684.99
737.955	3622.02
738.144	3798.53
738.334	3706.88
738.524	3684.8
738.713	3665.23
738.903	3664.45
739.092	3745.05
739.282	3704.95
739.471	3743.12
739.661	3714.25
739.85	3777.41
740.04	3789.03
740.229	3795.43
740.419	3816.55
740.608	3849.87
740.797	3802.21
740.987	3879.13
741.176	3876.41
741.365	3818.48
741.555	3783.03
741.744	3940.35
741.933	3863.05
742.123	3881.06
742.312	3912.64
742.501	3958.76
742.69	3943.45
742.88	3869.44
743.069	3961.47
743.258	3916.91
743.447	4002.93
743.636	3983.36
743.825	3932.02
744.014	3954.69
744.204	4016.88
744.393	3922.33
744.582	4058.54
744.771	4025.6
744.96	3966.89
745.149	4009.13
745.338	4014.56
745.527	4057.76
745.716	4015.14
745.905	4018.62
746.094	4046.14
746.283	4075.2
746.471	4047.88
746.66	4115.89
746.849	4100.77
747.038	4091.28
747.227	4108.14
747.416	4093.6
747.604	4057.18
747.793	4111.04
747.982	4086.82
748.171	4086.24
748.359	4120.73
748.548	4096.9
748.737	4057.37
748.926	4061.44
749.114	3946.55
749.303	4072.68
749.491	4062.6
749.68	4007.19
749.869	4141.65
750.057	4036.64
750.246	3963.6
750.434	4065.9
750.623	4048.66
750.811	4010.49
751	4064.74
751.188	4060.09
751.377	4029.09
751.565	4026.18
751.754	4008.94
751.942	3986.66
752.131	4017.66
752.319	3966.31
752.507	3967.09
752.696	4037.22
752.884	4047.88
753.072	3976.77
753.261	3984.14
753.449	4061.05
753.637	4015.52
753.825	4065.7
754.014	4012.42
754.202	3983.75
754.39	4049.43
754.578	4020.76
754.766	4032.57
754.955	3972.12
755.143	4063.57
755.331	3995.96
755.519	4019.01
755.707	3982.01
755.895	3967.86
756.083	3983.56
756.271	3915.55
756.459	3951.2
756.647	3984.33
756.835	3907.61
757.023	3932.02
757.211	3936.09
757.399	3925.24
757.587	3920.98
757.775	3847.35
757.963	3873.12
758.151	3918.46
758.339	3815.58
758.526	3886.49
758.714	3873.9
758.902	3763.65
759.09	3773.15
759.278	3543.36
759.465	3386.04
759.653	3006.1
759.841	2790.85
760.028	2452.95
760.216	2161.94
760.404	2032.13
760.591	1741.71
760.779	1531.3
760.967	1366.03
761.154	1193.21
761.342	1250.95
761.529	1253.27
761.717	1309.46
761.905	1348.79
762.092	1438.88
762.28	1426.09
762.467	1477.05
762.655	1381.14
762.842	1406.91
763.029	1497.97
763.217	1481.12
763.404	1503.4
763.592	1517.54
763.779	1480.34
763.966	1516.96
764.154	1581.28
764.341	1608.99
764.528	1619.26
764.716	1713.23
764.903	1777.55
765.09	1840.13
765.277	1876.75
765.465	2006.56
765.652	2088.13
765.839	2142.76
766.026	2285.56
766.213	2299.31
766.4	2422.92
766.588	2577.14
766.775	2632.94
766.962	2711.41
767.149	2742.61
767.336	2919.69
767.523	2882.49
767.71	2989.63
767.897	3092.51
768.084	3177.37
768.271	3184.93
768.458	3280.83
768.645	3287.42
768.832	3255.84
769.019	3286.26
769.206	3334.7
769.392	3400.18
769.579	3435.45
769.766	3429.63
769.953	3448.43
770.14	3471.09
770.327	3412.97
770.513	3494.73
770.7	3523.99
770.887	3459.86
771.073	3523.21
771.26	3496.28
771.447	3431.96
771.634	3476.33
771.82	3597.61
772.007	3447.84
772.193	3488.92
772.38	3502.87
772.567	3442.81
772.753	3484.66
772.94	3536.19
773.126	3537.74
773.313	3556.34
773.499	3541.04
773.686	3527.67
773.872	3433.9
774.059	3520.89
774.245	3444.36
774.432	3454.04
774.618	3363.95
774.804	3445.71
774.991	3414.52
775.177	3476.33
775.363	3413.94
775.55	3442.42
775.736	3385.85
775.922	3365.5
776.109	3417.23
776.295	3408.9
776.481	3395.73
776.667	3413.36
776.853	3370.73
777.04	3389.33
777.226	3395.92
777.412	3423.05
777.598	3349.62
777.784	3357.95
777.97	3319.58
778.156	3391.27
778.342	3298.27
778.528	3321.91
778.715	3263.79
778.901	3296.53
779.087	3345.93
779.272	3262.62
779.458	3279.67
779.644	3304.86
779.83	3277.54
780.016	3352.91
780.202	3258.75
780.388	3260.49
780.574	3175.05
780.76	3251.77
780.946	3268.63
781.131	3249.64
781.317	3232.01
781.503	3173.11
781.689	3248.87
781.874	3289.75
782.06	3194.81
782.246	3216.32
782.432	3201.79
782.617	3188.22
782.803	3219.61
782.989	3179.12
783.174	3150.25
783.36	3121.19
783.545	3161.68
783.731	3134.75
783.916	3069.46
784.102	3103.75
784.288	3054.93
784.473	3073.91
784.659	3074.69
784.844	3110.34
785.029	3042.91
785.215	3052.79
785.4	2947.2
785.586	3094.64
785.771	2999.51
785.956	3065
786.142	3035.16
786.327	3030.13
786.512	3045.24
786.698	3040.59
786.883	2941.2
787.068	3018.69
787.254	3050.66
787.439	2960.76
787.624	2990.99
787.809	2950.69
787.994	2991.96
788.18	3034.19
788.365	2916.59
788.55	2933.83
788.735	2932.48
788.92	2914.27
789.105	2935.58
789.29	2909.81
789.475	2859.24
789.66	2850.13
789.845	2880.36
790.03	2859.63
790.215	2899.35
790.4	2939.84
790.585	2936.74
790.77	2850.33
790.955	2770.7
791.14	2856.33
791.325	2909.23
791.51	2742.02
791.695	2811.77
791.879	2848.78
792.064	2752.1
792.249	2847.03
792.434	2826.69
792.618	2808.87
792.803	2853.62
792.988	2825.14
793.173	2838.51
793.357	2863.31
793.542	2767.79
793.727	2813.32
793.911	2874.35
794.096	2845.68
794.281	2832.89
794.465	2896.25
794.65	2803.05
794.834	2865.25
795.019	2880.36
795.203	2870.28
795.388	2891.4
795.572	2921.63
795.757	2903.03
795.941	2888.69
796.126	2878.23
796.31	2842.97
796.494	2875.9
796.679	2854.4
796.863	2830.95
797.048	2928.99
797.232	2868.73
797.416	2878.23
797.601	2853.04
797.785	2966.19
797.969	2937.32
798.153	2842.19
798.338	2900.9
798.522	2924.53
798.706	2919.69
798.89	2947.01
799.074	3042.91
799.258	2985.37
799.443	2921.05
799.627	2903.22
799.811	2981.5
799.995	2890.24
800.179	2864.67
800.363	2842.97
800.547	2908.45
800.731	2922.6
800.915	2817.39
801.099	2895.28
801.283	2866.22
801.467	2864.28
801.651	2835.99
801.835	2964.06
802.019	2895.08
802.202	2923.56
802.386	2836.18
802.57	2868.93
802.754	2915.82
802.938	2810.8
803.121	2823.4
803.305	2916.4
803.489	2857.69
803.673	2886.17
803.856	2918.92
804.04	2862.92
804.224	2901.28
804.407	2821.85
804.591	2858.85
804.775	2854.4
804.958	2832.5
805.142	2948.75
805.326	2838.51
805.509	2894.89
805.693	2917.75
805.876	2935
806.06	2901.28
806.243	2925.89
806.427	2915.43
806.61	2936.93
806.794	2879
806.977	2919.11
807.16	2878.42
807.344	2885.78
807.527	2867.38
807.71	2860.4
807.894	2878.03
808.077	2893.15
808.26	2817
808.444	2814.49
808.627	2885.01
808.81	2817.39
808.993	2749.77
809.177	2767.4
809.36	2801.89
809.543	2837.15
809.726	2675.96
809.909	2740.67
810.092	2742.41
810.276	2682.93
810.459	2709.47
810.642	2720.13
810.825	2684.87
811.008	2707.15
811.191	2610.47
811.374	2613.38
811.557	2619.19
811.74	2719.94
811.923	2554.28
812.106	2555.25
812.289	2549.63
812.472	2568.62
812.654	2590.32
812.837	2496.93
813.02	2453.92
813.203	2451.4
813.386	2359.37
813.569	2359.57
813.751	2291.17
813.934	2332.64
814.117	2303.38
814.3	2280.32
814.482	2208.83
814.665	2161.94
814.848	2168.73
815.03	2108.66
815.213	2102.46
815.396	2096.85
815.578	2078.05
815.761	2013.53
815.943	2084.45
816.126	1956.38
816.309	1970.13
816.491	1887.79
816.674	1829.86
816.856	1890.12
817.039	1859.51
817.221	1954.64
817.403	1914.14
817.586	1889.54
817.768	1938.75
817.951	1883.14
818.133	1838.97
818.315	1845.94
818.498	1889.54
818.68	1990.87
818.862	1921.12
819.045	1964.32
819.227	1938.36
819.409	1885.27
819.591	1946.69
819.774	1923.25
819.956	1900.19
820.138	1970.72
820.32	1945.53
820.502	1987.18
820.684	2049.57
820.866	2040.27
821.048	2121.45
821.231	2093.16
821.413	2073.79
821.595	2074.37
821.777	2084.25
821.959	2078.44
822.141	2196.82
822.323	2023.22
822.505	1998.42
822.686	1906.39
822.868	1881.2
823.05	1751.78
823.232	1689.98
823.414	1618.68
823.596	1713.61
823.778	1680.87
823.96	1769.03
824.141	1685.52
824.323	1750.43
824.505	1818.24
824.687	1846.14
824.868	1879.46
825.05	1995.71
825.232	2025.55
825.413	2080.96
825.595	2041.05
825.777	1990.87
825.958	2009.85
826.14	1999.78
826.321	2042.21
826.503	1998.42
826.685	2047.63
826.866	2051.9
827.048	2011.6
827.229	1982.92
827.411	1954.64
827.592	1918.21
827.773	1901.55
827.955	1887.4
828.136	1884.5
828.318	1834.51
828.499	1894.38
828.68	1809.71
828.862	1846.72
829.043	1889.73
829.224	1828.12
829.406	1802.54
829.587	1821.53
829.768	1839.94
829.949	1843.04
830.131	1818.62
830.312	1889.15
830.493	1834.51
830.674	1872.49
830.855	1798.67
831.036	1810.68
831.218	1865.71
831.399	1939.72
831.58	1849.82
831.761	1837.03
831.942	1851.56
832.123	1836.64
832.304	1790.14
832.485	1794.41
832.666	1802.93
832.847	1850.79
833.028	1801.77
833.209	1837.22
833.389	1812.62
833.57	1727.37
833.751	1762.83
833.932	1856.21
834.113	1815.14
834.294	1777.36
834.475	1828.12
834.655	1850.98
834.836	1877.52
835.017	1831.02
835.198	1741.9
835.378	1818.82
835.559	1879.27
835.74	1790.53
835.92	1823.66
836.101	1767.28
836.281	1862.61
836.462	1862.02
836.643	1925.38
836.823	1897.67
837.004	1857.18
837.184	1920.15
837.365	1862.8
837.545	1862.22
837.726	1839.74
837.906	1897.29
838.087	1874.04
838.267	1852.34
838.448	1807
838.628	1860.09
838.808	1870.94
838.989	1889.54
839.169	1826.76
839.349	1906.2
839.53	1894.57
839.71	1860.47
839.89	1829.86
840.07	1917.63
840.251	1828.12
840.431	1899.03
840.611	1827.34
840.791	1816.69
840.971	1866.67
841.151	1881.4
841.332	1802.54
841.512	1879.27
841.692	1797.7
841.872	1814.56
842.052	1846.52
842.232	1856.6
842.412	1769.61
842.592	1823.08
842.772	1822.31
842.952	1823.86
843.132	1784.33
843.312	1764.57
843.492	1786.27
843.672	1836.26
843.851	1713.81
844.031	1816.3
844.211	1774.06
844.391	1741.51
844.571	1790.53
844.751	1813.97
844.93	1800.02
845.11	1736.86
845.29	1801.96
845.47	1776.78
845.649	1787.43
845.829	1793.24
846.009	1712.45
846.188	1814.17
846.368	1757.21
846.547	1730.28
846.727	1786.85
846.907	1695.6
847.086	1762.24
847.266	1828.51
847.445	1746.74
847.625	1705.67
847.804	1736.67
847.984	1710.13
848.163	1705.86
848.343	1726.01
848.522	1731.44
848.701	1743.64
848.881	1666.15
849.06	1723.3
849.239	1721.94
849.419	1746.74
849.598	1672.93
849.777	1660.91
849.957	1637.08
850.136	1564.62
850.315	1560.36
850.494	1544.47
850.674	1580.7
850.853	1646.77
851.032	1605.12
851.211	1645.8
851.39	1645.22
851.569	1582.06
851.748	1568.5
851.927	1639.6
852.107	1607.05
852.286	1552.03
852.465	1556.87
852.644	1619.45
852.823	1616.74
853.002	1623.13
853.181	1635.53
853.359	1602.21
853.538	1527.42
853.717	1596.98
853.896	1513.47
854.075	1441.2
854.254	1398.19
854.433	1327.09
854.611	1408.66
854.79	1315.85
854.969	1362.16
855.148	1415.05
855.327	1382.11
855.505	1440.43
855.684	1405.17
855.863	1435.78
856.041	1427.64
856.22	1467.17
856.399	1411.76
856.577	1535.56
856.756	1512.7
856.934	1645.22
857.113	1628.75
857.291	1531.88
857.47	1483.64
857.648	1503.59
857.827	1537.5
858.005	1556.29
858.184	1492.16
858.362	1590.97
858.541	1499.52
858.719	1506.69
858.898	1509.02
859.076	1458.64
859.254	1579.73
859.433	1494.49
859.611	1474.14
859.789	1442.75
859.967	1525.87
860.146	1577.41
860.324	1418.15
860.502	1482.67
860.68	1433.84
860.859	1448.95
861.037	1475.3
861.215	1464.84
861.393	1451.86
861.571	1471.62
861.749	1400.13
861.927	1455.93
862.105	1451.28
862.283	1455.74
862.461	1429.58
862.639	1390.83
862.817	1436.55
862.995	1405.94
863.173	1381.14
863.351	1443.14
863.529	1454.96
863.707	1465.62
863.885	1416.99
864.063	1354.41
864.241	1357.12
864.418	1438.49
864.596	1372.23
864.774	1343.17
864.952	1401.49
865.129	1397.61
865.307	1352.08
865.485	1326.12
865.663	1410.4
865.84	1301.71
866.018	1323.79
866.196	1156.4
866.373	1227.11
866.551	1180.61
866.728	1107.96
866.906	1213.55
867.084	1171.32
867.261	1272.84
867.439	1273.42
867.616	1272.06
867.794	1280.01
867.971	1288.53
868.149	1279.81
868.326	1328.83
868.503	1324.38
868.681	1281.36
868.858	1278.07
869.035	1248.23
869.213	1321.28
869.39	1270.32
869.567	1344.91
869.745	1264.31
869.922	1282.14
870.099	1282.33
870.276	1319.53
870.454	1291.24
870.631	1291.44
870.808	1256.56
870.985	1309.26
871.162	1351.69
871.339	1286.21
871.517	1222.08
871.694	1234.67
871.871	1275.55
872.048	1251.91
872.225	1243.39
872.402	1256.37
872.579	1207.74
872.756	1266.25
872.933	1196.7
873.11	1226.34
873.287	1261.21
873.463	1251.72
873.64	1214.33
873.817	1246.68
873.994	1210.65
874.171	1192.82
874.348	1215.68
874.524	1172.28
874.701	1157.95
874.878	1171.9
875.055	1209.87
875.231	1204.06
875.408	1189.91
875.585	1126.37
875.762	1181.97
875.938	1164.73
876.115	1190.88
876.291	1177.71
876.468	1174.03
876.645	1123.65
876.821	1144.97
876.998	1147.68
877.174	1158.14
877.351	1135.67
877.527	1144.19
877.704	1149.81
877.88	1125.2
878.057	1128.5
878.233	1170.93
878.409	1143.03
878.586	1139.54
878.762	1150.39
878.938	1123.27
879.115	1101.57
879.291	1139.73
879.467	1053.32
879.644	1107.77
879.82	1154.65
879.996	1104.08
880.172	1069.79
880.349	1108.54
880.525	1076.19
880.701	1053.32
880.877	1066.3
881.053	1089.94
881.229	1092.27
881.405	1106.99
881.581	1042.09
881.757	1038.79
881.933	1073.86
882.109	1116.1
882.285	1072.5
882.461	1032.01
882.637	1084.13
882.813	1041.89
882.989	1079.87
883.165	1144.77
883.341	1029.3
883.517	1093.04
883.693	1090.91
883.869	1099.63
884.044	1041.12
884.22	1086.84
884.396	1121.72
884.572	1108.73
884.747	1097.3
884.923	1103.7
885.099	1115.32
885.275	1137.22
885.45	1082.77
885.626	1084.52
885.801	1069.99
885.977	1054.68
886.153	981.44
886.328	1094.98
886.504	1085.1
886.679	1097.3
886.855	1058.75
887.03	1059.52
887.206	1118.81
887.381	1088
887.557	1076.38
887.732	1076.57
887.908	1106.6
888.083	1123.07
888.258	1058.55
888.434	1044.02
888.609	1084.13
888.784	1100.6
888.96	1061.27
889.135	1055.07
889.31	1027.55
889.485	1083.55
889.661	1060.3
889.836	1109.51
890.011	1076.38
890.186	1050.22
890.361	1043.25
890.537	1065.53
890.712	1072.7
890.887	1049.25
891.062	1059.52
891.237	1144.38
891.412	1046.35
891.587	1105.83
891.762	1092.27
891.937	1114.16
892.112	1026.59
892.287	1036.27
892.462	1016.9
892.637	1010.7
892.812	1014.19
892.987	1013.99
893.161	1003.34
893.336	1000.62
893.511	1016.9
893.686	988.22
893.861	1009.92
894.035	1019.8
894.21	998.1
894.385	921.77
894.56	998.88
894.734	936.3
894.909	933.59
895.084	931.84
895.258	904.91
895.433	930.87
895.608	889.8
895.782	824.51
895.957	896.39
896.131	894.84
896.306	830.71
896.48	855.51
896.655	859.77
896.829	739.06
897.004	775.68
897.178	781.11
897.353	769.29
897.527	817.92
897.701	799.32
897.876	742.94
898.05	835.16
898.224	785.56
898.399	821.41
898.573	794.48
898.747	691.79
898.921	752.05
899.096	651.68
899.27	648.58
899.444	617
899.618	677.45
899.792	684.23
899.967	705.55
900.141	764.06
900.315	678.23
900.489	689.47
900.663	716.98
900.837	694.7
901.011	653.23
901.185	762.51
901.359	679.58
901.533	688.11
901.707	691.6
901.881	694.5
902.055	637.54
902.229	669.32
902.403	770.26
902.576	680.36
902.75	693.53
902.924	809.98
903.098	717.75
903.272	794.48
903.446	809.59
903.619	810.56
903.793	811.14
903.967	812.3
904.14	824.7
904.314	831.29
904.488	804.16
904.661	835.16
904.835	816.56
905.009	875.46
905.182	913.24
905.356	816.37
905.529	834.58
905.703	789.83
905.876	777.43
906.05	778.98
906.223	753.79
906.397	709.23
906.57	717.37
906.744	694.5
906.917	682.88
907.09	692.18
907.264	695.86
907.437	672.8
907.61	604.8
907.784	636.57
907.957	635.22
908.13	623.4
908.304	717.56
908.477	594.34
908.65	632.7
908.823	595.89
908.996	694.12
909.17	602.67
909.343	604.6
909.516	623.98
909.689	599.18
909.862	589.49
910.035	602.86
910.208	565.66
910.381	590.07
910.554	692.76
910.727	597.82
910.9	592.01
911.073	570.12
911.246	643.16
911.419	675.9
911.592	632.7
911.765	574.96
911.938	593.95
912.11	603.64
912.283	593.37
912.456	635.02
912.629	638.12
912.802	580.58
912.974	565.47
913.147	515.87
913.32	448.25
913.493	509.09
913.665	516.84
913.838	528.66
914.01	529.43
914.183	519.74
914.356	537.76
914.528	586.59
914.701	652.46
914.873	573.22
915.046	529.24
915.218	484.87
915.391	412.79
915.563	471.89
915.736	541.06
915.908	562.17
916.081	523.62
916.253	526.52
916.425	566.82
916.598	546.29
916.77	552.68
916.942	476.73
917.115	462.01
917.287	527.88
917.459	506.57
917.632	451.16
917.804	405.04
917.976	484.87
918.148	497.66
918.32	510.06
918.493	511.99
918.665	577.87
918.837	516.06
919.009	574.38
919.181	583.87
919.353	542.02
919.525	521.49
919.697	572.44
919.869	520.91
920.041	592.2
920.213	656.33
920.385	558.88
920.557	535.24
920.729	603.83
920.901	551.13
921.073	527.69
921.244	531.95
921.416	575.35
921.588	563.72
921.76	536.99
921.932	587.36
922.103	511.8
922.275	529.24
922.447	537.37
922.619	459.68
922.79	502.89
922.962	518.19
923.134	554.81
923.305	468.21
923.477	412.41
923.648	459.68
923.82	510.83
923.991	426.74
924.163	429.26
924.335	471.11
924.506	403.11
924.677	499.79
924.849	421.32
925.02	505.79
925.192	513.54
925.363	474.21
925.535	473.44
925.706	457.94
925.877	503.66
926.049	425
926.22	460.26
926.391	470.92
926.562	477.31
926.734	413.18
926.905	480.99
927.076	400.39
927.247	441.28
927.419	396.13
927.59	400.98
927.761	422.68
927.932	381.02
928.103	381.8
928.274	375.79
928.445	347.11
928.616	349.25
928.787	357.96
928.958	367.07
929.129	358.93
929.3	344.98
929.471	305.85
929.642	227.77
929.813	219.63
929.984	327.74
930.155	207.04
930.326	264.97
930.496	252.76
930.667	156.85
930.838	234.93
931.009	187.66
931.18	201.03
931.35	214.4
931.521	192.12
931.692	129.34
931.863	121.01
932.033	161.12
932.204	188.44
932.374	180.1
932.545	112.29
932.716	201.22
932.886	185.92
933.057	101.64
933.227	100.28
933.398	201.61
933.568	73.35
933.739	41.57
933.909	66.76
934.08	127.79
934.25	29.56
934.421	57.46
934.591	110.16
934.761	69.67
934.932	47.58
935.102	97.96
935.272	67.92
935.443	68.12
935.613	54.56
935.783	77.03
935.953	35.38
936.123	230.28
936.294	54.17
936.464	56.49
936.634	62.31
936.804	27.24
936.974	17.16
937.144	93.11
937.314	60.76
937.484	53.97
937.655	56.49
937.825	116.36
937.995	56.11
938.165	116.56
938.334	75.67
938.504	84.59
938.674	74.9
938.844	108.22
939.014	134.19
939.184	135.54
939.354	190.57
939.524	189.6
939.694	135.74
939.863	147.36
940.033	175.07
940.203	212.46
940.373	156.66
940.542	177.2
940.712	117.14
940.882	190.76
941.051	174.87
941.221	166.93
941.391	172.94
941.56	137.67
941.73	116.36
941.899	241.72
942.069	119.66
942.238	149.69
942.408	115.59
942.577	176.23
942.747	107.64
942.916	63.27
943.086	108.61
943.255	159.57
943.425	136.9
943.594	88.07
943.763	63.27
943.933	67.73
944.102	21.62
944.271	77.61
944.441	133.22
944.61	96.41
944.779	84.39
944.948	200.06
945.117	77.03
945.287	85.94
945.456	32.66
945.625	64.05
945.794	110.94
945.963	61.14
946.132	107.06
946.301	87.49
946.47	127.6
946.639	36.34
946.808	81.87
946.977	114.62
947.146	135.93
947.315	91.37
947.484	151.24
947.653	90.79
947.822	104.35
947.991	70.44
948.16	161.89
948.329	142.9
948.498	112.87
948.666	102.8
948.835	123.53
949.004	65.02
949.173	54.56
949.341	69.47
949.51	113.65
949.679	154.72
949.847	115.78
950.016	183.79
950.185	171.77
950.353	98.54
950.522	109.39
950.69	144.65
950.859	86.33
951.028	141.55
951.196	109.39
951.365	107.84
951.533	93.11
951.701	143.87
951.87	115.59
952.038	71.8
952.207	120.62
952.375	155.11
952.543	73.16
952.712	88.07
952.88	62.11
953.048	177.97
953.217	106.29
953.385	78.39
953.553	148.52
953.721	52.23
953.89	105.71
954.058	58.24
954.226	92.92
954.394	103.38
954.562	46.22
954.73	100.28
954.898	94.08
955.067	135.35
955.235	97.18
955.403	118.49
955.571	173.13
955.739	104.54
955.907	78.58
956.075	83.23
956.243	78
956.41	108.03
956.578	38.67
956.746	59.79
956.914	66.18
957.082	119.27
957.25	117.33
957.418	74.9
957.585	110.16
957.753	147.55
957.921	80.52
958.089	102.99
958.256	114.23
958.424	113.84
958.592	122.37
958.759	84.78
958.927	120.43
959.095	76.26
959.262	88.85
959.43	90.98
959.597	54.17
959.765	94.86
959.932	51.65
960.1	145.23
960.267	111.91
960.435	90.98
960.602	144.84
960.77	98.73
960.937	32.66
961.104	109.77
961.272	29.95
961.439	40.22
961.606	107.84
961.774	123.72
961.941	66.96
962.108	108.03
962.275	105.32
962.443	144.07
962.61	128.18
962.777	157.63
962.944	140
963.111	112.29
963.278	99.89
963.446	98.15
963.613	108.22
963.78	116.17
963.947	145.62
964.114	122.56
964.281	183.2
964.448	102.61
964.615	87.3
964.782	118.69
964.949	164.8
965.116	132.25
965.282	167.32
965.449	116.17
965.616	60.76
965.783	137.67
965.95	115.59
966.117	68.12
966.283	117.72
966.45	100.67
966.617	132.64
966.784	132.44
966.95	143.68
967.117	125.08
967.284	96.21
967.45	115.39
967.617	156.66
967.784	150.27
967.95	173.52
968.117	101.06
968.283	152.59
968.45	231.83
968.616	148.14
968.783	146.78
968.949	146.2
969.116	156.27
969.282	123.34
969.449	135.74
969.615	120.62
969.781	74.32
969.948	93.89
970.114	61.72
970.28	188.44
970.447	118.88
970.613	187.85
970.779	104.35
970.945	124.5
971.112	139.42
971.278	131.47
971.444	148.91
971.61	146.78
971.776	100.47
971.942	144.07
972.108	151.62
972.275	115.59
972.441	117.33
972.607	192.5
972.773	104.16
972.939	145.04
973.105	106.87
973.271	85.56
973.437	118.3
973.602	108.81
973.768	135.54
973.934	141.55
974.1	101.64
974.266	52.81
974.432	132.05
974.598	87.3
974.763	155.69
974.929	102.61
975.095	194.05
975.261	95.24
975.426	74.32
975.592	114.42
975.758	180.69
975.923	64.24
976.089	75.09
976.255	170.22
976.42	100.47
976.586	160.15
976.751	120.04
976.917	199.48
977.082	125.47
977.248	61.14
977.413	39.44
977.579	89.82
977.744	127.99
977.91	52.81
978.075	90.01
978.24	146.39
978.406	84.59
978.571	54.56
978.736	98.54
978.902	140.97
979.067	74.71
979.232	47
979.397	95.05
979.563	142.52
979.728	80.32
979.893	85.17
980.058	86.52
980.223	165.96
980.388	112.49
980.554	98.54
980.719	79.55
980.884	107.64
981.049	126.24
981.214	77.81
981.379	91.17
981.544	59.4
981.709	91.95
981.874	66.37
982.039	63.08
982.204	133.41
982.368	73.35
982.533	91.56
982.698	125.08
982.863	130.89
983.028	79.55
983.193	102.61
983.357	114.62
983.522	90.79
983.687	76.06
983.852	88.27
984.016	93.89
984.181	120.43
984.346	115.39
984.51	131.09
984.675	102.41
984.839	111.32
985.004	110.16
985.168	141.55
985.333	85.75
985.498	73.54
985.662	138.84
985.827	97.18
985.991	94.47
986.155	78
986.32	138.06
986.484	157.05
986.649	79.74
986.813	35.18
986.977	71.22
987.142	120.82
987.306	72.57
987.47	87.11
987.634	71.61
987.799	118.3
987.963	118.88
988.127	121.21
988.291	179.14
988.455	109
988.62	85.17
988.784	103.77
988.948	115.78
989.112	17.16
989.276	90.21
989.44	105.51
989.604	82.84
989.768	67.34
989.932	173.32
990.096	54.36
990.26	78.77
990.424	52.42
990.588	83.42
990.752	156.08
990.915	130.31
991.079	65.02
991.243	75.48
991.407	112.68
991.571	67.34
991.734	121.21
991.898	108.42
992.062	169.45
992.226	82.07
992.389	51.26
992.553	17.16
992.717	50.49
992.88	56.88
993.044	77.61
993.207	77.22
993.371	85.17
993.535	105.71
993.698	86.14
993.862	110.94
994.025	130.89
994.189	99.51
994.352	63.66
994.515	71.61
994.679	116.36
994.842	70.83
995.006	126.44
995.169	56.49
995.332	33.63
995.496	100.28
995.659	63.27
995.822	66.96
995.985	83.81
996.149	115.39
996.312	98.15
996.475	131.09
996.638	46.42
996.801	124.69
996.964	115.78
997.128	73.74
997.291	64.63
997.454	94.66
997.617	28.98
997.78	108.22
997.943	54.56
998.106	101.44
998.269	45.84
998.432	64.44
998.595	84.97
998.758	27.63
998.92	22.78
999.083	-8.8
999.246	43.51
999.409	38.67
999.572	2.05
999.735	48.16
999.897	64.05
1000.06	50.68
1000.223	53.78
1000.386	95.82
1000.548	91.17
1000.711	90.4
1000.874	69.28
1001.036	5.54
1001.199	113.65
1001.361	59.01
1001.524	72.57
1001.687	94.08
1001.849	48.74
1002.012	87.3
1002.174	57.85
1002.337	101.06
1002.499	43.9
1002.661	124.3
1002.824	20.84
1002.986	39.44
1003.149	59.98
1003.311	4.57
1003.473	96.6
1003.636	32.66
1003.798	76.06
1003.96	91.37
1004.123	45.45
1004.285	40.02
1004.447	49.71
1004.609	61.14
1004.771	133.22
1004.933	15.23
1005.096	41.38
1005.258	7.09
1005.42	59.79
1005.582	97.96
1005.744	60.56
1005.906	11.93
1006.068	49.52
1006.23	27.63
1006.392	-12.09
1006.554	24.91
1006.716	82.84
1006.878	94.08
1007.04	8.64
1007.202	22.59
1007.363	23.36
1007.525	50.1
1007.687	60.76
1007.849	79.74
1008.011	12.51
1008.172	5.15
1008.334	29.95
1008.496	73.16
1008.658	-5.12
1008.819	27.63
1008.981	28.59
1009.143	22.78
1009.304	42.93
1009.466	86.52
1009.627	115.39
1009.789	144.84
1009.95	57.66
1010.112	22.59
1010.273	70.25
1010.435	16.58
1010.596	35.57
1010.758	14.06
1010.919	21.04
1011.081	12.71
1011.242	58.24
1011.403	42.74
1011.565	24.72
1011.726	61.34
1011.887	17.55
1012.049	51.65
1012.21	95.05
1012.371	103.38
1012.532	-24.88
1012.693	48.36
1012.855	21.81
1013.016	43.51
1013.177	59.59
1013.338	45.64
1013.499	114.81
1013.66	61.34
1013.821	78
1013.982	42.16
1014.143	68.7
1014.304	26.27
1014.465	45.06
1014.626	58.04
1014.787	39.83
1014.948	139.8
1015.109	-12.09
1015.27	104.16
1015.431	4.57
1015.592	5.15
1015.752	78.97
1015.913	41.19
1016.074	55.52
1016.235	50.87
1016.395	37.7
1016.556	37.7
1016.717	43.32
1016.877	65.6
1017.038	5.73
1017.199	31.5
1017.359	64.82
1017.52	44.67
1017.681	16.19
1017.841	31.5
1018.002	49.71
1018.162	15.23
1018.323	87.49
1018.483	14.84
1018.644	-0.08
1018.804	-37.28
1018.964	10.77
1019.125	6.7
1019.285	28.98
1019.446	-40.57
1019.606	1.08
1019.766	-47.94
1019.926	44.09
1020.087	42.93
1020.247	-9.96
1020.407	46.42
1020.567	74.12
1020.728	27.24
1020.888	-10.16
1021.048	-7.25
1021.208	-6.47
1021.368	24.33
1021.528	69.28
1021.688	63.27
1021.848	48.94
1022.008	43.71
1022.168	28.79
1022.328	19.68
1022.488	17.16
1022.648	44.67
1022.808	41.77
1022.968	41.19
1023.128	-16.94
1023.288	14.84
1023.448	26.85
1023.608	37.51
1023.767	42.16
1023.927	6.51
1024.087	-34.76
1024.247	-42.71
1024.406	-0.47
1024.566	-17.13
1024.726	-14.81
1024.885	30.53
1025.045	44.29
1025.205	8.06
1025.364	4.38
1025.524	26.27
1025.683	1.08
1025.843	18.71
1026.003	13.68
1026.162	79.36
1026.321	43.71
1026.481	23.56
1026.64	17.36
1026.8	40.02
1026.959	20.07
1027.119	38.47
1027.278	-12.29
1027.437	0.5
1027.597	23.75
1027.756	32.47
1027.915	38.28
1028.074	34.99
1028.234	0.31
1028.393	41.38
1028.552	17.55
1028.711	-44.26
1028.87	57.46
1029.03	-43.29
1029.189	39.06
1029.348	-48.91
1029.507	2.83
1029.666	9.61
1029.825	-19.26
1029.984	0.89
1030.143	27.04
1030.302	-8.8
1030.461	-55.49
1030.62	18.71
1030.779	35.57
1030.938	-19.65
1031.097	-45.42
1031.255	55.14
1031.414	84.2
1031.573	53.01
1031.732	-43.87
1031.891	-6.28
1032.049	43.71
1032.208	58.82
1032.367	-11.9
1032.525	4.18
1032.684	-16.74
1032.843	34.21
1033.001	-42.32
1033.16	186.3
1033.319	69.09
1033.477	49.52
1033.636	2.63
1033.794	-34.57
1033.953	26.85
1034.111	21.81
1034.27	-15.77
1034.428	26.85
1034.587	-13.06
1034.745	31.5
1034.903	18.91
1035.062	39.06
1035.22	-19.65
1035.378	60.17
1035.537	-9.38
1035.695	13.09
1035.853	12.13
1036.011	17.36
1036.17	67.34
1036.328	-48.91
1036.486	33.24
1036.644	10.77
1036.802	-71.77
1036.96	11.16
1037.119	17.74
1037.277	5.54
1037.435	-39.41
1037.593	-8.02
1037.751	9.41
1037.909	57.27
1038.067	57.27
