Data from gum_old_FLMT105791__134__15-46-23-252.txt Node

Date: Mon Mar 20 15:46:23 GMT 2023
User: antho
Spectrometer: FLMT10579
Trigger mode: 0
Integration Time (sec): 1.000000E-1
Scans to average: 10
Electric dark correction enabled: true
Nonlinearity correction enabled: false
Boxcar width: 0
XAxis mode: Wavelengths
Number of Pixels in Spectrum: 3648
>>>>>Begin Spectral Data<<<<<
345.248	-189.15
345.464	-189.15
345.681	-189.15
345.898	-185.85
346.114	-155.82
346.331	-33.57
346.548	35.21
346.764	-31.63
346.981	-1.02
347.197	-14.19
347.414	31.14
347.631	-17.68
347.847	58.66
348.064	11.96
348.28	16.03
348.497	-46.94
348.713	-7.99
348.93	36.76
349.146	24.36
349.363	-4.5
349.579	18.36
349.796	17.39
350.012	-11.67
350.229	51.29
350.445	21.26
350.661	-8.19
350.878	-5.47
351.094	46.84
351.311	42.19
351.527	27.08
351.743	-2.57
351.96	23.2
352.176	44.71
352.392	36.18
352.609	55.17
352.825	9.25
353.041	29.59
353.257	1.11
353.474	35.99
353.69	28.63
353.906	46.64
354.122	3.25
354.339	51.1
354.555	22.62
354.771	-7.41
354.987	76.87
355.203	58.66
355.42	-2.57
355.636	2.28
355.852	-13.03
356.068	21.84
356.284	-25.82
356.5	73.96
356.716	36.18
356.932	19.33
357.148	37.73
357.364	29.01
357.58	67.76
357.796	79.19
358.012	93.34
358.228	55.56
358.444	-12.84
358.66	90.24
358.876	20.49
359.092	-26.59
359.308	26.88
359.524	54.59
359.74	17.39
359.956	11.38
360.172	20.1
360.388	90.24
360.604	2.47
360.819	126.08
361.035	32.11
361.251	44.51
361.467	15.26
361.683	71.25
361.898	43.74
362.114	56.53
362.33	23.01
362.546	57.11
362.762	-1.79
362.977	44.13
363.193	-23.69
363.409	71.06
363.624	1.11
363.84	7.7
364.056	12.35
364.271	43.93
364.487	66.6
364.703	28.82
364.918	-11.48
365.134	23.01
365.35	64.47
365.565	164.25
365.781	41.99
365.996	56.53
366.212	95.08
366.427	59.04
366.643	17.97
366.858	30.18
367.074	4.21
367.289	118.91
367.505	149.91
367.72	-17.87
367.936	44.9
368.151	83.84
368.367	79.19
368.582	34.63
368.798	18.94
369.013	86.36
369.228	52.84
369.444	43.74
369.659	87.33
369.874	72.8
370.09	93.92
370.305	-12.45
370.52	33.47
370.736	105.35
370.951	51.1
371.166	91.98
371.381	122.79
371.597	70.09
371.812	20.1
372.027	12.35
372.242	43.93
372.458	114.07
372.673	25.72
372.888	12.74
373.103	71.64
373.318	133.25
373.533	88.69
373.749	60.79
373.964	6.73
374.179	90.82
374.394	20.49
374.609	82.1
374.824	19.33
375.039	78.23
375.254	32.5
375.469	108.06
375.684	69.51
375.899	108.64
376.114	43.16
376.329	85.01
376.544	104.96
376.759	57.11
376.974	3.83
377.189	38.7
377.404	58.46
377.619	94.11
377.834	-1.99
378.049	25.14
378.264	8.28
378.478	48.19
378.693	69.7
378.908	82.1
379.123	54.78
379.338	127.44
379.553	60.4
379.767	60.98
379.982	83.46
380.197	87.33
380.412	49.55
380.626	75.9
380.841	143.32
381.056	69.12
381.271	100.7
381.485	43.54
381.7	32.5
381.915	86.56
382.129	44.13
382.344	63.31
382.559	50.91
382.773	89.66
382.988	-7.41
383.202	62.73
383.417	36.96
383.632	161.15
383.846	48.97
384.061	60.98
384.275	71.44
384.49	81.52
384.704	99.15
384.919	92.95
385.133	47.61
385.348	96.83
385.562	46.84
385.777	101.48
385.991	52.84
386.206	59.24
386.42	67.38
386.634	80.16
386.849	86.36
387.063	100.7
387.277	55.56
387.492	76.68
387.706	30.56
387.92	39.86
388.135	100.89
388.349	68.73
388.563	85.98
388.778	105.16
388.992	94.89
389.206	100.89
389.42	170.84
389.635	89.46
389.849	105.74
390.063	122.59
390.277	105.16
390.491	136.93
390.706	124.72
390.92	121.43
391.134	100.51
391.348	130.54
391.562	52.07
391.776	100.12
391.99	79.78
392.205	157.86
392.419	66.79
392.633	101.48
392.847	135.96
393.061	58.85
393.275	155.53
393.489	69.89
393.703	82.49
393.917	120.85
394.131	47.23
394.345	87.72
394.559	118.14
394.773	82.88
394.986	120.85
395.2	99.93
395.414	169.67
395.628	68.73
395.842	131.51
396.056	88.88
396.27	58.27
396.484	124.14
396.697	115.23
396.911	133.44
397.125	110.58
397.339	132.67
397.553	85.59
397.766	175.49
397.98	137.51
398.194	141.39
398.408	95.47
398.621	146.42
398.835	165.41
399.049	162.7
399.262	214.04
399.476	204.35
399.69	200.29
399.903	202.03
400.117	159.02
400.331	179.75
400.544	135.57
400.758	272.36
400.971	162.12
401.185	217.53
401.398	113.29
401.612	201.25
401.826	208.23
402.039	206.68
402.253	167.74
402.466	180.91
402.68	173.94
402.893	182.66
403.106	179.75
403.32	186.14
403.533	192.34
403.747	177.42
403.96	193.7
404.174	252.6
404.387	168.71
404.6	185.37
404.814	253.18
405.027	201.64
405.24	187.11
405.454	188.27
405.667	225.47
405.88	146.42
406.094	189.82
406.307	259.38
406.52	204.35
406.733	148.56
406.947	145.65
407.16	240.97
407.373	228.19
407.586	182.07
407.799	148.94
408.012	240.59
408.226	214.43
408.439	257.83
408.652	178.59
408.865	225.86
409.078	273.52
409.291	240.97
409.504	172
409.717	264.42
409.93	255.7
410.143	254.92
410.357	160.76
410.57	140.42
410.783	187.31
410.996	211.91
411.209	210.75
411.421	273.14
411.634	207.26
411.847	210.36
412.06	211.91
412.273	227.6
412.486	256.86
412.699	340.75
412.912	239.42
413.125	280.3
413.338	258.6
413.55	277.01
413.763	257.64
413.976	262.48
414.189	212.1
414.402	232.45
414.615	295.8
414.827	194.28
415.04	282.82
415.253	254.92
415.466	297.55
415.678	307.82
415.891	260.74
416.104	230.51
416.316	244.27
416.529	257.05
416.742	299.29
416.954	298.32
417.167	252.02
417.38	262.29
417.592	287.08
417.805	227.8
418.017	199.32
418.23	280.69
418.442	204.94
418.655	236.9
418.868	261.9
419.08	303.94
419.293	346.18
419.505	264.03
419.718	296.97
419.93	315.76
420.142	263.84
420.355	287.08
420.567	293.87
420.78	304.33
420.992	260.15
421.205	330.48
421.417	252.6
421.629	270.81
421.842	261.7
422.054	237.49
422.266	310.53
422.479	333.97
422.691	267.71
422.903	293.67
423.115	254.73
423.328	257.83
423.54	254.15
423.752	272.75
423.964	262.87
424.177	280.11
424.389	272.17
424.601	390.16
424.813	314.98
425.025	297.16
425.238	331.65
425.45	302.97
425.662	267.71
425.874	599.41
426.086	306.07
426.298	311.88
426.51	293.28
426.722	310.92
426.934	255.31
427.146	325.45
427.358	258.99
427.57	294.45
427.782	262.67
427.994	275.07
428.206	258.6
428.418	247.17
428.63	314.4
428.842	309.75
429.054	305.3
429.266	335.13
429.478	261.7
429.69	288.63
429.902	188.47
430.114	324.87
430.325	314.4
430.537	277.59
430.749	256.67
430.961	205.13
431.173	232.64
431.384	250.27
431.596	175.68
431.808	258.99
432.02	302
432.231	318.67
432.443	365.55
432.655	328.55
432.867	284.37
433.078	322.54
433.29	406.43
433.502	364
433.713	362.45
433.925	341.33
434.136	379.89
434.348	282.63
434.56	245.24
434.771	409.34
434.983	290.18
435.194	324.09
435.406	328.35
435.617	364.39
435.829	388.8
436.04	370.01
436.252	389.96
436.463	391.9
436.675	404.88
436.886	382.21
437.098	398.1
437.309	419.22
437.521	367.3
437.732	401.2
437.943	395.39
438.155	391.71
438.366	305.1
438.578	449.25
438.789	365.55
439	389.58
439.211	343.47
439.423	347.34
439.634	387.45
439.845	380.86
440.057	388.03
440.268	418.06
440.479	368.65
440.69	390.55
440.902	368.65
441.113	407.4
441.324	368.65
441.535	400.43
441.746	470.56
441.957	365.55
442.168	396.75
442.38	431.04
442.591	459.13
442.802	401.98
443.013	437.24
443.224	431.81
443.435	420
443.646	420.19
443.857	426.39
444.068	432.98
444.279	421.93
444.49	509.51
444.701	414.38
444.912	560.85
445.123	472.69
445.334	457.2
445.545	462.23
445.756	431.04
445.967	402.17
446.178	460.1
446.388	489.16
446.599	476.76
446.81	473.86
447.021	429.49
447.232	501.76
447.443	509.89
447.653	419.03
447.864	476.57
448.075	469.59
448.286	510.48
448.496	472.11
448.707	504.08
448.918	451
449.129	536.24
449.339	467.85
449.55	487.03
449.761	445.38
449.971	521.52
450.182	467.27
450.393	492.46
450.603	473.28
450.814	528.11
451.024	503.5
451.235	528.11
451.446	545.93
451.656	555.81
451.867	476.57
452.077	505.44
452.288	571.7
452.498	544.96
452.709	504.66
452.919	515.13
453.13	464.17
453.34	517.84
453.55	464.17
453.761	503.31
453.971	488.58
454.182	517.45
454.392	495.94
454.602	563.37
454.813	535.66
455.023	514.16
455.233	442.08
455.444	511.25
455.654	431.62
455.864	508.73
456.075	482.96
456.285	475.21
456.495	486.45
456.705	518.42
456.916	547.29
457.126	552.91
457.336	525.59
457.546	447.31
457.756	497.49
457.967	577.12
458.177	513.38
458.387	522.49
458.597	492.46
458.807	497.88
459.017	525.2
459.227	481.41
459.437	520.94
459.647	514.35
459.857	571.31
460.068	489.55
460.278	587.59
460.488	560.46
460.698	630.6
460.908	538.57
461.117	476.18
461.327	523.46
461.537	568.21
461.747	531.21
461.957	512.61
462.167	670.12
462.377	578.29
462.587	528.69
462.797	625.76
463.007	571.51
463.216	588.17
463.426	620.14
463.636	589.91
463.846	514.16
464.056	564.53
464.265	616.65
464.475	504.66
464.685	570.54
464.895	603.47
465.104	551.16
465.314	598.05
465.524	554.07
465.733	529.66
465.943	655.98
466.153	648.23
466.362	641.06
466.572	600.76
466.782	555.81
466.991	575.38
467.201	616.46
467.41	515.71
467.62	588.94
467.829	586.23
468.039	592.04
468.249	583.91
468.458	610.84
468.668	645.52
468.877	653.07
469.086	649.78
469.296	657.14
469.505	600.37
469.715	687.17
469.924	653.85
470.134	688.92
470.343	683.49
470.552	612.58
470.762	623.62
470.971	589.33
471.18	626.14
471.39	610.26
471.599	561.04
471.808	631.18
472.018	624.59
472.227	687.56
472.436	702.29
472.645	622.07
472.855	646.49
473.064	728.05
473.273	698.02
473.482	693.95
473.691	734.25
473.901	709.26
474.11	650.75
474.319	784.63
474.528	717.2
474.737	738.9
474.946	728.05
475.155	717.98
475.364	780.37
475.573	724.76
475.783	751.11
475.992	768.74
476.201	765.83
476.41	742.97
476.619	697.25
476.828	731.54
477.037	724.57
477.245	750.53
477.454	760.02
477.663	755.18
477.872	792.96
478.081	811.36
478.29	737.16
478.499	892.55
478.708	807.49
478.917	870.07
479.125	800.9
479.334	814.46
479.543	815.82
479.752	833.65
479.961	834.81
480.169	880.34
480.378	810.59
480.587	954.93
480.796	876.66
481.004	847.98
481.213	847.79
481.422	856.31
481.63	884.6
481.839	896.23
482.048	938.08
482.256	894.1
482.465	905.91
482.674	892.35
482.882	910.18
483.091	972.76
483.299	912.31
483.508	946.41
483.716	895.84
483.925	898.74
484.134	887.9
484.342	895.06
484.551	972.95
484.759	952.03
484.967	934.59
485.176	987.48
485.384	981.09
485.593	978.38
485.801	953.58
486.01	942.34
486.218	889.25
486.426	799.16
486.635	855.73
486.843	820.28
487.051	839.46
487.26	881.31
487.468	913.28
487.676	936.91
487.885	886.15
488.093	927.23
488.301	961.71
488.509	981.28
488.717	1000.66
488.926	1004.14
489.134	962.1
489.342	965.98
489.55	929.36
489.758	982.64
489.967	936.72
490.175	1112.25
490.383	1011.31
490.591	1123.1
490.799	1007.63
491.007	1068.66
491.215	1091.91
491.423	1034.76
491.631	1033.59
491.839	1064.21
492.047	1085.13
492.255	983.02
492.463	987.29
492.671	992.13
492.879	1078.93
493.087	1035.72
493.295	1020.22
493.503	1104.7
493.711	1073.7
493.919	1147.71
494.127	1112.64
494.334	1109.54
494.542	1018.67
494.75	1075.44
494.958	1092.88
495.166	1173.87
495.374	1116.52
495.581	1108.77
495.789	1129.5
495.997	1186.65
496.205	1093.46
496.412	1116.71
496.62	1120.39
496.828	1110.9
497.035	1118.65
497.243	1139.77
497.451	1136.47
497.658	1140.93
497.866	1141.9
498.074	1221.72
498.281	1165.34
498.489	1230.05
498.696	1176.77
498.904	1082.61
499.112	1071.18
499.319	1211.45
499.527	1133.57
499.734	1194.98
499.942	1109.54
500.149	1124.65
500.357	1163.98
500.564	1131.63
500.771	1161.27
500.979	1106.83
501.186	1101.4
501.394	1132.4
501.601	1114.97
501.808	1139.77
502.016	1104.5
502.223	1076.02
502.43	1145
502.638	1163.02
502.845	1073.12
503.052	1219.78
503.26	1152.55
503.467	1224.82
503.674	1163.02
503.881	1216.68
504.089	1246.91
504.296	1231.41
504.503	1137.44
504.71	1144.8
504.917	1137.44
505.125	1201.38
505.332	1178.32
505.539	1193.05
505.746	1262.99
505.953	1215.52
506.16	1222.3
506.367	1293.21
506.574	1313.36
506.781	1312.78
506.988	1224.82
507.195	1223.08
507.402	1229.08
507.609	1288.95
507.816	1223.08
508.023	1224.05
508.23	1213.58
508.437	1176.77
508.644	1242.07
508.851	1282.56
509.058	1270.55
509.265	1238
509.472	1283.33
509.679	1359.86
509.885	1268.22
510.092	1262.8
510.299	1249.81
510.506	1263.38
510.713	1251.56
510.92	1255.24
511.126	1284.88
511.333	1343.39
511.54	1284.88
511.746	1316.08
511.953	1361.8
512.16	1361.61
512.367	1301.74
512.573	1328.09
512.78	1323.25
512.987	1299.22
513.193	1287.98
513.4	1224.63
513.606	1281.59
513.813	1340.29
514.02	1278.49
514.226	1396.87
514.433	1371.49
514.639	1221.92
514.846	1308.33
515.052	1279.85
515.259	1314.53
515.465	1294.76
515.672	1271.32
515.878	1401.71
516.085	1308.52
516.291	1372.46
516.497	1305.42
516.704	1330.41
516.91	1273.06
517.117	1225.4
517.323	1171.54
517.529	1201.96
517.736	1205.06
517.942	1199.25
518.148	1230.63
518.354	1282.36
518.561	1278.49
518.767	1317.82
518.973	1341.84
519.179	1327.7
519.386	1274.42
519.592	1287.21
519.798	1257.56
520.004	1430.77
520.21	1353.28
520.417	1407.91
520.623	1473.98
520.829	1431.16
521.035	1429.03
521.241	1479.41
521.447	1464.29
521.653	1558.84
521.859	1441.24
522.065	1470.88
522.271	1562.72
522.477	1519.32
522.683	1590.81
522.889	1519.7
523.095	1503.43
523.301	1468.36
523.507	1490.26
523.713	1516.02
523.919	1477.27
524.125	1600.11
524.331	1545.47
524.537	1634.4
524.742	1615.8
524.948	1619.87
525.154	1677.8
525.36	1753.95
525.566	1642.54
525.772	1656.3
525.977	1615.8
526.183	1676.06
526.389	1675.09
526.595	1600.88
526.8	1610.96
527.006	1554.97
527.212	1508.08
527.417	1473.79
527.623	1509.82
527.829	1564.85
528.034	1651.26
528.24	1618.9
528.446	1567.95
528.651	1699.11
528.857	1672.96
529.062	1746
529.268	1732.83
529.473	1721.78
529.679	1737.67
529.884	1839.78
530.09	1808.39
530.295	1774.29
530.501	1814.2
530.706	1761.11
530.912	1751.04
531.117	1782.04
531.323	1783.01
531.528	1839.58
531.733	1863.41
531.939	1801.22
532.144	1834.35
532.35	1837.45
532.555	1863.22
532.76	1833.96
532.966	1810.52
533.171	1814.59
533.376	1731.28
533.581	1737.09
533.787	1791.14
533.992	1831.83
534.197	1828.15
534.402	1812.84
534.607	1814.2
534.813	1905.65
535.018	1813.62
535.223	1820.21
535.428	1850.82
535.633	1891.89
535.838	1889.37
536.043	1891.31
536.249	2018.22
536.454	1910.88
536.659	1920.76
536.864	1914.37
537.069	1943.04
537.274	1938.39
537.479	1890.15
537.684	1889.76
537.889	1801.99
538.094	1980.05
538.299	1899.06
538.504	1928.51
538.708	1956.99
538.913	1947.69
539.118	1928.51
539.323	1962.03
539.528	1926.77
539.733	1877.75
539.938	1937.81
540.142	1942.27
540.347	1882.01
540.552	1892.47
540.757	1882.98
540.962	1878.14
541.166	1826.79
541.371	1819.43
541.576	1884.14
541.781	1794.05
541.985	1904.1
542.19	1892.47
542.395	1950.02
542.599	2002.33
542.804	1992.25
543.008	1999.04
543.213	1926.57
543.418	1904.49
543.622	1945.75
543.827	1882.21
544.031	2000.39
544.236	1987.99
544.44	1963.39
544.645	2017.83
544.849	1938.39
545.054	2050.77
545.258	2048.05
545.463	2111.22
545.667	1992.06
545.872	2018.6
546.076	2002.91
546.281	2006.79
546.485	1973.46
546.689	2025.77
546.894	2022.67
547.098	2016.86
547.302	1936.26
547.507	2025.77
547.711	2015.7
547.915	2046.31
548.119	1974.24
548.324	1986.64
548.528	2033.13
548.732	1991.09
548.936	2053.67
549.141	2064.72
549.345	1971.72
549.549	2031.2
549.753	2038.37
549.957	2122.45
550.161	2093.2
550.366	2045.73
550.57	2023.84
550.774	1990.7
550.978	2003.3
551.182	2011.24
551.386	2006.98
551.59	2037.59
551.794	2003.49
551.998	2052.7
552.202	1994.97
552.406	1976.37
552.61	2055.42
552.814	2053.48
553.018	2112.77
553.222	2016.86
553.426	2000
553.63	2098.23
553.833	2030.23
554.037	1981.79
554.241	2054.64
554.445	2055.42
554.649	2036.43
554.853	2005.43
555.056	2066.07
555.26	2063.36
555.464	2055.22
555.668	2061.03
555.871	2073.24
556.075	2076.15
556.279	1987.99
556.483	1994.97
556.686	2012.4
556.89	2009.3
557.094	2057.35
557.297	1953.5
557.501	2026.74
557.704	1907.2
557.908	2032.17
558.112	1919.6
558.315	2044.76
558.519	2006.59
558.722	1955.25
558.926	1927.54
559.129	1875.23
559.333	1864.77
559.536	1897.9
559.74	1899.45
559.943	1870.77
560.147	1837.26
560.35	1861.86
560.553	1903.52
560.757	1808.78
560.96	1926.77
561.164	1870.39
561.367	1976.75
561.57	1905.84
561.774	1909.33
561.977	1870.19
562.18	1840.16
562.384	1962.42
562.587	1886.27
562.79	1862.06
562.993	1862.83
563.197	1881.82
563.4	1945.95
563.603	1930.64
563.806	1985.86
564.009	1858.76
564.212	1879.69
564.416	1774.68
564.619	1841.33
564.822	1806.64
565.025	1857.6
565.228	1831.25
565.431	1845.59
565.634	1723.14
565.837	1777.78
566.04	1754.33
566.243	1769.25
566.446	1657.07
566.649	1797.15
566.852	1701.25
567.055	1718.49
567.258	1739.8
567.461	1818.66
567.664	1833.58
567.867	1727.01
568.07	1742.71
568.273	1732.44
568.475	1789.21
568.678	1727.01
568.881	1734.18
569.084	1735.35
569.287	1582.09
569.489	1628.4
569.692	1725.66
569.895	1752.2
570.098	1607.47
570.3	1633.05
570.503	1588.29
570.706	1574.15
570.909	1592.94
571.111	1561.55
571.314	1568.14
571.516	1608.44
571.719	1602.43
571.922	1567.95
572.124	1552.84
572.327	1588.87
572.529	1569.11
572.732	1569.11
572.935	1578.99
573.137	1677.03
573.34	1556.9
573.542	1585.77
573.745	1647
573.947	1597.4
574.15	1570.66
574.352	1547.41
574.554	1626.85
574.757	1535.01
574.959	1527.26
575.162	1545.47
575.364	1503.04
575.566	1593.91
575.769	1505.37
575.971	1529.2
576.173	1414.31
576.376	1485.22
576.578	1542.95
576.78	1566.01
576.982	1409.46
577.185	1480.37
577.387	1440.27
577.589	1449.57
577.791	1492.19
577.993	1524.35
578.196	1505.37
578.398	1517.38
578.6	1526.1
578.802	1405.59
579.004	1398.61
579.206	1423.41
579.408	1458.29
579.61	1409.85
579.812	1458.09
580.014	1393.96
580.216	1401.13
580.418	1453.44
580.62	1390.28
580.822	1387.76
581.024	1440.66
581.226	1458.09
581.428	1410.82
581.63	1520.48
581.832	1395.71
582.034	1485.99
582.236	1427.48
582.438	1435.04
582.64	1497.81
582.841	1470.3
583.043	1509.63
583.245	1432.13
583.447	1455.38
583.649	1415.66
583.85	1464.87
584.052	1473.4
584.254	1377.88
584.456	1476.89
584.657	1351.92
584.859	1409.85
585.061	1413.53
585.262	1403.84
585.464	1333.9
585.666	1431.16
585.867	1367.03
586.069	1459.45
586.27	1376.14
586.472	1388.93
586.674	1370.71
586.875	1371.29
587.077	1356.57
587.278	1356.96
587.48	1350.76
587.681	1503.43
587.883	1382.14
588.084	1291.47
588.285	1332.93
588.487	1331.38
588.688	1355.79
588.89	1276.55
589.091	1253.5
589.292	1238.77
589.494	1233.35
589.695	1211.84
589.896	1157.2
590.098	1131.44
590.299	1204.48
590.5	1160.69
590.702	1207.19
590.903	1230.25
591.104	1293.6
591.305	1246.52
591.507	1322.86
591.708	1296.9
591.909	1273.45
592.11	1343.98
592.311	1325.38
592.512	1265.7
592.714	1204.48
592.915	1257.95
593.116	1213
593.317	1275.58
593.518	1243.23
593.719	1264.15
593.92	1287.98
594.121	1294.96
594.322	1262.02
594.523	1273.06
594.724	1218.43
594.925	1235.09
595.126	1271.32
595.327	1278.3
595.528	1263.76
595.729	1234.9
595.929	1253.3
596.13	1218.62
596.331	1257.37
596.532	1261.25
596.733	1341.84
596.934	1286.63
597.135	1269.58
597.335	1271.51
597.536	1191.3
597.737	1257.37
597.938	1222.69
598.138	1280.43
598.339	1223.85
598.54	1301.93
598.74	1217.07
598.941	1232.57
599.142	1303.87
599.342	1256.21
599.543	1193.82
599.744	1215.91
599.944	1212.62
600.145	1201.77
600.345	1230.63
600.546	1338.74
600.746	1295.93
600.947	1292.63
601.147	1243.23
601.348	1251.95
601.548	1201.57
601.749	1254.27
601.949	1201.77
602.15	1160.5
602.35	1211.07
602.551	1266.86
602.751	1175.22
602.951	1227.53
603.152	1145.77
603.352	1224.82
603.552	1190.14
603.753	1250.98
603.953	1233.15
604.153	1220.75
604.354	1209.32
604.554	1212.03
604.754	1223.08
604.954	1177.16
605.155	1217.27
605.355	1250.59
605.555	1248.07
605.755	1261.25
605.955	1211.84
606.155	1234.12
606.356	1222.5
606.556	1252.53
606.756	1234.51
606.956	1154.88
607.156	1252.91
607.356	1180.65
607.556	1208.16
607.756	1194.4
607.956	1236.06
608.156	1227.53
608.356	1147.71
608.556	1229.67
608.756	1186.46
608.956	1181.42
609.156	1190.53
609.356	1141.32
609.556	1129.5
609.755	1180.84
609.955	1149.84
610.155	1186.85
610.355	1176.19
610.555	1110.7
610.755	1176.58
610.954	1084.74
611.154	1154.88
611.354	1169.8
611.554	1126.2
611.753	1161.85
611.953	1090.75
612.153	1138.99
612.352	1166.5
612.552	1116.9
612.752	1101.6
612.951	1093.85
613.151	1129.69
613.351	1078.54
613.55	1142.48
613.75	1138.8
613.949	1114.97
614.149	1114.19
614.348	1078.54
614.548	1076.99
614.747	1039.02
614.947	1070.02
615.146	1031.85
615.346	1109.93
615.545	1123.1
615.745	1128.72
615.944	1128.14
616.144	1106.05
616.343	1106.44
616.542	1056.84
616.742	1063.04
616.941	1060.52
617.14	995.04
617.34	1073.7
617.539	1065.37
617.738	1013.64
617.938	1114.77
618.137	1041.92
618.336	1002.21
618.535	1088.62
618.734	1082.61
618.934	1027.39
619.133	1092.49
619.332	1093.27
619.531	1018.67
619.73	1058.39
619.929	1079.32
620.128	1068.86
620.328	1127.75
620.527	1028.56
620.726	1074.09
620.925	1087.07
621.124	1051.42
621.323	1059.36
621.522	1004.72
621.721	1003.95
621.92	1011.7
622.119	1080.09
622.318	1032.82
622.517	1007.05
622.715	1013.25
622.914	1012.86
623.113	1051.03
623.312	955.32
623.511	1052.97
623.71	975.28
623.909	987.67
624.107	1083.58
624.306	961.91
624.505	975.66
624.704	1007.24
624.902	987.09
625.101	1053.16
625.3	1003.76
625.499	997.94
625.697	958.81
625.896	955.13
626.095	986.51
626.293	937.88
626.492	937.69
626.69	1015.96
626.889	941.76
627.088	1032.24
627.286	965.98
627.485	951.25
627.683	955.13
627.882	992.32
628.08	902.43
628.279	944.66
628.477	1022.36
628.676	924.51
628.874	960.36
629.073	932.07
629.271	909.59
629.469	962.29
629.668	938.27
629.866	918.51
630.065	896.61
630.263	967.14
630.461	894.68
630.66	927.42
630.858	983.99
631.056	1008.79
631.254	1013.44
631.453	899.52
631.651	978.96
631.849	926.45
632.047	973.53
632.245	925.48
632.444	949.51
632.642	956.87
632.84	978.38
633.038	936.33
633.236	905.91
633.434	911.92
633.632	896.61
633.83	881.31
634.028	931.29
634.227	933.62
634.425	1001.62
634.623	921.8
634.821	948.54
635.019	911.73
635.216	881.11
635.414	952.8
635.612	918.12
635.81	894.48
636.008	992.91
636.206	914.05
636.404	934.39
636.602	883.63
636.8	891.96
636.997	958.03
637.195	943.5
637.393	929.36
637.591	967.14
637.789	917.15
637.986	918.31
638.184	934.2
638.382	925.09
638.58	946.99
638.777	972.56
638.975	893.13
639.173	916.38
639.37	900.68
639.568	951.44
639.765	944.08
639.963	903.2
640.161	970.63
640.358	920.25
640.556	891.19
640.753	851.86
640.951	875.11
641.148	896.42
641.346	875.11
641.543	872.59
641.741	911.73
641.938	872.59
642.136	878.21
642.333	857.86
642.531	897.19
642.728	914.44
642.925	882.08
643.123	839.07
643.32	886.93
643.517	861.16
643.715	856.7
643.912	817.56
644.109	870.65
644.306	865.23
644.504	822.21
644.701	866.39
644.898	889.45
645.095	838.1
645.293	844.69
645.49	864.06
645.687	865.81
645.884	921.8
646.081	812.14
646.278	828.03
646.475	832.68
646.672	835.58
646.87	849.73
647.067	812.91
647.264	843.53
647.461	770.87
647.658	768.93
647.855	870.85
648.052	810.98
648.249	750.33
648.446	806.72
648.642	780.95
648.839	757.31
649.036	795.67
649.233	741.23
649.43	775.91
649.627	739.48
649.824	775.72
650.021	767.19
650.217	732.51
650.414	774.75
650.611	796.25
650.808	795.67
651.004	800.13
651.201	786.37
651.398	856.12
651.595	776.1
651.791	793.15
651.988	818.34
652.185	800.52
652.381	810.98
652.578	718.56
652.775	775.33
652.971	770.68
653.168	768.16
653.364	794.7
653.561	711
653.757	763.9
653.954	778.23
654.15	737.55
654.347	838.88
654.543	747.23
654.74	731.15
654.936	725.92
655.133	752.27
655.329	762.54
655.525	731.54
655.722	791.8
655.918	721.27
656.115	771.45
656.311	659.85
656.507	616.65
656.704	610.45
656.9	639.7
657.096	646.1
657.292	651.91
657.489	725.15
657.685	697.25
657.881	654.24
658.077	690.27
658.273	716.82
658.47	751.3
658.666	714.1
658.862	750.72
659.058	699.77
659.254	769.13
659.45	726.31
659.646	753.05
659.842	717.98
660.038	786.37
660.234	702.48
660.43	708.87
660.626	793.54
660.822	778.62
661.018	773.78
661.214	752.66
661.41	714.69
661.606	746.85
661.802	776.49
661.998	749.17
662.194	732.9
662.39	733.28
662.586	730.77
662.781	747.04
662.977	785.4
663.173	758.67
663.369	738.71
663.564	741.03
663.76	753.82
663.956	719.92
664.152	792.18
664.347	664.31
664.543	728.83
664.739	706.74
664.934	679.23
665.13	660.63
665.326	773.78
665.521	752.08
665.717	694.54
665.912	693.57
666.108	649.39
666.304	705
666.499	687.56
666.695	629.63
666.89	705.58
667.086	726.5
667.281	740.07
667.477	765.06
667.672	704.03
667.867	715.65
668.063	715.27
668.258	688.14
668.454	739.48
668.649	767.77
668.844	708.1
669.04	734.25
669.235	716.43
669.43	694.15
669.626	642.61
669.821	698.02
670.016	659.47
670.211	710.42
670.407	671.29
670.602	711.59
670.797	669.93
670.992	733.28
671.187	680
671.382	713.33
671.578	670.12
671.773	712.94
671.968	676.32
672.163	718.17
672.358	683.88
672.553	680.97
672.748	689.3
672.943	766.42
673.138	707.52
673.333	738.52
673.528	638.15
673.723	722.43
673.918	671.48
674.113	650.55
674.308	759.05
674.503	718.56
674.698	727.08
674.892	726.5
675.087	697.83
675.282	708.1
675.477	631.96
675.672	700.35
675.867	659.66
676.061	666.25
676.256	629.63
676.451	649.97
676.646	697.64
676.84	636.02
677.035	612.58
677.23	650.36
677.424	709.07
677.619	739.48
677.814	718.17
678.008	711.39
678.203	648.04
678.397	639.51
678.592	697.83
678.787	737.35
678.981	689.3
679.176	698.41
679.37	707.52
679.565	648.04
679.759	661.21
679.954	705.58
680.148	743.36
680.342	732.7
680.537	717.98
680.731	664.7
680.926	674.39
681.12	708.68
681.314	645.52
681.509	676.71
681.703	675.35
681.897	715.65
682.092	655.79
682.286	666.25
682.48	734.06
682.674	738.32
682.869	704.22
683.063	650.94
683.257	759.44
683.451	653.27
683.645	694.54
683.839	692.4
684.034	639.9
684.228	712.36
684.422	615.1
684.616	632.34
684.81	672.84
685.004	643
685.198	656.37
685.392	708.87
685.586	652.1
685.78	657.34
685.974	654.62
686.168	694.54
686.362	753.43
686.556	619.94
686.75	623.04
686.944	612.39
687.138	652.3
687.331	547.48
687.525	603.67
687.719	511.06
687.913	597.08
688.107	591.85
688.301	584.68
688.494	594.56
688.688	530.43
688.882	501.37
689.076	539.15
689.269	581.39
689.463	653.46
689.657	563.56
689.85	562.59
690.044	607.54
690.238	563.95
690.431	607.16
690.625	564.72
690.818	602.51
691.012	609.09
691.205	592.24
691.399	567.24
691.593	614.32
691.786	667.99
691.98	656.75
692.173	672.84
692.366	655.98
692.56	653.46
692.753	708.68
692.947	596.31
693.14	665.86
693.333	649.59
693.527	599.41
693.72	666.44
693.914	665.09
694.107	625.37
694.3	680
694.493	657.72
694.687	698.02
694.88	649
695.073	732.32
695.266	731.35
695.46	672.06
695.653	728.25
695.846	742
696.039	650.17
696.232	658.5
696.425	731.73
696.618	723.98
696.812	696.67
697.005	784.63
697.198	863.1
697.391	768.55
697.584	801.68
697.777	842.17
697.97	843.14
698.163	844.11
698.356	853.02
698.549	906.11
698.742	856.12
698.935	833.45
699.127	891
699.32	850.89
699.513	829.77
699.706	900.88
699.899	894.68
700.092	882.66
700.285	926.06
700.477	868.13
700.67	921.03
700.863	968.3
701.056	1055.87
701.248	994.65
701.441	1046.38
701.634	990.77
701.826	1093.27
702.019	980.12
702.212	1026.04
702.404	993.49
702.597	1007.63
702.79	1029.14
702.982	1052.97
703.175	1123.3
703.367	1082.8
703.56	1134.92
703.752	1233.73
703.945	1180.65
704.137	1213.78
704.33	1196.15
704.522	1216.49
704.715	1227.92
704.907	1248.26
705.1	1307.94
705.292	1312.78
705.484	1294.76
705.677	1314.33
705.869	1324.21
706.061	1386.02
706.254	1410.24
706.446	1370.33
706.638	1379.43
706.831	1454.02
707.023	1385.44
707.215	1503.04
707.407	1513.89
707.599	1490.64
707.792	1544.12
707.984	1492.77
708.176	1575.5
708.368	1510.4
708.56	1586.55
708.752	1601.85
708.944	1534.43
709.136	1637.5
709.329	1609.02
709.521	1734.96
709.713	1663.27
709.905	1702.99
710.097	1778.94
710.289	1710.35
710.481	1705.7
710.672	1739.22
710.864	1758.98
711.056	1831.06
711.248	1813.23
711.44	1857.79
711.632	1870.77
711.824	1845.98
712.016	1951.18
712.207	1937.04
712.399	1958.54
712.591	1978.3
712.783	1935.29
712.975	1993.03
713.166	1958.15
713.358	2003.69
713.55	2090.87
713.741	2094.75
713.933	2080.8
714.125	2105.6
714.316	2030.04
714.508	2165.27
714.7	2154.61
714.891	2182.71
715.083	2216.03
715.274	2183.87
715.466	2203.44
715.657	2265.05
715.849	2145.12
716.04	2194.72
716.232	2182.51
716.423	2282.1
716.615	2181.16
716.806	2166.63
716.998	2178.83
717.189	2130.2
717.381	2063.17
717.572	2003.69
717.763	2064.52
717.955	2029.65
718.146	1999.23
718.337	1977.14
718.528	1949.63
718.72	1866.71
718.911	1962.22
719.102	1891.51
719.293	1955.05
719.485	1968.04
719.676	1932.39
719.867	1952.92
720.058	1907.78
720.249	1957.57
720.44	1939.17
720.632	2045.92
720.823	2030.62
721.014	2172.83
721.205	2196.27
721.396	2290.43
721.587	2376.65
721.778	2391.37
721.969	2446.2
722.16	2476.04
722.351	2526.42
722.542	2649.25
722.733	2673.66
722.924	2572.72
723.115	2650.41
723.305	2629.68
723.496	2652.93
723.687	2518.47
723.878	2567.49
724.069	2562.06
724.26	2570.59
724.45	2528.93
724.641	2488.83
724.832	2603.14
725.023	2558.19
725.213	2537.46
725.404	2530.87
725.595	2556.64
725.785	2567.68
725.976	2605.85
726.167	2611.08
726.357	2598.88
726.548	2729.08
726.739	2612.25
726.929	2733.53
727.12	2743.02
727.31	2796.69
727.501	2745.35
727.691	2770.73
727.882	2767.82
728.072	2795.34
728.263	2795.34
728.453	2832.54
728.644	2912.36
728.834	2857.53
729.024	2833.12
729.215	2821.69
729.405	2874
729.596	2957.31
729.786	2970.29
729.976	2959.05
730.167	3014.27
730.357	2960.02
730.547	2998.38
730.737	3049.34
730.928	3096.61
731.118	3115.41
731.308	3074.91
731.498	3087.31
731.688	3169.27
731.879	3201.43
732.069	3211.51
732.259	3249.67
732.449	3298.69
732.639	3382.58
732.829	3397.7
733.019	3411.07
733.209	3506.39
733.399	3506.58
733.589	3581.95
733.779	3578.46
733.969	3586.99
734.159	3700.91
734.349	3698
734.539	3745.09
734.729	3771.05
734.919	3812.12
735.109	3833.82
735.299	3761.55
735.488	3786.35
735.678	3790.62
735.868	3806.12
736.058	3813.67
736.248	3774.54
736.437	3787.32
736.627	3730.94
736.817	3884.2
737.007	3824.72
737.196	3864.63
737.386	3876.83
737.576	3837.5
737.765	3946.39
737.955	3906.86
738.144	4089.96
738.334	3983.59
738.524	3934.57
738.713	3996.76
738.903	3960.34
739.092	4005.48
739.282	4020.79
739.471	4018.27
739.661	3986.88
739.85	4065.93
740.04	4094.02
740.229	4089.57
740.419	4150.02
740.608	4134.13
740.797	4104.29
740.987	4186.64
741.176	4153.89
741.365	4132.77
741.555	4039.39
741.744	4158.74
741.933	4131.61
742.123	4177.53
742.312	4140.72
742.501	4230.81
742.69	4268.2
742.88	4139.17
743.069	4308.31
743.258	4209.5
743.447	4259.1
743.636	4276.34
743.825	4255.22
744.014	4251.93
744.204	4314.7
744.393	4225
744.582	4360.23
744.771	4398.01
744.96	4281.18
745.149	4345.31
745.338	4299.78
745.527	4333.3
745.716	4315.28
745.905	4275.57
746.094	4378.83
746.283	4324.78
746.471	4343.38
746.66	4428.43
746.849	4421.84
747.038	4413.32
747.227	4398.98
747.416	4454.59
747.604	4339.5
747.793	4327.88
747.982	4362.17
748.171	4418.55
748.359	4426.11
748.548	4415.64
748.737	4403.44
748.926	4376.51
749.114	4299.78
749.303	4348.03
749.491	4373.21
749.68	4299.59
749.869	4421.26
750.057	4316.64
750.246	4337.56
750.434	4358.49
750.623	4352.48
750.811	4361.4
751	4380.58
751.188	4329.81
751.377	4361.78
751.565	4328.26
751.754	4286.8
751.942	4318.19
752.131	4346.09
752.319	4313.35
752.507	4279.83
752.696	4344.35
752.884	4374.57
753.072	4305.98
753.261	4293.97
753.449	4331.95
753.637	4289.13
753.825	4394.91
754.014	4316.45
754.202	4323.03
754.39	4383.87
754.578	4295.13
754.766	4283.32
754.955	4233.72
755.143	4354.03
755.331	4290.68
755.519	4281.57
755.707	4269.56
755.895	4263.75
756.083	4303.46
756.271	4218.41
756.459	4243.4
756.647	4321.48
756.835	4231
757.023	4215.7
757.211	4216.67
757.399	4224.22
757.587	4186.64
757.775	4151.57
757.963	4181.4
758.151	4218.41
758.339	4122.12
758.526	4158.54
758.714	4189.74
758.902	4092.67
759.09	4065.54
759.278	3823.94
759.465	3613.14
759.653	3227.39
759.841	3015.24
760.028	2655.45
760.216	2328.02
760.404	2163.14
760.591	1900.22
760.779	1613.48
760.967	1451.51
761.154	1273.65
761.342	1312.4
761.529	1353.08
761.717	1393.96
761.905	1438.52
762.092	1540.63
762.28	1557.87
762.467	1541.6
762.655	1471.85
762.842	1521.45
763.029	1578.41
763.217	1572.21
763.404	1601.66
763.592	1665.02
763.779	1591.97
763.966	1662.5
764.154	1700.28
764.341	1775.26
764.528	1733.8
764.716	1850.43
764.903	1855.08
765.09	2001.36
765.277	2050.38
765.465	2189.88
765.652	2269.7
765.839	2309.42
766.026	2445.43
766.213	2514.98
766.4	2576.6
766.588	2759.88
766.775	2793.4
766.962	2905.19
767.149	2964.87
767.336	3113.28
767.523	3060.19
767.71	3213.44
767.897	3323.69
768.084	3432.57
768.271	3461.25
768.458	3452.72
768.645	3572.07
768.832	3498.64
769.019	3579.04
769.206	3562.58
769.392	3653.06
769.579	3758.84
769.766	3702.85
769.953	3687.74
770.14	3773.37
770.327	3685.61
770.513	3821.42
770.7	3803.21
770.887	3735.4
771.073	3779.77
771.26	3786.74
771.447	3773.37
771.634	3716.99
771.82	3816.77
772.007	3685.22
772.193	3795.27
772.38	3780.35
772.567	3736.37
772.753	3736.75
772.94	3833.82
773.126	3796.82
773.313	3807.08
773.499	3764.46
773.686	3822
773.872	3729
774.059	3759.42
774.245	3686.96
774.432	3723.77
774.618	3658.09
774.804	3724.35
774.991	3660.22
775.177	3689.29
775.363	3659.84
775.55	3683.28
775.736	3623.61
775.922	3672.62
776.109	3687.35
776.295	3694.13
776.481	3686.38
776.667	3665.84
776.853	3646.08
777.04	3630.19
777.226	3633.29
777.412	3679.21
777.598	3602.68
777.784	3584.47
777.97	3594.74
778.156	3596.48
778.342	3592.8
778.528	3535.84
778.715	3517.24
778.901	3547.08
779.087	3573.23
779.272	3503.68
779.458	3504.06
779.644	3558.7
779.83	3529.64
780.016	3628.26
780.202	3544.36
780.388	3498.45
780.574	3394.4
780.76	3466.09
780.946	3515.5
781.131	3526.34
781.317	3416.68
781.503	3476.55
781.689	3427.92
781.874	3606.56
782.06	3410.87
782.246	3468.61
782.432	3445.16
782.617	3481.01
782.803	3505.23
782.989	3355.46
783.174	3387.82
783.36	3348.87
783.545	3392.27
783.731	3365.34
783.916	3270.21
784.102	3341.32
784.288	3333.37
784.473	3365.34
784.659	3289
784.844	3381.42
785.029	3317.1
785.215	3302.57
785.4	3241.73
785.586	3354.1
785.771	3229.52
785.956	3308.96
786.142	3265.75
786.327	3263.24
786.512	3250.64
786.698	3231.85
786.883	3197.17
787.068	3238.63
787.254	3212.28
787.439	3189.81
787.624	3190
787.809	3155.51
787.994	3199.69
788.18	3266.92
788.365	3107.66
788.55	3153.38
788.735	3164.81
788.92	3158.61
789.105	3159.19
789.29	3146.99
789.475	3128.19
789.66	3138.66
789.845	3099.91
790.03	3055.35
790.215	3158.61
790.4	3150.48
790.585	3132.84
790.77	3070.85
790.955	2994.12
791.14	3086.15
791.325	3163.07
791.51	3012.91
791.695	3007.68
791.879	3039.07
792.064	3002.26
792.249	3088.28
792.434	3015.82
792.618	3029
792.803	3075.11
792.988	2984.43
793.173	3053.6
793.357	3086.15
793.542	2958.47
793.727	3026.86
793.911	3025.9
794.096	3005.55
794.281	3078.98
794.465	3109.21
794.65	3041.2
794.834	3096.81
795.019	3103.01
795.203	3095.64
795.388	3097.39
795.572	3138.27
795.757	3113.86
795.941	3117.15
796.126	3082.08
796.31	3059.41
796.494	3104.36
796.679	3012.91
796.863	3051.66
797.048	3146.6
797.232	3078.98
797.416	3049.15
797.601	3084.6
797.785	3156.29
797.969	3154.54
798.153	3057.28
798.338	3099.13
798.522	3155.51
798.706	3120.64
798.89	3110.56
799.074	3227.59
799.258	3185.93
799.443	3135.17
799.627	3119.48
799.811	3184.19
799.995	3114.44
800.179	3102.04
800.363	3073.95
800.547	3125.68
800.731	3183.99
800.915	3059.8
801.099	3085.38
801.283	3130.52
801.467	3117.34
801.651	3084.6
801.835	3130.13
802.019	3111.73
802.202	3125.48
802.386	3038.68
802.57	3049.53
802.754	3055.35
802.938	3051.47
803.121	3034.23
803.305	3125.87
803.489	3055.73
803.673	3080.73
803.856	3078.98
804.04	3093.32
804.224	3125.68
804.407	3106.11
804.591	3077.24
804.775	3081.31
804.958	3103.39
805.142	3183.41
805.326	3059.8
805.509	3078.6
805.693	3144.28
805.876	3132.26
806.06	3075.5
806.243	3126.64
806.427	3152.8
806.61	3131.29
806.794	3064.84
806.977	3088.86
807.16	3088.67
807.344	3100.1
807.527	3091.58
807.71	3102.81
807.894	3088.86
808.077	3095.45
808.26	3049.73
808.444	3052.44
808.627	3117.34
808.81	3025.51
808.993	2949.37
809.177	2961.38
809.36	3004.2
809.543	3009.43
809.726	2930.38
809.909	2909.07
810.092	2943.55
810.276	2916.62
810.459	2957.12
810.642	2928.44
810.825	2856.56
811.008	2900.93
811.191	2802.51
811.374	2851.33
811.557	2845.13
811.74	2931.35
811.923	2777.32
812.106	2795.53
812.289	2723.46
812.472	2750.58
812.654	2783.71
812.837	2764.34
813.02	2677.34
813.203	2630.65
813.386	2549.86
813.569	2501.42
813.751	2476.62
813.934	2516.73
814.117	2515.37
814.3	2443.49
814.482	2405.32
814.665	2351.07
814.848	2347.2
815.03	2265.83
815.213	2263.11
815.396	2210.22
815.578	2227.46
815.761	2176.51
815.943	2230.95
816.126	2153.84
816.309	2135.05
816.491	2031.78
816.674	1993.61
816.856	2020.74
817.039	2042.24
817.221	2130.98
817.403	2062.97
817.586	2037.98
817.768	2118.77
817.951	1965.71
818.133	1958.54
818.315	2010.66
818.498	2037.01
818.68	2086.42
818.862	2067.23
819.045	2121.68
819.227	2057.74
819.409	2075.76
819.591	2070.92
819.774	2040.88
819.956	2022.29
820.138	2092.62
820.32	2083.32
820.502	2134.85
820.684	2154.81
820.866	2177.09
821.048	2280.55
821.231	2260.59
821.413	2253.81
821.595	2241.41
821.777	2248.97
821.959	2210.8
822.141	2313.1
822.323	2181.35
822.505	2117.42
822.686	2046.89
822.868	1995.74
823.05	1890.54
823.232	1827.18
823.414	1755.5
823.596	1848.88
823.778	1813.43
823.96	1880.27
824.141	1889.57
824.323	1885.5
824.505	1977.72
824.687	1991.67
824.868	2045.73
825.05	2134.85
825.232	2178.25
825.413	2243.35
825.595	2212.74
825.777	2131.75
825.958	2175.54
826.14	2167.01
826.321	2168.76
826.503	2189.88
826.685	2202.28
826.866	2193.75
827.048	2172.25
827.229	2155
827.411	2119.74
827.592	2061.03
827.773	2085.45
827.955	2032.55
828.136	2009.69
828.318	1993.8
828.499	2018.41
828.68	1928.51
828.862	1973.07
829.043	2043.21
829.224	1956.8
829.406	1883.76
829.587	1967.84
829.768	1979.85
829.949	1976.75
830.131	1971.33
830.312	1985.47
830.493	1965.52
830.674	1991.09
830.855	1945.95
831.036	1945.56
831.218	2062.39
831.399	2052.7
831.58	1984.5
831.761	2010.27
831.942	1989.54
832.123	1976.56
832.304	1927.74
832.485	1959.12
832.666	1985.47
832.847	1956.8
833.028	1996.13
833.209	1958.15
833.389	1926.96
833.57	1857.99
833.751	1905.26
833.932	1973.65
834.113	1939.17
834.294	1963.77
834.475	1985.28
834.655	2004.27
834.836	2009.3
835.017	1978.11
835.198	1937.62
835.378	1978.11
835.559	2010.27
835.74	1962.61
835.92	1995.35
836.101	1948.66
836.281	1960.48
836.462	1984.7
836.643	2012.79
836.823	1984.89
837.004	2012.21
837.184	2066.07
837.365	2056.58
837.545	2003.69
837.726	1990.9
837.906	2036.62
838.087	2035.85
838.267	1987.99
838.448	1983.34
838.628	1998.07
838.808	2006.01
838.989	2056
839.169	1937.62
839.349	2029.65
839.53	2051.93
839.71	2017.25
839.89	1997.49
840.07	2022.09
840.251	1978.11
840.431	2066.85
840.611	1976.95
840.791	1953.5
840.971	2023.64
841.151	1987.02
841.332	1910.49
841.512	2004.27
841.692	1908.17
841.872	2002.52
842.052	1963.97
842.232	1959.9
842.412	1897.9
842.592	1976.95
842.772	1976.56
842.952	1961.45
843.132	1923.67
843.312	1939.56
843.492	1888.99
843.672	1945.56
843.851	1870.58
844.031	1921.73
844.211	1888.02
844.391	1895.77
844.571	1920.76
844.751	1920.76
844.93	1921.92
845.11	1901.97
845.29	1942.27
845.47	1936.46
845.649	1911.85
845.829	1921.92
846.009	1868.64
846.188	1902.16
846.368	1856.24
846.547	1875.42
846.727	1917.86
846.907	1814.78
847.086	1883.56
847.266	1960.29
847.445	1853.92
847.625	1853.34
847.804	1877.94
847.984	1875.42
848.163	1813.81
848.343	1836.09
848.522	1887.44
848.701	1844.81
848.881	1820.4
849.06	1871.94
849.239	1838.61
849.419	1855.66
849.598	1757.63
849.777	1751.43
849.957	1732.25
850.136	1737.28
850.315	1692.91
850.494	1665.79
850.674	1659.98
850.853	1763.63
851.032	1691.56
851.211	1774.68
851.39	1736.9
851.569	1665.98
851.748	1682.84
851.927	1737.09
852.107	1694.27
852.286	1701.25
852.465	1663.27
852.644	1763.63
852.823	1740.58
853.002	1673.73
853.181	1697.76
853.359	1723.33
853.538	1638.86
853.717	1725.66
853.896	1599.14
854.075	1532.1
854.254	1508.66
854.433	1439.11
854.611	1499.56
854.79	1429.42
854.969	1474.76
855.148	1527.65
855.327	1467.97
855.505	1524.55
855.684	1516.02
855.863	1546.83
856.041	1513.31
856.22	1568.14
856.399	1541.79
856.577	1659.01
856.756	1624.33
856.934	1762.08
857.113	1754.33
857.291	1646.8
857.47	1579.19
857.648	1655.13
857.827	1670.44
858.005	1715.78
858.184	1618.32
858.362	1707.06
858.541	1597.01
858.719	1593.33
858.898	1624.91
859.076	1584.8
859.254	1694.85
859.433	1604.18
859.611	1590.81
859.789	1526.29
859.967	1687.3
860.146	1659.59
860.324	1552.45
860.502	1583.06
860.68	1524.55
860.859	1525.9
861.037	1550.51
861.215	1565.62
861.393	1574.92
861.571	1562.14
861.749	1566.4
861.927	1578.6
862.105	1559.04
862.283	1543.34
862.461	1534.82
862.639	1508.08
862.817	1521.06
862.995	1563.88
863.173	1522.22
863.351	1570.08
863.529	1523.97
863.707	1568.72
863.885	1549.93
864.063	1446.47
864.241	1488.71
864.418	1574.15
864.596	1493.36
864.774	1438.72
864.952	1499.36
865.129	1535.79
865.307	1503.04
865.485	1421.47
865.663	1503.62
865.84	1390.67
866.018	1406.75
866.196	1294.96
866.373	1350.18
866.551	1278.3
866.728	1222.88
866.906	1282.36
867.084	1289.92
867.261	1373.23
867.439	1357.54
867.616	1382.34
867.794	1351.34
867.971	1395.13
868.149	1352.31
868.326	1439.88
868.503	1429.22
868.681	1378.08
868.858	1397.84
869.035	1360.06
869.213	1380.79
869.39	1377.69
869.567	1486.19
869.745	1384.66
869.922	1395.13
870.099	1381.37
870.276	1429.42
870.454	1402.29
870.631	1439.3
870.808	1343.98
870.985	1426.9
871.162	1465.65
871.339	1401.33
871.517	1339.52
871.694	1306.97
871.871	1361.41
872.048	1360.83
872.225	1341.84
872.402	1366.45
872.579	1306.58
872.756	1391.44
872.933	1308.13
873.11	1330.8
873.287	1350.95
873.463	1331.38
873.64	1273.06
873.817	1335.06
873.994	1330.22
874.171	1300.38
874.348	1337.58
874.524	1241.48
874.701	1323.63
874.878	1251.56
875.055	1300.19
875.231	1249.04
875.408	1340.68
875.585	1225.6
875.762	1279.65
875.938	1294.76
876.115	1257.56
876.291	1231.22
876.468	1230.05
876.645	1202.54
876.821	1224.05
876.998	1231.8
877.174	1249.23
877.351	1222.3
877.527	1268.03
877.704	1264.54
877.88	1245.16
878.057	1207
878.233	1266.28
878.409	1231.22
878.586	1265.31
878.762	1219.2
878.938	1209.71
879.115	1141.51
879.291	1224.63
879.467	1138.41
879.644	1191.3
879.82	1221.72
879.996	1186.46
880.172	1137.05
880.349	1214.17
880.525	1220.37
880.701	1153.14
880.877	1133.37
881.053	1201.96
881.229	1148.87
881.405	1196.15
881.581	1137.64
881.757	1113.03
881.933	1165.15
882.109	1170.96
882.285	1147.9
882.461	1096.56
882.637	1183.36
882.813	1108.96
882.989	1149.26
883.165	1202.15
883.341	1142.09
883.517	1191.88
883.693	1205.83
883.869	1174.64
884.044	1108.77
884.22	1201.18
884.396	1209.32
884.572	1190.72
884.747	1223.66
884.923	1205.45
885.099	1199.83
885.275	1240.9
885.45	1137.44
885.626	1146.16
885.801	1121.55
885.977	1141.7
886.153	1073.12
886.328	1146.35
886.504	1087.07
886.679	1186.85
886.855	1164.18
887.03	1160.5
887.206	1176
887.381	1210.68
887.557	1167.08
887.732	1170.38
887.908	1198.86
888.083	1161.85
888.258	1117.49
888.434	1135.31
888.609	1130.85
888.784	1225.02
888.96	1129.11
889.135	1113.22
889.31	1096.95
889.485	1176
889.661	1177.74
889.836	1172.7
890.011	1172.9
890.186	1122.72
890.361	1099.08
890.537	1152.36
890.712	1169.22
890.887	1152.36
891.062	1156.82
891.237	1199.44
891.412	1111.09
891.587	1147.71
891.762	1208.55
891.937	1183.36
892.112	1092.3
892.287	1126.59
892.462	1112.25
892.637	1065.17
892.812	1055.68
892.987	1086.1
893.161	1068.27
893.336	1087.84
893.511	1068.27
893.686	1077.57
893.861	1074.28
894.035	1082.8
894.21	1083.58
894.385	1004.92
894.56	1066.92
894.734	995.81
894.909	976.44
895.084	1037.47
895.258	1015.96
895.433	1035.34
895.608	990.39
895.782	945.05
895.957	940.59
896.131	1012.86
896.306	877.24
896.48	892.55
896.655	868.13
896.829	820.28
897.004	806.91
897.178	827.06
897.353	833.65
897.527	901.84
897.701	832.87
897.876	798.19
898.05	896.23
898.224	872.4
898.399	912.31
898.573	810.2
898.747	713.72
898.921	791.8
899.096	698.41
899.27	708.49
899.444	695.5
899.618	721.66
899.792	747.43
899.967	740.26
900.141	810.01
900.315	728.25
900.489	742.78
900.663	735.61
900.837	739.1
901.011	688.34
901.185	807.1
901.359	720.5
901.533	772.42
901.707	748.98
901.881	794.7
902.055	678.65
902.229	727.67
902.403	804.58
902.576	750.92
902.75	746.07
902.924	848.56
903.098	805.94
903.272	830.35
903.446	880.92
903.619	868.71
903.793	879.18
903.967	861.16
904.14	909.79
904.314	928.39
904.488	883.25
904.661	905.33
904.835	884.99
905.009	943.89
905.182	956.48
905.356	919.28
905.529	908.04
905.703	889.25
905.876	848.76
906.05	829
906.223	826.86
906.397	741.23
906.57	723.02
906.744	741.62
906.917	731.73
907.09	741.62
907.264	724.95
907.437	698.8
907.61	670.9
907.784	709.26
907.957	676.32
908.13	689.5
908.304	704.22
908.477	629.24
908.65	676.32
908.823	660.63
908.996	711.2
909.17	663.73
909.343	645.9
909.516	668.77
909.689	670.12
909.862	646.49
910.035	650.75
910.208	619.56
910.381	627.31
910.554	699.57
910.727	667.99
910.9	652.3
911.073	622.46
911.246	690.66
911.419	683.1
911.592	690.08
911.765	618.97
911.938	630.6
912.11	658.11
912.283	671.48
912.456	727.47
912.629	667.6
912.802	619.94
912.974	631.57
913.147	589.52
913.32	521.91
913.493	530.82
913.665	530.82
913.838	564.92
914.01	554.07
914.183	581.97
914.356	593.4
914.528	633.7
914.701	670.32
914.873	643
915.046	591.27
915.218	550.97
915.391	460.68
915.563	506.99
915.736	530.43
915.908	586.62
916.081	549.42
916.253	566.27
916.425	580.03
916.598	593.79
916.77	574.61
916.942	549.42
917.115	503.89
917.287	579.06
917.459	529.27
917.632	513.19
917.804	479.48
917.976	546.12
918.148	510.67
918.32	531.59
918.493	563.95
918.665	612
918.837	566.08
919.009	640.67
919.181	612.58
919.353	582.36
919.525	543.41
919.697	585.65
919.869	586.23
920.041	657.14
920.213	692.6
920.385	611.81
920.557	564.14
920.729	617.04
920.901	624.01
921.073	603.67
921.244	557.75
921.416	617.42
921.588	576.74
921.76	553.68
921.932	619.94
922.103	583.13
922.275	584.49
922.447	574.99
922.619	514.35
922.79	549.61
922.962	504.47
923.134	577.51
923.305	511.25
923.477	502.92
923.648	517.84
923.82	542.83
923.991	479.86
924.163	452.74
924.335	520.94
924.506	498.85
924.677	592.04
924.849	492.26
925.02	509.7
925.192	533.73
925.363	538.96
925.535	509.89
925.706	459.52
925.877	535.86
926.049	469.59
926.22	520.55
926.391	522.68
926.562	533.73
926.734	466.3
926.905	538.38
927.076	437.24
927.247	486.45
927.419	405.08
927.59	425.81
927.761	435.11
927.932	416.7
928.103	432.4
928.274	362.84
928.445	391.32
928.616	408.18
928.787	377.56
928.958	426.2
929.129	400.23
929.3	365.36
929.471	320.02
929.642	271.78
929.813	254.73
929.984	350.25
930.155	238.07
930.326	305.68
930.496	269.07
930.667	200.29
930.838	276.04
931.009	211.72
931.18	244.65
931.35	234
931.521	247.56
931.692	177.23
931.863	126.08
932.033	170.45
932.204	190.21
932.374	192.54
932.545	114.46
932.716	208.62
932.886	192.54
933.057	103.41
933.227	100.89
933.398	211.14
933.568	132.86
933.739	66.02
933.909	90.82
934.08	130.92
934.25	25.91
934.421	77.45
934.591	101.09
934.761	62.14
934.932	61.18
935.102	119.3
935.272	71.64
935.443	92.76
935.613	77.84
935.783	109.42
935.953	57.3
936.123	224.7
936.294	41.41
936.464	89.46
936.634	83.46
936.804	58.08
936.974	19.52
937.144	85.39
937.314	107.87
937.484	85.39
937.655	44.13
937.825	126.47
937.995	61.95
938.165	136.74
938.334	81.52
938.504	116.2
938.674	115.62
938.844	116.39
939.014	162.31
939.184	161.92
939.354	193.51
939.524	216.17
939.694	134.41
939.863	167.93
940.033	225.47
940.203	199.7
940.373	164.64
940.542	159.41
940.712	144.1
940.882	206.29
941.051	203.39
941.221	157.08
941.391	188.27
941.56	132.28
941.73	125.5
941.899	258.6
942.069	134.22
942.238	188.08
942.408	155.72
942.577	169.48
942.747	122.59
942.916	94.89
943.086	115.23
943.255	161.73
943.425	163.28
943.594	117.56
943.763	35.41
943.933	94.89
944.102	53.04
944.271	98.76
944.441	117.36
944.61	91.01
944.779	130.92
944.948	213.46
945.117	80.55
945.287	94.11
945.456	62.73
945.625	82.1
945.794	117.56
945.963	102.25
946.132	130.92
946.301	102.06
946.47	132.28
946.639	46.64
946.808	99.73
946.977	117.17
947.146	152.24
947.315	108.64
947.484	138.09
947.653	98.76
947.822	66.99
947.991	71.25
948.16	152.43
948.329	144.29
948.498	110.97
948.666	125.31
948.835	161.34
949.004	93.92
949.173	62.14
949.341	106.71
949.51	128.21
949.679	174.91
949.847	129.57
950.016	203.19
950.185	169.29
950.353	102.64
950.522	108.26
950.69	147.01
950.859	91.79
951.028	174.13
951.196	85.01
951.365	97.41
951.533	88.69
951.701	151.07
951.87	136.35
952.038	61.56
952.207	110.39
952.375	182.66
952.543	59.04
952.712	118.33
952.88	86.94
953.048	164.06
953.217	101.86
953.385	120.66
953.553	145.46
953.721	65.44
953.89	133.64
954.058	56.53
954.226	69.12
954.394	100.31
954.562	53.23
954.73	110.58
954.898	106.32
955.067	133.25
955.235	101.86
955.403	129.76
955.571	177.42
955.739	111.36
955.907	66.79
956.075	85.59
956.243	60.79
956.41	102.25
956.578	60.59
956.746	61.76
956.914	62.34
957.082	134.99
957.25	135.38
957.418	82.68
957.585	120.46
957.753	162.31
957.921	96.83
958.089	103.99
958.256	127.82
958.424	131.51
958.592	128.21
958.759	88.3
958.927	129.76
959.095	84.81
959.262	121.82
959.43	122.01
959.597	100.31
959.765	102.83
959.932	52.65
960.1	139.45
960.267	112.32
960.435	115.42
960.602	138.48
960.77	77.64
960.937	45.48
961.104	109.61
961.272	45.29
961.439	112.32
961.606	111.94
961.774	153.01
961.941	95.47
962.108	134.8
962.275	115.42
962.443	156.69
962.61	98.38
962.777	179.17
962.944	144.1
963.111	129.96
963.278	145.84
963.446	121.04
963.613	140.03
963.78	134.99
963.947	152.62
964.114	115.23
964.281	214.62
964.448	128.6
964.615	94.11
964.782	140.22
964.949	157.27
965.116	138.67
965.282	187.69
965.449	107.09
965.616	80.16
965.783	154.76
965.95	122.98
966.117	70.67
966.283	120.27
966.45	137.12
966.617	133.64
966.784	172.77
966.95	135.77
967.117	168.12
967.284	101.67
967.45	115.62
967.617	178.59
967.784	153.59
967.95	206.1
968.117	117.17
968.283	166.57
968.45	233.8
968.616	140.81
968.783	180.33
968.949	141.39
969.116	174.32
969.282	168.71
969.449	144.68
969.615	130.34
969.781	109.61
969.948	117.17
970.114	107.68
970.28	200.29
970.447	139.45
970.613	187.5
970.779	108.64
970.945	152.62
971.112	126.86
971.278	119.49
971.444	128.02
971.61	185.95
971.776	144.1
971.942	161.15
972.108	176.26
972.275	129.18
972.441	157.66
972.607	208.04
972.773	120.85
972.939	159.02
973.105	125.11
973.271	94.5
973.437	106.13
973.602	87.33
973.768	135.19
973.934	130.73
974.1	127.05
974.266	40.44
974.432	132.86
974.598	114.46
974.763	159.21
974.929	96.63
975.095	159.21
975.261	90.24
975.426	88.69
975.592	130.92
975.758	192.73
975.923	82.88
976.089	101.28
976.255	167.93
976.42	152.62
976.586	160.37
976.751	130.34
976.917	227.99
977.082	146.42
977.248	82.88
977.413	75.32
977.579	97.6
977.744	134.8
977.91	63.89
978.075	95.28
978.24	157.66
978.406	113.87
978.571	113.87
978.736	121.24
978.902	157.47
979.067	123.56
979.232	68.34
979.397	133.25
979.563	200.09
979.728	84.04
979.893	114.46
980.058	69.51
980.223	162.7
980.388	134.99
980.554	149.14
980.719	90.82
980.884	119.3
981.049	163.28
981.214	89.66
981.379	129.57
981.544	89.46
981.709	98.57
981.874	97.79
982.039	112.91
982.204	124.92
982.368	105.93
982.533	96.44
982.698	103.61
982.863	194.47
983.028	110.39
983.193	130.54
983.357	132.86
983.522	124.72
983.687	85.78
983.852	113.68
984.016	100.12
984.181	112.71
984.346	172
984.51	122.01
984.675	101.86
984.839	122.98
985.004	132.47
985.168	144.87
985.333	114.07
985.498	109.81
985.662	144.87
985.827	107.09
985.991	108.64
986.155	114.65
986.32	152.04
986.484	164.64
986.649	123.76
986.813	64.66
986.977	109.42
987.142	136.16
987.306	84.81
987.47	101.48
987.634	103.03
987.799	122.4
987.963	112.32
988.127	139.06
988.291	168.32
988.455	135.96
988.62	82.29
988.784	130.34
988.948	138.87
989.112	89.46
989.276	113.68
989.44	87.33
989.604	86.17
989.768	116.78
989.932	174.13
990.096	58.46
990.26	64.66
990.424	65.44
990.588	101.09
990.752	153.59
990.915	128.79
991.079	95.66
991.243	92.18
991.407	117.17
991.571	102.83
991.734	140.42
991.898	153.4
992.062	192.73
992.226	111.16
992.389	72.22
992.553	47.61
992.717	75.9
992.88	83.84
993.044	112.13
993.207	93.34
993.371	103.99
993.535	105.16
993.698	120.46
993.862	126.27
994.025	122.4
994.189	111.36
994.352	116.2
994.515	111.55
994.679	129.57
994.842	61.56
995.006	114.84
995.169	47.23
995.332	54.2
995.496	148.75
995.659	23.39
995.822	74.74
995.985	75.51
996.149	157.27
996.312	83.46
996.475	146.23
996.638	88.69
996.801	127.24
996.964	148.56
997.128	55.17
997.291	92.76
997.454	99.54
997.617	34.05
997.78	121.24
997.943	64.47
998.106	105.54
998.269	48.58
998.432	86.94
998.595	75.51
998.758	47.61
998.92	45.09
999.083	37.15
999.246	91.4
999.409	25.33
999.572	19.52
999.735	66.99
999.897	88.3
1000.06	59.24
1000.223	102.06
1000.386	95.47
1000.548	84.62
1000.711	92.56
1000.874	122.98
1001.036	37.93
1001.199	118.14
1001.361	58.85
1001.524	60.01
1001.687	104.58
1001.849	68.54
1002.012	66.79
1002.174	78.61
1002.337	134.8
1002.499	82.68
1002.661	102.44
1002.824	26.88
1002.986	48.58
1003.149	82.1
1003.311	22.62
1003.473	144.49
1003.636	30.56
1003.798	65.83
1003.96	67.38
1004.123	72.03
1004.285	36.76
1004.447	52.84
1004.609	53.43
1004.771	109.81
1004.933	25.91
1005.096	24.17
1005.258	19.91
1005.42	73.77
1005.582	93.73
1005.744	72.99
1005.906	23.39
1006.068	66.79
1006.23	12.35
1006.392	-10.9
1006.554	48.19
1006.716	91.4
1006.878	80.74
1007.04	26.69
1007.202	51.29
1007.363	68.54
1007.525	39.67
1007.687	80.74
1007.849	93.14
1008.011	5.38
1008.172	11
1008.334	54.2
1008.496	69.31
1008.658	-7.8
1008.819	-6.83
1008.981	35.21
1009.143	49.16
1009.304	19.52
1009.466	78.42
1009.627	108.06
1009.789	142.16
1009.95	68.15
1010.112	24.94
1010.273	76.48
1010.435	34.83
1010.596	33.66
1010.758	43.35
1010.919	39.09
1011.081	-10.9
1011.242	30.76
1011.403	81.71
1011.565	20.88
1011.726	86.17
1011.887	16.61
1012.049	41.22
1012.21	69.7
1012.371	135.96
1012.532	-49.45
1012.693	39.28
1012.855	30.37
1013.016	52.65
1013.177	75.71
1013.338	44.13
1013.499	101.48
1013.66	76.68
1013.821	91.79
1013.982	45.48
1014.143	30.18
1014.304	24.36
1014.465	70.28
1014.626	81.91
1014.787	43.35
1014.948	152.82
1015.109	-58.37
1015.27	94.31
1015.431	37.34
1015.592	4.6
1015.752	86.75
1015.913	62.14
1016.074	59.82
1016.235	36.38
1016.395	69.31
1016.556	23.59
1016.717	24.56
1016.877	112.71
1017.038	2.47
1017.199	39.09
1017.359	30.76
1017.52	41.03
1017.681	5.96
1017.841	64.86
1018.002	48.97
1018.162	18.94
1018.323	88.11
1018.483	41.61
1018.644	16.03
1018.804	-6.64
1018.964	-13.42
1019.125	27.85
1019.285	66.99
1019.446	-8.38
1019.606	24.36
1019.766	-8.77
1019.926	44.51
1020.087	55.75
1020.247	-13.61
1020.407	58.66
1020.567	83.26
1020.728	29.4
1020.888	-23.69
1021.048	15.84
1021.208	25.14
1021.368	8.28
1021.528	89.08
1021.688	71.64
1021.848	56.33
1022.008	48.97
1022.168	34.44
1022.328	36.38
1022.488	56.72
1022.648	25.14
1022.808	48.19
1022.968	45.09
1023.128	16.81
1023.288	7.7
1023.448	64.28
1023.608	36.57
1023.767	29.4
1023.927	6.54
1024.087	-6.83
1024.247	-11.09
1024.406	19.71
1024.566	-17.29
1024.726	-20.78
1024.885	24.75
1025.045	57.11
1025.205	20.68
1025.364	23.78
1025.524	23.59
1025.683	15.65
1025.843	59.63
1026.003	47.42
1026.162	67.96
1026.321	73.96
1026.481	17.97
1026.64	19.71
1026.8	34.44
1026.959	22.81
1027.119	13.71
1027.278	-10.32
1027.437	12.93
1027.597	38.12
1027.756	38.7
1027.915	61.76
1028.074	24.17
1028.234	18.75
1028.393	26.88
1028.552	25.33
1028.711	-60.69
1028.87	39.09
1029.03	-38.02
1029.189	45.09
1029.348	-56.62
1029.507	21.26
1029.666	4.41
1029.825	-22.33
1029.984	-3.73
1030.143	48.39
1030.302	13.71
1030.461	-38.41
1030.62	42.19
1030.779	35.6
1030.938	11.96
1031.097	-12.64
1031.255	34.44
1031.414	107.09
1031.573	65.63
1031.732	-44.61
1031.891	23.39
1032.049	73.38
1032.208	24.17
1032.367	-1.6
1032.525	-15.16
1032.684	35.02
1032.843	15.26
1033.001	-49.07
1033.16	181.11
1033.319	49.16
1033.477	45.68
1033.636	-8.96
1033.794	-60.3
1033.953	63.5
1034.111	35.02
1034.27	31.73
1034.428	30.76
1034.587	7.31
1034.745	62.14
1034.903	25.91
1035.062	44.71
1035.22	-9.54
1035.378	48.97
1035.537	-15.35
1035.695	32.11
1035.853	-5.47
1036.011	47.23
1036.17	25.72
1036.328	-51.59
1036.486	33.66
1036.644	28.04
1036.802	-78.71
1036.96	12.35
1037.119	-13.61
1037.277	5.76
1037.435	-34.34
1037.593	-34.54
1037.751	23.2
1037.909	53.43
1038.067	53.43
