Data from gum_old_FLMT105791__160__15-47-47-250.txt Node

Date: Mon Mar 20 15:47:47 GMT 2023
User: antho
Spectrometer: FLMT10579
Trigger mode: 0
Integration Time (sec): 1.000000E-1
Scans to average: 10
Electric dark correction enabled: true
Nonlinearity correction enabled: false
Boxcar width: 0
XAxis mode: Wavelengths
Number of Pixels in Spectrum: 3648
>>>>>Begin Spectral Data<<<<<
345.248	-174.58
345.464	-174.58
345.681	-174.58
345.898	-194.54
346.114	-182.53
346.331	-25.01
346.548	36.21
346.764	-1.37
346.981	-7.57
347.197	-3.5
347.414	13.74
347.631	-24.23
347.847	66.63
348.064	-24.04
348.28	30.98
348.497	-52.52
348.713	-9.32
348.93	19.75
349.146	55.01
349.363	24.78
349.579	11.61
349.796	26.33
350.012	5.6
350.229	61.01
350.445	-8.15
350.661	-3.12
350.878	37.96
351.094	21.49
351.311	28.66
351.527	41.45
351.743	1.34
351.96	58.5
352.176	47.06
352.392	43.58
352.609	52.88
352.825	1.92
353.041	17.03
353.257	46.48
353.474	12.19
353.69	40.09
353.906	38.35
354.122	1.73
354.339	64.5
354.555	6.38
354.771	6.96
354.987	79.42
355.203	102.48
355.42	3.47
355.636	15.1
355.852	-1.95
356.068	41.25
356.284	-10.28
356.5	102.86
356.716	24.2
356.932	24.01
357.148	66.83
357.364	25.17
357.58	77.87
357.796	59.27
358.012	83.68
358.228	55.01
358.444	-39.54
358.66	47.84
358.876	58.3
359.092	5.6
359.308	38.73
359.524	29.43
359.74	16.65
359.956	27.3
360.172	28.08
360.388	83.49
360.604	0.76
360.819	104.99
361.035	45.71
361.251	52.3
361.467	26.14
361.683	72.83
361.898	41.25
362.114	67.02
362.33	45.13
362.546	85.23
362.762	54.81
362.977	41.25
363.193	5.99
363.409	86.01
363.624	33.7
363.84	20.13
364.056	-10.87
364.271	63.15
364.487	68.96
364.703	19.36
364.918	5.02
365.134	22.85
365.35	26.72
365.565	147.62
365.781	58.11
365.996	66.83
366.212	134.83
366.427	71.86
366.643	39.9
366.858	38.73
367.074	-5.05
367.289	96.86
367.505	155.37
367.72	14.51
367.936	27.5
368.151	69.35
368.367	94.92
368.582	67.41
368.798	46.29
369.013	89.3
369.228	67.21
369.444	69.93
369.659	127.28
369.874	86.2
370.09	107.51
370.305	-7.96
370.52	8.31
370.736	114.68
370.951	74.96
371.166	104.22
371.381	155.76
371.597	79.23
371.812	13.55
372.027	7.15
372.242	55.59
372.458	108.87
372.673	57.53
372.888	55.2
373.103	68.18
373.318	142
373.533	77.87
373.749	73.22
373.964	15.1
374.179	102.48
374.394	26.14
374.609	96.28
374.824	14.9
375.039	101.31
375.254	28.08
375.469	155.37
375.684	79.61
375.899	108.87
376.114	76.13
376.329	66.05
376.544	104.41
376.759	94.53
376.974	54.43
377.189	57.91
377.404	37.38
377.619	101.31
377.834	20.33
378.049	39.7
378.264	27.88
378.478	64.5
378.693	57.72
378.908	91.43
379.123	87.17
379.338	151.88
379.553	85.04
379.767	85.04
379.982	100.15
380.197	93.37
380.412	66.44
380.626	89.11
380.841	144.91
381.056	97.44
381.271	179.01
381.485	44.93
381.7	31.95
381.915	116.81
382.129	30.98
382.344	98.21
382.559	41.64
382.773	119.91
382.988	24.01
383.202	68.76
383.417	36.41
383.632	162.54
383.846	60.43
384.061	64.11
384.275	63.53
384.49	69.73
384.704	85.23
384.919	90.27
385.133	74.19
385.348	121.66
385.562	52.49
385.777	144.33
385.991	84.65
386.206	68.76
386.42	62.56
386.634	112.74
386.849	98.6
387.063	66.83
387.277	65.66
387.492	96.86
387.706	52.3
387.92	87.36
388.135	148.78
388.349	99.18
388.563	111.19
388.778	113.13
388.992	125.14
389.206	124.95
389.42	194.89
389.635	97.44
389.849	135.99
390.063	152.46
390.277	150.33
390.491	185.01
390.706	165.44
390.92	149.75
391.134	131.54
391.348	142.19
391.562	56.75
391.776	114.49
391.99	97.24
392.205	162.34
392.419	87.95
392.633	103.64
392.847	153.63
393.061	92.4
393.275	164.28
393.489	85.81
393.703	92.79
393.917	126.69
394.131	24.98
394.345	110.03
394.559	148.39
394.773	98.41
394.986	141.81
395.2	104.61
395.414	173.58
395.628	108.87
395.842	152.85
396.056	125.73
396.27	95.11
396.484	155.95
396.697	129.21
396.911	155.37
397.125	139.87
397.339	103.06
397.553	101.51
397.766	183.66
397.98	151.49
398.194	185.01
398.408	147.81
398.621	160.99
398.835	208.65
399.049	182.88
399.262	223.37
399.476	200.32
399.69	235.39
399.903	283.82
400.117	216.79
400.331	223.76
400.544	199.93
400.758	318.5
400.971	207.68
401.185	245.85
401.398	171.06
401.612	275.88
401.826	255.34
402.039	249.14
402.253	209.42
402.466	259.8
402.68	214.46
402.893	246.82
403.106	241.01
403.32	237.52
403.533	278.79
403.747	232.09
403.96	265.22
404.174	257.28
404.387	182.49
404.6	249.34
404.814	289.44
405.027	241.97
405.24	255.73
405.454	211.94
405.667	290.6
405.88	180.17
406.094	255.73
406.307	284.6
406.52	258.83
406.733	215.43
406.947	191.41
407.16	311.92
407.373	296.8
407.586	225.89
407.799	234.81
408.012	306.88
408.226	269.68
408.439	331.1
408.652	207.68
408.865	294.09
409.078	316.37
409.291	310.17
409.504	253.99
409.717	315.4
409.93	296.03
410.143	287.7
410.357	227.06
410.57	244.69
410.783	234.22
410.996	271.23
411.209	275.3
411.421	326.45
411.634	294.48
411.847	257.47
412.06	314.82
412.273	291.19
412.486	312.5
412.699	390.38
412.912	309.01
413.125	321.22
413.338	328
413.55	326.06
413.763	310.56
413.976	314.24
414.189	290.22
414.402	309.59
414.615	372.75
414.827	298.16
415.04	355.9
415.253	317.34
415.466	378.37
415.678	415.96
415.891	319.86
416.104	358.61
416.316	313.27
416.529	311.72
416.742	365.97
416.954	380.89
417.167	369.85
417.38	343.5
417.592	400.46
417.805	315.02
418.017	300.49
418.23	353.57
418.442	315.79
418.655	303
418.868	344.85
419.08	384.38
419.293	386.12
419.505	339.82
419.718	364.62
419.93	379.92
420.142	351.64
420.355	377.21
420.567	383.99
420.78	360.93
420.992	343.5
421.205	424.1
421.417	322.57
421.629	324.7
421.842	358.61
422.054	343.11
422.266	408.79
422.479	430.1
422.691	336.14
422.903	393.48
423.115	329.94
423.328	340.2
423.54	387.48
423.752	362.1
423.964	347.95
424.177	393.48
424.389	357.06
424.601	470.21
424.813	374.69
425.025	395.62
425.238	430.1
425.45	354.74
425.662	361.32
425.874	698.25
426.086	384.57
426.298	399.88
426.51	390.38
426.722	378.37
426.934	395.81
427.146	418.48
427.358	365.2
427.57	418.09
427.782	377.4
427.994	389.03
428.206	379.73
428.418	322.19
428.63	436.88
428.842	410.34
429.054	412.47
429.266	425.45
429.478	388.25
429.69	383.6
429.902	322.38
430.114	411.89
430.325	338.27
430.537	342.34
430.749	338.85
430.961	258.06
431.173	316.95
431.384	362.1
431.596	253.79
431.808	374.3
432.02	404.72
432.231	464.98
432.443	496.17
432.655	463.04
432.867	439.98
433.078	458
433.29	501.01
433.502	488.03
433.713	493.07
433.925	485.13
434.136	496.17
434.348	426.23
434.56	361.32
434.771	538.41
434.983	370.62
435.194	402.2
435.406	466.53
435.617	511.67
435.829	566.5
436.04	529.5
436.252	527.56
436.463	545.77
436.675	540.34
436.886	537.24
437.098	551.39
437.309	606.03
437.521	555.65
437.732	544.41
437.943	517.1
438.155	530.27
438.366	453.35
438.578	573.28
438.789	483
439	531.63
439.211	500.24
439.423	486.87
439.634	513.41
439.845	548.68
440.057	557.2
440.268	571.34
440.479	516.71
440.69	579.68
440.902	537.24
441.113	492.88
441.324	523.68
441.535	601.96
441.746	612.61
441.957	523.49
442.168	557.2
442.38	615.91
442.591	619.59
442.802	545.19
443.013	609.71
443.224	643.03
443.435	610.48
443.646	588.01
443.857	554.49
444.068	594.21
444.279	586.46
444.49	692.63
444.701	599.05
444.912	735.45
445.123	697.09
445.334	627.14
445.545	663.18
445.756	620.36
445.967	612.61
446.178	619.78
446.388	648.07
446.599	633.92
446.81	665.7
447.021	614.94
447.232	684.49
447.443	689.53
447.653	586.84
447.864	711.81
448.075	656.4
448.286	692.24
448.496	666.86
448.707	705.81
448.918	644.97
449.129	754.44
449.339	658.34
449.55	711.81
449.761	677.32
449.971	731.57
450.182	661.44
450.393	751.92
450.603	684.3
450.814	740.68
451.024	720.72
451.235	800.35
451.446	775.75
451.656	768.39
451.867	679.65
452.077	733.9
452.288	802.48
452.498	789.31
452.709	723.44
452.919	718.98
453.13	699.61
453.34	734.29
453.55	672.48
453.761	720.92
453.971	720.34
454.182	712.2
454.392	738.74
454.602	792.22
454.813	755.4
455.023	745.91
455.233	668.99
455.444	723.05
455.654	653.69
455.864	730.41
456.075	740.1
456.285	716.65
456.495	719.17
456.705	762.38
456.916	817.4
457.126	822.05
457.336	740.29
457.546	707.16
457.756	733.51
457.967	796.48
458.177	763.54
458.387	770.9
458.597	710.84
458.807	753.66
459.017	759.28
459.227	720.34
459.437	725.76
459.647	790.47
459.857	771.68
460.068	743.59
460.278	841.04
460.488	790.09
460.698	839.1
460.908	761.41
461.117	746.88
461.327	755.6
461.537	798.8
461.747	789.7
461.957	804.62
462.167	949.73
462.377	856.73
462.587	789.5
462.797	883.47
463.007	852.47
463.216	850.73
463.426	921.06
463.636	861.58
463.846	749.01
464.056	799.58
464.265	854.8
464.475	793.96
464.685	838.72
464.895	851.7
465.104	830.38
465.314	866.81
465.524	789.7
465.733	790.47
465.943	959.42
466.153	910.98
466.362	871.07
466.572	860.22
466.782	829.61
466.991	861.19
467.201	911.95
467.41	760.44
467.62	853.83
467.829	875.14
468.039	880.18
468.249	878.43
468.458	882.31
468.668	914.86
468.877	885.41
469.086	927.84
469.296	947.6
469.505	892.58
469.715	945.66
469.924	907.11
470.134	920.09
470.343	955.74
470.552	879.02
470.762	885.21
470.971	869.72
471.18	902.26
471.39	890.64
471.599	871.85
471.808	951.28
472.018	938.11
472.227	1009.6
472.436	1025.49
472.645	996.43
472.855	907.88
473.064	1028.78
473.273	1004.37
473.482	1011.15
473.691	1058.23
473.901	1046.61
474.11	982.28
474.319	1099.11
474.528	1019.09
474.737	1112.67
474.946	1077.02
475.155	1063.66
475.364	1101.82
475.573	1101.05
475.783	1069.66
475.992	1101.05
476.201	1148.13
476.41	1110.54
476.619	1028.78
476.828	1085.36
477.037	1056.29
477.245	1063.27
477.454	1142.32
477.663	1093.49
477.872	1133.79
478.081	1198.12
478.29	1121.97
478.499	1270
478.708	1184.94
478.917	1246.17
479.125	1219.62
479.334	1177.97
479.543	1192.89
479.752	1220.79
479.961	1214.97
480.169	1252.56
480.378	1242.68
480.587	1397.87
480.796	1274.45
481.004	1243.07
481.213	1276
481.422	1261.08
481.63	1281.23
481.839	1354.47
482.048	1422.67
482.256	1307.97
482.465	1349.82
482.674	1334.71
482.882	1333.74
483.091	1412.01
483.299	1325.8
483.508	1399.61
483.716	1363.38
483.925	1355.63
484.134	1293.44
484.342	1356.02
484.551	1346.91
484.759	1377.33
484.967	1395.35
485.176	1444.76
485.384	1436.81
485.593	1431.58
485.801	1410.46
486.01	1352.73
486.218	1306.23
486.426	1193.47
486.635	1193.27
486.843	1198.31
487.051	1265.73
487.26	1227.76
487.468	1297.32
487.676	1351.95
487.885	1353.31
488.093	1367.65
488.301	1431.39
488.509	1467.23
488.717	1486.99
488.926	1431.58
489.134	1408.14
489.342	1449.21
489.55	1394.58
489.758	1436.81
489.967	1441.08
490.175	1574.37
490.383	1516.64
490.591	1587.74
490.799	1466.65
491.007	1605.18
491.215	1537.17
491.423	1528.65
491.631	1555.77
491.839	1534.27
492.047	1535.62
492.255	1486.8
492.463	1462.97
492.671	1487.19
492.879	1532.33
493.087	1530.39
493.295	1590.84
493.503	1617
493.711	1646.45
493.919	1671.63
494.127	1630.95
494.334	1629.2
494.542	1535.82
494.75	1609.83
494.958	1619.52
495.166	1674.73
495.374	1674.54
495.581	1697.98
495.789	1704.96
495.997	1741.97
496.205	1661.17
496.412	1654.59
496.62	1665.24
496.828	1672.22
497.035	1685.78
497.243	1725.69
497.451	1727.05
497.658	1712.52
497.866	1704.57
498.074	1775.87
498.281	1691.78
498.489	1766.18
498.696	1702.83
498.904	1663.11
499.112	1614.29
499.319	1751.07
499.527	1671.05
499.734	1742.93
499.942	1674.54
500.149	1691.4
500.357	1740.03
500.564	1688.1
500.771	1712.52
500.979	1639.67
501.186	1652.84
501.394	1708.45
501.601	1670.86
501.808	1674.93
502.016	1681.32
502.223	1681.52
502.43	1684.42
502.638	1678.42
502.845	1692.56
503.052	1783.43
503.26	1729.76
503.467	1817.91
503.674	1758.24
503.881	1784.78
504.089	1852.21
504.296	1794.66
504.503	1707.67
504.71	1742.16
504.917	1719.68
505.125	1754.37
505.332	1795.25
505.539	1801.64
505.746	1882.63
505.953	1878.56
506.16	1857.63
506.367	1931.45
506.574	1933.39
506.781	1913.82
506.988	1838.26
507.195	1908.39
507.402	1839.03
507.609	1907.23
507.816	1843.29
508.023	1834.38
508.23	1879.14
508.437	1781.88
508.644	1838.26
508.851	1887.66
509.058	1893.86
509.265	1905.1
509.472	1903.74
509.679	2023.48
509.885	1885.34
510.092	1928.54
510.299	1925.64
510.506	1885.34
510.713	1934.36
510.92	1867.13
511.126	1931.26
511.333	1994.22
511.54	1951.79
511.746	2012.24
511.953	2030.65
512.16	2062.81
512.367	1998.87
512.573	1981.44
512.78	1982.41
512.987	1941.33
513.193	1964.39
513.4	1876.43
513.606	1934.16
513.813	1982.41
514.02	1960.71
514.226	1994.03
514.433	1978.34
514.639	1909.36
514.846	1954.89
515.052	1927.58
515.259	2015.92
515.465	2000.04
515.672	1966.91
515.878	2092.45
516.085	2006.82
516.291	2026.39
516.497	1986.86
516.704	2000.62
516.91	1922.34
517.117	1852.79
517.323	1778.2
517.529	1791.76
517.736	1789.63
517.942	1770.06
518.148	1803.77
518.354	1913.43
518.561	1893.28
518.767	1902.58
518.973	1932.81
519.179	1954.51
519.386	1910.91
519.592	1897.35
519.798	1912.46
520.004	2059.9
520.21	2035.1
520.417	2095.55
520.623	2125
520.829	2125.39
521.035	2128.1
521.241	2116.28
521.447	2147.48
521.653	2255.78
521.859	2177.51
522.065	2167.43
522.271	2280.58
522.477	2218.58
522.683	2287.56
522.889	2207.54
523.095	2215.48
523.301	2212
523.507	2155.42
523.713	2197.66
523.919	2170.34
524.125	2293.56
524.331	2246.29
524.537	2366.41
524.742	2321.46
524.948	2333.86
525.154	2351.11
525.36	2451.47
525.566	2294.14
525.772	2398.57
525.977	2314.29
526.183	2349.75
526.389	2419.69
526.595	2316.04
526.8	2275.93
527.006	2172.47
527.212	2140.7
527.417	2105.24
527.623	2108.92
527.829	2222.85
528.034	2243.96
528.24	2267.8
528.446	2267.99
528.651	2398.19
528.857	2360.6
529.062	2443.72
529.268	2415.82
529.473	2449.14
529.679	2432.67
529.884	2521.41
530.09	2513.27
530.295	2524.51
530.501	2482.47
530.706	2495.06
530.912	2441.97
531.117	2476.46
531.323	2552.02
531.528	2558.42
531.733	2556.28
531.939	2552.02
532.144	2579.73
532.35	2546.4
532.555	2575.85
532.76	2496.42
532.966	2506.3
533.171	2501.45
533.376	2443.14
533.581	2388.89
533.787	2462.12
533.992	2536.14
534.197	2521.02
534.402	2536.52
534.607	2533.81
534.813	2609.95
535.018	2558.22
535.223	2519.67
535.428	2562.68
535.633	2625.26
535.838	2651.03
536.043	2631.46
536.249	2769.21
536.454	2658.78
536.659	2687.84
536.864	2638.05
537.069	2636.5
537.274	2604.53
537.479	2591.16
537.684	2608.02
537.889	2558.22
538.094	2700.63
538.299	2661.68
538.504	2626.23
538.708	2631.65
538.913	2692.49
539.118	2683.96
539.323	2668.66
539.528	2609.57
539.733	2633.4
539.938	2655.29
540.142	2659.16
540.347	2602.2
540.552	2559.38
540.757	2616.73
540.962	2621.58
541.166	2520.64
541.371	2530.71
541.576	2540.79
541.781	2464.64
541.985	2692.1
542.19	2593.48
542.395	2755.07
542.599	2748.09
542.804	2710.12
543.008	2724.46
543.213	2691.71
543.418	2612.08
543.622	2707.21
543.827	2607.05
544.031	2744.8
544.236	2698.88
544.44	2708.18
544.645	2793.24
544.849	2743.83
545.054	2760.49
545.258	2838.38
545.463	2783.55
545.667	2706.05
545.872	2794.01
546.076	2744.99
546.281	2748.48
546.485	2712.06
546.689	2774.25
546.894	2780.64
547.098	2745.77
547.302	2715.35
547.507	2766.5
547.711	2788.78
547.915	2807.57
548.119	2688.03
548.324	2690.75
548.528	2780.26
548.732	2702.76
548.936	2778.13
549.141	2803.7
549.345	2750.61
549.549	2777.74
549.753	2776.77
549.957	2836.44
550.161	2833.34
550.366	2786.46
550.57	2773.67
550.774	2760.49
550.978	2757.01
551.182	2805.06
551.386	2718.06
551.59	2738.99
551.794	2738.6
551.998	2803.12
552.202	2738.99
552.406	2717.68
552.61	2805.44
552.814	2788.98
553.018	2820.56
553.222	2759.91
553.426	2793.04
553.63	2853.49
553.833	2747.71
554.037	2699.46
554.241	2802.73
554.445	2794.21
554.649	2770.18
554.853	2724.26
555.056	2833.54
555.26	2800.6
555.464	2781.23
555.668	2847.49
555.871	2806.61
556.075	2870.93
556.279	2718.64
556.483	2731.82
556.686	2738.99
556.89	2785.49
557.094	2772.7
557.297	2599.1
557.501	2755.46
557.704	2655.87
557.908	2753.91
558.112	2687.45
558.315	2796.53
558.519	2707.41
558.722	2648.31
558.926	2680.86
559.129	2575.66
559.333	2592.71
559.536	2593.1
559.74	2587.28
559.943	2560.35
560.147	2537.49
560.35	2561.71
560.553	2619.06
560.757	2581.47
560.96	2685.51
561.164	2592.71
561.367	2703.15
561.57	2627.2
561.774	2641.34
561.977	2566.75
562.18	2588.45
562.384	2672.15
562.587	2562.87
562.79	2569.65
562.993	2567.72
563.197	2608.02
563.4	2623.32
563.603	2687.45
563.806	2722.52
564.009	2586.12
564.212	2576.24
564.416	2550.08
564.619	2591.93
564.822	2539.82
565.025	2590.77
565.228	2524.51
565.431	2588.45
565.634	2465.8
565.837	2509.98
566.04	2501.26
566.243	2478.79
566.446	2414.66
566.649	2506.1
566.852	2430.74
567.055	2454.95
567.258	2512.5
567.461	2556.28
567.664	2543.5
567.867	2425.31
568.07	2457.28
568.273	2513.66
568.475	2549.12
568.678	2410.01
568.881	2461.93
569.084	2453.02
569.287	2331.73
569.489	2361.57
569.692	2433.26
569.895	2455.92
570.098	2347.43
570.3	2334.25
570.503	2325.14
570.706	2346.65
570.909	2313.13
571.111	2235.83
571.314	2238.35
571.516	2244.55
571.719	2300.54
571.922	2263.15
572.124	2277.68
572.327	2328.63
572.529	2226.53
572.732	2266.63
572.935	2336.96
573.137	2379.39
573.34	2292.4
573.542	2364.28
573.745	2356.53
573.947	2317.78
574.15	2302.67
574.352	2271.48
574.554	2366.03
574.757	2281.16
574.959	2231.18
575.162	2259.27
575.364	2264.5
575.566	2301.7
575.769	2232.73
575.971	2253.85
576.173	2113.96
576.376	2230.21
576.578	2284.26
576.78	2257.53
576.982	2137.02
577.185	2234.28
577.387	2151.74
577.589	2212.96
577.791	2230.4
577.993	2227.3
578.196	2221.3
578.398	2196.69
578.6	2212.38
578.802	2139.34
579.004	2096.33
579.206	2111.83
579.408	2190.68
579.61	2123.45
579.812	2214.32
580.014	2135.27
580.216	2123.07
580.418	2140.12
580.62	2135.85
580.822	2059.52
581.024	2135.47
581.226	2187
581.428	2123.07
581.63	2242.61
581.832	2129.46
582.034	2192.23
582.236	2129.46
582.438	2157.75
582.64	2212.96
582.841	2204.63
583.043	2262.18
583.245	2176.93
583.447	2201.92
583.649	2173.44
583.85	2197.08
584.052	2194.56
584.254	2119.19
584.456	2201.92
584.657	2115.51
584.859	2200.95
585.061	2145.93
585.262	2142.25
585.464	2089.16
585.666	2139.92
585.867	2108.15
586.069	2145.15
586.27	2092.84
586.472	2085.09
586.674	2067.07
586.875	2048.47
587.077	2064.17
587.278	2085.29
587.48	2068.82
587.681	2199.98
587.883	2158.52
588.084	1994.61
588.285	2052.74
588.487	2061.65
588.688	2047.7
588.89	1982.41
589.091	1909.75
589.292	1956.64
589.494	1886.69
589.695	1860.93
589.896	1776.65
590.098	1755.33
590.299	1821.79
590.5	1792.92
590.702	1829.73
590.903	1900.64
591.104	1941.72
591.305	1973.11
591.507	1976.4
591.708	1933
591.909	1944.04
592.11	2014.57
592.311	1957.8
592.512	1904.13
592.714	1886.11
592.915	1898.9
593.116	1933.77
593.317	1954.12
593.518	1926.03
593.719	1922.15
593.92	1974.85
594.121	1987.25
594.322	1953.34
594.523	1927.19
594.724	1878.75
594.925	1940.36
595.126	1949.27
595.327	1930.48
595.528	1946.17
595.729	1922.93
595.929	1926.61
596.13	1902.19
596.331	1918.28
596.532	1945.21
596.733	2002.36
596.934	2005.07
597.135	1987.06
597.335	1963.61
597.536	1918.08
597.737	1968.46
597.938	1890.38
598.138	1943.07
598.339	1938.62
598.54	1931.45
598.74	1897.16
598.941	1959.35
599.142	1984.15
599.342	1928.54
599.543	1875.26
599.744	1948.69
599.944	1919.05
600.145	1889.21
600.345	1949.27
600.546	2001.39
600.746	1946.17
600.947	2009.34
601.147	1900.26
601.348	2011.27
601.548	1878.36
601.749	1930.67
601.949	1837.87
602.15	1881.08
602.35	1883.01
602.551	1946.37
602.751	1834.58
602.951	1893.48
603.152	1801.06
603.352	1915.76
603.552	1903.16
603.753	1937.65
603.953	1945.79
604.153	1919.63
604.354	1896.38
604.554	1889.6
604.754	1876.23
604.954	1835.93
605.155	1936.87
605.355	1894.64
605.555	1933.39
605.755	1928.74
605.955	1889.21
606.155	1926.22
606.356	1907.62
606.556	1925.25
606.756	1932.61
606.956	1845.81
607.156	1917.89
607.356	1834.58
607.556	1907.04
607.756	1866.93
607.956	1921.76
608.156	1858.41
608.356	1816.56
608.556	1886.69
608.756	1849.49
608.956	1825.66
609.156	1846.59
609.356	1800.86
609.556	1800.48
609.755	1820.05
609.955	1777.81
610.155	1833.03
610.355	1815.59
610.555	1780.13
610.755	1807.65
610.954	1719.1
611.154	1827.41
611.354	1817.72
611.554	1760.56
611.753	1792.73
611.953	1722.2
612.153	1804.16
612.352	1794.28
612.552	1749.52
612.752	1720.65
612.951	1788.66
613.151	1769.48
613.351	1732.86
613.55	1746.03
613.75	1748.75
613.949	1751.65
614.149	1748.75
614.348	1740.61
614.548	1678.8
614.747	1648
614.947	1666.02
615.146	1646.84
615.346	1753.59
615.545	1722.2
615.745	1690.04
615.944	1722.2
616.144	1737.51
616.343	1746.42
616.542	1641.02
616.742	1670.67
616.941	1694.11
617.14	1593.36
617.34	1680.16
617.539	1666.6
617.738	1625.52
617.938	1712.13
618.137	1649.16
618.336	1613.51
618.535	1678.8
618.734	1675.7
618.934	1683.07
619.133	1704.77
619.332	1675.51
619.531	1621.26
619.73	1666.21
619.929	1720.27
620.128	1697.6
620.328	1717.55
620.527	1631.72
620.726	1641.41
620.925	1687.13
621.124	1683.65
621.323	1671.83
621.522	1603.24
621.721	1603.44
621.92	1594.33
622.119	1652.07
622.318	1630.95
622.517	1629.59
622.715	1625.72
622.914	1571.08
623.113	1560.42
623.312	1525.16
623.511	1610.22
623.71	1594.52
623.909	1578.64
624.107	1642.57
624.306	1572.05
624.505	1571.86
624.704	1566.62
624.902	1555
625.101	1624.17
625.3	1598.79
625.499	1510.63
625.697	1542.6
625.896	1527.87
626.095	1564.88
626.293	1486.22
626.492	1525.36
626.69	1544.73
626.889	1504.82
627.088	1563.72
627.286	1511.21
627.485	1548.41
627.683	1514.31
627.882	1561.39
628.08	1455.61
628.279	1521.48
628.477	1560.04
628.676	1474.59
628.874	1548.41
629.073	1488.16
629.271	1425.38
629.469	1530.39
629.668	1498.23
629.866	1481.38
630.065	1451.15
630.263	1505.59
630.461	1458.32
630.66	1501.91
630.858	1508.89
631.056	1510.24
631.254	1538.92
631.453	1452.51
631.651	1515.86
631.849	1462.39
632.047	1468.2
632.245	1487.58
632.444	1495.71
632.642	1484.86
632.84	1519.74
633.038	1459.48
633.236	1440.3
633.434	1476.73
633.632	1406.78
633.83	1437.59
634.028	1480.41
634.227	1471.3
634.425	1520.9
634.623	1460.64
634.821	1480.6
635.019	1466.84
635.216	1434.49
635.414	1485.06
635.612	1456.96
635.81	1453.48
636.008	1511.21
636.206	1441.08
636.404	1460.84
636.602	1426.16
636.8	1453.28
636.997	1438.56
637.195	1470.33
637.393	1449.99
637.591	1509.86
637.789	1459.87
637.986	1458.71
638.184	1464.91
638.382	1508.5
638.58	1465.49
638.777	1496.68
638.975	1429.26
639.173	1447.86
639.37	1480.6
639.568	1470.91
639.765	1457.35
639.963	1468.59
640.161	1450.96
640.358	1498.42
640.556	1402.13
640.753	1392.83
640.951	1384.11
641.148	1441.85
641.346	1385.66
641.543	1390.51
641.741	1440.69
641.938	1364.93
642.136	1377.33
642.333	1377.14
642.531	1408.72
642.728	1460.45
642.925	1410.85
643.123	1403.68
643.32	1402.33
643.517	1407.75
643.715	1370.55
643.912	1351.95
644.109	1401.16
644.306	1377.72
644.504	1305.45
644.701	1367.26
644.898	1399.61
645.095	1384.7
645.293	1409.49
645.49	1382.56
645.687	1394.19
645.884	1398.06
646.081	1266.12
646.278	1291.5
646.475	1338.58
646.672	1302.93
646.87	1331.61
647.067	1317.08
647.264	1324.63
647.461	1276.2
647.658	1250.23
647.855	1344.78
648.052	1303.13
648.249	1191.34
648.446	1291.7
648.642	1274.45
648.839	1258.76
649.036	1253.14
649.233	1237.64
649.43	1211.29
649.627	1213.04
649.824	1232.8
650.021	1179.13
650.217	1236.87
650.414	1172.54
650.611	1262.63
650.808	1278.72
651.004	1261.08
651.201	1304.68
651.398	1312.82
651.595	1252.95
651.791	1206.06
651.988	1283.37
652.185	1213.42
652.381	1253.92
652.578	1183.2
652.775	1273.1
652.971	1230.47
653.168	1256.82
653.364	1267.87
653.561	1168.09
653.757	1242.29
653.954	1232.99
654.15	1181.45
654.347	1280.46
654.543	1229.89
654.74	1178.74
654.936	1191.53
655.133	1218.07
655.329	1192.3
655.525	1189.59
655.722	1210.32
655.918	1154.52
656.115	1192.3
656.311	1079.35
656.507	1030.14
656.704	1002.43
656.9	1031.49
657.096	1019.68
657.292	1041.96
657.489	1096.79
657.685	1125.66
657.881	1098.34
658.077	1107.83
658.273	1135.54
658.47	1201.6
658.666	1142.71
658.862	1145.22
659.058	1149.1
659.254	1191.14
659.45	1150.45
659.646	1158.79
659.842	1158.4
660.038	1192.89
660.234	1117.52
660.43	1150.26
660.626	1228.54
660.822	1193.27
661.018	1203.35
661.214	1151.62
661.41	1089.81
661.606	1169.64
661.802	1206.64
661.998	1156.65
662.194	1138.44
662.39	1146.19
662.586	1200.05
662.781	1175.64
662.977	1178.94
663.173	1185.52
663.369	1127.21
663.564	1150.65
663.76	1150.07
663.956	1139.02
664.152	1206.25
664.347	1070.63
664.543	1143.87
664.739	1091.75
664.934	1079.74
665.13	1103.18
665.326	1175.06
665.521	1136.12
665.717	1088.26
665.912	1076.64
666.108	1015.8
666.304	1127.59
666.499	1098.92
666.695	1018.51
666.89	1088.65
667.086	1127.79
667.281	1132.63
667.477	1180.29
667.672	1100.27
667.867	1094.85
668.063	1139.22
668.258	1054.36
668.454	1095.04
668.649	1182.81
668.844	1138.06
669.04	1133.79
669.235	1060.94
669.43	1051.06
669.626	1067.34
669.821	1035.76
670.016	1029.94
670.211	1064.24
670.407	1025.68
670.602	1087.29
670.797	1085.36
670.992	1104.54
671.187	1044.67
671.382	1108.61
671.578	1019.48
671.773	1068.69
671.968	1021.61
672.163	1029.94
672.358	1042.93
672.553	1034.59
672.748	1021.03
672.943	1124.49
673.138	1042.54
673.333	1070.82
673.528	993.52
673.723	1052.03
673.918	1021.42
674.113	1003.79
674.308	1115.19
674.503	1058.42
674.698	1089.81
674.892	1039.44
675.087	1069.86
675.282	1041.18
675.477	1004.95
675.672	1046.41
675.867	1024.13
676.061	963.49
676.256	978.02
676.451	1002.24
676.646	1032.66
676.84	991.58
677.035	993.33
677.23	936.56
677.424	1057.07
677.619	1044.67
677.814	1031.3
678.008	1074.89
678.203	933.85
678.397	1002.82
678.592	1026.26
678.787	1053.19
678.981	995.65
679.176	1005.53
679.37	990.03
679.565	946.25
679.759	1009.6
679.954	1015.99
680.148	1070.44
680.342	1051.45
680.537	1024.13
680.731	1018.71
680.926	1032.66
681.12	1034.01
681.314	968.91
681.509	988.29
681.703	1012.7
681.897	1027.62
682.092	1005.14
682.286	1006.5
682.48	1069.66
682.674	1019.48
682.869	1012.89
683.063	992.94
683.257	1089.23
683.451	975.69
683.645	1025.49
683.839	1021.42
684.034	992.36
684.228	1056.49
684.422	940.43
684.616	984.8
684.81	1035.56
685.004	990.42
685.198	982.28
685.392	1015.22
685.586	978.02
685.78	971.04
685.974	1028.98
686.168	1021.81
686.362	1061.72
686.556	953.8
686.75	923.77
686.944	925.9
687.138	935.01
687.331	818.95
687.525	846.85
687.719	783.69
687.913	894.51
688.107	868.55
688.301	832.13
688.494	844.92
688.688	809.65
688.882	784.27
689.076	800.74
689.269	837.17
689.463	946.25
689.657	841.23
689.85	855.38
690.044	885.21
690.238	886.57
690.431	886.38
690.625	856.54
690.818	880.18
691.012	908.85
691.205	919.9
691.399	877.66
691.593	915.25
691.786	976.28
691.98	998.94
692.173	1000.69
692.366	992.94
692.56	984.41
692.753	1034.4
692.947	898
693.14	1021.03
693.333	1001.46
693.527	939.85
693.72	991.78
693.914	952.06
694.107	970.85
694.3	976.86
694.493	970.46
694.687	1022.78
694.88	983.25
695.073	1066.37
695.266	1024.33
695.46	1009.79
695.653	1050.48
695.846	1077.22
696.039	982.28
696.232	1025.88
696.425	1083.03
696.618	1054.55
696.812	1102.02
697.005	1146
697.198	1216.52
697.391	1141.16
697.584	1135.54
697.777	1204.9
697.97	1173.7
698.163	1177.19
698.356	1183.2
698.549	1272.52
698.742	1211.29
698.935	1199.47
699.127	1192.3
699.32	1152.39
699.513	1176.61
699.706	1224.47
699.899	1238.22
700.092	1188.82
700.285	1243.26
700.477	1153.94
700.67	1231.25
700.863	1276
701.056	1360.09
701.248	1312.43
701.441	1352.92
701.634	1251.4
701.826	1386.63
702.019	1283.95
702.212	1379.66
702.404	1338.78
702.597	1337.81
702.79	1345.56
702.982	1380.82
703.175	1411.43
703.367	1429.64
703.56	1434.68
703.752	1521.87
703.945	1478.47
704.137	1477.89
704.33	1513.92
704.522	1487.96
704.715	1545.31
704.907	1541.82
705.1	1587.94
705.292	1609.44
705.484	1582.51
705.677	1597.62
705.869	1631.72
706.061	1654.97
706.254	1700.5
706.446	1634.24
706.638	1668.92
706.831	1752.82
707.023	1678.8
707.215	1815.4
707.407	1810.55
707.599	1770.64
707.792	1833.03
707.984	1836.51
708.176	1827.6
708.368	1786.72
708.56	1811.13
708.752	1880.88
708.944	1818.3
709.136	1884.18
709.329	1888.44
709.521	2009.92
709.713	1950.82
709.905	1964.77
710.097	2031.62
710.289	1958.19
710.481	2011.08
710.672	2024.64
710.864	2027.94
711.056	2093.04
711.248	2089.16
711.44	2120.55
711.632	2081.8
711.824	2095.36
712.016	2199.4
712.207	2168.6
712.399	2183.32
712.591	2274.96
712.783	2233.89
712.975	2265.28
713.166	2214.9
713.358	2256.36
713.55	2347.04
713.741	2332.7
713.933	2326.69
714.125	2365.06
714.316	2341.81
714.508	2405.36
714.7	2408.65
714.891	2445.27
715.083	2479.75
715.274	2422.99
715.466	2455.15
715.657	2482.47
715.849	2429.38
716.04	2499.13
716.232	2422.6
716.423	2497.97
716.615	2428.99
716.806	2387.92
716.998	2358.28
717.189	2349.36
717.381	2227.11
717.572	2236.8
717.763	2227.11
717.955	2232.53
718.146	2235.83
718.337	2133.14
718.528	2124.23
718.72	2024.84
718.911	2154.84
719.102	2099.24
719.293	2134.5
719.485	2134.11
719.676	2114.93
719.867	2107.37
720.058	2067.27
720.249	2085.09
720.44	2128.1
720.632	2180.61
720.823	2230.6
721.014	2359.44
721.205	2378.04
721.396	2455.15
721.587	2590.19
721.778	2607.43
721.969	2626.03
722.16	2721.55
722.351	2678.35
722.542	2820.56
722.733	2886.43
722.924	2752.36
723.115	2891.66
723.305	2836.83
723.496	2871.51
723.687	2761.27
723.878	2757.78
724.069	2763.4
724.26	2758.17
724.45	2708.76
724.641	2696.56
724.832	2743.83
725.023	2714
725.213	2689.39
725.404	2704.31
725.595	2705.86
725.785	2719.03
725.976	2810.67
726.167	2808.74
726.357	2811.45
726.548	2934.67
726.739	2816.49
726.929	2908.13
727.12	2970.32
727.31	3018.57
727.501	2903.67
727.691	2940.29
727.882	2946.88
728.072	3026.9
728.263	3042.4
728.453	3080.76
728.644	3091.03
728.834	3047.63
729.024	3081.15
729.215	3022.05
729.405	3044.14
729.596	3131.91
729.786	3190.42
729.976	3176.66
730.167	3239.44
730.357	3163.88
730.547	3168.53
730.737	3223.74
730.928	3264.82
731.118	3361.5
731.308	3250.48
731.498	3277.41
731.688	3396.37
731.879	3371.57
732.069	3459.73
732.259	3476
732.449	3497.9
732.639	3583.15
732.829	3592.06
733.019	3617.63
733.209	3730.97
733.399	3729.81
733.589	3763.14
733.779	3804.21
733.969	3828.82
734.159	3882.48
734.349	3933.44
734.539	3969.86
734.729	3972.38
734.919	4021.79
735.109	4070.61
735.299	4017.72
735.488	4026.63
735.678	4059.38
735.868	4074.29
736.058	4027.6
736.248	4064.03
736.437	4017.91
736.627	4023.15
736.817	4168.26
737.007	4083.79
737.196	4142.49
737.386	4089.99
737.576	4046.59
737.765	4189.57
737.955	4143.66
738.144	4274.82
738.334	4239.75
738.524	4173.69
738.713	4238.98
738.903	4192.48
739.092	4228.13
739.282	4240.92
739.471	4238.2
739.661	4226.77
739.85	4327.72
740.04	4270.75
740.229	4302.33
740.419	4301.75
740.608	4319.38
740.797	4327.52
740.987	4421.1
741.176	4402.89
741.365	4374.99
741.555	4323.45
741.744	4444.35
741.933	4386.81
742.123	4379.83
742.312	4460.24
742.501	4468.96
742.69	4520.11
742.88	4344.96
743.069	4512.16
743.258	4443.77
743.447	4526.11
743.636	4523.4
743.825	4510.03
744.014	4489.69
744.204	4584.62
744.393	4495.11
744.582	4622.6
744.771	4627.06
744.96	4599.35
745.149	4576.87
745.338	4531.73
745.527	4633.26
745.716	4580.75
745.905	4559.05
746.094	4657.67
746.283	4626.28
746.471	4612.52
746.66	4695.84
746.849	4663.29
747.038	4677.82
747.227	4636.36
747.416	4663.67
747.604	4583.66
747.793	4619.5
747.982	4637.32
748.171	4643.91
748.359	4654.37
748.548	4674.72
748.737	4692.35
748.926	4647.59
749.114	4500.15
749.303	4675.69
749.491	4600.9
749.68	4500.73
749.869	4660.19
750.057	4591.41
750.246	4517.2
750.434	4605.74
750.623	4560.21
750.811	4517.78
751	4634.81
751.188	4591.41
751.377	4565.83
751.565	4549.75
751.754	4510.61
751.942	4525.14
752.131	4580.36
752.319	4530.57
752.507	4470.7
752.696	4589.47
752.884	4554.01
753.072	4550.33
753.261	4549.56
753.449	4559.44
753.637	4504.99
753.825	4631.32
754.014	4521.46
754.202	4554.21
754.39	4616.21
754.578	4546.07
754.766	4502.67
754.955	4475.54
755.143	4593.54
755.331	4549.94
755.519	4532.7
755.707	4501.89
755.895	4475.16
756.083	4505.19
756.271	4430.79
756.459	4487.17
756.647	4514.29
756.835	4457.72
757.023	4460.82
757.211	4458.88
757.399	4391.65
757.587	4462.18
757.775	4381.96
757.963	4428.46
758.151	4450.16
758.339	4354.07
758.526	4348.64
758.714	4413.93
758.902	4317.25
759.09	4245.57
759.278	4053.18
759.465	3795.69
759.653	3376.22
759.841	3083.28
760.028	2712.25
760.216	2435.58
760.404	2279.61
760.591	1938.04
760.779	1713.1
760.967	1515.86
761.154	1328.51
761.342	1377.72
761.529	1400
761.717	1499.59
761.905	1514.31
762.092	1626.1
762.28	1609.05
762.467	1652.07
762.655	1549.38
762.842	1609.25
763.029	1627.65
763.217	1641.22
763.404	1691.2
763.592	1713.68
763.779	1646.06
763.966	1739.64
764.154	1768.31
764.341	1849.49
764.528	1862.48
764.716	1957.8
764.903	1991.71
765.09	2064.36
765.277	2120.55
765.465	2277.68
765.652	2370.48
765.839	2450.5
766.026	2572.17
766.213	2625.65
766.4	2747.71
766.588	2931.38
766.775	2933.51
766.962	3020.89
767.149	3155.93
767.336	3281.48
767.523	3238.28
767.71	3341.54
767.897	3511.07
768.084	3577.14
768.271	3608.14
768.458	3625.96
768.645	3748.41
768.832	3702.69
769.019	3741.82
769.206	3753.84
769.392	3828.62
769.579	3927.43
769.766	3866.21
769.953	3888.1
770.14	3954.95
770.327	3896.63
770.513	3965.02
770.7	4038.26
770.887	3907.09
771.073	3946.81
771.26	3965.21
771.447	3932.86
771.634	3888.68
771.82	4035.93
772.007	3871.44
772.193	3960.95
772.38	3964.25
772.567	3913.68
772.753	3910
772.94	4009.58
773.126	4018.11
773.313	3968.12
773.499	3988.66
773.686	3997.57
773.872	3859.23
774.059	3956.3
774.245	3847.22
774.432	3919.1
774.618	3841.6
774.804	3886.75
774.991	3813.12
775.177	3880.55
775.363	3874.15
775.55	3905.15
775.736	3849.16
775.922	3838.5
776.109	3844.7
776.295	3860.98
776.481	3870.86
776.667	3850.32
776.853	3835.02
777.04	3767.4
777.226	3794.33
777.412	3966.96
777.598	3768.56
777.784	3815.06
777.97	3760.81
778.156	3782.7
778.342	3755.39
778.528	3780.38
778.715	3735.62
778.901	3741.05
779.087	3740.08
779.272	3712.18
779.458	3666.84
779.644	3754.03
779.83	3715.09
780.016	3804.6
780.202	3706.56
780.388	3696.29
780.574	3630.81
780.76	3670.72
780.946	3730.97
781.131	3703.85
781.317	3653.67
781.503	3631.19
781.689	3642.24
781.874	3745.89
782.06	3603.1
782.246	3680.79
782.432	3629.84
782.617	3640.88
782.803	3677.69
782.989	3559.31
783.174	3581.4
783.36	3550.6
783.545	3571.91
783.731	3558.15
783.916	3456.05
784.102	3544.01
784.288	3561.83
784.473	3514.17
784.659	3480.85
784.844	3585.86
785.029	3463.41
785.215	3452.95
785.4	3403.54
785.586	3534.32
785.771	3460.5
785.956	3483.37
786.142	3435.12
786.327	3457.21
786.512	3423.88
786.698	3410.32
786.883	3343.48
787.068	3374.48
787.254	3416.13
787.439	3410.9
787.624	3343.67
787.809	3360.14
787.994	3319.84
788.18	3402.38
788.365	3300.27
788.55	3351.62
788.735	3319.84
788.92	3290.01
789.105	3305.12
789.29	3327.21
789.475	3265.79
789.66	3301.24
789.845	3238.66
790.03	3206.31
790.215	3295.04
790.4	3297.17
790.585	3315.39
790.77	3214.83
790.955	3176.66
791.14	3237.5
791.325	3280.71
791.51	3136.56
791.695	3237.89
791.879	3203.4
792.064	3154.77
792.249	3240.6
792.434	3186.74
792.618	3181.89
792.803	3242.34
792.988	3176.66
793.173	3196.62
793.357	3269.47
793.542	3157.68
793.727	3203.59
793.911	3239.44
794.096	3186.35
794.281	3211.34
794.465	3302.02
794.65	3216.19
794.834	3254.36
795.019	3252.81
795.203	3270.24
795.388	3268.31
795.572	3323.52
795.757	3229.56
795.941	3288.26
796.126	3251.26
796.31	3203.21
796.494	3258.23
796.679	3205.92
796.863	3151.86
797.048	3309.77
797.232	3262.49
797.416	3312.09
797.601	3238.08
797.785	3310.16
797.969	3306.47
798.153	3233.43
798.338	3303.57
798.522	3318.87
798.706	3345.03
798.89	3312.09
799.074	3385.33
799.258	3371.96
799.443	3312.48
799.627	3278.96
799.811	3388.43
799.995	3268.11
800.179	3276.25
800.363	3286.91
800.547	3320.42
800.731	3307.44
800.915	3217.35
801.099	3244.28
801.283	3259.01
801.467	3279.74
801.651	3242.34
801.835	3331.08
802.019	3279.74
802.202	3307.06
802.386	3246.61
802.57	3235.76
802.754	3267.14
802.938	3263.27
803.121	3206.89
803.305	3305.31
803.489	3238.86
803.673	3274.7
803.856	3289.04
804.04	3232.08
804.224	3278.38
804.407	3203.59
804.591	3231.11
804.775	3260.36
804.958	3234.79
805.142	3361.89
805.326	3239.63
805.509	3229.56
805.693	3296.21
805.876	3267.53
806.06	3272.96
806.243	3280.32
806.427	3292.72
806.61	3340.96
806.794	3234.98
806.977	3293.88
807.16	3258.42
807.344	3280.9
807.527	3260.56
807.71	3272.96
807.894	3231.49
808.077	3300.66
808.26	3203.01
808.444	3184.03
808.627	3282.84
808.81	3172.01
808.993	3132.1
809.177	3086.76
809.36	3184.03
809.543	3172.79
809.726	3061.58
809.909	3085.8
810.092	3059.45
810.276	3069.52
810.459	3111.76
810.642	3075.53
810.825	3050.53
811.008	3069.13
811.191	2937.77
811.374	2964.32
811.557	2995.12
811.74	3027.09
811.923	2891.08
812.106	2932.54
812.289	2901.15
812.472	2891.47
812.654	2950.56
812.837	2860.27
813.02	2792.46
813.203	2785.88
813.386	2650.64
813.569	2653.74
813.751	2581.28
813.934	2612.47
814.117	2571.01
814.3	2560.55
814.482	2519.67
814.665	2454.37
814.848	2392.18
815.03	2355.76
815.213	2363.31
815.396	2331.15
815.578	2349.94
815.761	2279.61
815.943	2372.81
816.126	2245.51
816.309	2221.3
816.491	2139.92
816.674	2090.9
816.856	2135.85
817.039	2122.68
817.221	2229.82
817.403	2135.27
817.586	2189.91
817.768	2189.13
817.951	2094
818.133	2097.49
818.315	2116.48
818.498	2155.23
818.68	2194.56
818.862	2195.14
819.045	2208.51
819.227	2213.93
819.409	2157.55
819.591	2190.68
819.774	2159.68
819.956	2103.3
820.138	2211.03
820.32	2201.73
820.502	2275.93
820.684	2339.87
820.866	2283.1
821.048	2381.52
821.231	2378.04
821.413	2374.55
821.595	2375.71
821.777	2403.03
821.959	2371.84
822.141	2421.05
822.323	2280.78
822.505	2212.77
822.686	2187.78
822.868	2103.5
823.05	1944.43
823.232	1932.22
823.414	1871.78
823.596	1943.46
823.778	1896.96
823.96	1965.55
824.141	1959.54
824.323	1975.43
824.505	2059.13
824.687	2119.58
824.868	2167.05
825.05	2245.51
825.232	2324.18
825.413	2376.29
825.595	2313.91
825.777	2226.53
825.958	2286.39
826.14	2299.57
826.321	2323.79
826.503	2256.75
826.685	2290.27
826.866	2297.44
827.048	2323.01
827.229	2246.29
827.411	2209.67
827.592	2151.35
827.773	2185.65
827.955	2117.83
828.136	2091.29
828.318	2091.29
828.499	2114.93
828.68	2055.06
828.862	2126.17
829.043	2154.26
829.224	2076.76
829.406	2050.02
829.587	2026.58
829.768	2066.3
829.949	2109.31
830.131	2116.28
830.312	2159.68
830.493	2084.7
830.674	2110.47
830.855	2074.44
831.036	2044.99
831.218	2129.27
831.399	2133.53
831.58	2121.71
831.761	2111.83
831.942	2122.48
832.123	2100.4
832.304	2040.92
832.485	2048.67
832.666	2049.83
832.847	2048.09
833.028	2063
833.209	2074.44
833.389	2061.84
833.57	2004.88
833.751	2034.14
833.932	2086.06
834.113	2047.89
834.294	2027.55
834.475	2085.09
834.655	2103.89
834.836	2101.56
835.017	2086.25
835.198	2043.24
835.378	2076.95
835.559	2103.11
835.74	2080.64
835.92	2072.69
836.101	1993.06
836.281	2124.03
836.462	2126.17
836.643	2190.49
836.823	2123.45
837.004	2134.5
837.184	2188.94
837.365	2166.85
837.545	2147.28
837.726	2087.22
837.906	2159.49
838.087	2129.07
838.267	2131.4
838.448	2065.33
838.628	2121.13
838.808	2082.19
838.989	2160.07
839.169	2075.4
839.349	2118.8
839.53	2166.08
839.71	2133.14
839.89	2081.8
840.07	2158.52
840.251	2080.25
840.431	2124.03
840.611	2092.84
840.791	2064.55
840.971	2093.23
841.151	2066.3
841.332	2049.25
841.512	2143.8
841.692	2027.35
841.872	2065.91
842.052	2072.89
842.232	2031.42
842.412	2019.02
842.592	2049.05
842.772	2093.81
842.952	2041.3
843.132	2047.31
843.312	2009.14
843.492	1987.83
843.672	2056.61
843.851	1978.53
844.031	2031.23
844.211	2015.34
844.391	2000.42
844.571	2033.55
844.751	2052.15
844.93	2035.49
845.11	1980.86
845.29	2009.92
845.47	2055.25
845.649	2042.85
845.829	2067.46
846.009	2012.44
846.188	2035.88
846.368	1985.7
846.547	1970.01
846.727	2017.86
846.907	1986.67
847.086	2005.66
847.266	2043.24
847.445	1997.71
847.625	1943.85
847.804	1949.66
847.984	1950.44
848.163	1962.26
848.343	1937.07
848.522	1978.34
848.701	1933.39
848.881	1905.68
849.06	1924.09
849.239	1955.86
849.419	1954.7
849.598	1897.35
849.777	1878.94
849.957	1814.23
850.136	1749.72
850.315	1765.99
850.494	1757.27
850.674	1788.66
850.853	1861.89
851.032	1816.36
851.211	1880.11
851.39	1819.27
851.569	1777.81
851.748	1749.91
851.927	1874.1
852.107	1808.42
852.286	1823.92
852.465	1772.96
852.644	1829.73
852.823	1845.04
853.002	1828.38
853.181	1804.74
853.359	1807.26
853.538	1721.43
853.717	1855.31
853.896	1684.03
854.075	1653.23
854.254	1591.04
854.433	1474.21
854.611	1568.95
854.79	1533.3
854.969	1569.72
855.148	1584.25
855.327	1533.11
855.505	1622.81
855.684	1614.87
855.863	1663.11
856.041	1593.94
856.22	1640.05
856.399	1649.35
856.577	1735.77
856.756	1731.31
856.934	1823.34
857.113	1833.22
857.291	1723.17
857.47	1732.28
857.648	1726.27
857.827	1731.89
858.005	1790.01
858.184	1696.24
858.362	1779.36
858.541	1725.5
858.719	1711.35
858.898	1694.5
859.076	1679.77
859.254	1754.56
859.433	1712.52
859.611	1685
859.789	1635.99
859.967	1734.8
860.146	1774.51
860.324	1599.95
860.502	1665.24
860.68	1592.2
860.859	1651.29
861.037	1655.75
861.215	1695.47
861.393	1703.99
861.571	1669.5
861.749	1625.52
861.927	1636.57
862.105	1642.19
862.283	1613.9
862.461	1633.27
862.639	1608.28
862.817	1626.1
862.995	1654.78
863.173	1588.32
863.351	1630.56
863.529	1648.39
863.707	1658.65
863.885	1632.11
864.063	1524.19
864.241	1581.54
864.418	1685.97
864.596	1579.41
864.774	1559.26
864.952	1575.15
865.129	1595.69
865.307	1541.24
865.485	1511.6
865.663	1570.5
865.84	1493.58
866.018	1537.17
866.196	1364.55
866.373	1404.65
866.551	1365.51
866.728	1308.17
866.906	1366.68
867.084	1405.43
867.261	1427.13
867.439	1452.7
867.616	1485.64
867.794	1443.21
867.971	1469.75
868.149	1465.68
868.326	1518.77
868.503	1514.7
868.681	1453.86
868.858	1458.32
869.035	1435.46
869.213	1510.44
869.39	1473.43
869.567	1550.93
869.745	1459.09
869.922	1482.73
870.099	1479.44
870.276	1501.14
870.454	1498.23
870.631	1469.36
870.808	1475.37
870.985	1484.28
871.162	1539.31
871.339	1474.59
871.517	1423.06
871.694	1405.81
871.871	1410.27
872.048	1412.4
872.225	1420.34
872.402	1457.16
872.579	1396.13
872.756	1440.88
872.933	1383.73
873.11	1402.91
873.287	1410.66
873.463	1369.2
873.64	1358.93
873.817	1462.97
873.994	1382.95
874.171	1335.29
874.348	1414.53
874.524	1307.2
874.701	1359.31
874.878	1321.53
875.055	1371.33
875.231	1376.95
875.408	1406.01
875.585	1298.09
875.762	1376.17
875.938	1350.4
876.115	1313.2
876.291	1326.57
876.468	1318.43
876.645	1281.62
876.821	1291.12
876.998	1326.76
877.174	1294.02
877.351	1321.73
877.527	1277.94
877.704	1304.87
877.88	1294.22
878.057	1263.41
878.233	1334.71
878.409	1293.05
878.586	1319.98
878.762	1276.97
878.938	1291.5
879.115	1228.73
879.291	1270.38
879.467	1222.34
879.644	1259.53
879.82	1287.24
879.996	1242.48
880.172	1185.14
880.349	1248.88
880.525	1270.58
880.701	1212.45
880.877	1232.99
881.053	1250.23
881.229	1255.27
881.405	1301
881.581	1201.8
881.757	1182.42
881.933	1253.53
882.109	1246.36
882.285	1209.94
882.461	1201.41
882.637	1261.47
882.813	1203.35
882.989	1240.35
883.165	1295.96
883.341	1202.77
883.517	1260.12
883.693	1260.12
883.869	1255.66
884.044	1215.36
884.22	1256.43
884.396	1293.44
884.572	1263.22
884.747	1276.58
884.923	1259.34
885.099	1292.28
885.275	1291.89
885.45	1210.71
885.626	1202.96
885.801	1226.02
885.977	1212.26
886.153	1134.37
886.328	1207.8
886.504	1189.79
886.679	1257.98
886.855	1195.79
887.03	1221.56
887.206	1248.1
887.381	1231.63
887.557	1238.8
887.732	1251.2
887.908	1226.4
888.083	1264.77
888.258	1233.77
888.434	1209.35
888.609	1238.22
888.784	1270.38
888.96	1208.39
889.135	1207.42
889.31	1160.92
889.485	1219.82
889.661	1216.52
889.836	1254.11
890.011	1271.16
890.186	1210.71
890.361	1163.44
890.537	1238.22
890.712	1240.93
890.887	1217.3
891.062	1226.4
891.237	1295.38
891.412	1170.6
891.587	1223.5
891.762	1241.13
891.937	1291.31
892.112	1196.37
892.287	1203.74
892.462	1177.97
892.637	1150.07
892.812	1122.17
892.987	1146.19
893.161	1115.19
893.336	1155.49
893.511	1157.43
893.686	1141.16
893.861	1150.84
894.035	1122.36
894.21	1147.16
894.385	1101.44
894.56	1133.6
894.734	1071.99
894.909	1036.14
895.084	1066.76
895.258	1041.18
895.433	1060.17
895.608	1056.49
895.782	986.16
895.957	995.26
896.131	1030.72
896.306	954.38
896.48	934.23
896.655	952.06
896.829	863.13
897.004	889.48
897.178	894.13
897.353	916.99
897.527	929
897.701	881.34
897.876	866.03
898.05	959.03
898.224	920.67
898.399	958.06
898.573	882.5
898.747	765.29
898.921	842.4
899.096	719.95
899.27	744.55
899.444	733.9
899.618	773.62
899.792	805.97
899.967	772.65
900.141	844.14
900.315	757.92
900.489	792.22
900.663	788.92
900.837	809.07
901.011	719.17
901.185	860.03
901.359	789.12
901.533	800.74
901.707	783.11
901.881	785.05
902.055	758.31
902.229	768
902.403	867.2
902.576	791.44
902.75	785.05
902.924	897.03
903.098	861
903.272	856.93
903.446	923.77
903.619	894.32
903.793	944.11
903.967	930.55
904.14	967.75
904.314	951.67
904.488	941.6
904.661	959.61
904.835	972.21
905.009	1003.98
905.182	1030.72
905.356	1003.98
905.529	961.36
905.703	933.46
905.876	924.93
906.05	896.84
906.223	862.74
906.397	815.27
906.57	799.97
906.744	765.87
906.917	793.96
907.09	809.46
907.264	752.69
907.437	745.72
907.61	706.97
907.784	716.07
907.957	756.76
908.13	705.61
908.304	771.1
908.477	696.51
908.65	702.71
908.823	664.34
908.996	739.32
909.17	703.48
909.343	695.73
909.516	715.88
909.689	704.64
909.862	651.75
910.035	671.12
910.208	656.98
910.381	687.21
910.554	771.68
910.727	701.54
910.9	673.84
911.073	672.87
911.246	726.54
911.419	747.46
911.592	723.05
911.765	684.69
911.938	648.65
912.11	677.13
912.283	695.92
912.456	750.17
912.629	691.66
912.802	677.32
912.974	662.79
913.147	593.04
913.32	547.9
913.493	571.34
913.665	607.19
913.838	604.48
914.01	598.86
914.183	612.23
914.356	611.06
914.528	662.79
914.701	716.07
914.873	649.23
915.046	613.39
915.218	580.26
915.391	494.43
915.563	520.97
915.736	573.67
915.908	592.85
916.081	575.61
916.253	579.48
916.425	597.5
916.598	634.89
916.77	593.63
916.942	580.06
917.115	520.97
917.287	574.06
917.459	545.96
917.632	514.77
917.804	501.98
917.976	564.37
918.148	560.88
918.32	567.86
918.493	603.51
918.665	668.41
918.837	600.99
919.009	662.99
919.181	666.47
919.353	614.16
919.525	598.08
919.697	604.28
919.869	600.02
920.041	659.31
920.213	735.25
920.385	654.27
920.557	614.55
920.729	658.53
920.901	637.22
921.073	614.16
921.244	608.16
921.416	680.23
921.588	617.46
921.76	579.29
921.932	650.01
922.103	589.17
922.275	597.69
922.447	633.92
922.619	545.58
922.79	606.41
922.962	604.28
923.134	621.72
923.305	526.2
923.477	513.8
923.648	511.09
923.82	544.22
923.991	510.12
924.163	493.07
924.335	524.65
924.506	517.48
924.677	583.36
924.849	500.82
925.02	522.91
925.192	597.69
925.363	555.65
925.535	535.11
925.706	522.52
925.877	569.02
926.049	519.23
926.22	563.79
926.391	522.33
926.562	602.54
926.734	495.2
926.905	565.73
927.076	481.83
927.247	492.49
927.419	473.5
927.59	442.89
927.761	483.96
927.932	449.86
928.103	483.19
928.274	409.76
928.445	402.78
928.616	404.14
928.787	404.33
928.958	437.66
929.129	448.31
929.3	413.05
929.471	362.87
929.642	302.62
929.813	272.59
929.984	378.18
930.155	261.54
930.326	329.16
930.496	302.04
930.667	216.01
930.838	283.24
931.009	240.04
931.18	254.37
931.35	249.92
931.521	261.35
931.692	176.88
931.863	164.48
932.033	185.21
932.204	201.09
932.374	192.37
932.545	142
932.716	232.67
932.886	193.15
933.057	120.88
933.227	136.58
933.398	202.06
933.568	103.44
933.739	64.31
933.909	97.05
934.08	140.06
934.25	35.63
934.421	90.66
934.591	118.17
934.761	87.75
934.932	58.69
935.102	105.58
935.272	104.41
935.443	86.98
935.613	70.12
935.783	122.43
935.953	49.2
936.123	246.24
936.294	111.97
936.464	83.3
936.634	103.64
936.804	34.08
936.974	36.21
937.144	84.26
937.314	90.46
937.484	84.85
937.655	79.61
937.825	160.02
937.995	72.25
938.165	136.77
938.334	89.88
938.504	117.01
938.674	110.03
938.844	105.38
939.014	185.4
939.184	168.35
939.354	234.42
939.524	211.17
939.694	168.16
939.863	170.87
940.033	247.4
940.203	225.7
940.373	208.65
940.542	200.9
940.712	182.88
940.882	192.37
941.051	202.26
941.221	206.91
941.391	178.04
941.56	146.84
941.73	153.04
941.899	242.94
942.069	167.19
942.238	175.13
942.408	133.86
942.577	184.62
942.747	124.37
942.916	94.53
943.086	140.06
943.255	172.42
943.425	140.64
943.594	103.64
943.763	67.8
943.933	93.37
944.102	43
944.271	132.31
944.441	153.04
944.61	132.31
944.779	122.43
944.948	195.86
945.117	79.23
945.287	97.44
945.456	62.18
945.625	92.21
945.794	135.61
945.963	89.3
946.132	149.94
946.301	111.78
946.47	128.44
946.639	62.37
946.808	89.69
946.977	147.43
947.146	178.43
947.315	87.36
947.484	148.2
947.653	114.1
947.822	85.23
947.991	99.96
948.16	204
948.329	172.03
948.498	146.07
948.666	141.42
948.835	163.31
949.004	72.45
949.173	76.51
949.341	126.31
949.51	137.54
949.679	157.89
949.847	136.58
950.016	225.51
950.185	177.26
950.353	100.15
950.522	104.41
950.69	172.61
950.859	117.01
951.028	177.26
951.196	140.84
951.365	107.13
951.533	107.71
951.701	141.03
951.87	155.56
952.038	92.4
952.207	128.05
952.375	160.02
952.543	115.07
952.712	117.2
952.88	105.77
953.048	181.72
953.217	124.95
953.385	118.75
953.553	165.06
953.721	90.85
953.89	129.21
954.058	71.48
954.226	107.71
954.394	118.75
954.562	76.32
954.73	125.34
954.898	89.3
955.067	152.27
955.235	89.88
955.403	154.59
955.571	204
955.739	133.28
955.907	109.26
956.075	103.44
956.243	82.91
956.41	123.79
956.578	75.74
956.746	68.38
956.914	81.55
957.082	143.74
957.25	142.78
957.418	96.28
957.585	129.99
957.753	164.67
957.921	81.75
958.089	93.95
958.256	144.91
958.424	133.28
958.592	150.14
958.759	80.39
958.927	134.06
959.095	101.12
959.262	115.84
959.43	126.89
959.597	94.73
959.765	128.63
959.932	70.31
960.1	151.49
960.267	104.99
960.435	108.09
960.602	158.66
960.77	94.15
960.937	65.28
961.104	121.85
961.272	78.65
961.439	104.22
961.606	155.76
961.774	159.83
961.941	96.28
962.108	116.43
962.275	111.78
962.443	149.56
962.61	140.45
962.777	182.49
962.944	143.36
963.111	125.92
963.278	144.13
963.446	121.08
963.613	133.48
963.78	148.78
963.947	154.4
964.114	137.93
964.281	196.44
964.448	159.83
964.615	106.93
964.782	133.09
964.949	162.15
965.116	145.68
965.282	172.81
965.449	112.74
965.616	128.24
965.783	167.38
965.95	166.03
966.117	82.91
966.283	128.44
966.45	146.07
966.617	124.18
966.784	195.28
966.95	145.49
967.117	184.43
967.284	109.26
967.45	90.08
967.617	162.93
967.784	166.22
967.95	189.27
968.117	174.94
968.283	199.74
968.45	249.14
968.616	166.8
968.783	177.65
968.949	153.43
969.116	194.89
969.282	142
969.449	179.59
969.615	161.18
969.781	111
969.948	139.87
970.114	92.21
970.28	210.01
970.447	156.92
970.613	227.44
970.779	156.53
970.945	154.4
971.112	159.83
971.278	144.13
971.444	168.74
971.61	217.95
971.776	132.31
971.942	161.57
972.108	175.91
972.275	167.19
972.441	176.88
972.607	211.36
972.773	139.09
972.939	168.35
973.105	135.61
973.271	92.4
973.437	131.15
973.602	107.71
973.768	152.08
973.934	115.84
974.1	158.66
974.266	43.58
974.432	156.34
974.598	142.58
974.763	160.02
974.929	134.25
975.095	194.31
975.261	111
975.426	93.76
975.592	141.42
975.758	204.58
975.923	77.29
976.089	111.97
976.255	152.66
976.42	138.71
976.586	159.83
976.751	140.64
976.917	222.02
977.082	185.01
977.248	66.83
977.413	64.89
977.579	104.22
977.744	153.04
977.91	100.93
978.075	98.41
978.24	174.74
978.406	117.78
978.571	90.85
978.736	108.09
978.902	140.26
979.067	89.88
979.232	57.72
979.397	135.99
979.563	197.99
979.728	112.55
979.893	107.51
980.058	109.64
980.223	151.11
980.388	94.34
980.554	118.36
980.719	111
980.884	151.49
981.049	173.19
981.214	120.88
981.379	139.87
981.544	117.2
981.709	136.96
981.874	135.03
982.039	135.99
982.204	149.94
982.368	132.7
982.533	119.14
982.698	161.18
982.863	162.54
983.028	104.8
983.193	118.36
983.357	163.12
983.522	149.17
983.687	117.98
983.852	98.02
984.016	134.25
984.181	134.06
984.346	148.01
984.51	166.99
984.675	96.08
984.839	148.39
985.004	125.73
985.168	170.87
985.333	137.16
985.498	118.56
985.662	147.62
985.827	144.91
985.991	123.01
986.155	96.47
986.32	180.36
986.484	176.88
986.649	134.25
986.813	74.77
986.977	123.21
987.142	126.69
987.306	72.25
987.47	104.03
987.634	104.99
987.799	145.68
987.963	130.38
988.127	152.66
988.291	194.31
988.455	146.65
988.62	88.33
988.784	139.68
988.948	152.08
989.112	90.27
989.276	112.16
989.44	134.25
989.604	87.95
989.768	116.04
989.932	198.77
990.096	66.83
990.26	86.01
990.424	72.83
990.588	96.86
990.752	179.39
990.915	140.26
991.079	86.01
991.243	82.33
991.407	120.49
991.571	104.03
991.734	140.06
991.898	129.02
992.062	203.22
992.226	67.21
992.389	38.15
992.553	4.83
992.717	79.61
992.88	96.28
993.044	99.76
993.207	98.21
993.371	131.93
993.535	122.04
993.698	106.16
993.862	117.39
994.025	149.75
994.189	93.37
994.352	113.33
994.515	119.53
994.679	152.08
994.842	72.83
995.006	119.53
995.169	71.67
995.332	54.43
995.496	130.76
995.659	52.1
995.822	94.73
995.985	77.1
996.149	154.79
996.312	94.34
996.475	135.03
996.638	74.96
996.801	157.5
996.964	160.21
997.128	123.21
997.291	86.78
997.454	98.02
997.617	51.13
997.78	127.66
997.943	62.76
998.106	129.21
998.269	91.82
998.432	86.78
998.595	92.79
998.758	46.1
998.92	40.28
999.083	27.3
999.246	84.46
999.409	50.16
999.572	48.81
999.735	47.45
999.897	76.9
1000.06	78.26
1000.223	91.63
1000.386	120.69
1000.548	100.15
1000.711	76.32
1000.874	101.51
1001.036	19.75
1001.199	124.95
1001.361	50.75
1001.524	103.25
1001.687	91.82
1001.849	49.97
1002.012	89.69
1002.174	98.21
1002.337	105.19
1002.499	82.33
1002.661	104.03
1002.824	40.86
1002.986	68.57
1003.149	77.87
1003.311	37.96
1003.473	128.44
1003.636	45.9
1003.798	117.98
1003.96	87.36
1004.123	70.51
1004.285	84.07
1004.447	71.67
1004.609	55.4
1004.771	127.47
1004.933	25.36
1005.096	36.41
1005.258	-12.8
1005.42	55.98
1005.582	111
1005.744	98.41
1005.906	22.46
1006.068	79.61
1006.23	14.9
1006.392	-4.47
1006.554	42.22
1006.716	84.46
1006.878	81.36
1007.04	18.58
1007.202	47.65
1007.363	87.95
1007.525	74.96
1007.687	83.3
1007.849	118.94
1008.011	11.22
1008.172	28.46
1008.334	31.18
1008.496	87.95
1008.658	-7.57
1008.819	18
1008.981	22.26
1009.143	41.45
1009.304	68.38
1009.466	95.69
1009.627	94.73
1009.789	156.14
1009.95	92.98
1010.112	51.13
1010.273	63.53
1010.435	38.35
1010.596	54.81
1010.758	72.25
1010.919	36.6
1011.081	3.47
1011.242	47.06
1011.403	79.61
1011.565	58.88
1011.726	93.37
1011.887	36.02
1012.049	30.79
1012.21	70.31
1012.371	131.15
1012.532	-15.9
1012.693	61.6
1012.855	31.56
1013.016	52.3
1013.177	87.95
1013.338	20.52
1013.499	135.41
1013.66	64.7
1013.821	71.48
1013.982	40.86
1014.143	43.38
1014.304	46.48
1014.465	72.83
1014.626	88.33
1014.787	46.29
1014.948	123.4
1015.109	-23.46
1015.27	81.75
1015.431	47.26
1015.592	34.47
1015.752	86.78
1015.913	83.3
1016.074	47.65
1016.235	41.45
1016.395	67.99
1016.556	38.93
1016.717	36.6
1016.877	82.52
1017.038	26.33
1017.199	47.45
1017.359	46.1
1017.52	59.85
1017.681	14.9
1017.841	41.83
1018.002	23.62
1018.162	9.48
1018.323	101.51
1018.483	24.4
1018.644	32.15
1018.804	-25.59
1018.964	11.22
1019.125	8.9
1019.285	58.69
1019.446	26.91
1019.606	-9.12
1019.766	-51.75
1019.926	57.72
1020.087	43.77
1020.247	-26.37
1020.407	44.93
1020.567	79.03
1020.728	43.96
1020.888	-2.92
1021.048	60.43
1021.208	-0.6
1021.368	6.38
1021.528	74.38
1021.688	73.41
1021.848	59.85
1022.008	61.79
1022.168	34.08
1022.328	55.2
1022.488	50.94
1022.648	31.95
1022.808	33.31
1022.968	60.05
1023.128	13.16
1023.288	18.39
1023.448	25.17
1023.608	61.6
1023.767	57.33
1023.927	18.39
1024.087	-2.92
1024.247	1.53
1024.406	14.71
1024.566	-10.28
1024.726	3.28
1024.885	27.69
1025.045	31.95
1025.205	26.91
1025.364	31.18
1025.524	28.66
1025.683	28.27
1025.843	47.84
1026.003	30.4
1026.162	101.89
1026.321	72.06
1026.481	28.66
1026.64	10.83
1026.8	37.96
1026.959	32.34
1027.119	39.7
1027.278	-7.77
1027.437	13.93
1027.597	37.96
1027.756	47.06
1027.915	46.1
1028.074	55.98
1028.234	15.87
1028.393	47.65
1028.552	-7.18
1028.711	-55.23
1028.87	50.94
1029.03	-20.94
1029.189	25.56
1029.348	-46.32
1029.507	-4.67
1029.666	15.68
1029.825	-14.35
1029.984	18.97
1030.143	47.45
1030.302	19.55
1030.461	-22.49
1030.62	24.4
1030.779	47.06
1030.938	-6.99
1031.097	-2.73
1031.255	59.27
1031.414	81.16
1031.573	59.27
1031.732	-20.55
1031.891	-3.31
1032.049	71.86
1032.208	30.98
1032.367	5.41
1032.525	-12.8
1032.684	19.75
1032.843	50.55
1033.001	-50.58
1033.16	175.91
1033.319	74.77
1033.477	49
1033.636	-27.72
1033.794	-19.39
1033.953	54.43
1034.111	35.63
1034.27	8.7
1034.428	18.78
1034.587	4.44
1034.745	27.11
1034.903	20.91
1035.062	42.03
1035.22	-25.78
1035.378	57.14
1035.537	-9.7
1035.695	70.7
1035.853	8.12
1036.011	53.07
1036.17	45.9
1036.328	-67.44
1036.486	48.03
1036.644	38.93
1036.802	-70.54
1036.96	5.99
1037.119	11.22
1037.277	-11.06
1037.435	-42.83
1037.593	-13.58
1037.751	5.41
1037.909	35.83
1038.067	35.83
