Data from gum_old_FLMT105791__50__15-43-38-257.txt Node

Date: Mon Mar 20 15:43:38 GMT 2023
User: antho
Spectrometer: FLMT10579
Trigger mode: 0
Integration Time (sec): 1.000000E-1
Scans to average: 10
Electric dark correction enabled: true
Nonlinearity correction enabled: false
Boxcar width: 0
XAxis mode: Wavelengths
Number of Pixels in Spectrum: 3648
>>>>>Begin Spectral Data<<<<<
345.248	-179.54
345.464	-179.54
345.681	-179.54
345.898	-177.02
346.114	-160.75
346.331	-29.97
346.548	31.45
346.764	-2.45
346.981	-8.85
347.197	-31.52
347.414	-6.14
347.631	1.42
347.847	74.46
348.064	-4.39
348.28	39.98
348.497	-66.97
348.713	2.97
348.93	26.61
349.146	33.97
349.363	0.45
349.579	13.24
349.796	9.56
350.012	10.33
350.229	42.88
350.445	14.01
350.661	11.88
350.878	21.18
351.094	29.32
351.311	42.11
351.527	45.01
351.743	2.78
351.96	40.36
352.176	67.88
352.392	36.49
352.609	61.68
352.825	13.24
353.041	8.59
353.257	28.16
353.474	25.45
353.69	41.14
353.906	1.61
354.122	-26.29
354.339	73.3
354.555	46.37
354.771	21.76
354.987	92.29
355.203	88.8
355.42	16.15
355.636	-4.39
355.852	17.11
356.068	19.25
356.284	-4.2
356.5	65.16
356.716	34.55
356.932	20.41
357.148	66.13
357.364	21.57
357.58	48.31
357.796	64.97
358.012	62.06
358.228	39.59
358.444	-41.2
358.66	61.29
358.876	31.84
359.092	16.53
359.308	20.6
359.524	39.78
359.74	26.22
359.956	15.18
360.172	59.74
360.388	65.94
360.604	12.66
360.819	108.76
361.035	50.44
361.251	59.54
361.467	-5.75
361.683	70.2
361.898	45.4
362.114	66.33
362.33	38.23
362.546	59.54
362.762	40.75
362.977	51.6
363.193	6.85
363.409	76.21
363.624	15.76
363.84	17.31
364.056	31.26
364.271	47.34
364.487	33.97
364.703	16.53
364.918	-1.87
365.134	30.29
365.35	49.28
365.565	139.18
365.781	42.11
365.996	88.22
366.212	103.91
366.427	98.68
366.643	4.33
366.858	42.11
367.074	20.6
367.289	132.98
367.505	157.97
367.72	10.91
367.936	50.25
368.151	85.31
368.367	71.75
368.582	78.92
368.798	34.36
369.013	104.69
369.228	67.29
369.444	56.83
369.659	99.07
369.874	66.71
370.09	111.28
370.305	7.23
370.52	33.78
370.736	110.89
370.951	69.23
371.166	97.91
371.381	122.9
371.597	87.64
371.812	49.28
372.027	25.83
372.242	46.76
372.458	118.44
372.673	50.83
372.888	77.56
373.103	86.28
373.318	154.87
373.533	72.91
373.749	72.33
373.964	-9.43
374.179	107.21
374.394	3.55
374.609	98.88
374.824	15.56
375.039	74.66
375.254	61.09
375.469	90.16
375.684	62.26
375.899	97.33
376.114	52.96
376.329	77.95
376.544	93.06
376.759	88.03
376.974	42.3
377.189	55.48
377.404	64.78
377.619	125.61
377.834	38.62
378.049	41.53
378.264	56.06
378.478	86.28
378.693	73.88
378.908	101.59
379.123	64.39
379.338	122.9
379.553	82.99
379.767	77.95
379.982	113.99
380.197	100.81
380.412	66.91
380.626	107.01
380.841	163.39
381.056	115.15
381.271	145.96
381.485	53.54
381.7	56.45
381.915	98.29
382.129	74.27
382.344	86.67
382.559	51.21
382.773	120.77
382.988	15.95
383.202	70.78
383.417	52.38
383.632	179.47
383.846	79.5
384.061	100.81
384.275	58
384.49	98.29
384.704	118.83
384.919	90.54
385.133	86.09
385.348	132.39
385.562	97.33
385.777	154.29
385.991	84.15
386.206	66.71
386.42	80.28
386.634	145.96
386.849	113.99
387.063	102.56
387.277	84.15
387.492	69.23
387.706	78.73
387.92	88.8
388.135	133.75
388.349	116.89
388.563	137.24
388.778	106.43
388.992	128.71
389.206	141.5
389.42	203.89
389.635	114.57
389.849	170.56
390.063	168.04
390.277	122.9
390.491	221.91
390.706	156.22
390.92	163.39
391.134	165.72
391.348	151.96
391.562	106.43
391.776	151.57
391.99	113.99
392.205	189.16
392.419	117.86
392.633	113.41
392.847	204.66
393.061	100.81
393.275	163.78
393.489	117.48
393.703	124.06
393.917	134.72
394.131	60.9
394.345	108.95
394.559	151.38
394.773	105.85
394.986	153.51
395.2	143.05
395.414	202.34
395.628	126
395.842	185.48
396.056	182.38
396.27	97.91
396.484	170.17
396.697	166.88
396.911	177.15
397.125	149.44
397.339	171.72
397.553	138.59
397.766	200.21
397.98	176.57
398.194	194.39
398.408	178.51
398.621	240.12
398.835	228.88
399.049	213.38
399.262	282.74
399.476	256.78
399.69	273.83
399.903	294.56
400.117	226.17
400.331	264.53
400.544	222.49
400.758	346.48
400.971	256.59
401.185	287.2
401.398	225.78
401.612	306.19
401.826	289.52
402.039	315.49
402.253	263.95
402.466	303.67
402.68	275.57
402.893	304.83
403.106	291.65
403.32	268.02
403.533	259.1
403.747	268.02
403.96	279.25
404.174	294.37
404.387	243.99
404.6	289.91
404.814	331.57
405.027	297.85
405.24	275.77
405.454	281.39
405.667	340.28
405.88	249.03
406.094	311.61
406.307	340.09
406.52	288.55
406.733	247.67
406.947	225.39
407.16	349.97
407.373	329.24
407.586	256.2
407.799	256
408.012	348.03
408.226	310.25
408.439	358.69
408.652	245.54
408.865	342.8
409.078	380.78
409.291	318.59
409.504	305.22
409.717	350.17
409.93	344.16
410.143	307.35
410.357	282.55
410.57	242.44
410.783	318
410.996	311.22
411.209	341.25
411.421	371.09
411.634	360.63
411.847	321.3
412.06	370.51
412.273	362.76
412.486	382.13
412.699	445.68
412.912	379.81
413.125	386.98
413.338	354.62
413.55	356.75
413.763	342.8
413.976	380.97
414.189	341.25
414.402	369.54
414.615	427.28
414.827	337.57
415.04	400.73
415.253	398.8
415.466	395.7
415.678	453.24
415.891	365.67
416.104	395.12
416.316	360.05
416.529	367.02
416.742	408.1
416.954	447.62
417.167	419.53
417.38	359.08
417.592	468.74
417.805	351.52
418.017	343.19
418.23	418.56
418.442	354.82
418.655	378.07
418.868	376.13
419.08	436.58
419.293	417.01
419.505	436
419.718	418.17
419.93	428.63
420.142	392.4
420.355	422.43
420.567	454.98
420.78	410.81
420.992	394.15
421.205	467
421.417	387.17
421.629	408.68
421.842	380.97
422.054	366.25
422.266	463.51
422.479	479.4
422.691	402.48
422.903	477.07
423.115	396.08
423.328	405.97
423.54	410.81
423.752	425.34
423.964	415.07
424.177	462.35
424.389	441.81
424.601	523.76
424.813	448.01
425.025	480.36
425.238	429.6
425.45	423.98
425.662	435.8
425.874	743.86
426.086	455.56
426.298	480.56
426.51	469.51
426.722	461.76
426.934	428.63
427.146	493.54
427.358	452.66
427.57	452.46
427.782	397.44
427.994	431.54
428.206	369.54
428.418	405
428.63	469.32
428.842	500.13
429.054	457.7
429.266	485.98
429.478	395.5
429.69	442.58
429.902	398.22
430.114	450.14
430.325	428.05
430.537	369.93
430.749	393.37
430.961	293.01
431.173	361.02
431.384	365.67
431.596	285.84
431.808	388.53
432.02	453.43
432.231	485.98
432.443	548.56
432.655	495.67
432.867	464.09
433.078	520.08
433.29	554.57
433.502	531.51
433.713	522.99
433.925	558.64
434.136	581.5
434.348	453.24
434.56	440.65
434.771	567.94
434.983	461.96
435.194	503.61
435.406	520.86
435.617	584.02
435.829	597
436.04	595.26
436.252	597.58
436.463	609.4
436.675	627.03
436.886	573.17
437.098	620.25
437.309	643.89
437.521	599.13
437.732	596.42
437.943	565.61
438.155	569.49
438.366	525.51
438.578	634.78
438.789	550.11
439	559.03
439.211	544.11
439.423	550.11
439.634	589.06
439.845	609.21
440.057	574.72
440.268	602.81
440.479	584.99
440.69	635.36
440.902	587.31
441.113	616.76
441.324	617.15
441.535	624.51
441.746	665.97
441.957	620.44
442.168	619.86
442.38	658.03
442.591	676.82
442.802	651.44
443.013	671.79
443.224	702.98
443.435	664.81
443.646	678.95
443.857	657.84
444.068	649.31
444.279	635.17
444.49	732.24
444.701	668.11
444.912	802.57
445.123	754.52
445.334	705.69
445.545	703.17
445.756	661.32
445.967	645.82
446.178	703.95
446.388	686.12
446.599	710.73
446.81	693.49
447.021	665.39
447.232	714.6
447.443	745.22
447.653	699.1
447.864	763.04
448.075	714.99
448.286	760.33
448.496	746.77
448.707	791.52
448.918	691.94
449.129	798.88
449.339	725.84
449.55	746.19
449.761	687.87
449.971	770.98
450.182	733.59
450.393	785.9
450.603	718.48
450.814	799.27
451.024	786.87
451.235	823.1
451.446	802.76
451.656	848.68
451.867	754.32
452.077	791.33
452.288	832.6
452.498	819.81
452.709	772.15
452.919	770.6
453.13	753.94
453.34	786.29
453.55	705.69
453.761	802.18
453.971	767.69
454.182	772.92
454.392	767.3
454.602	839.77
454.813	815.74
455.023	804.31
455.233	742.5
455.444	782.8
455.654	701.43
455.864	786.48
456.075	777.96
456.285	752.58
456.495	761.88
456.705	821.17
456.916	851.78
457.126	869.8
457.336	802.18
457.546	737.66
457.756	777.18
457.967	862.63
458.177	799.47
458.387	819.62
458.597	785.32
458.807	761.49
459.017	761.68
459.227	771.76
459.437	776.6
459.647	825.04
459.857	846.16
460.068	795.4
460.278	870.76
460.488	847.9
460.698	884.33
460.908	810.9
461.117	761.88
461.327	808.77
461.537	847.32
461.747	864.18
461.957	861.27
462.167	975.39
462.377	926.37
462.587	841.12
462.797	937.8
463.007	839.77
463.216	900.21
463.426	939.93
463.636	900.6
463.846	806.63
464.056	849.26
464.265	922.3
464.475	811.67
464.685	877.74
464.895	896.53
465.104	866.89
465.314	929.28
465.524	871.15
465.733	805.86
465.943	937.61
466.153	960.47
466.362	912.03
466.572	918.81
466.782	875.41
466.991	930.05
467.201	944.97
467.41	805.08
467.62	887.43
467.829	889.36
468.039	924.63
468.249	902.73
468.458	907.19
468.668	949.62
468.877	950.39
469.086	996.12
469.296	999.03
469.505	957.56
469.715	1024.21
469.924	964.34
470.134	1015.3
470.343	1012.2
470.552	930.83
470.762	975
470.971	920.17
471.18	978.88
471.39	973.45
471.599	947.88
471.808	986.24
472.018	983.14
472.227	1070.13
472.436	1067.22
472.645	1044.75
472.855	999.03
473.064	1116.24
473.273	1066.84
473.482	1063.16
473.691	1088.15
473.901	1078.46
474.11	1043.97
474.319	1148.21
474.528	1059.09
474.737	1134.84
474.946	1124.77
475.155	1126.51
475.364	1171.65
475.573	1147.44
475.783	1153.83
475.992	1168.17
476.201	1190.45
476.41	1115.85
476.619	1141.04
476.828	1173.79
477.037	1127.87
477.245	1135.62
477.454	1167.97
477.663	1166.42
477.872	1187.54
478.081	1302.05
478.29	1180.37
478.499	1337.5
478.708	1275.31
478.917	1330.91
479.125	1226.29
479.334	1252.45
479.543	1235.4
479.752	1296.81
479.961	1258.45
480.169	1350.87
480.378	1310.18
480.587	1429.73
480.796	1342.15
481.004	1312.31
481.213	1339.44
481.422	1353.39
481.63	1375.86
481.839	1402.21
482.048	1441.74
482.256	1409.77
482.465	1463.05
482.674	1424.69
482.882	1470.8
483.091	1505.67
483.299	1441.35
483.508	1493.08
483.716	1446.39
483.925	1464.99
484.134	1416.74
484.342	1467.31
484.551	1518.27
484.759	1473.12
484.967	1548.1
485.176	1528.92
485.384	1507.42
485.593	1525.63
485.801	1513.04
486.01	1425.08
486.218	1384.78
486.426	1284.41
486.635	1299.14
486.843	1267.17
487.051	1328.98
487.26	1316.58
487.468	1347.38
487.676	1414.61
487.885	1405.31
488.093	1458.21
488.301	1530.09
488.509	1509.94
488.717	1564.57
488.926	1522.34
489.134	1522.53
489.342	1506.64
489.55	1508.97
489.758	1508.97
489.967	1537.64
490.175	1690.12
490.383	1637.42
490.591	1695.35
490.799	1586.47
491.007	1718.8
491.215	1642.46
491.423	1661.64
491.631	1633.55
491.839	1634.71
492.047	1690.9
492.255	1582.01
492.463	1556.82
492.671	1583.95
492.879	1649.82
493.087	1614.95
493.295	1625.99
493.503	1694.38
493.711	1726.35
493.919	1747.28
494.127	1752.7
494.334	1702.52
494.542	1657.57
494.75	1695.74
494.958	1707.75
495.166	1774.98
495.374	1756.19
495.581	1770.72
495.789	1795.33
495.997	1825.36
496.205	1739.72
496.412	1688.18
496.62	1780.6
496.828	1798.62
497.035	1773.43
497.243	1818.38
497.451	1752.9
497.658	1811.41
497.866	1729.06
498.074	1850.54
498.281	1769.36
498.489	1849.38
498.696	1768.98
498.904	1725.96
499.112	1732.16
499.319	1839.69
499.527	1761.23
499.734	1809.08
499.942	1775.76
500.149	1829.43
500.357	1848.8
500.564	1756.96
500.771	1780.02
500.979	1731.78
501.186	1736.81
501.394	1787
501.601	1709.5
501.808	1782.54
502.016	1776.53
502.223	1725.38
502.43	1744.95
502.638	1742.43
502.845	1731.39
503.052	1841.44
503.26	1793.78
503.467	1870.69
503.674	1827.88
503.881	1868.18
504.089	1934.24
504.296	1846.48
504.503	1763.36
504.71	1788.16
504.917	1767.04
505.125	1818.19
505.332	1798.04
505.539	1813.34
505.746	1933.08
505.953	1890.07
506.16	1910.8
506.367	1957.49
506.574	1976.87
506.781	1979.97
506.988	1879.99
507.195	1928.04
507.402	1932.89
507.609	1944.32
507.816	1892.2
508.023	1895.69
508.23	1851.71
508.437	1821.09
508.644	1868.76
508.851	1928.82
509.058	1930.17
509.265	1914.09
509.472	1948.58
509.679	2028.6
509.885	1930.56
510.092	1921.65
510.299	1949.94
510.506	1943.35
510.713	1927.07
510.92	1919.52
511.126	1940.06
511.333	1969.31
511.54	2028.4
511.746	2027.24
511.953	1985.97
512.16	2027.63
512.367	2022.79
512.573	1957.49
512.78	1993.14
512.987	1988.69
513.193	1948
513.4	1858.29
513.606	1944.12
513.813	1975.32
514.02	1940.44
514.226	2021.82
514.433	1967.76
514.639	1922.42
514.846	1945.09
515.052	1916.03
515.259	1962.53
515.465	1917.77
515.672	1973.19
515.878	2036.93
516.085	1997.02
516.291	2041.58
516.497	1967.96
516.704	1930.37
516.91	1877.09
517.117	1816.25
517.323	1766.85
517.529	1766.07
517.736	1780.21
517.942	1735.46
518.148	1811.79
518.354	1848.41
518.561	1852.87
518.767	1822.84
518.973	1909.25
519.179	1924.36
519.386	1906.34
519.592	1930.17
519.798	1918.16
520.004	2035.57
520.21	1983.65
520.417	2052.43
520.623	2070.83
520.829	2101.06
521.035	2092.73
521.241	2059.02
521.447	2087.88
521.653	2207.23
521.859	2080.33
522.065	2123.53
522.271	2262.84
522.477	2189.21
522.683	2222.54
522.889	2163.25
523.095	2156.66
523.301	2128.18
523.507	2101.25
523.713	2167.32
523.919	2106.1
524.125	2208.59
524.331	2196.58
524.537	2295.58
524.742	2279.11
524.948	2282.79
525.154	2270.2
525.36	2339.95
525.566	2264.39
525.772	2308.76
525.977	2237.26
526.183	2259.16
526.389	2324.06
526.595	2225.64
526.8	2204.91
527.006	2133.42
527.212	2078.97
527.417	2057.47
527.623	2051.27
527.829	2135.16
528.034	2165.19
528.24	2156.86
528.446	2216.34
528.651	2277.95
528.857	2274.66
529.062	2362.04
529.268	2336.46
529.473	2392.46
529.679	2371.92
529.884	2460.85
530.09	2419.19
530.295	2436.24
530.501	2394.59
530.706	2373.86
530.912	2399.82
531.117	2394.2
531.323	2435.66
531.528	2448.84
531.733	2489.72
531.939	2431.2
532.144	2477.12
532.35	2455.81
532.555	2508.12
532.76	2439.73
532.966	2443.99
533.171	2390.32
533.376	2351.19
533.581	2309.73
533.787	2380.64
533.992	2431.79
534.197	2400.21
534.402	2425.2
534.607	2434.89
534.813	2529.82
535.018	2393.04
535.223	2425.59
535.428	2468.6
535.633	2513.93
535.838	2528.85
536.043	2526.14
536.249	2616.81
536.454	2511.03
536.659	2577.48
536.864	2531.95
537.069	2507.54
537.274	2528.85
537.479	2495.14
537.684	2492.24
537.889	2443.99
538.094	2560.24
538.299	2545.32
538.504	2498.82
538.708	2532.34
538.913	2542.61
539.118	2516.26
539.323	2561.4
539.528	2452.32
539.733	2541.06
539.938	2521.68
540.142	2544.16
540.347	2500.57
540.552	2431.59
540.757	2454.84
540.962	2451.94
541.166	2406.79
541.371	2412.8
541.576	2434.89
541.781	2397.49
541.985	2515.87
542.19	2471.12
542.395	2579.42
542.599	2590.27
542.804	2558.88
543.008	2631.93
543.213	2537.96
543.418	2511.22
543.622	2553.85
543.827	2517.03
544.031	2584.85
544.236	2589.88
544.44	2565.28
544.645	2676.3
544.849	2609.06
545.054	2646.65
545.258	2700.51
545.463	2678.04
545.667	2592.6
545.872	2612.94
546.076	2613.91
546.281	2589.11
546.485	2577.87
546.689	2634.25
546.894	2644.33
547.098	2615.46
547.302	2546.29
547.507	2610.61
547.711	2627.86
547.915	2651.5
548.119	2554.04
548.324	2579.42
548.528	2657.31
548.732	2554.62
548.936	2637.74
549.141	2617.01
549.345	2583.1
549.549	2593.37
549.753	2627.66
549.957	2740.62
550.161	2702.84
550.366	2649.95
550.57	2611
550.774	2599.18
550.978	2623.01
551.182	2653.24
551.386	2580.78
551.59	2586.01
551.794	2579.42
551.998	2613.52
552.202	2593.76
552.406	2585.43
552.61	2665.06
552.814	2627.08
553.018	2665.06
553.222	2645.49
553.426	2589.69
553.63	2663.12
553.833	2600.93
554.037	2545.52
554.241	2599.76
554.445	2580.78
554.649	2567.22
554.853	2589.3
555.056	2652.46
555.26	2637.35
555.464	2650.91
555.668	2623.21
555.871	2636.96
556.075	2691.6
556.279	2578.07
556.483	2535.05
556.686	2559.66
556.89	2553.65
557.094	2613.52
557.297	2524.4
557.501	2606.74
557.704	2484.68
557.908	2588.92
558.112	2516.65
558.315	2581.75
558.519	2552.68
558.722	2531.18
558.926	2532.15
559.129	2427.14
559.333	2432.95
559.536	2396.91
559.74	2424.04
559.943	2432.17
560.147	2409.12
560.35	2430.62
560.553	2414.35
560.757	2369.59
560.96	2493.4
561.164	2409.89
561.367	2486.81
561.57	2478.48
561.774	2466.66
561.977	2420.55
562.18	2468.4
562.384	2494.37
562.587	2381.99
562.79	2434.69
562.993	2394.01
563.197	2461.04
563.4	2527.5
563.603	2481.77
563.806	2536.99
564.009	2409.7
564.212	2475.57
564.416	2334.91
564.619	2434.3
564.822	2380.64
565.025	2484.1
565.228	2424.04
565.431	2444.19
565.634	2339.76
565.837	2350.61
566.04	2368.04
566.243	2308.76
566.446	2259.35
566.649	2342.66
566.852	2256.44
567.055	2329.68
567.258	2354.67
567.461	2387.22
567.664	2402.34
567.867	2279.31
568.07	2357.58
568.273	2335.3
568.475	2355.45
568.678	2318.64
568.881	2273.11
569.084	2305.27
569.287	2171
569.489	2227.58
569.692	2255.67
569.895	2289.58
570.098	2225.06
570.3	2225.45
570.503	2194.06
570.706	2168.68
570.909	2166.55
571.111	2128.96
571.314	2134.58
571.516	2162.28
571.719	2154.34
571.922	2131.28
572.124	2132.83
572.327	2193.67
572.529	2110.36
572.732	2174.88
572.935	2204.13
573.137	2236.3
573.34	2168.87
573.542	2208.4
573.745	2181.85
573.947	2146.78
574.15	2149.3
574.352	2162.86
574.554	2209.17
574.757	2121.79
574.959	2084.4
575.162	2107.26
575.364	2105.13
575.566	2202.39
575.769	2100.48
575.971	2137.68
576.173	1983.65
576.376	2049.52
576.578	2126.05
576.78	2159.57
576.982	1982.68
577.185	2090.98
577.387	2041.58
577.589	2074.9
577.791	2127.8
577.993	2100.48
578.196	2085.95
578.398	2098.15
578.6	2124.7
578.802	2008.25
579.004	2014.07
579.206	2030.73
579.408	2059.21
579.61	2017.94
579.812	2053.98
580.014	2010
580.216	2038.29
580.418	2052.04
580.62	1994.89
580.822	1970.47
581.024	2033.44
581.226	2060.57
581.428	2041
581.63	2100.67
581.832	2003.02
582.034	2075.29
582.236	2053.59
582.438	2081.1
582.64	2099.9
582.841	2107.26
583.043	2175.85
583.245	2068.12
583.447	2086.92
583.649	2028.99
583.85	2055.34
584.052	2068.7
584.254	1988.1
584.456	2098.15
584.657	2045.26
584.859	2069.87
585.061	2006.7
585.262	2016
585.464	1967.96
585.666	2053.4
585.867	2000.89
586.069	2015.04
586.27	2018.91
586.472	1975.12
586.674	1959.62
586.875	1982.49
587.077	1953.42
587.278	1986.75
587.48	1971.25
587.681	2087.3
587.883	1995.27
588.084	1923.78
588.285	1915.64
588.487	1912.54
588.688	1925.91
588.89	1899.17
589.091	1813.93
589.292	1797.46
589.494	1788.93
589.695	1751.93
589.896	1700.97
590.098	1689.15
590.299	1754.06
590.5	1720.93
590.702	1738.95
590.903	1799.2
591.104	1859.84
591.305	1852.48
591.507	1871.86
591.708	1883.87
591.909	1850.54
592.11	1878.25
592.311	1889.68
592.512	1859.26
592.714	1774.98
592.915	1815.09
593.116	1813.15
593.317	1835.24
593.518	1816.25
593.719	1830.2
593.92	1877.86
594.121	1899.76
594.322	1825.74
594.523	1837.18
594.724	1805.79
594.925	1810.05
595.126	1801.14
595.327	1826.33
595.528	1815.86
595.729	1857.13
595.929	1831.36
596.13	1855.97
596.331	1809.86
596.532	1827.49
596.733	1892.01
596.934	1878.25
597.135	1893.75
597.335	1859.26
597.536	1787
597.737	1840.28
597.938	1793.58
598.138	1850.93
598.339	1812.18
598.54	1813.15
598.74	1803.08
598.941	1810.63
599.142	1842.99
599.342	1811.6
599.543	1776.15
599.744	1831.56
599.944	1775.76
600.145	1770.53
600.345	1797.85
600.546	1892.98
600.746	1879.61
600.947	1888.91
601.147	1803.27
601.348	1853.84
601.548	1743.6
601.749	1796.88
601.949	1743.79
602.15	1780.8
602.35	1780.6
602.551	1802.5
602.751	1752.31
602.951	1820.9
603.152	1707.37
603.352	1822.26
603.552	1795.91
603.753	1791.65
603.953	1811.79
604.153	1824
604.354	1811.21
604.554	1832.91
604.754	1811.79
604.954	1764.71
605.155	1826.33
605.355	1792.42
605.555	1833.69
605.755	1847.25
605.955	1799.4
606.155	1834.85
606.356	1801.72
606.556	1806.37
606.756	1791.65
606.956	1753.09
607.156	1837.18
607.356	1743.6
607.556	1803.08
607.756	1779.83
607.956	1816.25
608.156	1789.13
608.356	1742.82
608.556	1837.18
608.756	1765.88
608.956	1735.65
609.156	1738.75
609.356	1703.3
609.556	1707.95
609.755	1744.37
609.955	1676.56
610.155	1716.08
610.355	1678.11
610.555	1690.12
610.755	1667.84
610.954	1657.57
611.154	1727.51
611.354	1711.24
611.554	1682.18
611.753	1690.12
611.953	1655.63
612.153	1717.63
612.352	1689.93
612.552	1638.97
612.752	1638.78
612.951	1688.57
613.151	1656.02
613.351	1651.57
613.55	1659.12
613.75	1671.33
613.949	1620.57
614.149	1649.63
614.348	1609.91
614.548	1600.22
614.747	1593.64
614.947	1622.7
615.146	1525.24
615.346	1648.27
615.545	1629.87
615.745	1625.41
615.944	1646.14
616.144	1625.6
616.343	1667.84
616.542	1582.2
616.742	1607
616.941	1575.42
617.14	1522.92
617.34	1584.92
617.539	1576.2
617.738	1584.72
617.938	1661.06
618.137	1598.09
618.336	1557.6
618.535	1629.09
618.734	1602.35
618.934	1595.77
619.133	1648.47
619.332	1640.91
619.531	1556.63
619.73	1614.17
619.929	1636.45
620.128	1618.24
620.328	1656.99
620.527	1618.44
620.726	1588.79
620.925	1601.39
621.124	1607.59
621.323	1598.87
621.522	1526.99
621.721	1593.25
621.92	1554.89
622.119	1604.29
622.318	1561.67
622.517	1523.69
622.715	1585.89
622.914	1520.98
623.113	1521.56
623.312	1469.06
623.511	1536.29
623.71	1496.18
623.909	1495.21
624.107	1577.94
624.306	1464.41
624.505	1470.02
624.704	1504.71
624.902	1496.96
625.101	1524.66
625.3	1480.29
625.499	1449.49
625.697	1458.4
625.896	1431.28
626.095	1463.05
626.293	1443.87
626.492	1457.43
626.69	1458.21
626.889	1466.34
627.088	1524.47
627.286	1449.49
627.485	1469.06
627.683	1451.23
627.882	1479.13
628.08	1417.13
628.279	1448.52
628.477	1468.67
628.676	1379.74
628.874	1459.17
629.073	1430.89
629.271	1421.59
629.469	1442.51
629.668	1452.59
629.866	1425.27
630.065	1379.35
630.263	1442.32
630.461	1400.66
630.66	1419.07
630.858	1446.58
631.056	1446.97
631.254	1455.3
631.453	1377.41
631.651	1419.84
631.849	1410.74
632.047	1404.54
632.245	1395.82
632.444	1438.25
632.642	1439.41
632.84	1439.8
633.038	1412.09
633.236	1389.62
633.434	1382.26
633.632	1372.76
633.83	1377.8
634.028	1453.75
634.227	1407.06
634.425	1483.97
634.623	1412.48
634.821	1421.78
635.019	1416.36
635.216	1425.08
635.414	1448.13
635.612	1411.32
635.81	1412.87
636.008	1471.19
636.206	1361.14
636.404	1419.65
636.602	1390.59
636.8	1390.98
636.997	1447.16
637.195	1451.23
637.393	1418.29
637.591	1474.48
637.789	1423.33
637.986	1400.47
638.184	1429.14
638.382	1456.27
638.58	1474.48
638.777	1502.96
638.975	1421.39
639.173	1404.15
639.37	1414.42
639.568	1408.99
639.765	1428.95
639.963	1365.79
640.161	1416.74
640.358	1443.48
640.556	1347.38
640.753	1351.65
640.951	1338.28
641.148	1374.7
641.346	1361.14
641.543	1368.31
641.741	1373.73
641.938	1338.86
642.136	1343.31
642.333	1319.68
642.531	1382.06
642.728	1441.74
642.925	1399.11
643.123	1352.42
643.32	1370.05
643.517	1322.2
643.715	1356.3
643.912	1350.68
644.109	1351.45
644.306	1369.08
644.504	1315.41
644.701	1375.67
644.898	1371.79
645.095	1323.16
645.293	1352.42
645.49	1327.62
645.687	1344.67
645.884	1346.22
646.081	1279.57
646.278	1295.85
646.475	1316.38
646.672	1264.07
646.87	1337.31
647.067	1318.13
647.264	1314.25
647.461	1261.36
647.658	1187.93
647.855	1340.41
648.052	1224.35
648.249	1166.62
648.446	1255.16
648.642	1229
648.839	1198.39
649.036	1226.1
649.233	1199.94
649.43	1225.52
649.627	1168.55
649.824	1182.12
650.021	1196.65
650.217	1213.12
650.414	1216.6
650.611	1251.09
650.808	1233.65
651.004	1236.75
651.201	1269.3
651.398	1271.82
651.595	1240.82
651.791	1213.12
651.988	1249.15
652.185	1182.31
652.381	1240.43
652.578	1157.32
652.775	1204.98
652.971	1220.09
653.168	1184.83
653.364	1263.49
653.561	1179.4
653.757	1233.27
653.954	1244.7
654.15	1163.13
654.347	1269.5
654.543	1202.27
654.74	1132.13
654.936	1179.99
655.133	1161.19
655.329	1195.68
655.525	1173.59
655.722	1207.5
655.918	1145.11
656.115	1142.2
656.311	1084.27
656.507	1022.86
656.704	974.61
656.9	994.18
657.096	1012.2
657.292	963.38
657.489	1063.54
657.685	1082.14
657.881	1084.08
658.077	1088.73
658.273	1115.27
658.47	1212.73
658.666	1150.54
658.862	1149.37
659.058	1128.64
659.254	1176.69
659.45	1133.29
659.646	1192.19
659.842	1171.46
660.038	1202.07
660.234	1121.86
660.43	1156.93
660.626	1224.35
660.822	1222.22
661.018	1216.8
661.214	1203.62
661.41	1154.8
661.606	1169.72
661.802	1246.05
661.998	1182.31
662.194	1142.4
662.39	1192.97
662.586	1212.53
662.781	1191.03
662.977	1206.72
663.173	1218.15
663.369	1168.94
663.564	1194.32
663.76	1199.75
663.956	1165.84
664.152	1235.01
664.347	1108.69
664.543	1168.75
664.739	1138.52
664.934	1089.7
665.13	1097.64
665.326	1210.98
665.521	1159.45
665.717	1117.79
665.912	1130.77
666.108	1041.65
666.304	1091.44
666.499	1138.52
666.695	1063.54
666.89	1142.2
667.086	1181.54
667.281	1154.02
667.477	1186.57
667.672	1132.9
667.867	1125.15
668.063	1121.09
668.258	1113.14
668.454	1115.47
668.649	1181.34
668.844	1121.86
669.04	1186.38
669.235	1105.78
669.43	1093.19
669.626	1088.34
669.821	1084.47
670.016	1068.58
670.211	1099.97
670.407	1040.68
670.602	1105.39
670.797	1059.67
670.992	1143.95
671.187	1053.86
671.382	1150.34
671.578	1083.11
671.773	1131.94
671.968	1042.81
672.163	1089.7
672.358	1132.9
672.553	1051.14
672.748	1061.61
672.943	1156.35
673.138	1089.31
673.333	1096.09
673.528	1047.27
673.723	1090.28
673.918	1066.26
674.113	1028.28
674.308	1176.89
674.503	1081.37
674.698	1107.72
674.892	1068.19
675.087	1091.83
675.282	1093.57
675.477	1032.16
675.672	1096.48
675.867	1020.92
676.061	1011.43
676.256	1015.3
676.451	1067.03
676.646	1073.04
676.84	1023.44
677.035	1014.91
677.23	1035.84
677.424	1087.76
677.619	1073.62
677.814	1087.76
678.008	1084.27
678.203	973.64
678.397	1043.39
678.592	1059.47
678.787	1118.18
678.981	1068.58
679.176	1066.45
679.37	1031.77
679.565	1010.65
679.759	1066.64
679.954	1063.93
680.148	1071.87
680.342	1104.81
680.537	1061.41
680.731	1032.54
680.926	1084.47
681.12	1082.92
681.314	1032.74
681.509	1040.68
681.703	1063.54
681.897	1038.55
682.092	1030.99
682.286	995.34
682.48	1122.83
682.674	1062.19
682.869	1006.97
683.063	1030.22
683.257	1092.22
683.451	964.34
683.645	1027.89
683.839	1020.34
684.034	1005.23
684.228	1047.66
684.422	979.46
684.616	985.46
684.81	996.7
685.004	1014.14
685.198	1001.35
685.392	1037.39
685.586	981.98
685.78	1032.16
685.974	1018.98
686.168	1040.29
686.362	1056.96
686.556	976.74
686.75	931.6
686.944	876.96
687.138	928.31
687.331	823.3
687.525	839.77
687.719	793.85
687.913	832.98
688.107	844.03
688.301	809.93
688.494	868.25
688.688	812.64
688.882	810.9
689.076	780.48
689.269	845.96
689.463	935.28
689.657	850.42
689.85	871.35
690.044	880.06
690.238	863.01
690.431	842.48
690.625	847.32
690.818	876.77
691.012	904.09
691.205	907.96
691.399	887.23
691.593	899.83
691.786	967.83
691.98	960.08
692.173	972.48
692.366	963.57
692.56	992.05
692.753	980.62
692.947	911.26
693.14	973.45
693.333	988.18
693.527	893.43
693.72	963.57
693.914	930.05
694.107	939.74
694.3	960.28
694.493	900.21
694.687	1003.29
694.88	902.93
695.073	1023.05
695.266	967.83
695.46	957.95
695.653	1030.22
695.846	994.18
696.039	892.85
696.232	960.86
696.425	996.31
696.618	1032.16
696.812	992.83
697.005	1079.82
697.198	1134.07
697.391	1033.32
697.584	1107.52
697.777	1143.75
697.97	1131.55
698.163	1106.94
698.356	1092.41
698.549	1167.97
698.742	1148.4
698.935	1091.06
699.127	1119.73
699.32	1106.17
699.513	1111.4
699.706	1146.85
699.899	1168.75
700.092	1117.4
700.285	1121.28
700.477	1080.98
700.67	1161
700.863	1197.42
701.056	1257.48
701.248	1204.01
701.441	1214.67
701.634	1168.75
701.826	1277.63
702.019	1142.98
702.212	1257.1
702.404	1185.02
702.597	1192.77
702.79	1223.19
702.982	1253.42
703.175	1281.12
703.367	1288.1
703.56	1311.54
703.752	1375.67
703.945	1316.96
704.137	1368.31
704.33	1348.16
704.522	1376.25
704.715	1371.79
704.907	1398.53
705.1	1446.58
705.292	1430.31
705.484	1419.65
705.677	1456.27
705.869	1457.24
706.061	1482.42
706.254	1524.27
706.446	1508
706.638	1455.69
706.831	1536.87
707.023	1491.14
707.215	1618.63
707.407	1609.91
707.599	1571.35
707.792	1636.26
707.984	1633.16
708.176	1655.44
708.368	1641.88
708.56	1675.4
708.752	1665.71
708.944	1609.14
709.136	1718.41
709.329	1693.8
709.521	1804.05
709.713	1794.94
709.905	1776.15
710.097	1805.79
710.289	1758.32
710.481	1801.91
710.672	1829.62
710.864	1805.21
711.056	1894.91
711.248	1875.15
711.44	1886.39
711.632	1902.27
711.824	1935.02
712.016	1987.52
712.207	1940.44
712.399	1954.39
712.591	2037.9
712.783	1996.24
712.975	2032.86
713.166	1979.77
713.358	1996.24
713.55	2122.37
713.741	2116.37
713.933	2080.91
714.125	2090.21
714.316	2088.66
714.508	2142.13
714.7	2206.46
714.891	2173.91
715.083	2208.59
715.274	2174.1
715.466	2215.37
715.657	2246.37
715.849	2186.89
716.04	2201.42
716.232	2176.81
716.423	2247.53
716.615	2163.25
716.806	2161.31
716.998	2127.99
717.189	2090.6
717.381	2013.68
717.572	1977.26
717.763	2005.54
717.955	2031.7
718.146	1978.22
718.337	1926.88
718.528	1915.84
718.72	1842.02
718.911	1917.19
719.102	1878.44
719.293	1907.7
719.485	1896.46
719.676	1893.94
719.867	1865.46
720.058	1895.11
720.249	1924.94
720.44	1950.71
720.632	1965.82
720.823	2003.02
721.014	2124.5
721.205	2105.32
721.396	2218.08
721.587	2302.75
721.778	2360.87
721.969	2366.88
722.16	2431.98
722.351	2438.95
722.542	2596.86
722.733	2558.5
722.924	2500.57
723.115	2583.3
723.305	2535.44
723.496	2593.56
723.687	2482.35
723.878	2445.35
724.069	2485.65
724.26	2484.29
724.45	2432.56
724.641	2433.34
724.832	2486.23
725.023	2451.35
725.213	2461.82
725.404	2496.5
725.595	2474.02
725.785	2412.02
725.976	2509.09
726.167	2519.75
726.357	2503.67
726.548	2646.65
726.739	2531.95
726.929	2652.08
727.12	2698.77
727.31	2724.73
727.501	2657.89
727.691	2660.8
727.882	2654.79
728.072	2741.2
728.263	2696.25
728.453	2766.58
728.644	2794.48
728.834	2753.79
729.024	2766.58
729.215	2749.73
729.405	2736.16
729.596	2859.39
729.786	2864.81
729.976	2901.24
730.167	2886.9
730.357	2851.83
730.547	2856.67
730.737	2915.77
730.928	2987.65
731.118	3030.08
731.308	2984.93
731.498	2967.5
731.688	3081.23
731.879	3060.3
732.069	3141.87
732.259	3081.23
732.449	3147.29
732.639	3279.82
732.829	3238.36
733.019	3311.98
733.209	3378.44
733.399	3368.94
733.589	3411.95
733.779	3439.08
733.969	3452.83
734.159	3523.36
734.349	3582.64
734.539	3592.53
734.729	3614.81
734.919	3656.46
735.109	3713.04
735.299	3613.06
735.488	3683.97
735.678	3667.89
735.868	3695.79
736.058	3644.06
736.248	3643.09
736.437	3636.12
736.627	3621.2
736.817	3763.99
737.007	3723.5
737.196	3770.19
737.386	3764.57
737.576	3700.44
737.765	3782.98
737.955	3751.4
738.144	3911.82
738.334	3860.67
738.524	3759.92
738.713	3839.36
738.903	3791.89
739.092	3915.7
739.282	3836.45
739.471	3859.12
739.661	3892.25
739.85	3916.08
740.04	3908.33
740.229	3981.76
740.419	3965.49
740.608	3965.49
740.797	3968.59
740.987	4022.45
741.176	4019.16
741.365	3984.28
741.555	3914.92
741.744	4058.29
741.933	3958.9
742.123	4031.36
742.312	3999.78
742.501	4070.31
742.69	4082.9
742.88	4001.53
743.069	4112.54
743.258	4053.45
743.447	4125.33
743.636	4181.9
743.825	4114.09
744.014	4153.62
744.204	4139.09
744.393	4088.32
744.582	4183.84
744.771	4199.34
744.96	4171.25
745.149	4190.62
745.338	4157.11
745.527	4196.63
745.716	4222.2
745.905	4127.07
746.094	4269.48
746.283	4223.37
746.471	4171.64
746.66	4314.43
746.849	4186.36
747.038	4286.92
747.227	4189.07
747.416	4279.36
747.604	4200.12
747.793	4224.34
747.982	4209.8
748.171	4279.36
748.359	4277.62
748.548	4302.03
748.737	4206.12
748.926	4211.74
749.114	4091.04
749.303	4229.18
749.491	4232.47
749.68	4136.57
749.869	4243.13
750.057	4172.22
750.246	4193.34
750.434	4162.72
750.623	4175.9
750.811	4183.65
751	4216.78
751.188	4147.81
751.377	4172.99
751.565	4150.71
751.754	4119.32
751.942	4125.91
752.131	4197.79
752.319	4110.61
752.507	4085.42
752.696	4188.3
752.884	4198.37
753.072	4184.42
753.261	4156.72
753.449	4152.46
753.637	4164.08
753.825	4216
754.014	4158.46
754.202	4170.28
754.39	4240.8
754.578	4157.11
754.766	4127.66
754.955	4119.32
755.143	4167.95
755.331	4147.42
755.519	4114.87
755.707	4148.97
755.895	4102.86
756.083	4116.03
756.271	4084.64
756.459	4122.23
756.647	4108.67
756.835	4099.76
757.023	4056.74
757.211	4081.93
757.399	4073.79
757.587	4072.63
757.775	4016.44
757.963	4059.26
758.151	4045.89
758.339	4006.56
758.526	4010.44
758.714	4025.36
758.902	3919.76
759.09	3853.7
759.278	3691.92
759.465	3481.9
759.653	3097.7
759.841	2869.27
760.028	2518.97
760.216	2224.48
760.404	2106.29
760.591	1788.55
760.779	1575.81
760.967	1401.05
761.154	1234.43
761.342	1304.56
761.529	1286.35
761.717	1366.56
761.905	1389.43
762.092	1518.66
762.28	1470.02
762.467	1519.04
762.655	1439.8
762.842	1511.49
763.029	1506.45
763.217	1545
763.404	1526.79
763.592	1563.02
763.779	1535.51
763.966	1594.02
764.154	1666.1
764.341	1705.43
764.528	1700.2
764.716	1765.68
764.903	1861.78
765.09	1881.93
765.277	1960.59
765.465	2102.8
765.652	2186.89
765.839	2253.54
766.026	2384.9
766.213	2373.47
766.4	2519.75
766.588	2683.08
766.775	2736.94
766.962	2783.63
767.149	2833.81
767.336	2975.25
767.523	2981.45
767.71	3102.15
767.897	3191.86
768.084	3284.08
768.271	3309.85
768.458	3363.9
768.645	3448.18
768.832	3402.85
769.019	3435.98
769.206	3451.28
769.392	3526.46
769.579	3586.52
769.766	3558.62
769.953	3558.23
770.14	3589.62
770.327	3553.39
770.513	3638.44
770.7	3638.64
770.887	3600.08
771.073	3637.28
771.26	3637.28
771.447	3531.5
771.634	3559.59
771.82	3699.09
772.007	3576.06
772.193	3616.74
772.38	3592.33
772.567	3620.62
772.753	3586.71
772.94	3673.71
773.126	3619.46
773.313	3647.36
773.499	3584.58
773.686	3630.89
773.872	3559.78
774.059	3629.92
774.245	3573.34
774.432	3594.85
774.618	3464.85
774.804	3537.5
774.991	3506.89
775.177	3588.46
775.363	3554.16
775.55	3586.13
775.736	3490.61
775.922	3536.34
776.109	3519.48
776.295	3520.45
776.481	3546.8
776.667	3557.07
776.853	3498.75
777.04	3471.43
777.226	3505.15
777.412	3579.35
777.598	3455.16
777.784	3451.48
777.97	3460.58
778.156	3472.6
778.342	3465.04
778.528	3454.19
778.715	3403.23
778.901	3392.19
779.087	3410.98
779.272	3392.38
779.458	3385.41
779.644	3394.52
779.83	3367
780.016	3442.37
780.202	3374.56
780.388	3376.5
780.574	3322.64
780.76	3331.94
780.946	3339.69
781.131	3344.14
781.317	3325.74
781.503	3275.36
781.689	3348.21
781.874	3444.89
782.06	3274.01
782.246	3300.16
782.432	3261.8
782.617	3334.07
782.803	3352.47
782.989	3256.76
783.174	3245.33
783.36	3215.3
783.545	3238.74
783.731	3217.43
783.916	3178.68
784.102	3286.21
784.288	3192.24
784.473	3198.44
784.659	3151.36
784.844	3193.99
785.029	3168.8
785.215	3161.24
785.4	3094.4
785.586	3245.91
785.771	3129.47
785.956	3192.24
786.142	3135.67
786.327	3098.28
786.512	3087.62
786.698	3121.91
786.883	3059.53
787.068	3136.25
787.254	3115.71
787.439	3111.84
787.624	3063.21
787.809	3028.53
787.994	3036.47
788.18	3139.93
788.365	3008.77
788.55	3044.8
788.735	3025.43
788.92	2969.43
789.105	3027.95
789.29	3035.31
789.475	2964.59
789.66	2976.22
789.845	2959.94
790.03	2934.17
790.215	2984.55
790.4	2994.62
790.585	3032.79
790.77	2940.76
790.955	2875.08
791.14	2942.7
791.325	3016.13
791.51	2856.87
791.695	2934.56
791.879	2923.9
792.064	2831.87
792.249	2951.42
792.434	2868.1
792.618	2912.86
792.803	2954.71
792.988	2890
793.173	2910.92
793.357	2927.59
793.542	2835.36
793.727	2874.5
793.911	2935.72
794.096	2891.55
794.281	2910.15
794.465	2991.52
794.65	2897.36
794.834	2997.53
795.019	2969.82
795.203	2941.54
795.388	2967.11
795.572	2981.64
795.757	2943.28
795.941	2954.13
796.126	2930.3
796.31	2902.79
796.494	2993.27
796.679	2923.52
796.863	2904.72
797.048	2989.97
797.232	2964.2
797.416	2964.59
797.601	2964.98
797.785	3020.78
797.969	2989.39
798.153	2937.08
798.338	2988.62
798.522	3017.68
798.706	3035.5
798.89	3009.35
799.074	3105.25
799.258	3060.3
799.443	3036.86
799.627	2966.33
799.811	3088.78
799.995	2979.51
800.179	2988.42
800.363	2939.6
800.547	2964.98
800.731	3033.76
800.915	2952.97
801.099	2926.04
801.283	2971.57
801.467	2996.56
801.651	2924.87
801.835	3011.09
802.019	2965.75
802.202	2995.98
802.386	2946.38
802.57	2931.65
802.754	2937.08
802.938	2946.18
803.121	2920.42
803.305	2983.97
803.489	2970.4
803.673	2957.81
803.856	2975.25
804.04	2975.83
804.224	2949.87
804.407	2949.87
804.591	2929.52
804.775	2929.72
804.958	2920.61
805.142	3046.16
805.326	2939.99
805.509	2996.95
805.693	2994.82
805.876	3007.99
806.06	2955.1
806.243	2976.8
806.427	2980.87
806.61	3025.04
806.794	2979.7
806.977	2978.35
807.16	2977.77
807.344	2954.13
807.527	2960.13
807.71	2967.5
807.894	2952
808.077	2990.94
808.26	2918.67
808.444	2891.94
808.627	2957.81
808.81	2895.62
808.993	2830.71
809.177	2867.33
809.36	2867.14
809.543	2904.92
809.726	2814.44
809.909	2814.44
810.092	2772.78
810.276	2757.48
810.459	2777.82
810.642	2803.59
810.825	2740.43
811.008	2780.34
811.191	2677.85
811.374	2701.09
811.557	2668.55
811.74	2769.49
811.923	2660.99
812.106	2653.24
812.289	2608.48
812.472	2615.46
812.654	2633.09
812.837	2595.11
813.02	2553.07
813.203	2523.82
813.386	2423.84
813.569	2437.02
813.751	2333.17
813.934	2419.39
814.117	2372.11
814.3	2331.04
814.482	2284.34
814.665	2275.82
814.848	2236.88
815.03	2180.11
815.213	2144.85
815.396	2147.56
815.578	2132.45
815.761	2061.15
815.943	2158.8
816.126	2008.45
816.309	2052.62
816.491	1953.04
816.674	1893.56
816.856	1949.94
817.039	1934.24
817.221	2023.37
817.403	1952.07
817.586	1979.77
817.768	1993.53
817.951	1896.07
818.133	1904.99
818.315	1919.32
818.498	1970.47
818.68	1990.24
818.862	2008.64
819.045	2022.59
819.227	1997.02
819.409	1957.69
819.591	1998.57
819.774	1961.37
819.956	1907.89
820.138	2000.12
820.32	1998.18
820.502	2048.17
820.684	2061.54
820.866	2100.48
821.048	2152.21
821.231	2164.8
821.413	2183.6
821.595	2119.27
821.777	2184.56
821.959	2134
822.141	2257.41
822.323	2084.01
822.505	2008.25
822.686	1946.26
822.868	1938.31
823.05	1788.74
823.232	1731.39
823.414	1691.09
823.596	1757.16
823.778	1745.15
823.96	1769.36
824.141	1767.23
824.323	1790.87
824.505	1874.18
824.687	1917.77
824.868	1948.97
825.05	2052.24
825.232	2101.83
825.413	2133.22
825.595	2092.34
825.777	2058.24
825.958	2059.02
826.14	2083.62
826.321	2061.54
826.503	2080.91
826.685	2104.74
826.866	2133.03
827.048	2106.1
827.229	2053.01
827.411	2006.32
827.592	1965.44
827.773	1951.87
827.955	1931.92
828.136	1904.41
828.318	1882.71
828.499	1949.16
828.68	1856.55
828.862	1886.19
829.043	1931.34
829.224	1870.69
829.406	1832.53
829.587	1850.74
829.768	1908.09
829.949	1878.64
830.131	1874.76
830.312	1939.86
830.493	1875.54
830.674	1884.06
830.855	1851.9
831.036	1886.19
831.218	1930.17
831.399	1942.38
831.58	1862.17
831.761	1888.91
831.942	1899.76
832.123	1886.39
832.304	1821.29
832.485	1834.85
832.666	1862.75
832.847	1895.88
833.028	1861.39
833.209	1865.85
833.389	1853.45
833.57	1778.86
833.751	1804.24
833.932	1903.63
834.113	1853.26
834.294	1840.47
834.475	1892.01
834.655	1921.07
834.836	1940.44
835.017	1879.41
835.198	1817.61
835.378	1877.86
835.559	1905.96
835.74	1873.21
835.92	1881.16
836.101	1836.79
836.281	1880.96
836.462	1912.35
836.643	1929.59
836.823	1903.82
837.004	1945.29
837.184	1923.78
837.365	1931.34
837.545	1923.39
837.726	1905.57
837.906	1979.77
838.087	1914.87
838.267	1925.52
838.448	1854.81
838.628	1910.22
838.808	1874.96
838.989	1948
839.169	1869.53
839.349	1916.22
839.53	1949.55
839.71	1922.42
839.89	1922.42
840.07	1933.27
840.251	1861.01
840.431	1955.36
840.611	1895.3
840.791	1876.51
840.971	1917.97
841.151	1857.91
841.332	1831.17
841.512	1937.15
841.692	1845.89
841.872	1903.63
842.052	1900.53
842.232	1903.44
842.412	1815.48
842.592	1858.29
842.772	1885.61
842.952	1879.03
843.132	1833.49
843.312	1814.7
843.492	1823.03
843.672	1846.48
843.851	1784.28
844.031	1815.28
844.211	1829.81
844.391	1802.88
844.571	1862.17
844.751	1859.07
844.93	1842.6
845.11	1805.4
845.29	1803.27
845.47	1839.89
845.649	1797.85
845.829	1839.31
846.009	1778.66
846.188	1821.68
846.368	1809.28
846.547	1810.63
846.727	1851.32
846.907	1747.47
847.086	1802.5
847.266	1812.18
847.445	1795.33
847.625	1772.08
847.804	1777.89
847.984	1767.62
848.163	1774.21
848.343	1745.53
848.522	1766.85
848.701	1789.13
848.881	1710.08
849.06	1767.43
849.239	1721.51
849.419	1754.83
849.598	1678.3
849.777	1675.4
849.957	1660.67
850.136	1575.23
850.315	1577.17
850.494	1594.6
850.674	1619.02
850.853	1678.69
851.032	1628.9
851.211	1673.46
851.39	1644.59
851.569	1620.95
851.748	1576.78
851.927	1715.12
852.107	1646.14
852.286	1592.28
852.465	1582.79
852.644	1672.88
852.823	1664.74
853.002	1655.05
853.181	1632.58
853.359	1629.09
853.538	1597.51
853.717	1634.32
853.896	1509.16
854.075	1457.62
854.254	1449.68
854.433	1349.32
854.611	1413.84
854.79	1354.94
854.969	1386.91
855.148	1449.68
855.327	1411.51
855.505	1446.58
855.684	1422.94
855.863	1483.59
856.041	1442.51
856.22	1497.92
856.399	1462.08
856.577	1585.5
856.756	1552.95
856.934	1646.92
857.113	1663.38
857.291	1580.46
857.47	1523.31
857.648	1560.89
857.827	1582.59
858.005	1592.09
858.184	1535.32
858.362	1653.5
858.541	1566.9
858.719	1553.92
858.898	1514.59
859.076	1522.92
859.254	1582.79
859.433	1532.8
859.611	1497.15
859.789	1492.11
859.967	1577.94
860.146	1579.1
860.324	1470.99
860.502	1522.72
860.68	1445.61
860.859	1477.39
861.037	1470.8
861.215	1521.56
861.393	1494.82
861.571	1496.18
861.749	1445.81
861.927	1493.86
862.105	1501.02
862.283	1448.71
862.461	1446.39
862.639	1431.66
862.817	1477.58
862.995	1455.49
863.173	1465.96
863.351	1427.01
863.529	1475.64
863.707	1475.45
863.885	1467.51
864.063	1391.94
864.241	1436.89
864.418	1520.21
864.596	1439.99
864.774	1360.17
864.952	1393.3
865.129	1426.24
865.307	1390.59
865.485	1352.03
865.663	1400.08
865.84	1335.37
866.018	1373.73
866.196	1201.3
866.373	1268.33
866.551	1202.65
866.728	1147.05
866.906	1233.85
867.084	1241.6
867.261	1293.52
867.439	1297.2
867.616	1313.67
867.794	1272.98
867.971	1303.79
868.149	1281.9
868.326	1354.16
868.503	1356.1
868.681	1298.36
868.858	1349.71
869.035	1279.96
869.213	1382.64
869.39	1303.6
869.567	1382.26
869.745	1295.85
869.922	1320.45
870.099	1334.01
870.276	1378.96
870.454	1323.75
870.631	1319.68
870.808	1270.08
870.985	1341.96
871.162	1401.83
871.339	1305.53
871.517	1306.11
871.694	1268.53
871.871	1279.77
872.048	1300.3
872.225	1279.57
872.402	1295.65
872.579	1248.57
872.756	1322.58
872.933	1232.3
873.11	1269.11
873.287	1305.73
873.463	1241.4
873.64	1207.69
873.817	1274.53
873.994	1236.95
874.171	1219.12
874.348	1253.22
874.524	1186.77
874.701	1246.05
874.878	1154.6
875.055	1239.08
875.231	1247.02
875.408	1226.48
875.585	1150.34
875.762	1226.48
875.938	1187.54
876.115	1220.67
876.291	1232.1
876.468	1213.7
876.645	1159.25
876.821	1181.92
876.998	1165.07
877.174	1212.92
877.351	1155.19
877.527	1142.79
877.704	1176.11
877.88	1177.27
878.057	1148.21
878.233	1228.23
878.409	1141.24
878.586	1161
878.762	1158.29
878.938	1144.92
879.115	1088.54
879.291	1163.32
879.467	1070.91
879.644	1114.3
879.82	1161.77
879.996	1143.17
880.172	1099.39
880.349	1138.14
880.525	1145.89
880.701	1069.94
880.877	1080.79
881.053	1109.46
881.229	1111.59
881.405	1162.55
881.581	1074.39
881.757	1119.73
881.933	1106.94
882.109	1124.96
882.285	1097.26
882.461	1053.86
882.637	1109.85
882.813	1064.51
882.989	1058.51
883.165	1157.32
883.341	1079.82
883.517	1134.65
883.693	1108.49
883.869	1148.21
884.044	1067.61
884.22	1123.99
884.396	1176.3
884.572	1124.77
884.747	1117.79
884.923	1137.17
885.099	1112.17
885.275	1162.35
885.45	1103.65
885.626	1106.56
885.801	1068.39
885.977	1076.52
886.153	1043.78
886.328	1105.78
886.504	1087.57
886.679	1109.07
886.855	1056.96
887.03	1099.77
887.206	1142.79
887.381	1097.45
887.557	1091.06
887.732	1123.02
887.908	1100.74
888.083	1160.42
888.258	1073.42
888.434	1065.29
888.609	1098.03
888.784	1138.72
888.96	1083.89
889.135	1079.43
889.31	1066.84
889.485	1131.94
889.661	1059.47
889.836	1145.69
890.011	1105.78
890.186	1100.55
890.361	1072.65
890.537	1134.26
890.712	1098.81
890.887	1081.17
891.062	1094.93
891.237	1145.89
891.412	1042.04
891.587	1089.12
891.762	1133.87
891.937	1136
892.112	1048.82
892.287	1081.17
892.462	1031.77
892.637	1044.36
892.812	1004.26
892.987	1025.96
893.161	999.8
893.336	1025.96
893.511	1018.79
893.686	1019.18
893.861	1010.26
894.035	1024.79
894.21	1011.43
894.385	956.79
894.56	987.79
894.734	921.33
894.909	926.95
895.084	952.91
895.258	924.05
895.433	968.99
895.608	938.77
895.782	879.68
895.957	871.73
896.131	893.05
896.306	833.76
896.48	830.08
896.655	868.44
896.829	765.56
897.004	808.57
897.178	784.55
897.353	780.09
897.527	838.02
897.701	813.42
897.876	738.24
898.05	815.55
898.224	819.81
898.399	864.95
898.573	790.55
898.747	694.65
898.921	735.34
899.096	654.35
899.27	645.63
899.444	629.74
899.618	688.64
899.792	726.42
899.967	700.07
900.141	741.73
900.315	662.68
900.489	675.85
900.663	732.24
900.837	705.69
901.011	645.24
901.185	770.02
901.359	722.55
901.533	723.13
901.707	678.37
901.881	706.27
902.055	652.22
902.229	711.7
902.403	744.05
902.576	703.17
902.75	708.02
902.924	811.09
903.098	743.67
903.272	775.44
903.446	823.1
903.619	804.89
903.793	821.17
903.967	792.3
904.14	856.04
904.314	858.36
904.488	854.49
904.661	857.4
904.835	820.58
905.009	895.18
905.182	901.76
905.356	824.85
905.529	875.41
905.703	820.58
905.876	826.78
906.05	803.15
906.223	749.87
906.397	716.54
906.57	680.89
906.744	681.09
906.917	676.63
907.09	695.04
907.264	728.36
907.437	667.52
907.61	630.32
907.784	659.97
907.957	680.31
908.13	617.54
908.304	702.59
908.477	611.92
908.65	639.43
908.823	579.56
908.996	671.98
909.17	633.42
909.343	638.46
909.516	639.04
909.689	629.94
909.862	603.78
910.035	616.57
910.208	584.79
910.381	611.92
910.554	674.69
910.727	605.14
910.9	573.17
911.073	583.44
911.246	670.82
911.419	673.72
911.592	662.29
911.765	602.04
911.938	604.75
912.11	612.11
912.283	612.69
912.456	668.11
912.629	632.84
912.802	574.14
912.974	559.61
913.147	522.99
913.32	457.11
913.493	532.29
913.665	536.74
913.838	533.84
914.01	506.13
914.183	544.3
914.356	538.88
914.528	615.41
914.701	632.26
914.873	609.59
915.046	528.22
915.218	521.63
915.391	447.23
915.563	458.86
915.736	500.13
915.908	553.41
916.081	551.86
916.253	516.98
916.425	546.43
916.598	557.67
916.77	579.95
916.942	494.51
917.115	487.73
917.287	544.88
917.459	513.49
917.632	479.98
917.804	413.52
917.976	495.67
918.148	512.91
918.32	495.86
918.493	532.68
918.665	551.86
918.837	538.49
919.009	603.39
919.181	574.53
919.353	541.2
919.525	557.67
919.697	533.06
919.869	526.48
920.041	582.86
920.213	675.66
920.385	593.12
920.557	526.28
920.729	584.6
920.901	559.99
921.073	566.19
921.244	538.88
921.416	581.89
921.588	551.66
921.76	528.8
921.932	569.49
922.103	535.58
922.275	561.16
922.447	547.21
922.619	474.16
922.79	503.42
922.962	501.09
923.134	576.85
923.305	497.41
923.477	481.14
923.648	474.16
923.82	493.93
923.991	437.35
924.163	464.48
924.335	495.09
924.506	429.99
924.677	535.97
924.849	430.76
925.02	454.4
925.192	514.27
925.363	466.61
925.535	501.29
925.706	457.5
925.877	512.33
926.049	466.61
926.22	477.07
926.391	481.33
926.562	490.44
926.734	434.64
926.905	507.88
927.076	427.08
927.247	435.22
927.419	393.18
927.59	407.52
927.761	439.29
927.932	404.03
928.103	412.94
928.274	375.35
928.445	369.35
928.616	378.84
928.787	373.03
928.958	397.44
929.129	375.16
929.3	352.49
929.471	306.96
929.642	249.8
929.813	204.27
929.984	322.07
930.155	271.12
930.326	270.15
930.496	239.92
930.667	200.4
930.838	246.9
931.009	167.46
931.18	230.82
931.35	203.11
931.521	234.5
931.692	157.19
931.863	119.22
932.033	182.77
932.204	191.1
932.374	175.41
932.545	143.24
932.716	179.47
932.886	172.5
933.057	94.81
933.227	101.2
933.398	181.41
933.568	102.75
933.739	72.33
933.909	70.39
934.08	140.14
934.25	38.23
934.421	77.18
934.591	84.73
934.761	100.62
934.932	54.31
935.102	62.26
935.272	82.79
935.443	96.74
935.613	85.31
935.783	96.16
935.953	51.21
936.123	250.19
936.294	63.81
936.464	56.45
936.634	91.13
936.804	29.32
936.974	22.73
937.144	107.98
937.314	66.33
937.484	55.86
937.655	52.76
937.825	151.96
937.995	54.9
938.165	115.93
938.334	94.42
938.504	112.63
938.674	85.51
938.844	83.57
939.014	125.42
939.184	143.83
939.354	216.29
939.524	172.11
939.694	135.3
939.863	96.55
940.033	205.05
940.203	174.44
940.373	175.99
940.542	180.06
940.712	137.04
940.882	177.54
941.051	188
941.221	160.49
941.391	185.29
941.56	107.59
941.73	141.5
941.899	241.28
942.069	122.13
942.238	140.92
942.408	101.98
942.577	165.72
942.747	143.63
942.916	75.24
943.086	119.41
943.255	152.74
943.425	140.92
943.594	102.56
943.763	49.08
943.933	74.66
944.102	33.2
944.271	114.76
944.441	123.68
944.61	97.91
944.779	119.03
944.948	209.7
945.117	70.39
945.287	86.48
945.456	66.52
945.625	61.68
945.794	116.7
945.963	78.34
946.132	129.49
946.301	83.76
946.47	138.98
946.639	52.96
946.808	77.95
946.977	129.88
947.146	168.24
947.315	98.1
947.484	131.04
947.653	95.58
947.822	73.11
947.991	57.8
948.16	176.37
948.329	140.14
948.498	114.57
948.666	94.03
948.835	156.42
949.004	59.16
949.173	36.49
949.341	112.05
949.51	106.82
949.679	137.24
949.847	133.17
950.016	185.87
950.185	149.64
950.353	87.64
950.522	109.92
950.69	157.77
950.859	112.83
951.028	162.62
951.196	126.19
951.365	82.99
951.533	70.59
951.701	134.72
951.87	133.36
952.038	52.57
952.207	107.4
952.375	138.79
952.543	70.01
952.712	132.39
952.88	99.26
953.048	151.96
953.217	109.14
953.385	107.98
953.553	143.05
953.721	63.81
953.89	129.29
954.058	64
954.226	44.05
954.394	121.54
954.562	43.27
954.73	103.33
954.898	80.66
955.067	145.57
955.235	72.53
955.403	105.66
955.571	198.66
955.739	132.98
955.907	55.86
956.075	80.08
956.243	60.32
956.41	127.16
956.578	47.15
956.746	34.55
956.914	75.82
957.082	131.04
957.25	126.97
957.418	73.88
957.585	129.29
957.753	142.08
957.921	39.78
958.089	96.74
958.256	119.41
958.424	117.67
958.592	95.78
958.759	59.16
958.927	113.99
959.095	86.86
959.262	88.99
959.43	95.19
959.597	73.69
959.765	120.77
959.932	50.44
960.1	120.38
960.267	106.43
960.435	105.08
960.602	135.3
960.77	67.88
960.937	21.38
961.104	104.88
961.272	45.79
961.439	94.42
961.606	154.87
961.774	113.02
961.941	106.63
962.108	135.88
962.275	102.75
962.443	146.15
962.61	132.98
962.777	153.32
962.944	144.02
963.111	132.2
963.278	120.38
963.446	130.84
963.613	127.94
963.78	135.3
963.947	136.66
964.114	116.89
964.281	178.31
964.448	108.56
964.615	87.83
964.782	123.68
964.949	155.26
965.116	167.85
965.282	163.78
965.449	112.83
965.616	83.76
965.783	122.71
965.95	131.04
966.117	70.78
966.283	115.54
966.45	124.45
966.617	117.48
966.784	163.78
966.95	132.01
967.117	165.72
967.284	96.36
967.45	120.19
967.617	193.23
967.784	146.92
967.95	177.73
968.117	120.58
968.283	185.09
968.45	230.82
968.616	143.05
968.783	163.2
968.949	151.57
969.116	163.97
969.282	139.37
969.449	135.49
969.615	127.36
969.781	100.43
969.948	118.64
970.114	75.82
970.28	166.3
970.447	132.98
970.613	154.29
970.779	98.88
970.945	145.57
971.112	112.83
971.278	136.66
971.444	140.34
971.61	154.67
971.776	118.64
971.942	151.57
972.108	163.01
972.275	123.48
972.441	132.59
972.607	211.64
972.773	108.76
972.939	134.91
973.105	118.64
973.271	77.18
973.437	103.91
973.602	87.64
973.768	121.16
973.934	97.13
974.1	133.17
974.266	47.73
974.432	104.49
974.598	115.54
974.763	142.86
974.929	108.56
975.095	185.67
975.261	75.43
975.426	91.13
975.592	130.46
975.758	185.67
975.923	56.64
976.089	82.41
976.255	135.3
976.42	152.54
976.586	124.26
976.751	142.47
976.917	188.39
977.082	128.91
977.248	64.97
977.413	60.13
977.579	102.75
977.744	109.34
977.91	86.09
978.075	81.24
978.24	114.76
978.406	95.78
978.571	100.43
978.736	84.73
978.902	113.41
979.067	82.41
979.232	19.44
979.397	112.44
979.563	149.06
979.728	96.36
979.893	93.64
980.058	84.15
980.223	137.43
980.388	135.69
980.554	116.7
980.719	83.57
980.884	116.12
981.049	142.47
981.214	74.85
981.379	100.81
981.544	79.69
981.709	104.69
981.874	98.29
982.039	87.83
982.204	119.41
982.368	101.2
982.533	97.33
982.698	117.09
982.863	144.21
983.028	100.81
983.193	124.26
983.357	103.53
983.522	111.66
983.687	95
983.852	96.36
984.016	78.34
984.181	102.17
984.346	118.06
984.51	117.48
984.675	98.49
984.839	124.45
985.004	93.06
985.168	141.31
985.333	108.76
985.498	85.7
985.662	122.32
985.827	97.91
985.991	108.56
986.155	93.45
986.32	119.99
986.484	178.12
986.649	107.21
986.813	56.64
986.977	121.16
987.142	133.94
987.306	43.85
987.47	68.26
987.634	63.81
987.799	84.54
987.963	84.73
988.127	118.83
988.291	182.96
988.455	86.86
988.62	81.63
988.784	126.78
988.948	119.03
989.112	74.27
989.276	114.96
989.44	89.77
989.604	70.39
989.768	102.75
989.932	188.58
990.096	79.89
990.26	62.84
990.424	40.36
990.588	93.64
990.752	165.33
990.915	132.39
991.079	54.31
991.243	56.45
991.407	104.11
991.571	79.5
991.734	107.98
991.898	129.29
992.062	149.64
992.226	82.41
992.389	66.91
992.553	25.83
992.717	46.37
992.88	59.74
993.044	73.3
993.207	94.42
993.371	122.13
993.535	107.98
993.698	76.4
993.862	128.91
994.025	129.49
994.189	67.1
994.352	110.5
994.515	101.98
994.679	134.14
994.842	63.81
995.006	106.43
995.169	68.46
995.332	73.11
995.496	105.66
995.659	41.72
995.822	79.31
995.985	60.71
996.149	143.83
996.312	78.92
996.475	169.79
996.638	82.99
996.801	120.77
996.964	134.33
997.128	58.96
997.291	51.99
997.454	105.85
997.617	45.79
997.78	116.89
997.943	43.46
998.106	101.39
998.269	61.87
998.432	61.68
998.595	92.29
998.758	18.66
998.92	47.53
999.083	16.92
999.246	73.49
999.409	45.21
999.572	13.43
999.735	47.34
999.897	98.29
1000.06	50.83
1000.223	88.99
1000.386	86.67
1000.548	84.93
1000.711	76.21
1000.874	80.28
1001.036	23.31
1001.199	73.88
1001.361	26.03
1001.524	71.56
1001.687	112.05
1001.849	26.22
1002.012	79.69
1002.174	77.95
1002.337	109.34
1002.499	58.58
1002.661	101.98
1002.824	3.16
1002.986	49.86
1003.149	58
1003.311	46.56
1003.473	126.19
1003.636	23.7
1003.798	97.33
1003.96	78.53
1004.123	64.19
1004.285	39.4
1004.447	62.84
1004.609	41.33
1004.771	126.58
1004.933	2.58
1005.096	24.86
1005.258	0.06
1005.42	52.38
1005.582	90.54
1005.744	56.06
1005.906	8.2
1006.068	73.3
1006.23	22.35
1006.392	1.42
1006.554	10.14
1006.716	83.76
1006.878	55.67
1007.04	14.98
1007.202	28.74
1007.363	61.87
1007.525	57.22
1007.687	57.8
1007.849	108.56
1008.011	16.34
1008.172	13.05
1008.334	57.61
1008.496	93.45
1008.658	-13.89
1008.819	32.23
1008.981	1.23
1009.143	39.2
1009.304	38.04
1009.466	81.63
1009.627	107.01
1009.789	108.76
1009.95	66.33
1010.112	32.03
1010.273	69.04
1010.435	8.78
1010.596	33
1010.758	45.6
1010.919	26.61
1011.081	32.81
1011.242	35.52
1011.403	46.95
1011.565	40.75
1011.726	53.93
1011.887	11.69
1012.049	3.75
1012.21	74.85
1012.371	112.05
1012.532	-36.17
1012.693	49.08
1012.855	37.07
1013.016	55.86
1013.177	61.87
1013.338	26.8
1013.499	93.84
1013.66	70.2
1013.821	65.94
1013.982	46.18
1014.143	39.2
1014.304	32.61
1014.465	70.39
1014.626	84.54
1014.787	16.53
1014.948	112.83
1015.109	-56.9
1015.27	70.59
1015.431	-0.9
1015.592	10.53
1015.752	117.67
1015.913	44.05
1016.074	49.47
1016.235	36.49
1016.395	18.66
1016.556	16.73
1016.717	20.8
1016.877	88.03
1017.038	-12.53
1017.199	48.89
1017.359	57.22
1017.52	58.38
1017.681	1.81
1017.841	36.68
1018.002	34.16
1018.162	14.98
1018.323	86.48
1018.483	55.09
1018.644	34.75
1018.804	-27.06
1018.964	5.49
1019.125	25.06
1019.285	9.36
1019.446	21.18
1019.606	0.84
1019.766	-15.82
1019.926	52.76
1020.087	41.14
1020.247	-12.72
1020.407	56.83
1020.567	85.7
1020.728	43.85
1020.888	-24.74
1021.048	4.52
1021.208	-7.3
1021.368	-16.4
1021.528	83.38
1021.688	20.8
1021.848	28.74
1022.008	47.15
1022.168	14.6
1022.328	34.36
1022.488	55.28
1022.648	1.42
1022.808	33.97
1022.968	46.56
1023.128	27.58
1023.288	-6.33
1023.448	22.54
1023.608	37.07
1023.767	59.54
1023.927	13.63
1024.087	-17.18
1024.247	-4
1024.406	12.08
1024.566	-6.52
1024.726	-14.08
1024.885	19.83
1025.045	55.48
1025.205	30.29
1025.364	-1.87
1025.524	19.05
1025.683	-3.23
1025.843	19.44
1026.003	42.11
1026.162	64.19
1026.321	59.54
1026.481	39.59
1026.64	1.61
1026.8	44.05
1026.959	26.61
1027.119	-3.04
1027.278	15.76
1027.437	-7.49
1027.597	12.66
1027.756	45.21
1027.915	49.47
1028.074	46.18
1028.234	-14.85
1028.393	-4.39
1028.552	10.72
1028.711	-63.1
1028.87	47.53
1029.03	-40.04
1029.189	12.46
1029.348	-40.04
1029.507	-4.59
1029.666	-2.45
1029.825	-7.69
1029.984	-5.36
1030.143	23.7
1030.302	8.78
1030.461	-38.3
1030.62	3.36
1030.779	54.12
1030.938	-32.68
1031.097	-16.6
1031.255	54.51
1031.414	73.11
1031.573	50.44
1031.732	-34.62
1031.891	-9.82
1032.049	46.18
1032.208	14.4
1032.367	-21.83
1032.525	8.78
1032.684	-7.49
1032.843	14.21
1033.001	-50.31
1033.16	146.15
1033.319	55.48
1033.477	15.37
1033.636	-19.7
1033.794	-27.84
1033.953	36.3
1034.111	51.6
1034.27	-12.14
1034.428	45.01
1034.587	-22.02
1034.745	36.68
1034.903	11.11
1035.062	25.45
1035.22	-43.53
1035.378	26.22
1035.537	-26.09
1035.695	29.51
1035.853	3.36
1036.011	45.4
1036.17	17.11
1036.328	-54.77
1036.486	13.63
1036.644	-4.2
1036.802	-82.08
1036.96	-10.01
1037.119	-1.29
1037.277	-4.39
1037.435	-18.73
1037.593	-34.62
1037.751	1.61
1037.909	48.5
1038.067	48.5
