Data from gum_old_FLMT105791__20__15-42-42-259.txt Node

Date: Mon Mar 20 15:42:42 GMT 2023
User: antho
Spectrometer: FLMT10579
Trigger mode: 0
Integration Time (sec): 1.000000E-1
Scans to average: 10
Electric dark correction enabled: true
Nonlinearity correction enabled: false
Boxcar width: 0
XAxis mode: Wavelengths
Number of Pixels in Spectrum: 3648
>>>>>Begin Spectral Data<<<<<
345.248	-179.1
345.464	-179.1
345.681	-179.1
345.898	-181.04
346.114	-163.6
346.331	0.11
346.548	40.02
346.764	-7.64
346.981	-12.29
347.197	9.03
347.414	-9.38
347.631	-26.82
347.847	58.04
348.064	-1.44
348.28	19.1
348.497	-62.47
348.713	-6.28
348.93	34.6
349.146	17.16
349.363	6.31
349.579	32.86
349.796	-8.41
350.012	8.64
350.229	56.88
350.445	36.73
350.661	-11.51
350.878	30.53
351.094	16.39
351.311	42.74
351.527	38.09
351.743	4.18
351.96	23.94
352.176	61.34
352.392	39.25
352.609	69.47
352.825	0.11
353.041	38.47
353.257	27.82
353.474	19.1
353.69	37.12
353.906	25.3
354.122	-14.61
354.339	83.04
354.555	26.66
354.771	54.56
354.987	100.67
355.203	65.99
355.42	44.09
355.636	44.48
355.852	10.58
356.068	48.36
356.284	-23.52
356.5	95.44
356.716	49.71
356.932	40.99
357.148	53.2
357.364	55.52
357.58	48.36
357.796	93.69
358.012	88.46
358.228	49.91
358.444	-25.85
358.66	75.29
358.876	48.36
359.092	17.94
359.308	34.99
359.524	52.42
359.74	3.6
359.956	19.49
360.172	44.87
360.388	99.12
360.604	18.91
360.819	138.64
361.035	43.12
361.251	62.31
361.467	31.5
361.683	53.59
361.898	35.18
362.114	54.94
362.33	71.22
362.546	83.81
362.762	65.02
362.977	70.06
363.193	10.96
363.409	84.78
363.624	45.64
363.84	34.02
364.056	26.27
364.271	77.61
364.487	60.76
364.703	35.96
364.918	56.69
365.134	51.65
365.35	34.21
365.565	182.82
365.781	98.54
365.996	105.71
366.212	131.47
366.427	73.54
366.643	64.63
366.858	36.54
367.074	55.91
367.289	149.69
367.505	185.53
367.72	34.79
367.936	67.73
368.151	87.49
368.367	89.43
368.582	86.52
368.798	39.44
369.013	131.09
369.228	80.13
369.444	96.02
369.659	122.37
369.874	121.79
370.09	130.7
370.305	30.34
370.52	94.08
370.736	145.42
370.951	59.01
371.166	121.01
371.381	131.28
371.597	131.28
371.812	22.59
372.027	72.57
372.242	83.42
372.458	134.57
372.673	59.79
372.888	76.64
373.103	75.87
373.318	157.05
373.533	87.88
373.749	105.51
373.964	29.95
374.179	130.12
374.394	45.45
374.609	137.29
374.824	42.74
375.039	141.94
375.254	75.29
375.469	120.04
375.684	99.51
375.899	142.32
376.114	79.16
376.329	100.86
376.544	139.42
376.759	127.21
376.974	74.9
377.189	67.34
377.404	107.26
377.619	145.04
377.834	57.07
378.049	56.11
378.264	62.69
378.478	134.19
378.693	111.91
378.908	154.53
379.123	105.71
379.338	173.52
379.553	116.36
379.767	123.14
379.982	132.05
380.197	150.07
380.412	118.3
380.626	121.98
380.841	198.51
381.056	112.87
381.271	172.16
381.485	123.14
381.7	111.52
381.915	126.24
382.129	95.44
382.344	130.12
382.559	111.32
382.773	154.14
382.988	22.59
383.202	105.32
383.417	56.11
383.632	195.6
383.846	101.25
384.061	94.47
384.275	98.92
384.49	116.56
384.704	109.19
384.919	118.88
385.133	140.77
385.348	142.9
385.562	71.61
385.777	176.62
385.991	128.76
386.206	94.66
386.42	110.94
386.634	170.22
386.849	152.79
387.063	136.32
387.277	121.4
387.492	129.92
387.706	79.94
387.92	108.61
388.135	140.97
388.349	124.89
388.563	133.02
388.778	158.79
388.992	165.57
389.206	160.92
389.42	210.33
389.635	148.91
389.849	198.9
390.063	195.99
390.277	186.3
390.491	214.78
390.706	192.31
390.92	215.17
391.134	175.65
391.348	198.32
391.562	142.52
391.776	195.41
391.99	169.25
392.205	215.75
392.419	181.46
392.633	181.27
392.847	214.78
393.061	145.62
393.275	217.69
393.489	148.33
393.703	135.93
393.917	176.62
394.131	98.34
394.345	155.69
394.559	182.04
394.773	141.35
394.986	198.9
395.2	192.12
395.414	255.47
395.628	184.56
395.842	228.93
396.056	200.45
396.27	178.75
396.484	225.83
396.697	192.12
396.911	193.28
397.125	144.84
397.339	170.8
397.553	149.3
397.766	230.28
397.98	219.63
398.194	225.63
398.408	225.44
398.621	245.98
398.835	326.96
399.049	304.1
399.262	350.21
399.476	333.55
399.69	332.2
399.903	377.73
400.117	306.23
400.331	322.31
400.544	284.34
400.758	419.58
400.971	352.54
401.185	337.04
401.398	314.37
401.612	393.81
401.826	358.35
402.039	390.9
402.253	322.51
402.466	371.33
402.68	348.28
402.893	378.11
403.106	373.66
403.32	365.33
403.533	392.26
403.747	364.94
403.96	361.84
404.174	375.79
404.387	349.25
404.6	364.16
404.814	410.08
405.027	358.55
405.24	363.39
405.454	362.81
405.667	382.76
405.88	306.43
406.094	375.6
406.307	422.09
406.52	405.63
406.733	329.48
406.947	318.05
407.16	420.54
407.373	409.5
407.586	353.9
407.799	356.03
408.012	410.28
408.226	388.77
408.439	444.57
408.652	361.84
408.865	431.39
409.078	504.24
409.291	468.79
409.504	376.76
409.717	438.56
409.93	463.75
410.143	423.84
410.357	339.17
410.57	358.35
410.783	365.33
410.996	418.61
411.209	409.89
411.421	492.04
411.634	467.82
411.847	397.68
412.06	465.11
412.273	465.49
412.486	464.33
412.699	550.16
412.912	484.67
413.125	503.86
413.338	485.45
413.55	471.5
413.763	440.11
413.976	463.36
414.189	449.41
414.402	454.26
414.615	534.66
414.827	448.83
415.04	506.57
415.253	489.32
415.466	512.19
415.678	540.47
415.891	487.77
416.104	483.51
416.316	491.26
416.529	482.54
416.742	504.63
416.954	535.05
417.167	509.09
417.38	500.37
417.592	517.03
417.805	449.8
418.017	424.23
418.23	490.49
418.442	434.11
418.655	466.85
418.868	509.86
419.08	515.87
419.293	521.49
419.505	503.47
419.718	518
419.93	549.39
420.142	468.59
420.355	525.94
420.567	557.14
420.78	526.91
420.992	505.6
421.205	569.34
421.417	515.48
421.629	538.15
421.842	542.99
422.054	515.29
422.266	573.6
422.479	574.96
422.691	518.58
422.903	549.58
423.115	503.86
423.328	513.35
423.54	544.35
423.752	510.25
423.964	518.39
424.177	541.83
424.389	504.63
424.601	647.81
424.813	561.4
425.025	582.52
425.238	593.56
425.45	553.07
425.662	539.89
425.874	841.36
426.086	557.33
426.298	560.62
426.51	578.84
426.722	568.57
426.934	532.53
427.146	575.54
427.358	547.26
427.57	572.64
427.782	551.13
427.994	525.94
428.206	510.06
428.418	531.76
428.63	638.51
428.842	620.1
429.054	568.18
429.266	556.75
429.478	529.04
429.69	560.24
429.902	477.7
430.114	563.53
430.325	503.66
430.537	465.88
430.749	481.19
430.961	408.14
431.173	447.28
431.384	470.34
431.596	398.07
431.808	497.66
432.02	590.46
432.231	639.09
432.443	689.27
432.655	686.95
432.867	594.53
433.078	644.71
433.29	703.03
433.502	674.55
433.713	665.25
433.925	698.18
434.136	694.7
434.348	617.78
434.56	572.25
434.771	705.16
434.983	559.07
435.194	611.97
435.406	659.24
435.617	722.02
435.829	764.45
436.04	715.62
436.252	710.2
436.463	779.95
436.675	774.91
436.886	737.71
437.098	767.74
437.309	840.01
437.521	763.28
437.732	749.72
437.943	723.18
438.155	744.88
438.366	661.37
438.578	749.53
438.789	709.03
439	691.79
439.211	683.46
439.423	700.9
439.634	749.14
439.845	779.36
440.057	753.4
440.268	814.63
440.479	746.04
440.69	765.8
440.902	760.76
441.113	751.27
441.324	715.23
441.535	829.93
441.746	848.34
441.957	770.26
442.168	789.25
442.38	856.48
442.591	854.15
442.802	792.93
443.013	870.23
443.224	872.17
443.435	834.39
443.646	867.71
443.857	844.85
444.068	828.77
444.279	803.58
444.49	923.9
444.701	843.69
444.912	975.24
445.123	891.54
445.334	879.53
445.545	892.32
445.756	857.64
445.967	824.31
446.178	879.73
446.388	873.91
446.599	855.51
446.81	870.62
447.021	841.56
447.232	909.95
447.443	912.27
447.653	893.29
447.864	970.01
448.075	918.67
448.286	950.25
448.496	900.26
448.707	939.01
448.918	890.96
449.129	998.49
449.339	880.89
449.55	950.06
449.761	945.6
449.971	973.11
450.182	951.61
450.393	982.41
450.603	924.29
450.814	991.32
451.024	1002.75
451.235	1050.61
451.446	1064.56
451.656	1065.34
451.867	986.29
452.077	960.32
452.288	1051.39
452.498	1038.79
452.709	965.36
452.919	1009.73
453.13	899.68
453.34	999.85
453.55	900.46
453.761	980.47
453.971	932.23
454.182	989.39
454.392	975.82
454.602	1031.43
454.813	1024.84
455.023	988.42
455.233	953.93
455.444	992.87
455.654	886.7
455.864	967.11
456.075	977.57
456.285	967.69
456.495	996.56
456.705	1022.9
456.916	1056.62
457.126	1075.41
457.336	1018.64
457.546	942.5
457.756	999.65
457.967	1087.62
458.177	1007.4
458.387	1035.5
458.597	951.41
458.807	1023.87
459.017	1032.98
459.227	965.56
459.437	1026.2
459.647	1048.29
459.857	1029.1
460.068	1047.12
460.278	1089.75
460.488	1032.2
460.698	1080.06
460.908	1036.47
461.117	1006.24
461.327	1057
461.537	1076.96
461.747	1102.92
461.957	1060.49
462.167	1221.88
462.377	1175
462.587	1084.52
462.797	1163.76
463.007	1126.17
463.216	1173.45
463.426	1156.4
463.636	1160.27
463.846	1047.9
464.056	1101.18
464.265	1082.77
464.475	1062.82
464.685	1102.73
464.895	1143.03
465.104	1077.93
465.314	1130.24
465.524	1067.66
465.733	1082.19
465.943	1181.2
466.153	1187.4
466.362	1181.2
466.572	1172.86
466.782	1135.28
466.991	1158.92
467.201	1167.44
467.41	1065.53
467.62	1161.63
467.829	1135.86
468.039	1169.77
468.249	1109.7
468.458	1165.89
468.668	1190.5
468.877	1234.86
469.086	1245.13
469.296	1267.8
469.505	1200.18
469.715	1274.78
469.924	1220.53
470.134	1264.89
470.343	1252.3
470.552	1197.47
470.762	1195.34
470.971	1166.47
471.18	1214.91
471.39	1234.67
471.599	1211.03
471.808	1243.78
472.018	1250.75
472.227	1332.51
472.436	1337.36
472.645	1325.93
472.855	1293.38
473.064	1396.26
473.273	1356.34
473.482	1369.71
473.691	1360.99
473.901	1349.76
474.11	1330.77
474.319	1437.33
474.528	1348.79
474.737	1498.36
474.946	1416.6
475.155	1430.74
475.364	1478.02
475.573	1425.32
475.783	1476.66
475.992	1454.38
476.201	1503.4
476.41	1463.29
476.619	1375.33
476.828	1435.78
477.037	1399.36
477.245	1470.85
477.454	1458.84
477.663	1463.1
477.872	1497.78
478.081	1591.36
478.29	1511.92
478.499	1628.17
478.708	1593.88
478.917	1642.9
479.125	1519.09
479.334	1559
479.543	1553.58
479.752	1614.8
479.961	1639.21
480.169	1689.98
480.378	1658.2
480.587	1781.23
480.796	1674.48
481.004	1669.05
481.213	1696.76
481.422	1726.4
481.63	1742.87
481.839	1779.49
482.048	1784.14
482.256	1750.04
482.465	1808.55
482.674	1839.36
482.882	1791.69
483.091	1878.69
483.299	1818.24
483.508	1834.71
483.716	1831.8
483.925	1853.31
484.134	1798.47
484.342	1841.68
484.551	1857.57
484.759	1853.31
484.967	1892.83
485.176	1875.59
485.384	1883.53
485.593	1878.49
485.801	1874.62
486.01	1799.44
486.218	1741.13
486.426	1591.55
486.635	1603.37
486.843	1555.13
487.051	1647.93
487.26	1645.03
487.468	1746.94
487.676	1741.71
487.885	1816.69
488.093	1866.09
488.301	1902.52
488.509	1906.2
488.717	1970.52
488.926	1912.79
489.134	1862.61
489.342	1937.2
489.55	1876.94
489.758	1918.99
489.967	1950.18
490.175	2045.5
490.383	2047.63
490.591	2116.41
490.799	2004.23
491.007	2101.88
491.215	2079.6
491.423	2078.44
491.631	2072.43
491.839	2029.81
492.047	2070.3
492.255	2002.88
492.463	1948.63
492.671	1966.26
492.879	2065.26
493.087	2038.92
493.295	2074.76
493.503	2083.67
493.711	2168.92
493.919	2110.99
494.127	2154.58
494.334	2151.09
494.542	2082.51
494.75	2178.41
494.958	2136.18
495.166	2197.01
495.374	2214.26
495.581	2252.42
495.789	2231.89
495.997	2278.58
496.205	2132.3
496.412	2168.53
496.62	2198.18
496.828	2228.59
497.035	2199.53
497.243	2227.82
497.451	2248.55
497.658	2207.86
497.866	2228.79
498.074	2348.72
498.281	2205.73
498.489	2324.3
498.696	2217.16
498.904	2179.96
499.112	2149.54
499.319	2256.11
499.527	2234.02
499.734	2299.12
499.942	2201.86
500.149	2213.29
500.357	2243.9
500.564	2173.76
500.771	2217.55
500.979	2167.76
501.186	2195.66
501.394	2184.42
501.601	2187.71
501.808	2191.78
502.016	2166.21
502.223	2178.99
502.43	2205.73
502.638	2156.13
502.845	2192.17
503.052	2273.16
503.26	2227.43
503.467	2329.73
503.674	2282.26
503.881	2255.33
504.089	2365.38
504.296	2285.36
504.503	2201.28
504.71	2221.23
504.917	2226.66
505.125	2256.88
505.332	2303.96
505.539	2279.74
505.746	2402.97
505.953	2372.74
506.16	2385.53
506.367	2450.82
506.574	2488.41
506.781	2458.77
506.988	2403.16
507.195	2421.37
507.402	2381.46
507.609	2406.26
507.816	2306.67
508.023	2326.44
508.23	2308.03
508.437	2312.87
508.644	2355.89
508.851	2361.31
509.058	2398.7
509.265	2384.56
509.472	2455.67
509.679	2526.96
509.885	2431.25
510.092	2473.3
510.299	2427.96
510.506	2417.69
510.713	2419.05
510.92	2428.54
511.126	2461.87
511.333	2488.8
511.54	2469.81
511.746	2530.65
511.953	2513.4
512.16	2560.1
512.367	2513.98
512.573	2503.52
512.78	2508.36
512.987	2486.47
513.193	2421.37
513.4	2360.34
513.606	2457.22
513.813	2467.48
514.02	2457.6
514.226	2511.27
514.433	2501.39
514.639	2405.29
514.846	2390.18
515.052	2441.91
515.259	2430.28
515.465	2468.07
515.672	2441.13
515.878	2590.32
516.085	2490.15
516.291	2545.56
516.497	2506.81
516.704	2445.4
516.91	2377.2
517.117	2319.65
517.323	2175.51
517.529	2192.36
517.736	2187.71
517.942	2175.31
518.148	2239.83
518.354	2353.56
518.561	2314.81
518.767	2309.19
518.973	2377
519.179	2352.79
519.386	2355.69
519.592	2356.08
519.798	2368.87
520.004	2497.71
520.21	2460.12
520.417	2545.37
520.623	2611.24
520.829	2580.83
521.035	2617.25
521.241	2594.78
521.447	2609.5
521.653	2688.74
521.859	2575.4
522.065	2617.06
522.271	2731.56
522.477	2673.82
522.683	2713.35
522.889	2651.93
523.095	2661.23
523.301	2630.23
523.507	2611.05
523.713	2663.17
523.919	2592.26
524.125	2720.91
524.331	2628.1
524.537	2804.02
524.742	2821.85
524.948	2793.95
525.154	2808.09
525.36	2885.01
525.566	2813.32
525.772	2871.45
525.977	2759.27
526.183	2836.57
526.389	2850.33
526.595	2765.27
526.8	2718.77
527.006	2619.77
527.212	2548.28
527.417	2600.98
527.623	2546.73
527.829	2628.49
528.034	2661.42
528.24	2732.92
528.446	2763.53
528.651	2857.11
528.857	2850.13
529.062	2880.75
529.268	2874.16
529.473	2922.4
529.679	2939.65
529.884	2996.03
530.09	2961.15
530.295	2977.23
530.501	2964.45
530.706	2985.56
530.912	2907.1
531.117	2965.61
531.323	2970.06
531.528	3031.29
531.733	3033.61
531.939	2981.3
532.144	2997.77
532.35	3001.84
532.555	3043.69
532.76	2952.82
532.966	2946.23
533.171	2924.34
533.376	2888.88
533.581	2858.27
533.787	2904.58
533.992	3000.87
534.197	2967.35
534.402	2980.33
534.607	3014.63
534.813	3097.94
535.018	2967.16
535.223	3058.03
535.428	2995.25
535.633	3042.53
535.838	3083.99
536.043	3116.34
536.249	3231.82
536.454	3111.89
536.659	3126.03
536.864	3094.45
537.069	3121.96
537.274	3078.95
537.479	3073.33
537.684	3058.41
537.889	3017.73
538.094	3144.05
538.299	3037.49
538.504	3063.45
538.708	3107.04
538.913	3094.26
539.118	3130.29
539.323	3152.19
539.528	3059.19
539.733	3061.13
539.938	3113.44
540.142	3061.71
540.347	2984.79
540.552	2987.31
540.757	2956.7
540.962	3038.65
541.166	2933.25
541.371	2926.47
541.576	3022.38
541.781	2897.02
541.985	3047.37
542.19	3045.63
542.395	3157.61
542.599	3141.92
542.804	3084.38
543.008	3118.86
543.213	3079.53
543.418	3057.06
543.622	3120.61
543.827	3039.23
544.031	3148.12
544.236	3142.69
544.44	3139.79
544.645	3186.09
544.849	3079.73
545.054	3164.39
545.258	3189
545.463	3195.59
545.667	3144.63
545.872	3159.16
546.076	3176.99
546.281	3153.93
546.485	3099.87
546.689	3137.07
546.894	3196.94
547.098	3173.11
547.302	3104.91
547.507	3133.2
547.711	3145.99
547.915	3188.03
548.119	3081.86
548.324	3099.49
548.528	3146.37
548.732	3104.91
548.936	3192.68
549.141	3172.34
549.345	3132.62
549.549	3170.98
549.753	3164.01
549.957	3220
550.161	3245.19
550.366	3174.66
550.57	3178.15
550.774	3149.86
550.978	3182.41
551.182	3177.76
551.386	3084.38
551.59	3169.62
551.794	3140.56
551.998	3187.25
552.202	3154.12
552.406	3172.14
552.61	3208.18
552.814	3201.79
553.018	3227.94
553.222	3133.39
553.426	3113.63
553.63	3269.21
553.833	3149.67
554.037	3096
554.241	3173.69
554.445	3181.44
554.649	3119.44
554.853	3134.56
555.056	3182.8
555.26	3211.47
555.464	3159.16
555.668	3144.05
555.871	3181.64
556.075	3223.49
556.279	3087.09
556.483	3086.12
556.686	3135.52
556.89	3082.63
557.094	3108.01
557.297	3018.11
557.501	3077.4
557.704	2997.19
557.908	3095.03
558.112	3034.58
558.315	3120.8
558.519	3015.59
558.722	2994.67
558.926	3036.71
559.129	2913.3
559.333	2945.65
559.536	2947.78
559.74	2917.56
559.943	2879.97
560.147	2907.68
560.35	2884.82
560.553	2941
560.757	2883.65
560.96	2985.76
561.164	2962.7
561.367	3025.67
561.57	2949.72
561.774	2978.98
561.977	2931.9
562.18	2934.8
562.384	3017.53
562.587	2958.63
562.79	2916.2
562.993	2896.05
563.197	2906.52
563.4	3016.95
563.603	2972.78
563.806	3053.18
564.009	2932.28
564.212	2979.75
564.416	2860.6
564.619	2934.61
564.822	2858.66
565.025	2933.83
565.228	2887.53
565.431	2911.36
565.634	2806.54
565.837	2866.41
566.04	2840.64
566.243	2807.32
566.446	2713.54
566.649	2823.4
566.852	2761.4
567.055	2815.45
567.258	2823.59
567.461	2862.53
567.664	2835.8
567.867	2814.68
568.07	2820.49
568.273	2815.65
568.475	2862.15
568.678	2765.85
568.881	2756.94
569.084	2741.06
569.287	2685.06
569.489	2700.37
569.692	2764.5
569.895	2736.79
570.098	2695.91
570.3	2681.57
570.503	2657.55
570.706	2647.67
570.909	2631.2
571.111	2588.96
571.314	2612.21
571.516	2604.66
571.719	2625.78
571.922	2609.31
572.124	2635.08
572.327	2624.03
572.529	2601.75
572.732	2607.37
572.935	2641.28
573.137	2718.19
573.34	2678.09
573.542	2724.97
573.745	2678.47
573.947	2657.36
574.15	2618.03
574.352	2638.18
574.554	2731.17
574.757	2636.43
574.959	2626.94
575.162	2611.44
575.364	2581.41
575.566	2680.99
575.769	2578.5
575.971	2609.11
576.173	2479.11
576.376	2535.49
576.578	2595.94
576.78	2634.69
576.982	2516.89
577.185	2575.4
577.387	2519.21
577.589	2533.16
577.791	2547.89
577.993	2577.92
578.196	2522.31
578.398	2581.6
578.6	2555.45
578.802	2470.97
579.004	2434.35
579.206	2459.93
579.408	2497.71
579.61	2426.8
579.812	2522.12
580.014	2458.38
580.216	2439.97
580.418	2512.24
580.62	2464.77
580.822	2433
581.024	2480.27
581.226	2509.14
581.428	2479.88
581.63	2543.05
581.832	2433
582.034	2542.66
582.236	2498.48
582.438	2533.55
582.64	2569.78
582.841	2573.27
583.043	2578.31
583.245	2549.83
583.447	2541.88
583.649	2503.71
583.85	2565.91
584.052	2529.68
584.254	2494.03
584.456	2573.08
584.657	2456.25
584.859	2550.21
585.061	2480.47
585.262	2476.78
585.464	2454.5
585.666	2540.14
585.867	2437.26
586.069	2486.86
586.27	2395.6
586.472	2436.1
586.674	2384.95
586.875	2413.04
587.077	2433.77
587.278	2413.23
587.48	2412.65
587.681	2542.46
587.883	2447.33
588.084	2373.13
588.285	2427.38
588.487	2354.92
588.688	2409.36
588.89	2278.19
589.091	2261.53
589.292	2236.92
589.494	2196.24
589.695	2135.79
589.896	2110.99
590.098	2069.53
590.299	2165.24
590.5	2117.77
590.702	2189.65
590.903	2203.21
591.104	2275.29
591.305	2257.46
591.507	2325.66
591.708	2288.46
591.909	2289.24
592.11	2304.16
592.311	2327.99
592.512	2200.5
592.714	2173.76
592.915	2213.48
593.116	2247.97
593.317	2259.01
593.518	2258.24
593.719	2269.86
593.92	2309.97
594.121	2297.96
594.322	2265.6
594.523	2271.8
594.724	2222.59
594.925	2259.59
595.126	2274.51
595.327	2233.82
595.528	2268.89
595.729	2245.45
595.929	2255.52
596.13	2219.88
596.331	2253.97
596.532	2299.51
596.733	2328.76
596.934	2317.14
597.135	2320.04
597.335	2303.38
597.536	2216.19
597.737	2290.4
597.938	2246.03
598.138	2282.46
598.339	2244.09
598.54	2263.08
598.74	2234.6
598.941	2269.67
599.142	2353.75
599.342	2270.06
599.543	2228.79
599.744	2252.81
599.944	2259.4
600.145	2257.85
600.345	2220.26
600.546	2286.72
600.746	2289.62
600.947	2327.02
601.147	2217.16
601.348	2270.25
601.548	2214.45
601.749	2210.38
601.949	2175.89
602.15	2204.18
602.35	2162.53
602.551	2231.5
602.751	2197.98
602.951	2206.31
603.152	2131.72
603.352	2288.46
603.552	2193.14
603.753	2257.66
603.953	2246.03
604.153	2220.84
604.354	2247.97
604.554	2236.92
604.754	2230.72
604.954	2181.71
605.155	2265.6
605.355	2216.19
605.555	2259.59
605.755	2290.4
605.955	2221.23
606.155	2244.87
606.356	2227.43
606.556	2246.81
606.756	2220.07
606.956	2175.51
607.156	2247.77
607.356	2173.38
607.556	2215.03
607.756	2249.91
607.956	2247.39
608.156	2231.5
608.356	2157.29
608.556	2212.71
608.756	2228.01
608.956	2178.99
609.156	2120.87
609.356	2161.36
609.556	2131.91
609.755	2184.03
609.955	2150.13
610.155	2119.51
610.355	2169.5
610.555	2128.81
610.755	2153.03
610.954	2062.94
611.154	2128.04
611.354	2129.2
611.554	2094.52
611.753	2095.3
611.953	2068.75
612.153	2144.51
612.352	2152.84
612.552	2066.62
612.752	2042.4
612.951	2101.11
613.151	2051.31
613.351	2073.4
613.55	2076.5
613.75	2107.5
613.949	2032.13
614.149	2059.84
614.348	2055.96
614.548	2018.77
614.747	2015.86
614.947	2059.84
615.146	1960.83
615.346	2074.18
615.545	2045.12
615.745	2045.31
615.944	2048.41
616.144	2034.85
616.343	2021.48
616.542	2002.1
616.742	2024.77
616.941	1961.22
617.14	1919.76
617.34	1981.37
617.539	2001.52
617.738	1952.89
617.938	2068.95
618.137	1960.64
618.336	1942.62
618.535	2030.39
618.734	1995.52
618.934	2036.4
619.133	2052.67
619.332	2057.9
619.531	1962.77
619.73	2000.36
619.929	2029.23
620.128	2043.18
620.328	2070.88
620.527	1990.28
620.726	1988.73
620.925	2000.75
621.124	1934.68
621.323	1987.96
621.522	1937.59
621.721	1971.88
621.92	1951.34
622.119	1990.28
622.318	1940.88
622.517	1941.46
622.715	1929.45
622.914	1900.39
623.113	1966.45
623.312	1837.81
623.511	1963.55
623.71	1904.45
623.909	1855.24
624.107	1954.83
624.306	1873.07
624.505	1865.51
624.704	1895.15
624.902	1860.09
625.101	1944.95
625.3	1883.92
625.499	1871.71
625.697	1867.64
625.896	1818.04
626.095	1863.77
626.293	1858.54
626.492	1842.46
626.69	1863.38
626.889	1856.99
627.088	1912.59
627.286	1860.86
627.485	1842.65
627.683	1809.71
627.882	1895.54
628.08	1802.93
628.279	1828.12
628.477	1883.72
628.676	1742.48
628.874	1868.22
629.073	1790.14
629.271	1770.19
629.469	1858.34
629.668	1808.74
629.866	1774.64
630.065	1781.43
630.263	1822.69
630.461	1776
630.66	1803.12
630.858	1830.06
631.056	1834.32
631.254	1854.86
631.453	1735.89
631.651	1826.37
631.849	1756.43
632.047	1774.06
632.245	1744.61
632.444	1786.46
632.642	1803.9
632.84	1809.71
633.038	1763.79
633.236	1752.36
633.434	1759.34
633.632	1740.74
633.83	1749.65
634.028	1816.49
634.227	1770.19
634.425	1845.75
634.623	1775.42
634.821	1777.16
635.019	1769.22
635.216	1739.38
635.414	1838.39
635.612	1776.39
635.81	1763.02
636.008	1856.21
636.206	1758.37
636.404	1814.75
636.602	1733.96
636.8	1719.43
636.997	1778.52
637.195	1844.01
637.393	1781.43
637.591	1859.12
637.789	1794.79
637.986	1788.01
638.184	1787.04
638.382	1842.65
638.58	1806.03
638.777	1827.34
638.975	1758.76
639.173	1804.48
639.37	1787.62
639.568	1780.84
639.765	1783.56
639.963	1762.44
640.161	1763.41
640.358	1789.37
640.556	1679.13
640.753	1676.41
640.951	1692.3
641.148	1741.9
641.346	1689.98
641.543	1696.37
641.741	1691.72
641.938	1641.73
642.136	1693.27
642.333	1651.81
642.531	1738.61
642.728	1761.28
642.925	1719.04
643.123	1701.02
643.32	1750.43
643.517	1672.35
643.715	1693.08
643.912	1651.03
644.109	1692.5
644.306	1691.33
644.504	1641.73
644.701	1729.31
644.898	1700.63
645.095	1654.33
645.293	1661.3
645.49	1667.31
645.687	1674.28
645.884	1698.5
646.081	1602.02
646.278	1622.55
646.475	1652.97
646.672	1633.98
646.87	1653.75
647.067	1626.04
647.264	1642.31
647.461	1585.16
647.658	1572.76
647.855	1635.34
648.052	1597.37
648.249	1518.7
648.446	1574.7
648.642	1582.25
648.839	1540.98
649.036	1571.21
649.233	1540.98
649.43	1526.84
649.627	1497
649.824	1531.3
650.021	1531.49
650.217	1566.56
650.414	1560.94
650.611	1550.48
650.808	1575.28
651.004	1570.63
651.201	1574.89
651.398	1630.69
651.595	1577.6
651.791	1545.63
651.988	1598.14
652.185	1548.73
652.381	1577.6
652.578	1532.27
652.775	1553.58
652.971	1564.23
653.168	1548.15
653.364	1618.1
653.561	1493.52
653.757	1557.07
653.954	1575.67
654.15	1520.45
654.347	1613.06
654.543	1568.69
654.74	1492.35
654.936	1490.61
655.133	1514.44
655.329	1511.92
655.525	1520.45
655.722	1528.97
655.918	1475.5
656.115	1472.59
656.311	1354.99
656.507	1325.34
656.704	1265.67
656.9	1293.76
657.096	1304.81
657.292	1350.14
657.489	1354.21
657.685	1400.13
657.881	1365.26
658.077	1404.97
658.273	1431.13
658.47	1516.38
658.666	1465.62
658.862	1491.39
659.058	1442.37
659.254	1510.76
659.45	1458.06
659.646	1487.32
659.842	1520.06
660.038	1540.79
660.234	1466.2
660.43	1487.32
660.626	1563.46
660.822	1530.33
661.018	1538.66
661.214	1503.79
661.41	1478.99
661.606	1539.82
661.802	1559.97
661.998	1478.21
662.194	1475.11
662.39	1499.91
662.586	1511.92
662.781	1528.58
662.977	1534.59
663.173	1534.98
663.369	1529.75
663.564	1510.18
663.76	1540.21
663.956	1463.1
664.152	1515.02
664.347	1418.73
664.543	1483.83
664.739	1479.57
664.934	1380.37
665.13	1424.93
665.326	1493.52
665.521	1510.37
665.717	1431.13
665.912	1441.01
666.108	1390.25
666.304	1435.2
666.499	1435.59
666.695	1368.94
666.89	1475.89
667.086	1490.22
667.281	1501.65
667.477	1554.74
667.672	1430.55
667.867	1467.36
668.063	1497.78
668.258	1398
668.454	1432.68
668.649	1517.15
668.844	1438.49
669.04	1457.48
669.235	1462.32
669.43	1434.42
669.626	1418.92
669.821	1436.94
670.016	1425.9
670.211	1445.08
670.407	1388.31
670.602	1438.1
670.797	1419.7
670.992	1456.51
671.187	1395.29
671.382	1458.45
671.578	1410.98
671.773	1424.16
671.968	1334.06
672.163	1410.98
672.358	1463.1
672.553	1373.59
672.748	1418.34
672.943	1479.37
673.138	1409.82
673.333	1459.61
673.528	1371.46
673.723	1440.82
673.918	1401.68
674.113	1339.29
674.308	1452.25
674.503	1388.12
674.698	1449.34
674.892	1399.36
675.087	1431.91
675.282	1409.24
675.477	1373.01
675.672	1420.09
675.867	1384.24
676.061	1350.53
676.256	1319.73
676.451	1378.24
676.646	1380.76
676.84	1357.7
677.035	1332.51
677.23	1336
677.424	1420.67
677.619	1431.52
677.814	1423.77
678.008	1445.66
678.203	1361.77
678.397	1339.49
678.592	1401.68
678.787	1458.84
678.981	1364.67
679.176	1389.28
679.37	1380.56
679.565	1365.64
679.759	1379.01
679.954	1378.82
680.148	1431.52
680.342	1429.77
680.537	1359.64
680.731	1359.06
680.926	1394.9
681.12	1375.14
681.314	1373.2
681.509	1353.24
681.703	1346.27
681.897	1371.46
682.092	1348.98
682.286	1338.13
682.48	1413.11
682.674	1395.09
682.869	1340.84
683.063	1349.76
683.257	1454.57
683.451	1305
683.645	1391.41
683.839	1367.97
684.034	1314.49
684.228	1359.83
684.422	1307.33
684.616	1320.11
684.81	1370.68
685.004	1317.01
685.198	1325.93
685.392	1334.06
685.586	1321.08
685.78	1324.18
685.974	1358.67
686.168	1306.74
686.362	1375.91
686.556	1263.54
686.75	1216.07
686.944	1213.55
687.138	1162.4
687.331	1066.11
687.525	1114.16
687.719	1036.66
687.913	1118.42
688.107	1085.87
688.301	1052.55
688.494	1123.07
688.688	1071.15
688.882	1066.5
689.076	1058.55
689.269	1078.32
689.463	1199.21
689.657	1110.67
689.85	1074.25
690.044	1134.7
690.238	1113.77
690.431	1110.87
690.625	1116.1
690.818	1152.91
691.012	1193.79
691.205	1192.63
691.399	1109.7
691.593	1178.68
691.786	1200.96
691.98	1198.63
692.173	1243.78
692.366	1194.18
692.56	1223.24
692.753	1273.61
692.947	1208.51
693.14	1227.5
693.333	1264.89
693.527	1179.65
693.72	1231.18
693.914	1187.01
694.107	1200.96
694.3	1218.4
694.493	1189.53
694.687	1220.33
694.88	1173.25
695.073	1254.24
695.266	1257.34
695.46	1250.95
695.653	1252.88
695.846	1263.15
696.039	1206.77
696.232	1203.67
696.425	1261.21
696.618	1285.82
696.812	1271.87
697.005	1329.03
697.198	1406.14
697.391	1350.72
697.584	1343.56
697.777	1401.68
697.97	1362.54
698.163	1384.44
698.356	1363.9
698.549	1442.17
698.742	1418.73
698.935	1359.25
699.127	1419.89
699.32	1356.92
699.513	1383.08
699.706	1418.73
699.899	1425.32
700.092	1363.12
700.285	1432.87
700.477	1352.27
700.67	1453.41
700.863	1449.54
701.056	1551.45
701.248	1504.17
701.441	1500.1
701.634	1438.49
701.826	1584.58
702.019	1482.67
702.212	1534.2
702.404	1459.42
702.597	1487.7
702.79	1516.38
702.982	1525.29
703.175	1606.47
703.367	1617.13
703.56	1591.55
703.752	1679.51
703.945	1607.25
704.137	1641.93
704.33	1663.63
704.522	1699.66
704.715	1691.14
704.907	1709.54
705.1	1762.63
705.292	1750.23
705.484	1744.81
705.677	1757.01
705.869	1812.81
706.061	1835.67
706.254	1830.83
706.446	1840.52
706.638	1855.24
706.831	1924.6
707.023	1850.59
707.215	1952.5
707.407	1962
707.599	1954.44
707.792	1994.35
707.984	1998.42
708.176	2018.18
708.368	2021.09
708.56	2042.02
708.752	1994.55
708.944	2019.54
709.136	2070.11
709.329	2080.96
709.521	2189.84
709.713	2142.76
709.905	2165.04
710.097	2235.18
710.289	2139.86
710.481	2180.16
710.672	2225.49
710.864	2226.66
711.056	2264.82
711.248	2258.62
711.44	2264.05
711.632	2261.14
711.824	2358.21
712.016	2396.57
712.207	2378.36
712.399	2326.63
712.591	2426.41
712.783	2425.44
712.975	2446.56
713.166	2424.86
713.358	2439
713.55	2470.97
713.741	2513.01
713.933	2533.55
714.125	2500.81
714.316	2517.86
714.508	2570.75
714.7	2581.41
714.891	2583.73
715.083	2647.67
715.274	2609.89
715.466	2627.71
715.657	2674.6
715.849	2581.6
716.04	2614.34
716.232	2618.22
716.423	2639.73
716.615	2602.91
716.806	2601.56
716.998	2532.39
717.189	2499.45
717.381	2390.37
717.572	2386.89
717.763	2398.12
717.955	2401.03
718.146	2341.55
718.337	2297.37
718.528	2277.42
718.72	2200.11
718.911	2296.99
719.102	2193.14
719.293	2250.68
719.485	2256.49
719.676	2233.63
719.867	2218.52
720.058	2231.5
720.249	2223.94
720.44	2271.61
720.632	2293.11
720.823	2391.34
721.014	2517.08
721.205	2525.61
721.396	2613.57
721.587	2717.81
721.778	2754.04
721.969	2795.11
722.16	2872.22
722.351	2919.69
722.542	2969.29
722.733	3023.15
722.924	2942.94
723.115	3002.23
723.305	2960.18
723.496	2993.12
723.687	2899.73
723.878	2890.05
724.069	2897.22
724.26	2937.32
724.45	2842.97
724.641	2825.92
724.832	2883.27
725.023	2826.69
725.213	2865.25
725.404	2851.88
725.595	2881.91
725.785	2847.23
725.976	2951.27
726.167	2933.83
726.357	2961.35
726.548	3065.97
726.739	2973.36
726.929	3105.11
727.12	3068.1
727.31	3109.95
727.501	3075.66
727.691	3077.21
727.882	3121.38
728.072	3139.4
728.263	3121.38
728.453	3203.72
728.644	3265.92
728.834	3193.26
729.024	3199.65
729.215	3166.14
729.405	3162.84
729.596	3296.33
729.786	3298.85
729.976	3346.13
730.167	3331.4
730.357	3299.82
730.547	3348.45
730.737	3393.6
730.928	3413.36
731.118	3485.43
731.308	3437.96
731.498	3457.73
731.688	3509.84
731.879	3575.14
732.069	3579.79
732.259	3639.07
732.449	3638.49
732.639	3804.15
732.829	3790.58
733.019	3784.77
733.209	3926.98
733.399	3866.15
733.589	3979.29
733.779	3990.53
733.969	3948.29
734.159	4063.57
734.349	4117.24
734.539	4169.17
734.729	4170.91
734.919	4145.14
735.109	4279.8
735.299	4161.8
735.488	4224.19
735.678	4188.54
735.868	4252.28
736.058	4176.33
736.248	4252.67
736.437	4180.79
736.627	4165.68
736.817	4356.52
737.007	4251.9
737.196	4316.8
737.386	4292.58
737.576	4216.63
737.765	4344.51
737.955	4325.13
738.144	4496.02
738.334	4452.42
738.524	4372.41
738.713	4367.37
738.903	4362.72
739.092	4444.87
739.282	4396.63
739.471	4461.34
739.661	4427.82
739.85	4455.91
740.04	4497.76
740.229	4517.91
740.419	4511.32
740.608	4537.67
740.797	4514.42
740.987	4559.95
741.176	4599.67
741.365	4542.52
741.555	4466.57
741.744	4622.34
741.933	4529.15
742.123	4618.47
742.312	4604.13
742.501	4650.82
742.69	4667.68
742.88	4574.68
743.069	4698.1
743.258	4679.3
743.447	4729.48
743.636	4715.92
743.825	4701.39
744.014	4734.33
744.204	4736.26
744.393	4639.97
744.582	4823.45
744.771	4825
744.96	4718.83
745.149	4751.57
745.338	4723.48
745.527	4808.53
745.716	4766.49
745.905	4724.45
746.094	4818.99
746.283	4855.61
746.471	4780.44
746.66	4875.37
746.849	4825
747.038	4847.47
747.227	4805.24
747.416	4840.11
747.604	4760.87
747.793	4802.91
747.982	4790.13
748.171	4906.96
748.359	4806.21
748.548	4813.57
748.737	4811.44
748.926	4830.04
749.114	4673.3
749.303	4827.52
749.491	4793.61
749.68	4704.68
749.869	4808.14
750.057	4770.94
750.246	4765.33
750.434	4768.43
750.623	4773.66
750.811	4763.97
751	4794.78
751.188	4740.53
751.377	4753.7
751.565	4737.43
751.754	4705.46
751.942	4711.46
752.131	4792.06
752.319	4721.15
752.507	4721.73
752.696	4774.04
752.884	4743.82
753.072	4700.81
753.261	4732
753.449	4764.36
753.637	4678.91
753.825	4777.73
754.014	4712.63
754.202	4706.62
754.39	4762.03
754.578	4736.07
754.766	4664.19
754.955	4684.15
755.143	4753.31
755.331	4650.05
755.519	4703.52
755.707	4668.84
755.895	4672.91
756.083	4674.65
756.271	4632.03
756.459	4644.23
756.647	4674.46
756.835	4670.2
757.023	4655.08
757.211	4601.8
757.399	4584.17
757.587	4577
757.775	4536.12
757.963	4576.23
758.151	4563.64
758.339	4510.55
758.526	4507.06
758.714	4573.32
758.902	4452.81
759.09	4385.19
759.278	4145.92
759.465	3936.67
759.653	3526.51
759.841	3258.36
760.028	2839.09
760.216	2496.35
760.404	2380.69
760.591	2039.3
760.779	1786.85
760.967	1599.3
761.154	1412.72
761.342	1465.23
761.529	1460.77
761.717	1561.72
761.905	1591.94
762.092	1719.81
762.28	1704.31
762.467	1696.37
762.655	1644.64
762.842	1710.71
763.029	1761.08
763.217	1759.73
763.404	1765.34
763.592	1789.76
763.779	1776.58
763.966	1810.1
764.154	1882.56
764.341	1941.85
764.528	1930.03
764.716	2022.25
764.903	2082.31
765.09	2127.07
765.277	2218.33
765.465	2420.98
765.652	2444.04
765.839	2532
766.026	2689.91
766.213	2743.96
766.4	2841.8
766.588	3037.68
766.775	3059.96
766.962	3183.77
767.149	3292.46
767.336	3431.18
767.523	3379.65
767.71	3518.76
767.897	3641.01
768.084	3696.81
768.271	3732.07
768.458	3756.1
768.645	3870.41
768.832	3833.6
769.019	3866.53
769.206	3861.5
769.392	3962.44
769.579	4046.91
769.766	4024.82
769.953	3982.01
770.14	4057.37
770.327	4079.07
770.513	4067.64
770.7	4130.8
770.887	4057.95
771.073	4085.85
771.26	4068.42
771.447	4056.21
771.634	4036.26
771.82	4167.42
772.007	4046.72
772.193	4119.95
772.38	4142.43
772.567	4082.56
772.753	4044.97
772.94	4119.76
773.126	4067.84
773.313	4136.81
773.499	4092.05
773.686	4110.27
773.872	4004.09
774.059	4088.57
774.245	4000.41
774.432	4077.91
774.618	3959.73
774.804	4016.49
774.991	4007.97
775.177	4029.47
775.363	3962.44
775.55	4013.39
775.736	4003.12
775.922	4032.77
776.109	4013.39
776.295	3996.15
776.481	4013.78
776.667	3996.34
776.853	3919.62
777.04	3913.42
777.226	3963.6
777.412	4058.92
777.598	3930.47
777.784	3954.88
777.97	3883.58
778.156	3930.28
778.342	3921.56
778.528	3861.11
778.715	3835.53
778.901	3838.63
779.087	3872.35
779.272	3861.69
779.458	3827.4
779.644	3822.16
779.83	3826.81
780.016	3971.93
780.202	3829.91
780.388	3848.9
780.574	3733.82
780.76	3774.89
780.946	3793.68
781.131	3800.08
781.317	3781.67
781.503	3753
781.689	3758.62
781.874	3868.86
782.06	3725.48
782.246	3725.1
782.432	3739.63
782.617	3736.53
782.803	3820.03
782.989	3684.22
783.174	3688.48
783.36	3643.72
783.545	3653.22
783.731	3676.66
783.916	3541.23
784.102	3630.74
784.288	3627.64
784.473	3628.03
784.659	3617.76
784.844	3680.73
785.029	3580.95
785.215	3591.99
785.4	3548.4
785.586	3672.2
785.771	3511.01
785.956	3573.01
786.142	3539.29
786.327	3534.84
786.512	3545.3
786.698	3515.85
786.883	3436.61
787.068	3495.89
787.254	3510.62
787.439	3509.84
787.624	3503.26
787.809	3475.16
787.994	3481.36
788.18	3497.06
788.365	3385.65
788.55	3409.87
788.735	3449.59
788.92	3464.12
789.105	3400.76
789.29	3437.58
789.475	3318.23
789.66	3359.69
789.845	3362.21
790.03	3334.12
790.215	3364.15
790.4	3396.11
790.585	3441.84
790.77	3377.13
790.955	3260.49
791.14	3324.43
791.325	3415.49
791.51	3223.87
791.695	3318.42
791.879	3304.67
792.064	3251.19
792.249	3358.72
792.434	3282.77
792.618	3303.89
792.803	3342.25
792.988	3326.75
793.173	3302.73
793.357	3316.48
793.542	3283.35
793.727	3291.68
793.911	3289.55
794.096	3292.85
794.281	3330.63
794.465	3376.74
794.65	3269.21
794.834	3386.43
795.019	3359.5
795.203	3341.28
795.388	3364.15
795.572	3382.94
795.757	3356.59
795.941	3347.1
796.126	3310.48
796.31	3270.76
796.494	3368.21
796.679	3287.81
796.863	3311.25
797.048	3404.25
797.232	3325.4
797.416	3388.75
797.601	3334.7
797.785	3433.31
797.969	3378.68
798.153	3310.87
798.338	3399.6
798.522	3399.02
798.706	3440.48
798.89	3401.35
799.074	3450.36
799.258	3395.15
799.443	3419.75
799.627	3409.68
799.811	3450.36
799.995	3380.42
800.179	3354.85
800.363	3363.18
800.547	3347.29
800.731	3401.15
800.915	3309.32
801.099	3351.75
801.283	3345.93
801.467	3346.71
801.651	3342.25
801.835	3377.9
802.019	3359.88
802.202	3391.46
802.386	3327.72
802.57	3286.84
802.754	3313.58
802.938	3294.59
803.121	3305.05
803.305	3411.81
803.489	3334.89
803.673	3388.95
803.856	3377.13
804.04	3330.63
804.224	3341.87
804.407	3346.71
804.591	3309.32
804.775	3334.5
804.958	3331.6
805.142	3410.84
805.326	3314.74
805.509	3324.43
805.693	3355.43
805.876	3351.55
806.06	3350.97
806.243	3362.21
806.427	3399.21
806.61	3398.44
806.794	3329.66
806.977	3379.45
807.16	3373.45
807.344	3351.94
807.527	3361.82
807.71	3265.92
807.894	3338.38
808.077	3364.15
808.26	3314.74
808.444	3295.37
808.627	3368.02
808.81	3307.18
808.993	3205.27
809.177	3264.56
809.36	3227.75
809.543	3275.6
809.726	3154.51
809.909	3157.61
810.092	3149.67
810.276	3161.68
810.459	3173.5
810.642	3137.66
810.825	3074.69
811.008	3120.8
811.191	3001.65
811.374	3062.09
811.557	3083.41
811.74	3100.84
811.923	2997.96
812.106	2995.25
812.289	2964.64
812.472	2953.4
812.654	2986.34
812.837	2903.61
813.02	2873.38
813.203	2881.72
813.386	2767.02
813.569	2730.01
813.751	2657.36
813.934	2715.09
814.117	2671.31
814.3	2614.15
814.482	2567.07
814.665	2542.66
814.848	2449.85
815.03	2455.47
815.213	2428.35
815.396	2417.69
815.578	2370.42
815.761	2357.82
815.943	2376.62
816.126	2286.33
816.309	2252.23
816.491	2216
816.674	2152.84
816.856	2206.51
817.039	2202.63
817.221	2254.75
817.403	2232.86
817.586	2240.41
817.768	2212.9
817.951	2154.39
818.133	2129.4
818.315	2144.89
818.498	2152.84
818.68	2265.6
818.862	2205.15
819.045	2258.24
819.227	2214.45
819.409	2193.91
819.591	2254.94
819.774	2231.89
819.956	2180.35
820.138	2288.07
820.32	2244.48
820.502	2298.73
820.684	2390.18
820.866	2362.86
821.048	2444.43
821.231	2441.52
821.413	2456.63
821.595	2409.17
821.777	2410.91
821.959	2418.08
822.141	2476.98
822.323	2358.4
822.505	2249.32
822.686	2261.53
822.868	2149.93
823.05	2015.67
823.232	1971.88
823.414	1916.47
823.596	1975.56
823.778	1980.02
823.96	2006.37
824.141	1989.51
824.323	2036.78
824.505	2098.78
824.687	2189.07
824.868	2213.87
825.05	2311.71
825.232	2359.18
825.413	2410.91
825.595	2378.75
825.777	2301.25
825.958	2388.24
826.14	2348.14
826.321	2364.99
826.503	2341.35
826.685	2371
826.866	2420.6
827.048	2416.72
827.229	2316.17
827.411	2271.22
827.592	2222.78
827.773	2228.4
827.955	2182.68
828.136	2183.06
828.318	2146.83
828.499	2159.62
828.68	2109.83
828.862	2155.16
829.043	2184.42
829.224	2105.18
829.406	2103.43
829.587	2121.45
829.768	2127.46
829.949	2107.7
830.131	2079.6
830.312	2194.88
830.493	2126.88
830.674	2133.85
830.855	2108.47
831.036	2119.71
831.218	2147.99
831.399	2214.26
831.58	2138.31
831.761	2132.11
831.942	2126.3
832.123	2104.6
832.304	2087.16
832.485	2071.66
832.666	2083.86
832.847	2157.68
833.028	2109.83
833.209	2128.81
833.389	2110.8
833.57	1990.28
833.751	2042.98
833.932	2135.4
834.113	2073.79
834.294	2077.66
834.475	2119.71
834.655	2157.1
834.836	2164.46
835.017	2138.69
835.198	2043.76
835.378	2099.75
835.559	2151.68
835.74	2108.28
835.92	2124.94
836.101	2100.91
836.281	2167.95
836.462	2112.54
836.643	2147.61
836.823	2202.44
837.004	2181.71
837.184	2164.08
837.365	2216
837.545	2227.04
837.726	2132.88
837.906	2204.57
838.087	2201.08
838.267	2142.57
838.448	2099.95
838.628	2147.8
838.808	2154.78
838.989	2186.55
839.169	2127.46
839.349	2159.43
839.53	2187.52
839.71	2158.07
839.89	2157.49
840.07	2164.08
840.251	2145.48
840.431	2160.98
840.611	2175.12
840.791	2149.74
840.971	2161.17
841.151	2126.3
841.332	2080.38
841.512	2173.38
841.692	2090.65
841.872	2154.19
842.052	2114.86
842.232	2146.64
842.412	2052.09
842.592	2079.41
842.772	2160.78
842.952	2112.35
843.132	2088.32
843.312	2099.36
843.492	2033.3
843.672	2100.91
843.851	2000.17
844.031	2050.73
844.211	2069.72
844.391	2080.38
844.571	2059.65
844.751	2067.2
844.93	2097.62
845.11	2037.37
845.29	2058.68
845.47	2079.41
845.649	2042.02
845.829	2086.77
846.009	2023.8
846.188	2068.95
846.368	2068.56
846.547	2015.47
846.727	2070.11
846.907	1962.38
847.086	2046.28
847.266	2058.48
847.445	2004.04
847.625	2013.53
847.804	1950.57
847.984	2033.88
848.163	2005.78
848.343	1961.8
848.522	2027.29
848.701	1987.18
848.881	1972.85
849.06	1978.66
849.239	1974.2
849.419	1961.8
849.598	1910.27
849.777	1884.89
849.957	1895.35
850.136	1833.35
850.315	1794.41
850.494	1803.51
850.674	1781.23
850.853	1891.67
851.032	1822.11
851.211	1876.94
851.39	1853.5
851.569	1808.55
851.748	1795.76
851.927	1861.83
852.107	1844.78
852.286	1835.48
852.465	1801.38
852.644	1926.93
852.823	1838.39
853.002	1834.9
853.181	1807
853.359	1851.56
853.538	1748.49
853.717	1861.25
853.896	1733.76
854.075	1636.5
854.254	1624.1
854.433	1559.2
854.611	1596.59
854.79	1560.36
854.969	1609.96
855.148	1631.66
855.327	1577.99
855.505	1640.57
855.684	1622.94
855.863	1648.9
856.041	1654.33
856.22	1692.69
856.399	1685.13
856.577	1720.01
856.756	1751.2
856.934	1884.89
857.113	1853.89
857.291	1749.07
857.47	1735.89
857.648	1794.02
857.827	1769.22
858.005	1807.19
858.184	1759.92
858.362	1818.24
858.541	1725.04
858.719	1714.78
858.898	1726.21
859.076	1739.96
859.254	1813.97
859.433	1713.03
859.611	1724.46
859.789	1694.05
859.967	1769.8
860.146	1792.47
860.324	1676.03
860.502	1684.55
860.68	1658.78
860.859	1688.43
861.037	1718.65
861.215	1712.45
861.393	1689.98
861.571	1667.89
861.749	1636.7
861.927	1699.47
862.105	1676.22
862.283	1670.6
862.461	1641.73
862.639	1622.16
862.817	1594.27
862.995	1668.66
863.173	1641.73
863.351	1627.01
863.529	1659.17
863.707	1684.16
863.885	1638.05
864.063	1558.23
864.241	1608.6
864.418	1710.32
864.596	1618.48
864.774	1562.68
864.952	1596.78
865.129	1586.9
865.307	1551.83
865.485	1531.3
865.663	1583.42
865.84	1503.2
866.018	1491.19
866.196	1376.49
866.373	1397.22
866.551	1364.09
866.728	1320.5
866.906	1357.89
867.084	1405.17
867.261	1414.08
867.439	1458.64
867.616	1452.05
867.794	1471.43
867.971	1482.67
868.149	1458.06
868.326	1531.88
868.503	1518.7
868.681	1538.08
868.858	1483.25
869.035	1462.13
869.213	1516.96
869.39	1473.95
869.567	1543.31
869.745	1460.58
869.922	1538.85
870.099	1512.7
870.276	1505.92
870.454	1491.39
870.631	1499.33
870.808	1476.85
870.985	1499.52
871.162	1522.19
871.339	1493.71
871.517	1430.16
871.694	1425.9
871.871	1446.82
872.048	1445.85
872.225	1448.76
872.402	1464.26
872.579	1408.66
872.756	1486.15
872.933	1385.6
873.11	1415.24
873.287	1456.9
873.463	1410.21
873.64	1394.32
873.817	1420.28
873.994	1441.79
874.171	1375.91
874.348	1401.29
874.524	1363.32
874.701	1377.85
874.878	1334.84
875.055	1390.64
875.231	1403.62
875.408	1427.45
875.585	1320.69
875.762	1371.26
875.938	1347.04
876.115	1346.46
876.291	1330.96
876.468	1335.23
876.645	1306.36
876.821	1337.16
876.998	1334.84
877.174	1345.88
877.351	1353.63
877.527	1310.81
877.704	1329.99
877.88	1311.78
878.057	1304.81
878.233	1344.53
878.409	1277.68
878.586	1339.49
878.762	1320.31
878.938	1298.61
879.115	1241.26
879.291	1308.1
879.467	1238.93
879.644	1280.01
879.82	1295.89
879.996	1253.66
880.172	1252.3
880.349	1264.89
880.525	1291.24
880.701	1221.69
880.877	1231.38
881.053	1257.73
881.229	1251.72
881.405	1290.66
881.581	1206.19
881.757	1243.78
881.933	1259.47
882.109	1287.37
882.285	1266.64
882.461	1201.35
882.637	1265.67
882.813	1241.84
882.989	1237.77
883.165	1275.74
883.341	1222.85
883.517	1301.13
883.693	1266.06
883.869	1277.1
884.044	1207.93
884.22	1278.26
884.396	1279.04
884.572	1284.08
884.747	1294.34
884.923	1291.63
885.099	1262.18
885.275	1300.74
885.45	1209.68
885.626	1230.41
885.801	1238.16
885.977	1249.01
886.153	1172.48
886.328	1269.74
886.504	1209.29
886.679	1257.73
886.855	1194.56
887.03	1260.44
887.206	1277.1
887.381	1222.27
887.557	1251.14
887.732	1242.61
887.908	1253.27
888.083	1255.98
888.258	1224.01
888.434	1226.92
888.609	1214.91
888.784	1239.32
888.96	1216.85
889.135	1216.07
889.31	1213.36
889.485	1230.21
889.661	1223.43
889.836	1259.47
890.011	1258.7
890.186	1216.85
890.361	1226.53
890.537	1244.55
890.712	1273.23
890.887	1222.46
891.062	1229.05
891.237	1298.99
891.412	1214.33
891.587	1222.85
891.762	1292.99
891.937	1294.34
892.112	1207.74
892.287	1223.63
892.462	1145.35
892.637	1151.75
892.812	1148.84
892.987	1156.98
893.161	1165.5
893.336	1145.93
893.511	1138.77
893.686	1158.92
893.861	1149.42
894.035	1161.63
894.21	1158.53
894.385	1096.72
894.56	1152.91
894.734	1079.29
894.909	1101.18
895.084	1056.42
895.258	1024.84
895.433	1083.74
895.608	1054.49
895.782	983.96
895.957	990.74
896.131	1005.08
896.306	931.65
896.48	935.52
896.655	953.54
896.829	829.93
897.004	887.48
897.178	878.18
897.353	892.32
897.527	913.63
897.701	896.58
897.876	850.47
898.05	953.16
898.224	936.11
898.399	914.99
898.573	894.45
898.747	798.35
898.921	843.11
899.096	720.47
899.27	727.63
899.444	716.01
899.618	780.14
899.792	788.47
899.967	799.13
900.141	846.98
900.315	756.11
900.489	754.76
900.663	777.43
900.837	792.35
901.011	727.83
901.185	840.39
901.359	790.21
901.533	785.95
901.707	814.43
901.881	775.68
902.055	720.66
902.229	779.75
902.403	868.88
902.576	789.83
902.75	802.23
902.924	878.76
903.098	847.95
903.272	901.23
903.446	939.98
903.619	902.78
903.793	959.94
903.967	905.69
904.14	993.26
904.314	977.37
904.488	951.41
904.661	979.31
904.835	948.7
905.009	1001.79
905.182	1016.9
905.356	953.54
905.529	951.61
905.703	930.87
905.876	906.85
906.05	897.55
906.223	890.19
906.397	798.74
906.57	809.78
906.744	784.01
906.917	788.47
907.09	789.05
907.264	770.26
907.437	746.43
907.61	728.6
907.784	779.75
907.957	742.55
908.13	710.97
908.304	744.68
908.477	702.06
908.65	676.1
908.823	691.6
908.996	756.31
909.17	699.15
909.343	678.23
909.516	722.21
909.689	705.35
909.862	679.39
910.035	660.98
910.208	677.26
910.381	657.69
910.554	765.61
910.727	673.58
910.9	677.45
911.073	652.65
911.246	731.7
911.419	741.58
911.592	734.8
911.765	666.41
911.938	686.75
912.11	699.54
912.283	690.63
912.456	751.66
912.629	683.07
912.802	703.61
912.974	638.32
913.147	605.38
913.32	521.49
913.493	553.65
913.665	605.96
913.838	607.9
914.01	586.78
914.183	616.42
914.356	620.69
914.528	675.9
914.701	726.08
914.873	662.34
915.046	599.76
915.218	559.66
915.391	499.01
915.563	521.68
915.736	615.07
915.908	618.75
916.081	605.38
916.253	620.88
916.425	629.79
916.598	635.6
916.77	612.74
916.942	575.93
917.115	544.74
917.287	592.2
917.459	564.3
917.632	537.37
917.804	498.43
917.976	558.69
918.148	573.02
918.32	576.9
918.493	614.1
918.665	610.8
918.837	608.87
919.009	650.72
919.181	652.65
919.353	612.74
919.525	621.07
919.697	618.36
919.869	607.12
920.041	674.55
920.213	747.98
920.385	660.98
920.557	603.64
920.729	654.4
920.901	630.95
921.073	617.97
921.244	615.26
921.416	673
921.588	622.24
921.76	609.25
921.932	648.58
922.103	612.74
922.275	586.59
922.447	636.77
922.619	548.03
922.79	584.07
922.962	583.1
923.134	614.49
923.305	555.78
923.477	554.62
923.648	522.46
923.82	569.92
923.991	495.72
924.163	501.34
924.335	524.97
924.506	497.27
924.677	581.74
924.849	505.6
925.02	549.77
925.192	568.57
925.363	515.29
925.535	550.36
925.706	522.26
925.877	593.75
926.049	498.82
926.22	534.86
926.391	542.41
926.562	551.52
926.734	534.08
926.905	557.72
927.076	481.96
927.247	521.29
927.419	480.22
927.59	478.28
927.761	485.84
927.932	445.73
928.103	469.95
928.274	428.49
928.445	423.64
928.616	406.4
928.787	394.97
928.958	445.54
929.129	410.28
929.3	413.57
929.471	303.52
929.642	307.78
929.813	275.04
929.984	325.22
930.155	276.78
930.326	310.3
930.496	292.87
930.667	250.05
930.838	312.05
931.009	214.59
931.18	239.78
931.35	244.62
931.521	264
931.692	199.87
931.863	152.79
932.033	212.65
932.204	220.4
932.374	194.44
932.545	165.96
932.716	200.84
932.886	197.54
933.057	109.19
933.227	122.95
933.398	200.45
933.568	114.81
933.739	66.96
933.909	77.81
934.08	125.47
934.25	47.39
934.421	63.47
934.591	113.26
934.761	109.97
934.932	56.69
935.102	88.66
935.272	100.86
935.443	96.79
935.613	80.52
935.783	105.12
935.953	70.06
936.123	230.67
936.294	66.37
936.464	76.45
936.634	100.28
936.804	81.1
936.974	64.24
937.144	114.81
937.314	102.8
937.484	87.3
937.655	69.86
937.825	116.75
937.995	57.85
938.165	125.08
938.334	122.56
938.504	121.79
938.674	84.59
938.844	142.71
939.014	155.5
939.184	165.96
939.354	218.85
939.524	195.6
939.694	133.6
939.863	150.85
940.033	230.09
940.203	212.85
940.373	204.32
940.542	191.73
940.712	143.87
940.882	218.66
941.051	198.32
941.221	192.7
941.391	204.52
941.56	132.05
941.73	130.12
941.899	245.01
942.069	145.62
942.238	186.3
942.408	139.22
942.577	189.4
942.747	150.27
942.916	80.13
943.086	103.57
943.255	172.16
943.425	138.06
943.594	102.8
943.763	89.82
943.933	72.19
944.102	47.58
944.271	122.76
944.441	127.79
944.61	97.57
944.779	125.85
944.948	206.07
945.117	103.96
945.287	110.36
945.456	55.14
945.625	95.05
945.794	141.74
945.963	111.52
946.132	140.58
946.301	86.33
946.47	140.97
946.639	54.75
946.808	117.91
946.977	104.74
947.146	158.6
947.315	118.11
947.484	134.57
947.653	125.08
947.822	97.76
947.991	86.33
948.16	189.6
948.329	164.6
948.498	131.67
948.666	124.3
948.835	160.15
949.004	64.24
949.173	89.62
949.341	117.33
949.51	120.04
949.679	158.99
949.847	116.75
950.016	217.69
950.185	196.77
950.353	74.12
950.522	109
950.69	176.81
950.859	80.52
951.028	155.89
951.196	144.45
951.365	101.64
951.533	123.34
951.701	133.8
951.87	135.74
952.038	76.45
952.207	88.66
952.375	165.57
952.543	90.79
952.712	100.28
952.88	98.15
953.048	175.26
953.217	143.68
953.385	110.36
953.553	191.15
953.721	97.18
953.89	124.11
954.058	54.94
954.226	77.22
954.394	107.45
954.562	52.04
954.73	121.98
954.898	83.81
955.067	149.3
955.235	114.23
955.403	168.67
955.571	173.52
955.739	129.73
955.907	69.86
956.075	103.77
956.243	87.88
956.41	122.76
956.578	39.06
956.746	80.52
956.914	85.17
957.082	112.87
957.25	135.15
957.418	98.73
957.585	142.32
957.753	174.49
957.921	77.61
958.089	104.93
958.256	118.69
958.424	146.2
958.592	127.79
958.759	75.48
958.927	116.17
959.095	82.46
959.262	122.17
959.43	92.14
959.597	99.12
959.765	124.69
959.932	106.87
960.1	139.22
960.267	100.67
960.435	108.03
960.602	144.84
960.77	131.47
960.937	63.08
961.104	142.13
961.272	57.27
961.439	94.66
961.606	129.15
961.774	140.77
961.941	112.29
962.108	142.9
962.275	84.39
962.443	146.59
962.61	167.12
962.777	207.23
962.944	149.3
963.111	142.13
963.278	141.35
963.446	134.96
963.613	97.57
963.78	128.76
963.947	159.95
964.114	141.35
964.281	212.07
964.448	172.55
964.615	120.43
964.782	116.94
964.949	162.09
965.116	154.34
965.282	192.7
965.449	130.7
965.616	96.6
965.783	173.32
965.95	151.24
966.117	99.31
966.283	136.12
966.45	135.15
966.617	132.44
966.784	147.75
966.95	165.38
967.117	171.58
967.284	109.97
967.45	100.47
967.617	210.14
967.784	151.04
967.95	231.64
968.117	124.89
968.283	184.37
968.45	244.62
968.616	167.32
968.783	185.34
968.949	161.7
969.116	195.6
969.282	159.57
969.449	161.12
969.615	113.07
969.781	116.56
969.948	115.78
970.114	97.37
970.28	198.9
970.447	175.84
970.613	187.85
970.779	146
970.945	159.76
971.112	159.76
971.278	124.5
971.444	136.32
971.61	187.66
971.776	149.1
971.942	164.99
972.108	163.25
972.275	122.17
972.441	171.77
972.607	210.72
972.773	117.33
972.939	156.66
973.105	133.8
973.271	94.47
973.437	114.62
973.602	111.13
973.768	148.91
973.934	141.55
974.1	164.22
974.266	61.34
974.432	153.17
974.598	124.11
974.763	137.67
974.929	117.52
975.095	193.47
975.261	91.37
975.426	103.19
975.592	125.08
975.758	175.84
975.923	78
976.089	103.57
976.255	157.05
976.42	135.35
976.586	142.13
976.751	109.77
976.917	218.85
977.082	147.75
977.248	78
977.413	48.55
977.579	120.24
977.744	149.88
977.91	93.31
978.075	130.89
978.24	145.42
978.406	120.82
978.571	116.17
978.736	119.27
978.902	143.87
979.067	94.08
979.232	68.7
979.397	151.43
979.563	171.58
979.728	76.45
979.893	131.09
980.058	111.52
980.223	149.69
980.388	120.82
980.554	124.89
980.719	107.06
980.884	123.53
981.049	139.61
981.214	110.74
981.379	141.16
981.544	106.67
981.709	91.17
981.874	93.89
982.039	108.81
982.204	123.92
982.368	119.07
982.533	112.1
982.698	136.7
982.863	167.51
983.028	102.41
983.193	115.78
983.357	139.42
983.522	140
983.687	123.92
983.852	89.82
984.016	116.75
984.181	147.75
984.346	176.23
984.51	147.94
984.675	106.48
984.839	128.37
985.004	123.34
985.168	142.52
985.333	130.31
985.498	104.93
985.662	116.75
985.827	129.54
985.991	115.39
986.155	124.5
986.32	143.29
986.484	179.72
986.649	133.6
986.813	65.02
986.977	110.55
987.142	138.64
987.306	97.96
987.47	77.42
987.634	105.71
987.799	145.42
987.963	128.95
988.127	155.89
988.291	193.86
988.455	120.62
988.62	101.25
988.784	134.38
988.948	119.66
989.112	105.51
989.276	115.59
989.44	115.78
989.604	108.81
989.768	79.36
989.932	186.11
990.096	50.29
990.26	74.9
990.424	65.02
990.588	94.66
990.752	192.12
990.915	109.97
991.079	102.41
991.243	95.24
991.407	136.12
991.571	116.17
991.734	115.2
991.898	103.77
992.062	189.21
992.226	94.47
992.389	97.76
992.553	45.06
992.717	87.88
992.88	81.87
993.044	105.71
993.207	105.12
993.371	103.19
993.535	102.02
993.698	99.89
993.862	114.04
994.025	113.26
994.189	83.42
994.352	98.92
994.515	103.38
994.679	132.05
994.842	80.52
995.006	130.7
995.169	85.75
995.332	83.04
995.496	134.96
995.659	42.35
995.822	61.72
995.985	98.54
996.149	139.03
996.312	104.16
996.475	136.7
996.638	87.69
996.801	131.09
996.964	160.34
997.128	81.49
997.291	75.29
997.454	87.11
997.617	47.19
997.78	122.95
997.943	80.13
998.106	112.1
998.269	83.04
998.432	87.3
998.595	88.85
998.758	34.99
998.92	52.81
999.083	42.93
999.246	75.48
999.409	38.67
999.572	30.53
999.735	78.39
999.897	96.6
1000.06	47.39
1000.223	65.6
1000.386	88.46
1000.548	88.66
1000.711	115.01
1000.874	75.48
1001.036	27.43
1001.199	112.49
1001.361	55.33
1001.524	69.67
1001.687	114.04
1001.849	57.27
1002.012	95.82
1002.174	77.42
1002.337	95.63
1002.499	74.71
1002.661	121.01
1002.824	32.28
1002.986	53.97
1003.149	87.88
1003.311	24.14
1003.473	147.36
1003.636	67.54
1003.798	98.73
1003.96	73.16
1004.123	51.26
1004.285	41.96
1004.447	70.64
1004.609	72.77
1004.771	152.4
1004.933	32.47
1005.096	39.06
1005.258	3.41
1005.42	61.92
1005.582	86.52
1005.744	58.24
1005.906	-0.08
1006.068	69.09
1006.23	12.9
1006.392	12.9
1006.554	31.5
1006.716	98.92
1006.878	70.83
1007.04	19.68
1007.202	45.84
1007.363	76.45
1007.525	73.35
1007.687	82.84
1007.849	115.97
1008.011	30.73
1008.172	25.3
1008.334	73.16
1008.496	76.45
1008.658	-28.76
1008.819	42.74
1008.981	32.47
1009.143	39.64
1009.304	28.4
1009.466	56.11
1009.627	131.28
1009.789	158.02
1009.95	60.56
1010.112	34.41
1010.273	57.27
1010.435	28.01
1010.596	46.22
1010.758	50.29
1010.919	29.18
1011.081	29.95
1011.242	55.14
1011.403	84.39
1011.565	23.94
1011.726	84.2
1011.887	21.04
1012.049	30.92
1012.21	103.96
1012.371	93.89
1012.532	-26.62
1012.693	78.77
1012.855	25.11
1013.016	58.04
1013.177	68.31
1013.338	32.66
1013.499	100.86
1013.66	55.72
1013.821	85.56
1013.982	44.48
1014.143	79.16
1014.304	48.36
1014.465	46.42
1014.626	82.46
1014.787	10.19
1014.948	132.64
1015.109	-35.54
1015.27	79.74
1015.431	40.02
1015.592	21.23
1015.752	89.04
1015.913	61.53
1016.074	59.79
1016.235	56.49
1016.395	19.1
1016.556	51.65
1016.717	34.79
1016.877	88.85
1017.038	-10.35
1017.199	46.22
1017.359	21.43
1017.52	38.47
1017.681	47.39
1017.841	16.58
1018.002	18.13
1018.162	14.45
1018.323	78.77
1018.483	44.67
1018.644	20.65
1018.804	-4.92
1018.964	2.24
1019.125	21.04
1019.285	54.94
1019.446	7.09
1019.606	9.41
1019.766	-35.34
1019.926	53.97
1020.087	28.21
1020.247	-0.47
1020.407	56.49
1020.567	72.38
1020.728	18.33
1020.888	-22.17
1021.048	7.28
1021.208	7.67
1021.368	-1.05
1021.528	68.31
1021.688	76.26
1021.848	62.89
1022.008	26.46
1022.168	12.71
1022.328	38.67
1022.488	43.12
1022.648	11.93
1022.808	33.83
1022.968	49.71
1023.128	28.98
1023.288	-5.12
1023.448	47.19
1023.608	37.31
1023.767	30.92
1023.927	22.2
1024.087	32.86
1024.247	9.8
1024.406	22.39
1024.566	27.43
1024.726	-5.7
1024.885	18.71
1025.045	47.39
1025.205	23.17
1025.364	11.93
1025.524	30.14
1025.683	4.18
1025.843	27.24
1026.003	30.92
1026.162	71.99
1026.321	43.9
1026.481	24.72
1026.64	35.57
1026.8	24.53
1026.959	25.69
1027.119	55.52
1027.278	-4.34
1027.437	-15.39
1027.597	41.57
1027.756	42.74
1027.915	23.75
1028.074	59.98
1028.234	-8.61
1028.393	20.26
1028.552	-5.7
1028.711	-63.44
1028.87	68.7
1029.03	-11.51
1029.189	42.16
1029.348	-47.55
1029.507	-12.48
1029.666	3.79
1029.825	-22.17
1029.984	10.77
1030.143	34.79
1030.302	27.43
1030.461	-37.09
1030.62	34.99
1030.779	42.35
1030.938	-17.13
1031.097	-14.81
1031.255	52.42
1031.414	64.63
1031.573	62.11
1031.732	-23.14
1031.891	17.74
1032.049	63.27
1032.208	49.71
1032.367	-5.89
1032.525	9.22
1032.684	19.1
1032.843	30.53
1033.001	-33.21
1033.16	141.74
1033.319	47.39
1033.477	33.24
1033.636	-24.11
1033.794	-28.76
1033.953	60.56
1034.111	36.15
1034.27	-4.54
1034.428	32.28
1034.587	-0.66
1034.745	45.64
1034.903	1.08
1035.062	32.28
1035.22	-23.33
1035.378	38.28
1035.537	-14.42
1035.695	38.67
1035.853	12.71
1036.011	29.18
1036.17	35.96
1036.328	-32.63
1036.486	43.12
1036.644	22.2
1036.802	-71.57
1036.96	-17.32
1037.119	23.56
1037.277	-6.47
1037.435	-37.09
1037.593	-25.85
1037.751	-1.44
1037.909	46.81
1038.067	46.81
