Data from gum_old_FLMT105791__44__15-43-06-258.txt Node

Date: Mon Mar 20 15:43:06 GMT 2023
User: antho
Spectrometer: FLMT10579
Trigger mode: 0
Integration Time (sec): 1.000000E-1
Scans to average: 10
Electric dark correction enabled: true
Nonlinearity correction enabled: false
Boxcar width: 0
XAxis mode: Wavelengths
Number of Pixels in Spectrum: 3648
>>>>>Begin Spectral Data<<<<<
345.248	-159.68
345.464	-159.68
345.681	-159.68
345.898	-189.32
346.114	-161.81
346.331	-32.58
346.548	30.58
346.764	-9.33
346.981	-3.13
347.197	-22.89
347.414	12.56
347.631	-22.31
347.847	65.84
348.064	24.19
348.28	20.7
348.497	-50.41
348.713	-13.21
348.93	27.09
349.146	27.87
349.363	28.25
349.579	25.93
349.796	18.57
350.012	-3.71
350.229	54.22
350.445	21.67
350.661	6.17
350.878	44.72
351.094	35.81
351.311	30.58
351.527	54.99
351.743	23.02
351.96	53.64
352.176	68.55
352.392	40.27
352.609	66.42
352.825	9.46
353.041	34.26
353.257	20.31
353.474	29.8
353.69	56.93
353.906	26.51
354.122	4.42
354.339	86.96
354.555	46.66
354.771	24.77
354.987	71.85
355.203	101.3
355.42	53.83
355.636	22.44
355.852	36.78
356.068	37.36
356.284	13.92
356.5	89.29
356.716	40.65
356.932	32.32
357.148	80.95
357.364	40.46
357.58	99.55
357.796	102.27
358.012	93.16
358.228	49.57
358.444	1.13
358.66	119.9
358.876	42.98
359.092	10.43
359.308	43.56
359.524	53.05
359.74	30.39
359.956	49.37
360.172	70.3
360.388	98
360.604	50.34
360.819	148.38
361.035	67.97
361.251	90.25
361.467	27.87
361.683	103.82
361.898	96.84
362.114	100.72
362.33	71.27
362.546	95.49
362.762	66.81
362.977	79.21
363.193	31.16
363.409	119.9
363.624	52.09
363.84	38.52
364.056	21.09
364.271	100.52
364.487	83.67
364.703	65.26
364.918	40.65
365.134	82.5
365.35	72.43
365.565	201.08
365.781	79.4
365.996	116.41
366.212	154
366.427	106.53
366.643	67.97
366.858	81.15
367.074	74.56
367.289	140.63
367.505	199.14
367.72	39.49
367.936	86.57
368.151	150.12
368.367	116.41
368.582	109.43
368.798	83.86
369.013	152.06
369.228	103.82
369.444	91.22
369.659	123.19
369.874	107.11
370.09	165.04
370.305	55.57
370.52	107.5
370.736	146.05
370.951	104.98
371.166	138.11
371.381	155.16
371.597	121.45
371.812	79.4
372.027	80.95
372.242	120.09
372.458	158.45
372.673	104.59
372.888	102.27
373.103	145.28
373.318	174.53
373.533	124.93
373.749	116.41
373.964	59.25
374.179	133.07
374.394	49.95
374.609	152.64
374.824	97.23
375.039	137.53
375.254	66.04
375.469	131.91
375.684	91.42
375.899	157.1
376.114	114.67
376.329	144.12
376.544	150.7
376.759	159.62
376.974	96.07
377.189	93.16
377.404	132.3
377.619	147.02
377.834	83.47
378.049	86.77
378.264	130.17
378.478	180.15
378.693	126.68
378.908	179.96
379.123	159.62
379.338	155.55
379.553	135.59
379.767	118.35
379.982	149.93
380.197	151.87
380.412	143.53
380.626	156.71
380.841	215.8
381.056	171.05
381.271	219.29
381.485	122.61
381.7	143.15
381.915	160
382.129	116.22
382.344	122.42
382.559	119.51
382.773	142.95
382.988	83.67
383.202	121.64
383.417	78.82
383.632	186.74
383.846	117.96
384.061	101.1
384.275	99.55
384.49	132.88
384.704	164.27
384.919	157.48
385.133	143.53
385.348	184.03
385.562	111.76
385.777	203.21
385.991	163.49
386.206	134.04
386.42	160.58
386.634	203.98
386.849	196.04
387.063	170.47
387.277	149.54
387.492	154.77
387.706	122.22
387.92	131.33
388.135	196.43
388.349	181.9
388.563	194.49
388.778	174.34
388.992	206.7
389.206	197.98
389.42	255.52
389.635	156.13
389.849	232.85
390.063	238.08
390.277	202.05
390.491	274.51
390.706	231.88
390.92	228.98
391.134	208.25
391.348	254.55
391.562	168.33
391.776	252.61
391.99	241.76
392.205	242.15
392.419	228.59
392.633	195.46
392.847	264.63
393.061	192.36
393.275	249.71
393.489	173.76
393.703	152.06
393.917	187.32
394.131	107.3
394.345	168.92
394.559	211.35
394.773	167.56
394.986	240.99
395.2	224.33
395.414	266.37
395.628	226.65
395.842	269.08
396.056	266.56
396.27	209.99
396.484	254.55
396.697	237.7
396.911	227.43
397.125	181.51
397.339	187.13
397.553	206.7
397.766	244.09
397.98	240.02
398.194	302.99
398.408	264.82
398.621	329.53
398.835	342.51
399.049	343.68
399.262	413.62
399.476	389.01
399.69	383.78
399.903	449.07
400.117	387.66
400.331	422.53
400.544	374.67
400.758	494.02
400.971	419.82
401.185	426.99
401.398	363.05
401.612	439.58
401.826	436.67
402.039	437.45
402.253	420.01
402.466	459.54
402.68	441.71
402.893	452.17
403.106	421.56
403.32	443.46
403.533	450.43
403.747	430.09
403.96	440.36
404.174	467.48
404.387	426.99
404.6	464.57
404.814	492.47
405.027	447.72
405.24	446.94
405.454	417.3
405.667	490.34
405.88	405.09
406.094	441.52
406.307	512.43
406.52	446.56
406.733	417.11
406.947	404.12
407.16	512.04
407.373	499.25
407.586	435.32
407.799	448.49
408.012	498.29
408.226	461.47
408.439	538.39
408.652	458.18
408.865	508.94
409.078	541.1
409.291	529.67
409.504	502.94
409.717	535.49
409.93	541.3
410.143	500.8
410.357	426.79
410.57	412.46
410.783	478.14
410.996	478.33
411.209	498.87
411.421	577.14
411.634	540.13
411.847	537.23
412.06	577.14
412.273	572.3
412.486	557.38
412.699	648.25
412.912	558.73
413.125	590.7
413.338	549.43
413.55	578.88
413.763	556.22
413.976	595.93
414.189	535.87
414.402	557.96
414.615	654.25
414.827	534.71
415.04	643.21
415.253	608.33
415.466	658.71
415.678	652.7
415.891	590.32
416.104	594.77
416.316	588.57
416.529	587.22
416.742	642.63
416.954	661.61
417.167	626.35
417.38	620.73
417.592	651.93
417.805	578.69
418.017	566.29
418.23	637.2
418.442	541.88
418.655	590.7
418.868	588.77
419.08	628.48
419.293	626.93
419.505	627.13
419.718	613.57
419.93	681.18
420.142	610.47
420.355	633.52
420.567	607.17
420.78	642.63
420.992	603.3
421.205	712.38
421.417	607.56
421.629	635.07
421.842	636.43
422.054	650.18
422.266	696.88
422.479	701.14
422.691	625
422.903	656.96
423.115	606.98
423.328	629.45
423.54	635.65
423.752	634.68
423.964	638.56
424.177	671.69
424.389	660.26
424.601	756.55
424.813	650.76
425.025	685.83
425.238	726.71
425.45	634.88
425.662	648.44
425.874	963.28
426.086	666.46
426.298	668.2
426.51	699.98
426.722	693
426.934	676.53
427.146	694.16
427.358	649.21
427.57	719.35
427.782	649.21
427.994	646.7
428.206	644.56
428.418	659.1
428.63	706.37
428.842	758.88
429.054	690.68
429.266	713.35
429.478	634.1
429.69	652.7
429.902	617.44
430.114	686.03
430.325	649.02
430.537	569.97
430.749	554.86
430.961	479.1
431.173	544.01
431.384	564.93
431.596	494.02
431.808	617.44
432.02	687.58
432.231	761.78
432.443	849.16
432.655	779.22
432.867	741.83
433.078	769.14
433.29	849.94
433.502	822.04
433.713	821.46
433.925	799.95
434.136	863.89
434.348	718.96
434.56	711.02
434.771	865.05
434.983	727.68
435.194	764.88
435.406	827.66
435.617	855.94
435.829	904.19
436.04	873.96
436.252	894.3
436.463	907.09
436.675	935.77
436.886	927.82
437.098	952.62
437.309	965.22
437.521	922.2
437.732	905.15
437.943	900.12
438.155	873.19
438.366	851.49
438.578	932.09
438.789	872.8
439	864.47
439.211	824.17
439.423	819.71
439.634	897.02
439.845	901.86
440.057	888.49
440.268	988.66
440.479	931.5
440.69	932.28
440.902	927.82
441.113	921.04
441.324	929.57
441.535	969.48
441.746	1000.48
441.957	948.36
442.168	1009.78
442.38	1019.47
442.591	1038.65
442.802	963.67
443.013	1000.09
443.224	1072.94
443.435	1033.22
443.646	1019.47
443.857	970.64
444.068	985.17
444.279	1012.3
444.49	1110.91
444.701	1036.9
444.912	1177.18
445.123	1106.26
445.334	1055.7
445.545	1077.4
445.756	1065
445.967	1038.65
446.178	1049.3
446.388	1018.11
446.599	1039.23
446.81	1068.1
447.021	1000.67
447.232	1111.11
447.443	1093.28
447.653	1066.93
447.864	1147.34
448.075	1129.9
448.286	1150.63
448.496	1127.38
448.707	1159.16
448.918	1055.89
449.129	1204.11
449.339	1097.35
449.55	1164.78
449.761	1095.22
449.971	1162.06
450.182	1155.86
450.393	1174.85
450.603	1118.86
450.814	1231.81
451.024	1192.48
451.235	1250.8
451.446	1243.44
451.656	1287.81
451.867	1195
452.077	1216.12
452.288	1221.16
452.498	1228.33
452.709	1187.64
452.919	1171.94
453.13	1108.98
453.34	1133.78
453.55	1087.28
453.761	1145.21
453.971	1160.51
454.182	1161.48
454.392	1183.57
454.602	1274.63
454.813	1204.11
455.023	1226.39
455.233	1142.69
455.444	1187.44
455.654	1076.04
455.864	1175.63
456.075	1168.84
456.285	1175.43
456.495	1197.13
456.705	1222.13
456.916	1291.68
457.126	1288.58
457.336	1245.76
457.546	1175.04
457.756	1185.51
457.967	1280.06
458.177	1220.19
458.387	1227.55
458.597	1152.96
458.807	1219.8
459.017	1217.28
459.227	1203.14
459.437	1197.52
459.647	1233.36
459.857	1282.19
460.068	1244.02
460.278	1311.83
460.488	1265.33
460.698	1316.87
460.908	1238.4
461.117	1273.27
461.327	1298.46
461.537	1314.16
461.747	1276.57
461.957	1296.72
462.167	1434.67
462.377	1347.09
462.587	1290.32
462.797	1354.26
463.007	1315.9
463.216	1382.35
463.426	1383.52
463.636	1392.24
463.846	1286.06
464.056	1304.27
464.265	1341.86
464.475	1321.13
464.685	1312.22
464.895	1347.29
465.104	1297.69
465.314	1366.47
465.524	1313.19
465.733	1323.26
465.943	1424.01
466.153	1411.22
466.362	1434.08
466.572	1377.9
466.782	1332.75
466.991	1431.95
467.201	1440.67
467.41	1274.05
467.62	1419.36
467.829	1384.87
468.039	1405.41
468.249	1398.24
468.458	1475.93
468.668	1449.58
468.877	1461.4
469.086	1507.32
469.296	1508.87
469.505	1469.15
469.715	1510.81
469.924	1475.35
470.134	1517.98
470.343	1484.65
470.552	1455.4
470.762	1430.79
470.971	1459.08
471.18	1494.73
471.39	1501.12
471.599	1437.96
471.808	1575.33
472.018	1538.71
472.227	1608.07
472.436	1648.95
472.645	1586.56
472.855	1590.63
473.064	1681.89
473.273	1680.34
473.482	1630.35
473.691	1689.25
473.901	1646.24
474.11	1596.64
474.319	1712.89
474.528	1671.62
474.737	1753.96
474.946	1714.24
475.155	1734.78
475.364	1804.72
475.573	1735.75
475.783	1795.23
475.992	1796
476.201	1799.49
476.41	1798.52
476.619	1755.9
476.828	1758.61
477.037	1735.75
477.245	1742.92
477.454	1826.04
477.663	1839.99
477.872	1843.47
478.081	1926.59
478.29	1888.81
478.499	1979.1
478.708	1952.36
478.917	1990.72
479.125	1897.53
479.334	1891.91
479.543	1956.04
479.752	1974.83
479.961	1951.2
480.169	2025.4
480.378	2020.17
480.587	2152.5
480.796	2080.04
481.004	2022.3
481.213	2094.38
481.422	2093.21
481.63	2090.31
481.839	2131.57
482.048	2227.48
482.256	2136.03
482.465	2213.72
482.674	2195.51
482.882	2160.83
483.091	2249.57
483.299	2164.51
483.508	2236.39
483.716	2241.62
483.925	2220.89
484.134	2171.1
484.342	2220.31
484.551	2216.24
484.759	2239.88
484.967	2317.38
485.176	2263.32
485.384	2298
485.593	2278.44
485.801	2270.1
486.01	2177.49
486.218	2092.83
486.426	1955.07
486.635	1967.28
486.843	1916.71
487.051	2011.26
487.26	2000.21
487.468	2083.72
487.676	2177.69
487.885	2175.94
488.093	2234.84
488.301	2337.33
488.509	2355.16
488.717	2347.8
488.926	2377.05
489.134	2334.43
489.342	2342.37
489.55	2319.51
489.758	2373.37
489.967	2418.9
490.175	2528.37
490.383	2493.11
490.591	2614.97
490.799	2509.96
491.007	2576.61
491.215	2562.08
491.423	2528.37
491.631	2507.64
491.839	2495.24
492.047	2522.75
492.255	2465.21
492.463	2410.18
492.671	2377.83
492.879	2481.29
493.087	2493.88
493.295	2536.51
493.503	2546.19
493.711	2616.33
493.919	2624.66
494.127	2640.35
494.334	2605.09
494.542	2546.58
494.75	2659.15
494.958	2596.37
495.166	2741.3
495.374	2733.35
495.581	2740.33
495.789	2737.23
495.997	2787.22
496.205	2645.2
496.412	2650.82
496.62	2694.22
496.828	2706.23
497.035	2699.64
497.243	2802.91
497.451	2753.89
497.658	2740.91
497.866	2764.74
498.074	2810.47
498.281	2723.09
498.489	2808.92
498.696	2715.72
498.904	2645.97
499.112	2640.35
499.319	2767.84
499.527	2753.89
499.734	2832.55
499.942	2714.75
500.149	2762.8
500.357	2779.47
500.564	2699.06
500.771	2738
500.979	2652.17
501.186	2659.54
501.394	2694.99
501.601	2694.8
501.808	2712.43
502.016	2689.37
502.223	2658.95
502.43	2703.52
502.638	2696.74
502.845	2664.96
503.052	2819.96
503.26	2727.15
503.467	2881.57
503.674	2787.41
503.881	2785.67
504.089	2832.16
504.296	2793.22
504.503	2696.35
504.71	2712.62
504.917	2728.9
505.125	2730.64
505.332	2798.26
505.539	2810.08
505.746	2914.51
505.953	2923.81
506.16	2901.33
506.367	2932.53
506.574	3020.49
506.781	2982.9
506.988	2925.36
507.195	2935.43
507.402	2937.95
507.609	2915.48
507.816	2841.85
508.023	2876.92
508.23	2858.71
508.437	2779.66
508.644	2838.36
508.851	2929.62
509.058	2910.83
509.265	2901.91
509.472	2968.76
509.679	3034.44
509.885	2990.07
510.092	2959.26
510.299	2990.65
510.506	2902.11
510.713	2924
510.92	2927.88
511.126	2966.24
511.333	3006.15
511.54	3007.7
511.746	3008.47
511.953	3041.22
512.16	3110.77
512.367	2992.2
512.573	2987.55
512.78	3029.4
512.987	2980.58
513.193	2944.15
513.4	2872.27
513.606	2950.35
513.813	2956.36
514.02	2925.36
514.226	2998.21
514.433	2951.13
514.639	2901.53
514.846	2921.87
515.052	2903.27
515.259	2935.82
515.465	2962.17
515.672	2981.74
515.878	3045.09
516.085	3043.93
516.291	3047.03
516.497	3000.72
516.704	2956.36
516.91	2836.62
517.117	2775.98
517.323	2679.3
517.529	2633.19
517.736	2627.37
517.942	2628.34
518.148	2724.25
518.354	2774.82
518.561	2799.42
518.767	2742.65
518.973	2808.92
519.179	2816.66
519.386	2807.56
519.592	2850.38
519.798	2864.33
520.004	2978.44
520.21	2979.03
520.417	3052.84
520.623	3109.8
520.829	3105.35
521.035	3094.89
521.241	3101.28
521.447	3103.99
521.653	3274.1
521.859	3076.48
522.065	3169.09
522.271	3232.83
522.477	3208.42
522.683	3261.31
522.889	3173.55
523.095	3172.77
523.301	3156.11
523.507	3093.92
523.713	3175.1
523.919	3125.11
524.125	3255.89
524.331	3247.37
524.537	3350.83
524.742	3339.59
524.948	3358.38
525.154	3369.04
525.36	3469.79
525.566	3318.86
525.772	3391.9
525.977	3376.98
526.183	3316.92
526.389	3412.05
526.595	3258.21
526.8	3277.01
527.006	3106.51
527.212	3055.94
527.417	3050.13
527.623	3014.09
527.829	3128.6
528.034	3189.82
528.24	3203.58
528.446	3268.68
528.651	3372.91
528.857	3422.32
529.062	3434.72
529.268	3443.05
529.473	3499.04
529.679	3476.76
529.884	3599.6
530.09	3547.67
530.295	3500.01
530.501	3493.62
530.706	3480.64
530.912	3488.39
531.117	3513.77
531.323	3544.19
531.528	3610.64
531.733	3603.08
531.939	3555.23
532.144	3594.37
532.35	3569.57
532.555	3560.65
532.76	3531.79
532.966	3492.84
533.171	3417.67
533.376	3427.74
533.581	3365.74
533.787	3383.76
533.992	3553.49
534.197	3495.56
534.402	3535.66
534.607	3522.29
534.813	3589.14
535.018	3535.08
535.223	3569.76
535.428	3589.14
535.633	3629.05
535.838	3686.01
536.043	3690.46
536.249	3766.03
536.454	3646.29
536.659	3775.52
536.864	3692.01
537.069	3605.02
537.274	3619.17
537.479	3624.78
537.684	3603.86
537.889	3521.9
538.094	3677.1
538.299	3614.52
538.504	3641.64
538.708	3629.82
538.913	3726.31
539.118	3661.02
539.323	3693.56
539.528	3604.83
539.733	3612.19
539.938	3623.23
540.142	3579.25
540.347	3559.3
540.552	3486.64
540.757	3521.13
540.962	3540.12
541.166	3455.64
541.371	3450.41
541.576	3495.56
541.781	3492.46
541.985	3619.55
542.19	3536.05
542.395	3688.72
542.599	3710.42
542.804	3650.17
543.008	3687.17
543.213	3593.01
543.418	3544.77
543.622	3657.33
543.827	3595.53
544.031	3662.95
544.236	3696.08
544.44	3702.86
544.645	3749.17
544.849	3670.7
545.054	3702.09
545.258	3792.57
545.463	3731.15
545.667	3646.87
545.872	3749.36
546.076	3729.02
546.281	3729.41
546.485	3658.69
546.689	3683.1
546.894	3744.71
547.098	3679.62
547.302	3621.49
547.507	3710.03
547.711	3718.17
547.915	3773.97
548.119	3654.62
548.324	3659.85
548.528	3702.67
548.732	3648.03
548.936	3703.83
549.141	3730.76
549.345	3680
549.549	3718.17
549.753	3675.93
549.957	3719.72
550.161	3742.78
550.366	3757.5
550.57	3685.04
550.774	3716.62
550.978	3769.32
551.182	3741.61
551.386	3662.95
551.59	3687.17
551.794	3674.38
551.998	3746.65
552.202	3723.4
552.406	3681.55
552.61	3758.08
552.814	3756.73
553.018	3754.21
553.222	3677.48
553.426	3597.85
553.63	3774.94
553.833	3654.82
554.037	3599.21
554.241	3678.84
554.445	3719.91
554.649	3722.24
554.853	3652.88
555.056	3789.66
555.26	3750.14
555.464	3742
555.668	3745.68
555.871	3730.76
556.075	3785.59
556.279	3698.21
556.483	3659.66
556.686	3679.23
556.89	3643.97
557.094	3662.95
557.297	3605.02
557.501	3677.29
557.704	3506.99
557.908	3629.82
558.112	3556.78
558.315	3667.6
558.519	3581.97
558.722	3564.34
558.926	3550.39
559.129	3487.42
559.333	3413.99
559.536	3506.99
559.74	3420.96
559.943	3417.86
560.147	3423.48
560.35	3475.6
560.553	3482.77
560.757	3428.52
560.96	3530.82
561.164	3486.64
561.367	3617.81
561.57	3484.71
561.774	3576.15
561.977	3462.81
562.18	3467.66
562.384	3547.67
562.587	3457
562.79	3485.87
562.993	3470.76
563.197	3493.62
563.4	3511.05
563.603	3558.91
563.806	3570.92
564.009	3480.64
564.212	3478.51
564.416	3428.32
564.619	3419.99
564.822	3356.64
565.025	3492.46
565.228	3417.48
565.431	3453.71
565.634	3331.06
565.837	3370.78
566.04	3335.33
566.243	3294.64
566.446	3210.17
566.649	3339.59
566.852	3287.47
567.055	3309.75
567.258	3307.81
567.461	3400.23
567.664	3380.86
567.867	3287.66
568.07	3332.03
568.273	3367.68
568.475	3410.31
568.678	3313.82
568.881	3298.51
569.084	3254.53
569.287	3156.5
569.489	3193.7
569.692	3284.37
569.895	3260.73
570.098	3190.6
570.3	3205.32
570.503	3135.57
570.706	3150.49
570.909	3130.15
571.111	3071.44
571.314	3053.04
571.516	3085
571.719	3092.37
571.922	3064.47
572.124	3102.25
572.327	3171.03
572.529	3059.43
572.732	3100.89
572.935	3135.19
573.137	3239.62
573.34	3150.69
573.542	3213.27
573.745	3164.44
573.947	3137.51
574.15	3132.67
574.352	3114.07
574.554	3225.67
574.757	3100.12
574.959	3055.56
575.162	3167.73
575.364	3040.44
575.566	3152.24
575.769	3023.59
575.971	3059.62
576.173	2914.51
576.376	3043.74
576.578	3085.2
576.78	3114.07
576.982	2941.24
577.185	3028.62
577.387	2985.23
577.589	3035.79
577.791	3063.5
577.993	3013.9
578.196	3039.67
578.398	3016.81
578.6	3000.53
578.802	2905.59
579.004	2925.55
579.206	2933.49
579.408	2995.11
579.61	2927.49
579.812	3006.34
580.014	2972.83
580.216	2948.61
580.418	2966.24
580.62	2969.34
580.822	2974.96
581.024	2959.84
581.226	3001.31
581.428	2942.21
581.63	3070.67
581.832	2939.89
582.034	2992.39
582.236	2965.66
582.438	3024.56
582.64	3001.31
582.841	3037.15
583.043	3094.89
583.245	3009.06
583.447	2988.71
583.649	3010.22
583.85	3012.16
584.052	2988.13
584.254	2971.47
584.456	3012.35
584.657	2962.75
584.859	2980.58
585.061	2931.17
585.262	2945.51
585.464	2886.41
585.666	2967.4
585.867	2893
586.069	2920.32
586.27	2923.23
586.472	2897.65
586.674	2858.32
586.875	2879.83
587.077	2894.36
587.278	2908.5
587.48	2880.6
587.681	2986.58
587.883	2936.59
588.084	2836.81
588.285	2845.92
588.487	2805.43
588.688	2844.37
588.89	2722.12
589.091	2705.84
589.292	2658.18
589.494	2589.98
589.695	2572.93
589.896	2508.8
590.098	2467.53
590.299	2529.53
590.5	2531.08
590.702	2591.34
590.903	2637.84
591.104	2731.61
591.305	2719.21
591.507	2769
591.708	2731.8
591.909	2726.18
592.11	2769.97
592.311	2755.83
592.512	2700.61
592.714	2664.19
592.915	2677.17
593.116	2656.24
593.317	2710.49
593.518	2718.05
593.719	2682.59
593.92	2758.35
594.121	2766.48
594.322	2696.54
594.523	2739.75
594.724	2641.71
594.925	2660.5
595.126	2698.48
595.327	2706.62
595.528	2704.29
595.729	2686.27
595.929	2696.54
596.13	2679.49
596.331	2729.28
596.532	2703.9
596.733	2770.36
596.934	2770.36
597.135	2756.8
597.335	2725.02
597.536	2724.44
597.737	2719.79
597.938	2727.15
598.138	2728.51
598.339	2710.49
598.54	2741.68
598.74	2688.99
598.941	2663.41
599.142	2746.72
599.342	2697.9
599.543	2668.64
599.744	2704.29
599.944	2654.5
600.145	2671.74
600.345	2646.36
600.546	2736.65
600.746	2715.34
600.947	2748.27
601.147	2628.34
601.348	2717.27
601.548	2631.83
601.749	2646.36
601.949	2607.03
602.15	2614.78
602.35	2615.17
602.551	2651.59
602.751	2597.15
602.951	2615.17
603.152	2553.36
603.352	2672.13
603.552	2656.05
603.753	2680.46
603.953	2695.77
604.153	2669.42
604.354	2641.71
604.554	2684.72
604.754	2672.13
604.954	2640.94
605.155	2682.98
605.355	2637.06
605.555	2685.3
605.755	2695.57
605.955	2665.93
606.155	2675.23
606.356	2623.31
606.556	2674.26
606.756	2658.57
606.956	2582.81
607.156	2718.24
607.356	2577.77
607.556	2655.85
607.756	2656.24
607.956	2663.99
608.156	2633.19
608.356	2593.27
608.556	2631.06
608.756	2602.57
608.956	2594.24
609.156	2598.31
609.356	2535.54
609.556	2527.98
609.755	2593.86
609.955	2543.87
610.155	2548.13
610.355	2549.29
610.555	2516.55
610.755	2515.97
610.954	2462.88
611.154	2509.19
611.354	2571.77
611.554	2511.32
611.753	2533.79
611.953	2458.62
612.153	2532.83
612.352	2515.97
612.552	2476.44
612.752	2453.97
612.951	2527.01
613.151	2521.98
613.351	2464.43
613.55	2507.83
613.75	2499.89
613.949	2467.34
614.149	2463.27
614.348	2424.52
614.548	2429.75
614.747	2315.05
614.947	2445.83
615.146	2367.75
615.346	2488.65
615.545	2461.14
615.745	2454.94
615.944	2486.33
616.144	2414.45
616.343	2420.06
616.542	2411.73
616.742	2369.69
616.941	2377.83
617.14	2300.91
617.34	2371.05
617.539	2372.6
617.738	2333.27
617.938	2464.04
618.137	2371.24
618.336	2355.93
618.535	2395.26
618.734	2402.82
618.934	2361.17
619.133	2400.5
619.332	2423.55
619.531	2362.72
619.73	2386.74
619.929	2434.98
620.128	2425.1
620.328	2447.96
620.527	2396.62
620.726	2406.5
620.925	2400.11
621.124	2397.01
621.323	2382.86
621.522	2337.53
621.721	2357.87
621.92	2309.82
622.119	2376.08
622.318	2332.88
622.517	2352.45
622.715	2348.57
622.914	2317.57
623.113	2307.5
623.312	2256.74
623.511	2348.96
623.71	2286.19
623.909	2250.73
624.107	2356.71
624.306	2255.19
624.505	2262.35
624.704	2272.43
624.902	2254.6
625.101	2315.83
625.3	2276.89
625.499	2221.67
625.697	2243.37
625.896	2201.32
626.095	2301.1
626.293	2170.71
626.492	2192.41
626.69	2228.45
626.889	2182.14
627.088	2260.42
627.286	2247.44
627.485	2203.07
627.683	2234.07
627.882	2253.83
628.08	2119.76
628.279	2166.45
628.477	2216.24
628.676	2120.53
628.874	2172.84
629.073	2109.49
629.271	2143.59
629.469	2186.02
629.668	2138.55
629.866	2120.14
630.065	2089.14
630.263	2157.34
630.461	2122.86
630.66	2132.74
630.858	2143.78
631.056	2192.41
631.254	2171.87
631.453	2119.95
631.651	2134.09
631.849	2106.19
632.047	2102.71
632.245	2085.85
632.444	2115.88
632.642	2135.06
632.84	2158.51
633.038	2124.41
633.236	2069.96
633.434	2094.76
633.632	2095.54
633.83	2061.63
634.028	2155.02
634.227	2127.7
634.425	2224.38
634.623	2104.84
634.821	2102.32
635.019	2148.24
635.216	2113.17
635.414	2145.52
635.612	2129.83
635.81	2102.13
636.008	2188.15
636.206	2157.92
636.404	2116.07
636.602	2080.81
636.8	2105.81
636.997	2160.64
637.195	2149.01
637.393	2131.77
637.591	2200.74
637.789	2169.16
637.986	2089.73
638.184	2131.96
638.382	2162.96
638.58	2177.11
638.777	2157.73
638.975	2123.44
639.173	2137.39
639.37	2139.71
639.568	2145.14
639.765	2115.3
639.963	2087.4
640.161	2110.65
640.358	2075.58
640.556	2057.18
640.753	2055.04
640.951	2044.19
641.148	2072.68
641.346	2060.86
641.543	2050.01
641.741	2075.58
641.938	2026.18
642.136	2030.24
642.333	1985.88
642.531	2104.45
642.728	2082.17
642.925	2050.59
643.123	2050.2
643.32	2051.94
643.517	2009.9
643.715	2049.43
643.912	1985.3
644.109	2060.86
644.306	2009.71
644.504	1986.07
644.701	2027.73
644.898	2054.66
645.095	2004.09
645.293	2009.32
645.49	2043.03
645.687	1969.41
645.884	2019.78
646.081	1931.24
646.278	1938.21
646.475	1944.61
646.672	1951.39
646.87	1979.48
647.067	1927.56
647.264	1968.63
647.461	1908.57
647.658	1883.38
647.855	1948.87
648.052	1888.81
648.249	1841.92
648.446	1921.17
648.642	1856.84
648.839	1841.54
649.036	1860.33
649.233	1805.11
649.43	1839.79
649.627	1791.74
649.824	1839.6
650.021	1830.1
650.217	1822.16
650.414	1847.54
650.611	1861.1
650.808	1869.82
651.004	1872.92
651.201	1869.63
651.398	1945
651.595	1884.74
651.791	1835.34
651.988	1906.63
652.185	1820.22
652.381	1909.73
652.578	1838.82
652.775	1870.4
652.971	1868.47
653.168	1857.81
653.364	1930.66
653.561	1808.4
653.757	1878.15
653.954	1896.95
654.15	1828.36
654.347	1917.1
654.543	1869.24
654.74	1814.22
654.936	1814.8
655.133	1839.6
655.329	1809.95
655.525	1812.09
655.722	1820.22
655.918	1751.06
656.115	1780.89
656.311	1624.15
656.507	1592.96
656.704	1559.05
656.9	1572.61
657.096	1568.55
657.292	1593.73
657.489	1662.13
657.685	1685.57
657.881	1670.26
658.077	1690.99
658.273	1722.19
658.47	1807.63
658.666	1762.29
658.862	1782.44
659.058	1770.04
659.254	1797.75
659.45	1756.09
659.646	1777.6
659.842	1777.99
660.038	1839.99
660.234	1757.06
660.43	1780.89
660.626	1891.52
660.822	1806.66
661.018	1855.68
661.214	1825.65
661.41	1789.22
661.606	1859.17
661.802	1850.45
661.998	1795.42
662.194	1813.44
662.39	1848.7
662.586	1828.17
662.781	1857.62
662.977	1853.16
663.173	1851.42
663.369	1798.52
663.564	1849.48
663.76	1855.1
663.956	1769.27
664.152	1855.87
664.347	1723.54
664.543	1769.85
664.739	1757.26
664.934	1697.77
665.13	1742.72
665.326	1772.56
665.521	1788.84
665.717	1749.7
665.912	1758.22
666.108	1689.25
666.304	1765.2
666.499	1748.15
666.695	1675.11
666.89	1768.88
667.086	1770.62
667.281	1742.92
667.477	1815.96
667.672	1749.51
667.867	1728.58
668.063	1751.83
668.258	1697.58
668.454	1740.98
668.649	1806.85
668.844	1748.73
669.04	1770.82
669.235	1731.29
669.43	1740.01
669.626	1675.11
669.821	1724.12
670.016	1662.51
670.211	1707.46
670.407	1665.61
670.602	1746.21
670.797	1683.05
670.992	1750.67
671.187	1647.98
671.382	1780.31
671.578	1667.16
671.773	1714.24
671.968	1625.12
672.163	1683.44
672.358	1724.71
672.553	1642.36
672.748	1666
672.943	1741.56
673.138	1715.99
673.333	1702.04
673.528	1639.65
673.723	1702.23
673.918	1656.31
674.113	1638.68
674.308	1731.87
674.503	1702.62
674.698	1692.74
674.892	1647.79
675.087	1703.97
675.282	1679.76
675.477	1641.78
675.672	1702.42
675.867	1651.86
676.061	1632.68
676.256	1618.14
676.451	1658.25
676.646	1684.21
676.84	1624.73
677.035	1620.66
677.23	1628.61
677.424	1669.49
677.619	1703.97
677.814	1686.15
678.008	1703.78
678.203	1614.85
678.397	1628.61
678.592	1654.96
678.787	1713.86
678.981	1654.18
679.176	1662.9
679.37	1621.63
679.565	1587.15
679.759	1641.78
679.954	1651.66
680.148	1667.94
680.342	1701.46
680.537	1649.53
680.731	1616.59
680.926	1631.13
681.12	1655.54
681.314	1612.91
681.509	1641.78
681.703	1659.22
681.897	1598.19
682.092	1626.67
682.286	1607.29
682.48	1664.45
682.674	1666.19
682.869	1604
683.063	1620.08
683.257	1665.61
683.451	1601.09
683.645	1642.36
683.839	1624.15
684.034	1585.21
684.228	1658.06
684.422	1539.1
684.616	1573
684.81	1566.61
685.004	1555.76
685.198	1581.33
685.392	1600.32
685.586	1534.45
685.78	1554.21
685.974	1608.46
686.168	1582.3
686.362	1626.86
686.556	1521.85
686.75	1465.67
686.944	1415.29
687.138	1392.24
687.331	1285.29
687.525	1260.87
687.719	1199.65
687.913	1298.07
688.107	1275.02
688.301	1274.24
688.494	1275.21
688.688	1271.72
688.882	1281.41
689.076	1248.28
689.269	1271.53
689.463	1378.67
689.657	1325.78
689.85	1271.92
690.044	1308.34
690.238	1314.54
690.431	1306.21
690.625	1326.36
690.818	1359.69
691.012	1363.37
691.205	1377.7
691.399	1349.22
691.593	1380.61
691.786	1412
691.98	1442.03
692.173	1450.17
692.366	1409.29
692.56	1432.53
692.753	1489.69
692.947	1378.67
693.14	1468.57
693.333	1432.53
693.527	1414.32
693.72	1435.05
693.914	1418.78
694.107	1406.38
694.3	1423.62
694.493	1402.5
694.687	1460.05
694.88	1387.2
695.073	1496.08
695.266	1439.12
695.46	1437.18
695.653	1484.65
695.846	1467.8
696.039	1407.74
696.232	1430.6
696.425	1474
696.618	1506.35
696.812	1462.76
697.005	1549.36
697.198	1645.46
697.391	1569.51
697.584	1587.15
697.777	1658.25
697.97	1635.97
698.163	1617.37
698.356	1604.97
698.549	1668.13
698.742	1675.69
698.935	1588.69
699.127	1659.41
699.32	1615.43
699.513	1625.7
699.706	1633.45
699.899	1673.56
700.092	1633.06
700.285	1663.29
700.477	1579.78
700.67	1663.29
700.863	1676.66
701.056	1783.02
701.248	1715.79
701.441	1726.45
701.634	1664.26
701.826	1801.43
702.019	1682.66
702.212	1764.23
702.404	1694.29
702.597	1698.36
702.79	1736.52
702.982	1725.87
703.175	1822.16
703.367	1811.5
703.56	1830.1
703.752	1896.75
703.945	1915.93
704.137	1894.62
704.33	1907.8
704.522	1923.68
704.715	1954.68
704.907	1967.86
705.1	2047.49
705.292	2004.48
705.484	1979.29
705.677	2045.55
705.869	2052.14
706.061	2099.61
706.254	2110.84
706.446	2107.36
706.638	2081.2
706.831	2195.9
707.023	2124.21
707.215	2254.41
707.407	2235.42
707.599	2224.19
707.792	2234.45
707.984	2258.29
708.176	2304.01
708.368	2277.66
708.56	2304.01
708.752	2294.52
708.944	2294.52
709.136	2357.68
709.329	2321.06
709.521	2475.28
709.713	2432.27
709.905	2446.03
710.097	2487.88
710.289	2405.15
710.481	2447
710.672	2495.82
710.864	2499.69
711.056	2514.03
711.248	2543.87
711.44	2580.1
711.632	2540.58
711.824	2603.35
712.016	2636.09
712.207	2620.4
712.399	2644.42
712.591	2724.05
712.783	2693.25
712.975	2701.19
713.166	2680.27
713.358	2710.1
713.55	2796.9
713.741	2770.55
713.933	2763.58
714.125	2770.17
714.316	2813.56
714.508	2896.68
714.7	2875.95
714.891	2873.24
715.083	2930.01
715.274	2847.08
715.466	2900.56
715.657	2975.93
715.849	2868.2
716.04	2934.08
716.232	2888.35
716.423	2907.14
716.615	2849.8
716.806	2812.6
716.998	2746.72
717.189	2751.18
717.381	2631.64
717.572	2610.13
717.763	2638.22
717.955	2617.3
718.146	2567.31
718.337	2504.93
718.528	2466.95
718.72	2421.03
718.911	2470.05
719.102	2450.29
719.293	2484.39
719.485	2467.14
719.676	2466.37
719.867	2419.1
720.058	2430.72
720.249	2422.2
720.44	2471.99
720.632	2565.57
720.823	2545.03
721.014	2719.4
721.205	2761.83
721.396	2831
721.587	2945.89
721.778	2986.77
721.969	3039.86
722.16	3097.79
722.351	3120.07
722.542	3280.3
722.733	3275.26
722.924	3179.36
723.115	3241.94
723.305	3236.13
723.496	3261.9
723.687	3102.25
723.878	3131.31
724.069	3120.07
724.26	3132.28
724.45	3070.67
724.641	3066.99
724.832	3093.53
725.023	3057.49
725.213	3107.67
725.404	3078.22
725.595	3109.03
725.785	3098.37
725.976	3186.72
726.167	3176.45
726.357	3172.58
726.548	3326.41
726.739	3173.16
726.929	3282.63
727.12	3270.23
727.31	3412.05
727.501	3335.33
727.691	3312.08
727.882	3301.03
728.072	3349.08
728.263	3374.85
728.453	3469.98
728.644	3444.41
728.834	3453.9
729.024	3418.25
729.215	3396.94
729.405	3407.79
729.596	3566.85
729.786	3532.56
729.976	3598.82
730.167	3608.9
730.357	3598.05
730.547	3556.78
730.737	3654.82
730.928	3630.02
731.118	3670.12
731.308	3622.85
731.498	3700.15
731.688	3789.08
731.879	3795.28
732.069	3806.71
732.259	3906.3
732.449	3918.51
732.639	3986.32
732.829	4009.57
733.019	4097.14
733.209	4139.96
733.399	4144.22
733.589	4220.36
733.779	4225.59
733.969	4248.26
734.159	4336.61
734.349	4366.64
734.539	4469.14
734.729	4405.78
734.919	4475.92
735.109	4534.04
735.299	4425.15
735.488	4529.78
735.678	4442.4
735.868	4505.17
736.058	4473.78
736.248	4477.66
736.437	4446.47
736.627	4431.94
736.817	4575.89
737.007	4535.2
737.196	4602.43
737.386	4550.7
737.576	4498.78
737.765	4640.41
737.955	4607.47
738.144	4726.24
738.334	4644.67
738.524	4618.71
738.713	4707.06
738.903	4667.73
739.092	4703.18
739.282	4710.74
739.471	4696.59
739.661	4711.32
739.85	4771.57
740.04	4701.44
740.229	4779.32
740.419	4774.48
740.608	4841.32
740.797	4792.31
740.987	4873.1
741.176	4838.03
741.365	4826.02
741.555	4731.08
741.744	4900.8
741.933	4791.14
742.123	4812.26
742.312	4946.92
742.501	4909.33
742.69	4899.64
742.88	4815.75
743.069	4934.71
743.258	4934.9
743.447	4968.81
743.636	4973.85
743.825	4925.99
744.014	4968.62
744.204	5018.8
744.393	4907.2
744.582	5011.82
744.771	5037.59
744.96	4999.42
745.149	5044.37
745.338	4979.66
745.527	5041.08
745.716	5042.82
745.905	4995.35
746.094	5108.89
746.283	5057.16
746.471	5039.53
746.66	5098.81
746.849	5148.22
747.038	5073.82
747.227	5040.5
747.416	5115.86
747.604	5022.48
747.793	5100.36
747.982	5107.34
748.171	5131.94
748.359	5095.33
748.548	5083.89
748.737	5041.27
748.926	5099.01
749.114	4967.84
749.303	5084.48
749.491	5016.86
749.68	4981.6
749.869	5100.75
750.057	5010.66
750.246	5018.6
750.434	5037.2
750.623	5036.43
750.811	4979.85
751	5068.2
751.188	5038.95
751.377	5020.35
751.565	4997.1
751.754	4975.01
751.942	4927.35
752.131	5051.54
752.319	4924.25
752.507	4915.92
752.696	5039.33
752.884	5041.08
753.072	4950.6
753.261	4984.31
753.449	4971.52
753.637	4924.83
753.825	5038.56
754.014	4958.54
754.202	4946.53
754.39	5010.66
754.578	4994.97
754.766	4911.46
754.955	4914.75
755.143	4979.85
755.331	4909.52
755.519	4980.82
755.707	4939.75
755.895	4899.25
756.083	4962.03
756.271	4837.06
756.459	4920.57
756.647	4924.25
756.835	4884.34
757.023	4864.96
757.211	4877.36
757.399	4804.71
757.587	4840.55
757.775	4789.4
757.963	4851.59
758.151	4816.91
758.339	4751.23
758.526	4769.83
758.714	4787.66
758.902	4651.45
759.09	4658.04
759.278	4390.09
759.465	4145.96
759.653	3693.18
759.841	3408.76
760.028	2982.51
760.216	2661.67
760.404	2477.41
760.591	2093.02
760.779	1846.77
760.967	1687.7
761.154	1466.25
761.342	1509.06
761.529	1549.56
761.717	1658.25
761.905	1660.58
762.092	1787.29
762.28	1768.3
762.467	1809.18
762.655	1749.7
762.842	1761.52
763.029	1810.73
763.217	1843.67
763.404	1833.79
763.592	1905.67
763.779	1841.15
763.966	1906.05
764.154	1932.4
764.341	2035.28
764.528	2000.6
764.716	2114.14
764.903	2207.33
765.09	2289.48
765.277	2335.78
765.465	2514.03
765.652	2596.96
765.839	2715.14
766.026	2818.02
766.213	2887.19
766.4	2988.52
766.588	3152.62
766.775	3243.1
766.962	3343.27
767.149	3432.2
767.336	3580.42
767.523	3521.52
767.71	3670.51
767.897	3818.73
768.084	3894.67
768.271	3958.8
768.458	3991.35
768.645	4091.72
768.832	4077.77
769.019	4076.22
769.206	4107.02
769.392	4202.15
769.579	4265.51
769.766	4202.35
769.953	4201.76
770.14	4265.89
770.327	4237.41
770.513	4263.96
770.7	4353.08
770.887	4255.43
771.073	4286.43
771.26	4305.03
771.447	4284.49
771.634	4268.41
771.82	4364.12
772.007	4192.08
772.193	4309.1
772.38	4314.14
772.567	4288.37
772.753	4270.93
772.94	4379.62
773.126	4309.87
773.313	4327.51
773.499	4274.61
773.686	4338.36
773.872	4218.81
774.059	4327.31
774.245	4216.49
774.432	4301.16
774.618	4217.84
774.804	4233.93
774.991	4178.71
775.177	4240.13
775.363	4180.06
775.55	4203.7
775.736	4158.95
775.922	4181.42
776.109	4183.75
776.295	4200.6
776.481	4235.86
776.667	4222.88
776.853	4158.95
777.04	4115.74
777.226	4163.21
777.412	4233.54
777.598	4133.56
777.784	4135.7
777.97	4105.08
778.156	4122.71
778.342	4157.78
778.528	4092.3
778.715	3994.65
778.901	4058
779.087	4061.49
779.272	4047.35
779.458	4014.6
779.644	4027.59
779.83	4029.91
780.016	4073.31
780.202	4024.87
780.388	3975.66
780.574	3930.32
780.76	3956.48
780.946	4026.04
781.131	3977.79
781.317	3996.78
781.503	3926.06
781.689	3948.34
781.874	4033.2
782.06	3891.57
782.246	3972.75
782.432	3923.54
782.617	3944.47
782.803	4011.7
782.989	3903.59
783.174	3859.8
783.36	3847.98
783.545	3851.86
783.731	3842.75
783.916	3771.65
784.102	3822.6
784.288	3787.14
784.473	3770.48
784.659	3768.55
784.844	3812.14
785.029	3772.03
785.215	3765.25
785.4	3719.72
785.586	3816.98
785.771	3697.63
785.956	3779.01
786.142	3750.33
786.327	3704.22
786.512	3724.76
786.698	3669.93
786.883	3629.24
787.068	3683.49
787.254	3695.5
787.439	3640.87
787.624	3648.23
787.809	3606.57
787.994	3631.37
788.18	3697.44
788.365	3552.13
788.55	3559.3
788.735	3604.44
788.92	3590.1
789.105	3587.97
789.29	3578.09
789.475	3525.39
789.66	3555.04
789.845	3521.9
790.03	3467.07
790.215	3527.14
790.4	3546.9
790.585	3562.4
790.77	3475.79
790.955	3451.38
791.14	3504.08
791.325	3579.06
791.51	3410.5
791.695	3465.52
791.879	3455.64
792.064	3397.13
792.249	3504.66
792.434	3447.89
792.618	3408.95
792.803	3492.26
792.988	3442.27
793.173	3435.3
793.357	3494.2
793.542	3384.93
793.727	3441.11
793.911	3472.89
794.096	3461.46
794.281	3481.41
794.465	3571.5
794.65	3455.45
794.834	3502.53
795.019	3526.55
795.203	3487.81
795.388	3495.94
795.572	3566.08
795.757	3549.03
795.941	3540.12
796.126	3480.44
796.31	3444.99
796.494	3503.5
796.679	3494.39
796.863	3433.36
797.048	3563.37
797.232	3505.05
797.416	3518.22
797.601	3527.52
797.785	3558.14
797.969	3527.91
798.153	3511.44
798.338	3583.32
798.522	3605.6
798.706	3603.28
798.89	3608.7
799.074	3692.98
799.258	3641.25
799.443	3592.62
799.627	3528.3
799.811	3630.21
799.995	3544.96
800.179	3498.07
800.363	3492.46
800.547	3529.65
800.731	3603.47
800.915	3492.65
801.099	3504.08
801.283	3517.25
801.467	3526.75
801.651	3479.28
801.835	3576.35
802.019	3534.11
802.202	3544.38
802.386	3477.15
802.57	3423.87
802.754	3520.94
802.938	3458.36
803.121	3446.73
803.305	3559.69
803.489	3481.22
803.673	3507.76
803.856	3492.07
804.04	3470.56
804.224	3524.04
804.407	3515.32
804.591	3467.66
804.775	3484.9
804.958	3519.97
805.142	3594.17
805.326	3483.93
805.509	3512.41
805.693	3555.04
805.876	3550.58
806.06	3547.67
806.243	3520.94
806.427	3538.37
806.61	3552.13
806.794	3500.59
806.977	3561.43
807.16	3512.41
807.344	3493.42
807.527	3525.59
807.71	3535.85
807.894	3506.02
808.077	3474.63
808.26	3452.74
808.444	3489.94
808.627	3524.62
808.81	3416.31
808.993	3412.05
809.177	3381.24
809.36	3373.49
809.543	3367.68
809.726	3309.36
809.909	3303.16
810.092	3288.44
810.276	3317.11
810.459	3320.41
810.642	3278.95
810.825	3256.86
811.008	3303.75
811.191	3153.01
811.374	3215.78
811.557	3195.25
811.74	3244.07
811.923	3170.45
812.106	3148.36
812.289	3125.5
812.472	3092.17
812.654	3088.88
812.837	3067.57
813.02	3004.41
813.203	2992.78
813.386	2867.04
813.569	2915.09
813.751	2833.71
813.934	2852.7
814.117	2785.28
814.3	2747.11
814.482	2694.6
814.665	2654.3
814.848	2655.85
815.03	2563.82
815.213	2566.54
815.396	2548.71
815.578	2480.13
815.761	2450.68
815.943	2538.64
816.126	2390.23
816.309	2393.33
816.491	2329
816.674	2247.44
816.856	2257.9
817.039	2298.58
817.221	2361.55
817.403	2329.58
817.586	2300.91
817.768	2379.96
817.951	2206.17
818.133	2277.47
818.315	2248.99
818.498	2319.7
818.68	2374.34
818.862	2369.5
819.045	2395.85
819.227	2356.32
819.409	2316.8
819.591	2356.52
819.774	2334.43
819.956	2303.04
820.138	2403.79
820.32	2335.2
820.502	2406.5
820.684	2478.38
820.866	2486.91
821.048	2556.66
821.231	2560.92
821.413	2586.69
821.595	2538.64
821.777	2544.26
821.959	2541.16
822.141	2593.08
822.323	2467.34
822.505	2365.43
822.686	2308.08
822.868	2263.9
823.05	2107.55
823.232	2099.8
823.414	1973.67
823.596	2087.01
823.778	2060.66
823.96	2101.35
824.141	2115.49
824.323	2102.32
824.505	2184.47
824.687	2234.26
824.868	2333.85
825.05	2432.66
825.232	2497.18
825.413	2513.64
825.595	2505.12
825.777	2406.11
825.958	2467.92
826.14	2434.98
826.321	2475.67
826.503	2425.68
826.685	2476.83
826.866	2495.24
827.048	2494.27
827.229	2416.38
827.411	2431.69
827.592	2334.82
827.773	2337.53
827.955	2285.41
828.136	2258.29
828.318	2236.2
828.499	2285.8
828.68	2233.49
828.862	2219.15
829.043	2275.72
829.224	2200.94
829.406	2168.58
829.587	2222.44
829.768	2224.77
829.949	2240.65
830.131	2239.49
830.312	2288.51
830.493	2229.03
830.674	2239.88
830.855	2227.67
831.036	2223.22
831.218	2292.97
831.399	2317.38
831.58	2219.54
831.761	2245.89
831.942	2267.97
832.123	2193.19
832.304	2153.27
832.485	2209.27
832.666	2222.05
832.847	2257.32
833.028	2199.19
833.209	2206.94
833.389	2211.4
833.57	2107.55
833.751	2168.39
833.932	2213.14
834.113	2186.41
834.294	2167.61
834.475	2244.92
834.655	2246.85
834.836	2282.5
835.017	2260.8
835.198	2223.99
835.378	2208.3
835.559	2254.41
835.74	2227.67
835.92	2206.36
836.101	2203.07
836.281	2236.78
836.462	2242.79
836.643	2257.51
836.823	2264.1
837.004	2313.5
837.184	2327.45
837.365	2297.42
837.545	2269.91
837.726	2242.01
837.906	2345.47
838.087	2274.95
838.267	2268.94
838.448	2232.52
838.628	2240.65
838.808	2255.96
838.989	2312.73
839.169	2248.02
839.349	2242.4
839.53	2288.9
839.71	2277.27
839.89	2213.92
840.07	2282.31
840.251	2240.85
840.431	2299.94
840.611	2202.1
840.791	2221.86
840.971	2228.06
841.151	2231.94
841.332	2202.29
841.512	2286.19
841.692	2163.74
841.872	2229.8
842.052	2195.71
842.232	2241.62
842.412	2152.11
842.592	2190.09
842.772	2238.52
842.952	2245.3
843.132	2167.42
843.312	2181.76
843.492	2130.02
843.672	2219.15
843.851	2103.29
844.031	2171.29
844.211	2153.86
844.391	2124.02
844.571	2161.99
844.751	2163.16
844.93	2165.67
845.11	2115.88
845.29	2151.72
845.47	2204.23
845.649	2145.72
845.829	2178.66
846.009	2106.39
846.188	2132.54
846.368	2137.77
846.547	2145.14
846.727	2173.62
846.907	2085.46
847.086	2078.1
847.266	2169.16
847.445	2108.33
847.625	2094.38
847.804	2061.05
847.984	2106.78
848.163	2099.41
848.343	2021.53
848.522	2087.98
848.701	2094.96
848.881	2044.39
849.06	2077.91
849.239	2073.45
849.419	2071.13
849.598	1987.23
849.777	1985.49
849.957	1981.23
850.136	1906.25
850.315	1855.29
850.494	1886.87
850.674	1927.56
850.853	1929.5
851.032	1945.38
851.211	1963.4
851.39	1937.25
851.569	1882.61
851.748	1882.22
851.927	1983.75
852.107	1927.17
852.286	1883
852.465	1886.29
852.644	1940.15
852.823	1960.88
853.002	1937.25
853.181	1925.43
853.359	1948.1
853.538	1846.96
853.717	1941.9
853.896	1800.07
854.075	1741.95
854.254	1711.34
854.433	1609.62
854.611	1683.44
854.79	1601.48
854.969	1649.34
855.148	1702.62
855.327	1674.53
855.505	1721.8
855.684	1715.79
855.863	1728.39
856.041	1729.16
856.22	1749.31
856.399	1758.03
856.577	1842.89
856.756	1830.3
856.934	1938.21
857.113	1942.67
857.291	1838.44
857.47	1808.21
857.648	1849.87
857.827	1832.24
858.005	1877.96
858.184	1806.27
858.362	1928.53
858.541	1853.55
858.719	1817.7
858.898	1802.98
859.076	1804.92
859.254	1901.79
859.433	1788.45
859.611	1784.57
859.789	1772.56
859.967	1821.39
860.146	1820.8
860.324	1746.41
860.502	1777.79
860.68	1718.7
860.859	1731.1
861.037	1763.84
861.215	1787.29
861.393	1746.02
861.571	1743.31
861.749	1746.99
861.927	1790.39
862.105	1752.22
862.283	1782.44
862.461	1713.66
862.639	1737.11
862.817	1719.47
862.995	1740.59
863.173	1697
863.351	1763.45
863.529	1726.64
863.707	1756.09
863.885	1759.39
864.063	1673.17
864.241	1678.98
864.418	1788.64
864.596	1694.87
864.774	1648.76
864.952	1665.61
865.129	1682.66
865.307	1632.48
865.485	1595.48
865.663	1643.14
865.84	1585.6
866.018	1610.2
866.196	1482.13
866.373	1457.92
866.551	1458.3
866.728	1363.17
866.906	1432.92
867.084	1470.12
867.261	1552.27
867.439	1506.35
867.616	1551.5
867.794	1553.43
867.971	1539.29
868.149	1520.69
868.326	1623.57
868.503	1557.11
868.681	1568.74
868.858	1521.27
869.035	1505.77
869.213	1559.44
869.39	1539.29
869.567	1656.31
869.745	1523.4
869.922	1541.23
870.099	1559.25
870.276	1585.6
870.454	1572.61
870.631	1586.18
870.808	1529.02
870.985	1591.41
871.162	1611.36
871.339	1580.17
871.517	1492.02
871.694	1463.73
871.871	1518.75
872.048	1504.22
872.225	1537.74
872.402	1484.27
872.579	1457.53
872.756	1553.24
872.933	1460.05
873.11	1505.19
873.287	1510.81
873.463	1468.57
873.64	1465.28
873.817	1488.14
873.994	1502.28
874.171	1441.45
874.348	1459.08
874.524	1399.99
874.701	1450.55
874.878	1404.64
875.055	1457.14
875.231	1426.53
875.408	1492.6
875.585	1386.23
875.762	1409.67
875.938	1392.62
876.115	1387.78
876.291	1397.08
876.468	1417.42
876.645	1363.37
876.821	1387.59
876.998	1391.65
877.174	1410.84
877.351	1373.83
877.527	1390.49
877.704	1389.91
877.88	1396.3
878.057	1386.81
878.233	1421.49
878.409	1369.18
878.586	1369.76
878.762	1396.5
878.938	1389.52
879.115	1282.77
879.291	1358.72
879.467	1302.14
879.644	1342.64
879.82	1374.99
879.996	1298.66
880.172	1254.29
880.349	1332.37
880.525	1354.84
880.701	1284.51
880.877	1290.71
881.053	1340.7
881.229	1297.3
881.405	1337.02
881.581	1287.42
881.757	1306.79
881.933	1339.15
882.109	1355.42
882.285	1310.67
882.461	1270.37
882.637	1307.37
882.813	1228.71
882.989	1272.5
883.165	1341.86
883.341	1292.26
883.517	1343.8
883.693	1326.17
883.869	1330.43
884.044	1252.93
884.22	1329.27
884.396	1372.28
884.572	1310.28
884.747	1353.1
884.923	1319
885.099	1342.44
885.275	1371.31
885.45	1259.32
885.626	1306.6
885.801	1282.57
885.977	1304.66
886.153	1233.56
886.328	1309.31
886.504	1265.72
886.679	1318.22
886.855	1294.97
887.03	1325.39
887.206	1322.29
887.381	1275.41
887.557	1315.9
887.732	1288
887.908	1311.64
888.083	1314.93
888.258	1276.57
888.434	1266.11
888.609	1266.69
888.784	1308.54
888.96	1273.86
889.135	1278.89
889.31	1287.81
889.485	1319.39
889.661	1274.63
889.836	1310.28
890.011	1308.15
890.186	1322.68
890.361	1300.4
890.537	1292.65
890.712	1286.26
890.887	1311.06
891.062	1306.21
891.237	1344.57
891.412	1255.06
891.587	1308.54
891.762	1306.6
891.937	1327.91
892.112	1252.74
892.287	1273.66
892.462	1256.61
892.637	1208.18
892.812	1212.63
892.987	1200.43
893.161	1188.8
893.336	1197.33
893.511	1201.78
893.686	1197.91
893.861	1189.38
894.035	1205.66
894.21	1201.59
894.385	1151.41
894.56	1184.73
894.734	1143.85
894.909	1103.36
895.084	1145.79
895.258	1109.75
895.433	1108.78
895.608	1101.03
895.782	1072.75
895.957	1063.06
896.131	1054.15
896.306	994.47
896.48	966.57
896.655	996.6
896.829	908.06
897.004	922.4
897.178	938.48
897.353	936.15
897.527	979.17
897.701	950.1
897.876	873.57
898.05	983.04
898.224	965.02
898.399	996.41
898.573	923.95
898.747	809.64
898.921	849.74
899.096	784.06
899.27	751.9
899.444	777.67
899.618	831.53
899.792	841.41
899.967	838.7
900.141	854.2
900.315	789.49
900.489	780.77
900.663	826.69
900.837	827.46
901.011	766.24
901.185	910.97
901.359	819.13
901.533	854.59
901.707	824.17
901.881	825.14
902.055	779.22
902.229	823.59
902.403	874.16
902.576	819.32
902.75	802.86
902.924	956.11
903.098	903.8
903.272	915.42
903.446	967.93
903.619	946.42
903.793	987.3
903.967	945.84
904.14	1012.3
904.314	1014.82
904.488	981.3
904.661	999.12
904.835	1004.74
905.009	1012.49
905.182	1048.92
905.356	1033.22
905.529	987.11
905.703	945.45
905.876	945.07
906.05	917.17
906.223	934.6
906.397	873.38
906.57	840.06
906.744	823.78
906.917	805.37
907.09	820.68
907.264	817.19
907.437	767.4
907.61	728.07
907.784	775.93
907.957	770.5
908.13	734.85
908.304	811.77
908.477	731.75
908.65	741.83
908.823	682.73
908.996	787.74
909.17	719.16
909.343	731.94
909.516	745.31
909.689	754.81
909.862	707.15
910.035	716.25
910.208	667.81
910.381	701.91
910.554	790.65
910.727	709.08
910.9	712.38
911.073	728.65
911.246	773.21
911.419	792.98
911.592	764.11
911.765	723.23
911.938	706.76
912.11	736.21
912.283	734.08
912.456	770.5
912.629	731.75
912.802	733.88
912.974	662.2
913.147	620.54
913.32	568.81
913.493	609.69
913.665	628.68
913.838	642.63
914.01	618.02
914.183	639.33
914.356	660.06
914.528	709.08
914.701	723.61
914.873	702.3
915.046	654.83
915.218	582.18
915.391	517.27
915.563	537.62
915.736	606.4
915.908	628.29
916.081	630.23
916.253	632.36
916.425	641.66
916.598	687.77
916.77	641.66
916.942	584.12
917.115	553.89
917.287	635.46
917.459	570.55
917.632	563
917.804	546.33
917.976	589.73
918.148	600.78
918.32	615.5
918.493	650.57
918.665	646.89
918.837	613.18
919.009	706.95
919.181	677.7
919.353	661.81
919.525	642.82
919.697	595.55
919.869	648.05
920.041	703.85
920.213	754.81
920.385	687.77
920.557	636.43
920.729	669.17
920.901	679.25
921.073	666.65
921.244	607.37
921.416	668.01
921.588	606.59
921.76	602.91
921.932	692.42
922.103	633.52
922.275	624.8
922.447	655.03
922.619	577.14
922.79	623.83
922.962	583.15
923.134	637.01
923.305	565.71
923.477	544.2
923.648	560.28
923.82	584.31
923.991	530.25
924.163	528.51
924.335	564.74
924.506	527.54
924.677	602.33
924.849	550.79
925.02	563.77
925.192	598.45
925.363	567.45
925.535	551.37
925.706	565.52
925.877	600.58
926.049	538.59
926.22	552.53
926.391	580.05
926.562	600.2
926.734	537.04
926.905	580.43
927.076	508.94
927.247	545.56
927.419	492.67
927.59	447.33
927.761	508.94
927.932	476.78
928.103	485.89
928.274	441.52
928.445	413.04
928.616	438.81
928.787	434.35
928.958	467.48
929.129	443.07
929.3	436.48
929.471	363.63
929.642	316.55
929.813	293.88
929.984	352.2
930.155	265.6
930.326	348.13
930.496	272.96
930.667	238.86
930.838	295.63
931.009	239.25
931.18	264.24
931.35	232.27
931.521	256.88
931.692	197.4
931.863	170.47
932.033	198.17
932.204	193.33
932.374	242.15
932.545	164.65
932.716	211.93
932.886	200.5
933.057	111.57
933.227	151.67
933.398	221.23
933.568	104.01
933.739	66.62
933.909	65.45
934.08	142.76
934.25	37.17
934.421	66.04
934.591	113.5
934.761	71.46
934.932	60.42
935.102	134.82
935.272	107.3
935.443	109.24
935.613	93.35
935.783	113.89
935.953	78.63
936.123	219.48
936.294	86.38
936.464	97.04
936.634	111.57
936.804	48.21
936.974	46.47
937.144	107.69
937.314	120.87
937.484	94.13
937.655	57.12
937.825	129.58
937.995	73.4
938.165	136.37
938.334	103.82
938.504	103.04
938.674	113.12
938.844	131.91
939.014	196.43
939.184	152.06
939.354	222.58
939.524	200.88
939.694	186.16
939.863	151.48
940.033	203.21
940.203	217.74
940.373	195.65
940.542	197.59
940.712	172.02
940.882	189.65
941.051	199.14
941.221	195.85
941.391	184.42
941.56	154.19
941.73	169.69
941.899	261.91
942.069	164.65
942.238	185.19
942.408	166.01
942.577	205.34
942.747	155.93
942.916	94.9
943.086	113.31
943.255	215.03
943.425	178.8
943.594	139.47
943.763	62.16
943.933	87.93
944.102	52.47
944.271	124.74
944.441	152.83
944.61	102.65
944.779	111.76
944.948	189.07
945.117	88.32
945.287	130.75
945.456	58.87
945.625	95.49
945.794	138.11
945.963	110.98
946.132	139.47
946.301	138.11
946.47	141.4
946.639	64.29
946.808	92.58
946.977	139.08
947.146	170.08
947.315	103.43
947.484	156.52
947.653	113.12
947.822	116.22
947.991	92.19
948.16	206.5
948.329	173.18
948.498	99.94
948.666	118.54
948.835	172.98
949.004	71.85
949.173	84.64
949.341	122.03
949.51	127.26
949.679	166.98
949.847	152.64
950.016	202.82
950.185	214.25
950.353	92.39
950.522	122.42
950.69	199.72
950.859	130.75
951.028	171.05
951.196	135.4
951.365	81.54
951.533	115.25
951.701	154.38
951.87	154.77
952.038	90.06
952.207	113.31
952.375	186.16
952.543	86.38
952.712	113.5
952.88	108.08
953.048	165.43
953.217	116.41
953.385	112.34
953.553	168.72
953.721	119.51
953.89	118.35
954.058	99.17
954.226	98.39
954.394	142.57
954.562	71.85
954.73	132.49
954.898	110.98
955.067	172.6
955.235	93.16
955.403	131.13
955.571	181.51
955.739	131.91
955.907	75.34
956.075	106.33
956.243	89.87
956.41	139.08
956.578	73.98
956.746	79.21
956.914	129.78
957.082	162.52
957.25	154.58
957.418	74.95
957.585	133.27
957.753	160.39
957.921	80.18
958.089	127.07
958.256	122.42
958.424	138.88
958.592	130.94
958.759	103.62
958.927	143.34
959.095	79.21
959.262	141.98
959.43	107.5
959.597	102.46
959.765	107.88
959.932	79.79
960.1	156.52
960.267	137.53
960.435	139.85
960.602	172.98
960.77	113.89
960.937	79.4
961.104	128.62
961.272	66.23
961.439	115.63
961.606	135.2
961.774	162.13
961.941	114.08
962.108	163.88
962.275	150.51
962.443	169.3
962.61	137.14
962.777	195.65
962.944	135.01
963.111	176.67
963.278	131.13
963.446	119.51
963.613	134.43
963.78	145.67
963.947	153.03
964.114	125.71
964.281	203.79
964.448	158.26
964.615	131.52
964.782	142.95
964.949	160.97
965.116	165.82
965.282	197.4
965.449	133.65
965.616	107.5
965.783	143.92
965.95	142.37
966.117	99.94
966.283	129.58
966.45	129.78
966.617	146.44
966.784	173.37
966.95	189.45
967.117	173.76
967.284	110.98
967.45	115.44
967.617	192.16
967.784	174.73
967.95	206.7
968.117	154.19
968.283	198.95
968.45	226.46
968.616	171.82
968.783	185.58
968.949	178.22
969.116	186.35
969.282	160
969.449	178.8
969.615	173.95
969.781	120.87
969.948	140.82
970.114	113.89
970.28	180.35
970.447	162.52
970.613	187.32
970.779	125.13
970.945	175.7
971.112	150.51
971.278	136.37
971.444	140.63
971.61	196.43
971.776	144.31
971.942	151.87
972.108	185.38
972.275	160.39
972.441	158.45
972.607	225.1
972.773	121.64
972.939	171.43
973.105	166.98
973.271	112.15
973.437	107.11
973.602	115.63
973.768	166.4
973.934	128.23
974.1	136.17
974.266	60.03
974.432	158.45
974.598	129.97
974.763	165.62
974.929	115.63
975.095	201.85
975.261	122.42
975.426	111.18
975.592	158.65
975.758	201.08
975.923	99.17
976.089	107.88
976.255	165.82
976.42	138.88
976.586	143.73
976.751	160.58
976.917	218.51
977.082	173.37
977.248	88.7
977.413	101.69
977.579	125.13
977.744	148.57
977.91	74.37
978.075	96.65
978.24	159.81
978.406	122.42
978.571	94.13
978.736	118.54
978.902	139.47
979.067	113.89
979.232	75.53
979.397	100.52
979.563	190.81
979.728	95.49
979.893	103.62
980.058	110.79
980.223	151.09
980.388	126.68
980.554	118.93
980.719	80.57
980.884	136.75
981.049	154.58
981.214	113.12
981.379	147.22
981.544	114.67
981.709	106.92
981.874	112.53
982.039	98.97
982.204	165.04
982.368	129
982.533	112.92
982.698	140.43
982.863	168.33
983.028	85.22
983.193	128.23
983.357	140.24
983.522	131.13
983.687	97.62
983.852	108.08
984.016	122.8
984.181	148.96
984.346	124.93
984.51	148.96
984.675	119.12
984.839	155.55
985.004	129.97
985.168	160.97
985.333	129.58
985.498	123.97
985.662	154.58
985.827	136.95
985.991	118.54
986.155	112.53
986.32	143.34
986.484	198.75
986.649	135.59
986.813	66.62
986.977	132.88
987.142	145.28
987.306	67.59
987.47	81.54
987.634	101.1
987.799	132.49
987.963	141.79
988.127	143.73
988.291	187.71
988.455	110.98
988.62	100.91
988.784	168.33
988.948	125.71
989.112	113.12
989.276	132.88
989.44	103.23
989.604	78.82
989.768	90.64
989.932	182.09
990.096	115.63
990.26	76.69
990.424	63.71
990.588	88.12
990.752	179.18
990.915	154.97
991.079	115.83
991.243	75.34
991.407	126.29
991.571	118.93
991.734	147.02
991.898	126.29
992.062	174.73
992.226	111.95
992.389	65.26
992.553	67.2
992.717	63.52
992.88	81.73
993.044	106.33
993.207	103.43
993.371	114.86
993.535	104.98
993.698	114.47
993.862	117.57
994.025	122.03
994.189	119.51
994.352	114.67
994.515	99.94
994.679	131.72
994.842	74.95
995.006	142.37
995.169	77.66
995.332	103.62
995.496	114.47
995.659	65.65
995.822	106.92
995.985	97.62
996.149	141.4
996.312	73.4
996.475	152.64
996.638	52.47
996.801	140.05
996.964	141.79
997.128	87.54
997.291	103.43
997.454	92
997.617	47.82
997.78	87.35
997.943	86.77
998.106	148.18
998.269	67.39
998.432	80.95
998.595	84.83
998.758	27.87
998.92	67.97
999.083	33.49
999.246	75.72
999.409	83.67
999.572	36.78
999.735	63.9
999.897	84.05
1000.06	64.1
1000.223	92.97
1000.386	114.86
1000.548	125.71
1000.711	101.88
1000.874	108.08
1001.036	39.49
1001.199	123.58
1001.361	56.93
1001.524	106.14
1001.687	115.25
1001.849	58.09
1002.012	89.67
1002.174	80.95
1002.337	91.61
1002.499	66.62
1002.661	116.22
1002.824	53.44
1002.986	55.77
1003.149	67.78
1003.311	32.13
1003.473	121.83
1003.636	49.18
1003.798	77.66
1003.96	74.75
1004.123	72.24
1004.285	35.04
1004.447	61.19
1004.609	72.82
1004.771	98.2
1004.933	17.21
1005.096	54.02
1005.258	8.11
1005.42	22.25
1005.582	125.9
1005.744	72.82
1005.906	21.28
1006.068	79.4
1006.23	4.04
1006.392	17.79
1006.554	26.51
1006.716	112.15
1006.878	88.9
1007.04	27.48
1007.202	24.96
1007.363	47.63
1007.525	73.59
1007.687	73.98
1007.849	91.22
1008.011	6.36
1008.172	26.7
1008.334	36.2
1008.496	96.84
1008.658	0.36
1008.819	40.27
1008.981	17.99
1009.143	32.13
1009.304	53.25
1009.466	65.84
1009.627	119.12
1009.789	142.18
1009.95	67.59
1010.112	11.98
1010.273	70.69
1010.435	22.83
1010.596	56.54
1010.758	62.94
1010.919	44.92
1011.081	30.77
1011.242	47.63
1011.403	82.12
1011.565	61.97
1011.726	50.54
1011.887	36.2
1012.049	44.53
1012.21	83.09
1012.371	113.12
1012.532	-7.78
1012.693	19.92
1012.855	10.82
1013.016	37.17
1013.177	93.74
1013.338	60.42
1013.499	94.52
1013.66	90.25
1013.821	89.09
1013.982	48.02
1014.143	48.99
1014.304	35.81
1014.465	69.14
1014.626	72.04
1014.787	33.68
1014.948	115.25
1015.109	-36.07
1015.27	92.58
1015.431	19.73
1015.592	40.07
1015.752	100.14
1015.913	45.69
1016.074	54.8
1016.235	57.9
1016.395	30.77
1016.556	9.85
1016.717	41.43
1016.877	88.12
1017.038	-5.65
1017.199	67.59
1017.359	24.57
1017.52	36.97
1017.681	34.84
1017.841	33.68
1018.002	17.4
1018.162	26.32
1018.323	98.39
1018.483	37.75
1018.644	41.62
1018.804	2.87
1018.964	2.29
1019.125	12.37
1019.285	39.49
1019.446	5.2
1019.606	26.9
1019.766	-29.29
1019.926	44.92
1020.087	42.4
1020.247	10.43
1020.407	50.15
1020.567	80.37
1020.728	31.35
1020.888	9.85
1021.048	14.89
1021.208	32.13
1021.368	8.88
1021.528	77.85
1021.688	72.62
1021.848	70.69
1022.008	34.45
1022.168	14.31
1022.328	43.75
1022.488	55.77
1022.648	13.14
1022.808	23.99
1022.968	49.95
1023.128	-4.29
1023.288	29.8
1023.448	38.72
1023.608	40.46
1023.767	41.43
1023.927	24.77
1024.087	-11.46
1024.247	-14.56
1024.406	27.67
1024.566	-6.81
1024.726	10.62
1024.885	9.27
1025.045	61.97
1025.205	34.07
1025.364	39.49
1025.524	41.62
1025.683	13.53
1025.843	37.55
1026.003	35.04
1026.162	97.81
1026.321	43.17
1026.481	42.4
1026.64	31.55
1026.8	19.54
1026.959	17.6
1027.119	30.58
1027.278	17.6
1027.437	16.05
1027.597	11.4
1027.756	18.95
1027.915	33.68
1028.074	51.7
1028.234	-1.39
1028.393	32.9
1028.552	12.37
1028.711	-43.04
1028.87	33.1
1029.03	-38.01
1029.189	5.97
1029.348	-61.45
1029.507	2.87
1029.666	13.14
1029.825	-13.98
1029.984	-2.16
1030.143	7.91
1030.302	19.15
1030.461	-48.66
1030.62	18.95
1030.779	26.12
1030.938	-25.03
1031.097	-10.11
1031.255	63.13
1031.414	83.67
1031.573	50.92
1031.732	-55.83
1031.891	26.9
1032.049	40.65
1032.208	58.09
1032.367	22.44
1032.525	7.52
1032.684	-5.46
1032.843	32.71
1033.001	-36.46
1033.16	148.77
1033.319	65.45
1033.477	42.4
1033.636	-10.49
1033.794	-26.38
1033.953	30.39
1034.111	34.45
1034.27	10.62
1034.428	33.87
1034.587	-24.25
1034.745	31.35
1034.903	29.8
1035.062	20.5
1035.22	-37.43
1035.378	50.34
1035.537	-28.32
1035.695	48.21
1035.853	24.77
1036.011	48.02
1036.17	37.75
1036.328	-66.68
1036.486	27.48
1036.644	15.66
1036.802	-79.47
1036.96	-1.58
1037.119	22.64
1037.277	-2.55
1037.435	-20.38
1037.593	-18.83
1037.751	-3.52
1037.909	26.9
1038.067	26.9
