Data from gum_old_FLMT105791__170__15-47-57-249.txt Node

Date: Mon Mar 20 15:47:57 GMT 2023
User: antho
Spectrometer: FLMT10579
Trigger mode: 0
Integration Time (sec): 1.000000E-1
Scans to average: 10
Electric dark correction enabled: true
Nonlinearity correction enabled: false
Boxcar width: 0
XAxis mode: Wavelengths
Number of Pixels in Spectrum: 3648
>>>>>Begin Spectral Data<<<<<
345.248	-180.35
345.464	-180.35
345.681	-180.35
345.898	-195.85
346.114	-185.97
346.331	-57.51
346.548	38.39
346.764	-11.79
346.981	-21.86
347.197	11.85
347.414	23.28
347.631	-21.47
347.847	52.54
348.064	7.2
348.28	31.03
348.497	-51.7
348.713	0.03
348.93	29.68
349.146	53.31
349.363	19.6
349.579	19.41
349.796	-0.16
350.012	-0.94
350.229	52.15
350.445	6.43
350.661	-6.36
350.878	20.96
351.094	26.96
351.311	38.01
351.527	39.56
351.743	33.55
351.96	41.88
352.176	60.48
352.392	42.85
352.609	71.91
352.825	15.53
353.041	23.67
353.257	-12.56
353.474	15.53
353.69	41.88
353.906	34.71
354.122	10.88
354.339	52.73
354.555	6.43
354.771	13.4
354.987	85.67
355.203	80.44
355.42	23.86
355.636	10.88
355.852	10.3
356.068	25.61
356.284	-11.01
356.5	82.76
356.716	45.56
356.932	39.36
357.148	75.79
357.364	29.87
357.58	71.14
357.796	95.74
358.012	74.62
358.228	50.99
358.444	-41.62
358.66	85.09
358.876	25.41
359.092	-5.97
359.308	55.25
359.524	79.08
359.74	21.93
359.956	15.73
360.172	43.63
360.388	73.07
360.604	9.53
360.819	108.92
361.035	57.77
361.251	57.96
361.467	20.57
361.683	62.23
361.898	34.33
362.114	84.89
362.33	53.7
362.546	57.38
362.762	26.77
362.977	57.19
363.193	12.43
363.409	73.07
363.624	-0.94
363.84	23.86
364.056	28.13
364.271	56.61
364.487	52.15
364.703	17.66
364.918	7.01
365.134	28.13
365.35	49.05
365.565	180.99
365.781	56.99
365.996	49.05
366.212	104.46
366.427	73.66
366.643	21.54
366.858	49.05
367.074	28.51
367.289	99.62
367.505	162.2
367.72	-4.81
367.936	24.25
368.151	79.47
368.367	88.96
368.582	89.16
368.798	43.63
369.013	124.81
369.228	45.56
369.444	56.41
369.659	97.87
369.874	59.13
370.09	137.4
370.305	-29.22
370.52	40.33
370.736	126.55
370.951	58.54
371.166	108.72
371.381	122.67
371.597	84.7
371.812	15.14
372.027	36.84
372.242	57.96
372.458	145.92
372.673	49.24
372.888	60.48
373.103	87.41
373.318	123.64
373.533	82.18
373.749	96.13
373.964	20.96
374.179	136.24
374.394	19.02
374.609	98.65
374.824	11.46
375.039	87.8
375.254	45.37
375.469	125.77
375.684	86.06
375.899	90.32
376.114	49.83
376.329	54.67
376.544	81.41
376.759	90.32
376.974	38.2
377.189	56.61
377.404	64.55
377.619	112.02
377.834	18.44
378.049	30.06
378.264	28.9
378.478	77.92
378.693	67.26
378.908	99.62
379.123	70.75
379.338	153.87
379.553	89.35
379.767	64.74
379.982	98.84
380.197	112.99
380.412	103.49
380.626	108.72
380.841	163.75
381.056	109.5
381.271	159.49
381.485	46.92
381.7	64.74
381.915	89.74
382.129	78.31
382.344	87.61
382.559	69.39
382.773	121.51
382.988	9.33
383.202	89.93
383.417	15.73
383.632	168.2
383.846	71.33
384.061	73.66
384.275	56.99
384.49	90.71
384.704	119.19
384.919	77.72
385.133	78.5
385.348	89.54
385.562	32.78
385.777	125.19
385.991	78.11
386.206	48.08
386.42	87.22
386.634	146.7
386.849	113.37
387.063	123.84
387.277	67.84
387.492	77.53
387.706	59.9
387.92	50.6
388.135	103.3
388.349	106.01
388.563	103.69
388.778	120.93
388.992	103.3
389.206	104.07
389.42	181.77
389.635	113.18
389.849	124.03
390.063	164.33
390.277	123.45
390.491	184.09
390.706	128.68
390.92	121.71
391.134	128.1
391.348	148.25
391.562	69.78
391.776	139.53
391.99	107.76
392.205	157.74
392.419	99.81
392.633	103.49
392.847	159.68
393.061	69.59
393.275	183.9
393.489	105.04
393.703	104.85
393.917	151.74
394.131	65.71
394.345	84.51
394.559	144.96
394.773	91.67
394.986	131.01
395.2	115.7
395.414	170.72
395.628	103.88
395.842	140.31
396.056	135.27
396.27	99.81
396.484	154.26
396.697	131.01
396.911	173.05
397.125	132.94
397.339	145.15
397.553	123.06
397.766	181.96
397.98	165.49
398.194	187
398.408	138.17
398.621	188.16
398.835	222.84
399.049	176.73
399.262	224.78
399.476	222.65
399.69	211.02
399.903	296.47
400.117	216.45
400.331	222.65
400.544	186.8
400.758	337.54
400.971	220.13
401.185	249.77
401.398	189.71
401.612	259.85
401.826	224.59
402.039	266.63
402.253	178.86
402.466	283.29
402.68	238.73
402.893	247.83
403.106	261.4
403.32	221.29
403.533	253.84
403.747	207.73
403.96	227.49
404.174	272.05
404.387	185.64
404.6	259.07
404.814	295.11
405.027	241.64
405.24	241.25
405.454	240.28
405.667	287.17
405.88	184.87
406.094	265.47
406.307	280.19
406.52	267.98
406.733	239.12
406.947	215.29
407.16	304.6
407.373	271.47
407.586	207.92
407.799	202.3
408.012	272.63
408.226	272.83
408.439	310.8
408.652	218.77
408.865	276.12
409.078	326.88
409.291	294.53
409.504	248.03
409.717	296.47
409.93	314.87
410.143	277.87
410.357	205.79
410.57	189.13
410.783	231.17
410.996	251.71
411.209	265.47
411.421	327.66
411.634	295.3
411.847	265.85
412.06	281.74
412.273	306.73
412.486	301.7
412.699	377.65
412.912	313.52
413.125	345.48
413.338	322.23
413.55	314.29
413.763	300.73
413.976	318.94
414.189	306.54
414.402	276.7
414.615	379.39
414.827	287.36
415.04	358.27
415.253	346.84
415.466	378.61
415.678	388.3
415.891	320.68
416.104	319.52
416.316	326.3
416.529	285.81
416.742	370.09
416.954	378.23
417.167	343.74
417.38	305.77
417.592	372.03
417.805	296.66
418.017	286.97
418.23	347.03
418.442	297.24
418.655	328.24
418.868	346.65
419.08	381.13
419.293	399.35
419.505	354.98
419.718	346.06
419.93	402.45
420.142	353.04
420.355	404.19
420.567	378.61
420.78	366.21
420.992	325.33
421.205	410.58
421.417	333.67
421.629	375.32
421.842	340.64
422.054	324.95
422.266	392.76
422.479	411.94
422.691	336.38
422.903	354.59
423.115	329.02
423.328	354.98
423.54	373.77
423.752	355.75
423.964	327.08
424.177	372.8
424.389	332.12
424.601	460.57
424.813	389.27
425.025	417.17
425.238	405.35
425.45	364.86
425.662	356.91
425.874	706.43
426.086	390.82
426.298	413.68
426.51	384.04
426.722	410.39
426.934	367.18
427.146	398.96
427.358	344.9
427.57	404.96
427.782	394.7
427.994	378.81
428.206	355.75
428.418	367.18
428.63	447.01
428.842	408.84
429.054	409.03
429.266	423.56
429.478	352.26
429.69	362.34
429.902	328.63
430.114	400.12
430.325	368.93
430.537	336.18
430.749	308.28
430.961	283.68
431.173	322.23
431.384	354.2
431.596	278.45
431.808	341.8
432.02	407.1
432.231	442.94
432.443	509.78
432.655	446.43
432.867	431.12
433.078	470.26
433.29	503.97
433.502	470.64
433.713	505.13
433.925	479.75
434.136	526.44
434.348	376.29
434.56	371.45
434.771	537.49
434.983	389.66
435.194	439.06
435.406	453.98
435.617	520.24
435.829	531.09
436.04	494.48
436.252	532.84
436.463	553.76
436.675	563.45
436.886	497.58
437.098	535.94
437.309	574.69
437.521	519.66
437.732	526.06
437.943	513.46
438.155	515.21
438.366	445.07
438.578	552.99
438.789	486.92
439	516.17
439.211	508.04
439.423	475.49
439.634	509.97
439.845	513.85
440.057	551.44
440.268	554.34
440.479	501.45
440.69	568.49
440.902	534.39
441.113	506.88
441.324	524.51
441.535	584.96
441.746	619.44
441.957	537.68
442.168	555.89
442.38	586.31
442.591	573.33
442.802	548.72
443.013	580.31
443.224	625.25
443.435	580.69
443.646	586.7
443.857	585.34
444.068	550.66
444.279	560.16
444.49	679.12
444.701	600.84
444.912	716.9
445.123	681.44
445.334	638.82
445.545	634.75
445.756	628.35
445.967	576.24
446.178	601.81
446.388	630.49
446.599	626.03
446.81	622.93
447.021	604.91
447.232	647.34
447.443	672.72
447.653	618.47
447.864	679.89
448.075	652.57
448.286	673.89
448.496	642.69
448.707	715.73
448.918	623.9
449.129	740.34
449.339	644.82
449.55	694.81
449.761	667.88
449.971	692.68
450.182	654.7
450.393	682.99
450.603	666.14
450.814	733.37
451.024	727.36
451.235	746.35
451.446	763.4
451.656	774.83
451.867	681.44
452.077	726.58
452.288	737.63
452.498	802.34
452.709	703.14
452.919	720.19
453.13	665.17
453.34	699.27
453.55	659.74
453.761	692.29
453.971	686.09
454.182	709.73
454.392	708.18
454.602	799.05
454.813	766.5
455.023	731.43
455.233	664.2
455.444	707.79
455.654	629.32
455.864	727.55
456.075	699.85
456.285	689.77
456.495	712.63
456.705	736.08
456.916	771.34
457.126	799.63
457.336	733.56
457.546	676.02
457.756	706.24
457.967	777.93
458.177	724.07
458.387	744.99
458.597	679.5
458.807	724.45
459.017	722.13
459.227	706.82
459.437	715.35
459.647	778.7
459.857	770.18
460.068	734.72
460.278	807.18
460.488	745.18
460.698	800.21
460.908	764.75
461.117	708.37
461.327	753.71
461.537	802.53
461.747	766.5
461.957	795.95
462.167	888.75
462.377	826.75
462.587	757.58
462.797	820.55
463.007	805.83
463.216	810.48
463.426	865.5
463.636	840.7
463.846	747.51
464.056	809.51
464.265	829.46
464.475	743.63
464.685	789.16
464.895	820.36
465.104	777.73
465.314	841.48
465.524	775.41
465.733	740.73
465.943	871.7
466.153	870.73
466.362	863.56
466.572	854.26
466.782	805.63
466.991	834.7
467.201	889.91
467.41	750.03
467.62	833.34
467.829	806.8
468.039	868.21
468.249	839.54
468.458	818.42
468.668	870.73
468.877	895.73
469.086	941.45
469.296	915.29
469.505	879.64
469.715	936.41
469.924	917.81
470.134	929.05
470.343	900.18
470.552	887.59
470.762	883.33
470.971	824.04
471.18	885.65
471.39	898.83
471.599	829.27
471.808	902.31
472.018	868.02
472.227	970.71
472.436	992.41
472.645	964.31
472.855	920.14
473.064	1033.29
473.273	1017.98
473.482	975.16
473.691	992.79
473.901	1013.14
474.11	993.18
474.319	1082.11
474.528	967.61
474.737	1065.25
474.946	1048.2
475.155	1042.97
475.364	1110.01
475.573	1060.99
475.783	1033.67
475.992	1058.09
476.201	1122.6
476.41	1058.47
476.619	1007.52
476.828	1058.09
477.037	1023.79
477.245	1044.33
477.454	1099.35
477.663	1080.75
477.872	1110.98
478.081	1215.41
478.29	1066.42
478.499	1236.14
478.708	1157.09
478.917	1186.15
479.125	1145.85
479.334	1159.22
479.543	1110.2
479.752	1198.55
479.961	1181.12
480.169	1251.83
480.378	1213.47
480.587	1334.37
480.796	1244.86
481.004	1224.71
481.213	1256.68
481.422	1193.52
481.63	1253.19
481.839	1278.18
482.048	1344.64
482.256	1284.77
482.465	1332.82
482.674	1319.84
482.882	1321.19
483.091	1351.81
483.299	1330.69
483.508	1327.39
483.716	1313.44
483.925	1332.24
484.134	1308.79
484.342	1295.23
484.551	1364.4
484.759	1313.25
484.967	1379.51
485.176	1379.9
485.384	1394.04
485.593	1401.02
485.801	1360.53
486.01	1334.56
486.218	1246.6
486.426	1166
486.635	1168.52
486.843	1148.57
487.051	1216.96
487.26	1239.05
487.468	1251.83
487.676	1310.73
487.885	1286.71
488.093	1332.04
488.301	1351.81
488.509	1405.67
488.717	1473.48
488.926	1414.19
489.134	1380.48
489.342	1395.79
489.55	1367.89
489.758	1416.13
489.967	1439.19
490.175	1530.25
490.383	1475.8
490.591	1582.95
490.799	1488.4
491.007	1561.83
491.215	1535.67
491.423	1471.93
491.631	1517.46
491.839	1480.84
492.047	1533.35
492.255	1447.52
492.463	1419.62
492.671	1448.68
492.879	1536.64
493.087	1512.23
493.295	1509.9
493.503	1565.32
493.711	1590.5
493.919	1616.66
494.127	1557.76
494.334	1559.5
494.542	1518.04
494.75	1568.03
494.958	1551.37
495.166	1652.5
495.374	1662.96
495.581	1641.65
495.789	1650.56
495.997	1689.51
496.205	1591.86
496.412	1605.42
496.62	1608.91
496.828	1651.53
497.035	1635.07
497.243	1654.25
497.451	1658.7
497.658	1650.95
497.866	1663.35
498.074	1732.33
498.281	1645.91
498.489	1719.35
498.696	1635.65
498.904	1640.49
499.112	1612.78
499.319	1691.45
499.527	1668.39
499.734	1726.13
499.942	1618.02
500.149	1661.03
500.357	1709.85
500.564	1624.02
500.771	1694.55
500.979	1646.5
501.186	1604.45
501.394	1675.36
501.601	1641.46
501.808	1679.63
502.016	1647.66
502.223	1643.59
502.43	1617.05
502.638	1617.63
502.845	1619.95
503.052	1735.23
503.26	1669.36
503.467	1764.49
503.674	1719.54
503.881	1747.05
504.089	1786.96
504.296	1742.59
504.503	1672.07
504.71	1688.54
504.917	1666.06
505.125	1735.23
505.332	1712.37
505.539	1778.24
505.746	1811.57
505.953	1790.64
506.16	1802.85
506.367	1853.22
506.574	1899.92
506.781	1841.41
506.988	1817.38
507.195	1835.98
507.402	1806.34
507.609	1836.17
507.816	1816.61
508.023	1798.59
508.23	1764.68
508.437	1751.12
508.644	1777.28
508.851	1843.73
509.058	1826.68
509.265	1809.44
509.472	1871.63
509.679	1944.29
509.885	1838.69
510.092	1877.83
510.299	1848.96
510.506	1838.11
510.713	1842.18
510.92	1829.39
511.126	1832.3
511.333	1922
511.54	1940.22
511.746	1956.69
511.953	1927.43
512.16	1993.69
512.367	1930.34
512.573	1894.69
512.78	1890.23
512.987	1879.19
513.193	1909.8
513.4	1793.94
513.606	1871.44
513.813	1933.44
514.02	1886.94
514.226	1979.35
514.433	1949.52
514.639	1828.81
514.846	1868.72
515.052	1882.09
515.259	1938.47
515.465	1887.13
515.672	1915.61
515.878	1999.31
516.085	1953.97
516.291	1969.86
516.497	1951.65
516.704	1948.94
516.91	1852.45
517.117	1809.24
517.323	1696.68
517.529	1764.1
517.736	1724.58
517.942	1765.07
518.148	1767.59
518.354	1835.4
518.561	1838.89
518.767	1809.24
518.973	1887.91
519.179	1892.36
519.386	1895.27
519.592	1862.91
519.798	1891.2
520.004	1997.57
520.21	1935.57
520.417	2044.26
520.623	2051.04
520.829	2071
521.035	2073.71
521.241	2069.83
521.447	2079.91
521.653	2208.36
521.859	2097.73
522.065	2102.77
522.271	2219.99
522.477	2190.93
522.683	2216.69
522.889	2138.03
523.095	2142.49
523.301	2126.6
523.507	2112.65
523.713	2151.21
523.919	2100.06
524.125	2235.49
524.331	2168.65
524.537	2292.26
524.742	2259.9
524.948	2318.61
525.154	2310.47
525.36	2382.74
525.566	2273.66
525.772	2344.37
525.977	2226.77
526.183	2294.77
526.389	2333.72
526.595	2226.38
526.8	2230.64
527.006	2113.43
527.212	2079.13
527.417	2056.47
527.623	2051.23
527.829	2183.18
528.034	2217.28
528.24	2209.53
528.446	2239.75
528.651	2275.59
528.857	2322.48
529.062	2357.74
529.268	2395.72
529.473	2398.82
529.679	2388.74
529.884	2491.04
530.09	2411.22
530.295	2462.56
530.501	2473.8
530.706	2418
530.912	2427.69
531.117	2411.22
531.323	2461.78
531.528	2497.05
531.733	2526.69
531.939	2435.05
532.144	2489.68
532.35	2491.62
532.555	2552.65
532.76	2489.3
532.966	2485.23
533.171	2429.62
533.376	2366.07
533.581	2342.44
533.787	2417.03
533.992	2431.37
534.197	2483.68
534.402	2484.84
534.607	2496.08
534.813	2556.72
535.018	2469.53
535.223	2534.25
535.428	2515.45
535.633	2526.88
535.838	2554.2
536.043	2578.23
536.249	2691.76
536.454	2576.29
536.659	2590.63
536.864	2567.57
537.069	2513.71
537.274	2591.01
537.479	2573
537.684	2544.71
537.889	2465.47
538.094	2644.68
538.299	2563.31
538.504	2558.66
538.708	2618.33
538.913	2680.14
539.118	2576.29
539.323	2620.27
539.528	2567.96
539.733	2570.28
539.938	2572.61
540.142	2619.3
540.347	2532.31
540.552	2534.05
540.757	2524.17
540.962	2487.17
541.166	2452.29
541.371	2484.26
541.576	2512.55
541.781	2418.58
541.985	2584.43
542.19	2543.74
542.395	2667.35
542.599	2658.83
542.804	2608.06
543.008	2673.36
543.213	2587.14
543.418	2514.48
543.622	2639.26
543.827	2509.25
544.031	2644.68
544.236	2650.11
544.44	2670.45
544.645	2717.14
544.849	2673.16
545.054	2680.72
545.258	2769.46
545.463	2738.07
545.667	2632.09
545.872	2666.96
546.076	2697.38
546.281	2684.4
546.485	2634.99
546.689	2688.47
546.894	2738.65
547.098	2683.63
547.302	2638.29
547.507	2680.72
547.711	2689.44
547.915	2697.38
548.119	2628.99
548.324	2634.8
548.528	2754.15
548.732	2682.85
548.936	2718.11
549.141	2709.2
549.345	2685.37
549.549	2681.49
549.753	2727.8
549.957	2778.76
550.161	2774.11
550.366	2706.68
550.57	2666.96
550.774	2731.67
550.978	2695.44
551.182	2749.5
551.386	2684.01
551.59	2688.47
551.794	2655.92
551.998	2696.99
552.202	2709.97
552.406	2641.58
552.61	2728.77
552.814	2734.39
553.018	2796.58
553.222	2675.1
553.426	2666.19
553.63	2784.76
553.833	2659.02
554.037	2590.05
554.241	2687.5
554.445	2722.76
554.649	2710.36
554.853	2631.89
555.056	2766.36
555.26	2756.28
555.464	2715.4
555.668	2697.19
555.871	2744.07
556.075	2730.51
556.279	2676.46
556.483	2637.71
556.686	2699.71
556.89	2659.6
557.094	2703
557.297	2569.31
557.501	2695.25
557.704	2553.23
557.908	2625.5
558.112	2602.06
558.315	2682.66
558.519	2596.63
558.722	2633.64
558.926	2603.61
559.129	2559.82
559.333	2481.55
559.536	2520.3
559.74	2484.26
559.943	2466.05
560.147	2478.06
560.35	2525.72
560.553	2525.91
560.757	2442.8
560.96	2561.37
561.164	2523.4
561.367	2676.46
561.57	2555.95
561.774	2562.53
561.977	2532.11
562.18	2486.58
562.384	2625.11
562.587	2511.38
562.79	2500.73
562.993	2511
563.197	2566.8
563.4	2594.89
563.603	2594.5
563.806	2612.52
564.009	2539.48
564.212	2526.3
564.416	2475.93
564.619	2519.71
564.822	2461.59
565.025	2573.77
565.228	2446.09
565.431	2545.29
565.634	2428.85
565.837	2482.9
566.04	2390.29
566.243	2424.39
566.446	2315.31
566.649	2444.54
566.852	2332.36
567.055	2392.04
567.258	2443.18
567.461	2484.65
567.664	2491.43
567.867	2399.2
568.07	2380.02
568.273	2406.57
568.475	2491.43
568.678	2392.62
568.881	2380.02
569.084	2347.28
569.287	2257.77
569.489	2345.92
569.692	2360.45
569.895	2377.89
570.098	2286.06
570.3	2317.44
570.503	2248.08
570.706	2271.14
570.909	2312.21
571.111	2205.07
571.314	2191.31
571.516	2225.61
571.719	2239.75
571.922	2243.04
572.124	2229.68
572.327	2271.52
572.529	2190.73
572.732	2223.67
572.935	2287.22
573.137	2352.9
573.34	2230.06
573.542	2281.41
573.745	2291.09
573.947	2269.78
574.15	2256.99
574.352	2247.31
574.554	2309.89
574.757	2184.14
574.959	2180.27
575.162	2206.04
575.364	2175.81
575.566	2306.59
575.769	2163.61
575.971	2166.51
576.173	2066.93
576.376	2158.38
576.578	2232
576.78	2244.98
576.982	2117.88
577.185	2175.43
577.387	2104.51
577.589	2152.56
577.791	2176.2
577.993	2182.98
578.196	2106.06
578.398	2159.54
578.6	2155.08
578.802	2036.51
579.004	2066.15
579.206	2080.68
579.408	2138.03
579.61	2106.65
579.812	2176.2
580.014	2076.42
580.216	2094.44
580.418	2096.18
580.62	2100.25
580.822	2051.04
581.024	2081.07
581.226	2140.94
581.428	2080.1
581.63	2170.19
581.832	2072.74
582.034	2145.59
582.236	2140.36
582.438	2139.78
582.64	2189.57
582.841	2181.43
583.043	2235.68
583.245	2107.23
583.447	2141.91
583.649	2116.33
583.85	2141.52
584.052	2182.79
584.254	2067.7
584.456	2148.11
584.657	2059.57
584.859	2138.23
585.061	2091.73
585.262	2065.57
585.464	2027.21
585.666	2112.07
585.867	2019.46
586.069	2104.32
586.27	2091.92
586.472	2039.22
586.674	2011.32
586.875	1999.7
587.077	2005.7
587.278	2062.08
587.48	2014.23
587.681	2123.5
587.883	2081.46
588.084	1983.04
588.285	2015.39
588.487	1994.08
588.688	2049.88
588.89	1937.7
589.091	1904.37
589.292	1879.19
589.494	1829.01
589.695	1785.99
589.896	1684.08
590.098	1734.46
590.299	1775.34
590.5	1774.95
590.702	1814.09
590.903	1857.1
591.104	1913.67
591.305	1931.89
591.507	1943.32
591.708	1889.65
591.909	1874.73
592.11	1969.47
592.311	1927.62
592.512	1870.08
592.714	1852.06
592.915	1861.94
593.116	1871.24
593.317	1872.79
593.518	1879.77
593.719	1858.46
593.92	1941.77
594.121	1940.99
594.322	1921.23
594.523	1878.8
594.724	1819.71
594.925	1880.54
595.126	1883.26
595.327	1900.5
595.528	1910.19
595.729	1876.86
595.929	1887.91
596.13	1859.04
596.331	1892.56
596.532	1910.38
596.733	1952.04
596.934	1959.01
597.135	1915.61
597.335	1929.37
597.536	1868.72
597.737	1908.83
597.938	1864.46
598.138	1891.2
598.339	1909.8
598.54	1910.19
598.74	1878.8
598.941	1866.21
599.142	1913.29
599.342	1886.94
599.543	1852.26
599.744	1881.32
599.944	1846.06
600.145	1861.56
600.345	1844.12
600.546	1978.39
600.746	1943.32
600.947	1979.94
601.147	1848.19
601.348	1917.74
601.548	1860.01
601.749	1878.99
601.949	1771.08
602.15	1848.77
602.35	1823.97
602.551	1891.2
602.751	1797.62
602.951	1821.84
603.152	1766.81
603.352	1884.03
603.552	1852.45
603.753	1907.86
603.953	1911.35
604.153	1843.73
604.354	1848.77
604.554	1867.17
604.754	1877.64
604.954	1853.42
605.155	1883.45
605.355	1829.78
605.555	1878.8
605.755	1897.4
605.955	1851.09
606.155	1892.56
606.356	1861.56
606.556	1856.32
606.756	1864.85
606.956	1798.98
607.156	1890.04
607.356	1784.06
607.556	1834.24
607.756	1812.93
607.956	1853.61
608.156	1847.41
608.356	1796.46
608.556	1850.71
608.756	1794.13
608.956	1764.1
609.156	1775.92
609.356	1734.26
609.556	1718.76
609.755	1807.31
609.955	1733.68
610.155	1757.51
610.355	1789.68
610.555	1742.98
610.755	1729.81
610.954	1667.81
611.154	1742.98
611.354	1791.03
611.554	1729.23
611.753	1736.01
611.953	1688.54
612.153	1748.6
612.352	1725.93
612.552	1662.58
612.752	1587.98
612.951	1701.52
613.151	1696.1
613.351	1680.21
613.55	1695.51
613.75	1736.78
613.949	1697.84
614.149	1700.94
614.348	1654.25
614.548	1665.29
614.747	1581.78
614.947	1661.41
615.146	1574.81
615.346	1708.11
615.545	1659.48
615.745	1671.49
615.944	1690.67
616.144	1648.63
616.343	1663.16
616.542	1602.13
616.742	1633.52
616.941	1620.73
617.14	1533.74
617.34	1616.47
617.539	1596.12
617.738	1597.48
617.938	1700.36
618.137	1642.04
618.336	1578.68
618.535	1630.03
618.734	1621.5
618.934	1635.84
619.133	1649.6
619.332	1655.41
619.531	1593.41
619.73	1614.14
619.929	1662.96
620.128	1668.58
620.328	1661.03
620.527	1588.18
620.726	1589.53
620.925	1645.72
621.124	1596.7
621.323	1635.26
621.522	1579.46
621.721	1573.84
621.92	1564.73
622.119	1629.45
622.318	1565.51
622.517	1559.7
622.715	1574.81
622.914	1509.32
623.113	1614.53
623.312	1508.16
623.511	1567.83
623.71	1541.49
623.909	1519.79
624.107	1625.96
624.306	1481.42
624.505	1525.02
624.704	1556.79
624.902	1480.45
625.101	1563.38
625.3	1534.51
625.499	1472.32
625.697	1481.23
625.896	1444.03
626.095	1519.59
626.293	1466.51
626.492	1456.04
626.69	1527.92
626.889	1475.42
627.088	1537.8
627.286	1501.77
627.485	1447.32
627.683	1488.98
627.882	1514.17
628.08	1398.89
628.279	1463.41
628.477	1533.54
628.676	1409.93
628.874	1493.82
629.073	1426.79
629.271	1448.49
629.469	1440.93
629.668	1497.7
629.866	1416.91
630.065	1409.54
630.263	1465.54
630.461	1440.93
630.66	1480.45
630.858	1451.78
631.056	1469.8
631.254	1497.89
631.453	1356.07
631.651	1481.04
631.849	1422.91
632.047	1451.78
632.245	1429.69
632.444	1438.22
632.642	1446.74
632.84	1436.28
633.038	1408.57
633.236	1407.02
633.434	1407.8
633.632	1389.59
633.83	1388.81
634.028	1444.81
634.227	1415.94
634.425	1507.19
634.623	1418.84
634.821	1445.58
635.019	1445.19
635.216	1398.11
635.414	1470.19
635.612	1413.81
635.81	1403.73
636.008	1465.73
636.206	1449.26
636.404	1455.66
636.602	1379.51
636.8	1404.31
636.997	1452.56
637.195	1460.69
637.393	1450.42
637.591	1467.47
637.789	1448.87
637.986	1391.33
638.184	1440.16
638.382	1463.99
638.58	1435.89
638.777	1461.66
638.975	1405.67
639.173	1403.15
639.37	1418.07
639.568	1424.85
639.765	1449.65
639.963	1383.97
640.161	1448.49
640.358	1438.02
640.556	1360.91
640.753	1357.62
640.951	1339.99
641.148	1385.13
641.346	1345.99
641.543	1349.29
641.741	1394.82
641.938	1343.48
642.136	1358.98
642.333	1361.3
642.531	1379.51
642.728	1398.69
642.925	1351.42
643.123	1342.7
643.32	1339.6
643.517	1330.3
643.715	1358.59
643.912	1341.15
644.109	1375.44
644.306	1335.53
644.504	1315.77
644.701	1342.51
644.898	1391.52
645.095	1282.64
645.293	1316.16
645.49	1335.34
645.687	1328.17
645.884	1354.91
646.081	1253.38
646.278	1277.21
646.475	1272.37
646.672	1269.08
646.87	1320.03
647.067	1308.6
647.264	1302.01
647.461	1223.93
647.658	1220.25
647.855	1296.98
648.052	1278.57
648.249	1163.87
648.446	1262.1
648.642	1250.09
648.839	1201.27
649.036	1229.75
649.233	1196.23
649.43	1190.03
649.627	1182.08
649.824	1199.91
650.021	1194.29
650.217	1174.72
650.414	1181.89
650.611	1240.4
650.808	1256.48
651.004	1214.83
651.201	1239.24
651.398	1308.99
651.595	1217.73
651.791	1195.65
651.988	1223.55
652.185	1183.63
652.381	1249.51
652.578	1160.58
652.775	1244.86
652.971	1215.6
653.168	1200.88
653.364	1222.96
653.561	1132.48
653.757	1213.47
653.954	1225.1
654.15	1185.77
654.347	1257.26
654.543	1199.52
654.74	1138.49
654.936	1105.36
655.133	1182.08
655.329	1175.11
655.525	1163.48
655.722	1187.32
655.918	1099.74
656.115	1122.99
656.311	1054.02
656.507	1029.8
656.704	968.19
656.9	990.86
657.096	995.31
657.292	959.08
657.489	1048.01
657.685	1071.84
657.881	1054.79
658.077	1077.27
658.273	1103.62
658.47	1177.24
658.666	1106.14
658.862	1122.8
659.058	1097.22
659.254	1159.61
659.45	1115.44
659.646	1136.94
659.842	1099.55
660.038	1140.82
660.234	1088.89
660.43	1135.39
660.626	1157.28
660.822	1182.67
661.018	1189.25
661.214	1127.83
661.41	1093.74
661.606	1157.48
661.802	1162.13
661.998	1117.57
662.194	1061.96
662.39	1167.55
662.586	1137.52
662.781	1156.9
662.977	1140.04
663.173	1161.74
663.369	1130.74
663.564	1119.31
663.76	1168.91
663.956	1127.25
664.152	1160
664.347	1047.43
664.543	1125.9
664.739	1109.04
664.934	1020.31
665.13	1031.35
665.326	1129.38
665.521	1084.05
665.717	1079.59
665.912	1085.6
666.108	1017.98
666.304	1073.39
666.499	1068.35
666.695	994.54
666.89	1087.73
667.086	1117.37
667.281	1103.81
667.477	1118.34
667.672	1089.67
667.867	1076.88
668.063	1092.77
668.258	1001.12
668.454	1047.62
668.649	1135.78
668.844	1071.84
669.04	1091.99
669.235	1028.64
669.43	1034.45
669.626	989.69
669.821	1051.3
670.016	999.38
670.211	1017.01
670.407	1011.01
670.602	1056.15
670.797	1032.32
670.992	1117.18
671.187	1012.36
671.382	1067.58
671.578	999.96
671.773	1059.64
671.968	952.49
672.163	1016.43
672.358	1039.49
672.553	999.38
672.748	1023.79
672.943	1071.26
673.138	1020.31
673.333	1055.18
673.528	975.74
673.723	1067.19
673.918	994.15
674.113	967.99
674.308	1087.34
674.503	1054.79
674.698	1056.15
674.892	1009.07
675.087	1042
675.282	1027.86
675.477	991.44
675.672	1047.24
675.867	973.03
676.061	959.27
676.256	941.84
676.451	978.07
676.646	1005
676.84	968.19
677.035	972.84
677.23	964.31
677.424	1036.77
677.619	1045.3
677.814	1022.24
678.008	1032.9
678.203	937.77
678.397	986.01
678.592	1010.04
678.787	1053.63
678.981	959.47
679.176	1018.56
679.37	974.77
679.565	970.51
679.759	988.53
679.954	992.41
680.148	1062.54
680.342	1044.14
680.537	998.41
680.731	955.01
680.926	1005.39
681.12	1019.34
681.314	968.77
681.509	967.02
681.703	977.87
681.897	1014.69
682.092	952.88
682.286	967.8
682.48	999.38
682.674	1048.98
682.869	955.01
683.063	975.94
683.257	1070.68
683.451	945.71
683.645	1002.09
683.839	994.34
684.034	960.63
684.228	987.76
684.422	889.72
684.616	936.22
684.81	1024.18
685.004	948.23
685.198	960.05
685.392	1012.75
685.586	957.92
685.78	966.25
685.974	994.15
686.168	990.86
686.362	1034.64
686.556	911.23
686.75	890.11
686.944	895.34
687.138	890.69
687.331	777.73
687.525	843.8
687.719	762.43
687.913	825.4
688.107	832.56
688.301	807.57
688.494	839.93
688.688	785.29
688.882	785.68
689.076	784.13
689.269	825.59
689.463	904.44
689.657	847.48
689.85	804.28
690.044	843.41
690.238	853.49
690.431	820.94
690.625	828.5
690.818	887.98
691.012	885.26
691.205	923.82
691.399	854.65
691.593	886.81
691.786	939.13
691.98	966.25
692.173	975.55
692.366	934.86
692.56	959.08
692.753	1003.64
692.947	904.25
693.14	1008.68
693.333	1009.26
693.527	922.46
693.72	966.44
693.914	967.99
694.107	950.36
694.3	961.02
694.493	941.64
694.687	1020.5
694.88	942.42
695.073	1044.52
695.266	998.8
695.46	978.26
695.653	1034.45
695.846	1038.71
696.039	950.94
696.232	1000.35
696.425	1049.95
696.618	1052.66
696.812	1053.63
697.005	1099.74
697.198	1210.37
697.391	1101.1
697.584	1129.97
697.777	1177.43
697.97	1165.42
698.163	1171.43
698.356	1132.87
698.549	1226.65
698.742	1185.57
698.935	1125.9
699.127	1185.57
699.32	1131.9
699.513	1161.93
699.706	1238.85
699.899	1229.36
700.092	1136.75
700.285	1214.05
700.477	1146.05
700.67	1222.38
700.863	1255.51
701.056	1343.09
701.248	1299.3
701.441	1310.73
701.634	1250.09
701.826	1373.12
702.019	1230.52
702.212	1355.68
702.404	1279.73
702.597	1289.42
702.79	1311.12
702.982	1364.79
703.175	1381.64
703.367	1390.94
703.56	1387.65
703.752	1465.73
703.945	1429.89
704.137	1455.85
704.33	1495.95
704.522	1477.74
704.715	1507.19
704.907	1565.32
705.1	1543.23
705.292	1584.11
705.484	1545.75
705.677	1600.38
705.869	1575.78
706.061	1636.42
706.254	1692.8
706.446	1610.07
706.638	1622.28
706.831	1752.86
707.023	1621.12
707.215	1754.61
707.407	1767.98
707.599	1772.24
707.792	1815.25
707.984	1764.88
708.176	1847.22
708.368	1800.53
708.56	1823
708.752	1820.87
708.944	1801.88
709.136	1891.2
709.329	1854
709.521	2026.24
709.713	1978.97
709.905	1948.74
710.097	2020.04
710.289	1962.11
710.481	1997.57
710.672	2012.29
710.864	2008.8
711.056	2080.3
711.248	2100.64
711.44	2101.03
711.632	2092.7
711.824	2117.5
712.016	2171.55
712.207	2176.01
712.399	2145.59
712.591	2258.93
712.783	2211.66
712.975	2233.36
713.166	2229.29
713.358	2244.98
713.55	2337.4
713.741	2341.47
713.933	2320.74
714.125	2343.99
714.316	2327.52
714.508	2419.16
714.7	2418.19
714.891	2394.94
715.083	2488.52
715.274	2419.55
715.466	2410.05
715.657	2518.17
715.849	2348.44
716.04	2457.91
716.232	2417.8
716.423	2473.22
716.615	2445.12
716.806	2406.76
716.998	2385.64
717.189	2294.77
717.381	2228.13
717.572	2224.06
717.763	2235.88
717.955	2207.2
718.146	2205.65
718.337	2149.27
718.528	2111.3
718.72	2033.41
718.911	2145.98
719.102	2075.26
719.293	2119.43
719.485	2155.66
719.676	2148.88
719.867	2084.36
720.058	2076.23
720.249	2076.23
720.44	2157.02
720.632	2165.55
720.823	2244.98
721.014	2333.91
721.205	2379.44
721.396	2439.12
721.587	2530.18
721.778	2599.54
721.969	2650.3
722.16	2651.46
722.351	2676.46
722.542	2836.49
722.733	2853.54
722.924	2774.88
723.115	2850.83
723.305	2794.06
723.496	2847.15
723.687	2714.62
723.878	2713.07
724.069	2702.81
724.26	2741.75
724.45	2677.23
724.641	2686.14
724.832	2739.62
725.023	2734.19
725.213	2736.91
725.404	2679.36
725.595	2699.12
725.785	2705.13
725.976	2761.12
726.167	2754.15
726.357	2763.84
726.548	2891.9
726.739	2799.29
726.929	2895.78
727.12	2938.98
727.31	2979.67
727.501	2895.39
727.691	2901.59
727.882	2931.82
728.072	2980.83
728.263	2991.49
728.453	3044.38
728.644	3038.38
728.834	2966.5
729.024	2978.7
729.215	2972.7
729.405	3055.62
729.596	3131.37
729.786	3108.9
729.976	3173.81
730.167	3167.61
730.357	3129.24
730.547	3153.07
730.737	3204.22
730.928	3254.99
731.118	3339.07
731.308	3234.06
731.498	3242.2
731.688	3370.27
731.879	3330.55
732.069	3359.61
732.259	3419.67
732.449	3448.54
732.639	3513.83
732.829	3555.29
733.019	3595.98
733.209	3654.11
733.399	3651.78
733.589	3714.75
733.779	3819.76
733.969	3800.97
734.159	3807.75
734.349	3886.99
734.539	3902.88
734.729	3903.26
734.919	3927.68
735.109	4012.15
735.299	3949.96
735.488	3963.13
735.678	4025.13
735.868	4004.4
736.058	4033.27
736.248	3954.99
736.437	3940.85
736.627	3904.81
736.817	4068.92
737.007	4002.27
737.196	4081.12
737.386	4029.78
737.576	3985.22
737.765	4100.5
737.955	4075.7
738.144	4197.18
738.334	4134.4
738.524	4084.61
738.713	4144.09
738.903	4134.99
739.092	4117.35
739.282	4132.08
739.471	4198.92
739.661	4170.64
739.85	4219.46
740.04	4169.47
740.229	4264.99
740.419	4274.68
740.608	4302.19
740.797	4284.56
740.987	4285.91
741.176	4317.11
741.365	4295.21
741.555	4242.13
741.744	4335.9
741.933	4260.34
742.123	4263.63
742.312	4373.88
742.501	4403.52
742.69	4399.84
742.88	4297.15
743.069	4415.53
743.258	4334.55
743.447	4423.09
743.636	4419.6
743.825	4370.97
744.014	4418.24
744.204	4449.44
744.393	4365.16
744.582	4522.87
744.771	4495.36
744.96	4444.21
745.149	4481.99
745.338	4434.13
745.527	4508.53
745.716	4464.94
745.905	4443.04
746.094	4522.67
746.283	4533.72
746.471	4490.9
746.66	4593.39
746.849	4527.91
747.038	4533.14
747.227	4478.11
747.416	4510.47
747.604	4466.87
747.793	4490.32
747.982	4535.85
748.171	4513.96
748.359	4531.2
748.548	4517.25
748.737	4515.31
748.926	4488.38
749.114	4423.09
749.303	4487.99
749.491	4478.5
749.68	4441.3
749.869	4506.01
750.057	4447.11
750.246	4463.97
750.434	4432.58
750.623	4478.69
750.811	4402.36
751	4500.97
751.188	4461.84
751.377	4474.04
751.565	4407.2
751.754	4364.96
751.942	4393.83
752.131	4467.07
752.319	4355.08
752.507	4347.33
752.696	4461.45
752.884	4510.47
753.072	4375.23
753.261	4452.54
753.449	4420.96
753.637	4391.51
753.825	4494.77
754.014	4439.17
754.202	4427.35
754.39	4479.86
754.578	4479.08
754.766	4345.4
754.955	4359.54
755.143	4449.63
755.331	4377.94
755.519	4407.98
755.707	4378.14
755.895	4365.74
756.083	4395.58
756.271	4303.55
756.459	4369.42
756.647	4407.59
756.835	4339.97
757.023	4315.75
757.211	4313.04
757.399	4255.3
757.587	4285.14
757.775	4248.72
757.963	4262.67
758.151	4289.4
758.339	4258.6
758.526	4250.07
758.714	4268.48
758.902	4159.4
759.09	4069.5
759.278	3918.57
759.465	3663.21
759.653	3265.25
759.841	3032.56
760.028	2652.82
760.216	2340.69
760.404	2215.34
760.591	1860.78
760.779	1671.1
760.967	1487.04
761.154	1317.9
761.342	1390.56
761.529	1352.78
761.717	1463.79
761.905	1449.46
762.092	1528.89
762.28	1541.29
762.467	1573.26
762.655	1532.57
762.842	1529.28
763.029	1577.72
763.217	1599.42
763.404	1639.72
763.592	1629.45
763.779	1652.31
763.966	1669.75
764.154	1749.18
764.341	1787.74
764.528	1803.63
764.716	1878.02
764.903	1907.47
765.09	1992.14
765.277	2089.6
765.465	2233.74
765.652	2273.07
765.839	2411.41
766.026	2464.69
766.213	2551.68
766.4	2669.29
766.588	2818.67
766.775	2855.87
766.962	2968.82
767.149	3036.83
767.336	3233.67
767.523	3092.82
767.71	3236.39
767.897	3389.06
768.084	3443.31
768.271	3477.21
768.458	3565.76
768.645	3570.02
768.832	3555.68
769.019	3658.56
769.206	3654.49
769.392	3703.9
769.579	3804.26
769.766	3786.05
769.953	3756.4
770.14	3773.26
770.327	3778.68
770.513	3809.1
770.7	3924.96
770.887	3756.21
771.073	3863.16
771.26	3837.2
771.447	3828.28
771.634	3781.78
771.82	3894.93
772.007	3795.35
772.193	3801.35
772.38	3862.58
772.567	3812.01
772.753	3800
772.94	3879.24
773.126	3844.75
773.313	3841.46
773.499	3853.28
773.686	3900.75
773.872	3813.37
774.059	3834.29
774.245	3788.37
774.432	3775.97
774.618	3730.25
774.804	3805.62
774.991	3712.81
775.177	3783.14
775.363	3752.53
775.55	3762.41
775.736	3719.79
775.922	3687.24
776.109	3744.2
776.295	3733.54
776.481	3768.42
776.667	3741.49
776.853	3692.85
777.04	3712.42
777.226	3720.37
777.412	3754.66
777.598	3647.71
777.784	3718.82
777.97	3656.82
778.156	3648.1
778.342	3671.35
778.528	3659.53
778.715	3586.29
778.901	3607.99
779.087	3636.86
779.272	3612.64
779.458	3588.81
779.644	3600.44
779.83	3544.44
780.016	3696.73
780.202	3634.15
780.388	3602.96
780.574	3459.2
780.76	3512.48
780.946	3576.8
781.131	3566.14
781.317	3539.79
781.503	3497.17
781.689	3505.11
781.874	3620.2
782.06	3480.51
782.246	3526.81
782.432	3475.86
782.617	3534.18
782.803	3533.98
782.989	3455.32
783.174	3456.87
783.36	3395.45
783.545	3444.86
783.731	3407.46
783.916	3361.35
784.102	3454.93
784.288	3400.49
784.473	3406.69
784.659	3382.67
784.844	3467.14
785.029	3380.92
785.215	3349.73
785.4	3247.24
785.586	3417.73
785.771	3305.36
785.956	3382.86
786.142	3356.32
786.327	3271.07
786.512	3322.8
786.698	3265.84
786.883	3273.59
787.068	3273.39
787.254	3313.5
787.439	3251.11
787.624	3242.39
787.809	3248.01
787.994	3214.49
788.18	3332.68
788.365	3174.19
788.55	3206.36
788.735	3221.66
788.92	3202.87
789.105	3144.55
789.29	3197.06
789.475	3189.89
789.66	3124.98
789.845	3120.91
790.03	3110.64
790.215	3177.1
790.4	3189.11
790.585	3184.66
790.77	3137.57
790.955	3064.34
791.14	3101.54
791.325	3159.08
791.51	3033.92
791.695	3116.07
791.879	3064.53
792.064	3041.48
792.249	3128.47
792.434	3058.14
792.618	3071.89
792.803	3134.09
792.988	3035.08
793.173	3082.55
793.357	3107.74
793.542	3025.59
793.727	3080.61
793.911	3064.34
794.096	3068.99
794.281	3127.89
794.465	3175.74
794.65	3080.03
794.834	3128.08
795.019	3141.64
795.203	3138.74
795.388	3146.49
795.572	3164.31
795.757	3149.97
795.941	3167.22
796.126	3139.12
796.31	3088.56
796.494	3099.6
796.679	3065.89
796.863	3062.79
797.048	3198.41
797.232	3141.45
797.416	3159.47
797.601	3125.18
797.785	3191.63
797.969	3188.92
798.153	3125.76
798.338	3169.93
798.522	3199.19
798.706	3195.7
798.89	3272.42
799.074	3298.97
799.258	3263.9
799.443	3150.75
799.627	3201.51
799.811	3235.42
799.995	3199.96
800.179	3167.61
800.363	3139.12
800.547	3179.04
800.731	3190.47
800.915	3083.33
801.099	3155.98
801.283	3127.69
801.467	3195.7
801.651	3149.78
801.835	3206.16
802.019	3177.29
802.202	3218.95
802.386	3107.16
802.57	3072.86
802.754	3132.15
802.938	3102.31
803.121	3125.95
803.305	3195.89
803.489	3136.22
803.673	3185.24
803.856	3142.22
804.04	3114.52
804.224	3182.91
804.407	3137.19
804.591	3136.99
804.775	3125.37
804.958	3171.87
805.142	3275.52
805.326	3136.61
805.509	3160.63
805.693	3160.24
805.876	3211.59
806.06	3183.3
806.243	3177.87
806.427	3148.81
806.61	3208.87
806.794	3143.19
806.977	3180.2
807.16	3161.79
807.344	3167.41
807.527	3130.21
807.71	3127.69
807.894	3113.94
808.077	3197.06
808.26	3089.33
808.444	3117.62
808.627	3156.37
808.81	3108.9
808.993	3005.44
809.177	3005.44
809.36	3087.39
809.543	3074.99
809.726	2967.85
809.909	2966.3
810.092	2940.73
810.276	2977.15
810.459	2953.71
810.642	2913.8
810.825	2923.29
811.008	2997.11
811.191	2864.78
811.374	2831.84
811.557	2875.82
811.74	2952.55
811.923	2821.19
812.106	2834.94
812.289	2792.51
812.472	2778.37
812.654	2799.1
812.837	2790.38
813.02	2724.12
813.203	2676.46
813.386	2566.02
813.569	2548.2
813.751	2523.2
813.934	2551.68
814.117	2490.46
814.3	2496.47
814.482	2407.54
814.665	2371.5
814.848	2354.25
815.03	2284.89
815.213	2308.72
815.396	2291.09
815.578	2253.51
815.761	2220.38
815.943	2286.25
816.126	2206.04
816.309	2147.33
816.491	2105.68
816.674	2030.5
816.856	2088.24
817.039	2055.88
817.221	2129.31
817.403	2086.88
817.586	2096.18
817.768	2123.89
817.951	2020.23
818.133	2034.57
818.315	2022.56
818.498	2093.86
818.68	2175.62
818.862	2108.58
819.045	2159.54
819.227	2117.5
819.409	2115.95
819.591	2138.03
819.774	2090.76
819.956	2080.1
820.138	2155.66
820.32	2087.85
820.502	2133.38
820.684	2242.66
820.866	2239.75
821.048	2295.94
821.231	2312.41
821.413	2297.87
821.595	2267.46
821.777	2316.28
821.959	2270.94
822.141	2362
822.323	2239.75
822.505	2158.96
822.686	2098.9
822.868	2021.78
823.05	1933.24
823.232	1869.89
823.414	1788.9
823.596	1866.59
823.778	1822.61
823.96	1850.71
824.141	1876.67
824.323	1900.69
824.505	2010.35
824.687	2025.08
824.868	2091.15
825.05	2174.26
825.232	2217.47
825.413	2297.68
825.595	2230.84
825.777	2175.62
825.958	2219.6
826.14	2140.75
826.321	2228.9
826.503	2218.63
826.685	2230.26
826.866	2256.8
827.048	2276.56
827.229	2171.74
827.411	2126.41
827.592	2124.47
827.773	2083.4
827.955	2063.05
828.136	2062.47
828.318	2021.98
828.499	2059.37
828.68	2004.35
828.862	2028.95
829.043	2047.75
829.224	2004.93
829.406	1976.45
829.587	1992.72
829.768	2022.56
829.949	2003.38
830.131	1995.24
830.312	2059.95
830.493	2005.7
830.674	2024.5
830.855	2000.08
831.036	2006.09
831.218	2067.51
831.399	2082.81
831.58	2006.87
831.761	2031.08
831.942	2061.89
832.123	2010.16
832.304	1959.2
832.485	1984.39
832.666	1980.71
832.847	1998.53
833.028	1976.84
833.209	2000.28
833.389	1994.47
833.57	1970.25
833.751	1930.92
833.932	2020.43
834.113	1988.27
834.294	1970.83
834.475	2031.47
834.655	2042.13
834.836	2036.7
835.017	2028.37
835.198	1967.15
835.378	2008.42
835.559	2085.72
835.74	2002.8
835.92	1997.76
836.101	2011.52
836.281	2069.25
836.462	1983.81
836.643	2041.16
836.823	2060.34
837.004	2070.03
837.184	2123.5
837.365	2052.98
837.545	2100.06
837.726	2052.01
837.906	2114.78
838.087	2067.7
838.267	2032.25
838.448	1962.3
838.628	2046.97
838.808	2034.57
838.989	2114.4
839.169	1975.09
839.349	2023.72
839.53	2106.26
839.71	2057.05
839.89	2011.52
840.07	2070.8
840.251	1997.57
840.431	2053.17
840.611	2013.84
840.791	2024.11
840.971	2007.64
841.151	2020.04
841.332	1957.07
841.512	2078.55
841.692	1938.67
841.872	2017.33
842.052	2001.83
842.232	2057.05
842.412	1929.37
842.592	1983.23
842.772	2000.47
842.952	1989.43
843.132	1991.37
843.312	1942.74
843.492	1928.79
843.672	2015.39
843.851	1883.26
844.031	1978.19
844.211	1980.13
844.391	1930.53
844.571	1980.71
844.751	1955.33
844.93	1959.59
845.11	1896.24
845.29	1965.6
845.47	1974.9
845.649	1965.6
845.829	1966.95
846.009	1935.76
846.188	1970.05
846.368	1929.17
846.547	1943.9
846.727	1980.71
846.907	1892.75
847.086	1957.85
847.266	1955.91
847.445	1908.83
847.625	1881.9
847.804	1884.03
847.984	1866.98
848.163	1885.77
848.343	1892.36
848.522	1904.18
848.701	1890.42
848.881	1826.1
849.06	1903.21
849.239	1856.13
849.419	1882.09
849.598	1808.66
849.777	1814.67
849.957	1788.13
850.136	1697.65
850.315	1700.36
850.494	1678.46
850.674	1698.81
850.853	1784.64
851.032	1735.43
851.211	1812.15
851.39	1775.14
851.569	1702.49
851.748	1708.5
851.927	1779.6
852.107	1773.01
852.286	1675.56
852.465	1719.54
852.644	1790.45
852.823	1776.5
853.002	1736.78
853.181	1737.94
853.359	1755.38
853.538	1674.98
853.717	1776.5
853.896	1650.76
854.075	1580.62
854.254	1542.45
854.433	1458.76
854.611	1537.03
854.79	1471.35
854.969	1530.83
855.148	1537.61
855.327	1508.94
855.505	1563.77
855.684	1563.18
855.863	1591.86
856.041	1559.89
856.22	1594.77
856.399	1581.2
856.577	1707.53
856.756	1663.16
856.934	1800.72
857.113	1778.63
857.291	1665.1
857.47	1651.53
857.648	1689.9
857.827	1685.05
858.005	1715.08
858.184	1647.85
858.362	1736.01
858.541	1645.33
858.719	1677.5
858.898	1649.01
859.076	1602.71
859.254	1730
859.433	1602.52
859.611	1644.75
859.789	1599.03
859.967	1655.99
860.146	1672.07
860.324	1611.62
860.502	1618.4
860.68	1565.12
860.859	1600.38
861.037	1591.47
861.215	1616.85
861.393	1626.54
861.571	1599.03
861.749	1574.42
861.927	1610.27
862.105	1640.3
862.283	1563.96
862.461	1540.13
862.639	1569
862.817	1559.7
862.995	1565.7
863.173	1576.36
863.351	1571.9
863.529	1550.79
863.707	1626.93
863.885	1562.6
864.063	1511.26
864.241	1509.32
864.418	1588.57
864.596	1482.39
864.774	1499.44
864.952	1530.64
865.129	1546.52
865.307	1454.69
865.485	1467.47
865.663	1531.41
865.84	1393.27
866.018	1440.35
866.196	1320.42
866.373	1320.42
866.551	1290.97
866.728	1265.78
866.906	1272.76
867.084	1345.61
867.261	1369.83
867.439	1371.76
867.616	1435.31
867.794	1434.73
867.971	1397.92
868.149	1417.1
868.326	1483.17
868.503	1465.92
868.681	1396.95
868.858	1403.54
869.035	1389.97
869.213	1458.56
869.39	1409.54
869.567	1476.19
869.745	1404.31
869.922	1438.22
870.099	1410.9
870.276	1452.17
870.454	1436.86
870.631	1442.48
870.808	1411.48
870.985	1432.02
871.162	1520.95
871.339	1426.01
871.517	1387.65
871.694	1363.63
871.871	1341.54
872.048	1367.31
872.225	1371.57
872.402	1378.74
872.579	1346.77
872.756	1388.81
872.933	1349.48
873.11	1325.46
873.287	1376.8
873.463	1331.85
873.64	1359.94
873.817	1367.31
873.994	1328.36
874.171	1343.09
874.348	1360.14
874.524	1267.53
874.701	1368.86
874.878	1257.06
875.055	1340.38
875.231	1283.41
875.408	1339.99
875.585	1233.23
875.762	1328.94
875.938	1276.44
876.115	1319.45
876.291	1275.47
876.468	1282.06
876.645	1239.63
876.821	1271.01
876.998	1267.33
877.174	1275.08
877.351	1292.33
877.527	1227.42
877.704	1264.04
877.88	1276.63
878.057	1254.74
878.233	1305.11
878.409	1226.26
878.586	1257.45
878.762	1258.03
878.938	1242.15
879.115	1167.55
879.291	1258.03
879.467	1181.5
879.644	1230.71
879.82	1252.22
879.996	1214.83
880.172	1141.78
880.349	1198.94
880.525	1244.47
880.701	1143.53
880.877	1157.28
881.053	1177.24
881.229	1176.66
881.405	1225.48
881.581	1160.19
881.757	1159.42
881.933	1238.85
882.109	1245.63
882.285	1194.1
882.461	1142.95
882.637	1193.9
882.813	1143.72
882.989	1183.63
883.165	1256.48
883.341	1168.72
883.517	1223.93
883.693	1177.43
883.869	1200.68
884.044	1149.34
884.22	1201.65
884.396	1234.59
884.572	1172.59
884.747	1228.78
884.923	1221.03
885.099	1239.63
885.275	1256.87
885.45	1165.03
885.626	1178.02
885.801	1170.65
885.977	1155.54
886.153	1099.74
886.328	1221.8
886.504	1193.13
886.679	1218.9
886.855	1165.03
887.03	1194.68
887.206	1240.79
887.381	1171.62
887.557	1203.4
887.732	1212.5
887.908	1213.66
888.083	1214.83
888.258	1198.17
888.434	1165.81
888.609	1189.06
888.784	1242.92
888.96	1159.22
889.135	1152.44
889.31	1167.17
889.485	1182.47
889.661	1165.23
889.836	1228
890.011	1176.27
890.186	1131.71
890.361	1134.42
890.537	1190.03
890.712	1195.84
890.887	1192.16
891.062	1191.58
891.237	1247.96
891.412	1155.93
891.587	1168.52
891.762	1197.39
891.937	1213.28
892.112	1145.66
892.287	1128.8
892.462	1172.2
892.637	1100.9
892.812	1097.22
892.987	1087.73
893.161	1105.55
893.336	1087.15
893.511	1114.27
893.686	1092.57
893.861	1096.84
894.035	1110.2
894.21	1108.65
894.385	1040.45
894.56	1088.12
894.734	1029.41
894.909	1045.3
895.084	1012.17
895.258	1045.1
895.433	1029.99
895.608	995.12
895.782	951.14
895.957	981.75
896.131	982.52
896.306	931.38
896.48	910.26
896.655	897.47
896.829	852.33
897.004	869.38
897.178	851.16
897.353	861.82
897.527	908.71
897.701	875.58
897.876	775.02
898.05	894.76
898.224	864.92
898.399	914.71
898.573	893.98
898.747	752.55
898.921	813.58
899.096	673.89
899.27	709.92
899.444	717.48
899.618	747.9
899.792	758.36
899.967	769.21
900.141	819.39
900.315	737.05
900.489	747.9
900.663	769.02
900.837	785.48
901.011	714.57
901.185	830.82
901.359	779.28
901.533	757.78
901.707	776.38
901.881	756.23
902.055	712.25
902.229	737.05
902.403	784.13
902.576	753.9
902.75	761.27
902.924	892.63
903.098	829.08
903.272	862.01
903.446	884.88
903.619	870.15
903.793	918.78
903.967	866.47
904.14	915.49
904.314	922.85
904.488	900.38
904.661	938.74
904.835	912
905.009	957.53
905.182	996.86
905.356	913.74
905.529	883.52
905.703	862.98
905.876	861.43
906.05	864.92
906.223	804.28
906.397	757.2
906.57	761.85
906.744	777.93
906.917	730.27
907.09	769.4
907.264	765.14
907.437	730.65
907.61	684.35
907.784	713.02
907.957	724.84
908.13	670.01
908.304	728.13
908.477	658.97
908.65	696.17
908.823	623.51
908.996	729.88
909.17	670.79
909.343	681.44
909.516	692.87
909.689	689.58
909.862	660.13
910.035	681.25
910.208	657.8
910.381	636.49
910.554	771.73
910.727	653.74
910.9	659.55
911.073	645.79
911.246	726
911.419	709.92
911.592	694.03
911.765	666.72
911.938	661.68
912.11	672.92
912.283	652.77
912.456	697.91
912.629	653.54
912.802	626.42
912.974	642.11
913.147	551.05
913.32	505.71
913.493	555.7
913.665	592.71
913.838	602
914.01	599.29
914.183	583.79
914.356	603.75
914.528	643.27
914.701	669.62
914.873	631.07
915.046	569.26
915.218	539.62
915.391	463.48
915.563	507.84
915.736	575.07
915.908	604.91
916.081	597.35
916.253	565
916.425	573.72
916.598	614.4
916.77	583.79
916.942	554.92
917.115	462.7
917.287	555.89
917.459	549.5
917.632	500.68
917.804	469.29
917.976	567.13
918.148	563.45
918.32	535.55
918.493	597.16
918.665	652.57
918.837	567.13
919.009	652.19
919.181	625.06
919.353	611.5
919.525	594.45
919.697	593.09
919.869	571.78
920.041	669.43
920.213	692.87
920.385	611.69
920.557	600.65
920.729	646.76
920.901	608.4
921.073	589.22
921.244	569.07
921.416	648.12
921.588	578.95
921.76	589.02
921.932	638.43
922.103	556.67
922.275	588.25
922.447	565.19
922.619	523.54
922.79	590.77
922.962	550.47
923.134	592.51
923.305	538.46
923.477	499.13
923.648	524.31
923.82	566.94
923.991	495.25
924.163	476.84
924.335	524.31
924.506	488.47
924.677	564.61
924.849	482.46
925.02	539.42
925.192	564.22
925.363	530.9
925.535	551.82
925.706	503.19
925.877	559.19
926.049	480.33
926.22	529.16
926.391	539.04
926.562	562.67
926.734	502.81
926.905	515.21
927.076	469.48
927.247	475.1
927.419	459.79
927.59	417.36
927.761	462.89
927.932	425.89
928.103	445.07
928.274	381.33
928.445	426.66
928.616	400.9
928.787	411.94
928.958	441.97
929.129	392.37
929.3	388.11
929.471	370.09
929.642	275.73
929.813	262.37
929.984	364.47
930.155	249.77
930.326	316.23
930.496	278.06
930.667	221.68
930.838	286.39
931.009	220.52
931.18	263.72
931.35	223.23
931.521	260.04
931.692	177.5
931.863	136.04
932.033	199.2
932.204	195.52
932.374	190.49
932.545	143.99
932.716	208.12
932.886	210.25
933.057	99.23
933.227	139.53
933.398	232.34
933.568	113.96
933.739	55.06
933.909	93.61
934.08	155.22
934.25	63.78
934.421	88.77
934.591	107.95
934.761	85.28
934.932	52.34
935.102	102.52
935.272	102.91
935.443	77.92
935.613	101.36
935.783	113.37
935.953	58.54
936.123	244.93
936.294	58.93
936.464	85.67
936.634	66.88
936.804	70.17
936.974	25.41
937.144	117.25
937.314	100.97
937.484	64.16
937.655	92.84
937.825	106.98
937.995	54.28
938.165	117.06
938.334	85.47
938.504	118.99
938.674	87.41
938.844	140.5
939.014	173.63
939.184	138.95
939.354	221.1
939.524	182.35
939.694	157.16
939.863	155.42
940.033	225.94
940.203	201.34
940.373	175.18
940.542	200.95
940.712	135.66
940.882	188.55
941.051	208.5
941.221	192.81
941.391	194.36
941.56	136.43
941.73	113.18
941.899	258.88
942.069	151.54
942.238	200.56
942.408	128.68
942.577	172.66
942.747	167.62
942.916	83.54
943.086	128.49
943.255	165.1
943.425	162.59
943.594	106.59
943.763	56.22
943.933	75.79
944.102	55.25
944.271	93.03
944.441	126.36
944.61	93.81
944.779	128.29
944.948	214.7
945.117	90.51
945.287	108.34
945.456	63.97
945.625	89.16
945.794	114.15
945.963	101.17
946.132	142.82
946.301	86.44
946.47	134.69
946.639	54.28
946.808	86.64
946.977	139.53
947.146	183.51
947.315	117.83
947.484	162.2
947.653	110.27
947.822	75.59
947.991	97.1
948.16	177.89
948.329	163.55
948.498	114.54
948.666	104.46
948.835	158.91
949.004	65.13
949.173	97.49
949.341	115.51
949.51	124.61
949.679	131.2
949.847	135.27
950.016	224.39
950.185	189.13
950.353	85.28
950.522	109.31
950.69	146.12
950.859	109.69
951.028	150.38
951.196	129.07
951.365	97.1
951.533	106.79
951.701	143.21
951.87	153.87
952.038	69.59
952.207	132.36
952.375	175.57
952.543	81.6
952.712	107.76
952.88	103.3
953.048	175.76
953.217	137.98
953.385	132.36
953.553	158.71
953.721	89.93
953.89	124.81
954.058	54.09
954.226	106.4
954.394	123.45
954.562	75.4
954.73	130.04
954.898	100.59
955.067	122.48
955.235	70.17
955.403	134.49
955.571	193.78
955.739	152.9
955.907	79.27
956.075	110.27
956.243	102.14
956.41	142.63
956.578	39.94
956.746	59.51
956.914	113.37
957.082	130.42
957.25	142.05
957.418	94.39
957.585	106.59
957.753	145.54
957.921	81.79
958.089	134.11
958.256	141.27
958.424	112.99
958.592	99.81
958.759	78.31
958.927	133.72
959.095	60.87
959.262	94
959.43	100.01
959.597	48.86
959.765	87.22
959.932	71.14
960.1	142.63
960.267	136.04
960.435	104.46
960.602	149.99
960.77	79.86
960.937	73.46
961.104	108.34
961.272	79.08
961.439	100.2
961.606	124.81
961.774	150.96
961.941	106.4
962.108	127.52
962.275	138.37
962.443	164.72
962.61	132.17
962.777	191.45
962.944	165.1
963.111	152.12
963.278	152.12
963.446	134.88
963.613	117.06
963.78	114.15
963.947	151.35
964.114	135.46
964.281	233.11
964.448	140.11
964.615	114.92
964.782	148.44
964.949	180.8
965.116	157.94
965.282	200.75
965.449	143.41
965.616	104.85
965.783	152.9
965.95	143.41
966.117	79.86
966.283	119.57
966.45	119.57
966.617	140.11
966.784	165.1
966.95	153.87
967.117	162.97
967.284	102.33
967.45	104.46
967.617	210.05
967.784	164.33
967.95	195.14
968.117	117.64
968.283	158.32
968.45	253.07
968.616	151.74
968.783	176.15
968.949	153.29
969.116	164.33
969.282	139.34
969.449	141.47
969.615	162.2
969.781	97.29
969.948	137.4
970.114	84.12
970.28	215.48
970.447	148.06
970.613	211.6
970.779	142.82
970.945	149.02
971.112	155.42
971.278	143.02
971.444	128.49
971.61	159.49
971.776	150.77
971.942	180.99
972.108	153.48
972.275	125.77
972.441	178.47
972.607	237.57
972.773	114.73
972.939	170.34
973.105	154.26
973.271	124.03
973.437	108.92
973.602	121.32
973.768	142.24
973.934	140.89
974.1	156.19
974.266	84.31
974.432	136.43
974.598	110.47
974.763	157.16
974.929	112.02
975.095	201.34
975.261	109.69
975.426	113.37
975.592	113.96
975.758	220.9
975.923	79.47
976.089	91.48
976.255	150.57
976.42	140.31
976.586	130.81
976.751	149.02
976.917	212.96
977.082	141.08
977.248	69.2
977.413	54.48
977.579	106.59
977.744	178.09
977.91	89.93
978.075	99.23
978.24	152.12
978.406	140.11
978.571	114.92
978.736	91.48
978.902	135.66
979.067	90.71
979.232	76.37
979.397	127.32
979.563	202.69
979.728	92.06
979.893	124.03
980.058	112.21
980.223	136.43
980.388	144.76
980.554	130.23
980.719	110.86
980.884	118.41
981.049	183.9
981.214	81.21
981.379	133.52
981.544	104.27
981.709	107.95
981.874	90.9
982.039	96.91
982.204	149.22
982.368	118.99
982.533	94.97
982.698	156.97
982.863	161.42
983.028	100.78
983.193	109.89
983.357	129.46
983.522	113.18
983.687	90.32
983.852	100.78
984.016	115.89
984.181	127.52
984.346	156.77
984.51	156.77
984.675	104.27
984.839	159.29
985.004	115.31
985.168	131.78
985.333	124.22
985.498	111.82
985.662	149.02
985.827	117.83
985.991	104.66
986.155	116.47
986.32	131.97
986.484	181.38
986.649	105.62
986.813	55.44
986.977	138.76
987.142	131.59
987.306	94.19
987.47	65.71
987.634	94
987.799	123.45
987.963	127.13
988.127	145.73
988.291	196.69
988.455	112.79
988.62	94.39
988.784	149.8
988.948	137.98
989.112	93.61
989.276	125.19
989.44	115.12
989.604	80.63
989.768	108.72
989.932	177.89
990.096	85.09
990.26	72.3
990.424	62.03
990.588	100.59
990.752	190.49
990.915	128.87
991.079	94.58
991.243	66.1
991.407	141.08
991.571	75.98
991.734	119.77
991.898	130.42
992.062	176.15
992.226	98.84
992.389	42.08
992.553	74.62
992.717	64.94
992.88	73.27
993.044	85.09
993.207	71.33
993.371	136.43
993.535	116.86
993.698	78.31
993.862	103.69
994.025	137.01
994.189	123.45
994.352	99.04
994.515	124.81
994.679	143.02
994.842	73.07
995.006	142.63
995.169	50.21
995.332	75.21
995.496	141.08
995.659	62.81
995.822	76.17
995.985	87.02
996.149	142.05
996.312	102.33
996.475	161.23
996.638	74.62
996.801	129.46
996.964	151.35
997.128	79.66
997.291	75.4
997.454	73.66
997.617	52.15
997.78	127.52
997.943	72.69
998.106	125.19
998.269	85.28
998.432	87.8
998.595	62.23
998.758	40.33
998.92	32.58
999.083	27.74
999.246	75.98
999.409	50.79
999.572	0.42
999.735	63.97
999.897	100.39
1000.06	63.19
1000.223	94.77
1000.386	108.34
1000.548	120.16
1000.711	111.44
1000.874	70.56
1001.036	32.58
1001.199	127.71
1001.361	58.16
1001.524	72.88
1001.687	136.04
1001.849	45.56
1002.012	88.19
1002.174	66.68
1002.337	102.14
1002.499	69.78
1002.661	103.69
1002.824	38.59
1002.986	42.08
1003.149	73.27
1003.311	60.68
1003.473	145.54
1003.636	53.31
1003.798	85.67
1003.96	92.26
1004.123	81.21
1004.285	67.26
1004.447	59.32
1004.609	67.26
1004.771	159.49
1004.933	39.75
1005.096	24.25
1005.258	-2.29
1005.42	60.87
1005.582	113.57
1005.744	103.3
1005.906	11.46
1006.068	54.28
1006.23	29.48
1006.392	28.9
1006.554	52.34
1006.716	127.52
1006.878	78.11
1007.04	7.2
1007.202	51.57
1007.363	79.86
1007.525	81.41
1007.687	112.99
1007.849	108.14
1008.011	9.53
1008.172	23.48
1008.334	44.79
1008.496	86.83
1008.658	6.04
1008.819	23.67
1008.981	27.54
1009.143	12.82
1009.304	56.61
1009.466	79.47
1009.627	121.12
1009.789	166.65
1009.95	67.26
1010.112	34.71
1010.273	68.43
1010.435	4.1
1010.596	63.58
1010.758	42.46
1010.919	28.71
1011.081	-5.78
1011.242	56.22
1011.403	71.91
1011.565	28.32
1011.726	83.92
1011.887	9.33
1012.049	39.94
1012.21	71.53
1012.371	76.76
1012.532	-21.09
1012.693	47.69
1012.855	33.94
1013.016	36.65
1013.177	108.53
1013.338	33.94
1013.499	115.12
1013.66	94.39
1013.821	77.14
1013.982	71.91
1014.143	79.08
1014.304	24.25
1014.465	48.08
1014.626	51.38
1014.787	49.24
1014.948	134.88
1015.109	-21.09
1015.27	65.91
1015.431	29.48
1015.592	27.35
1015.752	92.45
1015.913	39.36
1016.074	59.32
1016.235	32.58
1016.395	45.76
1016.556	27.35
1016.717	27.74
1016.877	107.56
1017.038	13.59
1017.199	65.13
1017.359	52.73
1017.52	48.47
1017.681	15.14
1017.841	37.23
1018.002	26.38
1018.162	23.28
1018.323	83.73
1018.483	34.33
1018.644	26.19
1018.804	2.55
1018.964	16.11
1019.125	35.88
1019.285	67.07
1019.446	13.21
1019.606	16.31
1019.766	-34.07
1019.926	71.72
1020.087	62.42
1020.247	-5.39
1020.407	55.83
1020.567	77.14
1020.728	34.91
1020.888	-21.67
1021.048	13.79
1021.208	-27.67
1021.368	23.86
1021.528	111.44
1021.688	87.41
1021.848	54.86
1022.008	13.59
1022.168	1.97
1022.328	38.39
1022.488	20.38
1022.648	17.28
1022.808	67.07
1022.968	53.51
1023.128	17.47
1023.288	-0.94
1023.448	35.88
1023.608	43.63
1023.767	57.96
1023.927	7.98
1024.087	7.2
1024.247	-20.31
1024.406	5.26
1024.566	9.33
1024.726	-6.17
1024.885	35.68
1025.045	58.35
1025.205	7.2
1025.364	5.26
1025.524	41.11
1025.683	29.48
1025.843	25.61
1026.003	30.26
1026.162	105.43
1026.321	80.44
1026.481	35.68
1026.64	18.24
1026.8	37.23
1026.959	38.01
1027.119	19.79
1027.278	6.04
1027.437	-7.52
1027.597	33.16
1027.756	41.3
1027.915	44.4
1028.074	60.48
1028.234	-17.79
1028.393	31.81
1028.552	7.78
1028.711	-49.95
1028.87	61.26
1029.03	-4.23
1029.189	18.63
1029.348	-33.29
1029.507	7.98
1029.666	16.11
1029.825	7.01
1029.984	0.23
1030.143	42.08
1030.302	-15.85
1030.461	-28.45
1030.62	29.68
1030.779	53.12
1030.938	-19.73
1031.097	-30.58
1031.255	27.74
1031.414	76.95
1031.573	68.23
1031.732	-37.55
1031.891	13.98
1032.049	58.35
1032.208	41.3
1032.367	-2.87
1032.525	19.99
1032.684	14.18
1032.843	38.59
1033.001	-53.83
1033.16	186.8
1033.319	59.13
1033.477	35.49
1033.636	-27.67
1033.794	-1.32
1033.953	57.96
1034.111	43.24
1034.27	14.56
1034.428	34.91
1034.587	3.91
1034.745	34.52
1034.903	20.57
1035.062	38.2
1035.22	-22.44
1035.378	51.57
1035.537	13.59
1035.695	68.23
1035.853	-6.56
1036.011	32.39
1036.17	73.46
1036.328	-64.49
1036.486	32.58
1036.644	33.74
1036.802	-80.76
1036.96	-15.47
1037.119	17.47
1037.277	-22.64
1037.435	-4.42
1037.593	-31.94
1037.751	22.7
1037.909	49.63
1038.067	49.63
