Data from gum_old_FLMT105791__43__15-43-05-258.txt Node

Date: Mon Mar 20 15:43:05 GMT 2023
User: antho
Spectrometer: FLMT10579
Trigger mode: 0
Integration Time (sec): 1.000000E-1
Scans to average: 10
Electric dark correction enabled: true
Nonlinearity correction enabled: false
Boxcar width: 0
XAxis mode: Wavelengths
Number of Pixels in Spectrum: 3648
>>>>>Begin Spectral Data<<<<<
345.248	-144.75
345.464	-144.75
345.681	-144.75
345.898	-161.41
346.114	-188.34
346.331	-55.82
346.548	18.78
346.764	-22.49
346.981	-5.44
347.197	-17.45
347.414	39.31
347.631	-8.73
347.847	84.65
348.064	-10.67
348.28	35.44
348.497	-50
348.713	-7.57
348.93	24.59
349.146	24.98
349.363	9.67
349.579	20.33
349.796	2.5
350.012	26.91
350.229	54.62
350.445	42.03
350.661	22.46
350.878	39.12
351.094	84.26
351.311	41.45
351.527	47.65
351.743	2.31
351.96	64.89
352.176	63.73
352.392	61.79
352.609	95.11
352.825	11.61
353.041	52.68
353.257	9.09
353.474	13.16
353.69	60.82
353.906	33.89
354.122	-8.35
354.339	91.43
354.555	44.16
354.771	38.93
354.987	99.76
355.203	78.26
355.42	31.95
355.636	24.01
355.852	11.61
356.068	40.67
356.284	20.13
356.5	69.54
356.716	58.3
356.932	55.59
357.148	86.98
357.364	33.31
357.58	78.84
357.796	114.49
358.012	81.36
358.228	57.33
358.444	-1.95
358.66	89.88
358.876	66.83
359.092	24.4
359.308	72.25
359.524	57.72
359.74	37.76
359.956	36.41
360.172	65.47
360.388	80.39
360.604	39.9
360.819	130.38
361.035	84.85
361.251	70.7
361.467	64.89
361.683	96.66
361.898	79.42
362.114	90.08
362.33	80.97
362.546	83.3
362.762	69.35
362.977	116.04
363.193	17.23
363.409	90.66
363.624	55.98
363.84	66.63
364.056	24.98
364.271	107.13
364.487	69.15
364.703	41.25
364.918	29.43
365.134	70.12
365.35	67.02
365.565	170.29
365.781	90.08
365.996	135.8
366.212	159.24
366.427	88.53
366.643	83.1
366.858	92.21
367.074	68.38
367.289	142.97
367.505	205.16
367.72	54.81
367.936	81.16
368.151	156.53
368.367	110.03
368.582	95.11
368.798	83.88
369.013	139.09
369.228	101.7
369.444	103.06
369.659	147.81
369.874	130.76
370.09	138.9
370.305	55.2
370.52	112.16
370.736	162.93
370.951	122.63
371.166	158.47
371.381	165.83
371.597	144.13
371.812	56.95
372.027	82.33
372.242	95.11
372.458	158.47
372.673	112.55
372.888	70.31
373.103	116.04
373.318	199.54
373.533	129.6
373.749	101.12
373.964	39.12
374.179	113.71
374.394	70.7
374.609	153.43
374.824	80.39
375.039	160.02
375.254	80.58
375.469	165.83
375.684	93.76
375.899	156.73
376.114	114.88
376.329	115.26
376.544	137.93
376.759	140.84
376.974	97.44
377.189	92.6
377.404	106.16
377.619	149.56
377.834	73.8
378.049	104.41
378.264	84.85
378.478	163.31
378.693	118.17
378.908	172.03
379.123	135.41
379.338	176.68
379.553	157.69
379.767	133.48
379.982	158.86
380.197	140.45
380.412	98.41
380.626	160.21
380.841	222.6
381.056	163.31
381.271	222.21
381.485	146.07
381.7	117.01
381.915	170.09
382.129	144.33
382.344	142.39
382.559	123.79
382.773	175.71
382.988	81.75
383.202	137.54
383.417	90.46
383.632	209.62
383.846	118.94
384.061	129.02
384.275	106.54
384.49	123.98
384.704	156.92
384.919	159.83
385.133	147.43
385.348	190.05
385.562	116.62
385.777	158.28
385.991	166.99
386.206	132.7
386.42	142
386.634	192.76
386.849	179.59
387.063	181.91
387.277	140.45
387.492	130.18
387.706	107.51
387.92	151.3
388.135	213.88
388.349	192.57
388.563	186.76
388.778	184.24
388.992	182.11
389.206	208.07
389.42	262.71
389.635	199.74
389.849	218.34
390.063	240.04
390.277	245.85
390.491	280.14
390.706	237.32
390.92	239.26
391.134	211.94
391.348	238.1
391.562	204.58
391.776	226.28
391.99	200.32
392.205	276.46
392.419	226.67
392.633	213.88
392.847	233.64
393.061	185.79
393.275	233.84
393.489	162.54
393.703	154.59
393.917	171.64
394.131	120.69
394.345	175.33
394.559	223.37
394.773	182.3
394.986	241.39
395.2	268.32
395.414	286.73
395.628	229.77
395.842	274.33
396.056	275.88
396.27	216.01
396.484	280.53
396.697	241.2
396.911	240.04
397.125	209.23
397.339	216.21
397.553	181.91
397.766	279.17
397.98	222.21
398.194	312.11
398.408	283.82
398.621	329.16
398.835	367.72
399.049	367.52
399.262	384.18
399.476	423.9
399.69	391.93
399.903	437.08
400.117	376.05
400.331	426.23
400.544	393.1
400.758	508.38
400.971	390
401.185	444.44
401.398	372.56
401.612	476.21
401.826	448.31
402.039	448.9
402.253	408.02
402.466	497.33
402.68	457.03
402.893	471.56
403.106	469.63
403.32	436.69
403.533	460.91
403.747	423.9
403.96	457.23
404.174	489
404.387	436.3
404.6	457.81
404.814	483.38
405.027	459.75
405.24	486.48
405.454	427.58
405.667	502.76
405.88	421
406.094	480.28
406.307	511.67
406.52	461.1
406.733	427.39
406.947	420.8
407.16	522.91
407.373	511.86
407.586	462.26
407.799	447.35
408.012	487.65
408.226	491.13
408.439	538.99
408.652	476.6
408.865	531.05
409.078	564.18
409.291	553.13
409.504	519.42
409.717	564.76
409.93	567.28
410.143	502.56
410.357	447.93
410.57	428.17
410.783	456.06
410.996	502.56
411.209	498.88
411.421	559.72
411.634	557.78
411.847	531.43
412.06	576.19
412.273	580.45
412.486	567.66
412.699	636.83
412.912	596.14
413.125	591.11
413.338	582.58
413.55	582.78
413.763	559.14
413.976	598.86
414.189	552.16
414.402	576.77
414.615	637.22
414.827	553.52
415.04	625.98
415.253	596.34
415.466	650.97
415.678	672.29
415.891	608.54
416.104	577.54
416.316	596.14
416.529	564.56
416.742	649.62
416.954	649.62
417.167	647.68
417.38	618.23
417.592	639.93
417.805	593.04
418.017	563.01
418.23	610.48
418.442	619.78
418.655	596.73
418.868	616.1
419.08	646.91
419.293	664.15
419.505	659.31
419.718	640.12
419.93	651.94
420.142	598.47
420.355	659.69
420.567	663.57
420.78	658.53
420.992	623.66
421.205	699.99
421.417	621.91
421.629	671.51
421.842	648.07
422.054	618.43
422.266	707.16
422.479	691.27
422.691	632.18
422.903	713.36
423.115	619.97
423.328	623.07
423.54	667.44
423.752	638.96
423.964	635.47
424.177	699.22
424.389	655.82
424.601	769.74
424.813	706.77
425.025	710.84
425.238	717.24
425.45	678.87
425.662	670.74
425.874	980.73
426.086	731.77
426.298	679.84
426.51	707.94
426.722	669.96
426.934	683.91
427.146	713.55
427.358	645.74
427.57	717.24
427.782	656.79
427.994	660.86
428.206	637.22
428.418	675.77
428.63	751.34
428.842	750.95
429.054	691.47
429.266	713.55
429.478	670.93
429.69	679.26
429.902	628.69
430.114	684.3
430.325	621.72
430.537	597.89
430.749	579.87
430.961	537.63
431.173	540.54
431.384	588.39
431.596	512.45
431.808	613.97
432.02	731.38
432.231	792.41
432.443	822.44
432.655	811.78
432.867	777.49
433.078	778.07
433.29	830.19
433.502	807.72
433.713	858.09
433.925	884.05
434.136	860.42
434.348	712.39
434.56	725.76
434.771	823.22
434.983	708.13
435.194	755.79
435.406	840.65
435.617	862.55
435.829	912.92
436.04	879.21
436.252	874.95
436.463	967.36
436.675	970.27
436.886	938.69
437.098	988.87
437.309	949.54
437.521	942.56
437.732	907.3
437.943	886.76
438.155	891.61
438.366	830.58
438.578	964.85
438.789	869.13
439	867.2
439.211	830.58
439.423	859.06
439.634	877.27
439.845	934.81
440.057	892.77
440.268	961.55
440.479	932.1
440.69	964.65
440.902	933.85
441.113	900.71
441.324	880.76
441.535	975.5
441.746	1034.79
441.957	955.74
442.168	980.73
442.38	1037.11
442.591	1022.19
442.802	999.53
443.013	1059.01
443.224	1076.64
443.435	1026.46
443.646	1032.46
443.857	1012.31
444.068	1007.86
444.279	989.26
444.49	1118.29
444.701	1031.49
444.912	1158.4
445.123	1122.56
445.334	1070.44
445.545	1059.97
445.756	1052.81
445.967	1026.65
446.178	1025.1
446.388	1062.49
446.599	1061.52
446.81	1059.2
447.021	1030.33
447.232	1113.06
447.443	1127.01
447.653	1080.9
447.864	1164.21
448.075	1144.84
448.286	1143.29
448.496	1121.78
448.707	1168.28
448.918	1091.75
449.129	1197.15
449.339	1072.96
449.55	1134.76
449.761	1094.27
449.971	1152.59
450.182	1144.25
450.393	1191.14
450.603	1122.56
450.814	1195.79
451.024	1187.65
451.235	1283.37
451.446	1307.39
451.656	1295.38
451.867	1190.75
452.077	1203.93
452.288	1264.57
452.498	1245.39
452.709	1160.92
452.919	1195.79
453.13	1119.65
453.34	1168.09
453.55	1086.52
453.761	1178.55
453.971	1167.12
454.182	1171.38
454.392	1159.56
454.602	1228.92
454.813	1214.59
455.023	1206.25
455.233	1147.16
455.444	1225.63
455.654	1103.57
455.864	1157.04
456.075	1186.1
456.285	1182.23
456.495	1216.33
456.705	1226.02
456.916	1277.75
457.126	1296.54
457.336	1267.87
457.546	1171.96
457.756	1212.26
457.967	1284.33
458.177	1203.15
458.387	1243.45
458.597	1187.46
458.807	1222.14
459.017	1208.58
459.227	1220.79
459.437	1180.49
459.647	1286.27
459.857	1241.13
460.068	1231.25
460.278	1322.89
460.488	1292.86
460.698	1338
460.908	1274.84
461.117	1253.53
461.327	1285.69
461.537	1304.87
461.747	1317.85
461.957	1311.65
462.167	1422.86
462.377	1368.03
462.587	1313.01
462.797	1370.36
463.007	1371.52
463.216	1400.78
463.426	1438.75
463.636	1415.89
463.846	1326.76
464.056	1349.43
464.265	1342.07
464.475	1326.96
464.685	1345.75
464.895	1361.45
465.104	1312.62
465.314	1365.71
465.524	1348.85
465.733	1323.47
465.943	1424.03
466.153	1445.14
466.362	1413.95
466.572	1402.71
466.782	1367.65
466.991	1391.67
467.201	1457.16
467.41	1277.36
467.62	1400.78
467.829	1381.21
468.039	1424.22
468.249	1406.78
468.458	1446.5
468.668	1438.17
468.877	1481.57
469.086	1539.69
469.296	1508.31
469.505	1465.88
469.715	1541.82
469.924	1486.22
470.134	1535.82
470.343	1531.75
470.552	1483.51
470.762	1459.87
470.971	1457.54
471.18	1479.44
471.39	1491.45
471.599	1455.22
471.808	1550.16
472.018	1521.67
472.227	1602.47
472.436	1670.86
472.645	1594.91
472.855	1601.3
473.064	1693.53
473.273	1665.82
473.482	1610.8
473.691	1674.93
473.901	1648
474.11	1585.03
474.319	1730.34
474.528	1654.2
474.737	1748.94
474.946	1751.85
475.155	1727.82
475.364	1784.78
475.573	1735.77
475.783	1783.04
475.992	1805.51
476.201	1803
476.41	1793.5
476.619	1711.93
476.828	1784.4
477.037	1739.64
477.245	1784.4
477.454	1787.11
477.663	1816.75
477.872	1849.49
478.081	1976.79
478.29	1867.71
478.499	1966.91
478.708	1928.35
478.917	2001.39
479.125	1871.19
479.334	1940.56
479.543	1922.93
479.752	1982.02
479.961	1986.47
480.169	2012.05
480.378	2060.49
480.587	2151.93
480.796	2051.57
481.004	2044.79
481.213	2077.54
481.422	2072.69
481.63	2123.84
481.839	2133.53
482.048	2206.38
482.256	2156.39
482.465	2223.43
482.674	2176.35
482.882	2201.15
483.091	2286.98
483.299	2162.59
483.508	2252.49
483.716	2256.75
483.925	2242.61
484.134	2208.9
484.342	2216.06
484.551	2286.01
484.759	2246.68
484.967	2304.99
485.176	2310.61
485.384	2275.35
485.593	2383.27
485.801	2300.93
486.01	2204.63
486.218	2103.3
486.426	1940.75
486.635	1959.16
486.843	1966.52
487.051	2020.77
487.26	2024.06
487.468	2124.42
487.676	2205.21
487.885	2229.43
488.093	2260.05
488.301	2317.98
488.509	2321.27
488.717	2413.88
488.926	2403.22
489.134	2362.93
489.342	2359.63
489.55	2323.98
489.758	2365.83
489.967	2436.55
490.175	2541.95
490.383	2476.46
490.591	2646.76
490.799	2507.27
491.007	2593.68
491.215	2561.9
491.423	2517.15
491.631	2569.27
491.839	2502.23
492.047	2551.44
492.255	2465.61
492.463	2436.94
492.671	2401.29
492.879	2488.47
493.087	2500.1
493.295	2515.6
493.503	2527.61
493.711	2627.78
493.919	2640.76
494.127	2639.4
494.334	2599.88
494.542	2581.28
494.75	2637.08
494.958	2632.04
495.166	2756.81
495.374	2742.86
495.581	2773.48
495.789	2726.39
495.997	2822.3
496.205	2638.43
496.412	2678.35
496.62	2676.6
496.828	2701.01
497.035	2729.69
497.243	2780.45
497.451	2829.08
497.658	2750.03
497.866	2782.97
498.074	2841.48
498.281	2707.21
498.489	2806.61
498.696	2746.74
498.904	2669.05
499.112	2658.78
499.319	2786.46
499.527	2762.82
499.734	2831.79
499.942	2717.87
500.149	2770.57
500.357	2804.86
500.564	2709.73
500.771	2784.71
500.979	2662.85
501.186	2640.76
501.394	2720
501.601	2632.43
501.808	2680.28
502.016	2656.84
502.223	2652.19
502.43	2687.06
502.638	2714.38
502.845	2695.59
503.052	2783.36
503.26	2755.65
503.467	2788.59
503.674	2798.66
503.881	2808.74
504.089	2846.13
504.296	2819.97
504.503	2708.57
504.71	2701.21
504.917	2745.19
505.125	2739.57
505.332	2783.16
505.539	2799.05
505.746	2899.6
505.953	2867.06
506.16	2906.77
506.367	2960.44
506.574	2996.09
506.781	2961.99
506.988	2907.94
507.195	2954.82
507.402	2874.03
507.609	2911.81
507.816	2888.56
508.023	2852.72
508.23	2847.1
508.437	2791.11
508.644	2811.84
508.851	2860.86
509.058	2944.36
509.265	2908.9
509.472	2987.57
509.679	3002.68
509.885	2987.37
510.092	2972.07
510.299	2956.57
510.506	2902.9
510.713	2960.05
510.92	2956.95
511.126	2948.04
511.333	2997.83
511.54	2951.34
511.746	3030
511.953	3031.74
512.16	3053.44
512.367	3032.13
512.573	3011.98
512.78	3025.93
512.987	2984.66
513.193	2964.12
513.4	2872.67
513.606	2972.26
513.813	3017.98
514.02	2936.03
514.226	3002.87
514.433	3041.62
514.639	2917.82
514.846	2945.33
515.052	2959.67
515.259	2957.73
515.465	2941.45
515.672	2958.31
515.878	3062.55
516.085	3017.98
516.291	3051.7
516.497	3001.71
516.704	2946.69
516.91	2895.54
517.117	2774.06
517.323	2655.1
517.529	2691.33
517.736	2648.7
517.942	2675.44
518.148	2768.24
518.354	2793.43
518.561	2805.64
518.767	2801.18
518.973	2838.38
519.179	2859.69
519.386	2867.64
519.592	2861.44
519.798	2913.55
520.004	3056.93
520.21	3000.55
520.417	3026.9
520.623	3122.61
520.829	3065.45
521.035	3113.5
521.241	3104.2
521.447	3113.11
521.653	3258.62
521.859	3143.92
522.065	3214.25
522.271	3248.93
522.477	3225.29
522.683	3285.74
522.889	3190.42
523.095	3184.8
523.301	3135.2
523.507	3090.64
523.713	3157.09
523.919	3152.45
524.125	3238.08
524.331	3219.29
524.537	3374.87
524.742	3385.14
524.948	3360.92
525.154	3367.5
525.36	3439.19
525.566	3345.03
525.772	3408.19
525.977	3361.11
526.183	3348.13
526.389	3408.19
526.595	3292.52
526.8	3259.59
527.006	3159.23
527.212	3073.01
527.417	3039.49
527.623	3023.02
527.829	3135.4
528.034	3187.71
528.24	3207.08
528.446	3221.81
528.651	3410.52
528.857	3368.28
529.062	3442.87
529.268	3442.29
529.473	3480.27
529.679	3495.18
529.884	3624.8
530.09	3538.2
530.295	3487.82
530.501	3493.83
530.706	3512.23
530.912	3458.76
531.117	3515.72
531.323	3547.69
531.528	3610.46
531.733	3614.73
531.939	3525.8
532.144	3568.61
532.35	3587.8
532.555	3635.26
532.76	3571.13
532.966	3511.46
533.171	3452.95
533.376	3399.47
533.581	3355.88
533.787	3466.51
533.992	3533.16
534.197	3534.32
534.402	3539.75
534.607	3544.98
534.813	3603.29
535.018	3537.03
535.223	3564.55
535.428	3575.4
535.633	3649.21
535.838	3667.04
536.043	3719.74
536.249	3743.76
536.454	3660.45
536.659	3718.38
536.864	3679.05
537.069	3640.69
537.274	3614.73
537.479	3584.7
537.684	3588.76
537.889	3557.96
538.094	3695.71
538.299	3596.71
538.504	3680.41
538.708	3675.95
538.913	3692.81
539.118	3670.53
539.323	3729.23
539.528	3645.53
539.733	3617.44
539.938	3643.59
540.142	3673.24
540.347	3598.06
540.552	3532.19
540.757	3582.76
540.962	3552.92
541.166	3478.33
541.371	3492.08
541.576	3514.17
541.781	3466.7
541.985	3592.25
542.19	3611.82
542.395	3714.31
542.599	3728.26
542.804	3682.92
543.008	3705.98
543.213	3645.92
543.418	3616.08
543.622	3683.31
543.827	3650.76
544.031	3682.73
544.236	3692.42
544.44	3741.63
544.645	3780.96
544.849	3676.92
545.054	3765.46
545.258	3775.92
545.463	3789.87
545.667	3674.98
545.872	3724.19
546.076	3750.54
546.281	3725.36
546.485	3664.33
546.689	3741.63
546.894	3738.53
547.098	3777.67
547.302	3693.77
547.507	3670.53
547.711	3747.64
547.915	3721.67
548.119	3629.06
548.324	3666.65
548.528	3705.21
548.732	3692.61
548.936	3700.36
549.141	3757.71
549.345	3715.28
549.549	3724.77
549.753	3770.3
549.957	3810.41
550.161	3827.85
550.366	3798.01
550.57	3701.14
550.774	3717.99
550.978	3755.77
551.182	3758.68
551.386	3704.04
551.59	3694.55
551.794	3698.81
551.998	3773.99
552.202	3764.3
552.406	3684.67
552.61	3768.75
552.814	3774.57
553.018	3788.71
553.222	3705.21
553.426	3724.58
553.63	3789.49
553.833	3737.56
554.037	3628.87
554.241	3709.27
554.445	3711.6
554.649	3735.82
554.853	3707.72
555.056	3771.47
555.26	3806.15
555.464	3776.5
555.668	3773.99
555.871	3776.5
556.075	3805.18
556.279	3746.09
556.483	3698.42
556.686	3702.49
556.89	3695.32
557.094	3724.39
557.297	3616.66
557.501	3680.99
557.704	3559.51
557.908	3646.69
558.112	3597.87
558.315	3671.3
558.519	3676.14
558.722	3595.54
558.926	3576.95
559.129	3516.11
559.333	3528.51
559.536	3523.28
559.74	3434.54
559.943	3468.64
560.147	3479.49
560.35	3478.72
560.553	3500.22
560.757	3463.02
560.96	3567.84
561.164	3534.71
561.367	3641.27
561.57	3545.56
561.774	3546.14
561.977	3540.13
562.18	3480.65
562.384	3590.31
562.587	3490.34
562.79	3493.44
562.993	3482.4
563.197	3513.78
563.4	3556.99
563.603	3561.83
563.806	3582.76
564.009	3463.99
564.212	3548.08
564.416	3396.95
564.619	3493.63
564.822	3388.24
565.025	3525.6
565.228	3458.57
565.431	3476.97
565.634	3336.7
565.837	3401.8
566.04	3343.48
566.243	3336.12
566.446	3262.69
566.649	3371.38
566.852	3312.67
567.055	3313.64
567.258	3344.06
567.461	3439.19
567.664	3426.02
567.867	3297.17
568.07	3329.34
568.273	3399.47
568.475	3414.59
568.678	3302.02
568.881	3290.78
569.084	3310.93
569.287	3197.78
569.489	3251.06
569.692	3297.37
569.895	3304.92
570.098	3213.28
570.3	3217.93
570.503	3129.58
570.706	3214.44
570.909	3127.45
571.111	3085.6
571.314	3077.27
571.516	3098.58
571.719	3139.66
571.922	3114.08
572.124	3106.14
572.327	3141.4
572.529	3097.03
572.732	3103.62
572.935	3183.25
573.137	3240.41
573.34	3148.96
573.542	3235.76
573.745	3170.08
573.947	3159.42
574.15	3174.34
574.352	3116.02
574.554	3236.53
574.757	3136.75
574.959	3075.72
575.162	3108.85
575.364	3076.5
575.566	3190.03
575.769	3010.82
575.971	3087.73
576.173	2980.78
576.376	3056.93
576.578	3097.42
576.78	3093.16
576.982	2979.04
577.185	3050.92
577.387	2989.5
577.589	3013.92
577.791	3020.5
577.993	3096.26
578.196	3031.93
578.398	3020.5
578.6	3024.18
578.802	2942.42
579.004	2911.23
579.206	2910.45
579.408	3011.2
579.61	2960.64
579.812	3058.67
580.014	2932.54
580.216	2932.93
580.418	2974.78
580.62	2980.2
580.822	2964.7
581.024	3018.95
581.226	3037.94
581.428	2994.54
581.63	3065.45
581.832	2982.33
582.034	2965.87
582.236	3026.9
582.438	3021.08
582.64	3075.72
582.841	3051.89
583.043	3106.53
583.245	3031.74
583.447	3020.5
583.649	3028.83
583.85	3079.21
584.052	3071.07
584.254	2976.14
584.456	3061.19
584.657	2944.36
584.859	3005.2
585.061	2946.88
585.262	2988.34
585.464	2959.67
585.666	3022.44
585.867	2912
586.069	2981.75
586.27	2902.12
586.472	2930.6
586.674	2902.12
586.875	2878.68
587.077	2877.32
587.278	2891.66
587.48	2866.47
587.681	3019.15
587.883	2986.4
588.084	2844
588.285	2897.47
588.487	2825.79
588.688	2867.44
588.89	2763.79
589.091	2715.16
589.292	2675.25
589.494	2620.22
589.695	2590.19
589.896	2512.69
590.098	2532.26
590.299	2539.62
590.5	2567.52
590.702	2605.3
590.903	2675.25
591.104	2714.58
591.305	2721.94
591.507	2771.15
591.708	2731.82
591.909	2700.24
592.11	2801.57
592.311	2777.74
592.512	2717.48
592.714	2669.05
592.915	2714.96
593.116	2693.65
593.317	2741.89
593.518	2686.68
593.719	2697.72
593.92	2767.28
594.121	2814.55
594.322	2725.81
594.523	2715.93
594.724	2665.75
594.925	2716.13
595.126	2704.11
595.327	2689.2
595.528	2682.8
595.729	2692.68
595.929	2704.11
596.13	2678.54
596.331	2708.96
596.532	2699.85
596.733	2802.54
596.934	2755.26
597.135	2778.71
597.335	2777.93
597.536	2689.78
597.737	2763.98
597.938	2727.56
598.138	2763.79
598.339	2707.21
598.54	2770.57
598.74	2688.23
598.941	2715.35
599.142	2758.56
599.342	2650.06
599.543	2676.21
599.744	2710.31
599.944	2713.61
600.145	2700.24
600.345	2690.16
600.546	2758.56
600.746	2744.99
600.947	2782.97
601.147	2692.68
601.348	2744.8
601.548	2643.28
601.749	2678.93
601.949	2621
602.15	2602.78
602.35	2582.63
602.551	2660.13
602.751	2596.78
602.951	2642.31
603.152	2556.28
603.352	2665.17
603.552	2679.51
603.753	2702.18
603.953	2734.92
604.153	2711.09
604.354	2677.18
604.554	2679.12
604.754	2701.6
604.954	2656.65
605.155	2712.64
605.355	2686.29
605.555	2695.4
605.755	2713.03
605.955	2664.59
606.155	2699.46
606.356	2682.03
606.556	2703.34
606.756	2693.26
606.956	2569.85
607.156	2716.51
607.356	2594.65
607.556	2648.12
607.756	2636.3
607.956	2701.98
608.156	2667.69
608.356	2583.41
608.556	2662.65
608.756	2596
608.956	2593.87
609.156	2627.39
609.356	2577.6
609.556	2575.85
609.755	2607.63
609.955	2520.64
610.155	2583.02
610.355	2595.42
610.555	2513.85
610.755	2551.25
610.954	2484.21
611.154	2574.88
611.354	2589.8
611.554	2490.41
611.753	2556.09
611.953	2470.26
612.153	2583.02
612.352	2616.35
612.552	2483.63
612.752	2419.69
612.951	2519.67
613.151	2518.7
613.351	2446.24
613.55	2464.45
613.75	2484.02
613.949	2458.83
614.149	2466.39
614.348	2474.14
614.548	2427.06
614.747	2366.61
614.947	2448.37
615.146	2376.1
615.346	2483.05
615.545	2484.79
615.745	2472.78
615.944	2464.45
616.144	2438.29
616.343	2423.18
616.542	2410.2
616.742	2374.36
616.941	2381.33
617.14	2297.63
617.34	2390.24
617.539	2387.53
617.738	2356.14
617.938	2455.34
618.137	2390.24
618.336	2367.38
618.535	2427.25
618.734	2390.63
618.934	2408.26
619.133	2436.36
619.332	2448.37
619.531	2342.97
619.73	2422.79
619.929	2422.21
620.128	2479.75
620.328	2478.79
620.527	2386.95
620.726	2397.41
620.925	2426.09
621.124	2412.14
621.323	2378.04
621.522	2336.38
621.721	2362.15
621.92	2357.11
622.119	2405.16
622.318	2333.09
622.517	2357.5
622.715	2353.63
622.914	2289.88
623.113	2304.41
623.312	2243.77
623.511	2348.01
623.71	2307.13
623.909	2268.18
624.107	2347.43
624.306	2261.6
624.505	2244.74
624.704	2267.41
624.902	2269.15
625.101	2363.12
625.3	2279.23
625.499	2276.13
625.697	2247.06
625.896	2214.32
626.095	2252.49
626.293	2198.24
626.492	2261.98
626.69	2266.44
626.889	2253.65
627.088	2297.44
627.286	2244.16
627.485	2223.04
627.683	2183.71
627.882	2213.74
628.08	2139.34
628.279	2138.18
628.477	2229.05
628.676	2139.53
628.874	2210.83
629.073	2127.13
629.271	2113.96
629.469	2202.7
629.668	2164.33
629.866	2125.78
630.065	2123.65
630.263	2198.05
630.461	2123.07
630.66	2136.24
630.858	2170.34
631.056	2159.1
631.254	2199.79
631.453	2125.97
631.651	2165.11
631.849	2130.04
632.047	2129.85
632.245	2120.16
632.444	2165.3
632.642	2145.73
632.84	2153.87
633.038	2143.41
633.236	2103.11
633.434	2121.13
633.632	2119.97
633.83	2103.3
634.028	2152.9
634.227	2131.4
634.425	2209.48
634.623	2153.29
634.821	2123.07
635.019	2126.36
635.216	2124.81
635.414	2176.15
635.612	2147.09
635.81	2117.06
636.008	2176.35
636.206	2141.28
636.404	2171.89
636.602	2108.34
636.8	2140.5
636.997	2156
637.195	2186.23
637.393	2122.87
637.591	2218.39
637.789	2151.93
637.986	2100.4
638.184	2114.35
638.382	2167.63
638.58	2141.08
638.777	2205.99
638.975	2162.98
639.173	2164.72
639.37	2172.86
639.568	2117.45
639.765	2149.03
639.963	2088
640.161	2148.25
640.358	2139.92
640.556	2052.93
640.753	2070.17
640.951	2018.25
641.148	2069.59
641.346	2081.6
641.543	2050.6
641.741	2067.46
641.938	2017.28
642.136	2024.06
642.333	2024.64
642.531	2085.67
642.728	2140.31
642.925	2077.34
643.123	2060.87
643.32	2057.58
643.517	2033.55
643.715	2045.76
643.912	2046.15
644.109	2084.9
644.306	2049.44
644.504	1990.35
644.701	2035.69
644.898	2048.86
645.095	2000.04
645.293	2025.03
645.49	2072.69
645.687	2010.11
645.884	2074.05
646.081	1969.42
646.278	1980.47
646.475	1948.89
646.672	1975.24
646.87	1960.9
647.067	1974.66
647.264	1977.37
647.461	1942.11
647.658	1909.75
647.855	1985.89
648.052	1891.73
648.249	1862.86
648.446	1936.49
648.642	1918.66
648.839	1902.19
649.036	1889.02
649.233	1874.49
649.43	1827.02
649.627	1777.61
649.824	1877.98
650.021	1846.39
650.217	1839.23
650.414	1898.9
650.611	1860.93
650.808	1859.57
651.004	1883.59
651.201	1894.64
651.398	1943.07
651.595	1889.21
651.791	1875.26
651.988	1954.31
652.185	1847.56
652.381	1924.67
652.578	1830.9
652.775	1877.59
652.971	1877.59
653.168	1889.99
653.364	1956.25
653.561	1824.7
653.757	1885.53
653.954	1926.03
654.15	1820.82
654.347	1954.89
654.543	1873.91
654.74	1820.82
654.936	1824.11
655.133	1828.76
655.329	1842.33
655.525	1834.77
655.722	1816.36
655.918	1757.46
656.115	1764.63
656.311	1644.9
656.507	1579.99
656.704	1539.31
656.9	1562.94
657.096	1599.75
657.292	1610.99
657.489	1682.68
657.685	1668.92
657.881	1636.95
658.077	1687.33
658.273	1689.07
658.47	1809.97
658.666	1735.96
658.862	1826.05
659.058	1777.03
659.254	1813.26
659.45	1769.09
659.646	1808.61
659.842	1807.45
660.038	1842.91
660.234	1750.68
660.43	1784.01
660.626	1872.94
660.822	1861.12
661.018	1852.01
661.214	1834.96
661.41	1807.26
661.606	1873.52
661.802	1887.86
661.998	1805.13
662.194	1794.86
662.39	1834
662.586	1838.65
662.781	1860.54
662.977	1867.13
663.173	1852.01
663.369	1828.18
663.564	1852.4
663.76	1875.84
663.956	1826.44
664.152	1847.17
664.347	1724.53
664.543	1834.19
664.739	1796.99
664.934	1766.76
665.13	1778.58
665.326	1834.96
665.521	1808.42
665.717	1755.72
665.912	1778.39
666.108	1716
666.304	1769.09
666.499	1787.11
666.695	1675.12
666.89	1793.11
667.086	1780.33
667.281	1774.9
667.477	1838.84
667.672	1765.6
667.867	1772.77
668.063	1805.51
668.258	1719.1
668.454	1740.42
668.649	1836.51
668.844	1761.15
669.04	1778.78
669.235	1706.51
669.43	1724.14
669.626	1693.33
669.821	1743.9
670.016	1703.41
670.211	1777.03
670.407	1697.02
670.602	1757.85
670.797	1702.05
670.992	1747
671.187	1694.88
671.382	1787.3
671.578	1680.35
671.773	1737.51
671.968	1659.62
672.163	1712.13
672.358	1698.76
672.553	1678.61
672.748	1695.85
672.943	1783.62
673.138	1680.35
673.333	1709.22
673.528	1674.54
673.723	1740.8
673.918	1668.34
674.113	1649.74
674.308	1771.41
674.503	1699.92
674.698	1732.47
674.892	1690.82
675.087	1709.8
675.282	1689.85
675.477	1688.1
675.672	1697.98
675.867	1680.55
676.061	1642.57
676.256	1607.5
676.451	1639.86
676.646	1687.91
676.84	1623.97
677.035	1639.86
677.23	1648
677.424	1678.8
677.619	1702.83
677.814	1738.09
678.008	1706.12
678.203	1640.05
678.397	1609.25
678.592	1661.17
678.787	1741.58
678.981	1609.05
679.176	1633.27
679.37	1643.15
679.565	1651.1
679.759	1651.87
679.954	1689.27
680.148	1686.75
680.342	1710.97
680.537	1631.53
680.731	1621.65
680.926	1671.63
681.12	1671.83
681.314	1613.51
681.509	1628.24
681.703	1633.47
681.897	1661.37
682.092	1594.72
682.286	1574.18
682.48	1674.35
682.674	1681.13
682.869	1611.57
683.063	1630.17
683.257	1722.98
683.451	1591.81
683.645	1629.01
683.839	1572.24
684.034	1616.22
684.228	1622.42
684.422	1598.79
684.616	1579.99
684.81	1642.19
685.004	1565.07
685.198	1573.02
685.392	1603.82
685.586	1548.8
685.78	1552.29
685.974	1592.97
686.168	1572.24
686.362	1626.49
686.556	1524
686.75	1426.54
686.944	1427.13
687.138	1423.83
687.331	1322.89
687.525	1276
687.719	1241.13
687.913	1269.03
688.107	1287.24
688.301	1293.44
688.494	1327.54
688.688	1275.81
688.882	1277.36
689.076	1253.92
689.269	1329.09
689.463	1413.56
689.657	1304.29
689.85	1293.05
690.044	1302.16
690.238	1337.23
690.431	1343.62
690.625	1355.63
690.818	1382.18
691.012	1417.05
691.205	1397.87
691.399	1345.95
691.593	1388.18
691.786	1429.06
691.98	1467.23
692.173	1475.56
692.366	1425.19
692.56	1458.51
692.753	1481.76
692.947	1420.34
693.14	1489.32
693.333	1502.3
693.527	1445.14
693.72	1487.38
693.914	1401.16
694.107	1418.6
694.3	1451.34
694.493	1396.51
694.687	1512.18
694.88	1406.2
695.073	1474.79
695.266	1509.86
695.46	1472.85
695.653	1511.79
695.846	1504.82
696.039	1442.82
696.232	1422.86
696.425	1535.04
696.618	1515.86
696.812	1539.69
697.005	1601.89
697.198	1627.65
697.391	1586.97
697.584	1611.19
697.777	1666.99
697.97	1638.31
698.163	1652.26
698.356	1622.62
698.549	1708.45
698.742	1679
698.935	1600.14
699.127	1690.04
699.32	1612.74
699.513	1636.37
699.706	1647.22
699.899	1705.15
700.092	1638.7
700.285	1669.89
700.477	1574.57
700.67	1690.62
700.863	1706.32
701.056	1775.29
701.248	1743.52
701.441	1743.52
701.634	1713.48
701.826	1808.42
702.019	1668.34
702.212	1756.69
702.404	1714.26
702.597	1722.2
702.79	1751.46
702.982	1779.75
703.175	1831.67
703.367	1828.76
703.56	1830.51
703.752	1949.27
703.945	1877.98
704.137	1883.01
704.33	1926.61
704.522	1945.01
704.715	1968.07
704.907	1969.23
705.1	2009.53
705.292	2053.7
705.484	2024.84
705.677	2049.83
705.869	2067.07
706.061	2057.39
706.254	2137.4
706.446	2087.61
706.638	2124.62
706.831	2152.52
707.023	2130.62
707.215	2246.68
707.407	2242.61
707.599	2242.61
707.792	2298.21
707.984	2260.82
708.176	2338.9
708.368	2255.01
708.56	2279.42
708.752	2312.16
708.944	2317.78
709.136	2339.29
709.329	2297.63
709.521	2505.91
709.713	2418.14
709.905	2419.5
710.097	2503.39
710.289	2404
710.481	2484.6
710.672	2452.05
710.864	2531.68
711.056	2538.07
711.248	2543.5
711.44	2539.24
711.632	2535.55
711.824	2614.02
712.016	2650.45
712.207	2625.26
712.399	2595.23
712.591	2720.78
712.783	2712.06
712.975	2726.78
713.166	2689.2
713.358	2728.53
713.55	2786.65
713.741	2823.85
713.933	2793.63
714.125	2786.65
714.316	2811.06
714.508	2897.09
714.7	2858.92
714.891	2887.01
715.083	2913.75
715.274	2856.21
715.466	2898.05
715.657	2947.07
715.849	2842.06
716.04	2929.83
716.232	2875.58
716.423	2945.52
716.615	2900.57
716.806	2826.17
716.998	2757.78
717.189	2704.5
717.381	2662.26
717.572	2580.89
717.763	2634.75
717.955	2589.42
718.146	2622.55
718.337	2495.84
718.528	2480.34
718.72	2424.54
718.911	2484.4
719.102	2404
719.293	2497
719.485	2485.76
719.676	2492.54
719.867	2430.35
720.058	2466.19
720.249	2444.3
720.44	2448.76
720.632	2526.84
720.823	2552.99
721.014	2710.31
721.205	2742.09
721.396	2845.36
721.587	2948.43
721.778	2979.23
721.969	3038.33
722.16	3135.2
722.351	3181.89
722.542	3246.61
722.733	3287.68
722.924	3212.31
723.115	3305.12
723.305	3263.07
723.496	3279.74
723.687	3088.9
723.878	3133.85
724.069	3155.74
724.26	3159.81
724.45	3086.57
724.641	3081.15
724.832	3141.21
725.023	3104.78
725.213	3093.74
725.404	3104.4
725.595	3107.88
725.785	3087.35
725.976	3203.4
726.167	3212.31
726.357	3209.21
726.548	3333.6
726.739	3174.53
726.929	3341.54
727.12	3338.05
727.31	3363.44
727.501	3298.53
727.691	3307.25
727.882	3375.45
728.072	3383.78
728.263	3398.31
728.453	3452.17
728.644	3466.51
728.834	3423.3
729.024	3418.46
729.215	3378.55
729.405	3484.92
729.596	3559.51
729.786	3551.76
729.976	3579.08
730.167	3582.95
730.357	3551.95
730.547	3620.15
730.737	3638.17
730.928	3634.1
731.118	3692.22
731.308	3666.65
731.498	3679.82
731.688	3807.5
731.879	3797.24
732.069	3791.62
732.259	3868.34
732.449	3957.46
732.639	4028.76
732.829	3997.96
733.019	4061.89
733.209	4162.06
733.399	4199.26
733.589	4255.45
733.779	4262.04
733.969	4293.03
734.159	4381.77
734.349	4431.56
734.539	4441.25
734.729	4448.81
734.919	4464.11
735.109	4558.47
735.299	4480.97
735.488	4455.98
735.678	4511.58
735.868	4531.54
736.058	4506.16
736.248	4485.81
736.437	4457.33
736.627	4444.35
736.817	4610.01
737.007	4546.26
737.196	4572.61
737.386	4594.51
737.576	4557.11
737.765	4717.15
737.955	4586.37
738.144	4765.78
738.334	4661.15
738.524	4633.06
738.713	4688.86
738.903	4608.84
739.092	4720.83
739.282	4681.89
739.471	4709.98
739.661	4690.99
739.85	4773.14
740.04	4763.65
740.229	4786.12
740.419	4806.66
740.608	4779.15
740.797	4772.56
740.987	4867.5
741.176	4826.42
741.365	4825.84
741.555	4781.28
741.744	4896.36
741.933	4806.08
742.123	4906.05
742.312	4936.47
742.501	4935.69
742.69	4930.27
742.88	4907.79
743.069	4971.93
743.258	4929.88
743.447	5011.84
743.636	4977.74
743.825	4983.16
744.014	4991.49
744.204	5017.46
744.393	4954.29
744.582	5087.2
744.771	5056.79
744.96	5044.39
745.149	5057.17
745.338	4986.26
745.527	5070.93
745.716	5055.82
745.905	5038.77
746.094	5115.3
746.283	5062.21
746.471	5056.98
746.66	5135.25
746.849	5175.94
747.038	5118.01
747.227	5086.43
747.416	5104.84
747.604	5050.39
747.793	5106.39
747.982	5045.74
748.171	5126.34
748.359	5120.92
748.548	5102.32
748.737	5133.9
748.926	5135.64
749.114	4997.31
749.303	5071.32
749.491	5052.14
749.68	4987.23
749.869	5081
750.057	5075.19
750.246	5064.34
750.434	4989.94
750.623	5031.21
750.811	4996.92
751	5024.82
751.188	5001.18
751.377	5009.9
751.565	4986.84
751.754	4968.63
751.942	4948.09
752.131	5021.33
752.319	5006.02
752.507	4895.78
752.696	5047.49
752.884	5041.48
753.072	4900.63
753.261	5004.86
753.449	5015.13
753.637	4957.39
753.825	5068.8
754.014	4995.95
754.202	4954.29
754.39	5055.62
754.578	5002.15
754.766	4955.07
754.955	4943.64
755.143	5016.1
755.331	4952.74
755.519	4988.78
755.707	4962.24
755.895	4909.15
756.083	4953.91
756.271	4890.94
756.459	4968.63
756.647	4956.43
756.835	4906.63
757.023	4902.76
757.211	4874.08
757.399	4859.16
757.587	4869.24
757.775	4814.8
757.963	4854.9
758.151	4860.91
758.339	4794.84
758.526	4798.33
758.714	4779.73
758.902	4716.18
759.09	4635.58
759.278	4422.46
759.465	4127.19
759.653	3721.67
759.841	3400.64
760.028	2974.59
760.216	2643.86
760.404	2488.09
760.591	2178.28
760.779	1879.53
760.967	1673.77
761.154	1525.16
761.342	1512.18
761.529	1571.47
761.717	1658.65
761.905	1686.75
762.092	1811.91
762.28	1778.39
762.467	1829.54
762.655	1744.87
762.842	1808.61
763.029	1845.23
763.217	1818.88
763.404	1849.88
763.592	1922.34
763.779	1865.58
763.966	1922.73
764.154	1990.35
764.341	2025.22
764.528	2033.17
764.716	2137.79
764.903	2222.85
765.09	2266.63
765.277	2369.32
765.465	2509.01
765.652	2605.11
765.839	2713.41
766.026	2864.92
766.213	2913.75
766.4	2996.09
766.588	3215.99
766.775	3231.69
766.962	3371.57
767.149	3482.98
767.336	3581.98
767.523	3557.38
767.71	3705.21
767.897	3844.51
768.084	3894.69
768.271	3939.83
768.458	3984.59
768.645	4075.26
768.832	4011.52
769.019	4049.69
769.206	4101.81
769.392	4173.11
769.579	4257.19
769.766	4210.69
769.953	4227.16
770.14	4299.43
770.327	4221.93
770.513	4319.19
770.7	4346.12
770.887	4282.38
771.073	4295.36
771.26	4336.82
771.447	4284.9
771.634	4263
771.82	4405.99
772.007	4228.9
772.193	4273.08
772.38	4338.57
772.567	4291.29
772.753	4293.42
772.94	4351.55
773.126	4380.22
773.313	4316.09
773.499	4317.83
773.686	4360.65
773.872	4217.86
774.059	4299.82
774.245	4269.01
774.432	4256.61
774.618	4149.08
774.804	4250.6
774.991	4211.66
775.177	4249.83
775.363	4212.44
775.55	4290.52
775.736	4169.62
775.922	4202.17
776.109	4190.54
776.295	4198.49
776.481	4215.92
776.667	4248.86
776.853	4152.96
777.04	4093.28
777.226	4199.46
777.412	4235.88
777.598	4127.96
777.784	4137.07
777.97	4068.48
778.156	4133.58
778.342	4164.58
778.528	4101.23
778.715	4048.53
778.901	4066.93
779.087	4095.41
779.272	4024.5
779.458	4023.15
779.644	4033.22
779.83	4056.28
780.016	4111.11
780.202	4021.4
780.388	4019.66
780.574	3926.27
780.76	4013.85
780.946	4046.78
781.131	3977.03
781.317	3968.51
781.503	3906.7
781.689	3925.11
781.874	4086.89
782.06	3991.95
782.246	3932.08
782.432	3969.86
782.617	3926.66
782.803	4006.48
782.989	3843.93
783.174	3839.67
783.36	3864.85
783.545	3875.7
783.731	3885.97
783.916	3777.28
784.102	3853.62
784.288	3796.07
784.473	3825.14
784.659	3790.84
784.844	3821.65
785.029	3792.78
785.215	3774.18
785.4	3709.08
785.586	3823.97
785.771	3719.54
785.956	3779.8
786.142	3730.01
786.327	3715.67
786.512	3712.18
786.698	3726.71
786.883	3632.74
787.068	3686.99
787.254	3742.6
787.439	3660.06
787.624	3635.46
787.809	3604.65
787.994	3628.87
788.18	3670.33
788.365	3550.98
788.55	3589.54
788.735	3585.08
788.92	3601.36
789.105	3615.11
789.29	3635.46
789.475	3502.35
789.66	3555.83
789.845	3490.15
790.03	3490.73
790.215	3528.31
790.4	3559.9
790.585	3575.2
790.77	3551.18
790.955	3456.43
791.14	3476.58
791.325	3568.03
791.51	3368.67
791.695	3478.13
791.879	3494.02
792.064	3377.97
792.249	3523.86
792.434	3437.64
792.618	3469.8
792.803	3533.55
792.988	3488.98
793.173	3485.88
793.357	3476.58
793.542	3438.03
793.727	3415.36
793.911	3491.31
794.096	3447.13
794.281	3507.2
794.465	3574.23
794.65	3468.45
794.834	3490.15
795.019	3522.31
795.203	3543.04
795.388	3515.53
795.572	3530.25
795.757	3564.16
795.941	3496.73
796.126	3464.18
796.31	3459.53
796.494	3508.16
796.679	3446.75
796.863	3441.71
797.048	3601.16
797.232	3521.34
797.416	3511.85
797.601	3503.9
797.785	3626.54
797.969	3577.72
798.153	3486.85
798.338	3559.12
798.522	3600.58
798.706	3597.87
798.89	3597.87
799.074	3710.24
799.258	3600.78
799.443	3581.4
799.627	3582.95
799.811	3615.11
799.995	3563.96
800.179	3543.43
800.363	3514.17
800.547	3556.6
800.731	3562.22
800.915	3461.47
801.099	3544.01
801.283	3536.45
801.467	3537.81
801.651	3516.11
801.835	3570.16
802.019	3586.63
802.202	3568.03
802.386	3486.27
802.57	3478.13
802.754	3487.63
802.938	3488.6
803.121	3479.68
803.305	3515.14
803.489	3494.99
803.673	3512.81
803.856	3542.07
804.04	3510.68
804.224	3541.3
804.407	3503.9
804.591	3476.2
804.775	3501.19
804.958	3511.07
805.142	3616.28
805.326	3492.28
805.509	3519.98
805.693	3532
805.876	3556.8
806.06	3548.66
806.243	3572.3
806.427	3567.45
806.61	3587.8
806.794	3502.74
806.977	3540.91
807.16	3556.41
807.344	3565.71
807.527	3540.71
807.71	3472.52
807.894	3519.01
808.077	3519.01
808.26	3462.83
808.444	3405.09
808.627	3490.15
808.81	3462.83
808.993	3350.07
809.177	3375.25
809.36	3410.32
809.543	3402.57
809.726	3328.37
809.909	3353.55
810.092	3323.14
810.276	3319.26
810.459	3313.26
810.642	3263.07
810.825	3227.23
811.008	3280.71
811.191	3193.33
811.374	3233.04
811.557	3206.31
811.74	3281.09
811.923	3181.51
812.106	3121.25
812.289	3111.56
812.472	3122.8
812.654	3157.87
812.837	3085.21
813.02	3041.04
813.203	3018.76
813.386	2887.4
813.569	2866.09
813.751	2805.44
813.934	2832.37
814.117	2809.71
814.3	2746.35
814.482	2688.03
814.665	2658.97
814.848	2605.69
815.03	2569.46
815.213	2539.24
815.396	2517.15
815.578	2487.31
815.761	2447.21
815.943	2561.32
816.126	2390.63
816.309	2388.31
816.491	2335.22
816.674	2246.87
816.856	2315.65
817.039	2302.86
817.221	2376.1
817.403	2371.26
817.586	2319.33
817.768	2320.49
817.951	2245.13
818.133	2221.68
818.315	2240.67
818.498	2299.18
818.68	2376.49
818.862	2374.55
819.045	2375.71
819.227	2338.13
819.409	2318.17
819.591	2355.18
819.774	2336.77
819.956	2292.79
820.138	2369.71
820.32	2355.18
820.502	2409.62
820.684	2465.61
820.866	2503
821.048	2587.09
821.231	2549.5
821.413	2547.57
821.595	2569.65
821.777	2549.12
821.959	2523.93
822.141	2605.11
822.323	2448.17
822.505	2422.41
822.686	2343.74
822.868	2248.81
823.05	2086.84
823.232	2050.6
823.414	1956.64
823.596	2079.28
823.778	2072.11
823.96	2103.5
824.141	2101.17
824.323	2156.58
824.505	2239.9
824.687	2265.08
824.868	2348.01
825.05	2390.82
825.232	2489.44
825.413	2541.95
825.595	2491.57
825.777	2417.95
825.958	2483.44
826.14	2458.44
826.321	2479.37
826.503	2448.95
826.685	2460.77
826.866	2525.48
827.048	2469.49
827.229	2400.71
827.411	2386.56
827.592	2323.59
827.773	2370.09
827.955	2283.88
828.136	2321.27
828.318	2245.9
828.499	2284.26
828.68	2230.01
828.862	2269.93
829.043	2258.5
829.224	2198.63
829.406	2220.91
829.587	2193.98
829.768	2250.36
829.949	2223.43
830.131	2218.97
830.312	2265.08
830.493	2216.84
830.674	2248.61
830.855	2218.39
831.036	2227.69
831.218	2278.45
831.399	2342.58
831.58	2236.02
831.761	2282.33
831.942	2241.25
832.123	2241.64
832.304	2182.16
832.485	2222.65
832.666	2170.92
832.847	2258.3
833.028	2228.27
833.209	2224.2
833.389	2197.27
833.57	2113.18
833.751	2157.36
833.932	2233.31
834.113	2185.26
834.294	2180.8
834.475	2220.71
834.655	2243
834.836	2265.08
835.017	2219.94
835.198	2158.72
835.378	2240.28
835.559	2271.28
835.74	2207.93
835.92	2241.83
836.101	2191.07
836.281	2276.71
836.462	2255.2
836.643	2244.16
836.823	2322.43
837.004	2279.81
837.184	2343.74
837.365	2281.36
837.545	2295.89
837.726	2270.9
837.906	2357.11
838.087	2235.44
838.267	2273.22
838.448	2205.41
838.628	2226.53
838.808	2267.41
838.989	2281.55
839.169	2230.21
839.349	2289.69
839.53	2296.86
839.71	2302.86
839.89	2216.45
840.07	2272.25
840.251	2212.77
840.431	2283.29
840.611	2261.79
840.791	2226.91
840.971	2251.91
841.151	2204.44
841.332	2210.25
841.512	2287.94
841.692	2131.2
841.872	2239.51
842.052	2216.45
842.232	2224.2
842.412	2157.36
842.592	2222.26
842.772	2221.1
842.952	2241.83
843.132	2162.01
843.312	2135.66
843.492	2179.45
843.672	2209.67
843.851	2074.24
844.031	2166.66
844.211	2136.43
844.391	2151.55
844.571	2173.83
844.751	2171.7
844.93	2132.37
845.11	2132.75
845.29	2114.54
845.47	2180.8
845.649	2152.9
845.829	2145.73
846.009	2119
846.188	2177.32
846.368	2129.65
846.547	2111.44
846.727	2160.27
846.907	2105.24
847.086	2117.45
847.266	2160.46
847.445	2121.52
847.625	2121.52
847.804	2106.6
847.984	2137.79
848.163	2095.55
848.343	2062.42
848.522	2078.7
848.701	2085.87
848.881	2072.89
849.06	2095.17
849.239	2083.74
849.419	2088.19
849.598	1985.51
849.777	2030.26
849.957	1945.79
850.136	1879.72
850.315	1861.7
850.494	1897.74
850.674	1927.77
850.853	1971.56
851.032	1910.53
851.211	1996.16
851.39	1946.76
851.569	1907.43
851.748	1893.28
851.927	1967.68
852.107	1936.29
852.286	1882.82
852.465	1879.91
852.644	1950.63
852.823	1963.42
853.002	1914.01
853.181	1914.4
853.359	1945.79
853.538	1836.71
853.717	1968.46
853.896	1806.68
854.075	1737.9
854.254	1711.55
854.433	1621.65
854.611	1665.44
854.79	1576.51
854.969	1660.4
855.148	1705.15
855.327	1663.5
855.505	1746.42
855.684	1688.1
855.863	1742.93
856.041	1744.68
856.22	1794.47
856.399	1771.8
856.577	1863.83
856.756	1879.33
856.934	1960.71
857.113	1951.99
857.291	1872.55
857.47	1777.61
857.648	1833.03
857.827	1844.46
858.005	1917.69
858.184	1825.08
858.362	1931.84
858.541	1842.13
858.719	1843.88
858.898	1820.43
859.076	1810.55
859.254	1901.23
859.433	1818.11
859.611	1821.6
859.789	1748.75
859.967	1841.16
860.146	1852.4
860.324	1754.75
860.502	1734.6
860.68	1706.12
860.859	1741.97
861.037	1765.21
861.215	1743.9
861.393	1762.5
861.571	1720.07
861.749	1752.04
861.927	1749.72
862.105	1749.33
862.283	1743.13
862.461	1711.55
862.639	1732.67
862.817	1726.85
862.995	1754.75
863.173	1735.96
863.351	1735.57
863.529	1761.73
863.707	1780.33
863.885	1717.17
864.063	1653.23
864.241	1700.12
864.418	1782.07
864.596	1703.99
864.774	1611.57
864.952	1680.93
865.129	1685.39
865.307	1656.91
865.485	1609.05
865.663	1672.41
865.84	1597.62
866.018	1596.27
866.196	1441.85
866.373	1465.29
866.551	1468.2
866.728	1396.13
866.906	1406.39
867.084	1469.17
867.261	1495.91
867.439	1498.81
867.616	1573.02
867.794	1531.17
867.971	1574.37
868.149	1575.15
868.326	1633.08
868.503	1600.34
868.681	1552.87
868.858	1544.15
869.035	1515.09
869.213	1581.35
869.39	1544.73
869.567	1616.42
869.745	1555.39
869.922	1608.86
870.099	1595.3
870.276	1602.47
870.454	1587.74
870.631	1569.72
870.808	1547.25
870.985	1589.29
871.162	1626.1
871.339	1573.02
871.517	1473.24
871.694	1540.66
871.871	1513.92
872.048	1497.07
872.225	1525.55
872.402	1547.25
872.579	1494.36
872.756	1509.86
872.933	1460.06
873.11	1499.39
873.287	1524.58
873.463	1482.34
873.64	1461.23
873.817	1517.99
873.994	1478.47
874.171	1444.37
874.348	1470.33
874.524	1417.44
874.701	1456.38
874.878	1395.35
875.055	1439.72
875.231	1480.41
875.408	1469.94
875.585	1390.51
875.762	1454.83
875.938	1459.48
876.115	1425.58
876.291	1406.2
876.468	1428.29
876.645	1365.32
876.821	1381.79
876.998	1410.46
877.174	1396.51
877.351	1388.96
877.527	1370.75
877.704	1381.01
877.88	1383.73
878.057	1366.48
878.233	1415.89
878.409	1383.92
878.586	1389.93
878.762	1373.85
878.938	1354.86
879.115	1310.88
879.291	1376.95
879.467	1299.25
879.644	1344.98
879.82	1374.81
879.996	1349.05
880.172	1257.21
880.349	1356.02
880.525	1371.52
880.701	1277.94
880.877	1286.47
881.053	1346.72
881.229	1276.58
881.405	1354.86
881.581	1296.54
881.757	1275.81
881.933	1307
882.109	1360.48
882.285	1350.6
882.461	1274.65
882.637	1319.98
882.813	1295.38
882.989	1300.42
883.165	1353.11
883.341	1283.56
883.517	1341.88
883.693	1315.33
883.869	1343.62
884.044	1286.27
884.22	1319.6
884.396	1358.93
884.572	1324.25
884.747	1383.92
884.923	1308.94
885.099	1357.96
885.275	1346.72
885.45	1296.73
885.626	1281.04
885.801	1258.76
885.977	1289.57
886.153	1222.53
886.328	1342.07
886.504	1276.2
886.679	1323.86
886.855	1282.78
887.03	1299.83
887.206	1336.26
887.381	1312.04
887.557	1342.85
887.732	1283.37
887.908	1306.03
888.083	1325.6
888.258	1273.1
888.434	1280.27
888.609	1288.79
888.784	1326.76
888.96	1281.43
889.135	1259.34
889.31	1279.3
889.485	1325.8
889.661	1281.82
889.836	1345.56
890.011	1318.63
890.186	1303.13
890.361	1271.55
890.537	1314.56
890.712	1320.18
890.887	1302.35
891.062	1297.32
891.237	1346.72
891.412	1272.9
891.587	1309.91
891.762	1319.98
891.937	1344.4
892.112	1234.73
892.287	1240.93
892.462	1262.05
892.637	1234.73
892.812	1189.59
892.987	1195.4
893.161	1217.69
893.336	1232.41
893.511	1205.87
893.686	1238.42
893.861	1192.89
894.035	1218.65
894.21	1210.9
894.385	1151.04
894.56	1193.08
894.734	1114.61
894.909	1157.24
895.084	1133.21
895.258	1100.47
895.433	1133.99
895.608	1082.64
895.782	1053
895.957	1047.77
896.131	1065.21
896.306	976.28
896.48	974.92
896.655	984.41
896.829	910.98
897.004	921.45
897.178	953.8
897.353	904.01
897.527	1000.3
897.701	928.81
897.876	890.06
898.05	988.48
898.224	970.27
898.399	975.31
898.573	948.76
898.747	804.81
898.921	856.15
899.096	772.84
899.27	757.54
899.444	771.29
899.618	804.62
899.792	827.48
899.967	829.22
900.141	877.27
900.315	775.36
900.489	820.12
900.663	842.98
900.837	822.25
901.011	774.59
901.185	842.01
901.359	850.73
901.533	863.9
901.707	856.35
901.881	830.58
902.055	767.22
902.229	820.7
902.403	896.45
902.576	818.37
902.75	847.24
902.924	916.02
903.098	873.78
903.272	922.61
903.446	933.07
903.619	947.21
903.793	968.91
903.967	983.25
904.14	1021.23
904.314	1026.26
904.488	985.19
904.661	1017.54
904.835	995.65
905.009	1039.83
905.182	1056.49
905.356	1008.44
905.529	996.23
905.703	980.34
905.876	980.15
906.05	927.65
906.223	917.96
906.397	875.33
906.57	848.79
906.744	821.28
906.917	822.63
907.09	822.44
907.264	794.35
907.437	798.8
907.61	762.38
907.784	777.88
907.957	747.46
908.13	736.22
908.304	786.99
908.477	715.88
908.65	757.54
908.823	721.11
908.996	800.74
909.17	731.19
909.343	719.37
909.516	711.23
909.689	698.64
909.862	693.21
910.035	745.52
910.208	683.72
910.381	695.34
910.554	801.9
910.727	731.57
910.9	733.51
911.073	689.14
911.246	800.74
911.419	767.22
911.592	765.09
911.765	729.44
911.938	713.17
912.11	739.52
912.283	742.62
912.456	752.89
912.629	736.22
912.802	704.45
912.974	661.44
913.147	603.51
913.32	578.51
913.493	617.26
913.665	624.04
913.838	652.33
914.01	664.34
914.183	665.51
914.356	631.79
914.528	662.79
914.701	748.82
914.873	713.75
915.046	660.47
915.218	600.99
915.391	547.9
915.563	584.71
915.736	620.94
915.908	657.56
916.081	631.21
916.253	606.22
916.425	609.71
916.598	655.82
916.77	638.96
916.942	609.32
917.115	554.49
917.287	601.76
917.459	584.71
917.632	559.33
917.804	544.61
917.976	572.7
918.148	604.09
918.32	621.14
918.493	639.35
918.665	672.09
918.837	646.32
919.009	692.24
919.181	675.39
919.353	667.06
919.525	605.06
919.697	653.69
919.869	649.42
920.041	707.94
920.213	740.29
920.385	701.16
920.557	668.22
920.729	692.44
920.901	668.22
921.073	635.09
921.244	625.59
921.416	685.66
921.588	636.83
921.76	604.48
921.932	694.96
922.103	628.31
922.275	664.15
922.447	660.08
922.619	582.39
922.79	665.89
922.962	603.51
923.134	658.53
923.305	601.38
923.477	560.3
923.648	568.63
923.82	582.19
923.991	525.23
924.163	517.87
924.335	569.79
924.506	572.12
924.677	590.53
924.849	551.19
925.02	582.58
925.192	621.14
925.363	572.12
925.535	581.03
925.706	528.14
925.877	618.43
926.049	525.81
926.22	573.86
926.391	559.72
926.562	591.49
926.734	547.9
926.905	614.74
927.076	479.12
927.247	528.72
927.419	509.93
927.59	491.13
927.761	490.36
927.932	474.66
928.103	493.65
928.274	407.63
928.445	407.43
928.616	441.34
928.787	428.94
928.958	479.7
929.129	426.62
929.3	417.32
929.471	398.72
929.642	322.57
929.813	261.35
929.984	351.44
930.155	277.24
930.326	344.27
930.496	311.14
930.667	227.83
930.838	319.28
931.009	243.52
931.18	262.9
931.35	244.88
931.521	265.81
931.692	204.97
931.863	193.54
932.033	207.87
932.204	208.65
932.374	202.64
932.545	132.51
932.716	209.81
932.886	187.92
933.057	115.07
933.227	138.32
933.398	178.81
933.568	117.59
933.739	77.1
933.909	102.67
934.08	145.68
934.25	71.67
934.421	52.1
934.591	149.75
934.761	98.6
934.932	67.21
935.102	124.76
935.272	125.34
935.443	106.35
935.613	111.78
935.783	105.19
935.953	78.84
936.123	244.69
936.294	80.39
936.464	104.99
936.634	92.98
936.804	32.92
936.974	58.3
937.144	95.5
937.314	92.4
937.484	62.76
937.655	81.94
937.825	133.48
937.995	56.95
938.165	146.26
938.334	92.4
938.504	142.78
938.674	80.97
938.844	157.11
939.014	193.73
939.184	177.07
939.354	228.41
939.524	218.14
939.694	162.34
939.863	154.98
940.033	211.56
940.203	232.67
940.373	201.29
940.542	230.74
940.712	163.31
940.882	206.71
941.051	211.36
941.221	212.91
941.391	205.74
941.56	173.19
941.73	138.71
941.899	240.62
942.069	175.91
942.238	183.85
942.408	159.83
942.577	188.31
942.747	151.69
942.916	99.18
943.086	148.01
943.255	203.03
943.425	165.06
943.594	122.63
943.763	79.42
943.933	86.59
944.102	51.71
944.271	137.74
944.441	129.79
944.61	122.43
944.779	139.48
944.948	217.37
945.117	95.89
945.287	109.06
945.456	81.16
945.625	94.92
945.794	134.83
945.963	92.01
946.132	127.28
946.301	120.49
946.47	156.14
946.639	69.93
946.808	64.31
946.977	130.38
947.146	186.37
947.315	114.49
947.484	147.23
947.653	124.56
947.822	102.67
947.991	101.7
948.16	172.61
948.329	176.1
948.498	93.56
948.666	137.93
948.835	165.25
949.004	96.66
949.173	93.95
949.341	117.2
949.51	133.09
949.679	153.82
949.847	138.9
950.016	187.53
950.185	189.66
950.353	101.89
950.522	143.74
950.69	184.24
950.859	120.69
951.028	174.16
951.196	156.73
951.365	100.93
951.533	142.78
951.701	135.41
951.87	144.13
952.038	76.13
952.207	121.27
952.375	173.39
952.543	96.86
952.712	108.87
952.88	101.7
953.048	176.68
953.217	131.73
953.385	121.85
953.553	195.67
953.721	81.16
953.89	114.88
954.058	72.64
954.226	104.61
954.394	123.98
954.562	75.74
954.73	101.31
954.898	113.91
955.067	154.21
955.235	129.79
955.403	158.86
955.571	192.37
955.739	159.24
955.907	81.55
956.075	111
956.243	92.79
956.41	132.51
956.578	76.71
956.746	76.32
956.914	93.37
957.082	158.08
957.25	142.58
957.418	109.06
957.585	124.37
957.753	188.5
957.921	106.74
958.089	128.44
958.256	142.19
958.424	130.76
958.592	155.76
958.759	88.91
958.927	151.3
959.095	97.24
959.262	133.48
959.43	116.62
959.597	91.24
959.765	123.59
959.932	108.29
960.1	114.49
960.267	127.66
960.435	123.4
960.602	154.59
960.77	113.13
960.937	101.12
961.104	154.79
961.272	81.36
961.439	104.03
961.606	147.62
961.774	145.1
961.941	119.53
962.108	119.72
962.275	132.31
962.443	163.7
962.61	137.54
962.777	226.67
962.944	166.61
963.111	157.89
963.278	130.38
963.446	120.3
963.613	128.83
963.78	165.44
963.947	152.46
964.114	146.07
964.281	194.31
964.448	129.6
964.615	147.04
964.782	137.35
964.949	159.24
965.116	171.06
965.282	169.13
965.449	121.85
965.616	111.97
965.783	157.69
965.95	144.13
966.117	89.88
966.283	141.81
966.45	129.21
966.617	159.44
966.784	166.8
966.95	197.41
967.117	182.3
967.284	121.27
967.45	121.46
967.617	205.36
967.784	185.79
967.95	217.17
968.117	122.04
968.283	198.19
968.45	246.82
968.616	179.98
968.783	212.33
968.949	175.52
969.116	195.09
969.282	165.64
969.449	174.94
969.615	150.91
969.781	129.41
969.948	129.41
970.114	114.49
970.28	230.35
970.447	154.4
970.613	195.67
970.779	142.58
970.945	190.05
971.112	167.77
971.278	159.83
971.444	174.94
971.61	203.03
971.776	149.17
971.942	176.68
972.108	164.48
972.275	157.89
972.441	192.76
972.607	228.99
972.773	142.19
972.939	182.69
973.105	128.44
973.271	87.56
973.437	155.18
973.602	122.63
973.768	194.12
973.934	136.19
974.1	155.18
974.266	77.68
974.432	144.33
974.598	112.74
974.763	166.22
974.929	129.21
975.095	226.67
975.261	124.37
975.426	109.84
975.592	136.58
975.758	198.57
975.923	91.24
976.089	107.51
976.255	173.78
976.42	132.31
976.586	153.04
976.751	116.04
976.917	225.51
977.082	154.21
977.248	89.11
977.413	62.76
977.579	126.69
977.744	149.17
977.91	81.16
978.075	104.99
978.24	159.44
978.406	135.8
978.571	116.62
978.736	129.02
978.902	153.04
979.067	96.08
979.232	67.99
979.397	161.76
979.563	171.26
979.728	99.18
979.893	136.38
980.058	117.01
980.223	163.31
980.388	130.57
980.554	124.18
980.719	104.99
980.884	121.85
981.049	151.49
981.214	108.87
981.379	146.84
981.544	105.19
981.709	91.82
981.874	136.19
982.039	123.59
982.204	131.73
982.368	117.2
982.533	118.75
982.698	154.98
982.863	175.71
983.028	120.69
983.193	151.88
983.357	124.18
983.522	123.79
983.687	118.56
983.852	120.3
984.016	129.79
984.181	119.53
984.346	140.45
984.51	141.61
984.675	100.93
984.839	134.44
985.004	120.3
985.168	144.71
985.333	158.47
985.498	140.06
985.662	143.16
985.827	148.78
985.991	111.97
986.155	117.59
986.32	147.62
986.484	192.18
986.649	136.77
986.813	67.8
986.977	132.12
987.142	161.96
987.306	72.83
987.47	96.47
987.634	91.24
987.799	128.05
987.963	132.51
988.127	123.01
988.291	190.63
988.455	126.5
988.62	117.01
988.784	109.64
988.948	136.38
989.112	114.29
989.276	136.38
989.44	104.61
989.604	101.7
989.768	100.73
989.932	200.32
990.096	76.32
990.26	74.96
990.424	66.63
990.588	110.81
990.752	179.78
990.915	160.79
991.079	116.23
991.243	95.5
991.407	145.88
991.571	104.22
991.734	120.88
991.898	114.49
992.062	186.56
992.226	107.51
992.389	125.14
992.553	31.56
992.717	65.47
992.88	110.42
993.044	104.22
993.207	93.18
993.371	130.18
993.535	127.47
993.698	105.58
993.862	151.3
994.025	140.26
994.189	103.06
994.352	107.51
994.515	139.87
994.679	150.72
994.842	78.06
995.006	140.84
995.169	75.55
995.332	98.21
995.496	133.28
995.659	42.41
995.822	93.18
995.985	73.03
996.149	139.48
996.312	93.18
996.475	174.74
996.638	82.71
996.801	146.26
996.964	178.62
997.128	108.48
997.291	103.06
997.454	90.85
997.617	63.15
997.78	145.1
997.943	68.96
998.106	137.16
998.269	69.35
998.432	86.4
998.595	93.18
998.758	27.5
998.92	36.02
999.083	33.5
999.246	98.21
999.409	56.95
999.572	11.03
999.735	74.19
999.897	106.93
1000.06	78.06
1000.223	106.74
1000.386	96.08
1000.548	122.82
1000.711	85.81
1000.874	97.05
1001.036	44.74
1001.199	108.09
1001.361	67.21
1001.524	87.75
1001.687	117.01
1001.849	45.9
1002.012	82.13
1002.174	55.2
1002.337	111.19
1002.499	67.41
1002.661	118.17
1002.824	11.41
1002.986	80.58
1003.149	63.53
1003.311	44.55
1003.473	144.91
1003.636	54.23
1003.798	88.72
1003.96	93.37
1004.123	62.95
1004.285	87.56
1004.447	72.64
1004.609	89.3
1004.771	102.09
1004.933	21.68
1005.096	58.88
1005.258	13.93
1005.42	54.23
1005.582	86.98
1005.744	74.58
1005.906	32.73
1006.068	74.38
1006.23	23.04
1006.392	7.93
1006.554	37.18
1006.716	100.73
1006.878	61.01
1007.04	16.26
1007.202	41.45
1007.363	80.97
1007.525	66.63
1007.687	72.64
1007.849	94.53
1008.011	11.41
1008.172	31.37
1008.334	47.84
1008.496	103.25
1008.658	-0.98
1008.819	13.35
1008.981	12.77
1009.143	25.75
1009.304	51.71
1009.466	67.21
1009.627	91.24
1009.789	162.34
1009.95	49.97
1010.112	39.12
1010.273	53.65
1010.435	26.72
1010.596	42.22
1010.758	36.8
1010.919	52.1
1011.081	39.12
1011.242	57.14
1011.403	83.3
1011.565	46.68
1011.726	67.21
1011.887	30.4
1012.049	28.27
1012.21	87.36
1012.371	120.49
1012.532	-16.1
1012.693	44.93
1012.855	33.31
1013.016	49.78
1013.177	83.3
1013.338	37.38
1013.499	121.46
1013.66	61.79
1013.821	78.45
1013.982	66.63
1014.143	48.81
1014.304	43.96
1014.465	62.95
1014.626	72.83
1014.787	33.89
1014.948	130.76
1015.109	-9.51
1015.27	110.42
1015.431	-2.92
1015.592	13.35
1015.752	86.78
1015.913	43.96
1016.074	57.91
1016.235	61.4
1016.395	61.21
1016.556	28.66
1016.717	37.57
1016.877	88.53
1017.038	20.13
1017.199	65.66
1017.359	22.07
1017.52	56.75
1017.681	29.24
1017.841	34.08
1018.002	42.8
1018.162	43
1018.323	66.25
1018.483	53.46
1018.644	23.04
1018.804	39.31
1018.964	11.61
1019.125	19.36
1019.285	52.3
1019.446	-18.23
1019.606	6.96
1019.766	-22.3
1019.926	59.08
1020.087	62.18
1020.247	-6.8
1020.407	68.38
1020.567	74
1020.728	21.49
1020.888	-0.98
1021.048	30.01
1021.208	-3.5
1021.368	5.8
1021.528	63.53
1021.688	97.05
1021.848	67.8
1022.008	49.39
1022.168	12.19
1022.328	37.76
1022.488	52.68
1022.648	19.94
1022.808	14.9
1022.968	63.92
1023.128	3.86
1023.288	-14.93
1023.448	49
1023.608	45.13
1023.767	39.51
1023.927	-3.89
1024.087	-11.45
1024.247	-15.13
1024.406	0.76
1024.566	-7.57
1024.726	5.6
1024.885	35.05
1025.045	54.43
1025.205	27.3
1025.364	38.73
1025.524	26.91
1025.683	-9.7
1025.843	18
1026.003	35.05
1026.162	82.52
1026.321	57.33
1026.481	23.62
1026.64	-7.96
1026.8	31.37
1026.959	26.14
1027.119	44.74
1027.278	12.96
1027.437	15.29
1027.597	-0.02
1027.756	21.3
1027.915	51.91
1028.074	21.3
1028.234	2.5
1028.393	34.28
1028.552	32.53
1028.711	-44.19
1028.87	61.01
1029.03	0.76
1029.189	-0.98
1029.348	-43.61
1029.507	-11.64
1029.666	10.06
1029.825	-0.6
1029.984	-10.28
1030.143	40.09
1030.302	13.93
1030.461	-28.5
1030.62	14.32
1030.779	18
1030.938	-22.49
1031.097	-18.81
1031.255	77.29
1031.414	78.06
1031.573	51.52
1031.732	-24.23
1031.891	17.61
1032.049	66.63
1032.208	50.55
1032.367	1.92
1032.525	1.53
1032.684	30.79
1032.843	10.06
1033.001	-37.99
1033.16	171.45
1033.319	47.65
1033.477	52.1
1033.636	2.89
1033.794	-6.41
1033.953	54.62
1034.111	49
1034.27	-9.9
1034.428	51.71
1034.587	-6.41
1034.745	29.82
1034.903	26.53
1035.062	19.94
1035.22	-32.95
1035.378	41.06
1035.537	-0.79
1035.695	44.16
1035.853	-10.28
1036.011	54.23
1036.17	32.53
1036.328	-35.67
1036.486	30.6
1036.644	12
1036.802	-53.1
1036.96	-13
1037.119	5.02
1037.277	-17.26
1037.435	-28.5
1037.593	3.08
1037.751	-3.89
1037.909	33.11
1038.067	33.11
