Data from gum_old_FLMT105791__140__15-46-29-252.txt Node

Date: Mon Mar 20 15:46:29 GMT 2023
User: antho
Spectrometer: FLMT10579
Trigger mode: 0
Integration Time (sec): 1.000000E-1
Scans to average: 10
Electric dark correction enabled: true
Nonlinearity correction enabled: false
Boxcar width: 0
XAxis mode: Wavelengths
Number of Pixels in Spectrum: 3648
>>>>>Begin Spectral Data<<<<<
345.248	-185.8
345.464	-185.8
345.681	-185.8
345.898	-178.25
346.114	-206.15
346.331	-47.86
346.548	20.15
346.764	-30.03
346.981	-10.27
347.197	6.39
347.414	40.3
347.631	3.1
347.847	54.06
348.064	19.57
348.28	16.86
348.497	-67.81
348.713	-4.46
348.93	32.55
349.146	47.66
349.363	-10.27
349.579	24.02
349.796	6.78
350.012	16.47
350.229	13.37
350.445	9.69
350.661	-25.19
350.878	13.37
351.094	1.16
351.311	37.2
351.527	57.54
351.743	-5.04
351.96	49.41
352.176	47.86
352.392	38.56
352.609	60.45
352.825	-0.19
353.041	29.26
353.257	21.12
353.474	-2.32
353.69	28.87
353.906	35.65
354.122	-33.71
354.339	65.87
354.555	21.89
354.771	1.16
354.987	88.15
355.203	83.51
355.42	-1.74
355.636	9.69
355.852	4.65
356.068	8.91
356.284	-8.52
356.5	80.6
356.716	19.18
356.932	28.29
357.148	66.07
357.364	32.36
357.58	65.49
357.796	72.46
358.012	53.67
358.228	44.37
358.444	-19.76
358.66	76.92
358.876	24.8
359.092	5.62
359.308	27.32
359.524	43.79
359.74	9.11
359.956	-15.11
360.172	38.56
360.388	73.04
360.604	9.49
360.819	123.42
361.035	57.35
361.251	56.96
361.467	-8.72
361.683	81.37
361.898	52.12
362.114	75.95
362.33	47.27
362.546	52.89
362.762	61.61
362.977	31.58
363.193	-7.75
363.409	77.5
363.624	-7.94
363.84	3.68
364.056	-2.71
364.271	51.15
364.487	61.61
364.703	35.46
364.918	4.46
365.134	21.7
365.35	33.91
365.565	124
365.781	55.61
365.996	55.22
366.212	112.37
366.427	43.79
366.643	43.59
366.858	26.54
367.074	3.49
367.289	114.7
367.505	117.8
367.72	-14.53
367.936	13.76
368.151	98.04
368.367	39.91
368.582	59.87
368.798	47.27
369.013	104.43
369.228	66.84
369.444	63.36
369.659	99.39
369.874	62.39
370.09	60.45
370.305	-13.76
370.52	6.78
370.736	107.34
370.951	43.79
371.166	101.33
371.381	92.22
371.597	59.48
371.812	23.25
372.027	21.51
372.242	34.29
372.458	104.04
372.673	35.46
372.888	49.21
373.103	60.26
373.318	130.2
373.533	77.89
373.749	63.74
373.964	2.71
374.179	94.74
374.394	7.36
374.609	88.15
374.824	-1.74
375.039	107.34
375.254	30.03
375.469	115.47
375.684	64.52
375.899	84.47
376.114	53.47
376.329	57.54
376.544	96.29
376.759	86.61
376.974	41.07
377.189	47.47
377.404	72.85
377.619	77.69
377.834	8.52
378.049	19.96
378.264	29.84
378.478	65.1
378.693	55.41
378.908	75.37
379.123	49.41
379.338	100.17
379.553	79.82
379.767	78.27
379.982	93.77
380.197	113.73
380.412	66.46
380.626	64.91
380.841	155.39
381.056	70.14
381.271	131.94
381.485	54.44
381.7	37.01
381.915	102.3
382.129	57.54
382.344	65.68
382.559	64.52
382.773	96.68
382.988	16.86
383.202	67.42
383.417	18.79
383.632	143.57
383.846	66.84
384.061	61.81
384.275	40.11
384.49	70.33
384.704	61.81
384.919	88.54
385.133	52.51
385.348	91.64
385.562	29.64
385.777	127.68
385.991	89.12
386.206	39.33
386.42	47.86
386.634	129.62
386.849	67.04
387.063	75.56
387.277	34.68
387.492	40.3
387.706	46.5
387.92	31.19
388.135	116.64
388.349	75.17
388.563	63.36
388.778	108.11
388.992	90.29
389.206	101.52
389.42	143.37
389.635	98.81
389.849	119.35
390.063	132.91
390.277	98.81
390.491	166.62
390.706	102.1
390.92	110.44
391.134	101.14
391.348	108.3
391.562	49.02
391.776	110.24
391.99	65.87
392.205	109.27
392.419	66.26
392.633	105.79
392.847	150.74
393.061	87.96
393.275	157.71
393.489	88.35
393.703	94.55
393.917	90.87
394.131	65.1
394.345	101.14
394.559	116.64
394.773	51.15
394.986	118.57
395.2	76.72
395.414	123.8
395.628	89.51
395.842	109.66
396.056	96.49
396.27	50.57
396.484	107.14
396.697	109.08
396.911	124.58
397.125	122.25
397.339	111.21
397.553	91.45
397.766	144.54
397.98	125.55
398.194	156.16
398.408	103.85
398.621	152.87
398.835	157.32
399.049	136.79
399.262	183.87
399.476	209.63
399.69	168.95
399.903	249.55
400.117	134.65
400.331	175.53
400.544	148.8
400.758	288.88
400.971	158.68
401.185	198.98
401.398	105.98
401.612	217.38
401.826	173.99
402.039	197.04
402.253	174.57
402.466	198.2
402.68	175.92
402.893	184.45
403.106	187.55
403.32	156.74
403.533	203.05
403.747	193.75
403.96	174.37
404.174	213.12
404.387	137.95
404.6	215.64
404.814	260.2
405.027	171.66
405.24	175.53
405.454	159.65
405.667	232.69
405.88	117.99
406.094	187.55
406.307	216.03
406.52	217.19
406.733	166.24
406.947	134.27
407.16	250.52
407.373	241.6
407.586	173.79
407.799	179.6
408.012	232.69
408.226	219.32
408.439	264.27
408.652	157.52
408.865	228.62
409.078	244.12
409.291	232.69
409.504	169.53
409.717	239.86
409.93	222.62
410.143	199.37
410.357	158.68
410.57	173.4
410.783	194.91
410.996	192.97
411.209	200.72
411.421	263.88
411.634	219.32
411.847	194.52
412.06	231.53
412.273	251.1
412.486	251.48
412.699	296.43
412.912	213.7
413.125	269.5
413.338	251.48
413.55	261.17
413.763	243.35
413.976	260.01
414.189	229.2
414.402	237.53
414.615	315.42
414.827	206.92
415.04	296.24
415.253	260.78
415.466	286.16
415.678	321.81
415.891	269.5
416.104	238.7
416.316	248.77
416.529	236.37
416.742	269.11
416.954	294.11
417.167	260.4
417.38	237.34
417.592	304.38
417.805	226.1
418.017	204.6
418.23	303.6
418.442	219.13
418.655	258.07
418.868	242.77
419.08	299.92
419.293	325.11
419.505	262.91
419.718	267.95
419.93	290.23
420.142	248.58
420.355	304.96
420.567	291.59
420.78	287.71
420.992	243.54
421.205	310.96
421.417	216.03
421.629	244.51
421.842	226.3
422.054	226.68
422.266	312.51
422.479	296.63
422.691	268.73
422.903	257.68
423.115	239.47
423.328	282.87
423.54	261.56
423.752	269.89
423.964	266.98
424.177	276.67
424.389	253.62
424.601	357.66
424.813	296.82
425.025	314.84
425.238	289.65
425.45	267.76
425.662	273.76
425.874	601
426.086	279
426.298	312.51
426.51	301.28
426.722	269.89
426.934	260.2
427.146	313.68
427.358	280.74
427.57	310.96
427.782	276.09
427.994	286.94
428.206	264.27
428.418	241.99
428.63	301.47
428.842	317.36
429.054	296.82
429.266	346.03
429.478	245.67
429.69	273.96
429.902	235.4
430.114	287.52
430.325	283.26
430.537	243.93
430.749	229.78
430.961	142.6
431.173	231.53
431.384	263.3
431.596	161.2
431.808	222.42
432.02	287.52
432.231	317.75
432.443	383.62
432.655	310.38
432.867	284.23
433.078	345.26
433.29	383.81
433.502	347.58
433.713	377.23
433.925	349.13
434.136	361.14
434.348	308.83
434.56	234.63
434.771	431.28
434.983	277.06
435.194	302.25
435.406	311.16
435.617	401.06
435.829	410.36
436.04	375.68
436.252	389.82
436.463	403.58
436.675	413.26
436.886	381.29
437.098	362.69
437.309	408.81
437.521	388.46
437.732	378.97
437.943	357.46
438.155	341.19
438.366	288.1
438.578	453.95
438.789	339.45
439	368.7
439.211	345.45
439.423	346.42
439.634	381.29
439.845	395.05
440.057	392.53
440.268	410.36
440.479	333.63
440.69	381.88
440.902	378.97
441.113	373.35
441.324	377.42
441.535	393.69
441.746	469.45
441.957	372.58
442.168	392.34
442.38	414.23
442.591	438.84
442.802	371.61
443.013	380.33
443.224	427.41
443.435	406.29
443.646	409.58
443.857	382.07
444.068	387.88
444.279	361.73
444.49	463.83
444.701	402.99
444.912	532.8
445.123	456.66
445.334	417.91
445.545	433.61
445.756	438.84
445.967	403.96
446.178	436.71
446.388	443.68
446.599	420.63
446.81	461.31
447.021	399.7
447.232	462.67
447.443	512.46
447.653	405.51
447.864	491.92
448.075	470.22
448.286	468.29
448.496	447.17
448.707	507.81
448.918	439.22
449.129	558.38
449.339	424.69
449.55	488.44
449.761	427.99
449.971	482.62
450.182	448.72
450.393	487.47
450.603	437.09
450.814	506.46
451.024	517.89
451.235	533.58
451.446	511.69
451.656	522.92
451.867	451.24
452.077	504.13
452.288	534.74
452.498	534.94
452.709	490.18
452.919	494.06
453.13	444.26
453.34	485.53
453.55	434.38
453.761	487.86
453.971	507.42
454.182	521.57
454.392	493.47
454.602	557.41
454.813	484.95
455.023	546.17
455.233	479.52
455.444	501.81
455.654	392.34
455.864	491.73
456.075	493.09
456.285	434.38
456.495	471
456.705	529.9
456.916	534.16
457.126	554.12
457.336	504.91
457.546	447.94
457.756	480.49
457.967	532.03
458.177	490.96
458.387	507.81
458.597	440
458.807	480.88
459.017	486.89
459.227	483.59
459.437	481.46
459.647	521.57
459.857	506.84
460.068	457.05
460.278	544.82
460.488	521.76
460.698	567.49
460.908	503.94
461.117	484.56
461.327	510.72
461.537	535.32
461.747	544.62
461.957	510.14
462.167	659.32
462.377	552.18
462.587	521.96
462.797	566.13
463.007	541.52
463.216	569.81
463.426	586.67
463.636	569.62
463.846	481.46
464.056	512.85
464.265	580.66
464.475	506.07
464.685	551.79
464.895	573.49
465.104	558.19
465.314	564.19
465.524	538.42
465.733	510.72
465.943	636.46
466.153	628.52
466.362	593.64
466.572	560.12
466.782	550.24
466.991	558.19
467.201	629.48
467.41	493.47
467.62	589.96
467.829	524.09
468.039	581.63
468.249	571.36
468.458	556.05
468.668	598.1
468.877	584.15
469.086	660.1
469.296	626
469.505	582.6
469.715	638.4
469.924	614.57
470.134	655.83
470.343	648.86
470.552	596.94
470.762	598.1
470.971	568.07
471.18	585.5
471.39	587.44
471.599	576.79
471.808	638.2
472.018	572.14
472.227	641.3
472.436	652.15
472.645	652.35
472.855	620.77
473.064	700.4
473.273	629.87
473.482	659.52
473.691	692.65
473.901	685.09
474.11	641.3
474.319	739.34
474.528	683.73
474.737	738.56
474.946	676.57
475.155	701.17
475.364	760.26
475.573	730.23
475.783	729.85
475.992	736.05
476.201	755.81
476.41	702.14
476.619	669.01
476.828	702.33
477.037	683.93
477.245	701.75
477.454	756.78
477.663	712.8
477.872	704.46
478.081	795.14
478.29	720.35
478.499	806.96
478.708	780.03
478.917	834.08
479.125	791.84
479.334	753.68
479.543	778.86
479.752	787
479.961	766.08
480.169	830.59
480.378	756.78
480.587	919.33
480.796	842.8
481.004	784.87
481.213	859.08
481.422	832.34
481.63	818
481.839	851.52
482.048	896.86
482.256	848.03
482.465	852.1
482.674	882.32
482.882	890.66
483.091	975.52
483.299	888.14
483.508	913.91
483.716	891.62
483.925	898.99
484.134	860.82
484.342	867.41
484.551	922.24
484.759	907.32
484.967	926.89
485.176	927.08
485.384	943.74
485.593	945.68
485.801	922.04
486.01	897.44
486.218	849.58
486.426	796.88
486.635	780.22
486.843	791.46
487.051	796.88
487.26	794.56
487.468	862.18
487.676	898.79
487.885	854.04
488.093	880
488.301	939.87
488.509	923.79
488.717	969.12
488.926	933.67
489.134	923.79
489.342	964.09
489.55	934.06
489.758	905.77
489.967	916.81
490.175	1064.25
490.383	984.62
490.591	1061.15
490.799	956.72
491.007	1026.86
491.215	1028.22
491.423	1004
491.631	1012.52
491.839	993.92
492.047	1031.32
492.255	930.76
492.463	913.13
492.671	940.84
492.879	1029.57
493.087	982.3
493.295	1020.27
493.503	1031.12
493.711	1051.27
493.919	1086.15
494.127	1041.2
494.334	1088.28
494.542	995.47
494.75	1045.46
494.958	1060.38
495.166	1104.17
495.374	1089.44
495.581	1083.05
495.789	1084.21
495.997	1147.76
496.205	1054.76
496.412	1051.47
496.62	1056.89
496.828	1084.6
497.035	1073.17
497.243	1135.94
497.451	1115.6
497.658	1099.9
497.866	1113.27
498.074	1174.88
498.281	1094.28
498.489	1200.07
498.696	1095.45
498.904	1082.85
499.112	1041.2
499.319	1154.73
499.527	1033.84
499.734	1130.13
499.942	1035.19
500.149	1079.75
500.357	1130.52
500.564	1068.9
500.771	1113.27
500.979	1042.17
501.186	1045.65
501.394	1100.87
501.601	1082.27
501.808	1109.4
502.016	1099.71
502.223	1081.5
502.43	1061.93
502.638	1056.7
502.845	1049.14
503.052	1163.65
503.26	1102.42
503.467	1185.54
503.674	1116.37
503.881	1128.38
504.089	1223.9
504.296	1180.89
504.503	1079.75
504.71	1113.47
504.917	1049.33
505.125	1124.51
505.332	1153.38
505.539	1147.76
505.746	1201.62
505.953	1202.4
506.16	1163.45
506.367	1226.61
506.574	1207.82
506.781	1251.61
506.988	1167.71
507.195	1210.92
507.402	1148.73
507.609	1196
507.816	1180.7
508.023	1146.21
508.23	1125.28
508.437	1129.16
508.644	1157.06
508.851	1218.86
509.058	1230.88
509.265	1202.01
509.472	1211.11
509.679	1292.49
509.885	1208.21
510.092	1226.42
510.299	1192.71
510.506	1199.49
510.713	1208.4
510.92	1177.4
511.126	1208.21
511.333	1267.69
511.54	1270.98
511.746	1311.28
511.953	1284.74
512.16	1268.66
512.367	1245.02
512.573	1232.81
512.78	1237.08
512.987	1253.93
513.193	1264.01
513.4	1158.41
513.606	1214.99
513.813	1251.99
514.02	1238.43
514.226	1319.81
514.433	1276.02
514.639	1201.43
514.846	1257.61
515.052	1207.63
515.259	1252.19
515.465	1247.15
515.672	1244.83
515.878	1365.53
516.085	1294.43
516.291	1304.31
516.497	1264.01
516.704	1257.81
516.91	1224.48
517.117	1185.73
517.323	1118.12
517.529	1168.3
517.736	1180.11
517.942	1171.01
518.148	1170.81
518.354	1234.17
518.561	1228.55
518.767	1221.19
518.973	1258.97
519.179	1292.1
519.386	1225.45
519.592	1233.59
519.798	1239.21
520.004	1378.32
520.21	1314.38
520.417	1349.06
520.623	1393.04
520.829	1416.87
521.035	1390.72
521.241	1416.1
521.447	1411.64
521.653	1549.59
521.859	1419.97
522.065	1430.63
522.271	1513.75
522.477	1493.6
522.683	1521.11
522.889	1465.7
523.095	1504.45
523.301	1444.19
523.507	1437.22
523.713	1455.43
523.919	1443.42
524.125	1526.15
524.331	1499.41
524.537	1549.01
524.742	1602.1
524.948	1602.87
525.154	1568.58
525.36	1660.22
525.566	1581.56
525.772	1639.3
525.977	1538.16
526.183	1585.24
526.389	1652.66
526.595	1573.23
526.8	1559.86
527.006	1515.49
527.212	1436.25
527.417	1436.83
527.623	1443.42
527.829	1511.03
528.034	1527.31
528.24	1555.21
528.446	1547.27
528.651	1645.11
528.857	1624.57
529.062	1700.13
529.268	1673.2
529.473	1659.25
529.679	1693.93
529.884	1741.79
530.09	1725.13
530.295	1716.79
530.501	1703.81
530.706	1717.18
530.912	1681.53
531.117	1722.22
531.323	1720.67
531.528	1738.69
531.733	1767.17
531.939	1744.69
532.144	1765.81
532.35	1756.12
532.555	1792.36
532.76	1794.68
532.966	1792.74
533.171	1706.91
533.376	1706.14
533.581	1690.44
533.787	1710.98
533.992	1753.99
534.197	1789.06
534.402	1738.3
534.607	1769.3
534.813	1862.3
535.018	1743.73
535.223	1790.03
535.428	1818.12
535.633	1829.17
535.838	1868.11
536.043	1818.71
536.249	1921.97
536.454	1815.41
536.659	1875.09
536.864	1833.82
537.069	1820.06
537.274	1840.02
537.479	1836.14
537.684	1807.08
537.889	1778.79
538.094	1940.57
538.299	1834.21
538.504	1845.05
538.708	1879.93
538.913	1908.6
539.118	1827.62
539.323	1884.77
539.528	1828.59
539.733	1881.48
539.938	1896.4
540.142	1866.75
540.347	1803.21
540.552	1807.86
540.757	1824.52
540.962	1829.36
541.166	1755.54
541.371	1757.09
541.576	1833.62
541.781	1723.77
541.985	1844.86
542.19	1827.23
542.395	1909.96
542.599	1900.08
542.804	1881.29
543.008	1932.05
543.213	1888.84
543.418	1845.64
543.622	1899.11
543.827	1843.5
544.031	1911.7
544.236	1938.63
544.44	1892.14
544.645	1996.57
544.849	1910.74
545.054	1947.74
545.258	2014.2
545.463	1988.43
545.667	1928.17
545.872	1917.32
546.076	1956.07
546.281	1941.73
546.485	1927.2
546.689	1927.98
546.894	1964.79
547.098	1947.35
547.302	1895.43
547.507	1894.07
547.711	1930.5
547.915	2017.3
548.119	1908.8
548.324	1901.82
548.528	1991.14
548.732	1923.91
548.936	1974.87
549.141	1956.46
549.345	1915.77
549.549	1960.53
549.753	1948.52
549.957	2069.03
550.161	2017.1
550.366	1942.9
550.57	1909.38
550.774	1955.68
550.978	1947.35
551.182	1964.02
551.386	1938.83
551.59	1925.85
551.794	1937.47
551.998	1954.33
552.202	1929.53
552.406	1909.77
552.61	1982.42
552.814	1985.91
553.018	2009.74
553.222	1972.35
553.426	1924.49
553.63	2040.35
553.833	1947.93
554.037	1884.39
554.241	1980.68
554.445	1964.02
554.649	1921.97
554.853	1940.77
555.056	1989.01
555.26	2009.74
555.464	1951.23
555.668	1980.48
555.871	1996.18
556.075	2008.58
556.279	1934.57
556.483	1880.51
556.686	1925.27
556.89	1949.68
557.094	1955.88
557.297	1887.68
557.501	1955.68
557.704	1856.1
557.908	1933.4
558.112	1872.37
558.315	1966.92
558.519	1899.3
558.722	1892.14
558.926	1846.22
559.129	1816.57
559.333	1815.8
559.536	1822.58
559.74	1803.59
559.943	1818.9
560.147	1782.47
560.35	1826.65
560.553	1800.3
560.757	1740.04
560.96	1879.93
561.164	1801.46
561.367	1928.95
561.57	1840.4
561.774	1816.19
561.977	1800.49
562.18	1783.44
562.384	1932.82
562.587	1792.94
562.79	1796.42
562.993	1816.96
563.197	1803.79
563.4	1856.29
563.603	1850.09
563.806	1910.74
564.009	1794.1
564.212	1802.82
564.416	1739.08
564.619	1798.94
564.822	1731.13
565.025	1808.82
565.228	1763.29
565.431	1797.01
565.634	1671.65
565.837	1751.28
566.04	1737.91
566.243	1686.76
566.446	1629.22
566.649	1742.56
566.852	1633.29
567.055	1713.69
567.258	1700.13
567.461	1774.72
567.664	1763.87
567.867	1632.32
568.07	1719.12
568.273	1713.89
568.475	1732.68
568.678	1661.96
568.881	1660.8
569.084	1700.52
569.287	1557.34
569.489	1591.83
569.692	1682.11
569.895	1667
570.098	1589.89
570.3	1594.15
570.503	1511.81
570.706	1581.36
570.909	1553.08
571.111	1518.59
571.314	1510.84
571.516	1553.47
571.719	1582.33
571.922	1546.49
572.124	1534.28
572.327	1558.5
572.529	1495.15
572.732	1487.2
572.935	1550.37
573.137	1616.05
573.34	1496.89
573.542	1580.2
573.745	1557.34
573.947	1566.64
574.15	1532.35
574.352	1482.94
574.554	1582.53
574.757	1489.14
574.959	1520.72
575.162	1512.78
575.364	1459.69
575.566	1584.27
575.769	1441.09
575.971	1502.32
576.173	1371.54
576.376	1460.47
576.578	1537.77
576.78	1544.36
576.982	1398.27
577.185	1475
577.387	1408.15
577.589	1415.52
577.791	1472.87
577.993	1462.79
578.196	1464.54
578.398	1440.7
578.6	1457.56
578.802	1396.53
579.004	1374.06
579.206	1397.11
579.408	1406.41
579.61	1371.73
579.812	1450
580.014	1378.71
580.216	1400.4
580.418	1395.37
580.62	1343.44
580.822	1336.47
581.024	1364.17
581.226	1419.78
581.428	1401.37
581.63	1484.49
581.832	1367.27
582.034	1440.51
582.236	1413.77
582.438	1412.42
582.64	1423.07
582.841	1468.99
583.043	1494.37
583.245	1418.04
583.447	1456.2
583.649	1405.44
583.85	1406.8
584.052	1421.72
584.254	1357.2
584.456	1433.54
584.657	1331.43
584.859	1384.52
585.061	1379.87
585.262	1396.14
585.464	1312.25
585.666	1393.82
585.867	1328.91
586.069	1424.24
586.27	1352.94
586.472	1348.09
586.674	1311.09
586.875	1320.39
587.077	1290.36
587.278	1336.66
587.48	1311.86
587.681	1440.7
587.883	1347.32
588.084	1289.39
588.285	1305.47
588.487	1283.38
588.688	1340.92
588.89	1252.38
589.091	1243.86
589.292	1262.65
589.494	1237.08
589.695	1183.02
589.896	1114.24
590.098	1115.21
590.299	1191.35
590.5	1157.06
590.702	1139.43
590.903	1199.1
591.104	1258.58
591.305	1231.07
591.507	1305.47
591.708	1245.41
591.909	1239.21
592.11	1316.32
592.311	1278.15
592.512	1293.07
592.714	1157.06
592.915	1199.68
593.116	1192.32
593.317	1222.55
593.518	1233.01
593.719	1208.98
593.92	1275.05
594.121	1296.56
594.322	1246.57
594.523	1206.85
594.724	1191.74
594.925	1225.45
595.126	1240.18
595.327	1217.9
595.528	1212.86
595.729	1210.34
595.929	1208.01
596.13	1213.25
596.331	1217.51
596.532	1242.31
596.733	1283.96
596.934	1280.67
597.135	1264.01
597.335	1258.39
597.536	1187.28
597.737	1223.71
597.938	1177.98
598.138	1227.58
598.339	1220.41
598.54	1243.47
598.74	1196.58
598.941	1222.55
599.142	1223.51
599.342	1219.64
599.543	1170.23
599.744	1165
599.944	1211.11
600.145	1201.23
600.345	1229.33
600.546	1265.94
600.746	1273.5
600.947	1304.89
601.147	1174.69
601.348	1246.57
601.548	1151.63
601.749	1188.45
601.949	1155.12
602.15	1165.97
602.35	1162.68
602.551	1217.12
602.751	1125.87
602.951	1158.61
603.152	1093.9
603.352	1186.7
603.552	1181.28
603.753	1216.54
603.953	1234.17
604.153	1182.63
604.354	1213.25
604.554	1184.18
604.754	1148.53
604.954	1166.94
605.155	1213.44
605.355	1193.87
605.555	1221.96
605.755	1244.05
605.955	1186.31
606.155	1238.63
606.356	1191.55
606.556	1218.28
606.756	1190.19
606.956	1119.86
607.156	1204.53
607.356	1136.71
607.556	1188.83
607.756	1138.07
607.956	1217.7
608.156	1193.29
608.356	1136.33
608.556	1204.91
608.756	1159.19
608.956	1129.93
609.156	1142.72
609.356	1112.3
609.556	1103.39
609.755	1154.35
609.955	1111.33
610.155	1140.78
610.355	1139.04
610.555	1097.38
610.755	1124.32
610.954	1051.85
611.154	1107.85
611.354	1162.48
611.554	1080.53
611.753	1104.75
611.953	1038.49
612.153	1127.42
612.352	1105.91
612.552	1035.58
612.752	1027.05
612.951	1078.01
613.151	1103.58
613.351	1040.23
613.55	1113.08
613.75	1110.95
613.949	1083.24
614.149	1096.61
614.348	1087.5
614.548	1042.55
614.747	983.65
614.947	1057.08
615.146	951.88
615.346	1108.23
615.545	1075.3
615.745	1060.38
615.944	1083.05
616.144	1060.18
616.343	1079.56
616.542	1038.87
616.742	1037.71
616.941	1006.52
617.14	995.86
617.34	1036.16
617.539	1007.68
617.738	1020.66
617.938	1084.79
618.137	997.8
618.336	985.79
618.535	1047.2
618.734	1042.17
618.934	1048.17
619.133	1047.2
619.332	1048.37
619.531	986.95
619.73	1035.97
619.929	1078.01
620.128	1061.73
620.328	1088.08
620.527	1019.5
620.726	1007.68
620.925	1054.37
621.124	1002.45
621.323	1044.49
621.522	940.06
621.721	977.26
621.92	976.49
622.119	1022.99
622.318	979
622.517	1006.52
622.715	992.37
622.914	935.02
623.113	975.13
623.312	933.09
623.511	993.15
623.71	975.71
623.909	962.15
624.107	1033.45
624.306	902.67
624.505	957.5
624.704	937.16
624.902	935.02
625.101	1021.24
625.3	966.02
625.499	941.22
625.697	943.55
625.896	927.66
626.095	982.69
626.293	882.52
626.492	918.75
626.69	943.74
626.889	910.03
627.088	1010.97
627.286	922.82
627.485	959.82
627.683	929.21
627.882	958.27
628.08	870.89
628.279	914.49
628.477	1022.21
628.676	886.78
628.874	959.05
629.073	882.13
629.271	899.18
629.469	960.41
629.668	921.66
629.866	911.77
630.065	887.17
630.263	951.3
630.461	875.74
630.66	920.88
630.858	940.84
631.056	953.04
631.254	979.59
631.453	874.19
631.651	931.92
631.849	922.04
632.047	939.29
632.245	894.53
632.444	934.83
632.642	900.92
632.84	907.51
633.038	891.24
633.236	863.73
633.434	868.18
633.632	864.89
633.83	852.29
634.028	908.67
634.227	897.63
634.425	972.61
634.623	895.31
634.821	885.81
635.019	892.01
635.216	863.34
635.414	917.01
635.612	904.61
635.81	881.94
636.008	965.83
636.206	904.99
636.404	916.04
636.602	841.83
636.8	864.11
636.997	913.32
637.195	890.27
637.393	897.24
637.591	931.92
637.789	911.58
637.986	879.22
638.184	872.44
638.382	930.96
638.58	920.88
638.777	952.27
638.975	873.22
639.173	892.59
639.37	898.6
639.568	913.52
639.765	936.77
639.963	867.79
640.161	914.49
640.358	911.77
640.556	861.79
640.753	815.68
640.951	824.98
641.148	873.22
641.346	860.63
641.543	847.45
641.741	846.87
641.938	832.73
642.136	838.54
642.333	785.26
642.531	875.93
642.728	904.02
642.925	870.51
643.123	830.01
643.32	829.24
643.517	815.68
643.715	830.21
643.912	804.83
644.109	837.76
644.306	833.69
644.504	795.72
644.701	862.37
644.898	885.23
645.095	782.74
645.293	831.95
645.49	842.99
645.687	834.66
645.884	862.56
646.081	750.96
646.278	799.01
646.475	801.73
646.672	800.56
646.87	821.68
647.067	788.94
647.264	830.79
647.461	751.16
647.658	726.16
647.855	830.21
648.052	771.31
648.249	712.99
648.446	757.16
648.642	745.54
648.839	740.31
649.036	734.11
649.233	728.88
649.43	731.01
649.627	711.63
649.824	737.79
650.021	704.85
650.217	737.79
650.414	743.8
650.611	762.2
650.808	735.08
651.004	761.04
651.201	768.21
651.398	785.45
651.595	738.18
651.791	749.8
651.988	757.94
652.185	722.48
652.381	795.53
652.578	704.08
652.775	743.8
652.971	737.98
653.168	749.22
653.364	776.35
653.561	710.66
653.757	739.73
653.954	734.69
654.15	691.29
654.347	802.69
654.543	756.2
654.74	684.9
654.936	690.52
655.133	726.16
655.329	727.52
655.525	718.61
655.722	766.85
655.918	712.99
656.115	727.13
656.311	676.57
656.507	645.37
656.704	597.52
656.9	623.09
657.096	573.1
657.292	642.27
657.489	689.93
657.685	655.25
657.881	661.65
658.077	680.63
658.273	670.95
658.47	769.56
658.666	677.92
658.862	756.58
659.058	686.45
659.254	753.87
659.45	698.85
659.646	712.99
659.842	704.66
660.038	765.69
660.234	665.91
660.43	695.94
660.626	751.35
660.822	764.33
661.018	753.1
661.214	690.9
661.41	665.52
661.606	754.65
661.802	743.41
661.998	703.69
662.194	677.34
662.39	715.7
662.586	736.05
662.781	741.47
662.977	749.03
663.173	752.51
663.369	690.71
663.564	725.78
663.76	745.54
663.956	693.81
664.152	775.76
664.347	650.41
664.543	720.16
664.739	675.21
664.934	652.54
665.13	613.79
665.326	717.83
665.521	720.74
665.717	686.25
665.912	659.9
666.108	645.76
666.304	666.3
666.499	695.75
666.695	606.62
666.89	675.98
667.086	691.87
667.281	727.71
667.477	733.72
667.672	709.5
667.867	699.81
668.063	697.88
668.258	656.8
668.454	688.97
668.649	767.82
668.844	689.74
669.04	693.81
669.235	686.45
669.43	665.52
669.626	637.04
669.821	692.07
670.016	628.13
670.211	637.62
670.407	643.43
670.602	684.51
670.797	655.06
670.992	696.72
671.187	635.1
671.382	709.89
671.578	660.48
671.773	714.93
671.968	627.93
672.163	659.13
672.358	672.5
672.553	665.33
672.748	629.29
672.943	732.95
673.138	658.74
673.333	692.65
673.528	632.78
673.723	684.12
673.918	673.27
674.113	625.61
674.308	732.17
674.503	705.82
674.698	672.5
674.892	652.73
675.087	697.88
675.282	655.45
675.477	652.73
675.672	701.56
675.867	667.07
676.061	619.99
676.256	623.28
676.451	645.37
676.646	646.53
676.84	634.13
677.035	613.02
677.23	604.1
677.424	660.68
677.619	699.23
677.814	689.16
678.008	673.27
678.203	599.07
678.397	625.22
678.592	650.6
678.787	704.46
678.981	650.22
679.176	649.44
679.37	648.86
679.565	637.82
679.759	671.53
679.954	669.4
680.148	730.43
680.342	702.72
680.537	665.72
680.731	637.43
680.926	691.48
681.12	723.06
681.314	619.41
681.509	662.03
681.703	662.42
681.897	682.57
682.092	651.18
682.286	625.22
682.48	696.13
682.674	712.99
682.869	634.13
683.063	659.52
683.257	728.68
683.451	584.73
683.645	661.65
683.839	668.82
684.034	649.44
684.228	673.47
684.422	626.19
684.616	604.69
684.81	682.18
685.004	655.64
685.198	613.79
685.392	678.12
685.586	609.72
685.78	631.23
685.974	666.3
686.168	642.85
686.362	733.91
686.556	599.45
686.75	610.3
686.944	600.81
687.138	641.69
687.331	525.25
687.525	568.26
687.719	481.46
687.913	565.94
688.107	546.17
688.301	549.47
688.494	594.22
688.688	524.67
688.882	526.41
689.076	520.99
689.269	551.4
689.463	633.36
689.657	575.24
689.85	541.91
690.044	576.98
690.238	550.82
690.431	550.82
690.625	553.73
690.818	563.22
691.012	608.37
691.205	612.43
691.399	558.77
691.593	593.84
691.786	659.52
691.98	638.4
692.173	661.07
692.366	635.1
692.56	627.93
692.753	698.65
692.947	613.6
693.14	686.06
693.333	670.75
693.527	595.58
693.72	649.83
693.914	626.97
694.107	607.4
694.3	646.53
694.493	640.92
694.687	707.18
694.88	627.74
695.073	717.25
695.266	715.12
695.46	683.35
695.653	740.31
695.846	711.25
696.039	628.71
696.232	688
696.425	719.38
696.618	716.09
696.812	711.44
697.005	783.13
697.198	856.17
697.391	767.24
697.584	808.31
697.777	856.56
697.97	805.41
698.163	852.88
698.356	782.55
698.549	889.88
698.742	893.56
698.935	832.53
699.127	870.89
699.32	842.03
699.513	811.61
699.706	894.53
699.899	900.34
700.092	880.39
700.285	927.66
700.477	865.28
700.67	943.55
700.863	939.87
701.056	1015.82
701.248	983.65
701.441	988.69
701.634	982.3
701.826	1070.65
702.019	971.06
702.212	1028.6
702.404	974.55
702.597	972.61
702.79	1038.87
702.982	1052.82
703.175	1055.92
703.367	1092.35
703.56	1100.48
703.752	1209.76
703.945	1138.46
704.137	1177.01
704.33	1200.65
704.522	1178.95
704.715	1213.83
704.907	1236.88
705.1	1291.71
705.292	1283.96
705.484	1269.24
705.677	1307.79
705.869	1325.04
706.061	1340.54
706.254	1375.41
706.446	1338.6
706.638	1341.89
706.831	1448.84
707.023	1368.44
707.215	1475.58
707.407	1476.74
707.599	1456.2
707.792	1527.5
707.984	1513.55
708.176	1524.02
708.368	1498.25
708.56	1553.27
708.752	1526.15
708.944	1530.22
709.136	1610.62
709.329	1570.13
709.521	1723.58
709.713	1653.25
709.905	1659.83
710.097	1715.44
710.289	1679.4
710.481	1698.97
710.672	1713.5
710.864	1717.96
711.056	1790.81
711.248	1784.8
711.44	1798.36
711.632	1796.42
711.824	1850.09
712.016	1910.74
712.207	1856.1
712.399	1868.11
712.591	1928.37
712.783	1923.72
712.975	1965.95
713.166	1939.22
713.358	1958.01
713.55	2043.45
713.741	2032.8
713.933	2030.08
714.125	2020.98
714.316	2030.86
714.508	2107
714.7	2143.23
714.891	2127.34
715.083	2167.45
715.274	2132.38
715.466	2146.72
715.657	2172.88
715.849	2105.45
716.04	2179.85
716.232	2140.52
716.423	2206.39
716.615	2098.86
716.806	2108.94
716.998	2076.78
717.189	2030.28
717.381	1955.68
717.572	1952.39
717.763	1999.08
717.955	1960.14
718.146	1979.71
718.337	1889.42
718.528	1871.21
718.72	1797.01
718.911	1915.58
719.102	1814.25
719.293	1904.92
719.485	1908.8
719.676	1884.39
719.867	1853
720.058	1861.33
720.249	1902.4
720.44	1833.43
720.632	1969.05
720.823	1965.37
721.014	2091.89
721.205	2100.41
721.396	2193.99
721.587	2284.86
721.778	2326.52
721.969	2365.07
722.16	2391.03
722.351	2420.48
722.542	2569.48
722.733	2568.51
722.924	2475.12
723.115	2580.13
723.305	2540.8
723.496	2558.43
723.687	2417
723.878	2437.73
724.069	2481.51
724.26	2510.38
724.45	2417.38
724.641	2413.51
724.832	2460.98
725.023	2457.3
725.213	2441.22
725.404	2436.57
725.595	2448.58
725.785	2416.8
725.976	2559.98
726.167	2527.43
726.357	2505.54
726.548	2646.39
726.739	2525.88
726.929	2603.19
727.12	2685.34
727.31	2684.37
727.501	2631.28
727.691	2614.43
727.882	2665.96
728.072	2718.66
728.263	2670.03
728.453	2756.25
728.644	2788.6
728.834	2730.09
729.024	2734.74
729.215	2746.56
729.405	2747.53
729.596	2810.88
729.786	2840.92
729.976	2870.17
730.167	2848.67
730.357	2842.47
730.547	2856.22
730.737	2886.83
730.928	2914.73
731.118	2999.21
731.308	2925.78
731.498	2974.79
731.688	3076.9
731.879	3029.43
732.069	3081.94
732.259	3076.51
732.449	3147.04
732.639	3229.77
732.829	3229.19
733.019	3295.64
733.209	3358.61
733.399	3322.18
733.589	3452.96
733.779	3424.48
733.969	3414.02
734.159	3508.57
734.349	3529.49
734.539	3612.61
734.729	3556.42
734.919	3604.67
735.109	3675.97
735.299	3597.11
735.488	3599.24
735.678	3621.14
735.868	3647.29
736.058	3621.33
736.248	3603.89
736.437	3591.3
736.627	3582.97
736.817	3706.58
737.007	3677.71
737.196	3698.05
737.386	3686.43
737.576	3693.21
737.765	3731.96
737.955	3735.06
738.144	3848.98
738.334	3843.75
738.524	3707.93
738.713	3782.14
738.903	3804.23
739.092	3773.81
739.282	3794.93
739.471	3828.45
739.661	3819.53
739.85	3851.5
740.04	3844.91
740.229	3912.53
740.419	3913.89
740.608	3952.25
740.797	3890.83
740.987	3987.32
741.176	3967.17
741.365	3885.41
741.555	3909.43
741.744	3967.94
741.933	3954.19
742.123	3958.06
742.312	3993.52
742.501	4019.29
742.69	4049.32
742.88	3929.78
743.069	4084.97
743.258	4020.64
743.447	4069.85
743.636	4076.25
743.825	4081.87
744.014	4109.77
744.204	4049.9
744.393	4051.25
744.582	4122.94
744.771	4175.64
744.96	4087.68
745.149	4136.31
745.338	4044.09
745.527	4144.25
745.716	4111.32
745.905	4129.92
746.094	4210.71
746.283	4186.3
746.471	4126.82
746.66	4206.25
746.849	4169.63
747.038	4215.36
747.227	4132.43
747.416	4216.71
747.604	4102.6
747.793	4140.57
747.982	4173.7
748.171	4205.09
748.359	4176.42
748.548	4167.89
748.737	4178.74
748.926	4204.51
749.114	4047.38
749.303	4175.45
749.491	4173.12
749.68	4064.43
749.869	4190.56
750.057	4140.96
750.246	4080.9
750.434	4113.45
750.623	4137.67
750.811	4129.33
751	4145.42
751.188	4110.73
751.377	4165.76
751.565	4077.41
751.754	4080.32
751.942	4056.29
752.131	4162.08
752.319	4071.6
752.507	4051.06
752.696	4101.24
752.884	4154.72
753.072	4080.12
753.261	4081.09
753.449	4111.51
753.637	4046.6
753.825	4172.54
754.014	4086.9
754.202	4090.39
754.39	4134.76
754.578	4124.49
754.766	4092.91
754.955	4039.63
755.143	4119.65
755.331	4009.99
755.519	4091.17
755.707	4124.68
755.895	4011.54
756.083	4046.41
756.271	3988.67
756.459	4034.4
756.647	4075.86
756.835	3960.97
757.023	4032.46
757.211	3997.01
757.399	4007.86
757.587	3999.14
757.775	3929.39
757.963	3975.31
758.151	3993.71
758.339	3927.26
758.526	3960.39
758.714	3987.32
758.902	3874.36
759.09	3805
759.278	3665.5
759.465	3468.85
759.653	3098.79
759.841	2843.43
760.028	2460.59
760.216	2174.81
760.404	2097.89
760.591	1779.37
760.779	1553.85
760.967	1411.06
761.154	1233.39
761.342	1258.39
761.529	1290.36
761.717	1359.33
761.905	1383.55
762.092	1495.34
762.28	1417.84
762.467	1479.26
762.655	1433.54
762.842	1469.57
763.029	1514.52
763.217	1508.52
763.404	1519.17
763.592	1550.95
763.779	1482.75
763.966	1626.51
764.154	1613.91
764.341	1650.53
764.528	1680.18
764.716	1751.09
764.903	1818.71
765.09	1859
765.277	1949.1
765.465	2059.73
765.652	2111.26
765.839	2207.94
766.026	2358.29
766.213	2367.2
766.4	2461.75
766.588	2661.7
766.775	2652.21
766.962	2783.57
767.149	2807.78
767.336	2988.16
767.523	2965.88
767.71	3027.49
767.897	3200.51
768.084	3235.58
768.271	3246.23
768.458	3291.38
768.645	3370.62
768.832	3336.71
769.019	3364.23
769.206	3405.5
769.392	3459.16
769.579	3534.34
769.766	3511.86
769.953	3526.97
770.14	3574.06
770.327	3509.34
770.513	3551.77
770.7	3606.02
770.887	3543.06
771.073	3575.99
771.26	3587.42
771.447	3534.72
771.634	3540.73
771.82	3629.27
772.007	3463.81
772.193	3556.04
772.38	3600.79
772.567	3536.86
772.753	3543.44
772.94	3591.88
773.126	3582
773.313	3583.16
773.499	3545.19
773.686	3585.49
773.872	3501.59
774.059	3590.91
774.245	3507.02
774.432	3499.66
774.618	3483.96
774.804	3517.09
774.991	3441.73
775.177	3558.56
775.363	3479.31
775.55	3521.36
775.736	3429.33
775.922	3525.42
776.109	3492.1
776.295	3494.23
776.481	3513.61
776.667	3500.82
776.853	3454.32
777.04	3444.44
777.226	3441.53
777.412	3522.91
777.598	3405.88
777.784	3429.33
777.97	3393.1
778.156	3430.88
778.342	3374.88
778.528	3402.2
778.715	3313.85
778.901	3346.79
779.087	3362.48
779.272	3345.43
779.458	3307.85
779.644	3365.2
779.83	3340.01
780.016	3429.71
780.202	3372.95
780.388	3315.21
780.574	3261.35
780.76	3303.2
780.946	3321.21
781.131	3299.71
781.317	3294.09
781.503	3281.3
781.689	3269.87
781.874	3384.96
782.06	3243.72
782.246	3286.92
782.432	3244.68
782.617	3260.57
782.803	3350.28
782.989	3188.89
783.174	3230.74
783.36	3195.09
783.545	3205.55
783.731	3223.95
783.916	3086.78
784.102	3219.89
784.288	3164.28
784.473	3162.34
784.659	3161.37
784.844	3212.72
785.029	3105.19
785.215	3149.94
785.4	3110.22
785.586	3184.43
785.771	3073.22
785.956	3183.07
786.142	3105.77
786.327	3087.94
786.512	3057.33
786.698	3082.32
786.883	3050.55
787.068	3057.72
787.254	3068.18
787.439	3069.54
787.624	3007.34
787.809	3043.96
787.994	3006.76
788.18	3067.41
788.365	2979.06
788.55	3010.44
788.735	2986.42
788.92	2993.39
789.105	2977.31
789.29	3024.59
789.475	2943.21
789.66	2969.18
789.845	2935.66
790.03	2860.48
790.215	2947.67
790.4	2972.86
790.585	3012.58
790.77	2915.7
790.955	2839.75
791.14	2930.23
791.325	3013.35
791.51	2818.25
791.695	2903.11
791.879	2882.77
792.064	2829.48
792.249	2945.35
792.434	2860.29
792.618	2875.4
792.803	2924.81
792.988	2844.98
793.173	2892.84
793.357	2891.29
793.542	2830.07
793.727	2906.6
793.911	2898.65
794.096	2871.92
794.281	2903.69
794.465	2987.19
794.65	2858.74
794.834	2907.56
795.019	2952.13
795.203	2966.08
795.388	2919.77
795.572	2999.79
795.757	2963.17
795.941	2983.71
796.126	2932.17
796.31	2871.72
796.494	2920.55
796.679	2863.78
796.863	2865.13
797.048	3003.28
797.232	2931.4
797.416	2974.99
797.601	2913.76
797.785	3001.73
797.969	2992.62
798.153	2900.78
798.338	2966.46
798.522	3009.86
798.706	2971.31
798.89	3013.93
799.074	3072.64
799.258	3021.68
799.443	2971.5
799.627	2975.57
799.811	2962.59
799.995	2975.57
800.179	2916.09
800.363	2919.77
800.547	2966.27
800.731	2968.4
800.915	2892.65
801.099	2899.81
801.283	2945.15
801.467	2949.8
801.651	2894.2
801.835	3007.15
802.019	2949.8
802.202	2940.11
802.386	2880.25
802.57	2877.34
802.754	2895.75
802.938	2918.03
803.121	2908.15
803.305	2979.06
803.489	2910.66
803.673	2949.41
803.856	2952.13
804.04	2898.65
804.224	2990.49
804.407	2926.94
804.591	2908.92
804.775	2890.32
804.958	2938.76
805.142	3027.3
805.326	2915.9
805.509	2939.73
805.693	2985.84
805.876	2960.85
806.06	2926.75
806.243	2976.15
806.427	3000.95
806.61	2981.77
806.794	2907.95
806.977	2965.3
807.16	2949.8
807.344	2925.2
807.527	2972.86
807.71	2917.64
807.894	2923.06
808.077	2981.38
808.26	2905.82
808.444	2865.52
808.627	2982.35
808.81	2952.13
808.993	2825.03
809.177	2842.47
809.36	2806.23
809.543	2847.89
809.726	2763.22
809.909	2793.06
810.092	2770.78
810.276	2749.66
810.459	2772.33
810.642	2741.52
810.825	2692.7
811.008	2718.27
811.191	2673.91
811.374	2646.78
811.557	2696.77
811.74	2727.96
811.923	2662.28
812.106	2642.71
812.289	2606.48
812.472	2668.87
812.654	2645.23
812.837	2574.71
813.02	2532.08
813.203	2536.93
813.386	2430.17
813.569	2414.09
813.751	2324.77
813.934	2423.78
814.117	2362.55
814.3	2291.64
814.482	2273.24
814.665	2245.34
814.848	2178.11
815.03	2172.88
815.213	2137.61
815.396	2143.81
815.578	2107.78
815.761	2055.85
815.943	2147.11
816.126	2044.61
816.309	2002.38
816.491	1966.15
816.674	1887.29
816.856	1932.82
817.039	1940.57
817.221	2012.06
817.403	1963.05
817.586	1949.68
817.768	2021.36
817.951	1884.19
818.133	1871.6
818.315	1916.74
818.498	1903.18
818.68	1992.69
818.862	1960.72
819.045	2000.25
819.227	1968.86
819.409	1979.52
819.591	1967.7
819.774	1933.6
819.956	1913.64
820.138	2014.97
820.32	1992.5
820.502	2007.22
820.684	2068.45
820.866	2065.54
821.048	2171.91
821.231	2141.68
821.413	2157.96
821.595	2119.01
821.777	2137.03
821.959	2124.05
822.141	2212.79
822.323	2061.08
822.505	1996.37
822.686	1999.28
822.868	1898.92
823.05	1761.74
823.232	1766.01
823.414	1685.02
823.596	1753.02
823.778	1734.43
823.96	1767.36
824.141	1769.3
824.323	1756.9
824.505	1856.68
824.687	1905.31
824.868	1911.7
825.05	2051.78
825.232	2077.75
825.413	2164.35
825.595	2065.54
825.777	1998.31
825.958	2051.2
826.14	2109.13
826.321	2049.85
826.503	2071.74
826.685	2106.42
826.866	2117.08
827.048	2114.75
827.229	2051.01
827.411	1969.63
827.592	1953.94
827.773	1963.63
827.955	1928.75
828.136	1893.3
828.318	1873.92
828.499	1924.49
828.68	1821.61
828.862	1898.92
829.043	1917.13
829.224	1932.43
829.406	1845.64
829.587	1861.33
829.768	1892.52
829.949	1894.07
830.131	1878.77
830.312	1977
830.493	1864.62
830.674	1897.95
830.855	1885.74
831.036	1866.95
831.218	1934.76
831.399	1959.75
831.58	1893.3
831.761	1910.54
831.942	1869.08
832.123	1835.37
832.304	1833.04
832.485	1818.12
832.666	1860.36
832.847	1908.22
833.028	1841.37
833.209	1865.79
833.389	1828.78
833.57	1808.82
833.751	1822.77
833.932	1868.5
834.113	1840.6
834.294	1840.99
834.475	1877.02
834.655	1914.8
834.836	1904.34
835.017	1893.69
835.198	1815.02
835.378	1855.32
835.559	1903.37
835.74	1880.32
835.92	1883.22
836.101	1829.56
836.281	1940.96
836.462	1901.63
836.643	1945.8
836.823	1927.4
837.004	1902.21
837.184	1971.96
837.365	1927.01
837.545	1963.43
837.726	1912.29
837.906	2003.54
838.087	1920.42
838.267	1916.55
838.448	1842.92
838.628	1912.87
838.808	1848.15
838.989	1966.15
839.169	1847.38
839.349	1916.35
839.53	1927.78
839.71	1908.99
839.89	1893.3
840.07	1949.29
840.251	1880.7
840.431	1915.58
840.611	1900.27
840.791	1852.22
840.971	1882.64
841.151	1850.48
841.332	1813.09
841.512	1901.82
841.692	1812.7
841.872	1889.62
842.052	1878.96
842.232	1897.95
842.412	1769.88
842.592	1832.27
842.772	1869.47
842.952	1868.5
843.132	1814.64
843.312	1838.27
843.492	1828.2
843.672	1854.94
843.851	1776.86
844.031	1868.69
844.211	1820.06
844.391	1790.03
844.571	1819.48
844.751	1879.54
844.93	1828.59
845.11	1795.46
845.29	1820.84
845.47	1833.04
845.649	1827.62
845.829	1864.43
846.009	1786.35
846.188	1810.37
846.368	1777.82
846.547	1795.46
846.727	1839.24
846.907	1754.38
847.086	1781.12
847.266	1815.61
847.445	1775.11
847.625	1764.65
847.804	1734.23
847.984	1784.22
848.163	1737.53
848.343	1739.46
848.522	1748.37
848.701	1805.92
848.881	1724.93
849.06	1764.65
849.239	1730.36
849.419	1766.78
849.598	1714.28
849.777	1662.93
849.957	1649.37
850.136	1626.12
850.315	1565.67
850.494	1579.62
850.674	1613.33
850.853	1697.81
851.032	1644.14
851.211	1734.81
851.39	1676.11
851.569	1613.33
851.748	1602.29
851.927	1664.87
852.107	1667
852.286	1597.83
852.465	1582.72
852.644	1645.11
852.823	1640.07
853.002	1643.36
853.181	1627.09
853.359	1642.2
853.538	1551.92
853.717	1630.58
853.896	1478.68
854.075	1480.81
854.254	1469.38
854.433	1362.04
854.611	1431.02
854.79	1355.07
854.969	1424.24
855.148	1430.82
855.327	1419.39
855.505	1457.56
855.684	1448.84
855.863	1491.08
856.041	1462.21
856.22	1506.38
856.399	1456.98
856.577	1580.01
856.756	1576.71
856.934	1667.19
857.113	1646.27
857.291	1573.81
857.47	1534.09
857.648	1569.35
857.827	1567.42
858.005	1629.22
858.184	1533.32
858.362	1610.43
858.541	1561.8
858.719	1552.69
858.898	1542.03
859.076	1537.77
859.254	1602.68
859.433	1517.82
859.611	1511.42
859.789	1480.62
859.967	1561.22
860.146	1585.43
860.324	1493.02
860.502	1508.9
860.68	1435.47
860.859	1465.7
861.037	1457.37
861.215	1498.25
861.393	1499.8
861.571	1485.46
861.749	1485.07
861.927	1463.76
862.105	1487.59
862.283	1454.65
862.461	1453.49
862.639	1440.7
862.817	1445.55
862.995	1490.3
863.173	1418.62
863.351	1470.74
863.529	1501.93
863.707	1512.78
863.885	1458.14
864.063	1391.88
864.241	1422.49
864.418	1499.99
864.596	1415.9
864.774	1371.54
864.952	1439.93
865.129	1446.52
865.307	1402.34
865.485	1362.62
865.663	1420.94
865.84	1358.17
866.018	1365.34
866.196	1242.89
866.373	1230.88
866.551	1223.32
866.728	1190.58
866.906	1215.57
867.084	1247.73
867.261	1274.08
867.439	1294.23
867.616	1335.31
867.794	1290.16
867.971	1310.89
868.149	1329.11
868.326	1386.84
868.503	1350.42
868.681	1347.12
868.858	1330.66
869.035	1302.37
869.213	1354.87
869.39	1312.25
869.567	1381.42
869.745	1283.38
869.922	1320.97
870.099	1327.36
870.276	1341.7
870.454	1326.2
870.631	1312.83
870.808	1327.36
870.985	1345.38
871.162	1395.17
871.339	1320.58
871.517	1261.68
871.694	1275.83
871.871	1291.91
872.048	1276.41
872.225	1293.26
872.402	1270.21
872.579	1256.45
872.756	1297.72
872.933	1236.49
873.11	1283.38
873.287	1299.85
873.463	1247.34
873.64	1236.69
873.817	1276.6
873.994	1264.98
874.171	1219.25
874.348	1252.96
874.524	1195.23
874.701	1237.27
874.878	1162.68
875.055	1220.8
875.231	1211.5
875.408	1220.22
875.585	1177.98
875.762	1239.21
875.938	1222.93
876.115	1178.37
876.291	1200.07
876.468	1171.98
876.645	1136.33
876.821	1191.93
876.998	1186.7
877.174	1176.63
877.351	1178.37
877.527	1162.29
877.704	1191.16
877.88	1157.64
878.057	1190
878.233	1208.21
878.409	1148.15
878.586	1179.73
878.762	1149.31
878.938	1138.07
879.115	1097.97
879.291	1130.13
879.467	1111.92
879.644	1138.26
879.82	1160.55
879.996	1131.48
880.172	1074.52
880.349	1167.71
880.525	1139.81
880.701	1083.05
880.877	1066
881.053	1106.68
881.229	1112.5
881.405	1142.33
881.581	1081.69
881.757	1075.88
881.933	1120.05
882.109	1150.47
882.285	1106.88
882.461	1046.43
882.637	1121.41
882.813	1083.82
882.989	1096.22
883.165	1171.59
883.341	1090.6
883.517	1141.95
883.693	1111.92
883.869	1163.06
884.044	1080.14
884.22	1129.35
884.396	1142.53
884.572	1117.92
884.747	1128.97
884.923	1134.78
885.099	1160.93
885.275	1173.33
885.45	1079.37
885.626	1072
885.801	1068.52
885.977	1091.77
886.153	1054.37
886.328	1111.33
886.504	1085.76
886.679	1099.9
886.855	1071.23
887.03	1109.98
887.206	1123.15
887.381	1103.58
887.557	1116.37
887.732	1126.06
887.908	1121.6
888.083	1129.93
888.258	1110.17
888.434	1075.1
888.609	1072.97
888.784	1161.32
888.96	1069.48
889.135	1059.99
889.31	1072.97
889.485	1113.85
889.661	1050.69
889.836	1152.8
890.011	1109.98
890.186	1097.58
890.361	1064.25
890.537	1117.34
890.712	1108.43
890.887	1099.9
891.062	1110.17
891.237	1135.55
891.412	1088.67
891.587	1116.95
891.762	1154.93
891.937	1134.2
892.112	1065.61
892.287	1067.16
892.462	1012.52
892.637	1012.14
892.812	1017.75
892.987	1041
893.161	981.14
893.336	1047.59
893.511	1022.21
893.686	1058.63
893.861	1034.61
894.035	1026.86
894.21	1042.55
894.385	996.25
894.56	1014.85
894.734	985.01
894.909	939.87
895.084	965.25
895.258	955.17
895.433	957.31
895.608	935.02
895.782	883.68
895.957	910.03
896.131	907.32
896.306	862.95
896.48	849.78
896.655	865.86
896.829	793.39
897.004	793.2
897.178	787
897.353	749.22
897.527	848.23
897.701	798.43
897.876	734.3
898.05	824.01
898.224	807.93
898.399	866.05
898.573	811.22
898.747	675.21
898.921	749.41
899.096	650.6
899.27	656.03
899.444	654.48
899.618	688.38
899.792	717.25
899.967	695.75
900.141	741.47
900.315	665.52
900.489	701.36
900.663	707.37
900.837	707.95
901.011	654.67
901.185	772.28
901.359	710.28
901.533	722.1
901.707	727.13
901.881	708.15
902.055	659.32
902.229	690.9
902.403	760.26
902.576	740.7
902.75	689.35
902.924	842.61
903.098	767.43
903.272	792.43
903.446	851.13
903.619	809.09
903.793	835.63
903.967	807.15
904.14	861.59
904.314	866.63
904.488	839.31
904.661	890.66
904.835	831.37
905.009	874.77
905.182	894.34
905.356	890.85
905.529	884.07
905.703	805.41
905.876	814.13
906.05	793.01
906.223	765.5
906.397	754.06
906.57	715.31
906.744	717.83
906.917	726.16
907.09	718.8
907.264	714.15
907.437	692.65
907.61	614.76
907.784	644.21
907.957	685.28
908.13	616.5
908.304	694.78
908.477	614.18
908.65	661.07
908.823	608.95
908.996	678.31
909.17	625.61
909.343	620.38
909.516	634.52
909.689	636.65
909.862	604.88
910.035	642.85
910.208	586.28
910.381	567.87
910.554	712.21
910.727	614.18
910.9	629.29
911.073	612.82
911.246	679.86
911.419	672.11
911.592	663.58
911.765	585.5
911.938	597.32
912.11	630.26
912.283	607.79
912.456	668.43
912.629	621.35
912.802	590.35
912.974	593.45
913.147	534.16
913.32	488.24
913.493	484.56
913.665	563.8
913.838	529.12
914.01	535.13
914.183	557.41
914.356	528.15
914.528	588.99
914.701	648.08
914.873	609.72
915.046	554.7
915.218	541.52
915.391	479.72
915.563	473.32
915.736	536.68
915.908	554.5
916.081	523.31
916.253	516.34
916.425	549.85
916.598	557.6
916.77	561.67
916.942	532.03
917.115	485.34
917.287	511.49
917.459	529.9
917.632	481.07
917.804	416.75
917.976	491.92
918.148	517.89
918.32	490.18
918.493	552.18
918.665	588.02
918.837	519.82
919.009	585.5
919.181	570.97
919.353	580.85
919.525	554.7
919.697	545.98
919.869	540.94
920.041	608.56
920.213	650.22
920.385	605.46
920.557	538.62
920.729	565.74
920.901	582.99
921.073	552.76
921.244	518.66
921.416	592.48
921.588	568.26
921.76	530.87
921.932	599.84
922.103	535.71
922.275	529.51
922.447	562.64
922.619	463.64
922.79	532.42
922.962	536.68
923.134	534.55
923.305	483.4
923.477	489.6
923.648	466.16
923.82	499.48
923.991	440.58
924.163	448.52
924.335	495.8
924.506	449.88
924.677	506.07
924.849	422.56
925.02	483.4
925.192	541.14
925.363	501.03
925.535	477.97
925.706	461.89
925.877	540.94
926.049	459.37
926.22	481.66
926.391	472.36
926.562	503.55
926.734	444.07
926.905	529.32
927.076	414.81
927.247	440.77
927.419	429.93
927.59	421.01
927.761	422.95
927.932	384.98
928.103	414.43
928.274	355.72
928.445	360.95
928.616	373.16
928.787	347.78
928.958	404.74
929.129	419.08
929.3	361.92
929.471	321.43
929.642	270.47
929.813	204.6
929.984	342.93
930.155	244.12
930.326	291.4
930.496	261.17
930.667	198.78
930.838	229.01
931.009	190.45
931.18	202.08
931.35	196.85
931.521	241.8
931.692	192.97
931.863	136.4
932.033	180.77
932.204	176.7
932.374	162.17
932.545	128.45
932.716	228.23
932.886	175.34
933.057	81.57
933.227	112.76
933.398	211.77
933.568	118.57
933.739	94.74
933.909	53.09
934.08	147.64
934.25	62.39
934.421	55.41
934.591	95.71
934.761	80.79
934.932	53.28
935.102	106.95
935.272	113.34
935.443	97.07
935.613	75.56
935.783	107.92
935.953	62
936.123	245.48
936.294	66.26
936.464	89.9
936.634	82.92
936.804	37.97
936.974	18.21
937.144	104.24
937.314	100.55
937.484	73.04
937.655	34.68
937.825	120.51
937.995	60.64
938.165	134.46
938.334	77.89
938.504	111.4
938.674	91.25
938.844	96.87
939.014	172.44
939.184	139.89
939.354	182.9
939.524	196.07
939.694	127.68
939.863	150.93
940.033	193.17
940.203	204.6
940.373	156.35
940.542	200.33
940.712	148.41
940.882	176.7
941.051	182.7
941.221	158.68
941.391	190.84
941.56	113.34
941.73	136.79
941.899	249.35
942.069	150.35
942.238	183.28
942.408	135.43
942.577	163.91
942.747	115.28
942.916	86.61
943.086	120.9
943.255	146.47
943.425	162.17
943.594	113.73
943.763	57.93
943.933	86.61
944.102	42.24
944.271	96.29
944.441	129.81
944.61	81.57
944.779	110.24
944.948	201.3
945.117	76.53
945.287	98.81
945.456	63.74
945.625	82.54
945.794	119.54
945.963	85.64
946.132	147.64
946.301	101.91
946.47	125.74
946.639	48.05
946.808	90.67
946.977	97.07
947.146	185.22
947.315	99
947.484	119.93
947.653	120.9
947.822	98.23
947.991	84.09
948.16	205.57
948.329	178.83
948.498	99.2
948.666	110.63
948.835	128.65
949.004	59.09
949.173	70.52
949.341	99.39
949.51	131.17
949.679	129.23
949.847	140.27
950.016	197.82
950.185	169.14
950.353	105.01
950.522	128.26
950.69	151.51
950.859	86.02
951.028	149.38
951.196	137.95
951.365	76.72
951.533	116.25
951.701	130
951.87	133.88
952.038	63.94
952.207	131.75
952.375	155.39
952.543	72.27
952.712	114.89
952.88	86.99
953.048	177.67
953.217	100.36
953.385	93.97
953.553	136.59
953.721	73.62
953.89	96.49
954.058	101.14
954.226	99.39
954.394	103.65
954.562	53.09
954.73	85.06
954.898	108.11
955.067	168.95
955.235	83.12
955.403	138.53
955.571	185.8
955.739	141.82
955.907	76.92
956.075	91.25
956.243	75.76
956.41	124.19
956.578	38.56
956.746	52.31
956.914	87.77
957.082	136.01
957.25	145.7
957.418	79.82
957.585	109.08
957.753	145.89
957.921	55.61
958.089	86.99
958.256	141.44
958.424	107.34
958.592	109.08
958.759	81.76
958.927	145.31
959.095	80.79
959.262	90.09
959.43	109.08
959.597	75.95
959.765	89.12
959.932	69.94
960.1	140.66
960.267	108.5
960.435	99.39
960.602	150.35
960.77	86.22
960.937	44.17
961.104	133.49
961.272	42.43
961.439	69.94
961.606	121.87
961.774	150.74
961.941	85.06
962.108	112.57
962.275	92.61
962.443	137.56
962.61	149.57
962.777	173.6
962.944	138.14
963.111	135.43
963.278	143.18
963.446	120.7
963.613	108.11
963.78	134.46
963.947	122.45
964.114	116.25
964.281	225.13
964.448	140.85
964.615	109.85
964.782	127.29
964.949	163.52
965.116	135.43
965.282	185.61
965.449	115.67
965.616	91.84
965.783	157.32
965.95	136.01
966.117	86.99
966.283	123.8
966.45	125.94
966.617	112.95
966.784	158.68
966.95	182.32
967.117	142.21
967.284	89.32
967.45	102.88
967.617	161.78
967.784	149.96
967.95	213.9
968.117	114.5
968.283	175.73
968.45	233.08
968.616	152.48
968.783	158.87
968.949	153.64
969.116	166.04
969.282	121.87
969.449	142.6
969.615	120.7
969.781	80.02
969.948	122.64
970.114	106.95
970.28	188.71
970.447	136.01
970.613	188.9
970.779	132.72
970.945	151.12
971.112	186.38
971.278	146.67
971.444	123.03
971.61	188.52
971.776	127.87
971.942	166.43
972.108	148.22
972.275	108.89
972.441	159.45
972.607	209.25
972.773	113.54
972.939	154.03
973.105	128.84
973.271	79.82
973.437	111.99
973.602	128.07
973.768	146.67
973.934	104.82
974.1	160.62
974.266	48.63
974.432	144.34
974.598	95.32
974.763	147.05
974.929	85.25
975.095	162.94
975.261	100.17
975.426	82.34
975.592	132.52
975.758	180.96
975.923	69.36
976.089	91.06
976.255	157.13
976.42	146.86
976.586	120.9
976.751	155.19
976.917	226.68
977.082	145.12
977.248	86.02
977.413	80.02
977.579	110.24
977.744	124.77
977.91	76.72
978.075	101.14
978.24	147.05
978.406	125.16
978.571	81.96
978.736	75.76
978.902	122.06
979.067	72.66
979.232	68.39
979.397	131.55
979.563	187.74
979.728	94.55
979.893	110.63
980.058	99.59
980.223	143.76
980.388	121.67
980.554	107.72
980.719	87.77
980.884	104.82
981.049	147.05
981.214	99.59
981.379	101.52
981.544	82.34
981.709	102.88
981.874	84.28
982.039	71.3
982.204	131.17
982.368	115.47
982.533	89.9
982.698	129.42
982.863	150.74
983.028	113.73
983.193	129.04
983.357	116.83
983.522	94.16
983.687	93.97
983.852	93.39
984.016	89.7
984.181	119.74
984.346	152.09
984.51	130.39
984.675	98.23
984.839	142.02
985.004	133.49
985.168	153.84
985.333	109.47
985.498	85.83
985.662	131.94
985.827	124
985.991	88.15
986.155	84.86
986.32	157.9
986.484	164.3
986.649	121.87
986.813	37.59
986.977	125.35
987.142	109.85
987.306	80.02
987.47	90.48
987.634	97.07
987.799	112.95
987.963	111.79
988.127	130.59
988.291	177.28
988.455	117.41
988.62	94.94
988.784	104.82
988.948	130.2
989.112	86.41
989.276	102.49
989.44	105.59
989.604	80.99
989.768	93.58
989.932	193.94
990.096	61.81
990.26	73.82
990.424	67.23
990.588	88.93
990.752	168.95
990.915	133.1
991.079	85.25
991.243	77.5
991.407	139.11
991.571	89.9
991.734	130
991.898	131.36
992.062	206.34
992.226	101.52
992.389	62.77
992.553	38.36
992.717	65.87
992.88	91.84
993.044	97.84
993.207	64.71
993.371	119.35
993.535	120.12
993.698	99.39
993.862	142.6
994.025	108.89
994.189	94.55
994.352	116.05
994.515	108.89
994.679	131.94
994.842	66.65
995.006	160.23
995.169	67.04
995.332	75.37
995.496	84.47
995.659	24.99
995.822	90.48
995.985	83.31
996.149	126.13
996.312	89.51
996.475	150.35
996.638	73.43
996.801	144.54
996.964	160.42
997.128	75.76
997.291	93.97
997.454	114.7
997.617	20.92
997.78	136.2
997.943	49.79
998.106	118.19
998.269	92.03
998.432	85.06
998.595	96.29
998.758	24.99
998.92	34.68
999.083	8.72
999.246	74.98
999.409	4.65
999.572	10.85
999.735	50.76
999.897	85.44
1000.06	59.67
1000.223	73.24
1000.386	97.65
1000.548	128.26
1000.711	103.85
1000.874	93.19
1001.036	26.35
1001.199	110.63
1001.361	47.66
1001.524	79.63
1001.687	92.61
1001.849	41.85
1002.012	82.54
1002.174	58.32
1002.337	92.22
1002.499	79.82
1002.661	110.44
1002.824	36.04
1002.986	52.12
1003.149	73.82
1003.311	30.03
1003.473	126.13
1003.636	38.36
1003.798	90.67
1003.96	92.42
1004.123	89.51
1004.285	40.3
1004.447	58.32
1004.609	69.36
1004.771	130.78
1004.933	28.48
1005.096	25.77
1005.258	-25.38
1005.42	41.07
1005.582	106.37
1005.744	84.28
1005.906	-6.97
1006.068	55.41
1006.23	23.06
1006.392	-15.5
1006.554	34.29
1006.716	87.77
1006.878	73.82
1007.04	41.85
1007.202	37.78
1007.363	47.47
1007.525	49.99
1007.687	73.24
1007.849	113.15
1008.011	10.85
1008.172	1.94
1008.334	55.22
1008.496	77.11
1008.658	-9.88
1008.819	34.49
1008.981	41.27
1009.143	10.85
1009.304	54.25
1009.466	83.7
1009.627	91.25
1009.789	148.41
1009.95	44.56
1010.112	36.62
1010.273	35.65
1010.435	47.86
1010.596	43.98
1010.758	29.84
1010.919	4.65
1011.081	7.75
1011.242	53.28
1011.403	73.82
1011.565	60.45
1011.726	70.52
1011.887	2.91
1012.049	35.65
1012.21	91.25
1012.371	147.44
1012.532	-18.41
1012.693	54.44
1012.855	14.72
1013.016	52.51
1013.177	73.43
1013.338	42.24
1013.499	118.19
1013.66	79.82
1013.821	72.07
1013.982	42.82
1014.143	57.74
1014.304	12.79
1014.465	44.76
1014.626	78.47
1014.787	74.98
1014.948	147.05
1015.109	-19.76
1015.27	113.73
1015.431	44.56
1015.592	12.79
1015.752	107.14
1015.913	66.26
1016.074	63.36
1016.235	38.36
1016.395	54.06
1016.556	51.15
1016.717	19.37
1016.877	70.14
1017.038	14.14
1017.199	46.69
1017.359	54.25
1017.52	35.07
1017.681	34.49
1017.841	27.9
1018.002	26.35
1018.162	5.23
1018.323	96.68
1018.483	36.42
1018.644	31.97
1018.804	0
1018.964	6.01
1019.125	62
1019.285	59.29
1019.446	-21.31
1019.606	2.13
1019.766	-12.21
1019.926	60.64
1020.087	64.13
1020.247	-2.71
1020.407	42.82
1020.567	95.9
1020.728	24.99
1020.888	12.79
1021.048	7.36
1021.208	-18.79
1021.368	-6.2
1021.528	83.89
1021.688	84.67
1021.848	53.67
1022.008	36.81
1022.168	31.39
1022.328	30.81
1022.488	39.72
1022.648	37.39
1022.808	49.6
1022.968	29.64
1023.128	16.86
1023.288	5.23
1023.448	36.23
1023.608	38.75
1023.767	75.76
1023.927	3.1
1024.087	-6.97
1024.247	-30.03
1024.406	34.29
1024.566	-19.18
1024.726	7.36
1024.885	12.4
1025.045	64.52
1025.205	44.56
1025.364	16.86
1025.524	38.94
1025.683	46.31
1025.843	20.54
1026.003	15.69
1026.162	80.79
1026.321	68.39
1026.481	28.29
1026.64	17.44
1026.8	12.21
1026.959	28.67
1027.119	32.74
1027.278	4.65
1027.437	4.84
1027.597	34.1
1027.756	19.76
1027.915	45.14
1028.074	45.92
1028.234	-19.96
1028.393	42.43
1028.552	22.86
1028.711	-57.74
1028.87	85.44
1029.03	2.71
1029.189	33.52
1029.348	-7.94
1029.507	-6.97
1029.666	1.55
1029.825	-4.07
1029.984	7.94
1030.143	26.16
1030.302	10.85
1030.461	-41.85
1030.62	35.84
1030.779	40.88
1030.938	12.98
1031.097	-42.43
1031.255	42.62
1031.414	89.51
1031.573	73.82
1031.732	-15.69
1031.891	8.91
1032.049	59.48
1032.208	26.16
1032.367	5.81
1032.525	4.26
1032.684	14.53
1032.843	15.11
1033.001	-47.27
1033.16	181.93
1033.319	55.8
1033.477	49.79
1033.636	-5.23
1033.794	-33.91
1033.953	43.59
1034.111	37.97
1034.27	-8.33
1034.428	28.48
1034.587	-12.79
1034.745	43.21
1034.903	1.74
1035.062	45.72
1035.22	-18.79
1035.378	32.16
1035.537	-12.4
1035.695	14.72
1035.853	30.22
1036.011	46.31
1036.17	54.64
1036.328	-60.06
1036.486	36.04
1036.644	23.25
1036.802	-70.52
1036.96	-12.59
1037.119	6.59
1037.277	-5.23
1037.435	-24.02
1037.593	-14.14
1037.751	7.36
1037.909	48.82
1038.067	48.82
