Data from gum_old_FLMT105791__18__15-42-40-259.txt Node

Date: Mon Mar 20 15:42:40 GMT 2023
User: antho
Spectrometer: FLMT10579
Trigger mode: 0
Integration Time (sec): 1.000000E-1
Scans to average: 10
Electric dark correction enabled: true
Nonlinearity correction enabled: false
Boxcar width: 0
XAxis mode: Wavelengths
Number of Pixels in Spectrum: 3648
>>>>>Begin Spectral Data<<<<<
345.248	-178.88
345.464	-178.88
345.681	-178.88
345.898	-174.81
346.114	-172.29
346.331	-41.51
346.548	45.09
346.764	4.41
346.981	-39.19
347.197	-16.13
347.414	15.06
347.631	-6.83
347.847	69.31
348.064	17.97
348.28	16.61
348.497	-49.26
348.713	-15.55
348.93	34.63
349.146	36.76
349.363	3.05
349.579	32.69
349.796	20.3
350.012	13.9
350.229	18.75
350.445	11.77
350.661	9.83
350.878	38.31
351.094	28.04
351.311	26.49
351.527	34.05
351.743	14.29
351.96	34.44
352.176	67.18
352.392	69.89
352.609	60.21
352.825	19.13
353.041	37.34
353.257	24.75
353.474	14.87
353.69	39.67
353.906	60.79
354.122	21.65
354.339	86.75
354.555	27.66
354.771	30.95
354.987	77.45
355.203	95.28
355.42	17.97
355.636	9.83
355.852	16.23
356.068	48
356.284	-10.9
356.5	80.74
356.716	31.92
356.932	60.59
357.148	83.46
357.364	34.24
357.58	80.55
357.796	57.69
358.012	80.74
358.228	47.23
358.444	-30.27
358.66	72.41
358.876	31.53
359.092	24.17
359.308	47.81
359.524	76.68
359.74	54.59
359.956	41.61
360.172	34.63
360.388	87.33
360.604	40.64
360.819	105.16
361.035	62.92
361.251	71.83
361.467	15.65
361.683	74.16
361.898	16.23
362.114	94.89
362.33	37.73
362.546	97.41
362.762	28.24
362.977	73.58
363.193	39.09
363.409	81.91
363.624	24.94
363.84	40.06
364.056	41.99
364.271	71.06
364.487	69.51
364.703	17.39
364.918	29.59
365.134	23.39
365.35	68.34
365.565	146.81
365.781	71.64
365.996	79.58
366.212	132.47
366.427	99.93
366.643	53.62
366.858	87.33
367.074	68.15
367.289	148.94
367.505	173.55
367.72	32.31
367.936	50.13
368.151	103.22
368.367	100.12
368.582	86.94
368.798	75.51
369.013	133.25
369.228	89.85
369.444	88.49
369.659	112.71
369.874	130.15
370.09	148.94
370.305	50.52
370.52	62.53
370.736	159.6
370.951	75.13
371.166	126.27
371.381	143.32
371.597	110.58
371.812	53.81
372.027	53.43
372.242	81.91
372.458	139.64
372.673	99.93
372.888	63.69
373.103	96.05
373.318	170.45
373.533	109.42
373.749	78.81
373.964	35.41
374.179	121.82
374.394	31.73
374.609	121.62
374.824	45.68
375.039	124.14
375.254	33.47
375.469	141.97
375.684	102.83
375.899	115.62
376.114	124.34
376.329	118.33
376.544	103.03
376.759	126.66
376.974	104.58
377.189	101.28
377.404	81.33
377.619	118.14
377.834	59.04
378.049	77.45
378.264	51.49
378.478	131.12
378.693	102.06
378.908	147.59
379.123	102.06
379.338	186.14
379.553	136.54
379.767	117.94
379.982	138.09
380.197	133.06
380.412	107.68
380.626	131.31
380.841	181.11
381.056	150.69
381.271	186.14
381.485	78.23
381.7	80.36
381.915	109.81
382.129	110.39
382.344	70.09
382.559	106.9
382.773	141.39
382.988	65.83
383.202	82.88
383.417	66.02
383.632	208.42
383.846	107.68
384.061	115.04
384.275	74.16
384.49	117.75
384.704	128.99
384.919	114.65
385.133	142.36
385.348	153.98
385.562	105.74
385.777	156.5
385.991	115.23
386.206	123.76
386.42	117.94
386.634	159.21
386.849	154.95
387.063	137.32
387.277	125.69
387.492	111.16
387.706	92.95
387.92	87.14
388.135	150.11
388.349	141.77
388.563	151.46
388.778	133.83
388.992	141.97
389.206	149.91
389.42	233.22
389.635	157.86
389.849	185.37
390.063	203.97
390.277	190.6
390.491	238.45
390.706	206.49
390.92	214.43
391.134	152.43
391.348	226.83
391.562	168.32
391.776	197.96
391.99	175.68
392.205	242.91
392.419	164.06
392.633	176.84
392.847	219.47
393.061	154.17
393.275	206.1
393.489	147.97
393.703	124.92
393.917	152.62
394.131	90.43
394.345	140.61
394.559	187.31
394.773	145.07
394.986	183.04
395.2	175.87
395.414	246.98
395.628	184.98
395.842	186.72
396.056	215.59
396.27	141.39
396.484	216.75
396.697	194.86
396.911	226.05
397.125	164.06
397.339	146.04
397.553	147.01
397.766	221.79
397.98	201.25
398.194	233.42
398.408	221.4
398.621	286.7
398.835	308.2
399.049	282.24
399.262	319.83
399.476	324.28
399.69	346.18
399.903	391.51
400.117	293.67
400.331	328.16
400.544	289.8
400.758	423.1
400.971	340.37
401.185	358.19
401.398	302
401.612	391.51
401.826	381.25
402.039	382.8
402.253	337.85
402.466	387.83
402.68	344.63
402.893	367.68
403.106	358
403.32	340.37
403.533	367.3
403.747	351.8
403.96	369.04
404.174	361.29
404.387	345.98
404.6	379.31
404.814	386.28
405.027	343.85
405.24	356.64
405.454	362.26
405.667	419.8
405.88	323.7
406.094	384.15
406.307	421.93
406.52	370.98
406.733	349.28
406.947	332.23
407.16	419.22
407.373	408.56
407.586	375.05
407.799	345.21
408.012	405.66
408.226	406.05
408.439	433.56
408.652	341.33
408.865	447.31
409.078	469.59
409.291	419.41
409.504	391.13
409.717	442.66
409.93	427.94
410.143	434.33
410.357	322.73
410.57	343.27
410.783	377.56
410.996	387.25
411.209	392.87
411.421	454.1
411.634	425.61
411.847	445.38
412.06	463.01
412.273	450.8
412.486	456.42
412.699	525.59
412.912	468.43
413.125	479.67
413.338	459.91
413.55	484.9
413.763	469.21
413.976	500.01
414.189	429.68
414.402	458.16
414.615	524.23
414.827	465.91
415.04	528.3
415.253	503.5
415.466	527.53
415.678	530.24
415.891	475.41
416.104	496.14
416.316	490.52
416.529	474.83
416.742	556.39
416.954	543.61
417.167	481.41
417.38	487.61
417.592	554.26
417.805	480.06
418.017	455.45
418.23	466.69
418.442	457.2
418.655	464.36
418.868	529.46
419.08	531.01
419.293	548.45
419.505	506.6
419.718	517.64
419.93	554.65
420.142	495.17
420.355	571.12
420.567	549.22
420.78	540.89
420.992	515.51
421.205	593.01
421.417	484.9
421.629	531.21
421.842	514.54
422.054	491.88
422.266	563.95
422.479	585.26
422.691	518.81
422.903	567.63
423.115	503.31
423.328	488.58
423.54	542.83
423.752	543.8
423.964	517.26
424.177	553.29
424.389	527.53
424.601	648.62
424.813	588.75
425.025	593.59
425.238	562.59
425.45	558.33
425.662	534.89
425.874	831.13
426.086	565.89
426.298	546.13
426.51	579.45
426.722	533.53
426.934	529.46
427.146	606.19
427.358	535.28
427.57	610.45
427.782	544.19
427.994	544.38
428.206	512.61
428.418	519.78
428.63	601.73
428.842	630.41
429.054	595.92
429.266	588.94
429.478	541.09
429.69	553.87
429.902	485.87
430.114	550
430.325	557.36
430.537	479.67
430.749	467.46
430.961	398.3
431.173	426.78
431.384	489.16
431.596	384.35
431.808	511.83
432.02	565.11
432.231	656.37
432.443	695.5
432.655	647.26
432.867	612.77
433.078	648.62
433.29	700.15
433.502	680.78
433.713	687.56
433.925	705.97
434.136	700.74
434.348	590.69
434.56	573.06
434.771	686.2
434.983	542.44
435.194	638.93
435.406	683.88
435.617	727.47
435.829	760.41
436.04	703.25
436.252	721.85
436.463	766.61
436.675	792.77
436.886	788.12
437.098	776.88
437.309	798.97
437.521	727.86
437.732	716.04
437.943	733.67
438.155	723.21
438.366	671.67
438.578	769.52
438.789	727.86
439	693.57
439.211	659.85
439.423	703.84
439.634	752.27
439.845	765.25
440.057	763.32
440.268	782.5
440.479	741.42
440.69	765.64
440.902	748.4
441.113	729.22
441.324	740.84
441.535	797.03
441.746	849.53
441.957	772.62
442.168	828.61
442.38	859.03
442.591	836.75
442.802	806.72
443.013	821.25
443.224	863.1
443.435	838.88
443.646	824.73
443.857	823.76
444.068	821.05
444.279	792.57
444.49	922.19
444.701	880.53
444.912	967.91
445.123	881.31
445.334	886.93
445.545	890.41
445.756	874.72
445.967	839.26
446.178	820.08
446.388	868.13
446.599	859.41
446.81	872.01
447.021	835.2
447.232	872.4
447.443	920.06
447.653	859.22
447.864	940.4
448.075	910.18
448.286	964.43
448.496	922.77
448.707	981.86
448.918	881.89
449.129	972.56
449.339	903.01
449.55	909.21
449.761	901.46
449.971	985.16
450.182	922.58
450.393	954.35
450.603	900.49
450.814	999.11
451.024	959.78
451.235	1046.19
451.446	1061.3
451.656	1044.64
451.867	953.77
452.077	994.65
452.288	1004.72
452.498	1013.44
452.709	978.57
452.919	964.23
453.13	906.88
453.34	969.85
453.55	874.14
453.761	961.91
453.971	944.08
454.182	972.76
454.392	939.43
454.602	1053.55
454.813	1013.44
455.023	1028.56
455.233	920.06
455.444	971.59
455.654	881.89
455.864	945.44
456.075	952.99
456.285	953.19
456.495	979.34
456.705	1013.64
456.916	1054.32
457.126	1086.1
457.336	994.84
457.546	940.98
457.756	1027.59
457.967	1110.7
458.177	980.51
458.387	1005.5
458.597	971.98
458.807	1009.96
459.017	958.23
459.227	977.79
459.437	989.22
459.647	1051.22
459.857	1023.52
460.068	1031.46
460.278	1063.43
460.488	1052.58
460.698	1100.05
460.908	1062.85
461.117	1024.29
461.327	1064.59
461.537	1065.17
461.747	1064.21
461.957	1075.83
462.167	1176.97
462.377	1105.86
462.587	1075.64
462.797	1114.77
463.007	1055.1
463.216	1124.46
463.426	1152.75
463.636	1102.76
463.846	1028.36
464.056	1077.38
464.265	1116.32
464.475	1068.27
464.685	1083
464.895	1125.04
465.104	1088.81
465.314	1140.35
465.524	1087.84
465.733	1057.04
465.943	1137.83
466.153	1196.92
466.362	1188.01
466.572	1145.77
466.782	1113.42
466.991	1159.92
467.201	1182
467.41	1070.41
467.62	1132.6
467.829	1112.84
468.039	1155.07
468.249	1124.07
468.458	1132.21
468.668	1145.58
468.877	1188.01
469.086	1231.8
469.296	1240.13
469.505	1178.9
469.715	1275.2
469.924	1216.68
470.134	1265.9
470.343	1253.88
470.552	1187.43
470.762	1194.79
470.971	1163.98
471.18	1180.84
471.39	1214.94
471.599	1200.99
471.808	1230.44
472.018	1221.33
472.227	1292.05
472.436	1307.16
472.645	1290.11
472.855	1287.98
473.064	1381.76
473.273	1348.24
473.482	1334.87
473.691	1377.49
473.901	1331.38
474.11	1311.43
474.319	1447.24
474.528	1357.54
474.737	1459.45
474.946	1425.93
475.155	1403.26
475.364	1440.46
475.573	1452.67
475.783	1466.23
475.992	1442.21
476.201	1480.37
476.41	1429.42
476.619	1405.59
476.828	1461.58
477.037	1414.69
477.245	1419.15
477.454	1478.82
477.663	1466.42
477.872	1543.34
478.081	1602.63
478.29	1509.24
478.499	1618.32
478.708	1616.77
478.917	1643.7
479.125	1570.27
479.334	1554.58
479.543	1623.17
479.752	1649.9
479.961	1632.47
480.169	1679.35
480.378	1637.7
480.587	1800.06
480.796	1664.82
481.004	1660.75
481.213	1698.53
481.422	1680.71
481.63	1691.75
481.839	1740.96
482.048	1811.29
482.256	1756.27
482.465	1803.93
482.674	1750.85
482.882	1765.18
483.091	1858.96
483.299	1769.45
483.508	1824.28
483.716	1807.23
483.925	1831.44
484.134	1777.39
484.342	1811.29
484.551	1830.48
484.759	1845.98
484.967	1852.76
485.176	1867.48
485.384	1872.52
485.593	1900.81
485.801	1866.51
486.01	1783.2
486.218	1711.13
486.426	1646.61
486.635	1620.45
486.843	1571.44
487.051	1651.26
487.26	1642.15
487.468	1719.65
487.676	1741.35
487.885	1778.16
488.093	1833.38
488.301	1896.93
488.509	1882.4
488.717	1960.29
488.926	1927.93
489.134	1884.53
489.342	1894.02
489.55	1883.17
489.758	1935.68
489.967	1961.64
490.175	2064.52
490.383	2049.99
490.591	2163.91
490.799	2024.03
491.007	2096.1
491.215	2044.76
491.423	2074.02
491.631	2074.98
491.839	2040.11
492.047	2099.59
492.255	1969.78
492.463	1945.56
492.671	1931.81
492.879	2025.58
493.087	2049.41
493.295	2070.14
493.503	2096.3
493.711	2162.75
493.919	2180.38
494.127	2125.55
494.334	2103.66
494.542	2069.37
494.75	2149.77
494.958	2133.5
495.166	2205.96
495.374	2196.08
495.581	2245.48
495.789	2221.26
495.997	2245.87
496.205	2168.56
496.412	2176.51
496.62	2219.52
496.828	2257.3
497.035	2216.81
497.243	2237.34
497.451	2260.21
497.658	2212.93
497.866	2241.61
498.074	2296.82
498.281	2183.29
498.489	2294.11
498.696	2180.19
498.904	2198.79
499.112	2137.56
499.319	2262.34
499.527	2204.41
499.734	2310.77
499.942	2187.55
500.149	2202.08
500.357	2238.7
500.564	2174.38
500.771	2225.53
500.979	2149.96
501.186	2163.72
501.394	2184.26
501.601	2157.52
501.808	2200.15
502.016	2167.4
502.223	2178.06
502.43	2185.42
502.638	2180.58
502.845	2168.18
503.052	2285.59
503.26	2227.66
503.467	2280.36
503.674	2266.79
503.881	2225.33
504.089	2346.42
504.296	2274.16
504.503	2187.36
504.71	2212.54
504.917	2185.42
505.125	2219.52
505.332	2314.26
505.539	2259.82
505.746	2364.64
505.953	2357.66
506.16	2357.66
506.367	2428.38
506.574	2417.34
506.781	2426.05
506.988	2343.52
507.195	2384.59
507.402	2344.49
507.609	2367.74
507.816	2328.6
508.023	2328.6
508.23	2327.44
508.437	2252.84
508.644	2294.5
508.851	2379.56
509.058	2394.28
509.265	2350.69
509.472	2411.33
509.679	2492.7
509.885	2459.57
510.092	2404.74
510.299	2415.4
510.506	2370.64
510.713	2378.2
510.92	2363.47
511.126	2413.65
511.333	2477.01
511.54	2426.05
511.746	2499.87
511.953	2489.8
512.16	2519.25
512.367	2470.81
512.573	2453.18
512.78	2435.35
512.987	2426.25
513.193	2401.25
513.4	2348.75
513.606	2395.83
513.813	2450.08
514.02	2398.93
514.226	2467.52
514.433	2474.1
514.639	2343.52
514.846	2403.77
515.052	2380.52
515.259	2446.4
515.465	2418.3
515.672	2408.23
515.878	2476.82
516.085	2448.34
516.291	2458.41
516.497	2436.52
516.704	2426.25
516.91	2357.08
517.117	2274.35
517.323	2161.98
517.529	2179.61
517.736	2191.62
517.942	2165.85
518.148	2246.45
518.354	2300.12
518.561	2265.44
518.767	2285.78
518.973	2320.27
519.179	2346.62
519.386	2315.81
519.592	2367.74
519.798	2377.42
520.004	2491.73
520.21	2440.2
520.417	2516.53
520.623	2528.93
520.829	2553.73
521.035	2572.91
521.241	2551.22
521.447	2594.42
521.653	2686.26
521.859	2564.39
522.065	2631.43
522.271	2719.19
522.477	2683.35
522.683	2739.34
522.889	2642.28
523.095	2627.55
523.301	2631.62
523.507	2580.66
523.713	2630.07
523.919	2568.07
524.125	2703.31
524.331	2721.91
524.537	2803.86
524.742	2763.17
524.948	2803.47
525.154	2759.69
525.36	2924.76
525.566	2776.54
525.772	2833.89
525.977	2751.16
526.183	2790.88
526.389	2849.2
526.595	2707.57
526.8	2725.98
527.006	2613.99
527.212	2526.61
527.417	2506.07
527.623	2527.19
527.829	2598.88
528.034	2637.63
528.24	2627.36
528.446	2722.88
528.651	2857.14
528.857	2771.31
529.062	2870.7
529.268	2911.39
529.473	2898.99
529.679	2944.52
529.884	2982.11
530.09	2864.89
530.295	2900.93
530.501	2917.78
530.706	2889.11
530.912	2864.12
531.117	2962.93
531.323	2923.4
531.528	3020.86
531.733	2996.45
531.939	2933.48
532.144	3003.42
532.35	2966.8
532.555	3029.96
532.76	2939.68
532.966	2966.22
533.171	2899.38
533.376	2831.18
533.581	2801.73
533.787	2840.67
533.992	2937.35
534.197	2959.44
534.402	2937.35
534.607	2956.92
534.813	3023.76
535.018	2915.46
535.223	2954.79
535.428	2981.33
535.633	3015.24
535.838	3048.56
536.043	3055.93
536.249	3159.39
536.454	3040.62
536.659	3113.08
536.864	3072.59
537.069	3027.45
537.274	3063.29
537.479	2993.54
537.684	3017.76
537.889	2942.2
538.094	3083.83
538.299	3000.9
538.504	3042.95
538.708	3046.43
538.913	3083.83
539.118	3044.69
539.323	3103.01
539.528	2991.6
539.733	3014.46
539.938	3052.05
540.142	3032.68
540.347	2989.08
540.552	2943.55
540.757	2933.67
540.962	2955.95
541.166	2910.62
541.371	2856.56
541.576	2949.95
541.781	2901.7
541.985	2986.37
542.19	3045.27
542.395	3106.69
542.599	3117.34
542.804	3066.39
543.008	3128.58
543.213	3015.24
543.418	2992.57
543.622	3060.96
543.827	2998
544.031	3105.72
544.236	3110.76
544.44	3052.05
544.645	3141.76
544.849	3071.04
545.054	3105.33
545.258	3149.7
545.463	3150.86
545.667	3098.36
545.872	3166.94
546.076	3129.94
546.281	3122.38
546.485	3048.37
546.689	3120.44
546.894	3151.83
547.098	3085.18
547.302	3037.33
547.507	3105.91
547.711	3190.39
547.915	3153.96
548.119	3066.39
548.324	3062.51
548.528	3139.82
548.732	3058.25
548.936	3101.65
549.141	3143.69
549.345	3080.34
549.549	3129.16
549.753	3126.06
549.957	3204.14
550.161	3193.68
550.366	3148.93
550.57	3072.78
550.774	3135.56
550.978	3145.63
551.182	3141.95
551.386	3084.79
551.59	3109.59
551.794	3141.18
551.998	3155.51
552.202	3109.4
552.406	3085.18
552.61	3165.01
552.814	3177.41
553.018	3201.62
553.222	3099.52
553.426	3150.67
553.63	3233.98
553.833	3132.07
554.037	3073.56
554.241	3125.29
554.445	3166.75
554.649	3130.33
554.853	3106.49
555.056	3179.73
555.26	3201.82
555.464	3172.95
555.668	3160.55
555.871	3168.88
556.075	3135.94
556.279	3080.92
556.483	3052.83
556.686	3064.84
556.89	3099.71
557.094	3077.63
557.297	2988.5
557.501	3091.58
557.704	2989.86
557.908	3068.52
558.112	3004
558.315	3121.99
558.519	3039.46
558.722	3018.34
558.926	2959.44
559.129	2930.38
559.333	2902.48
559.536	2919.14
559.74	2863.34
559.943	2824.98
560.147	2892.79
560.35	2885.62
560.553	2954.79
560.757	2851.33
560.96	2988.89
561.164	2942.78
561.367	3039.65
561.57	2950.72
561.774	2915.85
561.977	2927.47
562.18	2951.3
562.384	2967.58
562.587	2955.76
562.79	2911.2
562.993	2915.07
563.197	2930.57
563.4	2963.32
563.603	2967.19
563.806	2981.33
564.009	2886.01
564.212	2932.9
564.416	2844.55
564.619	2911.2
564.822	2828.85
565.025	2914.68
565.228	2885.24
565.431	2895.12
565.634	2803.86
565.837	2819.75
566.04	2804.83
566.243	2782.74
566.446	2666.11
566.649	2804.44
566.852	2756.78
567.055	2732.17
567.258	2804.83
567.461	2861.02
567.664	2867.02
567.867	2768.79
568.07	2786.23
568.273	2799.21
568.475	2875.35
568.678	2783.52
568.881	2761.24
569.084	2748.06
569.287	2644.79
569.489	2737.21
569.692	2770.54
569.895	2770.54
570.098	2675.6
570.3	2641.11
570.503	2626
570.706	2625.42
570.909	2626.2
571.111	2578.73
571.314	2545.02
571.516	2609.92
571.719	2593.45
571.922	2625.23
572.124	2585.31
572.327	2634.53
572.529	2578.73
572.732	2586.86
572.935	2640.73
573.137	2735.66
573.34	2622.51
573.542	2677.34
573.745	2643.44
573.947	2692.65
574.15	2608.18
574.352	2621.16
574.554	2660.88
574.757	2648.48
574.959	2565.55
575.162	2578.15
575.364	2581.63
575.566	2648.09
575.769	2471.2
575.971	2510.53
576.173	2415.59
576.376	2505.88
576.578	2569.62
576.78	2569.04
576.982	2446.59
577.185	2529.9
577.387	2483.79
577.589	2514.02
577.791	2535.72
577.993	2510.33
578.196	2491.15
578.398	2488.83
578.6	2511.88
578.802	2462.67
579.004	2448.92
579.206	2396.22
579.408	2461.51
579.61	2442.14
579.812	2489.8
580.014	2454.73
580.216	2405.9
580.418	2456.09
580.62	2415.59
580.822	2434.77
581.024	2473.52
581.226	2499.68
581.428	2413.65
581.63	2537.85
581.832	2421.79
582.034	2489.6
582.236	2450.47
582.438	2462.29
582.64	2514.02
582.841	2569.81
583.043	2561.68
583.245	2495.22
583.447	2518.67
583.649	2474.3
583.85	2510.53
584.052	2530.87
584.254	2429.35
584.456	2534.36
584.657	2451.82
584.859	2548.5
585.061	2457.83
585.262	2455.31
585.464	2421.79
585.666	2533.78
585.867	2413.46
586.069	2499.29
586.27	2442.72
586.472	2397.77
586.674	2421.99
586.875	2397.19
587.077	2406.29
587.278	2396.99
587.48	2372.39
587.681	2492.51
587.883	2458.22
588.084	2325.11
588.285	2339.06
588.487	2346.42
588.688	2377.23
588.89	2309.61
589.091	2218.74
589.292	2264.66
589.494	2184.45
589.695	2135.82
589.896	2088.93
590.098	2060.65
590.299	2124.2
590.5	2100.95
590.702	2123.81
590.903	2179.8
591.104	2260.79
591.305	2273.19
591.507	2250.91
591.708	2254.2
591.909	2236.96
592.11	2306.12
592.311	2310.19
592.512	2235.79
592.714	2183.1
592.915	2240.64
593.116	2200.34
593.317	2243.93
593.518	2220.49
593.719	2218.94
593.92	2259.43
594.121	2272.99
594.322	2272.03
594.523	2265.83
594.724	2159.07
594.925	2252.46
595.126	2238.89
595.327	2250.33
595.528	2235.21
595.729	2241.8
595.929	2208.09
596.13	2213.32
596.331	2247.23
596.532	2266.99
596.733	2298.37
596.934	2286.56
597.135	2274.35
597.335	2290.24
597.536	2237.15
597.737	2245.09
597.938	2223.01
598.138	2254.78
598.339	2252.07
598.54	2240.25
598.74	2180.77
598.941	2209.64
599.142	2296.24
599.342	2244.51
599.543	2211.96
599.744	2218.94
599.944	2200.73
600.145	2200.34
600.345	2213.71
600.546	2278.61
600.746	2252.07
600.947	2294.69
601.147	2187.94
601.348	2249.16
601.548	2198.98
601.749	2195.88
601.949	2124.78
602.15	2151.9
602.35	2147.25
602.551	2222.81
602.751	2134.66
602.951	2130.2
603.152	2062.2
603.352	2192.59
603.552	2177.48
603.753	2215.84
603.953	2190.46
604.153	2256.53
604.354	2178.06
604.554	2166.43
604.754	2212.74
604.954	2155.2
605.155	2266.6
605.355	2140.86
605.555	2222.62
605.755	2252.65
605.955	2190.07
606.155	2213.13
606.356	2174.18
606.556	2252.26
606.756	2201.89
606.956	2181.16
607.156	2267.76
607.356	2125.36
607.556	2179.8
607.756	2220.88
607.956	2258.66
608.156	2162.36
608.356	2122.06
608.556	2217.19
608.756	2192.98
608.956	2132.33
609.156	2201.31
609.356	2109.47
609.556	2097.65
609.755	2132.53
609.955	2108.31
610.155	2149.77
610.355	2147.83
610.555	2056.97
610.755	2087.19
610.954	2020.15
611.154	2114.51
611.354	2114.9
611.554	2075.76
611.753	2092.23
611.953	2064.72
612.153	2116.83
612.352	2110.63
612.552	2024.22
612.752	2033.52
612.951	2084.67
613.151	2058.71
613.351	2042.24
613.55	2029.26
613.75	2024.42
613.949	2037.59
614.149	2058.9
614.348	2030.81
614.548	1959.7
614.747	1968.23
614.947	1998.84
615.146	1964.35
615.346	2043.02
615.545	2003.88
615.745	2001.94
615.944	2074.79
616.144	2004.27
616.343	2002.72
616.542	1957.19
616.742	1969.39
616.941	1981.02
617.14	1921.92
617.34	1935.87
617.539	1935.49
617.738	1951.18
617.938	2024.61
618.137	1990.32
618.336	1947.5
618.535	1987.6
618.734	1942.66
618.934	2002.52
619.133	1956.41
619.332	1994.97
619.531	1961.45
619.73	1959.12
619.929	2010.66
620.128	1979.66
620.328	2071.11
620.527	1967.65
620.726	2019.57
620.925	1997.29
621.124	1967.65
621.323	1953.31
621.522	1919.21
621.721	1965.52
621.92	1919.79
622.119	1980.63
622.318	1933.55
622.517	1923.28
622.715	1939.17
622.914	1883.37
623.113	1935.49
623.312	1842.49
623.511	1937.62
623.71	1898.67
623.909	1881.62
624.107	1954.09
624.306	1878.72
624.505	1902.16
624.704	1843.26
624.902	1867.29
625.101	1920.37
625.3	1883.37
625.499	1868.84
625.697	1851.01
625.896	1826.02
626.095	1844.23
626.293	1800.44
626.492	1848.49
626.69	1865.54
626.889	1844.81
627.088	1874.26
627.286	1854.31
627.485	1797.34
627.683	1835.71
627.882	1847.53
628.08	1751.43
628.279	1809.55
628.477	1865.54
628.676	1773.71
628.874	1824.28
629.073	1757.63
629.271	1755.88
629.469	1821.18
629.668	1793.86
629.866	1764.6
630.065	1784.36
630.263	1780.88
630.461	1735.35
630.66	1775.26
630.858	1777
631.056	1819.24
631.254	1816.33
631.453	1730.31
631.651	1810.71
631.849	1758.98
632.047	1764.8
632.245	1759.37
632.444	1775.64
632.642	1810.91
632.84	1796.18
633.038	1774.87
633.236	1754.91
633.434	1765.96
633.632	1726.24
633.83	1723.53
634.028	1762.08
634.227	1744.65
634.425	1808.39
634.623	1741.93
634.821	1804.32
635.019	1762.08
635.216	1794.83
635.414	1782.23
635.612	1758.01
635.81	1731.47
636.008	1854.89
636.206	1724.69
636.404	1753.75
636.602	1735.35
636.8	1725.08
636.997	1803.74
637.195	1773.9
637.393	1764.6
637.591	1821.37
637.789	1791.73
637.986	1776.81
638.184	1763.05
638.382	1779.71
638.58	1777.58
638.777	1819.24
638.975	1766.93
639.173	1760.73
639.37	1796.96
639.568	1770.99
639.765	1766.15
639.963	1727.21
640.161	1770.61
640.358	1759.76
640.556	1679.35
640.753	1703.96
640.951	1687.3
641.148	1717.71
641.346	1645.64
641.543	1674.51
641.741	1710.35
641.938	1638.08
642.136	1695.63
642.333	1637.7
642.531	1738.83
642.728	1731.28
642.925	1667.73
643.123	1688.26
643.32	1680.13
643.517	1696.6
643.715	1690.01
643.912	1676.06
644.109	1672.77
644.306	1652.62
644.504	1678.97
644.701	1669.08
644.898	1710.55
645.095	1637.12
645.293	1717.71
645.49	1684.39
645.687	1702.02
645.884	1677.42
646.081	1589.07
646.278	1634.6
646.475	1613.28
646.672	1618.71
646.87	1665.02
647.067	1613.48
647.264	1630.33
647.461	1590.81
647.658	1564.27
647.855	1629.17
648.052	1567.17
648.249	1498.59
648.446	1540.82
648.642	1577.64
648.839	1551.67
649.036	1568.34
649.233	1522.22
649.43	1546.05
649.627	1511.76
649.824	1556.71
650.021	1526.87
650.217	1525.52
650.414	1542.95
650.611	1533.27
650.808	1586.16
651.004	1554
651.201	1579.96
651.398	1632.66
651.595	1562.72
651.791	1525.71
651.988	1617.35
652.185	1522.42
652.381	1613.87
652.578	1509.82
652.775	1534.04
652.971	1565.82
653.168	1556.9
653.364	1596.43
653.561	1495.29
653.757	1554
653.954	1597.59
654.15	1529.39
654.347	1587.71
654.543	1550.51
654.74	1478.82
654.936	1519.51
655.133	1550.9
655.329	1510.6
655.525	1478.82
655.722	1509.24
655.918	1454.02
656.115	1470.11
656.311	1359.86
656.507	1306.97
656.704	1264.54
656.9	1281.59
657.096	1286.05
657.292	1301.93
657.489	1356.38
657.685	1385.24
657.881	1396.87
658.077	1392.03
658.273	1415.08
658.47	1492.97
658.666	1456.93
658.862	1466.81
659.058	1440.85
659.254	1517.38
659.45	1460.03
659.646	1473.98
659.842	1443.76
660.038	1510.21
660.234	1429.81
660.43	1462.94
660.626	1560.2
660.822	1509.05
661.018	1512.92
661.214	1496.07
661.41	1445.69
661.606	1514.86
661.802	1534.04
661.998	1492.58
662.194	1489.48
662.39	1522.8
662.586	1513.5
662.781	1492.58
662.977	1533.07
663.173	1504.4
663.369	1466.81
663.564	1502.66
663.76	1518.35
663.956	1488.9
664.152	1496.07
664.347	1425.74
664.543	1463.91
664.739	1457.51
664.934	1395.71
665.13	1423.02
665.326	1468.17
665.521	1463.32
665.717	1409.85
665.912	1416.63
666.108	1370.91
666.304	1447.63
666.499	1457.12
666.695	1373.23
666.89	1444.53
667.086	1458.48
667.281	1436.97
667.477	1481.54
667.672	1467.59
667.867	1443.17
668.063	1438.33
668.258	1361.61
668.454	1436.78
668.649	1501.49
668.844	1433.87
669.04	1451.7
669.235	1433.49
669.43	1388.93
669.626	1379.63
669.821	1374.2
670.016	1378.66
670.211	1420.89
670.407	1366.45
670.602	1388.54
670.797	1370.33
670.992	1465.46
671.187	1381.76
671.382	1458.29
671.578	1346.3
671.773	1416.83
671.968	1354.05
672.163	1396.09
672.358	1426.12
672.553	1344.36
672.748	1371.1
672.943	1454.22
673.138	1403.26
673.333	1397.06
673.528	1308.71
673.723	1380.59
673.918	1353.86
674.113	1331.38
674.308	1460.61
674.503	1402.1
674.698	1394.54
674.892	1397.84
675.087	1419.54
675.282	1391.64
675.477	1340.1
675.672	1401.13
675.867	1350.95
676.061	1362.96
676.256	1332.16
676.451	1385.44
676.646	1366.64
676.84	1322.08
677.035	1335.45
677.23	1339.71
677.424	1360.44
677.619	1375.94
677.814	1436.59
678.008	1383.5
678.203	1311.43
678.397	1323.05
678.592	1352.89
678.787	1416.83
678.981	1333.32
679.176	1362.38
679.37	1346.11
679.565	1357.15
679.759	1331.38
679.954	1347.08
680.148	1398.81
680.342	1393.38
680.537	1387.57
680.731	1350.76
680.926	1376.91
681.12	1373.62
681.314	1332.54
681.509	1355.21
681.703	1329.06
681.897	1336.23
682.092	1303.1
682.286	1361.03
682.48	1388.93
682.674	1358.89
682.869	1326.73
683.063	1341.46
683.257	1392.8
683.451	1314.14
683.645	1332.35
683.839	1310.26
684.034	1308.13
684.228	1331.19
684.422	1264.15
684.616	1265.51
684.81	1314.53
685.004	1270.55
685.198	1295.93
685.392	1333.71
685.586	1267.83
685.78	1282.95
685.974	1320.53
686.168	1339.71
686.362	1319.56
686.556	1231.99
686.75	1210.87
686.944	1177.55
687.138	1171.15
687.331	1065.76
687.525	1080.48
687.719	985.93
687.913	1059.94
688.107	1065.17
688.301	1042.89
688.494	1109.74
688.688	1069.82
688.882	1038.82
689.076	1036.89
689.269	1059.17
689.463	1170.38
689.657	1090.94
689.85	1093.07
690.044	1126.2
690.238	1091.14
690.431	1067.31
690.625	1097.53
690.818	1116.9
691.012	1122.72
691.205	1167.28
691.399	1095.01
691.593	1186.65
691.786	1169.99
691.98	1203.9
692.173	1202.73
692.366	1206.8
692.56	1215.13
692.753	1252.14
692.947	1164.37
693.14	1244.78
693.333	1209.71
693.527	1165.73
693.72	1211.45
693.914	1211.07
694.107	1204.09
694.3	1221.33
694.493	1156.82
694.687	1222.3
694.88	1174.83
695.073	1262.21
695.266	1232.96
695.46	1215.52
695.653	1257.56
695.846	1271.71
696.039	1192.27
696.232	1217.85
696.425	1291.66
696.618	1274.42
696.812	1259.31
697.005	1317.24
697.198	1400.94
697.391	1326.15
697.584	1380.4
697.777	1380.01
697.97	1344.94
698.163	1364.13
698.356	1328.28
698.549	1454.41
698.742	1386.41
698.935	1366.26
699.127	1382.53
699.32	1355.02
699.513	1349.79
699.706	1396.48
699.899	1429.42
700.092	1374.01
700.285	1453.06
700.477	1383.89
700.67	1443.56
700.863	1437.94
701.056	1553.03
701.248	1506.53
701.441	1459.06
701.634	1455.96
701.826	1554.97
702.019	1466.23
702.212	1540.82
702.404	1482.12
702.597	1458.67
702.79	1501.69
702.982	1542.76
703.175	1596.04
703.367	1579.57
703.56	1606.5
703.752	1697.76
703.945	1677.8
704.137	1649.52
704.33	1729.53
704.522	1699.5
704.715	1695.43
704.907	1730.7
705.1	1739.8
705.292	1795.79
705.484	1754.33
705.677	1789.21
705.869	1777.58
706.061	1866.9
706.254	1915.53
706.446	1811.88
706.638	1837.06
706.831	1912.43
707.023	1862.25
707.215	1982.57
707.407	1956.22
707.599	1932.39
707.792	1969
707.984	1996.9
708.176	2006.98
708.368	1991.67
708.56	2041.27
708.752	1986.64
708.944	2032.94
709.136	2078.86
709.329	2050.57
709.521	2181.93
709.713	2139.31
709.905	2151.51
710.097	2223.01
710.289	2129.04
710.481	2174.57
710.672	2213.9
710.864	2198.98
711.056	2266.41
711.248	2219.91
711.44	2279.39
711.632	2269.89
711.824	2307.09
712.016	2364.44
712.207	2367.93
712.399	2385.17
712.591	2420.44
712.783	2428.57
712.975	2396.02
713.166	2378.97
713.358	2443.1
713.55	2500.45
713.741	2517.31
713.933	2465.97
714.125	2509.17
714.316	2473.33
714.508	2573.88
714.7	2614.57
714.891	2549.08
715.083	2622.32
715.274	2586.48
715.466	2633.56
715.657	2673.47
715.849	2544.24
716.04	2631.81
716.232	2550.63
716.423	2592.29
716.615	2591.32
716.806	2576.6
716.998	2470.03
717.189	2438.84
717.381	2412.88
717.572	2359.6
717.763	2374.71
717.955	2370.64
718.146	2330.34
718.337	2272.8
718.528	2288.69
718.72	2165.85
718.911	2247.81
719.102	2201.5
719.293	2277.26
719.485	2268.93
719.676	2278.03
719.867	2223.39
720.058	2234.24
720.249	2223.59
720.44	2239.67
720.632	2314.07
720.823	2352.62
721.014	2493.87
721.205	2504.52
721.396	2611.08
721.587	2688.97
721.778	2725.59
721.969	2795.53
722.16	2865.47
722.351	2829.63
722.542	3002.26
722.733	3040.81
722.924	2924.57
723.115	3023.38
723.305	2966.61
723.496	3032.68
723.687	2855.98
723.878	2851.72
724.069	2849.2
724.26	2903.25
724.45	2843.19
724.641	2820.91
724.832	2892.6
725.023	2844.94
725.213	2838.74
725.404	2837.77
725.595	2869.35
725.785	2901.32
725.976	2935.42
726.167	2946.85
726.357	2938.52
726.548	3066.39
726.739	2955.57
726.929	3014.85
727.12	3080.53
727.31	3109.4
727.501	3073.75
727.691	3123.54
727.882	3089.83
728.072	3167.52
728.263	3112.89
728.453	3237.08
728.644	3204.92
728.834	3216.54
729.024	3162.49
729.215	3140.79
729.405	3202.98
729.596	3236.89
729.786	3290.94
729.976	3318.65
730.167	3305.28
730.357	3281.25
730.547	3309.54
730.737	3350.23
730.928	3368.25
731.118	3450.59
731.308	3365.15
731.498	3484.69
731.688	3524.21
731.879	3557.93
732.069	3590.28
732.259	3629.22
732.449	3656.16
732.639	3759.42
732.829	3741.4
733.019	3840.6
733.209	3876.25
733.399	3902.6
733.589	3973.32
733.779	3987.66
733.969	3969.25
734.159	4049.07
734.349	4091.7
734.539	4181.02
734.729	4171.52
734.919	4150.02
735.109	4270.72
735.299	4177.14
735.488	4200.59
735.678	4242.43
735.868	4273.63
736.058	4266.07
736.248	4257.55
736.437	4217.44
736.627	4162.22
736.817	4330.4
737.007	4224.61
737.196	4288.35
737.386	4287.38
737.576	4251.15
737.765	4347.45
737.955	4306.76
738.144	4482.87
738.334	4381.93
738.524	4293.97
738.713	4416.42
738.903	4361.2
739.092	4403.24
739.282	4436.57
739.471	4428.43
739.661	4392.78
739.85	4461.95
740.04	4451.88
740.229	4502.25
740.419	4584.01
740.608	4508.45
740.797	4522.01
740.987	4615.79
741.176	4576.07
741.365	4552.82
741.555	4509.22
741.744	4638.45
741.933	4547.39
742.123	4609.2
742.312	4611.14
742.501	4632.84
742.69	4638.65
742.88	4569.87
743.069	4700.07
743.258	4652.99
743.447	4742.11
743.636	4690.38
743.825	4617.34
744.014	4730.29
744.204	4730.68
744.393	4650.47
744.582	4805.66
744.771	4822.71
744.96	4713.05
745.149	4829.68
745.338	4698.52
745.527	4795.78
745.716	4759.16
745.905	4735.13
746.094	4852.16
746.283	4766.91
746.471	4798.88
746.66	4846.93
746.849	4842.86
747.038	4835.3
747.227	4817.48
747.416	4859.13
747.604	4800.43
747.793	4810.7
747.982	4797.91
748.171	4817.09
748.359	4820
748.548	4850.03
748.737	4782.6
748.926	4816.31
749.114	4715.57
749.303	4799.85
749.491	4814.76
749.68	4760.13
749.869	4811.47
750.057	4780.28
750.246	4739.59
750.434	4774.66
750.623	4773.69
750.811	4724.09
751	4773.5
751.188	4710.72
751.377	4768.46
751.565	4759.93
751.754	4750.25
751.942	4691.54
752.131	4793.65
752.319	4730.87
752.507	4704.91
752.696	4745.01
752.884	4732.03
753.072	4704.33
753.261	4730.1
753.449	4688.83
753.637	4670.03
753.825	4797.13
754.014	4756.06
754.202	4742.88
754.39	4752.57
754.578	4772.72
754.766	4681.66
754.955	4620.05
755.143	4770.4
755.331	4720.99
755.519	4710.14
755.707	4704.13
755.895	4656.08
756.083	4691.93
756.271	4638.65
756.459	4623.15
756.647	4692.7
756.835	4624.89
757.023	4654.15
757.211	4615.2
757.399	4588.47
757.587	4609
757.775	4591.57
757.963	4594.09
758.151	4596.6
758.339	4553.79
758.526	4538.29
758.714	4586.34
758.902	4451.49
759.09	4390.65
759.278	4134.52
759.465	3952.98
759.653	3533.32
759.841	3231.27
760.028	2856.37
760.216	2498.52
760.404	2375.68
760.591	2048.63
760.779	1786.3
760.967	1618.32
761.154	1438.33
761.342	1481.73
761.529	1489.48
761.717	1567.95
761.905	1593.72
762.092	1708.61
762.28	1666.18
762.467	1707.06
762.655	1659.59
762.842	1701.63
763.029	1730.11
763.217	1749.88
763.404	1768.48
763.592	1805.87
763.779	1746.58
763.966	1850.63
764.154	1880.85
764.341	1941.49
764.528	1939.75
764.716	2059.29
764.903	2093.97
765.09	2150.74
765.277	2228.04
765.465	2396.99
765.652	2453.76
765.839	2554.51
766.026	2723.65
766.213	2736.63
766.4	2861.79
766.588	3041.59
766.775	3071.43
766.962	3155.13
767.149	3264.01
767.336	3414.17
767.523	3394.6
767.71	3536.81
767.897	3666.23
768.084	3743.92
768.271	3761.94
768.458	3779.96
768.645	3910.55
768.832	3875.86
769.019	3856.49
769.206	3913.84
769.392	3971.58
769.579	4090.34
769.766	4038.42
769.953	4013.04
770.14	4107.01
770.327	4029.89
770.513	4084.53
770.7	4168.04
770.887	4076.39
771.073	4102.74
771.26	4155.05
771.447	4107.2
771.634	4041.13
771.82	4178.69
772.007	4024.28
772.193	4132
772.38	4132.19
772.567	4096.35
772.753	4046.94
772.94	4139.55
773.126	4140.52
773.313	4104.87
773.499	4111.27
773.686	4135.1
773.872	4049.85
774.059	4105.84
774.245	4033.38
774.432	4037.64
774.618	3991.73
774.804	4033.19
774.991	3952.4
775.177	4044.23
775.363	3994.44
775.55	4050.24
775.736	3953.17
775.922	3984.17
776.109	4017.11
776.295	3963.44
776.481	4011.68
776.667	4026.79
776.853	3962.66
777.04	3941.16
777.226	3929.92
777.412	4044.04
777.598	3934.57
777.784	3906.28
777.97	3952.01
778.156	3919.07
778.342	3879.35
778.528	3915
778.715	3861.14
778.901	3845.64
779.087	3902.02
779.272	3850.29
779.458	3844.28
779.644	3825.88
779.83	3801.27
780.016	3924.3
780.202	3832.85
780.388	3816.19
780.574	3749.74
780.76	3779.57
780.946	3838.86
781.131	3812.51
781.317	3781.51
781.503	3694.32
781.689	3771.82
781.874	3897.76
782.06	3715.83
782.246	3763.69
782.432	3749.15
782.617	3741.4
782.803	3769.3
782.989	3709.44
783.174	3694.13
783.36	3636.97
783.545	3677.86
783.731	3664.29
783.916	3572.07
784.102	3686.38
784.288	3638.14
784.473	3645.69
784.659	3626.71
784.844	3651.12
785.029	3604.62
785.215	3590.48
785.4	3537
785.586	3655.96
785.771	3538.94
785.956	3615.66
786.142	3552.69
786.327	3563.74
786.512	3513.56
786.698	3565.68
786.883	3478.68
787.068	3503.1
787.254	3545.53
787.439	3515.5
787.624	3500
787.809	3466.48
787.994	3455.43
788.18	3519.95
788.365	3377.93
788.55	3414.55
788.735	3405.25
788.92	3429.08
789.105	3414.55
789.29	3424.05
789.475	3351.2
789.66	3425.98
789.845	3305.67
790.03	3299.85
790.215	3375.22
790.4	3385.49
790.585	3386.07
790.77	3315.94
790.955	3279.51
791.14	3358.37
791.325	3377.74
791.51	3213.83
791.695	3303.34
791.879	3319.23
792.064	3254.91
792.249	3336.47
792.434	3256.65
792.618	3291.91
792.803	3282.03
792.988	3262.27
793.173	3300.24
793.357	3351.58
793.542	3274.28
793.727	3312.06
793.911	3328.34
794.096	3271.37
794.281	3309.54
794.465	3396.73
794.65	3300.82
794.834	3315.74
795.019	3314.39
795.203	3340.35
795.388	3361.66
795.572	3398.86
795.757	3359.53
795.941	3361.08
796.126	3353.72
796.31	3283.39
796.494	3333.37
796.679	3348.48
796.863	3269.82
797.048	3375.22
797.232	3340.74
797.416	3366.31
797.601	3338.6
797.785	3394.21
797.969	3400.22
798.153	3351.97
798.338	3384.52
798.522	3409.71
798.706	3425.79
798.89	3438.58
799.074	3488.37
799.258	3473.84
799.443	3421.33
799.627	3380.84
799.811	3415.91
799.995	3371.35
800.179	3376
800.363	3361.66
800.547	3421.72
800.731	3410.87
800.915	3300.63
801.099	3360.3
801.283	3357.59
801.467	3309.15
801.651	3346.55
801.835	3421.53
802.019	3381.03
802.202	3381.81
802.386	3311.87
802.57	3291.52
802.754	3338.41
802.938	3341.12
803.121	3320.39
803.305	3400.6
803.489	3354.68
803.673	3358.95
803.856	3350.03
804.04	3347.13
804.224	3377.16
804.407	3351
804.591	3314.19
804.775	3325.82
804.958	3338.8
805.142	3431.8
805.326	3313.22
805.509	3326.2
805.693	3386.46
805.876	3361.47
806.06	3360.88
806.243	3378.13
806.427	3399.05
806.61	3378.9
806.794	3365.34
806.977	3387.23
807.16	3358.17
807.344	3358.17
807.527	3313.8
807.71	3319.81
807.894	3323.69
808.077	3306.64
808.26	3316.9
808.444	3298.89
808.627	3366.5
808.81	3315.94
808.993	3243.09
809.177	3231.85
809.36	3242.7
809.543	3261.69
809.726	3163.07
809.909	3136.91
810.092	3152.41
810.276	3148.54
810.459	3182.83
810.642	3175.27
810.825	3060.77
811.008	3084.99
811.191	3031.13
811.374	3072.2
811.557	3058.64
811.74	3130.52
811.923	3019.7
812.106	2966.8
812.289	2998.58
812.472	2967.77
812.654	2966.03
812.837	2892.79
813.02	2882.52
813.203	2873.42
813.386	2756.2
813.569	2756.59
813.751	2664.94
813.934	2737.99
814.117	2656.23
814.3	2630.85
814.482	2559.55
814.665	2531.84
814.848	2530.48
815.03	2447.17
815.213	2458.22
815.396	2437.1
815.578	2393.5
815.761	2372.77
815.943	2444.07
816.126	2300.51
816.309	2277.84
816.491	2239.28
816.674	2136.6
816.856	2211.77
817.039	2183.1
817.221	2262.14
817.403	2229.79
817.586	2235.79
817.768	2241.99
817.951	2192.4
818.133	2146.28
818.315	2147.06
818.498	2180.58
818.68	2272.61
818.862	2246.26
819.045	2269.12
819.227	2242.38
819.409	2202.47
819.591	2258.08
819.774	2204.21
819.956	2208.28
820.138	2272.61
820.32	2234.24
820.502	2294.89
820.684	2344.68
820.866	2392.92
821.048	2455.5
821.231	2460.15
821.413	2433.22
821.595	2411.72
821.777	2441.55
821.959	2440.2
822.141	2510.14
822.323	2364.83
822.505	2306.9
822.686	2214.48
822.868	2131.56
823.05	2002.33
823.232	1981.6
823.414	1905.26
823.596	1981.4
823.778	1952.73
823.96	1995.55
824.141	2018.99
824.323	2039.92
824.505	2120.51
824.687	2173.8
824.868	2208.86
825.05	2308.06
825.232	2322.98
825.413	2423.73
825.595	2369.48
825.777	2268.34
825.958	2353.21
826.14	2339.26
826.321	2360.96
826.503	2339.26
826.685	2343.13
826.866	2397.38
827.048	2388.47
827.229	2323.76
827.411	2273.38
827.592	2216.03
827.773	2253.81
827.955	2207.89
828.136	2180
828.318	2131.95
828.499	2163.53
828.68	2096.88
828.862	2143.57
829.043	2155.2
829.224	2135.43
829.406	2105.79
829.587	2121.68
829.768	2115.28
829.949	2158.3
830.131	2109.08
830.312	2158.68
830.493	2158.68
830.674	2145.12
830.855	2142.8
831.036	2115.67
831.218	2163.72
831.399	2210.99
831.58	2176.51
831.761	2133.3
831.942	2147.06
832.123	2127.68
832.304	2065.88
832.485	2071.3
832.666	2096.1
832.847	2155.2
833.028	2118.58
833.209	2136.79
833.389	2086.03
833.57	2037.59
833.751	2051.73
833.932	2096.49
834.113	2064.72
834.294	2037.78
834.475	2091.65
834.655	2167.98
834.836	2142.8
835.017	2171.08
835.198	2090.87
835.378	2135.05
835.559	2150.55
835.74	2120.13
835.92	2144.73
836.101	2114.51
836.281	2178.83
836.462	2142.99
836.643	2183.68
836.823	2203.83
837.004	2205.57
837.184	2219.91
837.365	2179.8
837.545	2210.61
837.726	2149.96
837.906	2224.94
838.087	2162.17
838.267	2171.86
838.448	2141.05
838.628	2165.08
838.808	2171.47
838.989	2197.05
839.169	2077.7
839.349	2168.37
839.53	2191.23
839.71	2183.29
839.89	2131.17
840.07	2201.7
840.251	2103.85
840.431	2169.34
840.611	2158.88
840.791	2104.24
840.971	2148.8
841.151	2127.88
841.332	2103.66
841.512	2183.1
841.692	2058.9
841.872	2109.28
842.052	2133.5
842.232	2173.21
842.412	2047.28
842.592	2117.8
842.772	2113.73
842.952	2093.78
843.132	2058.13
843.312	2075.37
843.492	2068.78
843.672	2106.57
843.851	1980.05
844.031	2042.43
844.211	2052.9
844.391	2067.04
844.571	2057.35
844.751	2090.1
844.93	2070.72
845.11	2022.29
845.29	2043.02
845.47	2066.27
845.649	2099.4
845.829	2115.48
846.009	2063.36
846.188	2066.85
846.368	2025.39
846.547	2045.73
846.727	2068.59
846.907	2007.95
847.086	2035.85
847.266	2049.02
847.445	2026.74
847.625	1965.71
847.804	1996.32
847.984	2026.94
848.163	2013.18
848.343	2006.98
848.522	1958.54
848.701	1991.67
848.881	1936.46
849.06	2011.24
849.239	1984.89
849.419	1963.58
849.598	1918.05
849.777	1892.09
849.957	1901.58
850.136	1816.91
850.315	1821.76
850.494	1803.16
850.674	1823.31
850.853	1869.61
851.032	1857.41
851.211	1869.03
851.39	1905.46
851.569	1791.73
851.748	1816.53
851.927	1879.11
852.107	1851.98
852.286	1817.11
852.465	1786.49
852.644	1884.92
852.823	1863.02
853.002	1840.55
853.181	1846.94
853.359	1860.31
853.538	1746.58
853.717	1873.29
853.896	1757.63
854.075	1666.95
854.254	1631.5
854.433	1540.24
854.611	1616.77
854.79	1521.84
854.969	1587.9
855.148	1632.08
855.327	1574.92
855.505	1674.51
855.684	1620.65
855.863	1647.97
856.041	1641.57
856.22	1716.36
856.399	1661.14
856.577	1789.79
856.756	1762.08
856.934	1866.32
857.113	1852.56
857.291	1762.66
857.47	1735.73
857.648	1781.65
857.827	1786.69
858.005	1815.17
858.184	1764.21
858.362	1823.11
858.541	1733.8
858.719	1742.9
858.898	1771.58
859.076	1730.31
859.254	1806.84
859.433	1703.96
859.611	1726.05
859.789	1650.87
859.967	1740.19
860.146	1766.93
860.324	1658.82
860.502	1700.47
860.68	1639.44
860.859	1657.07
861.037	1678.97
861.215	1699.31
861.393	1702.6
861.571	1660.75
861.749	1668.12
861.927	1715.39
862.105	1732.44
862.283	1648.35
862.461	1651.84
862.639	1635.18
862.817	1632.85
862.995	1653.78
863.173	1639.83
863.351	1665.6
863.529	1640.6
863.707	1665.98
863.885	1667.15
864.063	1560.97
864.241	1605.92
864.418	1706.28
864.596	1581.7
864.774	1581.51
864.952	1588.49
865.129	1628.78
865.307	1540.44
865.485	1535.98
865.663	1614.83
865.84	1513.89
866.018	1515.05
866.196	1374.39
866.373	1394.93
866.551	1405.78
866.728	1311.23
866.906	1372.07
867.084	1383.69
867.261	1436.97
867.439	1444.92
867.616	1476.89
867.794	1465.07
867.971	1486.19
868.149	1491.42
868.326	1538.69
868.503	1497.81
868.681	1479.02
868.858	1491.81
869.035	1448.21
869.213	1499.56
869.39	1471.46
869.567	1548.38
869.745	1479.99
869.922	1467.01
870.099	1524.16
870.276	1519.7
870.454	1492.58
870.631	1489.48
870.808	1450.34
870.985	1502.27
871.162	1572.6
871.339	1468.17
871.517	1428.06
871.694	1423.41
871.871	1459.84
872.048	1448.99
872.225	1442.98
872.402	1449.18
872.579	1399.19
872.756	1458.48
872.933	1382.53
873.11	1437.56
873.287	1480.37
873.463	1421.86
873.64	1410.63
873.817	1420.7
873.994	1402.49
874.171	1399.39
874.348	1410.82
874.524	1345.53
874.701	1381.76
874.878	1307.75
875.055	1361.8
875.231	1405.39
875.408	1399.78
875.585	1308.52
875.762	1364.51
875.938	1335.26
876.115	1340.88
876.291	1340.88
876.468	1343.59
876.645	1327.12
876.821	1314.72
876.998	1323.25
877.174	1353.66
877.351	1353.66
877.527	1282.75
877.704	1346.49
877.88	1334.48
878.057	1302.71
878.233	1334.68
878.409	1288.76
878.586	1307.16
878.762	1279.07
878.938	1296.51
879.115	1249.62
879.291	1304.84
879.467	1235.87
879.644	1253.3
879.82	1321.89
879.996	1250.98
880.172	1232.96
880.349	1295.54
880.525	1286.24
880.701	1207.58
880.877	1221.14
881.053	1243.23
881.229	1256.79
881.405	1304.06
881.581	1229.67
881.757	1249.81
881.933	1273.84
882.109	1254.85
882.285	1278.68
882.461	1194.79
882.637	1226.57
882.813	1192.66
882.989	1248.26
883.165	1312.2
883.341	1194.79
883.517	1266.86
883.693	1265.12
883.869	1288.76
884.044	1253.69
884.22	1262.41
884.396	1284.5
884.572	1258.73
884.747	1312.01
884.923	1253.88
885.099	1268.61
885.275	1288.76
885.45	1215.13
885.626	1208.93
885.801	1211.65
885.977	1218.62
886.153	1177.74
886.328	1237.61
886.504	1190.72
886.679	1260.86
886.855	1202.35
887.03	1219.01
887.206	1272.68
887.381	1274.42
887.557	1236.25
887.732	1264.15
887.908	1271.71
888.083	1268.22
888.258	1247.3
888.434	1226.37
888.609	1251.95
888.784	1247.3
888.96	1223.47
889.135	1222.5
889.31	1201.57
889.485	1251.17
889.661	1204.28
889.836	1279.85
890.011	1265.7
890.186	1184.52
890.361	1205.45
890.537	1240.9
890.712	1213.2
890.887	1272.48
891.062	1228.12
891.237	1277.91
891.412	1222.69
891.587	1260.08
891.762	1276.75
891.937	1303.68
892.112	1189.75
892.287	1252.33
892.462	1148.49
892.637	1149.26
892.812	1128.53
892.987	1143.84
893.161	1179.48
893.336	1174.64
893.511	1175.61
893.686	1138.8
893.861	1142.09
894.035	1170.57
894.21	1134.92
894.385	1107.41
894.56	1151.59
894.734	1070.99
894.909	1088.04
895.084	1069.82
895.258	1053.36
895.433	1086.29
895.608	1020.61
895.782	965.2
895.957	1006.86
896.131	1008.6
896.306	935.17
896.48	926.26
896.655	942.14
896.829	856.31
897.004	877.24
897.178	872.59
897.353	877.24
897.527	947.38
897.701	882.66
897.876	863.29
898.05	949.7
898.224	906.49
898.399	958.61
898.573	899.33
898.747	783.47
898.921	849.73
899.096	727.86
899.27	743.36
899.444	738.52
899.618	762.73
899.792	772.62
899.967	786.57
900.141	851.08
900.315	757.12
900.489	776.3
900.663	782.11
900.837	807.3
901.011	728.25
901.185	838.49
901.359	779.59
901.533	781.92
901.707	795.48
901.881	798.19
902.055	727.08
902.229	742.39
902.403	840.04
902.576	806.52
902.75	781.92
902.924	909.98
903.098	843.33
903.272	899.71
903.446	932.26
903.619	908.43
903.793	969.85
903.967	911.73
904.14	968.3
904.314	959.19
904.488	949.31
904.661	946.02
904.835	918.7
905.009	988.64
905.182	1014.22
905.356	981.28
905.529	931.1
905.703	890.41
905.876	895.64
906.05	878.79
906.223	889.64
906.397	809.43
906.57	800.9
906.744	790.25
906.917	790.83
907.09	761.77
907.264	761.57
907.437	754.02
907.61	706.74
907.784	742.78
907.957	759.63
908.13	686.79
908.304	747.04
908.477	690.66
908.65	739.1
908.823	693.37
908.996	748.59
909.17	697.25
909.343	692.6
909.516	706.16
909.689	699.38
909.862	667.99
910.035	673.42
910.208	659.66
910.381	642.03
910.554	766.61
910.727	678.84
910.9	685.82
911.073	651.33
911.246	732.7
911.419	743.94
911.592	728.25
911.765	689.11
911.938	684.85
912.11	711.78
912.283	717.59
912.456	736.58
912.629	711.59
912.802	647.65
912.974	631.57
913.147	600.57
913.32	525.59
913.493	607.35
913.665	611.22
913.838	627.5
914.01	596.89
914.183	620.33
914.356	621.3
914.528	661.6
914.701	693.95
914.873	661.6
915.046	619.56
915.218	612.58
915.391	531.01
915.563	516.29
915.736	581.39
915.908	603.47
916.081	594.95
916.253	587.97
916.425	631.76
916.598	631.37
916.77	617.23
916.942	578.29
917.115	505.63
917.287	593.01
917.459	546.9
917.632	538.96
917.804	483.16
917.976	544.58
918.148	559.11
918.32	573.83
918.493	640.09
918.665	638.93
918.837	614.71
919.009	641.64
919.181	642.03
919.353	612.77
919.525	621.69
919.697	605.99
919.869	602.89
920.041	657.92
920.213	723.02
920.385	644.74
920.557	629.05
920.729	649
920.901	622.07
921.073	600.37
921.244	600.18
921.416	647.07
921.588	589.91
921.76	598.63
921.932	679.23
922.103	604.83
922.275	602.7
922.447	628.86
922.619	539.93
922.79	617.62
922.962	596.69
923.134	614.13
923.305	572.09
923.477	539.34
923.648	565.5
923.82	559.3
923.991	484.32
924.163	506.79
924.335	559.3
924.506	497.11
924.677	596.11
924.849	524.23
925.02	576.16
925.192	575.96
925.363	528.49
925.535	518.03
925.706	509.51
925.877	582.16
926.049	520.94
926.22	507.96
926.391	554.65
926.562	582.94
926.734	504.47
926.905	575.96
927.076	481.8
927.247	511.44
927.419	466.69
927.59	462.23
927.761	481.99
927.932	454.29
928.103	463.78
928.274	393.65
928.445	423.29
928.616	457.78
928.787	420.77
928.958	437.82
929.129	413.41
929.3	404.88
929.471	353.93
929.642	324.48
929.813	257.05
929.984	357.61
930.155	273.14
930.326	309.95
930.496	261.12
930.667	218.89
930.838	284.76
931.009	204.94
931.18	235.55
931.35	242.33
931.521	247.95
931.692	181.3
931.863	149.91
932.033	203
932.204	192.15
932.374	205.52
932.545	155.72
932.716	228.77
932.886	198.93
933.057	109.23
933.227	150.11
933.398	192.73
933.568	100.89
933.739	98.18
933.909	93.92
934.08	144.68
934.25	68.54
934.421	78.61
934.591	120.46
934.761	113.49
934.932	18.94
935.102	103.22
935.272	101.86
935.443	95.66
935.613	109.03
935.783	134.8
935.953	67.76
936.123	228.77
936.294	61.18
936.464	89.27
936.634	108.45
936.804	61.18
936.974	37.54
937.144	144.87
937.314	90.82
937.484	77.06
937.655	81.71
937.825	139.06
937.995	75.32
938.165	115.23
938.334	119.88
938.504	137.12
938.674	122.4
938.844	133.06
939.014	182.46
939.184	163.09
939.354	231.67
939.524	192.54
939.694	151.07
939.863	142.16
940.033	228.57
940.203	207.45
940.373	200.48
940.542	211.14
940.712	158.63
940.882	184.4
941.051	194.28
941.221	194.47
941.391	192.54
941.56	164.44
941.73	142.36
941.899	286.5
942.069	155.14
942.238	179.17
942.408	140.42
942.577	169.29
942.747	138.29
942.916	91.79
943.086	119.11
943.255	165.02
943.425	152.24
943.594	104.19
943.763	57.69
943.933	117.94
944.102	49.74
944.271	94.89
944.441	126.66
944.61	91.21
944.779	121.82
944.948	212.1
945.117	79.39
945.287	99.15
945.456	36.18
945.625	91.21
945.794	97.6
945.963	89.85
946.132	120.07
946.301	111.36
946.47	148.17
946.639	36.96
946.808	98.96
946.977	130.15
947.146	166.96
947.315	117.17
947.484	153.01
947.653	122.59
947.822	94.31
947.991	93.73
948.16	196.99
948.329	148.75
948.498	127.63
948.666	116.01
948.835	162.89
949.004	67.57
949.173	97.6
949.341	126.86
949.51	127.05
949.679	155.14
949.847	124.14
950.016	216.37
950.185	196.99
950.353	86.56
950.522	123.17
950.69	165.99
950.859	82.68
951.028	163.09
951.196	107.68
951.365	100.89
951.533	108.06
951.701	159.21
951.87	128.21
952.038	79.19
952.207	110.58
952.375	190.6
952.543	116.39
952.712	109.61
952.88	100.89
953.048	177.42
953.217	126.86
953.385	121.43
953.553	158.05
953.721	100.12
953.89	114.26
954.058	71.25
954.226	78.42
954.394	124.72
954.562	46.45
954.73	123.95
954.898	109.42
955.067	131.7
955.235	96.44
955.403	156.5
955.571	182.66
955.739	117.17
955.907	79.19
956.075	91.4
956.243	71.25
956.41	124.53
956.578	83.84
956.746	49.74
956.914	109.81
957.082	140.22
957.25	131.31
957.418	99.15
957.585	124.14
957.753	168.12
957.921	87.53
958.089	120.85
958.256	109.23
958.424	120.66
958.592	99.73
958.759	90.24
958.927	122.79
959.095	73.38
959.262	125.31
959.43	132.67
959.597	83.84
959.765	103.22
959.932	71.83
960.1	159.21
960.267	82.29
960.435	97.41
960.602	149.14
960.77	92.76
960.937	75.32
961.104	108.26
961.272	76.48
961.439	122.4
961.606	141
961.774	157.08
961.941	89.46
962.108	140.03
962.275	122.59
962.443	180.91
962.61	144.29
962.777	204.16
962.944	153.59
963.111	142.36
963.278	147.2
963.446	127.82
963.613	131.7
963.78	153.21
963.947	141.77
964.114	120.85
964.281	194.47
964.448	135.57
964.615	106.51
964.782	141.97
964.949	156.89
965.116	148.56
965.282	176.07
965.449	116.2
965.616	99.15
965.783	173.36
965.95	170.45
966.117	81.33
966.283	130.92
966.45	147.01
966.617	156.69
966.784	157.27
966.95	150.69
967.117	169.48
967.284	96.24
967.45	121.04
967.617	184.79
967.784	192.92
967.95	205.13
968.117	154.56
968.283	167.74
968.45	227.6
968.616	167.74
968.783	187.31
968.949	166.19
969.116	190.21
969.282	157.47
969.449	153.79
969.615	143.71
969.781	113.49
969.948	143.91
970.114	128.41
970.28	205.9
970.447	149.52
970.613	182.66
970.779	139.84
970.945	172.97
971.112	177.23
971.278	152.43
971.444	157.08
971.61	174.32
971.776	125.11
971.942	155.72
972.108	183.24
972.275	128.21
972.441	162.89
972.607	215.59
972.773	120.85
972.939	140.22
973.105	152.62
973.271	116.2
973.437	128.41
973.602	109.42
973.768	141.19
973.934	109.42
974.1	152.82
974.266	75.9
974.432	143.91
974.598	133.06
974.763	165.41
974.929	112.91
975.095	231.67
975.261	103.99
975.426	86.94
975.592	126.47
975.758	214.62
975.923	80.16
976.089	122.59
976.255	159.02
976.42	128.21
976.586	135.38
976.751	151.66
976.917	228.57
977.082	139.64
977.248	98.18
977.413	58.27
977.579	115.81
977.744	157.66
977.91	99.34
978.075	96.05
978.24	167.74
978.406	104.19
978.571	100.7
978.736	110.58
978.902	139.64
979.067	101.86
979.232	60.98
979.397	136.54
979.563	170.64
979.728	85.59
979.893	124.53
980.058	101.09
980.223	141.39
980.388	133.64
980.554	126.66
980.719	100.7
980.884	158.44
981.049	170.64
981.214	81.91
981.379	139.26
981.544	101.09
981.709	115.42
981.874	109.23
982.039	128.79
982.204	144.87
982.368	115.62
982.533	86.17
982.698	148.75
982.863	144.1
983.028	91.79
983.193	152.82
983.357	113.68
983.522	126.27
983.687	119.88
983.852	76.29
984.016	88.11
984.181	114.26
984.346	159.6
984.51	138.29
984.675	127.24
984.839	140.81
985.004	140.03
985.168	155.53
985.333	131.12
985.498	133.06
985.662	117.56
985.827	130.54
985.991	129.96
986.155	106.51
986.32	134.8
986.484	168.71
986.649	139.26
986.813	77.64
986.977	131.51
987.142	125.5
987.306	103.41
987.47	82.68
987.634	131.12
987.799	125.69
987.963	122.01
988.127	135.77
988.291	199.32
988.455	103.22
988.62	92.76
988.784	135.19
988.948	173.55
989.112	94.11
989.276	120.46
989.44	109.42
989.604	86.75
989.768	77.26
989.932	171.22
990.096	77.06
990.26	72.99
990.424	80.74
990.588	87.14
990.752	167.93
990.915	129.96
991.079	95.66
991.243	81.13
991.407	132.28
991.571	81.91
991.734	117.75
991.898	120.07
992.062	172.58
992.226	104.19
992.389	73.38
992.553	60.21
992.717	56.33
992.88	69.31
993.044	97.41
993.207	96.05
993.371	136.93
993.535	87.72
993.698	110
993.862	113.87
994.025	133.83
994.189	120.07
994.352	90.24
994.515	103.8
994.679	135.96
994.842	65.83
995.006	151.46
995.169	67.57
995.332	62.14
995.496	119.88
995.659	36.38
995.822	104.96
995.985	61.37
996.149	155.34
996.312	88.88
996.475	159.02
996.638	85.2
996.801	140.81
996.964	132.67
997.128	74.74
997.291	80.55
997.454	100.12
997.617	54.2
997.78	120.07
997.943	53.04
998.106	134.99
998.269	61.18
998.432	66.21
998.595	83.65
998.758	51.68
998.92	68.34
999.083	6.35
999.246	84.23
999.409	23.01
999.572	24.36
999.735	48
999.897	92.37
1000.06	55.75
1000.223	73.58
1000.386	114.65
1000.548	113.49
1000.711	79.39
1000.874	91.98
1001.036	41.8
1001.199	120.85
1001.361	44.9
1001.524	79.19
1001.687	127.63
1001.849	36.76
1002.012	92.18
1002.174	59.82
1002.337	117.17
1002.499	89.66
1002.661	113.29
1002.824	19.33
1002.986	54.59
1003.149	76.48
1003.311	20.68
1003.473	144.49
1003.636	69.31
1003.798	103.41
1003.96	65.24
1004.123	83.65
1004.285	64.28
1004.447	59.43
1004.609	60.01
1004.771	118.52
1004.933	23.01
1005.096	53.23
1005.258	14.48
1005.42	39.09
1005.582	105.16
1005.744	70.09
1005.906	22.23
1006.068	73.38
1006.23	6.54
1006.392	26.11
1006.554	29.59
1006.716	100.31
1006.878	63.31
1007.04	8.86
1007.202	62.53
1007.363	84.23
1007.525	43.54
1007.687	78.23
1007.849	114.26
1008.011	2.66
1008.172	11.58
1008.334	60.4
1008.496	77.45
1008.658	-5.28
1008.819	29.59
1008.981	-6.44
1009.143	39.48
1009.304	53.23
1009.466	82.68
1009.627	100.7
1009.789	118.91
1009.95	75.9
1010.112	18.16
1010.273	74.35
1010.435	37.54
1010.596	29.59
1010.758	50.13
1010.919	27.08
1011.081	23.01
1011.242	63.69
1011.403	85.39
1011.565	54.01
1011.726	56.91
1011.887	5.76
1012.049	49.55
1012.21	79.19
1012.371	104.77
1012.532	-20
1012.693	50.91
1012.855	41.8
1013.016	35.99
1013.177	106.51
1013.338	40.83
1013.499	120.27
1013.66	68.54
1013.821	53.04
1013.982	70.09
1014.143	49.74
1014.304	34.24
1014.465	69.7
1014.626	81.33
1014.787	26.69
1014.948	96.24
1015.109	-20.59
1015.27	88.11
1015.431	33.08
1015.592	41.99
1015.752	86.94
1015.913	63.31
1016.074	40.06
1016.235	46.06
1016.395	47.42
1016.556	46.26
1016.717	17.97
1016.877	83.07
1017.038	-15.74
1017.199	46.45
1017.359	62.92
1017.52	37.34
1017.681	28.82
1017.841	40.83
1018.002	32.89
1018.162	32.69
1018.323	98.18
1018.483	24.56
1018.644	11.19
1018.804	8.28
1018.964	-12.06
1019.125	9.06
1019.285	54.59
1019.446	31.34
1019.606	6.93
1019.766	-18.45
1019.926	39.09
1020.087	37.93
1020.247	-5.28
1020.407	57.3
1020.567	66.99
1020.728	7.9
1020.888	-4.31
1021.048	6.93
1021.208	-11.87
1021.368	1.5
1021.528	86.56
1021.688	53.81
1021.848	68.15
1022.008	45.87
1022.168	20.3
1022.328	34.44
1022.488	56.72
1022.648	19.13
1022.808	28.43
1022.968	44.13
1023.128	-1.4
1023.288	4.41
1023.448	22.04
1023.608	45.29
1023.767	39.48
1023.927	0.34
1024.087	-16.32
1024.247	-17.49
1024.406	15.45
1024.566	-21.75
1024.726	10.8
1024.885	19.33
1025.045	56.72
1025.205	7.12
1025.364	21.65
1025.524	54.2
1025.683	29.21
1025.843	47.23
1026.003	34.44
1026.162	65.05
1026.321	72.61
1026.481	27.66
1026.64	12.74
1026.8	24.75
1026.959	61.95
1027.119	19.91
1027.278	12.55
1027.437	17
1027.597	38.31
1027.756	43.35
1027.915	44.51
1028.074	50.71
1028.234	3.05
1028.393	43.35
1028.552	5.57
1028.711	-59.14
1028.87	48
1029.03	-44.03
1029.189	8.86
1029.348	-32.6
1029.507	11.58
1029.666	1.7
1029.825	-4.5
1029.984	-10.32
1030.143	32.5
1030.302	6.73
1030.461	-24.27
1030.62	26.49
1030.779	35.79
1030.938	18.16
1031.097	5.18
1031.255	50.52
1031.414	71.25
1031.573	56.53
1031.732	-37.64
1031.891	16.23
1032.049	57.88
1032.208	36.18
1032.367	12.35
1032.525	1.11
1032.684	14.1
1032.843	2.28
1033.001	-28.92
1033.16	143.52
1033.319	44.71
1033.477	38.12
1033.636	5.18
1033.794	-31.05
1033.953	41.03
1034.111	30.76
1034.27	13.9
1034.428	48.19
1034.587	-15.55
1034.745	18.55
1034.903	16.23
1035.062	62.14
1035.22	-10.32
1035.378	46.06
1035.537	2.08
1035.695	57.11
1035.853	8.09
1036.011	43.93
1036.17	44.9
1036.328	-32.6
1036.486	10.22
1036.644	10.03
1036.802	-52.55
1036.96	-6.25
1037.119	-3.54
1037.277	-8.38
1037.435	-49.07
1037.593	-29.5
1037.751	28.24
1037.909	50.52
1038.067	50.52
