Data from gum_old_FLMT105791__113__15-46-02-253.txt Node

Date: Mon Mar 20 15:46:02 GMT 2023
User: antho
Spectrometer: FLMT10579
Trigger mode: 0
Integration Time (sec): 1.000000E-1
Scans to average: 10
Electric dark correction enabled: true
Nonlinearity correction enabled: false
Boxcar width: 0
XAxis mode: Wavelengths
Number of Pixels in Spectrum: 3648
>>>>>Begin Spectral Data<<<<<
345.248	-167.77
345.464	-167.77
345.681	-167.77
345.898	-167.19
346.114	-182.49
346.331	-45.71
346.548	44.38
346.764	4.67
346.981	8.15
347.197	-36.99
347.414	12.03
347.631	-1.53
347.847	72.09
348.064	0.02
348.28	18.03
348.497	-37.76
348.713	-37.38
348.93	21.91
349.146	44.19
349.363	17.84
349.579	26.95
349.796	6.99
350.012	-11.41
350.229	68.02
350.445	15.71
350.661	-7.73
350.878	3.31
351.094	37.22
351.311	27.14
351.527	29.47
351.743	-1.53
351.96	44.97
352.176	60.47
352.392	40.7
352.609	48.26
352.825	-17.81
353.041	40.51
353.257	24.23
353.474	27.33
353.69	34.89
353.906	43.22
354.122	-2.5
354.339	66.67
354.555	40.32
354.771	6.02
354.987	70.54
355.203	83.52
355.42	15.32
355.636	31.79
355.852	-19.55
356.068	19.39
356.284	-27.3
356.5	81
356.716	35.28
356.932	15.9
357.148	53.1
357.364	6.41
357.58	76.74
357.796	66.47
358.012	95.34
358.228	21.91
358.444	-47.06
358.66	87.2
358.876	43.03
359.092	10.87
359.308	34.7
359.524	63.95
359.74	-8.51
359.956	19.2
360.172	29.85
360.388	82.16
360.604	23.65
360.819	113.75
361.035	47.87
361.251	29.66
361.467	10.87
361.683	88.56
361.898	32.57
362.114	82.75
362.33	47.29
362.546	61.05
362.762	36.25
362.977	40.51
363.193	-19.36
363.409	55.04
363.624	-2.89
363.84	-2.89
364.056	9.12
364.271	45.35
364.487	49.23
364.703	7.38
364.918	-2.31
365.134	31.02
365.35	23.85
365.565	161.8
365.781	52.52
365.996	46.32
366.212	98.63
366.427	67.83
366.643	35.47
366.858	33.92
367.074	21.13
367.289	87.01
367.505	150.36
367.72	-8.7
367.936	24.62
368.151	69.96
368.367	46.9
368.582	52.13
368.798	34.31
369.013	95.53
369.228	37.41
369.444	59.5
369.659	104.25
369.874	69.77
370.09	115.3
370.305	-18.78
370.52	38.96
370.736	123.63
370.951	39.54
371.166	130.41
371.381	126.73
371.597	72.48
371.812	32.76
372.027	16.68
372.242	42.06
372.458	110.06
372.673	58.14
372.888	48.65
373.103	63.37
373.318	144.94
373.533	67.44
373.749	68.8
373.964	2.73
374.179	75.97
374.394	26.95
374.609	87.78
374.824	23.27
375.039	82.75
375.254	23.46
375.469	110.26
375.684	61.82
375.899	91.85
376.114	52.72
376.329	57.75
376.544	113.94
376.759	82.94
376.974	36.25
377.189	28.5
377.404	53.1
377.619	101.15
377.834	11.83
378.049	6.22
378.264	30.05
378.478	79.84
378.693	68.6
378.908	75.58
379.123	63.57
379.338	89.33
379.553	79.84
379.767	84.49
379.982	75.97
380.197	105.61
380.412	43.42
380.626	77.32
380.841	159.47
381.056	88.95
381.271	134.09
381.485	69.38
381.7	41.67
381.915	71.9
382.129	29.85
382.344	88.95
382.559	69.77
382.773	105.8
382.988	-2.5
383.202	76.16
383.417	24.82
383.632	142.03
383.846	67.83
384.061	49.42
384.275	60.08
384.49	96.89
384.704	90.5
384.919	67.63
385.133	67.44
385.348	110.26
385.562	22.1
385.777	129.25
385.991	103.28
386.206	30.82
386.42	46.13
386.634	116.46
386.849	104.25
387.063	71.7
387.277	45.55
387.492	71.7
387.706	51.17
387.92	44.38
388.135	101.93
388.349	87.59
388.563	67.25
388.778	76.16
388.992	112.58
389.206	87.98
389.42	185.24
389.635	101.73
389.849	122.08
390.063	131.38
390.277	100.57
390.491	167.99
390.706	122.85
390.92	151.72
391.134	85.46
391.348	153.46
391.562	61.43
391.776	118.59
391.99	76.74
392.205	164.31
392.419	102.7
392.633	118.2
392.847	165.86
393.061	63.95
393.275	165.86
393.489	81.2
393.703	93.98
393.917	105.61
394.131	40.51
394.345	90.69
394.559	133.31
394.773	83.71
394.986	132.15
395.2	110.26
395.414	152.69
395.628	79.84
395.842	128.28
396.056	98.83
396.27	66.28
396.484	126.53
396.697	151.53
396.911	137
397.125	134.09
397.339	103.09
397.553	79.84
397.766	162.76
397.98	130.99
398.194	183.49
398.408	134.67
398.621	162.57
398.835	197.64
399.049	141.26
399.262	191.63
399.476	180.78
399.69	196.86
399.903	228.06
400.117	191.05
400.331	210.04
400.544	162.96
400.758	284.44
400.971	200.74
401.185	201.32
401.398	162.76
401.612	258.67
401.826	216.43
402.039	220.89
402.253	177.29
402.466	216.63
402.68	205.39
402.893	210.62
403.106	201.32
403.32	204.81
403.533	235.42
403.747	237.16
403.96	217.4
404.174	227.67
404.387	156.37
404.6	225.15
404.814	239.68
405.027	239.49
405.24	202.68
405.454	229.8
405.667	249.56
405.88	162.76
406.094	225.15
406.307	240.84
406.52	224.76
406.733	205
406.947	194.15
407.16	270.68
407.373	272.04
407.586	192.6
407.799	185.43
408.012	231.16
408.226	210.81
408.439	312.14
408.652	215.27
408.865	234.45
409.078	302.46
409.291	256.92
409.504	200.74
409.717	278.43
409.93	255.37
410.143	254.02
410.357	195.31
410.57	193.76
410.783	214.69
410.996	224.96
411.209	235.61
411.421	272.04
411.634	248.21
411.847	214.49
412.06	236.39
412.273	241.04
412.486	247.63
412.699	341.21
412.912	265.84
413.125	276.3
413.338	275.14
413.55	298
413.763	285.21
413.976	256.34
414.189	261.19
414.402	246.08
414.615	305.36
414.827	240.07
415.04	304.78
415.253	277.07
415.466	308.27
415.678	360.58
415.891	264.29
416.104	254.6
416.316	262.74
416.529	258.28
416.742	329.77
416.954	326.48
417.167	243.17
417.38	287.73
417.592	300.32
417.805	253.05
418.017	245.88
418.23	291.8
418.442	250.34
418.655	272.62
418.868	320.86
419.08	306.91
419.293	328.42
419.505	304.01
419.718	346.24
419.93	327.45
420.142	260.8
420.355	344.11
420.567	336.75
420.78	293.16
420.992	274.56
421.205	341.21
421.417	264.29
421.629	295.09
421.842	269.71
422.054	266.03
422.266	351.67
422.479	343.53
422.691	284.82
422.903	325.9
423.115	275.14
423.328	299.55
423.54	309.62
423.752	287.54
423.964	299.16
424.177	316.02
424.389	307.88
424.601	412.89
424.813	305.56
425.025	357.09
425.238	328.22
425.45	309.04
425.662	311.76
425.874	614
426.086	295.48
426.298	333.26
426.51	331.91
426.722	287.73
426.934	316.21
427.146	348.18
427.358	283.08
427.57	340.43
427.782	307.11
427.994	318.92
428.206	307.69
428.418	277.07
428.63	356.9
428.842	363.29
429.054	308.27
429.266	334.23
429.478	298.77
429.69	302.26
429.902	254.79
430.114	338.69
430.325	301.49
430.537	281.14
430.749	267
430.961	204.03
431.173	273.97
431.384	267
431.596	208.88
431.808	253.44
432.02	331.71
432.231	350.12
432.443	422.77
432.655	385.77
432.867	321.44
433.078	371.43
433.29	419.67
433.502	380.73
433.713	415.99
433.925	408.63
434.136	442.73
434.348	310.59
434.56	303.81
434.771	474.31
434.983	308.07
435.194	357.29
435.406	400.69
435.617	433.82
435.829	450.09
436.04	403.01
436.252	408.63
436.463	447.57
436.675	461.91
436.886	428.39
437.098	426.26
437.309	505.89
437.521	427.04
437.732	410.18
437.943	462.49
438.155	397.2
438.366	357.29
438.578	449.7
438.789	400.3
439	405.34
439.211	360.97
439.423	388.48
439.634	439.24
439.845	427.81
440.057	461.91
440.268	462.88
440.479	421.8
440.69	444.86
440.902	442.92
441.113	426.07
441.324	428.97
441.535	465.4
441.746	521.97
441.957	420.64
442.168	463.65
442.38	487.68
442.591	519.26
442.802	434.78
443.013	443.89
443.224	481.28
443.435	454.55
443.646	466.56
443.857	454.16
444.068	461.72
444.279	424.9
444.49	539.21
444.701	494.65
444.912	604.51
445.123	548.9
445.334	515
445.545	495.04
445.756	492.13
445.967	447.96
446.178	510.35
446.388	518.68
446.599	502.4
446.81	483.8
447.021	455.52
447.232	529.91
447.443	521.39
447.653	484.77
447.864	533.21
448.075	530.5
448.286	548.13
448.496	519.26
448.707	550.84
448.918	522.16
449.129	630.28
449.339	504.15
449.55	559.75
449.761	504.92
449.971	555.1
450.182	509.38
450.393	530.69
450.603	529.72
450.814	579.13
451.024	572.15
451.235	580.29
451.446	621.36
451.656	614.97
451.867	531.27
452.077	567.7
452.288	599.66
452.498	629.5
452.709	552.78
452.919	547.35
453.13	497.17
453.34	593.85
453.55	525.07
453.761	575.25
453.971	567.11
454.182	563.43
454.392	562.08
454.602	624.85
454.813	554.52
455.023	622.91
455.233	487.29
455.444	542.12
455.654	437.11
455.864	524.88
456.075	530.5
456.285	527.2
456.495	546.96
456.705	581.45
456.916	627.95
457.126	614.78
457.336	577.96
457.546	525.07
457.756	535.34
457.967	630.08
458.177	570.21
458.387	573.7
458.597	564.21
458.807	547.93
459.017	580.48
459.227	549.87
459.437	543.28
459.647	589.4
459.857	600.63
460.068	560.33
460.278	631.05
460.488	605.28
460.698	627.76
460.908	574.86
461.117	535.53
461.327	553.16
461.537	605.28
461.747	595.98
461.957	624.27
462.167	707.77
462.377	664.18
462.587	621.75
462.797	654.69
463.007	591.72
463.216	642.48
463.426	658.56
463.636	632.99
463.846	584.36
464.056	597.92
464.265	649.46
464.475	587.85
464.685	616.52
464.895	664.38
465.104	590.95
465.314	665.73
465.524	607.99
465.733	600.25
465.943	693.82
466.153	713.2
466.362	678.91
466.572	657.79
466.782	642.29
466.991	651.39
467.201	700.02
467.41	589.78
467.62	666.89
467.829	628.73
468.039	662.24
468.249	646.94
468.458	651.78
468.668	680.65
468.877	681.43
469.086	709.52
469.296	723.08
469.505	674.84
469.715	776.56
469.924	697.12
470.134	707
470.343	721.53
470.552	693.44
470.762	680.65
470.971	647.91
471.18	706.03
471.39	669.22
471.599	655.27
471.808	738.58
472.018	679.49
472.227	750.98
472.436	771.13
472.645	739.74
472.855	696.54
473.064	791.09
473.273	762.8
473.482	740.13
473.691	791.67
473.901	798.45
474.11	742.46
474.319	857.15
474.528	756.02
474.737	831.58
474.946	814.14
475.155	797.67
475.364	841.65
475.573	821.12
475.783	801.94
475.992	842.24
476.201	846.3
476.41	788.95
476.619	767.45
476.828	799.42
477.037	766.87
477.245	797.67
477.454	860.84
477.663	809.3
477.872	836.42
478.081	923.61
478.29	827.9
478.499	967.59
478.708	864.52
478.917	955.19
479.125	863.16
479.334	875.75
479.543	854.83
479.752	910.82
479.961	939.3
480.169	956.74
480.378	887.38
480.587	1055.74
480.796	929.23
481.004	961.97
481.213	952.87
481.422	978.83
481.63	956.35
481.839	1007.89
482.048	1015.45
482.256	962.36
482.465	1028.04
482.674	1013.31
482.882	1010.99
483.091	1077.83
483.299	973.21
483.508	1034.43
483.716	997.23
483.925	1024.55
484.134	992.78
484.342	993.94
484.551	1036.95
484.759	1023.39
484.967	1041.41
485.176	1061.56
485.384	1089.65
485.593	1108.83
485.801	1066.59
486.01	1021.84
486.218	979.02
486.426	862.97
486.635	931.75
486.843	911.98
487.051	938.92
487.26	920.12
487.468	990.65
487.676	1031.72
487.885	1008.86
488.093	1047.99
488.301	1087.71
488.509	1049.54
488.717	1087.52
488.926	1082.87
489.134	1055.94
489.342	1081.9
489.55	1008.47
489.758	1076.28
489.967	1084.23
490.175	1188.85
490.383	1098.18
490.591	1217.91
490.799	1114.06
491.007	1189.82
491.215	1139.83
491.423	1133.05
491.631	1138.47
491.839	1167.54
492.047	1185.36
492.255	1086.74
492.463	1064.08
492.671	1085.78
492.879	1161.92
493.087	1117.16
493.295	1172.96
493.503	1213.84
493.711	1221.2
493.919	1235.93
494.127	1236.9
494.334	1251.82
494.542	1167.15
494.75	1193.31
494.958	1188.27
495.166	1257.44
495.374	1237.29
495.581	1265.38
495.789	1268.09
495.997	1324.47
496.205	1222.75
496.412	1209.19
496.62	1242.32
496.828	1263.05
497.035	1245.81
497.243	1269.84
497.451	1262.86
497.658	1275.26
497.866	1250.07
498.074	1337.65
498.281	1249.1
498.489	1313.82
498.696	1271.97
498.904	1253.17
499.112	1220.43
499.319	1333.58
499.527	1244.26
499.734	1301.22
499.942	1254.92
500.149	1259.37
500.357	1289.79
500.564	1241.55
500.771	1246.59
500.979	1221.01
501.186	1220.62
501.394	1288.05
501.601	1259.95
501.808	1269.45
502.016	1254.92
502.223	1262.47
502.43	1230.31
502.638	1264.02
502.845	1221.59
503.052	1328.93
503.26	1269.64
503.467	1342.88
503.674	1295.41
503.881	1303.93
504.089	1370.58
504.296	1339.39
504.503	1246.97
504.71	1283.79
504.917	1290.57
505.125	1297.15
505.332	1325.25
505.539	1306.84
505.746	1394.61
505.953	1382.21
506.16	1366.52
506.367	1419.41
506.574	1409.53
506.781	1433.94
506.988	1327.57
507.195	1366.13
507.402	1346.37
507.609	1384.34
507.816	1335.9
508.023	1315.17
508.23	1368.07
508.437	1294.05
508.644	1352.95
508.851	1393.64
509.058	1422.51
509.265	1361.67
509.472	1410.88
509.679	1476.56
509.885	1403.91
510.092	1410.88
510.299	1403.33
510.506	1397.71
510.713	1426.77
510.92	1390.73
511.126	1411.08
511.333	1469.4
511.54	1422.9
511.746	1449.63
511.953	1466.68
512.16	1477.34
512.367	1459.32
512.573	1442.08
512.78	1451.96
512.987	1412.05
513.193	1421.54
513.4	1341.13
513.606	1414.95
513.813	1450.6
514.02	1411.85
514.226	1497.1
514.433	1485.67
514.639	1369.81
514.846	1417.47
515.052	1410.88
515.259	1437.23
515.465	1445.56
515.672	1454.48
515.878	1529.07
516.085	1453.9
516.291	1506.01
516.497	1491.48
516.704	1474.24
516.91	1422.9
517.117	1332.42
517.323	1273.13
517.529	1342.3
517.736	1333.77
517.942	1337.65
518.148	1325.44
518.354	1427.16
518.561	1388.6
518.767	1425.61
518.973	1461.45
519.179	1438.59
519.386	1426.19
519.592	1439.95
519.798	1428.71
520.004	1555.61
520.21	1505.63
520.417	1569.37
520.623	1596.69
520.829	1608.89
521.035	1592.23
521.241	1604.82
521.447	1580.02
521.653	1734.64
521.859	1617.81
522.065	1644.16
522.271	1723.01
522.477	1674.19
522.683	1724.17
522.889	1701.89
523.095	1696.66
523.301	1686.97
523.507	1613.74
523.713	1665.85
523.919	1636.21
524.125	1734.64
524.331	1656.75
524.537	1768.54
524.742	1771.45
524.948	1796.05
525.154	1803.42
525.36	1895.06
525.566	1806.9
525.772	1856.5
525.977	1788.88
526.183	1794.31
526.389	1827.25
526.595	1768.73
526.8	1756.14
527.006	1660.24
527.212	1655.97
527.417	1603.27
527.623	1633.69
527.829	1698.79
528.034	1729.6
528.24	1740.45
528.446	1765.05
528.651	1865.41
528.857	1851.66
529.062	1909.01
529.268	1857.66
529.473	1901.26
529.679	1899.51
529.884	2004.14
530.09	1941.36
530.295	1956.09
530.501	1952.6
530.706	1950.47
530.912	1930.71
531.117	1945.63
531.323	1921.41
531.528	1991.35
531.733	2014.99
531.939	1945.82
532.144	1995.81
532.35	1970.62
532.555	2011.11
532.76	1989.61
532.966	1963.84
533.171	1958.61
533.376	1900.68
533.581	1859.41
533.787	1896.03
533.992	1939.04
534.197	1977.98
534.402	1971.98
534.607	1988.83
534.813	2075.05
535.018	1964.61
535.223	1976.04
535.428	1981.08
535.633	2081.64
535.838	2072.34
536.043	2048.51
536.249	2145.96
536.454	2076.99
536.659	2098.88
536.864	2033.01
537.069	2049.67
537.274	2039.79
537.479	2052.77
537.684	2025.26
537.889	1995.42
538.094	2121.74
538.299	2005.49
538.504	2070.79
538.708	2058.77
538.913	2125.42
539.118	2075.24
539.323	2082.99
539.528	2063.81
539.733	2085.9
539.938	2086.48
540.142	2082.41
540.347	2050.83
540.552	2016.92
540.757	2050.25
540.962	2055.29
541.166	1967.33
541.371	1978.76
541.576	2020.22
541.781	1914.82
541.985	2081.64
542.19	2028.55
542.395	2141.89
542.599	2141.7
542.804	2116.51
543.008	2160.88
543.213	2070.59
543.418	2070.21
543.622	2120.19
543.827	2014.79
544.031	2136.27
544.236	2152.35
544.44	2131.24
544.645	2209.51
544.849	2104.3
545.054	2170.57
545.258	2192.85
545.463	2207.77
545.667	2131.24
545.872	2181.8
546.076	2175.6
546.281	2134.53
546.485	2151.97
546.689	2154.68
546.894	2169.6
547.098	2166.5
547.302	2139.37
547.507	2162.62
547.711	2166.3
547.915	2239.54
548.119	2115.74
548.324	2139.37
548.528	2220.94
548.732	2153.32
548.936	2185.68
549.141	2206.41
549.345	2161.07
549.549	2188.39
549.753	2201.37
549.957	2250.2
550.161	2265.5
550.366	2187.62
550.57	2188.97
550.774	2191.88
550.978	2201.37
551.182	2185.1
551.386	2136.47
551.59	2162.04
551.794	2188.78
551.998	2208.73
552.202	2161.65
552.406	2136.47
552.61	2199.43
552.814	2191.88
553.018	2264.92
553.222	2147.12
553.426	2161.27
553.63	2258.92
553.833	2168.82
554.037	2127.36
554.241	2216.48
554.445	2156.04
554.649	2178.9
554.853	2178.7
555.056	2249.03
555.26	2213.38
555.464	2196.14
555.668	2229.66
555.871	2216.48
556.075	2243.42
556.279	2188.39
556.483	2129.1
556.686	2165.34
556.89	2166.89
557.094	2181.61
557.297	2108.76
557.501	2190.72
557.704	2070.79
557.908	2172.31
558.112	2089.19
558.315	2215.71
558.519	2114.38
558.722	2125.62
558.926	2101.01
559.129	1994.84
559.333	2034.94
559.536	2031.26
559.74	1982.05
559.943	2036.3
560.147	2011.89
560.35	2002.59
560.553	1987.86
560.757	1966.36
560.96	2072.14
561.164	2032.23
561.367	2113.6
561.57	2039.21
561.774	2038.62
561.977	2035.33
562.18	1982.83
562.384	2100.62
562.587	2007.24
562.79	1984.76
562.993	2004.33
563.197	2090.16
563.4	2101.79
563.603	2057.03
563.806	2118.84
564.009	1997.16
564.212	2030.1
564.416	1899.71
564.619	2012.66
564.822	1949.89
565.025	2025.84
565.228	1956.67
565.431	1972.17
565.634	1892.73
565.837	1938.26
566.04	1899.13
566.243	1909.78
566.446	1806.52
566.649	1936.52
566.852	1865.8
567.055	1910.17
567.258	1922.76
567.461	1984.57
567.664	1958.41
567.867	1858.05
568.07	1885.56
568.273	1925.48
568.475	1949.89
568.678	1869.87
568.881	1878.01
569.084	1871.61
569.287	1748
569.489	1814.07
569.692	1887.7
569.895	1874.52
570.098	1779.97
570.3	1786.17
570.503	1745.87
570.706	1737.93
570.909	1747.23
571.111	1722.62
571.314	1687.36
571.516	1718.36
571.719	1704.8
571.922	1717.2
572.124	1705.19
572.327	1732.5
572.529	1683.1
572.732	1711.19
572.935	1733.67
573.137	1809.81
573.34	1716.04
573.542	1738.32
573.745	1727.27
573.947	1738.7
574.15	1703.64
574.352	1704.8
574.554	1754.98
574.757	1682.52
574.959	1703.83
575.162	1688.91
575.364	1638.92
575.566	1760.02
575.769	1644.35
575.971	1664.89
576.173	1562.78
576.376	1660.04
576.578	1687.17
576.78	1708.67
576.982	1592.23
577.185	1632.34
577.387	1622.84
577.589	1606.18
577.791	1647.06
577.993	1673.99
578.196	1591.46
578.398	1628.07
578.6	1648.22
578.802	1561.23
579.004	1540.69
579.206	1543.21
579.408	1600.17
579.61	1590.49
579.812	1647.06
580.014	1582.16
580.216	1586.03
580.418	1558.52
580.62	1518.22
580.822	1523.84
581.024	1565.69
581.226	1626.14
581.428	1558.13
581.63	1639.7
581.832	1570.34
582.034	1631.76
582.236	1586.81
582.438	1602.69
582.64	1663.53
582.841	1630.98
583.043	1685.81
583.245	1586.81
583.447	1575.37
583.649	1594.94
583.85	1587.39
584.052	1609.09
584.254	1537.21
584.456	1608.7
584.657	1539.34
584.859	1560.26
585.061	1538.37
585.262	1495.16
585.464	1506.01
585.666	1569.95
585.867	1500.2
586.069	1560.07
586.27	1510.47
586.472	1522.48
586.674	1468.43
586.875	1465.71
587.077	1485.67
587.278	1520.16
587.48	1499.04
587.681	1632.53
587.883	1504.85
588.084	1499.81
588.285	1484.7
588.487	1487.61
588.688	1493.42
588.89	1410.5
589.091	1399.65
589.292	1421.54
589.494	1383.57
589.695	1361.67
589.896	1273.71
590.098	1266.15
590.299	1346.95
590.5	1305.29
590.702	1332.8
590.903	1347.14
591.104	1438.98
591.305	1385.5
591.507	1428.71
591.708	1424.64
591.909	1375.62
592.11	1446.53
592.311	1412.63
592.512	1392.67
592.714	1353.73
592.915	1383.18
593.116	1335.13
593.317	1384.73
593.518	1387.63
593.719	1385.5
593.92	1399.45
594.121	1439.17
594.322	1401
594.523	1411.27
594.724	1348.11
594.925	1375.43
595.126	1391.9
595.327	1392.86
595.528	1392.67
595.729	1385.7
595.929	1386.28
596.13	1395.77
596.331	1348.69
596.532	1411.27
596.733	1434.91
596.934	1396.93
597.135	1448.28
597.335	1436.07
597.536	1363.03
597.737	1401.97
597.938	1352.57
598.138	1400.42
598.339	1383.76
598.54	1400.42
598.74	1373.68
598.941	1388.99
599.142	1436.46
599.342	1369.42
599.543	1341.52
599.744	1356.83
599.944	1328.93
600.145	1368.26
600.345	1383.37
600.546	1448.86
600.746	1428.51
600.947	1479.28
601.147	1364.38
601.348	1433.16
601.548	1335.9
601.749	1398.1
601.949	1315.37
602.15	1344.43
602.35	1352.57
602.551	1394.8
602.751	1321.37
602.951	1346.37
603.152	1278.75
603.352	1367.29
603.552	1361.28
603.753	1382.6
603.953	1365.74
604.153	1361.48
604.354	1336.29
604.554	1371.75
604.754	1339
604.954	1312.65
605.155	1357.22
605.355	1306.07
605.555	1379.88
605.755	1429.1
605.955	1363.61
606.155	1378.33
606.356	1331.06
606.556	1357.02
606.756	1338.62
606.956	1273.71
607.156	1363.03
607.356	1316.72
607.556	1342.88
607.756	1334.35
607.956	1401.78
608.156	1343.07
608.356	1308.2
608.556	1355.28
608.756	1331.25
608.956	1271.97
609.156	1310.52
609.356	1276.42
609.556	1250.27
609.755	1315.17
609.955	1283.59
610.155	1287.08
610.355	1287.08
610.555	1240
610.755	1264.41
610.954	1215.2
611.154	1254.53
611.354	1286.5
611.554	1233.6
611.753	1263.83
611.953	1218.88
612.153	1302
612.352	1247.94
612.552	1197.96
612.752	1165.02
612.951	1260.92
613.151	1238.25
613.351	1194.47
613.55	1246.78
613.75	1272.74
613.949	1205.51
614.149	1277.59
614.348	1240.58
614.548	1202.41
614.747	1161.53
614.947	1178.97
615.146	1150.29
615.346	1218.49
615.545	1202.61
615.745	1229.15
615.944	1254.14
616.144	1202.8
616.343	1218.88
616.542	1163.86
616.742	1224.89
616.941	1164.82
617.14	1147.58
617.34	1187.11
617.539	1203.19
617.738	1123.75
617.938	1233.6
618.137	1183.42
618.336	1148.36
618.535	1173.16
618.734	1189.24
618.934	1173.35
619.133	1170.83
619.332	1203.96
619.531	1146.42
619.73	1175.67
619.929	1195.82
620.128	1181.29
620.328	1223.34
620.527	1127.43
620.726	1178.19
620.925	1189.24
621.124	1155.52
621.323	1165.02
621.522	1122.2
621.721	1115.81
621.92	1144.29
622.119	1181.29
622.318	1143.12
622.517	1135.76
622.715	1172.77
622.914	1081.9
623.113	1114.06
623.312	1045.28
623.511	1133.05
623.71	1086.55
623.909	1066.21
624.107	1157.27
624.306	1070.66
624.505	1060.98
624.704	1110.96
624.902	1085.97
625.101	1162.11
625.3	1083.45
625.499	1041.02
625.697	1059.04
625.896	1071.05
626.095	1081.32
626.293	1001.5
626.492	1055.36
626.69	1085.97
626.889	1057.1
627.088	1105.54
627.286	1013.31
627.485	1076.09
627.683	1038.89
627.882	1105.15
628.08	1016.41
628.279	1043.93
628.477	1093.33
628.676	1014.48
628.874	1085.97
629.073	1029.78
629.271	1027.85
629.469	1070.28
629.668	1012.93
629.866	1040.05
630.065	998.2
630.263	1066.4
630.461	1006.73
630.66	1026.68
630.858	1044.12
631.056	1071.83
631.254	1058.07
631.453	1006.92
631.651	1073.57
631.849	1041.99
632.047	1028.81
632.245	1026.88
632.444	1052.06
632.642	1033.46
632.84	1044.51
633.038	962.55
633.236	991.42
633.434	1012.15
633.632	990.26
633.83	977.47
634.028	1056.91
634.227	1026.3
634.425	1099.73
634.623	1025.33
634.821	1017.19
635.019	1025.52
635.216	992.2
635.414	1028.04
635.612	1006.73
635.81	986.96
636.008	1070.86
636.206	996.46
636.404	1012.73
636.602	977.08
636.8	1019.51
636.997	1030.36
637.195	1041.02
637.393	998.2
637.591	1064.66
637.789	1017
637.986	980.57
638.184	1007.11
638.382	1046.06
638.58	1020.29
638.777	1086.74
638.975	986
639.173	991.42
639.37	984.06
639.568	994.91
639.765	1034.24
639.963	956.55
640.161	1058.84
640.358	1027.46
640.556	953.83
640.753	933.3
640.951	976.11
641.148	980.57
641.346	962.75
641.543	979.6
641.741	980.38
641.938	939.88
642.136	997.81
642.333	925.16
642.531	1009.63
642.728	1026.88
642.925	998.01
643.123	967.78
643.32	986.58
643.517	949.18
643.715	969.53
643.912	942.02
644.109	949.96
644.306	971.85
644.504	929.62
644.701	953.06
644.898	972.63
645.095	949.38
645.293	935.62
645.49	961
645.687	939.69
645.884	983.09
646.081	884.47
646.278	928.45
646.475	901.72
646.672	906.95
646.87	959.84
647.067	921.87
647.264	914.5
647.461	876.14
647.658	852.5
647.855	936.59
648.052	893.38
648.249	806
648.446	922.64
648.642	898.23
648.839	842.43
649.036	868.39
649.233	814.14
649.43	824.22
649.627	829.64
649.824	855.6
650.021	842.43
650.217	823.64
650.414	842.24
650.611	886.99
650.808	868
651.004	868
651.201	893.19
651.398	942.4
651.595	856.19
651.791	850.95
651.988	932.33
652.185	833.13
652.381	876.33
652.578	816.85
652.775	874.98
652.971	837.59
653.168	850.95
653.364	855.99
653.561	819.18
653.757	828.48
653.954	856.77
654.15	819.57
654.347	919.15
654.543	863.55
654.74	814.34
654.936	795.93
655.133	809.69
655.329	843.01
655.525	862.97
655.722	874.2
655.918	802.32
656.115	838.55
656.311	741.68
656.507	729.86
656.704	684.14
656.9	735.48
657.096	696.73
657.292	730.06
657.489	793.99
657.685	777.72
657.881	778.3
658.077	776.17
658.273	799.42
658.47	857.54
658.666	781.2
658.862	834.1
659.058	783.34
659.254	822.67
659.45	774.23
659.646	835.45
659.842	799.42
660.038	856.96
660.234	813.75
660.43	808.72
660.626	889.32
660.822	840.88
661.018	873.62
661.214	828.48
661.41	774.42
661.606	860.84
661.802	851.34
661.998	791.28
662.194	789.92
662.39	835.84
662.586	864.9
662.781	842.62
662.977	879.63
663.173	840.3
663.369	823.64
663.564	804.84
663.76	859.29
663.956	804.26
664.152	880.4
664.347	763.96
664.543	821.5
664.739	783.92
664.934	756.6
665.13	756.79
665.326	832.16
665.521	820.34
665.717	763.96
665.912	761.83
666.108	737.03
666.304	773.26
666.499	786.24
666.695	722.69
666.89	792.83
667.086	827.7
667.281	800.19
667.477	843.01
667.672	798.25
667.867	787.02
668.063	790.89
668.258	747.49
668.454	779.27
668.649	876.53
668.844	793.8
669.04	830.8
669.235	800.19
669.43	770.36
669.626	728.31
669.821	760.86
670.016	756.99
670.211	793.8
670.407	744.39
670.602	778.49
670.797	769.58
670.992	820.34
671.187	754.27
671.382	812.98
671.578	783.53
671.773	798.84
671.968	731.61
672.163	744.39
672.358	806.2
672.553	748.66
672.748	746.33
672.943	806
673.138	766.67
673.333	808.33
673.528	728.51
673.723	779.85
673.918	760.09
674.113	717.07
674.308	837.97
674.503	775.78
674.698	790.31
674.892	746.91
675.087	804.65
675.282	799.42
675.477	727.15
675.672	807.17
675.867	721.92
676.061	736.26
676.256	715.33
676.451	747.88
676.646	748.66
676.84	716.88
677.035	713.39
677.23	705.84
677.424	751.56
677.619	783.92
677.814	800.58
678.008	787.02
678.203	704.67
678.397	723.66
678.592	746.72
678.787	787.99
678.981	769.58
679.176	759.51
679.37	772.1
679.565	722.5
679.759	737.42
679.954	807.36
680.148	821.89
680.342	792.64
680.537	789.34
680.731	741.29
680.926	793.99
681.12	773.46
681.314	723.86
681.509	732.96
681.703	724.82
681.897	773.84
682.092	754.66
682.286	715.14
682.48	815.11
682.674	779.07
682.869	754.86
683.063	729.28
683.257	807.36
683.451	716.88
683.645	749.82
683.839	712.04
684.034	736.26
684.228	798.25
684.422	730.25
684.616	678.71
684.81	759.31
685.004	710.68
685.198	731.8
685.392	802.9
685.586	701.77
685.78	724.44
685.974	744.2
686.168	757.18
686.362	794.77
686.556	687.04
686.75	684.14
686.944	696.34
687.138	689.18
687.331	593.85
687.525	608.38
687.719	589.01
687.913	636.28
688.107	633.57
688.301	601.8
688.494	645.97
688.688	630.86
688.882	583.39
689.076	581.84
689.269	619.04
689.463	718.43
689.657	636.86
689.85	626.59
690.044	622.72
690.238	619.43
690.431	629.69
690.625	614.78
690.818	681.81
691.012	672.9
691.205	672.32
691.399	620.98
691.593	672.32
691.786	725.02
691.98	716.3
692.173	729.86
692.366	721.53
692.56	718.04
692.753	768.81
692.947	682.01
693.14	767.06
693.333	741.87
693.527	662.44
693.72	737.61
693.914	721.53
694.107	698.86
694.3	719.21
694.493	690.14
694.687	783.92
694.88	701.96
695.073	753.69
695.266	763.19
695.46	731.8
695.653	803.29
695.846	780.24
696.039	702.93
696.232	757.96
696.425	806.59
696.618	776.17
696.812	792.25
697.005	834.49
697.198	923.03
697.391	839.52
697.584	862.77
697.777	944.15
697.97	893.97
698.163	912.37
698.356	873.04
698.549	973.98
698.742	930
698.935	924
699.127	921.67
699.32	904.82
699.513	930.58
699.706	937.75
699.899	970.3
700.092	942.4
700.285	971.27
700.477	937.75
700.67	963.33
700.863	1026.88
701.056	1088.68
701.248	1073.76
701.441	1094.69
701.634	1028.43
701.826	1165.21
702.019	1021.26
702.212	1110.38
702.404	1050.13
702.597	1043.73
702.79	1101.47
702.982	1134.41
703.175	1171.61
703.367	1176.45
703.56	1168.7
703.752	1279.14
703.945	1208.81
704.137	1238.06
704.33	1282.82
704.522	1273.9
704.715	1271.77
704.907	1306.26
705.1	1328.54
705.292	1323.12
705.484	1325.63
705.677	1384.92
705.869	1385.12
706.061	1409.33
706.254	1464.16
706.446	1431.23
706.638	1424.45
706.831	1503.88
707.023	1457
707.215	1554.84
707.407	1544.96
707.599	1564.14
707.792	1605.21
707.984	1557.16
708.176	1656.36
708.368	1599.59
708.56	1635.82
708.752	1641.06
708.944	1606.96
709.136	1675.35
709.329	1672.05
709.521	1817.56
709.713	1747.23
709.905	1777.26
710.097	1796.44
710.289	1742.58
710.481	1771.06
710.672	1829.76
710.864	1841.78
711.056	1900.1
711.248	1866.38
711.44	1866.38
711.632	1901.45
711.824	1935.36
712.016	1989.8
712.207	2001.62
712.399	1982.44
712.591	2072.92
712.783	2044.05
712.975	2021.38
713.166	2019.25
713.358	2094.04
713.55	2109.54
713.741	2123.68
713.933	2129.1
714.125	2130.27
714.316	2110.12
714.508	2206.41
714.7	2213
714.891	2199.05
715.083	2282.36
715.274	2193.23
715.466	2231.79
715.657	2314.71
715.849	2192.65
716.04	2302.9
716.232	2220.55
716.423	2328.66
716.615	2241.87
716.806	2181.03
716.998	2230.63
717.189	2178.32
717.381	2090.74
717.572	2078.15
717.763	2068.66
717.955	2064.01
718.146	2040.76
718.337	2006.27
718.528	1997.55
718.72	1923.34
718.911	1995.03
719.102	1941.56
719.293	2010.72
719.485	1995.61
719.676	1981.86
719.867	1940.78
720.058	1941.94
720.249	1965.97
720.44	1985.54
720.632	2056.45
720.823	2086.48
721.014	2228.5
721.205	2220.75
721.396	2286.23
721.587	2386.21
721.778	2464.67
721.969	2484.63
722.16	2517.18
722.351	2537.91
722.542	2716.35
722.733	2689.81
722.924	2619.48
723.115	2690
723.305	2704.92
723.496	2711.12
723.687	2565.04
723.878	2601.65
724.069	2609.21
724.26	2624.32
724.45	2543.53
724.641	2565.81
724.832	2603.79
725.023	2550.12
725.213	2610.57
725.404	2553.22
725.595	2568.52
725.785	2558.25
725.976	2670.05
726.167	2674.5
726.357	2640.4
726.548	2772.54
726.739	2661.72
726.929	2756.07
727.12	2771.57
727.31	2834.93
727.501	2813.23
727.691	2811.48
727.882	2844.42
728.072	2876.19
728.263	2810.13
728.453	2904.29
728.644	2922.11
728.834	2900.02
729.024	2891.89
729.215	2876.39
729.405	2900.61
729.596	2998.64
729.786	2961.44
729.976	3022.86
730.167	3034.68
730.357	3071.49
730.547	3037.2
730.737	3069.94
730.928	3095.32
731.118	3154.8
731.308	3112.95
731.498	3102.68
731.688	3181.54
731.879	3209.63
732.069	3316
732.259	3297.01
732.449	3316.39
732.639	3396.99
732.829	3433.02
733.019	3456.85
733.209	3557.6
733.399	3532.42
733.589	3606.23
733.779	3626.77
733.969	3631.03
734.159	3698.84
734.349	3763.36
734.539	3803.66
734.729	3806.37
734.919	3815.29
735.109	3918.17
735.299	3790.68
735.488	3843.57
735.678	3876.12
735.868	3877.67
736.058	3915.84
736.248	3856.94
736.437	3886.59
736.627	3811.61
736.817	3952.07
737.007	3838.92
737.196	3918.17
737.386	3950.72
737.576	3909.64
737.765	3966.99
737.955	3939.87
738.144	4082.46
738.334	4055.92
738.524	3967.38
738.713	4034.41
738.903	4005.35
739.092	4051.66
739.282	4015.43
739.471	4067.35
739.661	4086.53
739.85	4106.1
740.04	4093.31
740.229	4127.41
740.419	4134
740.608	4237.66
740.797	4103.97
740.987	4206.07
741.176	4191.54
741.365	4127.99
741.555	4089.44
741.744	4259.94
741.933	4151.24
742.123	4210.14
742.312	4232.62
742.501	4280.86
742.69	4258.58
742.88	4201.62
743.069	4352.94
743.258	4286.29
743.447	4338.02
743.636	4322.13
743.825	4274.47
744.014	4338.02
744.204	4374.83
744.393	4287.06
744.582	4394.2
744.771	4401.37
744.96	4342.47
745.149	4394.59
745.338	4357.78
745.527	4392.65
745.716	4370.18
745.905	4347.9
746.094	4457.75
746.283	4471.12
746.471	4406.41
746.66	4442.45
746.849	4515.88
747.038	4496.89
747.227	4427.14
747.416	4471.51
747.604	4422.88
747.793	4386.65
747.982	4421.52
748.171	4477.51
748.359	4470.15
748.548	4449.42
748.737	4475.58
748.926	4485.46
749.114	4318.64
749.303	4452.33
749.491	4434.31
749.68	4328.52
749.869	4458.91
750.057	4347.12
750.246	4410.48
750.434	4387.81
750.623	4331.43
750.811	4384.71
751	4488.17
751.188	4388.58
751.377	4411.45
751.565	4383.16
751.754	4363.98
751.942	4336.66
752.131	4459.3
752.319	4327.55
752.507	4322.32
752.696	4386.84
752.884	4385.68
753.072	4368.82
753.261	4390.91
753.449	4353.52
753.637	4350.42
753.825	4472.67
754.014	4363.98
754.202	4394.59
754.39	4441.67
754.578	4402.15
754.766	4276.6
754.955	4304.89
755.143	4419
755.331	4316.51
755.519	4366.3
755.707	4379.09
755.895	4344.41
756.083	4355.84
756.271	4253.35
756.459	4277.18
756.647	4326.78
756.835	4290.35
757.023	4262.84
757.211	4284.93
757.399	4248.31
757.587	4230.68
757.775	4225.06
757.963	4251.61
758.151	4243.08
758.339	4220.61
758.526	4197.74
758.714	4211.11
758.902	4125.86
759.09	4077.62
759.278	3862.75
759.465	3657.58
759.653	3281.13
759.841	3034.1
760.028	2665.59
760.216	2321.5
760.404	2233.73
760.591	1902.81
760.779	1630.98
760.967	1456.41
761.154	1307.81
761.342	1343.07
761.529	1383.18
761.717	1431.42
761.905	1490.51
762.092	1570.72
762.28	1565.11
762.467	1593.2
762.655	1529.07
762.842	1555.23
763.029	1578.09
763.217	1626.72
763.404	1596.49
763.592	1638.15
763.779	1602.5
763.966	1698.99
764.154	1704.6
764.341	1802.45
764.528	1763.31
764.716	1850.5
764.903	1937.49
765.09	2009.17
765.277	2065.17
765.465	2196.33
765.652	2305.22
765.839	2360.63
766.026	2496.84
766.213	2513.31
766.4	2646.99
766.588	2809.35
766.775	2791.33
766.962	2963.38
767.149	2961.25
767.336	3151.12
767.523	3088.54
767.71	3267.37
767.897	3402.8
768.084	3422.95
768.271	3438.45
768.458	3532.42
768.645	3586.28
768.832	3562.45
769.019	3591.12
769.206	3608.56
769.392	3676.95
769.579	3773.44
769.766	3714.54
769.953	3677.53
770.14	3747.67
770.327	3781.57
770.513	3812.96
770.7	3859.27
770.887	3723.26
771.073	3836.41
771.26	3820.32
771.447	3778.28
771.634	3765.3
771.82	3837.37
772.007	3751.93
772.193	3832.72
772.38	3821.68
772.567	3749.61
772.753	3731.78
772.94	3834.27
773.126	3835.24
773.313	3849.97
773.499	3786.42
773.686	3787.19
773.872	3745.73
774.059	3803.47
774.245	3756.97
774.432	3749.03
774.618	3653.51
774.804	3730.04
774.991	3681.41
775.177	3789.91
775.363	3712.79
775.55	3759.49
775.736	3671.72
775.922	3722.29
776.109	3718.03
776.295	3683.54
776.481	3690.32
776.667	3729.26
776.853	3682.57
777.04	3658.16
777.226	3669.98
777.412	3725
777.598	3624.06
777.784	3672.69
777.97	3621.54
778.156	3653.7
778.342	3647.5
778.528	3609.72
778.715	3536.68
778.901	3574.07
779.087	3642.27
779.272	3547.92
779.458	3543.85
779.644	3570.2
779.83	3544.43
780.016	3638.78
780.202	3563.8
780.388	3561.28
780.574	3443.87
780.76	3516.92
780.946	3553.92
781.131	3517.69
781.317	3497.15
781.503	3484.56
781.689	3439.03
781.874	3611.08
782.06	3484.75
782.246	3483.01
782.432	3486.3
782.617	3506.65
782.803	3533.97
782.989	3396.99
783.174	3439.03
783.36	3386.72
783.545	3429.34
783.731	3415.39
783.916	3279.38
784.102	3396.41
784.288	3364.05
784.473	3346.61
784.659	3293.33
784.844	3391.37
785.029	3370.44
785.215	3318.71
785.4	3320.07
785.586	3389.82
785.771	3295.66
785.956	3339.06
786.142	3302.44
786.327	3290.04
786.512	3264.27
786.698	3300.89
786.883	3200.91
787.068	3272.6
787.254	3293.91
787.439	3264.27
787.624	3219.9
787.809	3210.8
787.994	3202.66
788.18	3263.49
788.365	3124.58
788.55	3153.25
788.735	3217
788.92	3228.43
789.105	3150.54
789.29	3165.65
789.475	3141.82
789.66	3153.06
789.845	3116.05
790.03	3073.23
790.215	3147.83
790.4	3169.14
790.585	3138.33
790.77	3116.63
790.955	3035.65
791.14	3079.63
791.325	3146.47
791.51	2985.08
791.695	3090.67
791.879	3048.63
792.064	3013.56
792.249	3133.88
792.434	3040.88
792.618	3024.6
792.803	3098.42
792.988	3046.89
793.173	3055.41
793.357	3072.27
793.542	3033.13
793.727	3031.19
793.911	3062.77
794.096	3034.1
794.281	3072.65
794.465	3148.8
794.65	3033.71
794.834	3065.29
795.019	3106.75
795.203	3124.19
795.388	3130.58
795.572	3143.95
795.757	3136.98
795.941	3104.43
796.126	3109.08
796.31	3023.05
796.494	3143.37
796.679	3070.33
796.863	3066.45
797.048	3178.05
797.232	3097.84
797.416	3134.27
797.601	3098.62
797.785	3219.51
797.969	3162.55
798.153	3126.13
798.338	3141.05
798.522	3189.48
798.706	3165.85
798.89	3168.95
799.074	3239.66
799.258	3195.1
799.443	3171.08
799.627	3141.82
799.811	3209.25
799.995	3146.28
800.179	3137.17
800.363	3110.05
800.547	3161
800.731	3169.33
800.915	3078.27
801.099	3099.39
801.283	3118.57
801.467	3130.97
801.651	3104.62
801.835	3148.02
802.019	3137.56
802.202	3147.25
802.386	3100.94
802.57	3080.79
802.754	3119.15
802.938	3081.76
803.121	3102.49
803.305	3183.09
803.489	3108.69
803.673	3152.09
803.856	3158.29
804.04	3089.51
804.224	3161.58
804.407	3083.31
804.591	3101.13
804.775	3083.7
804.958	3067.03
805.142	3191.42
805.326	3114.7
805.509	3106.95
805.693	3185.03
805.876	3137.17
806.06	3119.73
806.243	3184.06
806.427	3151.31
806.61	3183.86
806.794	3147.44
806.977	3200.91
807.16	3147.63
807.344	3161.2
807.527	3149.76
807.71	3135.62
807.894	3088.73
808.077	3159.45
808.26	3104.82
808.444	3050.18
808.627	3131.36
808.81	3067.42
808.993	2981.4
809.177	2986.82
809.36	3025.19
809.543	3036.81
809.726	2956.79
809.909	2943.42
810.092	2949.62
810.276	2973.45
810.459	2997.48
810.642	2908.74
810.825	2900.99
811.008	2944.97
811.191	2830.47
811.374	2831.24
811.557	2848.49
811.74	2927.54
811.923	2785.33
812.106	2819.04
812.289	2767.31
812.472	2761.11
812.654	2796.37
812.837	2763.05
813.02	2705.31
813.203	2637.69
813.386	2561.74
813.569	2569.49
813.751	2477.85
813.934	2524.16
814.117	2500.91
814.3	2423.79
814.482	2391.05
814.665	2366.64
814.848	2345.52
815.03	2270.54
815.213	2298.25
815.396	2230.05
815.578	2278.48
815.761	2169.4
815.943	2298.05
816.126	2147.9
816.309	2162.04
816.491	2055.87
816.674	2002.39
816.856	2055.67
817.039	2064.2
817.221	2144.6
817.403	2098.1
817.586	2082.99
817.768	2079.12
817.951	2019.64
818.133	1978.18
818.315	2032.62
818.498	2052.77
818.68	2127.17
818.862	2083.19
819.045	2108.37
819.227	2086.48
819.409	2067.3
819.591	2122.9
819.774	2053.16
819.956	2018.67
820.138	2146.35
820.32	2085.51
820.502	2143.25
820.684	2221.72
820.866	2212.42
821.048	2234.12
821.231	2264.53
821.413	2314.71
821.595	2238.38
821.777	2278.1
821.959	2248.45
822.141	2370.9
822.323	2200.98
822.505	2134.14
822.686	2105.08
822.868	2023.32
823.05	1891.18
823.232	1859.6
823.414	1783.65
823.596	1840.42
823.778	1805.35
823.96	1849.72
824.141	1857.47
824.323	1897.38
824.505	1962.09
824.687	1997.74
824.868	2095.78
825.05	2157.78
825.232	2190.33
825.413	2268.8
825.595	2257.17
825.777	2156.42
825.958	2204.47
826.14	2184.32
826.321	2226.17
826.503	2174.25
826.685	2214.55
826.866	2229.08
827.048	2252.52
827.229	2158.17
827.411	2159.33
827.592	2092.87
827.773	2050.64
827.955	2008.59
828.136	2045.6
828.318	1979.14
828.499	2036.3
828.68	1984.38
828.862	1992.13
829.043	2024.29
829.224	2009.95
829.406	1953.57
829.587	1980.31
829.768	1990.38
829.949	1978.95
830.131	1988.64
830.312	2053.35
830.493	1976.24
830.674	2008.01
830.855	1964.42
831.036	1995.61
831.218	2048.12
831.399	2071.95
831.58	2028.55
831.761	2001.62
831.942	2040.95
832.123	2001.43
832.304	1907.46
832.485	1921.02
832.666	1944.85
832.847	2024.09
833.028	1946.01
833.209	1985.54
833.389	1931.48
833.57	1916.37
833.751	1917.92
833.932	1992.71
834.113	1949.69
834.294	1949.31
834.475	1985.93
834.655	1997.16
834.836	2012.08
835.017	2016.92
835.198	1922.57
835.378	1989.22
835.559	2026.22
835.74	2000.26
835.92	2018.47
836.101	1968.88
836.281	1984.38
836.462	1996.97
836.643	2021.96
836.823	2043.27
837.004	2008.59
837.184	2065.36
837.365	2051.8
837.545	2065.56
837.726	1976.43
837.906	2087.84
838.087	2016.54
838.267	2026.22
838.448	2015.96
838.628	2020.61
838.808	2008.01
838.989	2051.02
839.169	1971.78
839.349	2015.76
839.53	2050.25
839.71	2034.56
839.89	1984.96
840.07	2025.45
840.251	1983.99
840.431	2031.84
840.611	1987.86
840.791	1982.83
840.971	2012.27
841.151	1982.44
841.332	1960.35
841.512	2032.04
841.692	1918.69
841.872	1949.5
842.052	1953.96
842.232	2040.37
842.412	1937.29
842.592	1929.93
842.772	2006.85
842.952	1990.77
843.132	1935.16
843.312	1905.71
843.492	1889.05
843.672	1992.9
843.851	1894.28
844.031	1956.09
844.211	1918.31
844.391	1914.24
844.571	1951.83
844.751	1949.11
844.93	1964.03
845.11	1895.25
845.29	1928.58
845.47	1983.99
845.649	1921.41
845.829	1950.28
846.009	1883.05
846.188	1905.33
846.368	1912.88
846.547	1890.21
846.727	1974.11
846.907	1885.95
847.086	1917.92
847.266	1952.99
847.445	1912.5
847.625	1905.71
847.804	1852.43
847.984	1887.89
848.163	1839.26
848.343	1844.68
848.522	1887.5
848.701	1858.25
848.881	1836.55
849.06	1888.28
849.239	1862.31
849.419	1852.82
849.598	1754.78
849.777	1792.57
849.957	1754.78
850.136	1674.57
850.315	1695.11
850.494	1691.62
850.674	1681.55
850.853	1721.46
851.032	1705.19
851.211	1788.11
851.39	1752.46
851.569	1680
851.748	1713.32
851.927	1785.78
852.107	1744.71
852.286	1694.53
852.465	1664.3
852.644	1772.42
852.823	1690.65
853.002	1725.14
853.181	1715.65
853.359	1763.89
853.538	1662.17
853.717	1752.65
853.896	1617.42
854.075	1546.51
854.254	1533.91
854.433	1436.46
854.611	1499.62
854.79	1432.97
854.969	1505.43
855.148	1500.78
855.327	1490.32
855.505	1536.04
855.684	1534.11
855.863	1556.58
856.041	1533.72
856.22	1604.44
856.399	1570.72
856.577	1679.61
856.756	1624.39
856.934	1743.35
857.113	1761.37
857.291	1664.69
857.47	1637.37
857.648	1647.06
857.827	1651.91
858.005	1716.04
858.184	1632.72
858.362	1686.78
858.541	1658.49
858.719	1634.27
858.898	1633.31
859.076	1624.78
859.254	1703.44
859.433	1613.16
859.611	1615.09
859.789	1580.61
859.967	1670.5
860.146	1678.84
860.324	1573.44
860.502	1589.32
860.68	1535.08
860.859	1544.76
861.037	1538.37
861.215	1609.67
861.393	1599.4
861.571	1556.58
861.749	1539.14
861.927	1602.69
862.105	1611.61
862.283	1557.74
862.461	1538.56
862.639	1508.14
862.817	1524.42
862.995	1519.77
863.173	1561.43
863.351	1548.83
863.529	1538.37
863.707	1583.32
863.885	1575.18
864.063	1493.23
864.241	1507.56
864.418	1574.6
864.596	1519.77
864.774	1484.89
864.952	1480.83
865.129	1537.01
865.307	1482.57
865.485	1425.61
865.663	1516.28
865.84	1411.46
866.018	1440.33
866.196	1311.3
866.373	1349.85
866.551	1289.99
866.728	1224.5
866.906	1276.62
867.084	1289.79
867.261	1346.56
867.439	1391.9
867.616	1382.79
867.794	1391.51
867.971	1392.48
868.149	1370.39
868.326	1435.1
868.503	1422.31
868.681	1392.86
868.858	1424.45
869.035	1344.82
869.213	1409.72
869.39	1409.14
869.567	1442.85
869.745	1380.85
869.922	1406.23
870.099	1419.02
870.276	1457.77
870.454	1417.08
870.631	1417.86
870.808	1355.47
870.985	1431.23
871.162	1442.27
871.339	1404.1
871.517	1343.07
871.694	1390.35
871.871	1362.25
872.048	1368.65
872.225	1345.59
872.402	1326.41
872.579	1296.96
872.756	1378.53
872.933	1290.76
873.11	1340.55
873.287	1372.33
873.463	1324.47
873.64	1320.79
873.817	1344.43
873.994	1331.25
874.171	1320.79
874.348	1338.03
874.524	1266.74
874.701	1338.03
874.878	1229.73
875.055	1289.21
875.231	1307.62
875.408	1313.82
875.585	1226.82
875.762	1314.78
875.938	1269.06
876.115	1301.8
876.291	1245.23
876.468	1253.56
876.645	1222.17
876.821	1267.51
876.998	1282.43
877.174	1272.55
877.351	1237.29
877.527	1249.3
877.704	1232.64
877.88	1249.88
878.057	1236.9
878.233	1251.43
878.409	1218.49
878.586	1254.53
878.762	1245.62
878.938	1251.24
879.115	1172.77
879.291	1236.9
879.467	1182.26
879.644	1189.04
879.82	1237.87
879.996	1176.64
880.172	1161.53
880.349	1218.3
880.525	1210.74
880.701	1151.07
880.877	1184.78
881.053	1182.26
881.229	1170.64
881.405	1242.52
881.581	1145.45
881.757	1190.98
881.933	1180.32
882.109	1215.01
882.285	1198.92
882.461	1147.97
882.637	1183.81
882.813	1127.82
882.989	1155.91
883.165	1230.89
883.341	1147.39
883.517	1195.05
883.693	1178.19
883.869	1226.63
884.044	1121.04
884.22	1197.57
884.396	1245.04
884.572	1184.97
884.747	1209.97
884.923	1208.42
885.099	1180.52
885.275	1243.87
885.45	1141.57
885.626	1137.51
885.801	1142.16
885.977	1151.07
886.153	1100.31
886.328	1156.49
886.504	1119.29
886.679	1175.09
886.855	1124.72
887.03	1192.92
887.206	1201.06
887.381	1184.97
887.557	1176.84
887.732	1187.88
887.908	1172.19
888.083	1179.94
888.258	1179.36
888.434	1157.85
888.609	1162.5
888.784	1192.53
888.96	1152.62
889.135	1175.09
889.31	1153.78
889.485	1162.89
889.661	1177.42
889.836	1198.73
890.011	1183.04
890.186	1172.19
890.361	1148.16
890.537	1164.05
890.712	1184.97
890.887	1188.46
891.062	1160.95
891.237	1213.07
891.412	1120.84
891.587	1196.99
891.762	1214.42
891.937	1219.85
892.112	1133.82
892.287	1153.97
892.462	1104.38
892.637	1115.23
892.812	1078.99
892.987	1074.73
893.161	1065.24
893.336	1094.11
893.511	1110.96
893.686	1116.39
893.861	1076.09
894.035	1078.99
894.21	1087.52
894.385	1047.03
894.56	1091.2
894.734	1017.96
894.909	1008.66
895.084	1027.46
895.258	1000.72
895.433	1008.66
895.608	941.43
895.782	942.21
895.957	997.04
896.131	967.2
896.306	880.4
896.48	896.68
896.655	899.58
896.829	812.01
897.004	825.38
897.178	845.92
897.353	832.16
897.527	897.45
897.701	856.19
897.876	791.09
898.05	914.31
898.224	869.17
898.399	915.47
898.573	841.46
898.747	744.78
898.921	785.27
899.096	692.27
899.27	720.37
899.444	706.42
899.618	742.07
899.792	760.28
899.967	746.52
900.141	784.11
900.315	729.28
900.489	744.97
900.663	755.82
900.837	761.83
901.011	697.31
901.185	819.57
901.359	750.59
901.533	741.49
901.707	768.81
901.881	767.45
902.055	693.44
902.229	742.07
902.403	799.8
902.576	734.71
902.75	726.57
902.924	870.72
903.098	795.15
903.272	857.35
903.446	860.84
903.619	842.82
903.793	903.85
903.967	859.67
904.14	922.64
904.314	926.13
904.488	892.8
904.661	893.97
904.835	896.68
905.009	961.97
905.182	943.57
905.356	926.13
905.529	896.68
905.703	878.66
905.876	890.48
906.05	824.6
906.223	839.91
906.397	762.41
906.57	798.64
906.744	776.56
906.917	744.39
907.09	772.1
907.264	741.87
907.437	691.31
907.61	683.56
907.784	713.39
907.957	709.52
908.13	666.7
908.304	721.72
908.477	666.51
908.65	688.98
908.823	633.76
908.996	735.87
909.17	646.74
909.343	685.69
909.516	690.34
909.689	652.94
909.862	617.29
910.035	665.73
910.208	646.94
910.381	640.16
910.554	740.71
910.727	665.93
910.9	645.39
911.073	631.05
911.246	754.47
911.419	725.99
911.592	694.6
911.765	633.57
911.938	624.85
912.11	662.83
912.283	667.28
912.456	700.02
912.629	663.41
912.802	637.44
912.974	604.51
913.147	563.82
913.32	524.49
913.493	540.18
913.665	569.44
913.838	589.2
914.01	574.09
914.183	576.22
914.356	582.61
914.528	636.67
914.701	673.68
914.873	620.78
915.046	588.81
915.218	547.55
915.391	497.56
915.563	482.83
915.736	577.38
915.908	600.25
916.081	554.13
916.253	568.47
916.425	580.68
916.598	587.07
916.77	587.26
916.942	550.65
917.115	495.43
917.287	550.26
917.459	550.84
917.632	504.15
917.804	441.18
917.976	558.59
918.148	554.13
918.32	560.53
918.493	595.79
918.665	647.33
918.837	595.4
919.009	626.79
919.181	642.48
919.353	591.91
919.525	595.21
919.697	555.68
919.869	566.92
920.041	647.52
920.213	697.31
920.385	604.51
920.557	584.16
920.729	593.85
920.901	620.98
921.073	591.53
921.244	561.3
921.416	634.54
921.588	594.63
921.76	571.57
921.932	620.39
922.103	586.3
922.275	630.47
922.447	557.81
922.619	497.17
922.79	578.93
922.962	557.81
923.134	606.44
923.305	517.13
923.477	480.9
923.648	526.81
923.82	548.32
923.991	450.87
924.163	447.57
924.335	500.08
924.506	485.93
924.677	573.7
924.849	463.85
925.02	515.38
925.192	528.17
925.363	489.42
925.535	511.32
925.706	471.4
925.877	536.5
926.049	488.65
926.22	510.15
926.391	493.68
926.562	521.2
926.734	484.77
926.905	539.41
927.076	421.8
927.247	502.02
927.419	450.48
927.59	457.45
927.761	422.58
927.932	434.2
928.103	434.59
928.274	411.73
928.445	379.95
928.616	412.12
928.787	374.72
928.958	431.49
929.129	385.57
929.3	383.05
929.471	337.33
929.642	276.11
929.813	248.98
929.984	346.44
930.155	224.57
930.326	315.82
930.496	271.46
930.667	208.1
930.838	255.96
931.009	217.21
931.18	254.41
931.35	244.14
931.521	253.83
931.692	169.74
931.863	140.29
932.033	191.44
932.204	194.54
932.374	168.96
932.545	122.27
932.716	229.8
932.886	188.92
933.057	105.22
933.227	146.49
933.398	184.66
933.568	122.46
933.739	45.55
933.909	63.18
934.08	147.46
934.25	31.21
934.421	72.28
934.591	128.47
934.761	95.34
934.932	36.25
935.102	102.51
935.272	101.73
935.443	102.51
935.613	92.24
935.783	94.56
935.953	72.09
936.123	229.8
936.294	72.28
936.464	96.11
936.634	103.28
936.804	48.07
936.974	16.68
937.144	89.53
937.314	92.82
937.484	80.42
937.655	63.76
937.825	147.07
937.995	47.29
938.165	130.8
938.334	80.61
938.504	115.3
938.674	96.89
938.844	125.95
939.014	171.87
939.184	146.88
939.354	222.63
939.524	169.16
939.694	145.13
939.863	151.14
940.033	209.07
940.203	199.58
940.373	190.47
940.542	198.61
940.712	161.21
940.882	201.32
941.051	205.19
941.221	182.33
941.391	196.67
941.56	111.61
941.73	142.03
941.899	258.86
942.069	150.56
942.238	165.67
942.408	145.13
942.577	184.85
942.747	137.96
942.916	82.55
943.086	104.83
943.255	180.98
943.425	144.75
943.594	123.82
943.763	49.62
943.933	69.18
944.102	18.81
944.271	109.68
944.441	112
944.61	68.22
944.779	118.98
944.948	205.19
945.117	84.1
945.287	118.4
945.456	61.24
945.625	89.72
945.794	112.97
945.963	89.91
946.132	146.68
946.301	72.67
946.47	138.55
946.639	63.37
946.808	106.38
946.977	101.15
947.146	172.64
947.315	117.81
947.484	131.38
947.653	90.69
947.822	89.14
947.991	87.98
948.16	195.89
948.329	171.87
948.498	88.36
948.666	103.67
948.835	168.19
949.004	50.97
949.173	56.4
949.341	117.23
949.51	124.4
949.679	163.93
949.847	149.59
950.016	206.55
950.185	180.78
950.353	94.95
950.522	96.89
950.69	184.66
950.859	87.2
951.028	171.87
951.196	129.44
951.365	99.41
951.533	150.75
951.701	133.31
951.87	127.7
952.038	73.83
952.207	106.96
952.375	151.14
952.543	93.98
952.712	99.02
952.88	86.81
953.048	194.34
953.217	135.45
953.385	106.38
953.553	164.51
953.721	78.29
953.89	121.11
954.058	55.43
954.226	88.75
954.394	110.84
954.562	47.68
954.73	110.26
954.898	139.71
955.067	142.81
955.235	100.18
955.403	152.3
955.571	163.15
955.739	112.97
955.907	73.25
956.075	100.57
956.243	77.9
956.41	114.91
956.578	75.97
956.746	51.55
956.914	72.87
957.082	101.35
957.25	127.5
957.418	87.01
957.585	130.6
957.753	154.43
957.921	55.04
958.089	88.95
958.256	141.45
958.424	116.07
958.592	143.2
958.759	65.7
958.927	139.51
959.095	95.15
959.262	90.11
959.43	120.14
959.597	86.43
959.765	122.66
959.932	55.23
960.1	149.78
960.267	105.61
960.435	119.36
960.602	152.88
960.77	94.37
960.937	39.54
961.104	118.01
961.272	62.98
961.439	84.3
961.606	113.75
961.774	124.98
961.941	90.5
962.108	129.63
962.275	86.43
962.443	167.22
962.61	122.66
962.777	170.13
962.944	134.09
963.111	139.51
963.278	132.73
963.446	117.81
963.613	116.07
963.78	135.06
963.947	139.51
964.114	131.57
964.281	208.1
964.448	167.41
964.615	96.11
964.782	148.81
964.949	136.41
965.116	134.67
965.282	180.59
965.449	120.14
965.616	86.81
965.783	153.46
965.95	141.26
966.117	84.88
966.283	119.36
966.45	139.13
966.617	163.73
966.784	136.22
966.95	164.12
967.117	158.5
967.284	112.2
967.45	105.41
967.617	187.18
967.784	150.75
967.95	199.38
968.117	149.2
968.283	181.56
968.45	258.86
968.616	125.95
968.783	170.32
968.949	157.34
969.116	192.99
969.282	118.01
969.449	167.41
969.615	150.17
969.781	86.81
969.948	121.3
970.114	61.05
970.28	219.14
970.447	142.81
970.613	176.52
970.779	152.5
970.945	183.3
971.112	146.68
971.278	140.29
971.444	149.4
971.61	177.29
971.776	139.9
971.942	143.58
972.108	159.08
972.275	108.9
972.441	141.84
972.607	184.46
972.773	110.06
972.939	144.55
973.105	125.95
973.271	109.1
973.437	111.03
973.602	105.8
973.768	163.93
973.934	112.2
974.1	145.91
974.266	81.78
974.432	143.78
974.598	114.91
974.763	147.65
974.929	124.21
975.095	177.29
975.261	110.45
975.426	105.41
975.592	128.66
975.758	210.43
975.923	74.03
976.089	106.77
976.255	152.11
976.42	149.2
976.586	156.95
976.751	122.08
976.917	230.77
977.082	123.05
977.248	79.84
977.413	59.88
977.579	124.4
977.744	131.96
977.91	87.59
978.075	93.6
978.24	150.36
978.406	117.43
978.571	99.8
978.736	77.13
978.902	127.5
979.067	72.67
979.232	37.8
979.397	134.48
979.563	171.68
979.728	104.06
979.893	124.6
980.058	73.64
980.223	140.48
980.388	130.41
980.554	125.37
980.719	85.07
980.884	146.88
981.049	147.26
981.214	123.82
981.379	144.36
981.544	87.78
981.709	91.27
981.874	105.61
982.039	113.94
982.204	132.93
982.368	120.91
982.533	109.29
982.698	154.24
982.863	143.2
983.028	94.56
983.193	92.43
983.357	115.88
983.522	115.3
983.687	107.74
983.852	105.03
984.016	124.01
984.181	123.05
984.346	122.85
984.51	140.48
984.675	124.98
984.839	155.4
985.004	110.65
985.168	163.35
985.333	130.6
985.498	110.84
985.662	122.66
985.827	135.83
985.991	106
986.155	112.39
986.32	148.43
986.484	174.19
986.649	106.58
986.813	56.01
986.977	115.68
987.142	126.15
987.306	75
987.47	64.73
987.634	97.47
987.799	118.01
987.963	105.41
988.127	97.08
988.291	179.04
988.455	121.3
988.62	83.33
988.784	149.59
988.948	120.91
989.112	75
989.276	118.98
989.44	101.35
989.604	90.11
989.768	78.48
989.932	174.19
990.096	65.5
990.26	74.42
990.424	66.47
990.588	89.14
990.752	182.72
990.915	134.09
991.079	82.36
991.243	92.24
991.407	88.75
991.571	101.54
991.734	127.89
991.898	128.47
992.062	181.36
992.226	81.2
992.389	74.03
992.553	15.9
992.717	73.83
992.88	94.95
993.044	113.36
993.207	79.07
993.371	131.18
993.535	103.48
993.698	84.3
993.862	116.07
994.025	159.28
994.189	136.8
994.352	105.22
994.515	145.52
994.679	143.58
994.842	95.53
995.006	134.48
995.169	57.56
995.332	69.77
995.496	119.56
995.659	34.5
995.822	81.97
995.985	86.23
996.149	135.64
996.312	83.71
996.475	136.8
996.638	72.28
996.801	175.36
996.964	153.27
997.128	90.88
997.291	75
997.454	113.94
997.617	47.68
997.78	124.21
997.943	47.68
998.106	107.93
998.269	61.43
998.432	70.15
998.595	70.35
998.758	34.5
998.92	54.07
999.083	26.56
999.246	102.12
999.409	38.18
999.572	-0.76
999.735	61.24
999.897	88.56
1000.06	52.13
1000.223	56.78
1000.386	115.3
1000.548	115.68
1000.711	84.1
1000.874	95.34
1001.036	36.63
1001.199	97.08
1001.361	54.27
1001.524	52.33
1001.687	111.03
1001.849	31.02
1002.012	103.09
1002.174	84.88
1002.337	79.65
1002.499	74.61
1002.661	125.18
1002.824	47.87
1002.986	35.28
1003.149	78.1
1003.311	58.72
1003.473	147.65
1003.636	35.47
1003.798	93.6
1003.96	89.91
1004.123	73.64
1004.285	19.58
1004.447	59.5
1004.609	77.13
1004.771	122.27
1004.933	29.08
1005.096	20.75
1005.258	6.22
1005.42	44.58
1005.582	85.65
1005.744	102.9
1005.906	28.88
1006.068	78.48
1006.23	19
1006.392	11.25
1006.554	34.31
1006.716	91.27
1006.878	90.3
1007.04	13.97
1007.202	62.4
1007.363	77.52
1007.525	65.12
1007.687	72.67
1007.849	100.38
1008.011	28.5
1008.172	0.79
1008.334	49.62
1008.496	61.43
1008.658	-9.48
1008.819	7.18
1008.981	10.87
1009.143	17.65
1009.304	68.41
1009.466	57.17
1009.627	105.61
1009.789	127.7
1009.95	82.75
1010.112	20.94
1010.273	81.97
1010.435	28.69
1010.596	61.05
1010.758	38.57
1010.919	74.8
1011.081	-2.31
1011.242	37.8
1011.403	48.45
1011.565	49.03
1011.726	77.71
1011.887	43.42
1012.049	47.29
1012.21	36.25
1012.371	110.65
1012.532	-44.35
1012.693	50
1012.855	27.92
1013.016	31.98
1013.177	91.46
1013.338	56.2
1013.499	120.14
1013.66	69.96
1013.821	73.25
1013.982	43.61
1014.143	52.13
1014.304	37.99
1014.465	53.88
1014.626	95.53
1014.787	55.82
1014.948	129.83
1015.109	-3.67
1015.27	96.5
1015.431	28.69
1015.592	13.77
1015.752	85.65
1015.913	48.26
1016.074	42.45
1016.235	46.32
1016.395	43.22
1016.556	8.93
1016.717	39.15
1016.877	105.03
1017.038	18.42
1017.199	74.61
1017.359	41.09
1017.52	56.4
1017.681	29.08
1017.841	39.15
1018.002	44.77
1018.162	23.65
1018.323	62.02
1018.483	22.1
1018.644	27.14
1018.804	-6.96
1018.964	-9.67
1019.125	31.02
1019.285	60.08
1019.446	17.26
1019.606	-0.76
1019.766	-4.83
1019.926	67.05
1020.087	48.65
1020.247	7.57
1020.407	47.1
1020.567	100.96
1020.728	19.2
1020.888	8.54
1021.048	13.19
1021.208	-7.15
1021.368	3.5
1021.528	58.92
1021.688	81
1021.848	58.14
1022.008	33.53
1022.168	34.89
1022.328	39.54
1022.488	17.45
1022.648	5.05
1022.808	54.65
1022.968	31.21
1023.128	-0.76
1023.288	26.56
1023.448	25.4
1023.608	47.48
1023.767	45.74
1023.927	-9.86
1024.087	-5.02
1024.247	-27.11
1024.406	-20.71
1024.566	-24.98
1024.726	-13.16
1024.885	39.54
1025.045	55.04
1025.205	31.98
1025.364	24.82
1025.524	22.68
1025.683	-6.18
1025.843	44.58
1026.003	50.58
1026.162	113.94
1026.321	44.58
1026.481	40.12
1026.64	41.87
1026.8	41.67
1026.959	24.82
1027.119	31.98
1027.278	25.01
1027.437	27.53
1027.597	25.4
1027.756	32.57
1027.915	41.48
1028.074	42.45
1028.234	-14.32
1028.393	56.01
1028.552	2.53
1028.711	-54.43
1028.87	55.43
1029.03	-26.53
1029.189	-3.67
1029.348	-47.26
1029.507	-6.18
1029.666	11.25
1029.825	14.74
1029.984	15.52
1030.143	33.34
1030.302	-11.41
1030.461	-42.03
1030.62	2.92
1030.779	45.35
1030.938	-14.71
1031.097	-25.17
1031.255	24.62
1031.414	78.29
1031.573	64.73
1031.732	-43.77
1031.891	19.58
1032.049	79.07
1032.208	43.22
1032.367	4.86
1032.525	7.38
1032.684	2.34
1032.843	23.27
1033.001	-47.84
1033.16	178.07
1033.319	75.19
1033.477	55.04
1033.636	4.67
1033.794	-22.26
1033.953	22.68
1034.111	40.12
1034.27	5.63
1034.428	58.33
1034.587	-0.95
1034.745	14.93
1034.903	5.44
1035.062	48.84
1035.22	-9.48
1035.378	64.53
1035.537	-18.58
1035.695	30.82
1035.853	27.53
1036.011	44.58
1036.17	26.17
1036.328	-28.08
1036.486	49.42
1036.644	8.35
1036.802	-81.36
1036.96	-16.06
1037.119	-7.54
1037.277	2.15
1037.435	-40.86
1037.593	-5.22
1037.751	-2.7
1037.909	41.87
1038.067	41.87
