Data from gum_old_FLMT105791__165__15-47-52-250.txt Node

Date: Mon Mar 20 15:47:52 GMT 2023
User: antho
Spectrometer: FLMT10579
Trigger mode: 0
Integration Time (sec): 1.000000E-1
Scans to average: 10
Electric dark correction enabled: true
Nonlinearity correction enabled: false
Boxcar width: 0
XAxis mode: Wavelengths
Number of Pixels in Spectrum: 3648
>>>>>Begin Spectral Data<<<<<
345.248	-169.77
345.464	-169.77
345.681	-169.77
345.898	-217.24
346.114	-176.75
346.331	-17.29
346.548	30.76
346.764	-8.19
346.981	-29.3
347.197	-9.74
347.414	14.29
347.631	-32.99
347.847	52.84
348.064	8.67
348.28	20.68
348.497	-21.94
348.713	-7.8
348.93	53.81
349.146	7.12
349.363	3.83
349.579	15.06
349.796	-4.12
350.012	-13.42
350.229	62.34
350.445	21.07
350.661	14.68
350.878	-0.63
351.094	40.06
351.311	25.14
351.527	32.11
351.743	-15.16
351.96	54.01
352.176	52.26
352.392	24.94
352.609	29.98
352.825	-13.8
353.041	-12.64
353.257	9.64
353.474	43.16
353.69	60.21
353.906	34.05
354.122	-30.66
354.339	86.75
354.555	31.73
354.771	-1.02
354.987	91.4
355.203	82.1
355.42	27.66
355.636	6.73
355.852	7.7
356.068	37.54
356.284	0.92
356.5	77.26
356.716	24.94
356.932	11.96
357.148	62.53
357.364	11.19
357.58	64.86
357.796	74.35
358.012	54.01
358.228	35.99
358.444	-46.94
358.66	61.56
358.876	34.24
359.092	-1.79
359.308	35.99
359.524	29.21
359.74	4.21
359.956	-0.05
360.172	6.15
360.388	63.69
360.604	24.36
360.819	122.59
361.035	16.23
361.251	57.88
361.467	7.12
361.683	69.89
361.898	38.7
362.114	46.26
362.33	27.27
362.546	79.19
362.762	9.83
362.977	36.96
363.193	1.5
363.409	81.13
363.624	14.1
363.84	21.07
364.056	21.26
364.271	39.09
364.487	64.86
364.703	31.34
364.918	6.35
365.134	22.62
365.35	17
365.565	135.38
365.781	51.29
365.996	55.94
366.212	92.95
366.427	59.43
366.643	0.53
366.858	56.53
367.074	-0.44
367.289	82.29
367.505	149.14
367.72	-6.25
367.936	46.26
368.151	61.95
368.367	69.7
368.582	48.19
368.798	40.44
369.013	91.21
369.228	58.08
369.444	58.08
369.659	91.98
369.874	72.03
370.09	132.09
370.305	-24.07
370.52	47.61
370.736	107.09
370.951	51.68
371.166	111.55
371.381	125.11
371.597	71.64
371.812	3.25
372.027	27.08
372.242	59.24
372.458	176.26
372.673	25.14
372.888	55.75
373.103	76.68
373.318	139.45
373.533	98.57
373.749	76.09
373.964	-7.6
374.179	101.28
374.394	17
374.609	106.13
374.824	8.48
375.039	82.68
375.254	39.48
375.469	104.38
375.684	82.68
375.899	90.24
376.114	37.73
376.329	60.98
376.544	102.44
376.759	99.54
376.974	30.95
377.189	64.86
377.404	27.46
377.619	104.96
377.834	32.5
378.049	51.1
378.264	43.54
378.478	77.64
378.693	66.41
378.908	102.64
379.123	66.41
379.338	112.13
379.553	58.66
379.767	93.92
379.982	80.55
380.197	92.37
380.412	63.5
380.626	94.89
380.841	166.96
381.056	92.56
381.271	146.62
381.485	45.48
381.7	59.43
381.915	73.58
382.129	54.98
382.344	58.46
382.559	50.52
382.773	97.6
382.988	17.97
383.202	62.92
383.417	39.28
383.632	156.31
383.846	51.88
384.061	74.74
384.275	40.83
384.49	79.78
384.704	80.36
384.919	88.69
385.133	83.84
385.348	107.68
385.562	52.84
385.777	109.23
385.991	62.92
386.206	54.78
386.42	57.49
386.634	116.78
386.849	85.01
387.063	97.41
387.277	76.87
387.492	59.24
387.706	30.37
387.92	48.39
388.135	147.78
388.349	99.15
388.563	116.01
388.778	131.89
388.992	116.97
389.206	120.85
389.42	171.42
389.635	95.86
389.849	144.29
390.063	157.47
390.277	151.27
390.491	172.58
390.706	131.51
390.92	137.51
391.134	124.53
391.348	146.81
391.562	69.31
391.776	120.07
391.99	80.55
392.205	159.79
392.419	91.01
392.633	132.28
392.847	172.19
393.061	87.33
393.275	154.76
393.489	63.11
393.703	87.14
393.917	113.29
394.131	58.85
394.345	134.22
394.559	147.01
394.773	95.28
394.986	161.54
395.2	101.48
395.414	134.41
395.628	101.67
395.842	171.61
396.056	118.33
396.27	87.53
396.484	181.88
396.697	124.72
396.911	160.18
397.125	140.61
397.339	169.09
397.553	105.74
397.766	184.21
397.98	158.05
398.194	193.89
398.408	136.54
398.621	190.21
398.835	214.62
399.049	177.23
399.262	249.5
399.476	227.02
399.69	217.92
399.903	289.6
400.117	194.09
400.331	198.15
400.544	168.12
400.758	301.62
400.971	241.94
401.185	243.49
401.398	193.51
401.612	252.4
401.826	272.55
402.039	227.99
402.253	186.92
402.466	242.33
402.68	234.58
402.893	249.69
403.106	228.96
403.32	239.42
403.533	233.03
403.747	221.99
403.96	230.12
404.174	267.32
404.387	201.06
404.6	273.72
404.814	272.36
405.027	259.57
405.24	246.59
405.454	252.79
405.667	272.75
405.88	189.63
406.094	263.45
406.307	308.01
406.52	259.19
406.733	180.52
406.947	190.21
407.16	325.06
407.373	299.87
407.586	231.67
407.799	225.28
408.012	272.94
408.226	253.37
408.439	328.55
408.652	246.01
408.865	264.42
409.078	323.51
409.291	269.84
409.504	229.35
409.717	296.77
409.93	304.52
410.143	278.75
410.357	208.04
410.57	184.01
410.783	241.55
410.996	251.44
411.209	267.13
411.421	305.68
411.634	297.16
411.847	287.08
412.06	308.01
412.273	272.75
412.486	296.97
412.699	388.41
412.912	332.81
413.125	333.39
413.338	298.9
413.55	333
413.763	293.67
413.976	322.15
414.189	268.68
414.402	304.91
414.615	382.99
414.827	266.74
415.04	352.57
415.253	329.32
415.466	359.93
415.678	380.86
415.891	334.17
416.104	333
416.316	282.05
416.529	298.52
416.742	369.23
416.954	385.51
417.167	334.55
417.38	351.6
417.592	368.07
417.805	286.7
418.017	274.69
418.23	355.87
418.442	289.22
418.655	277.4
418.868	325.83
419.08	361.87
419.293	383.57
419.505	355.28
419.718	351.41
419.93	373.69
420.142	322.93
420.355	356.45
420.567	397.33
420.78	353.54
420.992	351.8
421.205	401.01
421.417	315.95
421.629	357.61
421.842	344.43
422.054	334.94
422.266	402.95
422.479	441.11
422.691	340.75
422.903	396.94
423.115	327.19
423.328	364.2
423.54	361.68
423.752	370.2
423.964	346.37
424.177	361.48
424.389	367.68
424.601	481.41
424.813	393.45
425.025	409.15
425.238	393.65
425.45	364.58
425.662	358.77
425.874	709.65
426.086	377.76
426.298	402.17
426.51	376.98
426.722	395.58
426.934	384.73
427.146	413.99
427.358	329.32
427.57	423.68
427.782	388.61
427.994	364
428.206	346.37
428.418	343.27
428.63	409.15
428.842	447.7
429.054	386.48
429.266	391.13
429.478	355.09
429.69	385.12
429.902	293.09
430.114	392.68
430.325	368.07
430.537	342.69
430.749	332.42
430.961	254.15
431.173	300.84
431.384	348.31
431.596	256.47
431.808	359.74
432.02	402.17
432.231	466.3
432.443	495.36
432.655	468.24
432.867	426
433.078	437.82
433.29	500.4
433.502	487.23
433.713	496.14
433.925	502.73
434.136	499.82
434.348	391.13
434.56	366.13
434.771	516.09
434.983	384.73
435.194	451.38
435.406	457.78
435.617	495.56
435.829	547.09
436.04	517.26
436.252	530.04
436.463	580.03
436.675	554.84
436.886	517.84
437.098	545.93
437.309	617.81
437.521	513.77
437.732	563.95
437.943	505.24
438.155	546.32
438.366	453.13
438.578	586.23
438.789	498.46
439	490.13
439.211	470.18
439.423	525.01
439.634	527.14
439.845	550.58
440.057	541.86
440.268	591.66
440.479	509.12
440.69	574.41
440.902	498.27
441.113	558.33
441.324	500.98
441.535	567.82
441.746	620.72
441.957	544.96
442.168	564.72
442.38	595.34
442.591	625.56
442.802	562.59
443.013	573.44
443.224	624.21
443.435	567.82
443.646	592.24
443.857	575.96
444.068	598.44
444.279	582.94
444.49	687.56
444.701	621.69
444.912	691.82
445.123	654.04
445.334	652.1
445.545	640.87
445.756	602.51
445.967	611.22
446.178	585.26
446.388	623.43
446.599	626.34
446.81	640.87
447.021	583.32
447.232	647.45
447.443	658.89
447.653	604.25
447.864	682.14
448.075	676.32
448.286	708.1
448.496	655.01
448.707	675.74
448.918	620.72
449.129	748.98
449.339	664.89
449.55	686.98
449.761	655.01
449.971	698.02
450.182	672.45
450.393	702.87
450.603	669.74
450.814	740.65
451.024	707.9
451.235	757.12
451.446	777.85
451.656	771.26
451.867	684.46
452.077	731.73
452.288	783.85
452.498	748.4
452.709	693.57
452.919	716.04
453.13	663.34
453.34	728.25
453.55	644.94
453.761	702.67
453.971	697.83
454.182	719.53
454.392	721.66
454.602	793.73
454.813	721.66
455.023	744.52
455.233	676.52
455.444	716.82
455.654	635.44
455.864	679.42
456.075	738.52
456.285	708.49
456.495	672.84
456.705	733.48
456.916	770.1
457.126	810.59
457.336	730.96
457.546	683.1
457.756	749.56
457.967	794.9
458.177	736.77
458.387	746.07
458.597	695.7
458.807	737.55
459.017	732.32
459.227	693.76
459.437	730.96
459.647	768.74
459.857	762.73
460.068	703.84
460.278	796.06
460.488	740.65
460.698	817.56
460.908	774.75
461.117	728.44
461.327	730.77
461.537	766.42
461.747	780.95
461.957	757.7
462.167	899.52
462.377	839.46
462.587	781.14
462.797	832.87
463.007	773
463.216	807.49
463.426	859.03
463.636	838.68
463.846	733.48
464.056	773
464.265	813.3
464.475	768.35
464.685	800.52
464.895	832.1
465.104	800.52
465.314	838.68
465.524	778.43
465.733	759.25
465.943	869.49
466.153	885.57
466.362	865.81
466.572	831.32
466.782	810.01
466.991	853.21
467.201	880.92
467.41	778.43
467.62	820.47
467.829	832.29
468.039	872.78
468.249	832.1
468.458	829.19
468.668	883.44
468.877	889.45
469.086	921.41
469.296	915.21
469.505	852.63
469.715	933.43
469.924	914.63
470.134	930.52
470.343	945.24
470.552	888.67
470.762	854.57
470.971	844.69
471.18	894.48
471.39	891.58
471.599	833.65
471.808	934.2
472.018	934.78
472.227	963.07
472.436	981.28
472.645	951.44
472.855	926.45
473.064	1030.69
473.273	1017.71
473.482	971.4
473.691	1044.25
473.901	1005.5
474.11	946.6
474.319	1081.84
474.528	994.84
474.737	1112.45
474.946	1045.99
475.155	1032.24
475.364	1090.75
475.573	1030.49
475.783	1088.42
475.992	1078.93
476.201	1078.15
476.41	1063.04
476.619	1046.77
476.828	1044.64
477.037	1018.48
477.245	1089.2
477.454	1087.07
477.663	1066.92
477.872	1091.14
478.081	1172.51
478.29	1084.94
478.499	1194.02
478.708	1158.17
478.917	1224.05
479.125	1117.68
479.334	1158.56
479.543	1120.39
479.752	1171.15
479.961	1171.35
480.169	1219.78
480.378	1210.87
480.587	1344.75
480.796	1235.67
481.004	1218.04
481.213	1268.61
481.422	1250.2
481.63	1268.22
481.839	1282.75
482.048	1322.28
482.256	1289.92
482.465	1315.5
482.674	1326.15
482.882	1321.89
483.091	1382.73
483.299	1330.61
483.508	1363.93
483.716	1354.63
483.925	1325.96
484.134	1273.45
484.342	1310.46
484.551	1357.73
484.759	1346.69
484.967	1367.23
485.176	1368.78
485.384	1391.83
485.593	1360.64
485.801	1374.2
486.01	1304.84
486.218	1238.58
486.426	1181.23
486.635	1160.11
486.843	1180.26
487.051	1224.63
487.26	1208.55
487.468	1303.29
487.676	1309.88
487.885	1291.28
488.093	1359.09
488.301	1395.9
488.509	1374.39
488.717	1441.24
488.926	1421.67
489.134	1365.48
489.342	1415.47
489.55	1414.5
489.758	1413.73
489.967	1434.26
490.175	1551.87
490.383	1469.72
490.591	1582.29
490.799	1472.04
491.007	1545.67
491.215	1505.56
491.423	1500.52
491.631	1537.92
491.839	1519.7
492.047	1518.74
492.255	1436.01
492.463	1472.24
492.671	1447.24
492.879	1519.32
493.087	1501.3
493.295	1542.57
493.503	1553.22
493.711	1579.38
493.919	1592.75
494.127	1605.53
494.334	1604.76
494.542	1495.49
494.75	1616.38
494.958	1604.37
495.166	1671.99
495.374	1663.47
495.581	1667.73
495.789	1659.59
495.997	1708.61
496.205	1614.64
496.412	1598.56
496.62	1632.47
496.828	1667.73
497.035	1664.05
497.243	1709.77
497.451	1669.28
497.658	1694.46
497.866	1657.27
498.074	1749.68
498.281	1645.83
498.489	1760.92
498.696	1662.69
498.904	1583.84
499.112	1611.93
499.319	1752.59
499.527	1659.59
499.734	1742.71
499.942	1626.46
500.149	1657.85
500.357	1754.91
500.564	1663.66
500.771	1684
500.979	1629.95
501.186	1610.57
501.394	1690.59
501.601	1628.2
501.808	1652.81
502.016	1659.59
502.223	1633.05
502.43	1669.08
502.638	1678
502.845	1670.63
503.052	1741.55
503.26	1671.41
503.467	1814.59
503.674	1727.98
503.881	1756.85
504.089	1827.57
504.296	1730.7
504.503	1674.51
504.71	1709.77
504.917	1682.65
505.125	1752.59
505.332	1760.15
505.539	1746.58
505.746	1838.61
505.953	1815.36
506.16	1804.71
506.367	1850.63
506.574	1881.62
506.781	1885.69
506.988	1835.51
507.195	1857.79
507.402	1818.46
507.609	1858.76
507.816	1813.81
508.023	1774.48
508.23	1771.58
508.437	1736.9
508.644	1802.77
508.851	1851.4
509.058	1879.11
509.265	1835.9
509.472	1863.8
509.679	1974.04
509.885	1870
510.092	1900.61
510.299	1844.81
510.506	1836.87
510.713	1881.62
510.92	1833.19
511.126	1907.59
511.333	1968.04
511.54	1902.55
511.746	1913.98
511.953	1938.78
512.16	1979.66
512.367	1918.63
512.573	1911.27
512.78	1921.54
512.987	1899.64
513.193	1895.19
513.4	1832.8
513.606	1870.39
513.813	1923.67
514.02	1902.94
514.226	1971.52
514.433	1957.96
514.639	1884.72
514.846	1882.59
515.052	1851.59
515.259	1918.05
515.465	1901.39
515.672	1888.41
515.878	2012.99
516.085	1944.4
516.291	1975.59
516.497	1929.09
516.704	1899.06
516.91	1885.5
517.117	1783.59
517.323	1708.41
517.529	1713.84
517.736	1745.03
517.942	1761.89
518.148	1805.09
518.354	1864.38
518.561	1834.35
518.767	1838.61
518.973	1876.78
519.179	1938.97
519.386	1879.11
519.592	1890.73
519.798	1921.92
520.004	2008.53
520.21	1964.94
520.417	1999.42
520.623	2068.4
520.829	2086.61
521.035	2084.48
521.241	2030.81
521.447	2084.09
521.653	2216.61
521.859	2069.95
522.065	2121.1
522.271	2250.33
522.477	2189.68
522.683	2189.88
522.889	2171.86
523.095	2148.61
523.301	2127.49
523.507	2103.27
523.713	2116.06
523.919	2104.63
524.125	2221.07
524.331	2168.76
524.537	2254.01
524.742	2279.78
524.948	2304.38
525.154	2330.54
525.36	2377.62
525.566	2256.14
525.772	2365.99
525.977	2263.11
526.183	2314.46
526.389	2356.31
526.595	2257.3
526.8	2249.36
527.006	2151.71
527.212	2113.54
527.417	2058.52
527.623	2095.91
527.829	2150.16
528.034	2228.82
528.24	2210.61
528.446	2210.61
528.651	2337.71
528.857	2322.98
529.062	2410.36
529.268	2387.5
529.473	2375.29
529.679	2396.8
529.884	2476.23
530.09	2424.31
530.295	2456.09
530.501	2468.87
530.706	2482.82
530.912	2446.98
531.117	2430.7
531.323	2429.54
531.528	2525.25
531.733	2527.97
531.939	2471.97
532.144	2537.65
532.35	2503.36
532.555	2531.65
532.76	2493.87
532.966	2474.1
533.171	2464.8
533.376	2415.98
533.581	2393.31
533.787	2435.16
533.992	2461.7
534.197	2483.79
534.402	2488.83
534.607	2509.56
534.813	2599.26
535.018	2491.15
535.223	2490.38
535.428	2508.78
535.633	2582.02
535.838	2559.55
536.043	2642.28
536.249	2696.14
536.454	2543.27
536.659	2579.89
536.864	2569.23
537.069	2569.81
537.274	2574.46
537.479	2549.08
537.684	2571.56
537.889	2482.24
538.094	2682.77
538.299	2579.7
538.504	2584.15
538.708	2586.67
538.913	2627.75
539.118	2606.82
539.323	2640.34
539.528	2553.93
539.733	2598.68
539.938	2568.46
540.142	2611.47
540.347	2551.8
540.552	2518.86
540.757	2539.78
540.962	2533
541.166	2455.12
541.371	2444.46
541.576	2492.12
541.781	2446.98
541.985	2576.4
542.19	2530.48
542.395	2632.2
542.599	2667.85
542.804	2597.33
543.008	2703.11
543.213	2541.53
543.418	2548.5
543.622	2662.23
543.827	2580.08
544.031	2692.46
544.236	2673.28
544.44	2674.63
544.645	2736.24
544.849	2641.5
545.054	2687.23
545.258	2776.74
545.463	2687.81
545.667	2633.95
545.872	2710.86
546.076	2712.99
546.281	2699.24
546.485	2600.23
546.689	2701.18
546.894	2722.1
547.098	2672.5
547.302	2632.78
547.507	2626.39
547.711	2674.83
547.915	2749.22
548.119	2627.75
548.324	2630.85
548.528	2736.24
548.732	2638.98
548.936	2730.62
549.141	2719.78
549.345	2700.79
549.549	2683.93
549.753	2721.52
549.957	2771.12
550.161	2785.07
550.366	2739.92
550.57	2675.99
550.774	2735.08
550.978	2695.56
551.182	2759.49
551.386	2659.33
551.59	2678.51
551.794	2690.13
551.998	2715.51
552.202	2680.64
552.406	2645.96
552.61	2749.42
552.814	2722.68
553.018	2782.36
553.222	2693.81
553.426	2649.44
553.63	2799.41
553.833	2714.16
554.037	2616.9
554.241	2706.02
554.445	2674.63
554.649	2707.38
554.853	2680.06
555.056	2776.54
555.26	2762.79
555.464	2706.02
555.668	2743.22
555.871	2760.27
556.075	2756.97
556.279	2653.9
556.483	2687.23
556.686	2680.83
556.89	2716.68
557.094	2685.09
557.297	2623.87
557.501	2695.75
557.704	2563.03
557.908	2661.26
558.112	2632.2
558.315	2724.62
558.519	2650.8
558.722	2576.01
558.926	2615.15
559.129	2528.93
559.333	2516.73
559.536	2508.2
559.74	2541.92
559.943	2486.12
560.147	2529.9
560.35	2521.18
560.553	2570.78
560.757	2494.45
560.96	2569.62
561.164	2554.9
561.367	2611.28
561.57	2599.46
561.774	2561.68
561.977	2533.78
562.18	2515.57
562.384	2647.89
562.587	2508.59
562.79	2476.04
562.993	2531.45
563.197	2580.28
563.4	2613.02
563.603	2589.38
563.806	2637.24
564.009	2493.87
564.212	2551.02
564.416	2445.82
564.619	2534.94
564.822	2445.24
565.025	2563.03
565.228	2489.8
565.431	2497.35
565.634	2373.36
565.837	2409.97
566.04	2390.4
566.243	2431.29
566.446	2282.68
566.649	2430.12
566.852	2348.75
567.055	2397.77
567.258	2416.37
567.461	2457.25
567.664	2470.23
567.867	2352.62
568.07	2411.91
568.273	2426.44
568.475	2484.37
568.678	2349.72
568.881	2336.16
569.084	2384.98
569.287	2259.04
569.489	2276.68
569.692	2336.35
569.895	2334.41
570.098	2292.56
570.3	2299.73
570.503	2223.01
570.706	2275.13
570.909	2236.38
571.111	2211.19
571.314	2186.2
571.516	2198.6
571.719	2240.64
571.922	2207.89
572.124	2187.36
572.327	2230.18
572.529	2173.02
572.732	2202.86
572.935	2254.78
573.137	2321.62
573.34	2220.68
573.542	2301.09
573.745	2265.24
573.947	2272.03
574.15	2218.16
574.352	2181.74
574.554	2289.66
574.757	2175.15
574.959	2180.58
575.162	2168.37
575.364	2177.48
575.566	2270.09
575.769	2120.13
575.971	2123.61
576.173	2019.96
576.376	2140.08
576.578	2171.47
576.78	2221.07
576.982	2094.75
577.185	2145.9
577.387	2076.34
577.589	2111.22
577.791	2146.28
577.993	2133.69
578.196	2094.55
578.398	2148.03
578.6	2199.37
578.802	2043.4
579.004	2057.35
579.206	2054.06
579.408	2129.23
579.61	2031.59
579.812	2153.26
580.014	2110.25
580.216	2068.2
580.418	2092.81
580.62	2060.84
580.822	2004.27
581.024	2099.2
581.226	2090.1
581.428	2045.15
581.63	2116.45
581.832	2044.18
582.034	2125.94
582.236	2057.16
582.438	2105.98
582.64	2155.58
582.841	2167.4
583.043	2167.4
583.245	2087.38
583.447	2103.66
583.649	2059.48
583.85	2096.88
584.052	2113.15
584.254	2030.04
584.456	2090.87
584.657	2021.7
584.859	2056.77
585.061	2035.27
585.262	2063.36
585.464	1982.18
585.666	2093.39
585.867	1994.58
586.069	2052.32
586.27	2049.22
586.472	2001.55
586.674	1978.11
586.875	2003.49
587.077	1987.99
587.278	2024.42
587.48	1987.99
587.681	2145.51
587.883	2025.19
588.084	1956.6
588.285	1992.25
588.487	1929.48
588.688	1978.5
588.89	1910.49
589.091	1868.45
589.292	1858.37
589.494	1807.42
589.695	1784.17
589.896	1713.65
590.098	1715.78
590.299	1793.86
590.5	1738.64
590.702	1779.33
590.903	1803.35
591.104	1887.24
591.305	1883.17
591.507	1906.81
591.708	1884.92
591.909	1849.08
592.11	1955.83
592.311	1909.52
592.512	1821.18
592.714	1810.52
592.915	1846.36
593.116	1837.64
593.317	1868.06
593.518	1845.78
593.719	1842.88
593.92	1885.11
594.121	1905.46
594.322	1843.46
594.523	1884.92
594.724	1807.23
594.925	1857.41
595.126	1859.54
595.327	1890.34
595.528	1859.34
595.729	1861.47
595.929	1818.46
596.13	1856.44
596.331	1873.1
596.532	1857.02
596.733	1931.03
596.934	1913.79
597.135	1906.42
597.335	1918.05
597.536	1812.07
597.737	1861.28
597.938	1823.31
598.138	1889.96
598.339	1834.35
598.54	1878.91
598.74	1869.81
598.941	1820.21
599.142	1918.24
599.342	1896.74
599.543	1836.87
599.744	1841.91
599.944	1835.51
600.145	1861.86
600.345	1857.02
600.546	1934.91
600.746	1891.31
600.947	1917.08
601.147	1865.93
601.348	1897.9
601.548	1803.93
601.749	1836.87
601.949	1770.99
602.15	1788.04
602.35	1803.54
602.551	1826.6
602.751	1767.12
602.951	1816.33
603.152	1735.93
603.352	1848.11
603.552	1819.43
603.753	1877.17
603.953	1849.08
604.153	1836.68
604.354	1836.29
604.554	1815.94
604.754	1809.94
604.954	1782.62
605.155	1861.86
605.355	1804.9
605.555	1863.41
605.755	1871.16
605.955	1836.29
606.155	1864.57
606.356	1815.56
606.556	1826.21
606.756	1842.49
606.956	1791.92
607.156	1852.56
607.356	1776.61
607.556	1794.44
607.756	1790.56
607.956	1817.69
608.156	1817.11
608.356	1756.27
608.556	1820.59
608.756	1787.66
608.956	1724.11
609.156	1740.58
609.356	1725.27
609.556	1731.47
609.755	1747.16
609.955	1702.41
610.155	1772.74
610.355	1739.41
610.555	1694.85
610.755	1711.71
610.954	1622.78
611.154	1724.69
611.354	1735.93
611.554	1673.15
611.753	1673.54
611.953	1681.87
612.153	1715.39
612.352	1739.8
612.552	1630.33
612.752	1653.97
612.951	1689.23
613.151	1704.93
613.351	1649.52
613.55	1679.55
613.75	1689.04
613.949	1663.47
614.149	1673.93
614.348	1666.95
614.548	1628.4
614.747	1579.77
614.947	1624.91
615.146	1550.9
615.346	1690.59
615.545	1657.65
615.745	1606.7
615.944	1680.52
616.144	1627.04
616.343	1660.17
616.542	1623.17
616.742	1570.08
616.941	1582.09
617.14	1543.15
617.34	1597.01
617.539	1553.22
617.738	1571.05
617.938	1656.49
618.137	1634.79
618.336	1519.7
618.535	1583.84
618.734	1601.08
618.934	1621.42
619.133	1618.52
619.332	1610.57
619.531	1548.38
619.73	1568.14
619.929	1638.86
620.128	1601.85
620.328	1665.02
620.527	1565.82
620.726	1591
620.925	1626.27
621.124	1578.99
621.323	1592.75
621.522	1534.62
621.721	1556.71
621.92	1500.14
622.119	1570.08
622.318	1534.62
622.517	1544.7
622.715	1531.91
622.914	1478.44
623.113	1510.79
623.312	1470.69
623.511	1524.16
623.71	1518.35
623.909	1460.61
624.107	1602.63
624.306	1471.66
624.505	1480.57
624.704	1469.33
624.902	1456.35
625.101	1556.52
625.3	1498.01
625.499	1448.02
625.697	1472.24
625.896	1418.76
626.095	1505.95
626.293	1428.64
626.492	1481.54
626.69	1491.03
626.889	1432.91
627.088	1494.32
627.286	1424.77
627.485	1430.77
627.683	1448.41
627.882	1453.06
628.08	1383.5
628.279	1434.84
628.477	1481.15
628.676	1418.38
628.874	1462.94
629.073	1394.54
629.271	1367.23
629.469	1419.73
629.668	1426.71
629.866	1398.61
630.065	1402.49
630.263	1424.96
630.461	1391.25
630.66	1378.46
630.858	1423.22
631.056	1467.2
631.254	1464.68
631.453	1360.06
631.651	1423.61
631.849	1381.56
632.047	1414.11
632.245	1387.18
632.444	1389.12
632.642	1423.61
632.84	1428.84
633.038	1405.01
633.236	1368.78
633.434	1387.76
633.632	1362.77
633.83	1367.23
634.028	1452.28
634.227	1400.36
634.425	1484.25
634.623	1406.36
634.821	1382.53
635.019	1370.91
635.216	1380.01
635.414	1415.86
635.612	1385.83
635.81	1378.66
636.008	1445.5
636.206	1388.54
636.404	1400.55
636.602	1369.74
636.8	1345.53
636.997	1383.89
637.195	1410.63
637.393	1398.81
637.591	1450.15
637.789	1374.39
637.986	1367.42
638.184	1381.37
638.382	1423.02
638.58	1380.98
638.777	1461.97
638.975	1385.83
639.173	1396.09
639.37	1360.64
639.568	1394.54
639.765	1416.24
639.963	1352.5
640.161	1376.14
640.358	1409.08
640.556	1308.52
640.753	1312.98
640.951	1343.59
641.148	1348.04
641.346	1323.25
641.543	1335.06
641.741	1347.85
641.938	1298.06
642.136	1336.61
642.333	1273.26
642.531	1376.14
642.728	1388.15
642.925	1353.47
643.123	1290.31
643.32	1331
643.517	1315.5
643.715	1343.59
643.912	1316.08
644.109	1341.07
644.306	1290.31
644.504	1287.4
644.701	1307.55
644.898	1332.35
645.095	1305.03
645.293	1302.32
645.49	1339.13
645.687	1314.91
645.884	1327.51
646.081	1235.87
646.278	1275.2
646.475	1270.16
646.672	1253.3
646.87	1304.45
647.067	1270.55
647.264	1279.85
647.461	1216.49
647.658	1158.75
647.855	1288.37
648.052	1233.54
648.249	1142.09
648.446	1235.28
648.642	1183.55
648.839	1224.05
649.036	1197.5
649.233	1144.42
649.43	1186.65
649.627	1132.4
649.824	1168.44
650.021	1158.75
650.217	1172.12
650.414	1198.28
650.611	1210.68
650.808	1184.52
651.004	1163.98
651.201	1192.08
651.398	1281.78
651.595	1190.14
651.791	1160.5
651.988	1240.9
652.185	1155.46
652.381	1190.72
652.578	1138.41
652.775	1202.35
652.971	1169.41
653.168	1175.42
653.364	1202.93
653.561	1095.79
653.757	1181.62
653.954	1170.57
654.15	1153.52
654.347	1200.8
654.543	1178.9
654.74	1145.77
654.936	1100.44
655.133	1127.17
655.329	1143.25
655.525	1140.35
655.722	1157.4
655.918	1132.4
656.115	1124.65
656.311	1014.61
656.507	995.23
656.704	937.3
656.9	993.29
657.096	964.81
657.292	965.2
657.489	1067.31
657.685	1020.81
657.881	1033.4
658.077	1055.49
658.273	1080.87
658.47	1153.14
658.666	1109.93
658.862	1151
659.058	1108.57
659.254	1141.9
659.45	1104.12
659.646	1105.67
659.842	1077.57
660.038	1132.21
660.234	1084.55
660.43	1070.79
660.626	1163.02
660.822	1128.34
661.018	1177.74
661.214	1110.12
661.41	1093.65
661.606	1125.24
661.802	1145.77
661.998	1128.92
662.194	1064.01
662.39	1142.09
662.586	1116.32
662.781	1106.64
662.977	1140.93
663.173	1149.65
663.369	1096.56
663.564	1113.8
663.76	1133.76
663.956	1083.97
664.152	1136.09
664.347	1045.22
664.543	1076.99
664.739	1055.29
664.934	1004.14
665.13	1027.97
665.326	1064.01
665.521	1095.2
665.717	1019.64
665.912	1011.89
666.108	1000.07
666.304	1040.76
666.499	1054.71
666.695	975.86
666.89	1034.76
667.086	1092.3
667.281	1057.04
667.477	1145.39
667.672	1036.11
667.867	1057.42
668.063	1061.3
668.258	1003.37
668.454	1041.73
668.649	1099.47
668.844	1053.16
669.04	1028.94
669.235	1018.67
669.43	1007.24
669.626	992.91
669.821	988.45
670.016	982.83
670.211	1009.57
670.407	983.99
670.602	1035.53
670.797	1021.19
670.992	1070.79
671.187	997.94
671.382	1070.99
671.578	991.74
671.773	1052.97
671.968	976.83
672.163	1008.99
672.358	1042.31
672.553	961.13
672.748	1019.64
672.943	1080.48
673.138	952.22
673.333	1060.91
673.528	968.11
673.723	1029.72
673.918	1001.62
674.113	964.43
674.308	1059.75
674.503	1006.66
674.698	1021.19
674.892	977.99
675.087	1022.55
675.282	993.87
675.477	967.14
675.672	979.73
675.867	978.38
676.061	971.01
676.256	914.44
676.451	973.53
676.646	994.84
676.84	964.62
677.035	936.33
677.23	916.18
677.424	1001.24
677.619	999.11
677.814	1002.4
678.008	1042.31
678.203	910.56
678.397	970.04
678.592	961.91
678.787	1001.62
678.981	958.03
679.176	990
679.37	972.95
679.565	951.44
679.759	964.04
679.954	977.79
680.148	1031.85
680.342	1045.41
680.537	975.86
680.731	933.23
680.926	991.36
681.12	990.19
681.314	911.73
681.509	971.4
681.703	971.98
681.897	1001.62
682.092	941.76
682.286	908.63
682.48	1037.47
682.674	1012.28
682.869	975.08
683.063	982.25
683.257	1016.35
683.451	938.27
683.645	993.49
683.839	961.71
684.034	990.77
684.228	1003.37
684.422	907.66
684.616	918.7
684.81	1015.96
685.004	934.78
685.198	942.53
685.392	1000.85
685.586	937.11
685.78	966.94
685.974	981.09
686.168	989.22
686.362	1006.86
686.556	909.98
686.75	870.46
686.944	892.35
687.138	898.36
687.331	791.8
687.525	787.53
687.719	727.28
687.913	816.79
688.107	818.73
688.301	791.02
688.494	849.15
688.688	781.33
688.882	776.1
689.076	763.12
689.269	812.14
689.463	904.94
689.657	810.59
689.85	797.42
690.044	862.13
690.238	800.52
690.431	814.66
690.625	817.56
690.818	871.23
691.012	891.77
691.205	882.86
691.399	829.19
691.593	868.71
691.786	937.88
691.98	942.14
692.173	968.11
692.366	946.41
692.56	955.71
692.753	976.63
692.947	896.81
693.14	982.44
693.333	985.35
693.527	899.91
693.72	961.91
693.914	952.99
694.107	952.03
694.3	932.46
694.493	931.1
694.687	971.98
694.88	929.94
695.073	1007.63
695.266	1002.01
695.46	990.97
695.653	1012.28
695.846	1011.51
696.039	930.71
696.232	979.34
696.425	1023.52
696.618	1009.76
696.812	991.55
697.005	1076.41
697.198	1139.96
697.391	1066.72
697.584	1097.14
697.777	1161.66
697.97	1134.54
698.163	1135.5
698.356	1099.08
698.549	1215.13
698.742	1174.25
698.935	1113.42
699.127	1176.97
699.32	1133.95
699.513	1120.78
699.706	1136.28
699.899	1203.9
700.092	1141.7
700.285	1186.27
700.477	1138.02
700.67	1177.55
700.863	1227.53
701.056	1304.84
701.248	1272.29
701.441	1254.27
701.634	1209.32
701.826	1328.86
702.019	1248.85
702.212	1282.17
702.404	1265.51
702.597	1255.63
702.79	1286.43
702.982	1335.26
703.175	1356.57
703.367	1386.21
703.56	1372.07
703.752	1460.42
703.945	1411.98
704.137	1426.51
704.33	1470.88
704.522	1471.27
704.715	1461.97
704.907	1496.65
705.1	1520.67
705.292	1519.12
705.484	1500.91
705.677	1566.98
705.869	1567.56
706.061	1613.87
706.254	1634.79
706.446	1617.74
706.638	1570.66
706.831	1672.18
707.023	1612.32
707.215	1738.25
707.407	1711.32
707.599	1684.97
707.792	1778.94
707.984	1762.66
708.176	1805.48
708.368	1723.72
708.56	1816.91
708.752	1775.06
708.944	1798.12
709.136	1847.72
709.329	1826.41
709.521	1950.02
709.713	1911.85
709.905	1930.64
710.097	1971.52
710.289	1907.01
710.481	1963.77
710.672	1962.8
710.864	1987.99
711.056	2056.97
711.248	2025.77
711.44	2044.95
711.632	2032.36
711.824	2120.13
712.016	2167.21
712.207	2127.1
712.399	2138.92
712.591	2206.93
712.783	2194.72
712.975	2204.6
713.166	2176.9
713.358	2188.33
713.55	2246.84
713.741	2272.61
713.933	2311.16
714.125	2291.21
714.316	2242.58
714.508	2401.06
714.7	2356.11
714.891	2406.1
715.083	2436.9
715.274	2381.69
715.466	2418.5
715.657	2491.15
715.849	2353.79
716.04	2439.81
716.232	2401.06
716.423	2440.2
716.615	2400.29
716.806	2361.15
716.998	2286.75
717.189	2272.03
717.381	2195.3
717.572	2223.59
717.763	2239.28
717.955	2188.52
718.146	2189.3
718.337	2133.3
718.528	2109.28
718.72	2031.59
718.911	2106.18
719.102	2055.22
719.293	2124.78
719.485	2102.5
719.676	2126.13
719.867	2060.65
720.058	2066.85
720.249	2104.05
720.44	2123.61
720.632	2149
720.823	2239.67
721.014	2337.71
721.205	2357.08
721.396	2459.38
721.587	2542.69
721.778	2575.24
721.969	2636.27
722.16	2655.26
722.351	2702.14
722.542	2834.28
722.733	2830.02
722.924	2777.9
723.115	2846.1
723.305	2809.09
723.496	2874.19
723.687	2716.09
723.878	2703.11
724.069	2733.53
724.26	2767.44
724.45	2702.73
724.641	2676.57
724.832	2732.56
725.023	2703.89
725.213	2705.24
725.404	2718.61
725.595	2715.13
725.785	2722.1
725.976	2787.2
726.167	2783.91
726.357	2785.07
726.548	2873.8
726.739	2815.87
726.929	2914.3
727.12	2954.02
727.31	2997.8
727.501	2895.31
727.691	2926.12
727.882	2945.49
728.072	3003.23
728.263	2962.35
728.453	3034.61
728.644	3075.88
728.834	3025.12
729.024	2979.4
729.215	3042.95
729.405	3043.33
729.596	3148.73
729.786	3143.69
729.976	3165.2
730.167	3208.02
730.357	3166.36
730.547	3155.9
730.737	3236.11
730.928	3223.71
731.118	3323.3
731.308	3254.52
731.498	3278.35
731.688	3403.32
731.879	3319.62
732.069	3419.98
732.259	3467.06
732.449	3491.08
732.639	3581.95
732.829	3587.57
733.019	3618.76
733.209	3677.86
733.399	3712.54
733.589	3828.01
733.779	3792.75
733.969	3764.46
734.159	3886.33
734.349	3924.88
734.539	3979.71
734.729	3931.86
734.919	4027.76
735.109	4095.77
735.299	3959.37
735.488	3971.19
735.678	4043.07
735.868	4021.56
736.058	4047.33
736.248	4006.06
736.437	3978.55
736.627	3973.9
736.817	4116.69
737.007	4028.73
737.196	4123.47
737.386	4124.25
737.576	4066.51
737.765	4172.49
737.955	4118.82
738.144	4256.19
738.334	4213.76
738.524	4176.37
738.713	4194
738.903	4204.85
739.092	4247.86
739.282	4290.48
739.471	4240.3
739.661	4242.63
739.85	4289.9
740.04	4297.46
740.229	4296.68
740.419	4355.2
740.608	4317.03
740.797	4310.25
740.987	4402.86
741.176	4435.41
741.365	4368.95
741.555	4326.52
741.744	4399.37
741.933	4347.83
742.123	4408.86
742.312	4408.28
742.501	4451.68
742.69	4424.94
742.88	4337.37
743.069	4505.74
743.258	4439.67
743.447	4536.74
743.636	4495.47
743.825	4456.72
744.014	4459.82
744.204	4529.96
744.393	4494.69
744.582	4601.64
744.771	4610.55
744.96	4509.61
745.149	4560.37
745.338	4552.04
745.527	4592.34
745.716	4520.07
745.905	4559.99
746.094	4605.52
746.283	4581.88
746.471	4601.45
746.66	4651.82
746.849	4651.63
747.038	4652.99
747.227	4598.15
747.416	4654.92
747.604	4545.46
747.793	4591.95
747.982	4630.51
748.171	4597.77
748.359	4634.39
748.548	4603.39
748.737	4652.99
748.926	4657.25
749.114	4508.64
749.303	4631.48
749.491	4605.32
749.68	4488.11
749.869	4649.11
750.057	4529.18
750.246	4542.16
750.434	4568.32
750.623	4577.04
750.811	4531.89
751	4604.94
751.188	4530.54
751.377	4518.33
751.565	4503.61
751.754	4551.66
751.942	4528.21
752.131	4578.97
752.319	4497.21
752.507	4511.36
752.696	4535.96
752.884	4547.01
753.072	4520.46
753.261	4612.1
753.449	4538.87
753.637	4490.62
753.825	4603.77
754.014	4529.96
754.202	4525.69
754.39	4570.64
754.578	4585.75
754.766	4521.43
754.955	4433.86
755.143	4562.89
755.331	4491.79
755.519	4485.59
755.707	4493.53
755.895	4467.96
756.083	4502.83
756.271	4402.86
756.459	4460.21
756.647	4506.71
756.835	4462.73
757.023	4447.03
757.211	4392.39
757.399	4418.74
757.587	4448.39
757.775	4396.46
757.963	4389.3
758.151	4387.16
758.339	4323.81
758.526	4373.8
758.714	4377.09
758.902	4292.62
759.09	4200.39
759.278	4062.06
759.465	3780.93
759.653	3382.58
759.841	3052.25
760.028	2741.28
760.216	2389.05
760.404	2260.21
760.591	1955.64
760.779	1659.2
760.967	1528.42
761.154	1341.46
761.342	1416.24
761.529	1414.5
761.717	1499.36
761.905	1501.3
762.092	1624.72
762.28	1565.82
762.467	1613.67
762.655	1570.85
762.842	1608.44
763.029	1624.13
763.217	1660.17
763.404	1653
763.592	1701.25
763.779	1666.76
763.966	1725.85
764.154	1788.63
764.341	1836.68
764.528	1820.4
764.716	1893.44
764.903	1978.69
765.09	2077.89
765.277	2128.07
765.465	2297.41
765.652	2328.02
765.839	2452.99
766.026	2569.62
766.213	2614.18
766.4	2700.21
766.588	2901.51
766.775	2910.03
766.962	3015.43
767.149	3103.78
767.336	3268.27
767.523	3246.77
767.71	3343.25
767.897	3503.29
768.084	3564.51
768.271	3591.83
768.458	3630.58
768.645	3693.55
768.832	3623.99
769.019	3714.28
769.206	3733.65
769.392	3833.24
769.579	3902.6
769.766	3854.94
769.953	3882.06
770.14	3874.7
770.327	3866.18
770.513	3920.62
770.7	3995.99
770.887	3873.93
771.073	3939.41
771.26	3919.07
771.447	3890.2
771.634	3834.98
771.82	4017.11
772.007	3872.38
772.193	3963.24
772.38	3988.24
772.567	3898.34
772.753	3891.17
772.94	3954.33
773.126	3945.81
773.313	3971.19
773.499	3937.67
773.686	3939.22
773.872	3874.9
774.059	3945.81
774.245	3829.56
774.432	3861.72
774.618	3751.09
774.804	3853.58
774.991	3782.67
775.177	3904.54
775.363	3849.52
775.55	3885.75
775.736	3756.52
775.922	3840.8
776.109	3798.17
776.295	3798.17
776.481	3834.79
776.667	3877.22
776.853	3826.85
777.04	3812.32
777.226	3797.59
777.412	3814.64
777.598	3760.59
777.784	3788.87
777.97	3746.83
778.156	3794.68
778.342	3781.12
778.528	3714.09
778.715	3672.82
778.901	3736.56
779.087	3783.06
779.272	3671.46
779.458	3677.86
779.644	3690.06
779.83	3656.74
780.016	3768.53
780.202	3669.91
780.388	3719.7
780.574	3572.07
780.76	3609.46
780.946	3673.4
781.131	3643.17
781.317	3641.82
781.503	3604.62
781.689	3632.52
781.874	3733.65
782.06	3584.28
782.246	3655.96
782.432	3587.76
782.617	3639.11
782.803	3668.17
782.989	3521.89
783.174	3532.35
783.36	3504.65
783.545	3527.89
783.731	3532.35
783.916	3394.4
784.102	3514.53
784.288	3487.01
784.473	3506.58
784.659	3426.57
784.844	3501.74
785.029	3440.71
785.215	3419.78
785.4	3372.12
785.586	3503.48
785.771	3387.23
785.956	3445.16
786.142	3431.8
786.327	3403.12
786.512	3408.55
786.698	3390.33
786.883	3313.61
787.068	3355.65
787.254	3398.08
787.439	3391.69
787.624	3368.63
787.809	3339.77
787.994	3294.62
788.18	3387.62
788.365	3277.38
788.55	3299.66
788.735	3316.13
788.92	3291.33
789.105	3269.24
789.29	3309.74
789.475	3233.01
789.66	3260.72
789.845	3180.51
790.03	3178.37
790.215	3256.07
790.4	3251.81
790.585	3322.52
790.77	3200.66
790.955	3132.46
791.14	3197.36
791.325	3232.04
791.51	3118.7
791.695	3221.77
791.879	3160.16
792.064	3084.99
792.249	3231.27
792.434	3185.16
792.618	3153.38
792.803	3205.5
792.988	3136.72
793.173	3175.27
793.357	3179.92
793.542	3108.24
793.727	3132.46
793.911	3173.34
794.096	3128.58
794.281	3152.99
794.465	3254.13
794.65	3157.26
794.834	3231.66
795.019	3240.18
795.203	3230.11
795.388	3214.22
795.572	3295.4
795.757	3225.46
795.941	3229.52
796.126	3262.65
796.31	3146.6
796.494	3196.2
796.679	3183.02
796.863	3193.49
797.048	3264.59
797.232	3214.8
797.416	3234.76
797.601	3204.72
797.785	3290.75
797.969	3270.79
798.153	3240.76
798.338	3272.73
798.522	3271.76
798.706	3248.32
798.89	3278.15
799.074	3397.12
799.258	3315.74
799.443	3256.07
799.627	3230.69
799.811	3313.42
799.995	3258.2
800.179	3260.14
800.363	3238.05
800.547	3255.68
800.731	3306.25
800.915	3177.02
801.099	3219.45
801.283	3238.63
801.467	3247.35
801.651	3229.91
801.835	3260.33
802.019	3227.01
802.202	3285.9
802.386	3190.39
802.57	3198.14
802.754	3181.09
802.938	3221.97
803.121	3208.99
803.305	3297.53
803.489	3189.03
803.673	3260.91
803.856	3273.89
804.04	3196.97
804.224	3208.41
804.407	3189.61
804.591	3198.14
804.775	3178.57
804.958	3165.59
805.142	3344.61
805.326	3221.39
805.509	3220.61
805.693	3242.89
805.876	3283.19
806.06	3258.97
806.243	3228.75
806.427	3272.92
806.61	3312.84
806.794	3232.24
806.977	3262.46
807.16	3240.96
807.344	3221
807.527	3220.81
807.71	3189.42
807.894	3197.94
808.077	3222.16
808.26	3191.55
808.444	3164.81
808.627	3273.12
808.81	3155.71
808.993	3109.98
809.177	3114.24
809.36	3106.3
809.543	3191.74
809.726	3082.28
809.909	3030.74
810.092	3033.65
810.276	3046.24
810.459	3070.26
810.642	3047.98
810.825	3021.25
811.008	3057.28
811.191	2875.35
811.374	2933.28
811.557	2962.93
811.74	3038.68
811.923	2896.28
812.106	2901.32
812.289	2811.81
812.472	2847.07
812.654	2862.95
812.837	2838.93
813.02	2789.33
813.203	2744.57
813.386	2673.86
813.569	2637.24
813.751	2555.28
813.934	2621.74
814.117	2595.39
814.3	2540.37
814.482	2474.88
814.665	2447.75
814.848	2411.91
815.03	2351.85
815.213	2354.17
815.396	2303.61
815.578	2299.15
815.761	2282.88
815.943	2314.26
816.126	2257.49
816.309	2185.23
816.491	2124.97
816.674	2052.12
816.856	2097.07
817.039	2111.8
817.221	2206.15
817.403	2148.22
817.586	2138.34
817.768	2172.05
817.951	2069.75
818.133	2064.13
818.315	2087.19
818.498	2108.31
818.68	2209.44
818.862	2157.33
819.045	2193.75
819.227	2191.04
819.409	2170.5
819.591	2152.1
819.774	2110.63
819.956	2093.78
820.138	2225.91
820.32	2163.33
820.502	2222.43
820.684	2260.59
820.866	2298.76
821.048	2373.74
821.231	2330.92
821.413	2369.87
821.595	2350.69
821.777	2355.14
821.959	2341.77
822.141	2420.44
822.323	2264.47
822.505	2208.86
822.686	2174.96
822.868	2060.26
823.05	1935.29
823.232	1910.88
823.414	1816.91
823.596	1880.27
823.778	1902.36
823.96	1918.82
824.141	1931.03
824.323	1944.79
824.505	2041.66
824.687	2096.49
824.868	2147.25
825.05	2261.18
825.232	2271.64
825.413	2356.11
825.595	2318.52
825.777	2221.65
825.958	2271.25
826.14	2245.87
826.321	2274.54
826.503	2233.08
826.685	2267.76
826.866	2308.26
827.048	2288.49
827.229	2236.76
827.411	2197.82
827.592	2154.42
827.773	2138.15
827.955	2103.27
828.136	2057.93
828.318	2060.07
828.499	2126.52
828.68	2021.51
828.862	2076.34
829.043	2077.12
829.224	2076.15
829.406	2014.15
829.587	2025.39
829.768	2022.67
829.949	2035.07
830.131	2063.55
830.312	2093
830.493	2064.33
830.674	2076.34
830.855	2046.31
831.036	2037.78
831.218	2104.43
831.399	2122.65
831.58	2031.59
831.761	2083.32
831.942	2080.8
832.123	2080.8
832.304	1987.99
832.485	2031.59
832.666	2015.31
832.847	2066.46
833.028	2027.52
833.209	2019.96
833.389	2030.62
833.57	1944.59
833.751	1984.7
833.932	2076.15
834.113	2041.47
834.294	2000
834.475	2075.95
834.655	2074.6
834.836	2097.27
835.017	2065.88
835.198	2003.1
835.378	2045.53
835.559	2090.48
835.74	2041.47
835.92	2059.48
836.101	2010.66
836.281	2109.47
836.462	2068.78
836.643	2099.01
836.823	2078.67
837.004	2123.61
837.184	2153.26
837.365	2140.28
837.545	2146.28
837.726	2075.76
837.906	2151.51
838.087	2073.05
838.267	2091.07
838.448	2043.4
838.628	2097.65
838.808	2073.82
838.989	2118.38
839.169	2011.63
839.349	2124
839.53	2122.45
839.71	2109.47
839.89	2092.42
840.07	2155.2
840.251	2070.92
840.431	2120.71
840.611	2072.66
840.791	2058.52
840.971	2073.24
841.151	2099.78
841.332	2043.6
841.512	2080.22
841.692	2002.91
841.872	2081.18
842.052	2046.7
842.232	2080.22
842.412	1952.54
842.592	2006.2
842.772	2075.18
842.952	2040.69
843.132	1963.77
843.312	1987.99
843.492	1984.5
843.672	2071.69
843.851	1938.78
844.031	1981.4
844.211	1976.37
844.391	1978.5
844.571	2023.06
844.751	1999.81
844.93	1977.53
845.11	1971.52
845.29	1974.43
845.47	2003.3
845.649	1987.02
845.829	2002.52
846.009	1949.63
846.188	1987.99
846.368	1989.74
846.547	1959.7
846.727	1999.04
846.907	1924.44
847.086	1968.62
847.266	1992.06
847.445	1952.15
847.625	1917.08
847.804	1929.29
847.984	1955.64
848.163	1923.09
848.343	1895.77
848.522	1917.86
848.701	1970.55
848.881	1902.36
849.06	1907.97
849.239	1903.91
849.419	1925.61
849.598	1830.48
849.777	1829.89
849.957	1842.68
850.136	1733.02
850.315	1739.8
850.494	1740.58
850.674	1741.55
850.853	1860.89
851.032	1752.2
851.211	1845.98
851.39	1802.77
851.569	1739.41
851.748	1757.24
851.927	1828.93
852.107	1818.27
852.286	1749.68
852.465	1753.17
852.644	1822.14
852.823	1788.63
853.002	1757.05
853.181	1761.5
853.359	1789.4
853.538	1684
853.717	1814.2
853.896	1711.9
854.075	1619.87
854.254	1612.51
854.433	1517.19
854.611	1559.62
854.79	1466.04
854.969	1549.93
855.148	1594.3
855.327	1536.75
855.505	1615.03
855.684	1577.05
855.863	1595.85
856.041	1598.56
856.22	1655.13
856.399	1609.02
856.577	1751.81
856.756	1705.9
856.934	1810.33
857.113	1819.04
857.291	1708.41
857.47	1671.8
857.648	1717.33
857.827	1724.69
858.005	1774.48
858.184	1670.63
858.362	1794.63
858.541	1673.35
858.719	1715
858.898	1695.43
859.076	1691.56
859.254	1752.78
859.433	1677.42
859.611	1646.61
859.789	1617.16
859.967	1702.8
860.146	1718.68
860.324	1642.54
860.502	1657.07
860.68	1594.1
860.859	1614.45
861.037	1638.47
861.215	1646.61
861.393	1679.55
861.571	1631.88
861.749	1612.7
861.927	1614.64
862.105	1652.03
862.283	1577.64
862.461	1578.6
862.639	1606.31
862.817	1638.67
862.995	1621.62
863.173	1582.29
863.351	1634.98
863.529	1615.42
863.707	1635.57
863.885	1608.25
864.063	1520.48
864.241	1563.3
864.418	1622.78
864.596	1559.81
864.774	1531.52
864.952	1547.6
865.129	1592.36
865.307	1547.99
865.485	1471.66
865.663	1598.17
865.84	1439.3
866.018	1487.54
866.196	1348.24
866.373	1372.46
866.551	1331
866.728	1307.16
866.906	1325.96
867.084	1360.44
867.261	1408.69
867.439	1438.33
867.616	1448.99
867.794	1423.61
867.971	1407.33
868.149	1464.1
868.326	1511.76
868.503	1461
868.681	1432.52
868.858	1450.73
869.035	1438.33
869.213	1465.65
869.39	1403.46
869.567	1500.33
869.745	1440.85
869.922	1447.24
870.099	1462.36
870.276	1457.9
870.454	1473.21
870.631	1437.56
870.808	1437.56
870.985	1441.82
871.162	1496.84
871.339	1444.92
871.517	1382.34
871.694	1387.76
871.871	1419.34
872.048	1437.17
872.225	1414.89
872.402	1419.15
872.579	1347.85
872.756	1428.06
872.933	1362.96
873.11	1370.33
873.287	1377.11
873.463	1375.56
873.64	1359.67
873.817	1405.78
873.994	1371.68
874.171	1357.34
874.348	1362.77
874.524	1315.5
874.701	1318.79
874.878	1301.93
875.055	1351.53
875.231	1327.9
875.408	1391.64
875.585	1262.6
875.762	1352.31
875.938	1314.14
876.115	1328.28
876.291	1321.5
876.468	1275
876.645	1248.85
876.821	1334.48
876.998	1320.15
877.174	1305.61
877.351	1303.68
877.527	1256.79
877.704	1308.13
877.88	1300
878.057	1250.4
878.233	1314.33
878.409	1266.67
878.586	1289.34
878.762	1276.75
878.938	1279.46
879.115	1179.29
879.291	1256.01
879.467	1209.9
879.644	1218.23
879.82	1228.31
879.996	1226.57
880.172	1169.99
880.349	1253.88
880.525	1263.57
880.701	1198.67
880.877	1175.42
881.053	1237.42
881.229	1216.1
881.405	1261.05
881.581	1171.54
881.757	1194.02
881.933	1209.52
882.109	1256.98
882.285	1220.56
882.461	1156.04
882.637	1201.18
882.813	1159.72
882.989	1196.92
883.165	1243.23
883.341	1176.97
883.517	1235.09
883.693	1239.35
883.869	1209.71
884.044	1178.9
884.22	1228.7
884.396	1243.23
884.572	1226.37
884.747	1249.81
884.923	1256.01
885.099	1246.13
885.275	1210.48
885.45	1194.21
885.626	1189.95
885.801	1186.07
885.977	1174.64
886.153	1118.84
886.328	1220.56
886.504	1181.03
886.679	1212.03
886.855	1180.07
887.03	1231.22
887.206	1233.93
887.381	1222.3
887.557	1213.2
887.732	1239.35
887.908	1249.62
888.083	1238.58
888.258	1220.37
888.434	1197.12
888.609	1189.75
888.784	1256.6
888.96	1213.58
889.135	1201.38
889.31	1152.94
889.485	1188.78
889.661	1191.11
889.836	1248.26
890.011	1208.74
890.186	1189.95
890.361	1178.9
890.537	1201.77
890.712	1210.68
890.887	1213.78
891.062	1189.37
891.237	1244.2
891.412	1172.7
891.587	1212.42
891.762	1216.1
891.937	1209.52
892.112	1155.07
892.287	1185.49
892.462	1151.2
892.637	1104.12
892.812	1126.98
892.987	1122.91
893.161	1145.19
893.336	1146.94
893.511	1119.23
893.686	1139.19
893.861	1118.07
894.035	1112.84
894.21	1147.32
894.385	1040.37
894.56	1117.68
894.734	1038.82
894.909	1039.21
895.084	1041.34
895.258	1034.56
895.433	1049.09
895.608	992.91
895.782	980.31
895.957	992.32
896.131	990.39
896.306	928.19
896.48	923.54
896.655	927.23
896.829	878.79
897.004	846.63
897.178	872.01
897.353	858.83
897.527	909.21
897.701	878.6
897.876	824.35
898.05	923.74
898.224	901.07
898.399	928.19
898.573	858.64
898.747	754.79
898.921	807.1
899.096	738.13
899.27	709.26
899.444	719.92
899.618	745.88
899.792	790.25
899.967	770.87
900.141	849.53
900.315	743.36
900.489	736.58
900.663	796.83
900.837	781.72
901.011	718.95
901.185	803.81
901.359	796.45
901.533	771.07
901.707	804.78
901.881	753.82
902.055	724.18
902.229	744.33
902.403	814.08
902.576	778.23
902.75	777.07
902.924	906.69
903.098	828.61
903.272	883.05
903.446	896.61
903.619	883.83
903.793	920.44
903.967	903.39
904.14	960.16
904.314	958.42
904.488	923.35
904.661	917.15
904.835	927.03
905.009	960.55
905.182	1010.54
905.356	918.51
905.529	916.18
905.703	869.49
905.876	902.43
906.05	871.43
906.223	865.42
906.397	798.38
906.57	799.55
906.744	760.22
906.917	761.77
907.09	743.36
907.264	759.83
907.437	741.03
907.61	706.55
907.784	704.61
907.957	733.87
908.13	669.93
908.304	758.08
908.477	680.39
908.65	721.47
908.823	669.15
908.996	745.49
909.17	672.25
909.343	655.4
909.516	704.42
909.689	681.36
909.862	670.12
910.035	675.55
910.208	649.97
910.381	634.09
910.554	767
910.727	696.86
910.9	659.85
911.073	684.65
911.246	747.23
911.419	745.88
911.592	712.75
911.765	668.19
911.938	653.85
912.11	672.25
912.283	657.53
912.456	702.48
912.629	679.42
912.802	649
912.974	633.89
913.147	587.2
913.32	505.63
913.493	561.24
913.665	600.18
913.838	618.2
914.01	612.58
914.183	605.61
914.356	573.06
914.528	634.67
914.701	691.44
914.873	643.77
915.046	605.61
915.218	550.19
915.391	508.15
915.563	514.16
915.736	570.92
915.908	577.9
916.081	598.44
916.253	581
916.425	576.74
916.598	631.18
916.77	601.73
916.942	550.58
917.115	501.76
917.287	577.12
917.459	547.67
917.632	493.04
917.804	446.54
917.976	539.34
918.148	542.64
918.32	584.29
918.493	600.37
918.665	668.57
918.837	605.99
919.009	641.06
919.181	628.47
919.353	604.83
919.525	598.05
919.697	583.52
919.869	568.99
920.041	650.55
920.213	695.5
920.385	638.74
920.557	600.37
920.729	602.31
920.901	603.28
921.073	612.39
921.244	591.07
921.416	623.62
921.588	578.09
921.76	603.86
921.932	653.27
922.103	593.79
922.275	543.41
922.447	610.64
922.619	536.63
922.79	596.69
922.962	588.75
923.134	619.17
923.305	518.03
923.477	507.57
923.648	523.65
923.82	544.19
923.991	480.83
924.163	488.58
924.335	500.79
924.506	500.79
924.677	581
924.849	494.39
925.02	518.81
925.192	563.95
925.363	517.84
925.535	540.12
925.706	508.54
925.877	577.51
926.049	528.88
926.22	525.39
926.391	529.08
926.562	536.44
926.734	493.43
926.905	536.63
927.076	460.68
927.247	505.83
927.419	440.73
927.59	454.68
927.761	465.72
927.932	446.54
928.103	447.12
928.274	408.56
928.445	389.19
928.616	393.06
928.787	409.34
928.958	432.01
929.129	390.74
929.3	381.63
929.471	332.03
929.642	291.35
929.813	244.07
929.984	351.6
930.155	259.96
930.326	322.15
930.496	297.74
930.667	233.42
930.838	262.48
931.009	209.59
931.18	240
931.35	228.38
931.521	240.78
931.692	167.35
931.863	138.87
932.033	193.89
932.204	182.07
932.374	203.97
932.545	130.54
932.716	212.1
932.886	190.99
933.057	85.39
933.227	111.55
933.398	209.39
933.568	80.55
933.739	77.64
933.909	117.36
934.08	160.57
934.25	39.09
934.421	59.82
934.591	114.65
934.761	104.38
934.932	47.61
935.102	103.03
935.272	99.73
935.443	74.16
935.613	77.45
935.783	128.21
935.953	56.91
936.123	230.51
936.294	62.53
936.464	88.49
936.634	93.53
936.804	57.49
936.974	16.03
937.144	91.98
937.314	102.44
937.484	72.61
937.655	62.53
937.825	100.89
937.995	72.99
938.165	119.88
938.334	68.34
938.504	128.02
938.674	98.18
938.844	122.01
939.014	178.59
939.184	170.64
939.354	189.05
939.524	210.94
939.694	153.59
939.863	154.17
940.033	209
940.203	212.1
940.373	181.88
940.542	173.16
940.712	140.61
940.882	184.01
941.051	186.72
941.221	208.81
941.391	199.9
941.56	155.34
941.73	115.81
941.899	265.77
942.069	135.57
942.238	162.7
942.408	142.94
942.577	169.09
942.747	148.94
942.916	97.21
943.086	101.86
943.255	179.56
943.425	151.07
943.594	101.09
943.763	75.51
943.933	105.74
944.102	28.43
944.271	95.47
944.441	147.01
944.61	80.74
944.779	127.82
944.948	221.21
945.117	91.79
945.287	98.76
945.456	39.09
945.625	92.18
945.794	110
945.963	88.69
946.132	127.44
946.301	84.62
946.47	130.73
946.639	53.04
946.808	92.37
946.977	128.21
947.146	165.02
947.315	75.13
947.484	149.33
947.653	104.19
947.822	100.51
947.991	82.29
948.16	199.32
948.329	169.67
948.498	104.77
948.666	145.84
948.835	167.54
949.004	70.86
949.173	80.16
949.341	116.59
949.51	120.46
949.679	182.85
949.847	125.11
950.016	197.38
950.185	161.34
950.353	97.21
950.522	150.3
950.69	175.29
950.859	115.42
951.028	168.32
951.196	145.07
951.365	98.76
951.533	120.66
951.701	135.96
951.87	148.56
952.038	67.57
952.207	97.99
952.375	176.65
952.543	103.22
952.712	99.73
952.88	98.96
953.048	171.03
953.217	122.01
953.385	116.59
953.553	147.2
953.721	79.19
953.89	111.36
954.058	51.88
954.226	72.61
954.394	110
954.562	58.85
954.73	98.18
954.898	108.45
955.067	157.66
955.235	101.09
955.403	148.17
955.571	172.97
955.739	120.46
955.907	63.89
956.075	69.89
956.243	84.04
956.41	128.02
956.578	60.98
956.746	57.3
956.914	102.44
957.082	139.26
957.25	125.31
957.418	83.84
957.585	133.83
957.753	168.12
957.921	96.44
958.089	111.74
958.256	139.45
958.424	114.26
958.592	112.71
958.759	62.73
958.927	139.64
959.095	83.07
959.262	110.97
959.43	98.38
959.597	63.69
959.765	96.83
959.932	53.04
960.1	157.86
960.267	115.04
960.435	111.94
960.602	128.6
960.77	88.3
960.937	57.88
961.104	129.76
961.272	52.65
961.439	79.58
961.606	126.08
961.774	152.62
961.941	104.58
962.108	119.3
962.275	125.31
962.443	146.81
962.61	145.46
962.777	173.36
962.944	148.17
963.111	141.97
963.278	170.84
963.446	121.82
963.613	115.04
963.78	126.66
963.947	147.97
964.114	142.55
964.281	206.68
964.448	124.34
964.615	115.23
964.782	122.01
964.949	161.54
965.116	153.4
965.282	157.47
965.449	117.36
965.616	92.37
965.783	144.68
965.95	129.57
966.117	71.64
966.283	133.06
966.45	125.11
966.617	142.74
966.784	150.3
966.95	157.08
967.117	146.42
967.284	83.84
967.45	113.1
967.617	195.06
967.784	174.32
967.95	215.59
968.117	150.3
968.283	161.34
968.45	234.58
968.616	163.47
968.783	187.31
968.949	138.09
969.116	175.49
969.282	128.41
969.449	180.91
969.615	132.67
969.781	82.29
969.948	108.84
970.114	111.36
970.28	203.19
970.447	143.13
970.613	177.62
970.779	155.53
970.945	145.46
971.112	166.38
971.278	141.19
971.444	111.74
971.61	188.47
971.776	120.66
971.942	159.41
972.108	184.01
972.275	123.17
972.441	171.22
972.607	214.62
972.773	139.06
972.939	130.54
973.105	132.67
973.271	107.87
973.437	162.7
973.602	91.79
973.768	144.1
973.934	137.51
974.1	128.02
974.266	36.38
974.432	139.45
974.598	111.55
974.763	133.25
974.929	113.49
975.095	190.6
975.261	88.3
975.426	105.74
975.592	119.69
975.758	197.38
975.923	57.88
976.089	108.64
976.255	158.44
976.42	144.87
976.586	137.51
976.751	119.49
976.917	221.02
977.082	141.39
977.248	72.22
977.413	70.67
977.579	110
977.744	114.84
977.91	87.53
978.075	108.06
978.24	158.63
978.406	103.03
978.571	109.23
978.736	84.04
978.902	143.71
979.067	79.39
979.232	77.45
979.397	107.09
979.563	161.34
979.728	67.18
979.893	130.73
980.058	84.23
980.223	149.33
980.388	106.71
980.554	130.73
980.719	89.85
980.884	106.9
981.049	158.82
981.214	96.05
981.379	143.71
981.544	88.49
981.709	101.48
981.874	101.09
982.039	99.54
982.204	139.06
982.368	110.19
982.533	87.14
982.698	139.06
982.863	143.71
983.028	79.58
983.193	134.61
983.357	122.21
983.522	144.1
983.687	98.38
983.852	134.02
984.016	96.83
984.181	148.36
984.346	140.81
984.51	153.21
984.675	69.12
984.839	123.95
985.004	130.92
985.168	153.98
985.333	83.26
985.498	120.46
985.662	146.23
985.827	126.27
985.991	95.08
986.155	84.81
986.32	127.44
986.484	171.42
986.649	123.37
986.813	59.04
986.977	125.69
987.142	153.21
987.306	58.27
987.47	95.47
987.634	96.83
987.799	120.46
987.963	107.87
988.127	148.17
988.291	195.06
988.455	138.09
988.62	90.82
988.784	108.84
988.948	139.06
989.112	94.5
989.276	131.7
989.44	120.46
989.604	98.18
989.768	94.31
989.932	187.5
990.096	66.99
990.26	71.44
990.424	62.92
990.588	91.01
990.752	170.84
990.915	138.67
991.079	90.24
991.243	64.08
991.407	128.02
991.571	108.84
991.734	109.81
991.898	126.47
992.062	186.72
992.226	81.71
992.389	97.41
992.553	41.99
992.717	65.63
992.88	68.54
993.044	88.3
993.207	76.87
993.371	135.77
993.535	111.16
993.698	107.09
993.862	108.45
994.025	120.66
994.189	82.88
994.352	99.34
994.515	106.71
994.679	133.64
994.842	114.84
995.006	143.13
995.169	41.41
995.332	66.6
995.496	98.76
995.659	33.66
995.822	93.53
995.985	66.6
996.149	126.47
996.312	69.12
996.475	137.32
996.638	95.08
996.801	135.96
996.964	151.27
997.128	94.11
997.291	91.4
997.454	107.87
997.617	30.76
997.78	120.66
997.943	72.99
998.106	131.31
998.269	73.58
998.432	100.31
998.595	87.53
998.758	24.36
998.92	70.28
999.083	19.13
999.246	97.21
999.409	23.01
999.572	3.05
999.735	59.43
999.897	77.06
1000.06	35.02
1000.223	54.59
1000.386	119.11
1000.548	89.85
1000.711	107.87
1000.874	71.64
1001.036	35.99
1001.199	122.98
1001.361	31.92
1001.524	74.35
1001.687	103.61
1001.849	43.93
1002.012	75.32
1002.174	99.93
1002.337	103.41
1002.499	55.17
1002.661	122.98
1002.824	42.19
1002.986	48.78
1003.149	79.58
1003.311	44.32
1003.473	157.47
1003.636	30.37
1003.798	76.48
1003.96	86.17
1004.123	67.96
1004.285	62.92
1004.447	44.71
1004.609	47.23
1004.771	121.62
1004.933	-4.12
1005.096	41.8
1005.258	16.61
1005.42	51.88
1005.582	97.41
1005.744	85.78
1005.906	24.56
1006.068	66.6
1006.23	11.77
1006.392	26.69
1006.554	28.43
1006.716	97.21
1006.878	74.54
1007.04	12.55
1007.202	25.14
1007.363	80.55
1007.525	56.14
1007.687	60.4
1007.849	99.93
1008.011	15.06
1008.172	12.16
1008.334	47.42
1008.496	47.23
1008.658	12.74
1008.819	17.78
1008.981	6.73
1009.143	48.97
1009.304	50.52
1009.466	85.01
1009.627	98.57
1009.789	143.71
1009.95	58.27
1010.112	21.07
1010.273	54.39
1010.435	44.32
1010.596	50.71
1010.758	34.83
1010.919	27.27
1011.081	20.68
1011.242	23.59
1011.403	85.59
1011.565	42.96
1011.726	46.64
1011.887	-28.14
1012.049	54.98
1012.21	68.34
1012.371	102.06
1012.532	-30.85
1012.693	46.26
1012.855	-1.79
1013.016	43.35
1013.177	72.8
1013.338	51.68
1013.499	114.26
1013.66	68.93
1013.821	61.76
1013.982	46.45
1014.143	70.28
1014.304	24.17
1014.465	63.89
1014.626	60.59
1014.787	49.94
1014.948	126.47
1015.109	-27.37
1015.27	92.37
1015.431	-1.02
1015.592	-5.47
1015.752	72.8
1015.913	45.68
1016.074	51.29
1016.235	66.6
1016.395	30.95
1016.556	43.54
1016.717	31.53
1016.877	70.86
1017.038	38.31
1017.199	38.31
1017.359	20.49
1017.52	17
1017.681	24.94
1017.841	31.73
1018.002	34.83
1018.162	21.26
1018.323	120.27
1018.483	52.07
1018.644	29.79
1018.804	-7.22
1018.964	-2.76
1019.125	-1.79
1019.285	25.33
1019.446	16.03
1019.606	-11.09
1019.766	-14
1019.926	41.8
1020.087	51.1
1020.247	-19.62
1020.407	48.39
1020.567	57.11
1020.728	53.23
1020.888	-34.54
1021.048	-0.82
1021.208	5.96
1021.368	9.25
1021.528	82.1
1021.688	56.72
1021.848	86.17
1022.008	40.83
1022.168	-0.44
1022.328	18.94
1022.488	48.19
1022.648	4.41
1022.808	32.5
1022.968	43.93
1023.128	8.86
1023.288	3.63
1023.448	42.38
1023.608	58.27
1023.767	54.01
1023.927	15.45
1024.087	-24.27
1024.247	-11.67
1024.406	-11.67
1024.566	-13.8
1024.726	-5.47
1024.885	33.28
1025.045	40.25
1025.205	10.8
1025.364	13.32
1025.524	20.68
1025.683	11
1025.843	44.71
1026.003	24.36
1026.162	62.14
1026.321	64.66
1026.481	37.93
1026.64	2.08
1026.8	16.81
1026.959	19.71
1027.119	26.49
1027.278	6.54
1027.437	-21.55
1027.597	39.09
1027.756	25.33
1027.915	47.61
1028.074	47.23
1028.234	2.66
1028.393	13.13
1028.552	21.07
1028.711	-55.46
1028.87	61.76
1029.03	-23.49
1029.189	15.26
1029.348	-70.96
1029.507	11.38
1029.666	10.41
1029.825	-14.58
1029.984	6.93
1030.143	19.33
1030.302	-2.57
1030.461	-58.17
1030.62	32.11
1030.779	33.08
1030.938	-15.74
1031.097	-36.67
1031.255	41.22
1031.414	93.53
1031.573	66.99
1031.732	-65.34
1031.891	3.83
1032.049	49.74
1032.208	51.1
1032.367	-12.64
1032.525	11.96
1032.684	7.51
1032.843	37.73
1033.001	-43.06
1033.16	155.53
1033.319	38.51
1033.477	38.51
1033.636	-6.64
1033.794	-41.12
1033.953	50.33
1034.111	53.43
1034.27	-14
1034.428	33.47
1034.587	12.16
1034.745	27.85
1034.903	14.68
1035.062	21.46
1035.22	-12.84
1035.378	33.86
1035.537	-30.85
1035.695	28.43
1035.853	2.86
1036.011	56.33
1036.17	20.3
1036.328	-51.2
1036.486	8.86
1036.644	33.66
1036.802	-82.97
1036.96	-20.78
1037.119	-5.67
1037.277	-22.33
1037.435	-38.6
1037.593	-27.56
1037.751	8.09
1037.909	45.09
1038.067	45.09
