Data from gum_old_FLMT105791__40__15-43-02-258.txt Node

Date: Mon Mar 20 15:43:02 GMT 2023
User: antho
Spectrometer: FLMT10579
Trigger mode: 0
Integration Time (sec): 1.000000E-1
Scans to average: 10
Electric dark correction enabled: true
Nonlinearity correction enabled: false
Boxcar width: 0
XAxis mode: Wavelengths
Number of Pixels in Spectrum: 3648
>>>>>Begin Spectral Data<<<<<
345.248	-175.68
345.464	-175.68
345.681	-175.68
345.898	-155.34
346.114	-167.35
346.331	-34.05
346.548	28.72
346.764	-6.93
346.981	-7.12
347.197	-18.94
347.414	23.3
347.631	-20.88
347.847	47.71
348.064	2.95
348.28	18.65
348.497	-44.71
348.713	11.29
348.93	41.12
349.146	46.16
349.363	16.71
349.579	50.62
349.796	31.63
350.012	20.39
350.229	54.3
350.445	42.48
350.661	18.26
350.878	25.62
351.094	44.61
351.311	57.59
351.527	74.64
351.743	16.71
351.96	62.24
352.176	56.04
352.392	44.61
352.609	73.48
352.825	15.94
353.041	32.79
353.257	41.9
353.474	48.87
353.69	49.45
353.906	41.51
354.122	20.78
354.339	98.86
354.555	53.14
354.771	34.15
354.987	75.22
355.203	88.59
355.42	44.61
355.636	31.63
355.852	19.81
356.068	45.77
356.284	11.29
356.5	116.49
356.716	66.12
356.932	32.4
357.148	80.07
357.364	30.08
357.58	79.87
357.796	96.92
358.012	90.72
358.228	62.63
358.444	-23.01
358.66	79.68
358.876	59.72
359.092	26.4
359.308	84.33
359.524	75.61
359.74	38.6
359.956	26.4
360.172	35.5
360.388	112.42
360.604	45
360.819	124.63
361.035	72.51
361.251	78.71
361.467	43.06
361.683	77.16
361.898	78.52
362.114	94.02
362.33	62.05
362.546	91.88
362.762	52.75
362.977	82.2
363.193	48.1
363.409	109.32
363.624	51.59
363.84	36.47
364.056	68.83
364.271	86.27
364.487	83.75
364.703	64.76
364.918	51.2
365.134	54.69
365.35	57.98
365.565	180.81
365.781	101.38
365.996	97.5
366.212	139.93
366.427	117.27
366.643	88.78
366.858	74.06
367.074	61.85
367.289	150.01
367.505	213.95
367.72	80.84
367.936	60.3
368.151	133.54
368.367	102.54
368.582	86.65
368.798	90.72
369.013	145.75
369.228	113.39
369.444	102.73
369.659	180.23
369.874	114.17
370.09	156.6
370.305	57.01
370.52	101.18
370.736	174.61
370.951	95.76
371.166	159.89
371.381	178.68
371.597	136.25
371.812	90.14
372.027	88.2
372.242	97.12
372.458	152.14
372.673	83.36
372.888	88.78
373.103	138.58
373.318	179.26
373.533	109.32
373.749	122.11
373.964	58.75
374.179	175.39
374.394	61.47
374.609	151.37
374.824	81.62
375.039	120.75
375.254	78.32
375.469	138.38
375.684	97.12
375.899	160.86
376.114	121.72
376.329	135.28
376.544	127.73
376.759	131.8
376.974	93.24
377.189	126.95
377.404	101.96
377.619	138.38
377.834	90.53
378.049	123.27
378.264	97.5
378.478	151.95
378.693	124.63
378.908	184.11
379.123	115.13
379.338	178.1
379.553	159.5
379.767	154.85
379.982	138.77
380.197	157.76
380.412	122.69
380.626	145.17
380.841	210.65
381.056	183.33
381.271	198.45
381.485	130.44
381.7	107
381.915	163.38
382.129	120.75
382.344	144.97
382.559	88.59
382.773	166.48
382.988	65.92
383.202	109.71
383.417	80.65
383.632	193.41
383.846	102.15
384.061	129.28
384.275	109.32
384.49	138
384.704	169.38
384.919	148.46
385.133	156.79
385.348	188.37
385.562	139.16
385.777	214.33
385.991	147.68
386.206	150.59
386.42	144.78
386.634	212.01
386.849	159.5
387.063	167.64
387.277	156.79
387.492	130.05
387.706	106.8
387.92	129.86
388.135	200
388.349	171.9
388.563	179.07
388.778	182.56
388.992	194.38
389.206	189.92
389.42	254.24
389.635	195.15
389.849	224.8
390.063	254.05
390.277	212.59
390.491	283.69
390.706	215.3
390.92	243.78
391.134	217.05
391.348	258.31
391.562	181.2
391.776	214.14
391.99	227.51
392.205	295.9
392.419	202.51
392.633	225.18
392.847	255.79
393.061	166.48
393.275	236.61
393.489	152.53
393.703	154.08
393.917	167.25
394.131	133.15
394.345	157.56
394.559	213.36
394.773	200.77
394.986	240.1
395.2	226.15
395.414	255.6
395.628	225.18
395.842	258.31
396.056	256.76
396.27	186.43
396.484	245.33
396.697	244.56
396.911	236.23
397.125	206.78
397.339	205.61
397.553	178.3
397.766	253.66
397.98	243.01
398.194	283.31
398.408	266.45
398.621	313.34
398.835	335.42
399.049	349.76
399.262	398.97
399.476	367.78
399.69	385.8
399.903	476.47
400.117	347.24
400.331	394.52
400.544	376.11
400.758	473.37
400.971	398.59
401.185	418.93
401.398	343.76
401.612	431.33
401.826	430.94
402.039	435.2
402.253	391.42
402.466	475.31
402.68	452.25
402.893	459.81
403.106	439.66
403.32	391.03
403.533	448.38
403.747	435.01
403.96	444.7
404.174	466.59
404.387	378.82
404.6	441.6
404.814	481.12
405.027	435.59
405.24	437.34
405.454	424.35
405.667	475.12
405.88	393.74
406.094	443.73
406.307	489.84
406.52	443.15
406.733	404.01
406.947	404.4
407.16	502.24
407.373	452.06
407.586	408.08
407.799	433.46
408.012	482.67
408.226	482.48
408.439	512.51
408.652	419.32
408.865	507.47
409.078	537.31
409.291	519.87
409.504	476.28
409.717	540.99
409.93	519.87
410.143	507.28
410.357	451.67
410.57	410.41
410.783	450.51
410.996	474.15
411.209	466.98
411.421	549.52
411.634	513.09
411.847	502.63
412.06	527.23
412.273	583.23
412.486	562.3
412.699	638.45
412.912	541.18
413.125	574.51
413.338	568.89
413.55	564.63
413.763	541.18
413.976	565.79
414.189	531.69
414.402	532.47
414.615	645.03
414.827	541.18
415.04	581.68
415.253	575.87
415.466	601.83
415.678	663.63
415.891	590.78
416.104	558.04
416.316	581.29
416.529	544.28
416.742	597.95
416.954	620.23
417.167	588.46
417.38	593.11
417.592	601.44
417.805	525.88
418.017	577.03
418.23	620.04
418.442	561.72
418.655	566.76
418.868	600.47
419.08	632.05
419.293	632.83
419.505	602.6
419.718	608.22
419.93	621.59
420.142	608.03
420.355	622.75
420.567	628.56
420.78	596.21
420.992	582.84
421.205	688.43
421.417	594.27
421.629	666.15
421.842	634.18
422.054	603.38
422.266	693.66
422.479	691.73
422.691	595.63
422.903	638.06
423.115	601.83
423.328	613.84
423.54	636.7
423.752	629.34
423.964	613.84
424.177	640.19
424.389	613.84
424.601	703.93
424.813	669.06
425.025	678.16
425.238	707.42
425.45	658.4
425.662	631.86
425.874	941.66
426.086	651.23
426.298	678.74
426.51	688.04
426.722	658.01
426.934	654.33
427.146	681.26
427.358	624.88
427.57	671.19
427.782	652.78
427.994	626.05
428.206	610.74
428.418	629.53
428.63	718.27
428.842	737.26
429.054	711.68
429.266	666.15
429.478	611.9
429.69	634.96
429.902	598.92
430.114	656.08
430.325	593.69
430.537	560.75
430.749	576.25
430.961	482.67
431.173	525.88
431.384	552.62
431.596	468.72
431.808	597.95
432.02	679.71
432.231	779.69
432.443	822.31
432.655	779.11
432.867	720.59
433.078	767.48
433.29	804.68
433.502	769.61
433.713	831.42
433.925	813.79
434.136	844.79
434.348	712.07
434.56	697.54
434.771	816.31
434.983	690.95
435.194	726.21
435.406	796.93
435.617	838.2
435.829	883.34
436.04	844.98
436.252	841.11
436.463	920.93
436.675	906.2
436.886	909.11
437.098	912.4
437.309	962.2
437.521	892.06
437.732	893.61
437.943	838.01
438.155	883.54
438.366	838.01
438.578	909.5
438.789	817.86
439	819.79
439.211	813.98
439.423	854.86
439.634	829.29
439.845	877.92
440.057	891.09
440.268	936.82
440.479	890.9
440.69	905.04
440.902	906.01
441.113	870.94
441.324	870.17
441.535	933.14
441.746	1014.7
441.957	921.9
442.168	984.09
442.38	966.46
442.591	1005.6
442.802	969.37
443.013	968.01
443.224	1002.11
443.435	990.87
443.646	963.55
443.857	963.36
444.068	970.33
444.279	931.97
444.49	1096.85
444.701	999.01
444.912	1109.83
445.123	1070.7
445.334	1012.38
445.545	1059.46
445.756	994.75
445.967	987.19
446.178	991.45
446.388	985.64
446.599	1006.76
446.81	1030.01
447.021	961.42
447.232	1068.18
447.443	1089.49
447.653	1047.25
447.864	1110.41
448.075	1044.73
448.286	1092.01
448.496	1095.3
448.707	1106.93
448.918	1038.15
449.129	1159.04
449.339	1110.41
449.55	1072.44
449.761	1098.21
449.971	1129.21
450.182	1113.13
450.393	1138.7
450.603	1093.36
450.814	1176.48
451.024	1141.99
451.235	1194.31
451.446	1226.86
451.656	1264.06
451.867	1148.19
452.077	1152.84
452.288	1228.41
452.498	1198.38
452.709	1130.37
452.919	1135.79
453.13	1070.89
453.34	1136.18
453.55	1046.86
453.761	1119.91
453.971	1112.35
454.182	1143.16
454.392	1129.01
454.602	1207.09
454.813	1230.92
455.023	1175.32
455.233	1074.96
455.444	1138.12
455.654	1062.95
455.864	1130.37
456.075	1151.88
456.285	1151.49
456.495	1142.58
456.705	1182.1
456.916	1224.72
457.126	1268.71
457.336	1187.91
457.546	1115.06
457.756	1173.96
457.967	1223.95
458.177	1179.19
458.387	1189.66
458.597	1142.77
458.807	1151.29
459.017	1159.82
459.227	1158.27
459.437	1172.99
459.647	1242.36
459.857	1235.96
460.068	1184.23
460.278	1269.67
460.488	1246.81
460.698	1299.32
460.908	1234.61
461.117	1219.88
461.327	1251.85
461.537	1261.92
461.747	1268.32
461.957	1235.19
462.167	1375.07
462.377	1328.38
462.587	1253.79
462.797	1333.42
463.007	1263.67
463.216	1365.97
463.426	1389.8
463.636	1342.91
463.846	1245.65
464.056	1265.41
464.265	1317.72
464.475	1239.26
464.685	1313.46
464.895	1322.95
465.104	1277.42
465.314	1323.54
465.524	1276.07
465.733	1271.03
465.943	1362.09
466.153	1385.34
466.362	1374.3
466.572	1353.76
466.782	1312.69
466.991	1361.12
467.201	1405.3
467.41	1259.79
467.62	1319.27
467.829	1368.29
468.039	1354.73
468.249	1367.52
468.458	1389.99
468.668	1411.11
468.877	1398.71
469.086	1463.62
469.296	1475.05
469.505	1383.02
469.715	1470.2
469.924	1437.46
470.134	1465.36
470.343	1430.68
470.552	1436.1
470.762	1403.75
470.971	1420.22
471.18	1422.54
471.39	1446.18
471.599	1416.92
471.808	1478.53
472.018	1458.58
472.227	1514.96
472.436	1570.95
472.645	1542.47
472.855	1524.06
473.064	1606.79
473.273	1598.08
473.482	1540.73
473.691	1588.97
473.901	1574.63
474.11	1555.06
474.319	1646.32
474.528	1571.53
474.737	1686.42
474.946	1618.03
475.155	1648.84
475.364	1694.37
475.573	1664.14
475.783	1718.39
475.992	1726.34
476.201	1741.84
476.41	1723.62
476.619	1643.22
476.828	1661.04
477.037	1646.9
477.245	1693.01
477.454	1743.77
477.663	1738.35
477.872	1757.34
478.081	1858.28
478.29	1785.82
478.499	1880.56
478.708	1874.55
478.917	1914.85
479.125	1833.87
479.334	1865.25
479.543	1876.88
479.752	1902.65
479.961	1930.16
480.169	1979.18
480.378	1904.2
480.587	2056.48
480.796	1978.98
481.004	1951.08
481.213	2025.48
481.422	2007.27
481.63	2036.53
481.839	2085.16
482.048	2081.67
482.256	2057.06
482.465	2123.71
482.674	2132.82
482.882	2099.49
483.091	2194.24
483.299	2065.59
483.508	2157.04
483.716	2140.18
483.925	2153.55
484.134	2082.25
484.342	2123.13
484.551	2210.32
484.759	2145.02
484.967	2257.78
485.176	2220.2
485.384	2237.05
485.593	2200.82
485.801	2191.14
486.01	2125.65
486.218	2018.51
486.426	1897.8
486.635	1855.18
486.843	1879.2
487.051	1922.02
487.26	1933.45
487.468	2029.36
487.676	2079.54
487.885	2052.22
488.093	2130.11
488.301	2232.02
488.509	2231.44
488.717	2286.85
488.926	2269.8
489.134	2274.64
489.342	2209.35
489.55	2186.68
489.758	2275.8
489.967	2284.72
490.175	2405.03
490.383	2396.12
490.591	2495.51
490.799	2407.55
491.007	2491.83
491.215	2446.88
491.423	2394.76
491.631	2410.26
491.839	2353.5
492.047	2440.88
492.255	2276.19
492.463	2310.68
492.671	2317.07
492.879	2412.2
493.087	2382.36
493.295	2394.38
493.503	2473.43
493.711	2524.57
493.919	2489.89
494.127	2509.46
494.334	2551.51
494.542	2464.51
494.75	2568.36
494.958	2536.2
495.166	2647.6
495.374	2599.36
495.581	2646.44
495.789	2663.3
495.997	2712.7
496.205	2548.6
496.412	2557.71
496.62	2575.14
496.828	2592.19
497.035	2596.26
497.243	2664.85
497.451	2657.29
497.658	2654.58
497.866	2617.96
498.074	2718.9
498.281	2594.91
498.489	2703.98
498.696	2594.13
498.904	2539.69
499.112	2551.7
499.319	2663.49
499.527	2627.65
499.734	2680.74
499.942	2597.23
500.149	2625.32
500.357	2685
500.564	2590.84
500.771	2587.35
500.979	2531.16
501.186	2492.61
501.394	2586.57
501.601	2550.15
501.808	2541.24
502.016	2546.08
502.223	2548.21
502.43	2585.22
502.638	2551.89
502.845	2536.01
503.052	2699.14
503.26	2609.24
503.467	2690.81
503.674	2663.88
503.881	2658.84
504.089	2738.67
504.296	2666.59
504.503	2574.37
504.71	2603.82
504.917	2606.53
505.125	2629.97
505.332	2637.14
505.539	2697.59
505.746	2749.32
505.953	2759.98
506.16	2783.61
506.367	2860.53
506.574	2887.66
506.781	2840.96
506.988	2786.91
507.195	2801.83
507.402	2788.85
507.609	2805.7
507.816	2739.05
508.023	2738.47
508.23	2707.28
508.437	2656.13
508.644	2732.66
508.851	2771.6
509.058	2763.08
509.265	2809.96
509.472	2822.75
509.679	2915.17
509.885	2833.99
510.092	2877.78
510.299	2832.83
510.506	2789.04
510.713	2863.05
510.92	2832.05
511.126	2857.82
511.333	2930.48
511.54	2868.48
511.746	2978.33
511.953	2958.57
512.16	2992.67
512.367	2927.76
512.573	2889.79
512.78	2925.05
512.987	2880.49
513.193	2858.79
513.4	2763.08
513.606	2817.33
513.813	2868.67
514.02	2828.95
514.226	2931.83
514.433	2890.95
514.639	2793.69
514.846	2805.9
515.052	2813.45
515.259	2833.6
515.465	2824.3
515.672	2870.61
515.878	2931.25
516.085	2871.96
516.291	2965.35
516.497	2866.34
516.704	2848.52
516.91	2785.75
517.117	2607.89
517.323	2567.2
517.529	2579.79
517.736	2558.87
517.942	2586.77
518.148	2666.59
518.354	2743.9
518.561	2736.34
518.767	2651.29
518.973	2704.76
519.179	2736.73
519.386	2759.98
519.592	2742.54
519.798	2788.26
520.004	2916.33
520.21	2869.44
520.417	2933.19
520.623	2957.6
520.829	2941.91
521.035	2976.39
521.241	2981.04
521.447	3010.49
521.653	3115.31
521.859	2968.06
522.065	3048.85
522.271	3125.97
522.477	3094.58
522.683	3128.87
522.889	3058.15
523.095	3045.95
523.301	3060.48
523.507	2984.34
523.713	3029.29
523.919	2994.99
524.125	3097.68
524.331	3154.45
524.537	3259.26
524.742	3237.56
524.948	3249
525.154	3243.38
525.36	3330.37
525.566	3213.93
525.772	3286
525.977	3158.32
526.183	3203.47
526.389	3258.49
526.595	3172.27
526.8	3120.15
527.006	2984.53
527.212	2964.38
527.417	2939.39
527.623	2907.03
527.829	2995.38
528.034	3075.98
528.24	3070.36
528.446	3147.47
528.651	3235.24
528.857	3190.48
529.062	3300.14
529.268	3331.92
529.473	3357.11
529.679	3345.48
529.884	3463.47
530.09	3382.1
530.295	3345.87
530.501	3377.64
530.706	3350.91
530.912	3346.64
531.117	3377.26
531.323	3394.31
531.528	3496.22
531.733	3470.84
531.939	3421.24
532.144	3500.48
532.35	3453.59
532.555	3489.82
532.76	3389.85
532.966	3377.06
533.171	3319.52
533.376	3226.91
533.581	3255.97
533.787	3305.38
533.992	3400.89
534.197	3357.11
534.402	3391.01
534.607	3407.67
534.813	3460.96
535.018	3377.06
535.223	3470.06
535.428	3418.33
535.633	3500.48
535.838	3531.48
536.043	3524.89
536.249	3618.47
536.454	3484.4
536.659	3535.35
536.864	3530.12
537.069	3458.63
537.274	3511.91
537.479	3470.84
537.684	3410.39
537.889	3398.76
538.094	3546.79
538.299	3446.81
538.504	3464.44
538.708	3503.97
538.913	3545.43
539.118	3494.09
539.323	3512.88
539.528	3432.67
539.733	3434.22
539.938	3458.63
540.142	3475.49
540.347	3465.41
540.552	3394.69
540.757	3351.49
540.962	3384.04
541.166	3325.72
541.371	3317.58
541.576	3367.38
541.781	3338.7
541.985	3480.33
542.19	3398.76
542.395	3559.38
542.599	3556.67
542.804	3496.22
543.008	3592.51
543.213	3466.96
543.418	3437.9
543.622	3528.96
543.827	3423.76
544.031	3560.93
544.236	3539.04
544.44	3591.54
544.645	3634.36
544.849	3600.26
545.054	3609.37
545.258	3650.05
545.463	3672.91
545.667	3498.54
545.872	3628.55
546.076	3621.77
546.281	3593.67
546.485	3601.62
546.689	3676.79
546.894	3690.55
547.098	3616.34
547.302	3604.52
547.507	3598.71
547.711	3647.53
547.915	3665.36
548.119	3552.4
548.324	3578.56
548.528	3641.33
548.732	3579.92
548.936	3617.5
549.141	3627.77
549.345	3609.37
549.549	3592.7
549.753	3600.26
549.957	3686.28
550.161	3683.38
550.366	3611.11
550.57	3579.14
550.774	3600.26
550.978	3639.78
551.182	3604.33
551.386	3567.13
551.59	3587.67
551.794	3588.25
551.998	3643.47
552.202	3584.76
552.406	3570.23
552.61	3639.78
552.814	3649.66
553.018	3639.59
553.222	3581.85
553.426	3625.06
553.63	3689.19
553.833	3617.89
554.037	3542.33
554.241	3600.45
554.445	3627
554.649	3651.6
554.853	3563.25
555.056	3694.03
555.26	3701.01
555.464	3649.66
555.668	3647.34
555.871	3644.43
556.075	3663.42
556.279	3612.66
556.483	3581.08
556.686	3566.93
556.89	3563.83
557.094	3619.63
557.297	3447.59
557.501	3532.64
557.704	3473.55
557.908	3563.06
558.112	3508.62
558.315	3614.4
558.519	3487.11
558.722	3438.09
558.926	3472.77
559.129	3321.46
559.333	3403.61
559.536	3349.74
559.74	3347.23
559.943	3304.41
560.147	3338.31
560.35	3287.75
560.553	3398.37
560.757	3327.08
560.96	3444.49
561.164	3406.71
561.367	3496.22
561.57	3442.55
561.774	3438.87
561.977	3369.31
562.18	3364.86
562.384	3439.64
562.587	3343.54
562.79	3349.16
562.993	3342.38
563.197	3355.56
563.4	3428.21
563.603	3404.96
563.806	3485.75
564.009	3356.53
564.212	3380.94
564.416	3262.95
564.619	3335.99
564.822	3272.44
565.025	3397.21
565.228	3313.32
565.431	3334.83
565.634	3262.36
565.837	3240.66
566.04	3190.48
566.243	3210.25
566.446	3108.14
566.649	3244.54
566.852	3116.47
567.055	3195.33
567.258	3232.14
567.461	3267.6
567.664	3262.95
567.867	3180.41
568.07	3184.48
568.273	3196.68
568.475	3273.8
568.678	3121.9
568.881	3164.91
569.084	3137.4
569.287	3047.5
569.489	3108.53
569.692	3162
569.895	3180.41
570.098	3042.07
570.3	3005.07
570.503	2987.63
570.706	3012.82
570.909	3013.4
571.111	2905.48
571.314	2951.4
571.516	3011.85
571.719	2941.71
571.922	2937.45
572.124	2963.61
572.327	2988.02
572.529	2940.36
572.732	2985.89
572.935	3038.97
573.137	3092.64
573.34	3013.4
573.542	3121.51
573.745	3057.19
573.947	3038.78
574.15	3015.53
574.352	2999.45
574.554	3091.48
574.757	3013.79
574.959	2932.22
575.162	3010.11
575.364	2931.44
575.566	3047.89
575.769	2922.92
575.971	2976.2
576.173	2778.38
576.376	2904.9
576.578	2933.77
576.78	2941.91
576.982	2841.16
577.185	2933.38
577.387	2872.54
577.589	2901.03
577.791	2909.55
577.993	2925.83
578.196	2883.39
578.398	2926.41
578.6	2878.36
578.802	2794.85
579.004	2837.09
579.206	2781.48
579.408	2868.28
579.61	2778.58
579.812	2907.03
580.014	2828.76
580.216	2790.59
580.418	2860.15
580.62	2839.22
580.822	2781.48
581.024	2858.6
581.226	2924.66
581.428	2844.26
581.63	2958.37
581.832	2823.91
582.034	2891.92
582.236	2825.27
582.438	2913.62
582.64	2913.62
582.841	2929.89
583.043	2989.18
583.245	2915.94
583.447	2932.61
583.649	2916.14
583.85	2895.79
584.052	2938.23
584.254	2804.93
584.456	2931.64
584.657	2808.8
584.859	2879.71
585.061	2856.85
585.262	2860.92
585.464	2801.83
585.666	2914.78
585.867	2799.5
586.069	2873.32
586.27	2848.71
586.472	2801.05
586.674	2761.72
586.875	2773.35
587.077	2744.48
587.278	2840.19
587.48	2759.98
587.681	2919.63
587.883	2802.6
588.084	2710.96
588.285	2786.71
588.487	2747.77
588.688	2727.43
588.89	2670.27
589.091	2613.89
589.292	2593.74
589.494	2508.49
589.695	2486.21
589.896	2432.54
590.098	2412.98
590.299	2488.54
590.5	2486.99
590.702	2529.61
590.903	2569.72
591.104	2668.14
591.305	2642.76
591.507	2654.58
591.708	2686.55
591.909	2635.4
592.11	2711.15
592.311	2678.22
592.512	2619.12
592.714	2586.38
592.915	2604.4
593.116	2659.42
593.317	2659.81
593.518	2630.75
593.719	2679.77
593.92	2663.3
594.121	2712.9
594.322	2656.52
594.523	2643.92
594.724	2610.4
594.925	2651.67
595.126	2634.04
595.327	2628.04
595.528	2661.36
595.729	2655.35
595.929	2646.05
596.13	2643.15
596.331	2655.35
596.532	2682.87
596.733	2724.91
596.934	2713.48
597.135	2699.53
597.335	2717.55
597.536	2648.38
597.737	2671.05
597.938	2642.95
598.138	2663.3
598.339	2658.07
598.54	2657.29
598.74	2610.79
598.941	2596.07
599.142	2693.52
599.342	2648.96
599.543	2635.01
599.744	2621.45
599.944	2605.75
600.145	2602.27
600.345	2628.04
600.546	2656.9
600.746	2680.93
600.947	2705.73
601.147	2616.99
601.348	2671.24
601.548	2582.89
601.749	2607.69
601.949	2563.13
602.15	2590.84
602.35	2583.09
602.551	2618.35
602.751	2526.9
602.951	2563.91
603.152	2481.56
603.352	2613.12
603.552	2604.79
603.753	2618.35
603.953	2634.24
604.153	2602.65
604.354	2631.14
604.554	2597.81
604.754	2618.93
604.954	2544.92
605.155	2637.53
605.355	2600.52
605.555	2661.55
605.755	2687.13
605.955	2610.4
606.155	2625.52
606.356	2604.59
606.556	2616.8
606.756	2587.74
606.956	2532.32
607.156	2632.88
607.356	2548.6
607.556	2642.95
607.756	2566.42
607.956	2628.81
608.156	2585.99
608.356	2545.11
608.556	2601.69
608.756	2535.62
608.956	2510.04
609.156	2584.44
609.356	2504.04
609.556	2506.75
609.755	2523.8
609.955	2456.96
610.155	2517.79
610.355	2527.29
610.555	2500.74
610.755	2480.21
610.954	2430.41
611.154	2453.28
611.354	2522.25
611.554	2460.64
611.753	2508.11
611.953	2456.76
612.153	2485.05
612.352	2503.46
612.552	2408.13
612.752	2387.6
612.951	2414.33
613.151	2467.03
613.351	2417.24
613.55	2412.2
613.75	2422.28
613.949	2388.95
614.149	2406.78
614.348	2392.44
614.548	2357.56
614.747	2335.67
614.947	2396.9
615.146	2316.68
615.346	2433.32
615.545	2398.25
615.745	2387.4
615.944	2377.13
616.144	2326.57
616.343	2350.01
616.542	2327.15
616.742	2332.57
616.941	2338.58
617.14	2243.64
617.34	2322.88
617.539	2317.46
617.738	2266.89
617.938	2387.79
618.137	2328.89
618.336	2265.53
618.535	2375.2
618.734	2332.18
618.934	2345.36
619.133	2334.7
619.332	2364.15
619.531	2276.97
619.73	2349.23
619.929	2363.76
620.128	2333.15
620.328	2403.48
620.527	2330.25
620.726	2351.36
620.925	2315.13
621.124	2340.9
621.323	2313.78
621.522	2264.57
621.721	2313.2
621.92	2241.32
622.119	2341.1
622.318	2263.4
622.517	2289.75
622.715	2254.88
622.914	2209.15
623.113	2245.19
623.312	2197.34
623.511	2243.64
623.71	2225.43
623.909	2213.8
624.107	2315.72
624.306	2188.42
624.505	2202.76
624.704	2212.45
624.902	2158.01
625.101	2264.37
625.3	2245.39
625.499	2198.3
625.697	2205.09
625.896	2183.58
626.095	2185.9
626.293	2146.96
626.492	2166.53
626.69	2202.57
626.889	2166.72
627.088	2248.29
627.286	2201.21
627.485	2175.25
627.683	2190.94
627.882	2174.86
628.08	2105.11
628.279	2138.24
628.477	2235.31
628.676	2110.73
628.874	2123.91
629.073	2091.74
629.271	2074.69
629.469	2184.55
629.668	2129.14
629.866	2084.57
630.065	2072.18
630.263	2118.09
630.461	2085.74
630.66	2133.79
630.858	2145.02
631.056	2129.14
631.254	2145.02
631.453	2053.96
631.651	2113.06
631.849	2114.8
632.047	2093.49
632.245	2065.2
632.444	2080.7
632.642	2127.2
632.84	2149.67
633.038	2083.99
633.236	2068.69
633.434	2097.56
633.632	2056.68
633.83	2071.21
634.028	2139.02
634.227	2090.58
634.425	2163.62
634.623	2112.67
634.821	2153.94
635.019	2108.6
635.216	2117.71
635.414	2162.07
635.612	2117.51
635.81	2077.21
636.008	2136.69
636.206	2115.19
636.404	2139.6
636.602	2093.68
636.8	2122.16
636.997	2109.37
637.195	2128.75
637.393	2104.53
637.591	2189.2
637.789	2136.31
637.986	2064.23
638.184	2101.04
638.382	2150.84
638.58	2124.68
638.777	2129.72
638.975	2097.75
639.173	2113.06
639.37	2069.08
639.568	2078.76
639.765	2088.84
639.963	2050.09
640.161	2042.53
640.358	2067.72
640.556	1997.78
640.753	2016.38
640.951	2024.9
641.148	2044.28
641.346	2003.98
641.543	1997.97
641.741	2023.93
641.938	1950.5
642.136	1983.63
642.333	1957.09
642.531	2056.09
642.728	1996.81
642.925	2031.49
643.123	1967.55
643.32	1977.24
643.517	1960.96
643.715	2002.62
643.912	1981.11
644.109	2017.34
644.306	1952.83
644.504	1923.96
644.701	1987.89
644.898	1979.56
645.095	1908.46
645.293	1961.55
645.49	1969.88
645.687	1940.04
645.884	1982.47
646.081	1866.22
646.278	1925.31
646.475	1870.29
646.672	1927.45
646.87	1893.73
647.067	1922.6
647.264	1943.53
647.461	1870.87
647.658	1860.02
647.855	1919.89
648.052	1856.92
648.249	1786.98
648.446	1851.88
648.642	1838.32
648.839	1815.85
649.036	1805.97
649.233	1828.44
649.43	1788.53
649.627	1749
649.824	1811
650.021	1782.91
650.217	1765.28
650.414	1794.54
650.611	1853.24
650.808	1873.2
651.004	1883.85
651.201	1837.55
651.398	1871.84
651.595	1857.7
651.791	1831.54
651.988	1891.41
652.185	1804.03
652.381	1891.6
652.578	1751.52
652.775	1811.2
652.971	1843.17
653.168	1811.97
653.364	1898.38
653.561	1770.9
653.757	1845.68
653.954	1860.6
654.15	1774.97
654.347	1844.52
654.543	1831.54
654.74	1783.3
654.936	1797.25
655.133	1769.35
655.329	1819.33
655.525	1774
655.722	1804.22
655.918	1717.81
656.115	1699.99
656.311	1631.4
656.507	1582.96
656.704	1502.17
656.9	1574.63
657.096	1606.21
657.292	1561.84
657.489	1588.19
657.685	1640.51
657.881	1615.9
658.077	1664.53
658.273	1698.05
658.47	1760.82
658.666	1682.74
658.862	1772.64
659.058	1746.1
659.254	1772.64
659.45	1753.07
659.646	1738.54
659.842	1735.05
660.038	1817.2
660.234	1739.32
660.43	1801.7
660.626	1856.73
660.822	1841.23
661.018	1831.35
661.214	1771.67
661.41	1746.29
661.606	1843.17
661.802	1820.3
661.998	1798.41
662.194	1799.19
662.39	1809.84
662.586	1807.32
662.781	1853.24
662.977	1833.87
663.173	1781.75
663.369	1793.57
663.564	1778.84
663.76	1792.99
663.956	1775.16
664.152	1750.55
664.347	1695.72
664.543	1753.65
664.739	1730.79
664.934	1678.09
665.13	1699.02
665.326	1755.4
665.521	1749.2
665.717	1727.69
665.912	1735.64
666.108	1652.32
666.304	1700.76
666.499	1703.86
666.695	1644.38
666.89	1718.39
667.086	1733.7
667.281	1695.14
667.477	1759.08
667.672	1720.33
667.867	1702.51
668.063	1733.89
668.258	1662.4
668.454	1677.32
668.649	1746.29
668.844	1738.74
669.04	1718.01
669.235	1692.62
669.43	1669.18
669.626	1637.6
669.821	1703.09
670.016	1669.57
670.211	1682.36
670.407	1640.51
670.602	1688.75
670.797	1637.02
670.992	1741.84
671.187	1663.95
671.382	1718.01
671.578	1649.42
671.773	1684.29
671.968	1610.48
672.163	1692.43
672.358	1688.94
672.553	1656.59
672.748	1659.88
672.943	1739.7
673.138	1624.62
673.333	1644.77
673.528	1633.73
673.723	1683.32
673.918	1659.69
674.113	1590.13
674.308	1715.29
674.503	1655.42
674.698	1667.44
674.892	1617.45
675.087	1689.72
675.282	1668.99
675.477	1619.97
675.672	1659.49
675.867	1599.24
676.061	1576.76
676.256	1581.03
676.451	1596.33
676.646	1636.24
676.84	1624.62
677.035	1547.51
677.23	1579.28
677.424	1601.95
677.619	1642.06
677.814	1675.96
678.008	1618.23
678.203	1560.49
678.397	1579.86
678.592	1606.99
678.787	1669.18
678.981	1604.66
679.176	1610.09
679.37	1630.24
679.565	1577.73
679.759	1576.76
679.954	1609.51
680.148	1604.86
680.342	1642.64
680.537	1635.66
680.731	1585.29
680.926	1615.9
681.12	1618.61
681.314	1565.72
681.509	1580.44
681.703	1582.19
681.897	1584.71
682.092	1541.89
682.286	1538.98
682.48	1634.11
682.674	1596.33
682.869	1545.96
683.063	1572.11
683.257	1635.86
683.451	1535.11
683.645	1570.18
683.839	1544.6
684.034	1530.46
684.228	1543.44
684.422	1521.93
684.616	1480.47
684.81	1559.71
685.004	1517.48
685.198	1504.5
685.392	1540.15
685.586	1507.4
685.78	1547.7
685.974	1558.36
686.168	1545.18
686.362	1581.41
686.556	1445.4
686.75	1420.22
686.944	1393.09
687.138	1375.07
687.331	1278.59
687.525	1252.62
687.719	1182.49
687.913	1280.14
688.107	1261.73
688.301	1210.39
688.494	1316.95
688.688	1276.84
688.882	1241
689.076	1232.47
689.269	1258.24
689.463	1358.8
689.657	1272.58
689.85	1250.69
690.044	1291.57
690.238	1294.86
690.431	1288.47
690.625	1279.36
690.818	1328.77
691.012	1317.53
691.205	1369.26
691.399	1334.58
691.593	1364.8
691.786	1403.17
691.98	1412.27
692.173	1470.01
692.366	1417.89
692.56	1409.56
692.753	1457.22
692.947	1371.59
693.14	1468.46
693.333	1447.92
693.527	1375.46
693.72	1409.17
693.914	1400.84
694.107	1379.53
694.3	1398.9
694.493	1360.54
694.687	1469.81
694.88	1384.95
695.073	1431.45
695.266	1445.21
695.46	1423.51
695.653	1447.53
695.846	1440.95
696.039	1395.42
696.232	1395.03
696.425	1470.2
696.618	1488.22
696.812	1518.45
697.005	1535.88
697.198	1620.94
697.391	1516.9
697.584	1583.93
697.777	1595.56
697.97	1584.32
698.163	1613.96
698.356	1588.39
698.549	1615.9
698.742	1625.39
698.935	1542.08
699.127	1602.53
699.32	1556.42
699.513	1558.55
699.706	1605.44
699.899	1587.61
700.092	1569.59
700.285	1620.55
700.477	1563.2
700.67	1626.36
700.863	1647.67
701.056	1720.52
701.248	1656.59
701.441	1702.31
701.634	1662.59
701.826	1759.85
702.019	1646.9
702.212	1750.17
702.404	1697.27
702.597	1672.09
702.79	1721.69
702.982	1759.66
703.175	1777.87
703.367	1816.23
703.56	1838.52
703.752	1899.93
703.945	1857.31
704.137	1896.06
704.33	1888.7
704.522	1876.88
704.715	1923.76
704.907	1938.3
705.1	1976.08
705.292	1981.89
705.484	1982.28
705.677	2045.05
705.869	2070.04
706.061	2059.19
706.254	2104.34
706.446	2079.15
706.638	2059.97
706.831	2163.62
707.023	2069.27
707.215	2222.52
707.407	2196.95
707.599	2226.4
707.792	2241.32
707.984	2266.31
708.176	2274.06
708.368	2207.6
708.56	2283.36
708.752	2272.7
708.944	2263.79
709.136	2322.5
709.329	2286.07
709.521	2405.42
709.713	2358.73
709.905	2408.13
710.097	2430.8
710.289	2367.64
710.481	2430.61
710.672	2444.75
710.864	2459.67
711.056	2513.92
711.248	2493.58
711.44	2491.64
711.632	2524.38
711.824	2510.24
712.016	2626.49
712.207	2611.95
712.399	2579.41
712.591	2667.75
712.783	2630.94
712.975	2691.2
713.166	2636.37
713.358	2691.39
713.55	2703.98
713.741	2727.23
713.933	2774.12
714.125	2740.22
714.316	2736.15
714.508	2871.58
714.7	2789.04
714.891	2828.56
715.083	2866.73
715.274	2837.86
715.466	2876.23
715.657	2870.61
715.849	2792.53
716.04	2868.86
716.232	2816.55
716.423	2835.54
716.615	2815.97
716.806	2775.67
716.998	2747.19
717.189	2686.16
717.381	2596.84
717.572	2566.62
717.763	2569.72
717.955	2493.58
718.146	2524.96
718.337	2487.38
718.528	2455.41
718.72	2379.65
718.911	2424.02
719.102	2387.4
719.293	2450.18
719.485	2446.11
719.676	2414.72
719.867	2349.62
720.058	2397.28
720.249	2370.16
720.44	2426.93
720.632	2484.47
720.823	2531.16
721.014	2672.6
721.205	2692.55
721.396	2813.45
721.587	2876.81
721.778	2952.95
721.969	3002.36
722.16	2998.09
722.351	3087.22
722.542	3205.02
722.733	3226.71
722.924	3093.61
723.115	3233.69
723.305	3148.44
723.496	3171.5
723.687	3083.92
723.878	3098.84
724.069	3085.28
724.26	3100.97
724.45	3056.41
724.641	2979.88
724.832	3026.19
725.023	3067.45
725.213	3054.09
725.404	3053.7
725.595	3043.04
725.785	3037.04
725.976	3123.06
726.167	3167.43
726.357	3146.31
726.548	3263.14
726.739	3106.4
726.929	3265.27
727.12	3248.41
727.31	3326.49
727.501	3248.22
727.691	3285.03
727.882	3262.36
728.072	3343.16
728.263	3322.81
728.453	3389.66
728.644	3439.45
728.834	3363.69
729.024	3282.71
729.215	3317
729.405	3397.6
729.596	3447.39
729.786	3444.29
729.976	3505.13
730.167	3553.18
730.357	3507.84
730.547	3529.93
730.737	3525.86
730.928	3592.12
731.118	3674.08
731.308	3625.64
731.498	3610.92
731.688	3723.29
731.879	3687.83
732.069	3743.63
732.259	3806.99
732.449	3846.32
732.639	3940.48
732.829	3963.34
733.019	3982.72
733.209	4048.01
733.399	4113.11
733.589	4174.53
733.779	4233.62
733.969	4144.69
734.159	4267.91
734.349	4320.03
734.539	4339.02
734.729	4410.32
734.919	4374.86
735.109	4434.53
735.299	4393.27
735.488	4381.45
735.678	4410.9
735.868	4468.83
736.058	4450.03
736.248	4407.8
736.437	4392.1
736.627	4370.4
736.817	4512.23
737.007	4448.87
737.196	4513.78
737.386	4511.65
737.576	4482.58
737.765	4567.64
737.955	4561.05
738.144	4653.08
738.334	4624.21
738.524	4551.36
738.713	4558.15
738.903	4566.28
739.092	4645.72
739.282	4630.22
739.471	4645.14
739.661	4621.89
739.85	4637
740.04	4661.03
740.229	4677.3
740.419	4728.45
740.608	4729.61
740.797	4691.06
740.987	4767.39
741.176	4731.74
741.365	4720.31
741.555	4687.96
741.744	4814.09
741.933	4697.84
742.123	4794.13
742.312	4779.99
742.501	4805.56
742.69	4838.5
742.88	4780.37
743.069	4949.13
743.258	4847.22
743.447	4891.97
743.636	4923.94
743.825	4895.65
744.014	4926.65
744.204	4900.5
744.393	4852.45
744.582	5003.57
744.771	4961.72
744.96	4955.33
745.149	4935.57
745.338	5001.44
745.527	4991.36
745.716	4953.58
745.905	4921.23
746.094	5040
746.283	5022.95
746.471	4986.52
746.66	5048.13
746.849	5028.95
747.038	5036.9
747.227	4978.58
747.416	5023.14
747.604	5022.95
747.793	4969.47
747.982	5040
748.171	4992.53
748.359	5036.7
748.548	5059.95
748.737	5014.61
748.926	5021.01
749.114	4935.95
749.303	5004.93
749.491	5001.83
749.68	4904.76
749.869	5018.1
750.057	4934.98
750.246	4930.92
750.434	4955.52
750.623	4923.94
750.811	4906.31
751	4996.4
751.188	4979.55
751.377	4963.08
751.565	4947.38
751.754	4933.05
751.942	4872.02
752.131	5015.39
752.319	4924.33
752.507	4832.49
752.696	4933.63
752.884	4950.48
753.072	4877.05
753.261	4979.55
753.449	4919.1
753.637	4878.22
753.825	5025.08
754.014	4911.73
754.202	4901.08
754.39	4985.55
754.578	4922
754.766	4895.27
754.955	4844.89
755.143	4947.58
755.331	4884.03
755.519	4920.07
755.707	4883.64
755.895	4860.59
756.083	4889.65
756.271	4778.24
756.459	4838.3
756.647	4904.37
756.835	4839.27
757.023	4856.13
757.211	4845.47
757.399	4778.63
757.587	4781.15
757.775	4723.02
757.963	4748.79
758.151	4783.47
758.339	4756.74
758.526	4762.94
758.714	4753.83
758.902	4668
759.09	4585.46
759.278	4352.58
759.465	4081.72
759.653	3677.95
759.841	3339.67
760.028	2945.01
760.216	2631.14
760.404	2443.78
760.591	2098.33
760.779	1829.6
760.967	1697.27
761.154	1491.32
761.342	1544.41
761.529	1503.91
761.717	1656.2
761.905	1650.19
762.092	1771.09
762.28	1719.17
762.467	1771.48
762.655	1670.54
762.842	1777.1
763.029	1774.19
763.217	1809.07
763.404	1818.17
763.592	1884.63
763.779	1826.89
763.966	1899.74
764.154	1954.96
764.341	2019.67
764.528	2018.31
764.716	2089.22
764.903	2185.52
765.09	2223.88
765.277	2330.44
765.465	2499.58
765.652	2544.53
765.839	2666.79
766.026	2796.4
766.213	2875.64
766.4	2985.31
766.588	3168.4
766.775	3196.88
766.962	3286.39
767.149	3376.87
767.336	3617.31
767.523	3521.4
767.71	3674.08
767.897	3810.48
768.084	3841.28
768.271	3898.24
768.458	3951.72
768.645	4048.01
768.832	3980
769.019	4032.12
769.206	4088.5
769.392	4116.4
769.579	4229.16
769.766	4160.96
769.953	4118.92
770.14	4218.51
770.327	4213.66
770.513	4250.28
770.7	4349.87
770.887	4229.74
771.073	4265.39
771.26	4248.73
771.447	4210.37
771.634	4214.05
771.82	4317.32
772.007	4194.29
772.193	4258.61
772.38	4281.47
772.567	4221.41
772.753	4245.05
772.94	4288.64
773.126	4205.91
773.313	4267.52
773.499	4241.76
773.686	4312.09
773.872	4172.01
774.059	4231.1
774.245	4205.14
774.432	4226.26
774.618	4098.38
774.804	4194.48
774.991	4176.46
775.177	4172.01
775.363	4180.14
775.55	4205.33
775.736	4100.13
775.922	4164.65
776.109	4136.16
776.295	4153.8
776.481	4177.24
776.667	4153.8
776.853	4094.51
777.04	4079.98
777.226	4122.02
777.412	4193.71
777.598	4025.53
777.784	4099.93
777.97	4055.95
778.156	4018.37
778.342	4074.75
778.528	3977.87
778.715	3963.34
778.901	3980
779.087	4060.22
779.272	3967.8
779.458	3992.21
779.644	3983.49
779.83	3969.15
780.016	4098
780.202	3976.13
780.388	4014.1
780.574	3902.12
780.76	3913.74
780.946	3998.8
781.131	3949.2
781.317	3890.3
781.503	3882.55
781.689	3939.32
781.874	4021.66
782.06	3833.92
782.246	3918.78
782.432	3918.2
782.617	3870.34
782.803	3955.4
782.989	3875.38
783.174	3796.72
783.36	3804.47
783.545	3852.91
783.731	3825.2
783.916	3705.27
784.102	3780.25
784.288	3751.58
784.473	3766.3
784.659	3756.81
784.844	3756.61
785.029	3779.28
785.215	3766.11
785.4	3663.42
785.586	3785.29
785.771	3701.4
785.956	3734.14
786.142	3656.06
786.327	3697.71
786.512	3670.98
786.698	3691.51
786.883	3607.62
787.068	3629.71
787.254	3610.53
787.439	3622.73
787.624	3592.32
787.809	3581.27
787.994	3590.38
788.18	3654.12
788.365	3498.93
788.55	3536.71
788.735	3549.5
788.92	3557.44
789.105	3556.09
789.29	3591.54
789.475	3491.37
789.66	3490.21
789.845	3455.53
790.03	3446.04
790.215	3492.54
790.4	3547.95
790.585	3473.36
790.77	3465.41
790.955	3358.08
791.14	3433.25
791.325	3519.08
791.51	3349.36
791.695	3433.25
791.879	3404.96
792.064	3355.36
792.249	3468.12
792.434	3404.96
792.618	3436.74
792.803	3438.87
792.988	3387.72
793.173	3415.23
793.357	3411.16
793.542	3344.9
793.727	3384.23
793.911	3423.37
794.096	3409.42
794.281	3426.47
794.465	3507.65
794.65	3385.97
794.834	3429.18
795.019	3460.18
795.203	3472.77
795.388	3515.4
795.572	3494.09
795.757	3478.39
795.941	3443.71
796.126	3449.14
796.31	3421.82
796.494	3456.69
796.679	3455.14
796.863	3385.98
797.048	3509.2
797.232	3442.94
797.416	3486.72
797.601	3433.64
797.785	3521.02
797.969	3542.14
798.153	3440.22
798.338	3479.94
798.522	3562.67
798.706	3509.2
798.89	3515.98
799.074	3606.07
799.258	3581.08
799.443	3485.17
799.627	3463.86
799.811	3547.56
799.995	3498.15
800.179	3489.63
800.363	3488.85
800.547	3507.26
800.731	3518.11
800.915	3383.26
801.099	3413.49
801.283	3466.57
801.467	3454.37
801.651	3476.45
801.835	3481.69
802.019	3512.49
802.202	3499.7
802.386	3454.76
802.57	3432.67
802.754	3486.53
802.938	3440.03
803.121	3418.33
803.305	3475.87
803.489	3470.06
803.673	3497.38
803.856	3503.77
804.04	3435.96
804.224	3466.96
804.407	3445.65
804.591	3384.81
804.775	3420.07
804.958	3434.8
805.142	3540.78
805.326	3389.27
805.509	3427.82
805.693	3466.57
805.876	3478
806.06	3472.19
806.243	3473.36
806.427	3546.79
806.61	3505.13
806.794	3463.67
806.977	3509
807.16	3489.24
807.344	3465.02
807.527	3430.54
807.71	3432.67
807.894	3414.46
808.077	3447.39
808.26	3355.36
808.444	3362.53
808.627	3500.48
808.81	3378.42
808.993	3328.04
809.177	3303.44
809.36	3372.03
809.543	3383.46
809.726	3256.55
809.909	3252.1
810.092	3239.11
810.276	3243.38
810.459	3267.4
810.642	3262.17
810.825	3189.71
811.008	3239.11
811.191	3129.65
811.374	3163.94
811.557	3164.33
811.74	3212.57
811.923	3097.68
812.106	3095.74
812.289	3069.78
812.472	3054.09
812.654	3076.56
812.837	3030.64
813.02	3014.56
813.203	2989.57
813.386	2857.05
813.569	2807.64
813.751	2749.52
813.934	2826.43
814.117	2746.61
814.3	2728.59
814.482	2681.12
814.665	2610.6
814.848	2580.37
815.03	2517.79
815.213	2523.61
815.396	2494.74
815.578	2448.04
815.761	2405.03
815.943	2489.51
816.126	2385.66
816.309	2346.71
816.491	2305.64
816.674	2231.24
816.856	2253.52
817.039	2228.34
817.221	2368.03
817.403	2308.55
817.586	2269.41
817.768	2316.49
817.951	2232.6
818.133	2181.64
818.315	2253.13
818.498	2255.07
818.68	2337.61
818.862	2354.85
819.045	2336.25
819.227	2313
819.409	2275.61
819.591	2289.95
819.774	2269.8
819.956	2267.28
820.138	2355.05
820.32	2304.09
820.502	2404.84
820.684	2452.5
820.866	2440.49
821.048	2520.7
821.231	2538.33
821.413	2522.44
821.595	2516.24
821.777	2531.36
821.959	2515.47
822.141	2570.3
822.323	2434.68
822.505	2334.51
822.686	2331.99
822.868	2214.97
823.05	2120.03
823.232	2045.24
823.414	1945.27
823.596	2061.13
823.778	2027.81
823.96	2065.01
824.141	2060.94
824.323	2139.41
824.505	2197.72
824.687	2246.74
824.868	2258.17
825.05	2340.71
825.232	2385.85
825.413	2511.79
825.595	2424.21
825.777	2403.1
825.958	2458.51
826.14	2416.08
826.321	2451.73
826.503	2425.96
826.685	2439.13
826.866	2475.56
827.048	2473.04
827.229	2398.45
827.411	2384.11
827.592	2312.42
827.773	2303.12
827.955	2276.38
828.136	2240.93
828.318	2222.52
828.499	2243.64
828.68	2152.97
828.862	2227.75
829.043	2285.3
829.224	2200.44
829.406	2171.95
829.587	2161.49
829.768	2203.34
829.949	2215.35
830.131	2212.84
830.312	2260.69
830.493	2202.37
830.674	2239.77
830.855	2209.15
831.036	2177.77
831.218	2246.94
831.399	2294.98
831.58	2191.72
831.761	2190.36
831.942	2229.5
832.123	2217.68
832.304	2123.71
832.485	2172.34
832.666	2166.34
832.847	2196.75
833.028	2181.64
833.209	2193.27
833.389	2177.96
833.57	2116.93
833.751	2124.68
833.932	2204.31
834.113	2207.99
834.294	2102.4
834.475	2206.83
834.655	2206.83
834.836	2218.65
835.017	2194.04
835.198	2164.59
835.378	2216.13
835.559	2262.05
835.74	2203.54
835.92	2200.05
836.101	2175.25
836.281	2236.86
836.462	2241.32
836.643	2261.47
836.823	2250.62
837.004	2278.32
837.184	2299.83
837.365	2257.98
837.545	2264.37
837.726	2220.2
837.906	2298.08
838.087	2272.9
838.267	2279.68
838.448	2174.28
838.628	2276.77
838.808	2213.22
838.989	2258.95
839.169	2183.77
839.349	2251.78
839.53	2262.24
839.71	2260.69
839.89	2191.33
840.07	2243.06
840.251	2204.7
840.431	2265.73
840.611	2248.68
840.791	2207.99
840.971	2216.13
841.151	2217.1
841.332	2159.75
841.512	2290.33
841.692	2133.21
841.872	2194.43
842.052	2205.86
842.232	2225.43
842.412	2142.89
842.592	2184.55
842.772	2190.94
842.952	2184.35
843.132	2143.09
843.312	2121.58
843.492	2132.04
843.672	2180.48
843.851	2112.86
844.031	2158.78
844.211	2160.72
844.391	2117.9
844.571	2145.99
844.751	2163.43
844.93	2150.84
845.11	2094.46
845.29	2085.16
845.47	2124.29
845.649	2139.79
845.829	2147.16
846.009	2081.86
846.188	2161.69
846.368	2081.86
846.547	2110.54
846.727	2151.61
846.907	2057.45
847.086	2118.29
847.266	2146.57
847.445	2119.45
847.625	2028.97
847.804	2052.61
847.984	2071.4
848.163	2060.16
848.343	2037.3
848.522	2066.75
848.701	2092.71
848.881	2026.06
849.06	2047.38
849.239	2057.06
849.419	2069.66
849.598	1966.78
849.777	1971.04
849.957	1954.57
850.136	1880.95
850.315	1879.78
850.494	1871.84
850.674	1889.67
850.853	1922.6
851.032	1916.01
851.211	1984.6
851.39	1926.48
851.569	1858.86
851.748	1923.18
851.927	1943.14
852.107	1911.56
852.286	1896.06
852.465	1860.6
852.644	1986.54
852.823	1900.51
853.002	1940.04
853.181	1915.63
853.359	1906.91
853.538	1828.44
853.717	1931.9
853.896	1818.75
854.075	1729.44
854.254	1652.32
854.433	1607.38
854.611	1635.28
854.79	1593.04
854.969	1690.11
855.148	1676.54
855.327	1671.12
855.505	1719.36
855.684	1711.61
855.863	1749.39
856.041	1697.08
856.22	1777.68
856.399	1723.82
856.577	1838.71
856.756	1837.16
856.934	1941.2
857.113	1914.85
857.291	1811.97
857.47	1763.34
857.648	1827.28
857.827	1830.57
858.005	1863.51
858.184	1800.35
858.362	1868.16
858.541	1839.29
858.719	1823.02
858.898	1794.15
859.076	1820.11
859.254	1897.61
859.433	1765.09
859.611	1792.21
859.789	1738.93
859.967	1806.55
860.146	1872.81
860.324	1726.53
860.502	1795.7
860.68	1734.86
860.859	1738.93
861.037	1757.34
861.215	1785.43
861.393	1788.92
861.571	1725.76
861.749	1748.62
861.927	1724.4
862.105	1773.22
862.283	1706.77
862.461	1712.39
862.639	1674.41
862.817	1725.76
862.995	1718.2
863.173	1687.97
863.351	1704.44
863.529	1731.57
863.707	1770.51
863.885	1709.87
864.063	1633.14
864.241	1646.71
864.418	1746.68
864.596	1640.89
864.774	1640.89
864.952	1642.83
865.129	1694.17
865.307	1600.59
865.485	1583.74
865.663	1669.18
865.84	1534.14
866.018	1569.01
866.196	1465.75
866.373	1436.3
866.551	1448.7
866.728	1373.91
866.906	1418.47
867.084	1449.08
867.261	1499.85
867.439	1510.11
867.616	1545.96
867.794	1490.55
867.971	1529.3
868.149	1508.18
868.326	1557.97
868.503	1556.42
868.681	1537.43
868.858	1501.4
869.035	1519.8
869.213	1566.11
869.39	1534.14
869.567	1623.65
869.745	1553.51
869.922	1564.17
870.099	1578.12
870.276	1558.55
870.454	1569.4
870.631	1591.68
870.808	1527.75
870.985	1573.47
871.162	1602.14
871.339	1539.95
871.517	1495.58
871.694	1458.38
871.871	1509.34
872.048	1484.15
872.225	1509.53
872.402	1500.23
872.579	1486.48
872.756	1482.41
872.933	1441.53
873.11	1492.1
873.287	1489.96
873.463	1446.37
873.64	1440.75
873.817	1519.03
873.994	1466.71
874.171	1422.35
874.348	1438.04
874.524	1418.47
874.701	1412.08
874.878	1383.02
875.055	1440.56
875.231	1407.82
875.408	1437.46
875.585	1384.76
875.762	1419.25
875.938	1407.43
876.115	1413.05
876.291	1363.64
876.468	1416.15
876.645	1339.04
876.821	1372.94
876.998	1380.69
877.174	1391.15
877.351	1392.32
877.527	1355.12
877.704	1400.65
877.88	1413.63
878.057	1337.68
878.233	1421.96
878.409	1365.97
878.586	1359.77
878.762	1346.01
878.938	1347.95
879.115	1306.1
879.291	1342.33
879.467	1267.35
879.644	1300.48
879.82	1352.4
879.996	1313.85
880.172	1270.64
880.349	1350.47
880.525	1379.72
880.701	1257.66
880.877	1277.62
881.053	1303.97
881.229	1305.71
881.405	1335.94
881.581	1289.24
881.757	1289.05
881.933	1298.74
882.109	1313.07
882.285	1299.12
882.461	1209.61
882.637	1282.07
882.813	1276.46
882.989	1290.02
883.165	1352.02
883.341	1287.11
883.517	1329.54
883.693	1310.36
883.869	1311.91
884.044	1262.7
884.22	1352.99
884.396	1330.51
884.572	1286.53
884.747	1312.3
884.923	1308.62
885.099	1315.79
885.275	1378.75
885.45	1303.77
885.626	1266.57
885.801	1263.47
885.977	1238.48
886.153	1230.15
886.328	1286.34
886.504	1246.81
886.679	1262.51
886.855	1276.46
887.03	1303.97
887.206	1323.34
887.381	1294.47
887.557	1294.67
887.732	1283.62
887.908	1291.18
888.083	1350.27
888.258	1300.29
888.434	1247.78
888.609	1265.02
888.784	1322.18
888.96	1258.63
889.135	1279.56
889.31	1245.07
889.485	1293.31
889.661	1290.02
889.836	1340.39
890.011	1323.54
890.186	1331.67
890.361	1255.53
890.537	1284.59
890.712	1274.13
890.887	1306.29
891.062	1304.16
891.237	1363.64
891.412	1222.79
891.587	1326.05
891.762	1302.03
891.937	1331.48
892.112	1222.79
892.287	1282.07
892.462	1227.82
892.637	1220.27
892.812	1211.55
892.987	1209.03
893.161	1232.09
893.336	1192.76
893.511	1221.62
893.686	1230.15
893.861	1186.36
894.035	1190.43
894.21	1196.44
894.385	1165.63
894.56	1156.72
894.734	1151.49
894.909	1117.58
895.084	1117.78
895.258	1113.71
895.433	1091.62
895.608	1093.36
895.782	1030.78
895.957	1030.78
896.131	1054.03
896.306	976.92
896.48	986.61
896.655	995.72
896.829	887.41
897.004	909.89
897.178	945.53
897.353	890.9
897.527	962.78
897.701	948.25
897.876	842.85
898.05	970.14
898.224	964.91
898.399	968.98
898.573	919.77
898.747	820.57
898.921	867.26
899.096	756.05
899.27	761.67
899.444	768.64
899.618	793.06
899.792	822.51
899.967	809.91
900.141	870.17
900.315	788.79
900.489	833.55
900.663	841.88
900.837	827.93
901.011	760.7
901.185	866.68
901.359	827.35
901.533	851.57
901.707	837.23
901.881	808.56
902.055	771.74
902.229	802.16
902.403	867.07
902.576	830.84
902.75	839.36
902.924	945.53
903.098	865.52
903.272	944.37
903.446	963.36
903.619	953.48
903.793	991.65
903.967	951.54
904.14	1033.3
904.314	998.43
904.488	983.7
904.661	988.74
904.835	989.52
905.009	1022.07
905.182	1059.07
905.356	999.4
905.529	1033.69
905.703	935.85
905.876	923.64
906.05	928.49
906.223	920.93
906.397	856.02
906.57	815.92
906.744	835.1
906.917	856.41
907.09	844.59
907.264	834.52
907.437	781.82
907.61	739.19
907.784	765.35
907.957	775.62
908.13	720.79
908.304	785.31
908.477	726.02
908.65	738.03
908.823	737.26
908.996	802.94
909.17	730.48
909.343	724.86
909.516	756.63
909.689	734.74
909.862	702.58
910.035	716.53
910.208	685.91
910.381	677
910.554	781.62
910.727	729.12
910.9	716.33
911.073	709.55
911.246	754.5
911.419	745.78
911.592	742.88
911.765	725.24
911.938	684.75
912.11	718.08
912.283	729.12
912.456	783.17
912.629	707.81
912.802	698.7
912.974	642.51
913.147	629.15
913.32	605.7
913.493	583.03
913.665	642.51
913.838	630.5
914.01	603.96
914.183	675.26
914.356	660.92
914.528	669.64
914.701	743.65
914.873	710.52
915.046	642.9
915.218	603.96
915.391	539.63
915.563	563.08
915.736	623.14
915.908	602.8
916.081	627.98
916.253	606.67
916.425	628.56
916.598	643.29
916.77	659.76
916.942	644.65
917.115	557.07
917.287	645.23
917.459	562.3
917.632	536.53
917.804	525.3
917.976	566.57
918.148	559.59
918.32	604.93
918.493	623.91
918.665	681.07
918.837	638.83
919.009	704.13
919.181	685.33
919.353	648.91
919.525	676.23
919.697	654.72
919.869	632.83
920.041	687.46
920.213	761.48
920.385	678.94
920.557	662.86
920.729	668.86
920.901	683.98
921.073	647.16
921.244	637.86
921.416	648.91
921.588	645.23
921.76	627.98
921.932	661.5
922.103	634.76
922.275	626.43
922.447	647.55
922.619	565.79
922.79	631.08
922.962	608.61
923.134	630.7
923.305	612.87
923.477	570.63
923.648	591.36
923.82	593.5
923.991	541.77
924.163	535.37
924.335	553
924.506	552.81
924.677	596.98
924.849	525.49
925.02	574.51
925.192	606.86
925.363	581.87
925.535	579.35
925.706	531.69
925.877	628.76
926.049	509.8
926.22	561.33
926.391	548.93
926.562	586.13
926.734	533.24
926.905	568.12
927.076	515.61
927.247	503.6
927.419	484.8
927.59	472.21
927.761	524.72
927.932	451.87
928.103	488.29
928.274	418.54
928.445	434.62
928.616	418.74
928.787	419.9
928.958	458.07
929.129	409.24
929.3	391.42
929.471	371.46
929.642	336.59
929.813	291.06
929.984	380.96
930.155	283.11
930.326	350.92
930.496	320.51
930.667	271.68
930.838	299.39
931.009	247.27
931.18	249.01
931.35	235.45
931.521	272.07
931.692	204.45
931.863	176.75
932.033	223.05
932.204	201.16
932.374	202.71
932.545	133.35
932.716	213.17
932.886	205.42
933.057	144.97
933.227	144.58
933.398	200.38
933.568	133.54
933.739	84.52
933.909	100.22
934.08	161.25
934.25	61.08
934.421	74.06
934.591	117.27
934.761	83.94
934.932	63.21
935.102	107.58
935.272	102.93
935.443	87.04
935.613	94.98
935.783	104.67
935.953	61.66
936.123	228.48
936.294	75.61
936.464	85.1
936.634	100.6
936.804	73.09
936.974	35.89
937.144	105.25
937.314	105.06
937.484	96.73
937.655	86.85
937.825	148.85
937.995	102.35
938.165	136.06
938.334	104.67
938.504	126.57
938.674	117.27
938.844	144.39
939.014	186.24
939.184	176.36
939.354	238.75
939.524	225.96
939.694	146.91
939.863	166.28
940.033	249.4
940.203	209.3
940.373	195.54
940.542	208.13
940.712	180.04
940.882	187.01
941.051	232.55
941.221	216.85
941.391	222.08
941.56	171.51
941.73	149.62
941.899	260.64
942.069	173.45
942.238	191.47
942.408	148.07
942.577	163.18
942.747	175.39
942.916	127.15
943.086	149.23
943.255	179.46
943.425	164.54
943.594	116.1
943.763	79.48
943.933	84.72
944.102	83.75
944.271	122.5
944.441	121.33
944.61	113.78
944.779	142.84
944.948	222.66
945.117	101.96
945.287	112.42
945.456	72.51
945.625	73.67
945.794	144
945.963	83.17
946.132	156.6
946.301	127.15
946.47	169.77
946.639	46.74
946.808	111.07
946.977	149.23
947.146	169.38
947.315	120.17
947.484	158.73
947.653	112.62
947.822	115.91
947.991	92.47
948.16	220.15
948.329	153.11
948.498	130.25
948.666	156.21
948.835	157.37
949.004	85.3
949.173	103.12
949.341	114.94
949.51	138.38
949.679	177.91
949.847	150.2
950.016	195.35
950.185	177.52
950.353	113.2
950.522	135.67
950.69	182.75
950.859	129.86
951.028	164.35
951.196	134.12
951.365	109.71
951.533	110.29
951.701	153.3
951.87	153.88
952.038	82
952.207	124.43
952.375	200.19
952.543	102.54
952.712	102.93
952.88	113.39
953.048	196.12
953.217	118.04
953.385	155.24
953.553	168.41
953.721	95.95
953.89	140.9
954.058	64.76
954.226	114.94
954.394	141.87
954.562	76.58
954.73	128.12
954.898	89.95
955.067	152.53
955.235	99.63
955.403	131.41
955.571	183.53
955.739	111.84
955.907	84.91
956.075	116.3
956.243	90.92
956.41	148.46
956.578	101.77
956.746	64.37
956.914	117.27
957.082	155.24
957.25	139.93
957.418	114.94
957.585	120.37
957.753	162.02
957.921	110.29
958.089	110.48
958.256	161.63
958.424	106.42
958.592	124.24
958.759	89.75
958.927	153.5
959.095	99.05
959.262	109.9
959.43	150.78
959.597	111.84
959.765	136.45
959.932	78.52
960.1	187.79
960.267	117.46
960.435	123.66
960.602	141.1
960.77	114.55
960.937	95.95
961.104	146.72
961.272	52.17
961.439	92.85
961.606	147.1
961.774	167.45
961.941	125.4
962.108	118.04
962.275	129.86
962.443	179.46
962.61	148.46
962.777	209.1
962.944	146.33
963.111	128.5
963.278	144.78
963.446	136.45
963.613	143.03
963.78	156.4
963.947	159.11
964.114	150.78
964.281	221.31
964.448	144.58
964.615	123.27
964.782	134.9
964.949	174.23
965.116	144.78
965.282	206.78
965.449	140.32
965.616	117.65
965.783	174.23
965.95	151.75
966.117	104.28
966.283	153.11
966.45	162.8
966.617	165.51
966.784	171.32
966.95	211.81
967.117	182.56
967.284	122.5
967.45	145.17
967.617	202.32
967.784	172.68
967.95	225.96
968.117	129.86
968.283	186.63
968.45	279.24
968.616	198.06
968.783	221.31
968.949	163.57
969.116	206.2
969.282	153.69
969.449	158.34
969.615	151.56
969.781	119.4
969.948	144.97
970.114	111.65
970.28	204.84
970.447	150.59
970.613	191.08
970.779	156.79
970.945	174.61
971.112	150.2
971.278	142.45
971.444	150.01
971.61	187.21
971.776	139.35
971.942	196.7
972.108	189.53
972.275	167.25
972.441	189.92
972.607	215.5
972.773	138.97
972.939	184.11
973.105	156.6
973.271	93.24
973.437	149.62
973.602	109.71
973.768	185.46
973.934	156.98
974.1	165.12
974.266	97.89
974.432	155.63
974.598	117.27
974.763	203.1
974.929	130.05
975.095	207.36
975.261	132.96
975.426	112.62
975.592	147.3
975.758	202.51
975.923	78.13
976.089	113.58
976.255	164.54
976.42	131.6
976.586	162.6
976.751	158.34
976.917	221.89
977.082	173.84
977.248	88.59
977.413	56.43
977.579	127.73
977.744	111.07
977.91	94.02
978.075	101.96
978.24	177.13
978.406	100.02
978.571	90.92
978.736	107.38
978.902	159.89
979.067	96.34
979.232	73.48
979.397	154.27
979.563	168.03
979.728	94.02
979.893	126.57
980.058	94.79
980.223	148.46
980.388	162.6
980.554	126.18
980.719	111.45
980.884	126.95
981.049	140.9
981.214	122.3
981.379	156.4
981.544	97.89
981.709	134.9
981.874	106.22
982.039	132.18
982.204	143.42
982.368	129.67
982.533	125.98
982.698	165.31
982.863	160.08
983.028	146.52
983.193	149.04
983.357	150.2
983.522	158.53
983.687	107.58
983.852	145.75
984.016	96.34
984.181	120.37
984.346	149.62
984.51	142.07
984.675	113.39
984.839	165.7
985.004	135.09
985.168	161.05
985.333	137.22
985.498	138.77
985.662	129.86
985.827	166.48
985.991	137.22
986.155	129.67
986.32	147.68
986.484	186.05
986.649	133.54
986.813	78.52
986.977	130.25
987.142	142.84
987.306	92.85
987.47	100.41
987.634	107.77
987.799	125.79
987.963	140.9
988.127	128.12
988.291	180.43
988.455	89.95
988.62	101.38
988.784	149.82
988.948	141.1
989.112	86.07
989.276	121.33
989.44	127.53
989.604	92.08
989.768	104.28
989.932	199.61
990.096	81.23
990.26	75.42
990.424	94.6
990.588	116.88
990.752	183.14
990.915	159.5
991.079	87.82
991.243	86.85
991.407	115.33
991.571	112.81
991.734	130.25
991.898	130.44
992.062	213.56
992.226	99.44
992.389	81.62
992.553	54.1
992.717	86.85
992.88	84.91
993.044	111.84
993.207	81.81
993.371	157.18
993.535	138.97
993.698	102.15
993.862	136.45
994.025	168.41
994.189	107.19
994.352	97.89
994.515	98.08
994.679	152.53
994.842	70.57
995.006	131.22
995.169	85.68
995.332	81.23
995.496	125.4
995.659	35.12
995.822	89.56
995.985	109.9
996.149	146.13
996.312	114.75
996.475	158.92
996.638	73.87
996.801	167.25
996.964	156.21
997.128	95.95
997.291	107.77
997.454	118.23
997.617	42.87
997.78	147.49
997.943	69.02
998.106	132.57
998.269	88.98
998.432	94.6
998.595	98.86
998.758	58.17
998.92	60.5
999.083	51.39
999.246	80.65
999.409	41.9
999.572	27.37
999.735	75.22
999.897	127.34
1000.06	38.8
1000.223	76.77
1000.386	100.41
1000.548	119.2
1000.711	123.47
1000.874	89.95
1001.036	42.09
1001.199	107.19
1001.361	71.35
1001.524	90.92
1001.687	124.82
1001.849	61.47
1002.012	76.19
1002.174	90.53
1002.337	95.76
1002.499	78.9
1002.661	141.87
1002.824	46.35
1002.986	73.48
1003.149	78.13
1003.311	56.43
1003.473	133.35
1003.636	55.46
1003.798	72.32
1003.96	93.43
1004.123	86.85
1004.285	93.43
1004.447	71.54
1004.609	73.87
1004.771	128.5
1004.933	34.73
1005.096	43.25
1005.258	15.55
1005.42	50.81
1005.582	113.78
1005.744	70.96
1005.906	34.92
1006.068	88.2
1006.23	43.45
1006.392	24.85
1006.554	8.38
1006.716	98.08
1006.878	73.87
1007.04	22.52
1007.202	34.92
1007.363	59.14
1007.525	61.85
1007.687	77.74
1007.849	101.96
1008.011	20.97
1008.172	41.9
1008.334	37.64
1008.496	85.1
1008.658	26.59
1008.819	44.61
1008.981	26.4
1009.143	33.95
1009.304	51.39
1009.466	83.17
1009.627	102.93
1009.789	150.98
1009.95	83.94
1010.112	25.43
1010.273	87.82
1010.435	38.8
1010.596	56.62
1010.758	48.68
1010.919	41.7
1011.081	22.91
1011.242	40.35
1011.403	90.33
1011.565	48.1
1011.726	80.65
1011.887	21.55
1012.049	24.85
1012.21	72.12
1012.371	119.98
1012.532	-12.35
1012.693	38.99
1012.855	37.25
1013.016	40.35
1013.177	104.09
1013.338	29.3
1013.499	118.82
1013.66	71.93
1013.821	81.62
1013.982	79.48
1014.143	32.99
1014.304	43.25
1014.465	70.96
1014.626	75.42
1014.787	39.96
1014.948	127.15
1015.109	-2.47
1015.27	87.82
1015.431	34.92
1015.592	45.97
1015.752	123.47
1015.913	31.24
1016.074	28.14
1016.235	37.64
1016.395	39.96
1016.556	52.94
1016.717	55.27
1016.877	93.05
1017.038	23.3
1017.199	70.77
1017.359	38.22
1017.52	34.92
1017.681	16.71
1017.841	54.49
1018.002	18.84
1018.162	22.14
1018.323	113.58
1018.483	15.35
1018.644	35.5
1018.804	5.86
1018.964	45.58
1019.125	29.69
1019.285	68.05
1019.446	8.96
1019.606	26.2
1019.766	-17
1019.926	73.28
1020.087	69.22
1020.247	-23.59
1020.407	72.7
1020.567	88.01
1020.728	42.09
1020.888	4.7
1021.048	17.68
1021.208	5.47
1021.368	19.62
1021.528	51.59
1021.688	83.17
1021.848	60.89
1022.008	53.72
1022.168	28.34
1022.328	30.08
1022.488	54.1
1022.648	13.03
1022.808	50.42
1022.968	40.35
1023.128	20
1023.288	18.26
1023.448	17.29
1023.608	60.69
1023.767	55.65
1023.927	5.47
1024.087	13.22
1024.247	20.2
1024.406	22.52
1024.566	-3.83
1024.726	-6.54
1024.885	39.19
1025.045	49.65
1025.205	39.57
1025.364	29.5
1025.524	31.05
1025.683	16.32
1025.843	55.46
1026.003	21.17
1026.162	108.55
1026.321	83.36
1026.481	34.54
1026.64	26.2
1026.8	38.99
1026.959	-2.66
1027.119	24.65
1027.278	19.81
1027.437	13.22
1027.597	14.39
1027.756	48.49
1027.915	49.07
1028.074	42.09
1028.234	-0.15
1028.393	32.02
1028.552	20.39
1028.711	-30.76
1028.87	28.92
1029.03	23.1
1029.189	29.69
1029.348	-60.21
1029.507	17.87
1029.666	9.93
1029.825	-22.23
1029.984	-4.21
1030.143	17.87
1030.302	38.41
1030.461	-29.98
1030.62	25.82
1030.779	53.52
1030.938	0.24
1031.097	-15.84
1031.255	35.5
1031.414	75.61
1031.573	60.89
1031.732	-15.84
1031.891	-8.67
1032.049	72.7
1032.208	31.63
1032.367	-10.61
1032.525	6.83
1032.684	-1.7
1032.843	30.85
1033.001	-29.4
1033.16	160.28
1033.319	51
1033.477	42.09
1033.636	10.9
1033.794	-10.03
1033.953	54.69
1034.111	31.82
1034.27	15.74
1034.428	49.45
1034.587	-13.13
1034.745	39.57
1034.903	26.01
1035.062	45.19
1035.22	-34.05
1035.378	26.4
1035.537	-17
1035.695	43.84
1035.853	24.27
1036.011	44.03
1036.17	32.02
1036.328	-48.97
1036.486	15.16
1036.644	28.92
1036.802	-69.51
1036.96	-23.2
1037.119	21.36
1037.277	6.64
1037.435	-24.75
1037.593	-10.22
1037.751	3.54
1037.909	72.9
1038.067	72.9
