Data from gum_old_FLMT105791__120__15-46-09-253.txt Node

Date: Mon Mar 20 15:46:09 GMT 2023
User: antho
Spectrometer: FLMT10579
Trigger mode: 0
Integration Time (sec): 1.000000E-1
Scans to average: 10
Electric dark correction enabled: true
Nonlinearity correction enabled: false
Boxcar width: 0
XAxis mode: Wavelengths
Number of Pixels in Spectrum: 3648
>>>>>Begin Spectral Data<<<<<
345.248	-192.63
345.464	-192.63
345.681	-192.63
345.898	-211.04
346.114	-185.27
346.331	-60.3
346.548	34.24
346.764	-21.75
346.981	-1.02
347.197	-1.02
347.414	10.41
347.631	-26.2
347.847	71.64
348.064	12.93
348.28	14.68
348.497	-31.44
348.713	-2.18
348.93	24.75
349.146	32.89
349.363	-2.95
349.579	33.86
349.796	-0.82
350.012	-15.94
350.229	43.35
350.445	-2.76
350.661	-22.72
350.878	23.98
351.094	-2.76
351.311	29.98
351.527	39.28
351.743	-25.04
351.96	56.33
352.176	49.74
352.392	25.33
352.609	67.38
352.825	-20.97
353.041	10.03
353.257	18.75
353.474	-1.02
353.69	24.56
353.906	35.02
354.122	-29.3
354.339	53.43
354.555	-2.18
354.771	23.59
354.987	102.64
355.203	75.32
355.42	-6.25
355.636	6.73
355.852	24.17
356.068	11.77
356.284	-3.92
356.5	54.98
356.716	41.22
356.932	6.35
357.148	34.63
357.364	13.13
357.58	77.84
357.796	76.29
358.012	81.33
358.228	26.3
358.444	-69.41
358.66	66.41
358.876	28.43
359.092	-12.06
359.308	28.82
359.524	35.21
359.74	19.91
359.956	2.47
360.172	22.62
360.388	67.76
360.604	7.51
360.819	111.16
361.035	23.2
361.251	46.45
361.467	-6.83
361.683	73.96
361.898	16.61
362.114	72.41
362.33	34.44
362.546	57.69
362.762	26.88
362.977	23.39
363.193	-13.03
363.409	51.1
363.624	-12.45
363.84	-4.12
364.056	14.1
364.271	23.98
364.487	68.93
364.703	10.61
364.918	-5.86
365.134	12.35
365.35	35.41
365.565	130.15
365.781	45.87
365.996	42.19
366.212	101.09
366.427	71.83
366.643	-0.63
366.858	12.74
367.074	-0.24
367.289	65.63
367.505	139.45
367.72	-24.85
367.936	36.76
368.151	57.3
368.367	53.81
368.582	34.24
368.798	10.41
369.013	95.47
369.228	37.93
369.444	63.69
369.659	121.04
369.874	50.52
370.09	93.53
370.305	-12.25
370.52	21.65
370.736	101.86
370.951	57.88
371.166	89.66
371.381	92.56
371.597	92.76
371.812	12.93
372.027	31.53
372.242	52.84
372.458	101.09
372.673	13.13
372.888	43.54
373.103	62.14
373.318	132.47
373.533	69.51
373.749	79
373.964	-18.65
374.179	100.7
374.394	19.13
374.609	103.03
374.824	-0.24
375.039	107.09
375.254	11.58
375.469	89.46
375.684	64.08
375.899	95.66
376.114	67.96
376.329	78.81
376.544	95.47
376.759	101.48
376.974	38.12
377.189	57.3
377.404	54.59
377.619	97.41
377.834	3.83
378.049	7.12
378.264	29.98
378.478	67.38
378.693	43.54
378.908	76.68
379.123	83.26
379.338	118.33
379.553	88.3
379.767	100.51
379.982	79.97
380.197	84.43
380.412	55.56
380.626	69.12
380.841	153.4
381.056	90.82
381.271	131.31
381.485	32.11
381.7	18.75
381.915	72.8
382.129	49.74
382.344	66.02
382.559	49.36
382.773	78.61
382.988	3.25
383.202	62.53
383.417	21.84
383.632	131.31
383.846	54.01
384.061	81.91
384.275	50.13
384.49	58.85
384.704	88.88
384.919	79.97
385.133	59.82
385.348	85.78
385.562	9.06
385.777	102.44
385.991	80.94
386.206	52.07
386.42	49.36
386.634	110.19
386.849	72.41
387.063	79.19
387.277	56.14
387.492	23.98
387.706	43.16
387.92	33.08
388.135	85.59
388.349	83.26
388.563	100.89
388.778	91.98
388.992	94.11
389.206	82.49
389.42	143.91
389.635	72.99
389.849	125.89
390.063	140.42
390.277	92.37
390.491	134.61
390.706	136.74
390.92	121.82
391.134	101.28
391.348	123.17
391.562	54.2
391.776	113.68
391.99	57.69
392.205	135.38
392.419	76.87
392.633	61.18
392.847	149.72
393.061	77.06
393.275	129.57
393.489	83.65
393.703	79.97
393.917	117.36
394.131	48.58
394.345	86.36
394.559	97.79
394.773	88.88
394.986	122.21
395.2	81.71
395.414	151.46
395.628	73.77
395.842	113.29
396.056	94.69
396.27	41.41
396.484	112.91
396.697	117.17
396.911	141
397.125	82.29
397.339	107.48
397.553	73.77
397.766	150.69
397.98	125.89
398.194	151.46
398.408	121.62
398.621	137.12
398.835	159.6
399.049	161.92
399.262	185.56
399.476	184.98
399.69	176.26
399.903	233.61
400.117	170.84
400.331	155.53
400.544	142.55
400.758	282.05
400.971	164.25
401.185	203.19
401.398	143.91
401.612	228.77
401.826	194.28
402.039	204.35
402.253	169.67
402.466	222.37
402.68	182.85
402.893	187.89
403.106	214.04
403.32	193.51
403.533	217.14
403.747	189.63
403.96	199.32
404.174	195.25
404.387	148.94
404.6	192.34
404.814	239.04
405.027	189.05
405.24	189.63
405.454	191.96
405.667	234.39
405.88	127.05
406.094	208.04
406.307	272.36
406.52	212.49
406.733	159.02
406.947	182.85
407.16	256.09
407.373	239.81
407.586	193.51
407.799	161.92
408.012	214.62
408.226	196.41
408.439	282.24
408.652	164.06
408.865	238.65
409.078	289.6
409.291	263.64
409.504	193.51
409.717	242.14
409.93	247.37
410.143	242.91
410.357	170.64
410.57	166.57
410.783	222.76
410.996	209.78
411.209	223.92
411.421	271.97
411.634	211.33
411.847	201.06
412.06	258.8
412.273	239.04
412.486	269.45
412.699	329.52
412.912	234
413.125	282.44
413.338	246.4
413.55	274.1
413.763	245.82
413.976	246.59
414.189	236.32
414.402	246.01
414.615	316.73
414.827	212.3
415.04	279.72
415.253	292.9
415.466	300.84
415.678	340.75
415.891	280.3
416.104	254.73
416.316	261.32
416.529	253.95
416.742	278.75
416.954	306.46
417.167	274.69
417.38	271.59
417.592	306.27
417.805	221.99
418.017	218.89
418.23	265.39
418.442	239.81
418.655	249.5
418.868	252.99
419.08	301.03
419.293	318.67
419.505	270.62
419.718	286.5
419.93	317.7
420.142	251.82
420.355	315.76
420.567	321.18
420.78	291.93
420.992	273.33
421.205	338.82
421.417	246.59
421.629	279.72
421.842	250.27
422.054	256.09
422.266	314.6
422.479	338.04
422.691	267.9
422.903	297.93
423.115	280.3
423.328	288.83
423.54	300.84
423.752	268.29
423.964	251.44
424.177	324.28
424.389	285.15
424.601	400.62
424.813	311.5
425.025	314.21
425.238	336.88
425.45	277.79
425.662	281.66
425.874	603.28
426.086	295.03
426.298	303.36
426.51	332.81
426.722	287.47
426.934	283.4
427.146	344.05
427.358	270.42
427.57	335.33
427.782	287.28
427.994	276.82
428.206	242.52
428.418	281.47
428.63	313.43
428.842	333.58
429.054	330.87
429.266	343.08
429.478	279.14
429.69	295.03
429.902	263.06
430.114	322.54
430.325	321.38
430.537	266.16
430.749	268.1
430.961	199.7
431.173	254.34
431.384	292.9
431.596	170.84
431.808	244.65
432.02	292.7
432.231	351.6
432.443	371.95
432.655	333.2
432.867	316.92
433.078	354.7
433.29	421.16
433.502	327.97
433.713	383.96
433.925	367.3
434.136	385.51
434.348	306.46
434.56	267.32
434.771	438.79
434.983	265.19
435.194	314.79
435.406	376.6
435.617	372.14
435.829	441.7
436.04	376.01
436.252	394.42
436.463	438.01
436.675	414.57
436.886	408.76
437.098	416.9
437.309	457.2
437.521	398.3
437.732	395.97
437.943	390.74
438.155	392.48
438.366	313.43
438.578	450.03
438.789	347.15
439	397.33
439.211	384.15
439.423	397.13
439.634	378.53
439.845	404.5
440.057	379.31
440.268	440.34
440.479	381.25
440.69	423.1
440.902	375.43
441.113	370.4
441.324	372.33
441.535	437.63
441.746	477.34
441.957	401.2
442.168	398.1
442.38	456.23
442.591	472.69
442.802	383.38
443.013	424.45
443.224	442.66
443.435	444.99
443.646	428.52
443.857	435.69
444.068	402.36
444.279	421.55
444.49	517.64
444.701	457
444.912	577.71
445.123	513.58
445.334	447.7
445.545	479.28
445.756	430.26
445.967	408.56
446.178	441.7
446.388	467.46
446.599	452.93
446.81	465.91
447.021	426.58
447.232	483.54
447.443	511.25
447.653	468.63
447.864	513.77
448.075	483.74
448.286	519.97
448.496	496.91
448.707	512.41
448.918	483.35
449.129	567.24
449.339	469.4
449.55	464.75
449.761	488.58
449.971	536.83
450.182	473.28
450.393	532.18
450.603	490.33
450.814	546.51
451.024	513.58
451.235	556.39
451.446	560.66
451.656	580.81
451.867	478.31
452.077	537.21
452.288	568.02
452.498	545.74
452.709	520.55
452.919	543.61
453.13	478.51
453.34	551.16
453.55	457.58
453.761	543.22
453.971	532.95
454.182	547.29
454.392	513.58
454.602	574.41
454.813	524.43
455.023	544.77
455.233	478.31
455.444	508.54
455.654	437.63
455.864	518.81
456.075	518.42
456.285	517.64
456.495	490.91
456.705	555.23
456.916	630.21
457.126	612.39
457.336	533.73
457.546	452.74
457.756	515.71
457.967	609.29
458.177	506.6
458.387	539.93
458.597	499.24
458.807	542.06
459.017	526.17
459.227	523.26
459.437	520.94
459.647	567.24
459.857	553.49
460.068	500.4
460.278	578.09
460.488	533.53
460.698	622.27
460.908	558.33
461.117	503.5
461.327	525.2
461.537	582.36
461.747	581.97
461.957	549.03
462.167	682.52
462.377	598.63
462.587	570.15
462.797	633.7
463.007	610.64
463.216	611.61
463.426	640.09
463.636	632.73
463.846	522.1
464.056	563.37
464.265	596.11
464.475	562.01
464.685	575.57
464.895	620.14
465.104	561.82
465.314	611.81
465.524	566.27
465.733	528.88
465.943	648.62
466.153	636.02
466.362	636.99
466.572	624.59
466.782	596.69
466.991	603.86
467.201	632.34
467.41	560.46
467.62	588.75
467.829	592.24
468.039	630.79
468.249	617.81
468.458	603.09
468.668	639.51
468.877	645.13
469.086	670.9
469.296	650.17
469.505	634.09
469.715	703.25
469.924	655.2
470.134	716.24
470.343	674.77
470.552	645.71
470.762	624.4
470.971	604.64
471.18	653.46
471.39	646.29
471.599	613.74
471.808	681.36
472.018	658.3
472.227	734.45
472.436	729.22
472.645	683.49
472.855	706.55
473.064	753.05
473.273	750.14
473.482	705.58
473.691	758.86
473.901	738.52
474.11	702.09
474.319	806.72
474.528	712.75
474.737	780.17
474.946	756.34
475.155	766.8
475.364	784.05
475.573	761.18
475.783	806.91
475.992	747.43
476.201	797.42
476.41	762.35
476.619	714.69
476.828	779.59
477.037	720.69
477.245	766.22
477.454	787.15
477.663	784.24
477.872	786.76
478.081	888.48
478.29	793.73
478.499	910.37
478.708	829
478.917	942.73
479.125	821.44
479.334	880.73
479.543	834.81
479.752	877.24
479.961	868.52
480.169	907.08
480.378	866.39
480.587	992.71
480.796	904.75
481.004	867.75
481.213	879.56
481.422	886.73
481.63	861.35
481.839	935.17
482.048	971.4
482.256	926.64
482.465	959.97
482.674	976.44
482.882	984.57
483.091	1053.36
483.299	977.21
483.508	988.06
483.716	977.99
483.925	984.19
484.134	950.48
484.342	959.19
484.551	974.5
484.759	983.02
484.967	1021.19
485.176	1015.96
485.384	1005.31
485.593	1031.07
485.801	989.03
486.01	967.91
486.218	937.3
486.426	859.8
486.635	881.11
486.843	860.58
487.051	862.32
487.26	882.86
487.468	954.35
487.676	961.52
487.885	952.61
488.093	971.21
488.301	997.36
488.509	1028.94
488.717	1045.61
488.926	1014.8
489.134	988.64
489.342	1056.46
489.55	998.33
489.758	1009.18
489.967	1028.36
490.175	1155.85
490.383	1072.54
490.591	1157.78
490.799	1065.37
491.007	1143.84
491.215	1106.05
491.423	1101.79
491.631	1097.34
491.839	1064.01
492.047	1122.33
492.255	1056.46
492.463	1035.53
492.671	1057.04
492.879	1098.11
493.087	1070.79
493.295	1116.52
493.503	1127.37
493.711	1138.6
493.919	1164.57
494.127	1151.97
494.334	1152.55
494.542	1078.35
494.75	1133.76
494.958	1173.67
495.166	1208.74
495.374	1183.36
495.581	1178.13
495.789	1155.07
495.997	1240.52
496.205	1179.68
496.412	1141.12
496.62	1173.09
496.828	1193.43
497.035	1191.88
497.243	1201.96
497.451	1180.26
497.658	1204.48
497.866	1212.03
498.074	1265.9
498.281	1150.62
498.489	1259.11
498.696	1214.36
498.904	1154.1
499.112	1184.13
499.319	1256.79
499.527	1189.56
499.734	1225.6
499.942	1154.88
500.149	1188.01
500.357	1238
500.564	1169.8
500.771	1198.28
500.979	1158.75
501.186	1130.85
501.394	1211.65
501.601	1173.48
501.808	1208.93
502.016	1163.02
502.223	1186.85
502.43	1183.55
502.638	1202.15
502.845	1118.07
503.052	1240.71
503.26	1179.68
503.467	1274.23
503.674	1232.18
503.881	1260.47
504.089	1328.28
504.296	1248.26
504.503	1201.77
504.71	1212.23
504.917	1173.48
505.125	1197.31
505.332	1229.86
505.539	1265.51
505.746	1320.53
505.953	1301.93
506.16	1295.54
506.367	1340.68
506.574	1339.91
506.781	1345.72
506.988	1282.95
507.195	1343.2
507.402	1282.56
507.609	1337.58
507.816	1304.84
508.023	1274.61
508.23	1257.95
508.437	1226.37
508.644	1305.03
508.851	1347.27
509.058	1337.58
509.265	1328.67
509.472	1344.36
509.679	1450.73
509.885	1339.91
510.092	1318.6
510.299	1293.6
510.506	1290.5
510.713	1378.27
510.92	1327.31
511.126	1344.75
511.333	1389.12
511.54	1389.7
511.746	1421.67
511.953	1426.51
512.16	1410.63
512.367	1367.23
512.573	1369.36
512.78	1397.64
512.987	1365.87
513.193	1359.28
513.4	1274.42
513.606	1351.34
513.813	1407.91
514.02	1360.83
514.226	1435.04
514.433	1404.81
514.639	1331.38
514.846	1385.24
515.052	1353.86
515.259	1377.3
515.465	1414.89
515.672	1376.14
515.878	1434.65
516.085	1411.79
516.291	1413.53
516.497	1388.34
516.704	1393.96
516.91	1333.71
517.117	1309.3
517.323	1227.92
517.529	1266.67
517.736	1282.36
517.942	1278.88
518.148	1267.06
518.354	1354.24
518.561	1355.99
518.767	1318.79
518.973	1356.38
519.179	1382.73
519.386	1338.36
519.592	1344.94
519.798	1362.38
520.004	1468.56
520.21	1433.29
520.417	1489.67
520.623	1549.35
520.829	1561.94
521.035	1524.35
521.241	1522.61
521.447	1538.5
521.653	1654.75
521.859	1539.85
522.065	1545.47
522.271	1658.43
522.477	1596.82
522.683	1619.48
522.889	1618.13
523.095	1585.39
523.301	1584.42
523.507	1565.04
523.713	1595.46
523.919	1551.09
524.125	1614.64
524.331	1619.68
524.537	1710.93
524.742	1685.36
524.948	1694.85
525.154	1724.69
525.36	1804.71
525.566	1714.61
525.772	1786.49
525.977	1702.99
526.183	1706.48
526.389	1794.83
526.595	1691.95
526.8	1675.48
527.006	1616.38
527.212	1577.64
527.417	1560.59
527.623	1576.67
527.829	1627.43
528.034	1664.82
528.24	1693.88
528.446	1668.7
528.651	1783.01
528.857	1771.19
529.062	1818.08
529.268	1794.83
529.473	1843.46
529.679	1812.65
529.884	1892.28
530.09	1903.52
530.295	1893.64
530.501	1886.27
530.706	1858.96
530.912	1819.24
531.117	1864.57
531.323	1878.33
531.528	1913.01
531.733	1939.94
531.939	1916.89
532.144	1916.5
532.35	1889.37
532.555	1969.39
532.76	1894.41
532.966	1885.11
533.171	1873.68
533.376	1839
533.581	1781.65
533.787	1857.99
533.992	1909.91
534.197	1950.02
534.402	1892.86
534.607	1920.18
534.813	2003.88
535.018	1918.82
535.223	1898.09
535.428	1934.91
535.633	1979.85
535.838	1985.28
536.043	1988.77
536.249	2057.16
536.454	1970.36
536.659	2051.15
536.864	1983.92
537.069	1969.59
537.274	1992.64
537.479	1989.93
537.684	1958.93
537.889	1934.13
538.094	2051.93
538.299	1986.25
538.504	1977.14
538.708	2006.01
538.913	2021.7
539.118	2039.72
539.323	2051.15
539.528	2001.94
539.733	1974.82
539.938	2031.78
540.142	2037.78
540.347	1996.9
540.552	1949.63
540.757	1953.7
540.962	1940.14
541.166	1884.92
541.371	1916.31
541.576	1946.14
541.781	1882.98
541.985	1995.94
542.19	1992.45
542.395	2037.59
542.599	2092.62
542.804	2038.95
543.008	2036.82
543.213	2042.82
543.418	1981.99
543.622	2050.57
543.827	1962.22
544.031	2084.87
544.236	2094.75
544.44	2073.63
544.645	2142.41
544.849	2034.49
545.054	2084.09
545.258	2161.59
545.463	2110.25
545.667	2063.55
545.872	2074.98
546.076	2111.41
546.281	2087.58
546.485	2036.23
546.689	2076.53
546.894	2153.45
547.098	2118
547.302	2039.92
547.507	2057.74
547.711	2081.57
547.915	2119.35
548.119	2088.16
548.324	2063.94
548.528	2136.21
548.732	2087.19
548.936	2111.41
549.141	2092.03
549.345	2044.76
549.549	2097.27
549.753	2106.76
549.957	2185.03
550.161	2176.31
550.366	2099.01
550.57	2068.59
550.774	2097.27
550.978	2094.17
551.182	2142.6
551.386	2072.08
551.59	2059.68
551.794	2047.86
551.998	2161.98
552.202	2060.45
552.406	2071.3
552.61	2118.38
552.814	2090.48
553.018	2180.77
553.222	2068.01
553.426	2118.77
553.63	2191.04
553.833	2082.35
554.037	2038.95
554.241	2139.89
554.445	2158.49
554.649	2105.79
554.853	2056.58
555.056	2149.77
555.26	2148.41
555.464	2126.52
555.668	2122.06
555.871	2170.11
556.075	2150.74
556.279	2064.13
556.483	2052.32
556.686	2088.74
556.89	2073.05
557.094	2125.36
557.297	2042.05
557.501	2116.06
557.704	1965.13
557.908	2073.63
558.112	2007.56
558.315	2104.24
558.519	2046.12
558.722	2079.83
558.926	2027.32
559.129	1930.45
559.333	1945.37
559.536	1976.56
559.74	1964.74
559.943	1933.16
560.147	1911.46
560.35	1918.63
560.553	1925.02
560.757	1890.15
560.96	2034.1
561.164	1920.57
561.367	2025.97
561.57	1975.79
561.774	1986.25
561.977	1969.39
562.18	1956.02
562.384	2037.4
562.587	1922.51
562.79	1931.42
562.993	1923.67
563.197	1956.41
563.4	2019.19
563.603	2015.31
563.806	2077.89
564.009	1929.09
564.212	1970.75
564.416	1819.24
564.619	1930.26
564.822	1892.67
565.025	1946.92
565.228	1877.94
565.431	1934.52
565.634	1830.48
565.837	1835.9
566.04	1825.44
566.243	1857.99
566.446	1743.1
566.649	1858.96
566.852	1763.25
567.055	1804.32
567.258	1842.88
567.461	1889.76
567.664	1887.82
567.867	1769.25
568.07	1835.9
568.273	1818.08
568.475	1852.18
568.678	1777.58
568.881	1788.63
569.084	1767.12
569.287	1689.81
569.489	1698.73
569.692	1765.57
569.895	1762.47
570.098	1699.5
570.3	1669.28
570.503	1627.04
570.706	1681.1
570.909	1667.34
571.111	1600.69
571.314	1613.87
571.516	1643.9
571.719	1658.82
571.922	1641.38
572.124	1631.69
572.327	1672.18
572.529	1593.52
572.732	1638.86
572.935	1691.56
573.137	1729.34
573.34	1655.91
573.542	1668.12
573.745	1699.89
573.947	1691.17
574.15	1650.87
574.352	1645.25
574.554	1686.13
574.757	1609.6
574.959	1630.92
575.162	1597.98
575.364	1614.06
575.566	1706.28
575.769	1551.87
575.971	1616.97
576.173	1457.12
576.376	1564.07
576.578	1619.68
576.78	1676.64
576.982	1480.57
577.185	1562.72
577.387	1521.84
577.589	1487.54
577.791	1558.26
577.993	1577.83
578.196	1566.4
578.398	1541.99
578.6	1599.53
578.802	1499.75
579.004	1500.52
579.206	1477.08
579.408	1527.26
579.61	1476.69
579.812	1535.98
580.014	1485.99
580.216	1481.92
580.418	1510.79
580.62	1490.45
580.822	1484.06
581.024	1506.34
581.226	1502.27
581.428	1501.49
581.63	1561.36
581.832	1461.58
582.034	1533.07
582.236	1490.64
582.438	1510.4
582.64	1549.93
582.841	1571.44
583.043	1604.76
583.245	1557.49
583.447	1538.5
583.649	1498.97
583.85	1521.45
584.052	1520.87
584.254	1456.35
584.456	1553.8
584.657	1476.31
584.859	1517.96
585.061	1483.28
585.262	1461.97
585.464	1419.34
585.666	1510.4
585.867	1459.06
586.069	1488.9
586.27	1446.27
586.472	1434.84
586.674	1441.04
586.875	1404.04
587.077	1423.99
587.278	1475.53
587.48	1427.48
587.681	1504.21
587.883	1481.92
588.084	1361.8
588.285	1411.79
588.487	1420.51
588.688	1430
588.89	1349.21
589.091	1338.16
589.292	1315.69
589.494	1311.81
589.695	1260.28
589.896	1206.22
590.098	1234.7
590.299	1276.36
590.5	1223.27
590.702	1269
590.903	1294.18
591.104	1363.16
591.305	1317.24
591.507	1362.19
591.708	1321.89
591.909	1313.17
592.11	1366.06
592.311	1337.97
592.512	1332.55
592.714	1262.8
592.915	1268.61
593.116	1269.96
593.317	1325.18
593.518	1313.17
593.719	1302.13
593.92	1335.64
594.121	1350.56
594.322	1317.43
594.523	1333.51
594.724	1260.47
594.925	1306.78
595.126	1329.06
595.327	1336.23
595.528	1336.23
595.729	1305.42
595.929	1323.25
596.13	1325.57
596.331	1308.52
596.532	1327.31
596.733	1372.84
596.934	1357.93
597.135	1354.24
597.335	1337
597.536	1265.51
597.737	1328.48
597.938	1331.58
598.138	1323.05
598.339	1328.86
598.54	1313.56
598.74	1286.82
598.941	1330.61
599.142	1364.71
599.342	1311.62
599.543	1287.98
599.744	1301.55
599.944	1326.54
600.145	1290.11
600.345	1306.2
600.546	1392.61
600.746	1323.44
600.947	1426.32
601.147	1321.89
601.348	1347.27
601.548	1294.96
601.749	1336.42
601.949	1260.86
602.15	1267.45
602.35	1258.34
602.551	1322.86
602.751	1261.44
602.951	1255.05
603.152	1186.46
603.352	1277.52
603.552	1269.58
603.753	1329.25
603.953	1311.04
604.153	1295.15
604.354	1274.42
604.554	1282.95
604.754	1332.35
604.954	1235.28
605.155	1293.21
605.355	1283.91
605.555	1341.84
605.755	1313.95
605.955	1304.06
606.155	1294.18
606.356	1286.63
606.556	1309.88
606.756	1281.01
606.956	1224.63
607.156	1341.07
607.356	1225.98
607.556	1287.4
607.756	1274.42
607.956	1304.65
608.156	1294.57
608.356	1215.91
608.556	1302.13
608.756	1250.01
608.956	1218.23
609.156	1241.68
609.356	1227.34
609.556	1203.12
609.755	1256.4
609.955	1207.58
610.155	1226.76
610.355	1235.09
610.555	1210.29
610.755	1210.1
610.954	1164.95
611.154	1204.48
611.354	1254.08
611.554	1184.52
611.753	1213
611.953	1176.19
612.153	1213.39
612.352	1209.13
612.552	1146.55
612.752	1171.15
612.951	1201.57
613.151	1182
613.351	1138.22
613.55	1183.55
613.75	1219.78
613.949	1168.44
614.149	1183.17
614.348	1180.07
614.548	1136.67
614.747	1073.89
614.947	1140.93
615.146	1096.75
615.346	1191.3
615.545	1165.34
615.745	1165.15
615.944	1194.98
616.144	1153.72
616.343	1178.52
616.542	1104.31
616.742	1136.67
616.941	1119.81
617.14	1051.81
617.34	1125.62
617.539	1143.06
617.738	1087.07
617.938	1211.26
618.137	1106.25
618.336	1078.15
618.535	1149.84
618.734	1119.04
618.934	1118.07
619.133	1109.15
619.332	1156.04
619.531	1062.27
619.73	1112.64
619.929	1162.63
620.128	1123.69
620.328	1134.54
620.527	1062.27
620.726	1101.99
620.925	1113.8
621.124	1121.94
621.323	1108.19
621.522	1053.94
621.721	1074.86
621.92	1070.79
622.119	1099.08
622.318	1042.12
622.517	1060.33
622.715	1083.19
622.914	1010.92
623.113	1066.14
623.312	988.64
623.511	1065.37
623.71	1062.07
623.909	1025.84
624.107	1111.09
624.306	1002.98
624.505	996.97
624.704	1028.36
624.902	1018.09
625.101	1101.02
625.3	1039.6
625.499	1003.76
625.697	1019.26
625.896	995.42
626.095	1033.79
626.293	977.99
626.492	993.49
626.69	1025.26
626.889	1010.34
627.088	1053.36
627.286	968.69
627.485	1001.04
627.683	1006.08
627.882	1045.41
628.08	957.06
628.279	1013.44
628.477	1066.92
628.676	943.5
628.874	1015.57
629.073	991.94
629.271	963.07
629.469	1028.75
629.668	981.67
629.866	971.98
630.065	956.48
630.263	1004.92
630.461	951.64
630.66	981.48
630.858	1014.61
631.056	1023.13
631.254	1033.4
631.453	941.18
631.651	1009.18
631.849	969.27
632.047	957.64
632.245	957.64
632.444	971.79
632.642	1009.57
632.84	987.67
633.038	978.18
633.236	945.05
633.434	944.28
633.632	944.28
633.83	964.23
634.028	974.89
634.227	944.47
634.425	1015.57
634.623	966.17
634.821	985.74
635.019	955.13
635.216	949.51
635.414	1013.64
635.612	954.93
635.81	943.89
636.008	1041.73
636.206	974.5
636.404	997.36
636.602	908.43
636.8	935.75
636.997	1003.76
637.195	992.71
637.393	943.89
637.591	1027.59
637.789	947.96
637.986	945.44
638.184	952.8
638.382	1030.88
638.58	1000.85
638.777	1053.94
638.975	927.61
639.173	945.83
639.37	934.39
639.568	961.91
639.765	1006.86
639.963	927.23
640.161	1017.51
640.358	1006.27
640.556	905.53
640.753	888.67
640.951	908.82
641.148	954.93
641.346	919.48
641.543	929.94
641.741	943.69
641.938	892.35
642.136	922.58
642.333	885.57
642.531	931.29
642.728	975.86
642.925	942.92
643.123	915.79
643.32	948.54
643.517	920.06
643.715	903.2
643.912	882.66
644.109	950.86
644.306	919.48
644.504	860.96
644.701	908.24
644.898	921.22
645.095	850.11
645.293	886.93
645.49	955.9
645.687	896.23
645.884	948.54
646.081	858.83
646.278	852.25
646.475	889.83
646.672	854.57
646.87	887.7
647.067	868.33
647.264	876.66
647.461	848.37
647.658	833.45
647.855	887.12
648.052	844.3
648.249	802.26
648.446	848.18
648.642	853.8
648.839	808.46
649.036	828.22
649.233	761.77
649.43	805.75
649.627	787.92
649.824	793.54
650.021	797.22
650.217	781.72
650.414	813.69
650.611	818.73
650.808	853.21
651.004	861.55
651.201	846.63
651.398	863.29
651.595	829.77
651.791	787.34
651.988	868.91
652.185	809.23
652.381	852.05
652.578	771.07
652.775	847.4
652.971	804
653.168	823.96
653.364	845.85
653.561	734.25
653.757	768.16
653.954	829.77
654.15	781.33
654.347	858.45
654.543	813.88
654.74	758.86
654.936	789.67
655.133	762.54
655.329	816.4
655.525	793.73
655.722	841.78
655.918	763.51
656.115	785.98
656.311	712.17
656.507	656.56
656.704	612.39
656.9	683.49
657.096	680
657.292	662.37
657.489	778.04
657.685	715.46
657.881	732.12
658.077	723.6
658.273	737.35
658.47	816.4
658.666	765.06
658.862	787.53
659.058	751.11
659.254	814.46
659.45	754.79
659.646	791.99
659.842	763.7
660.038	840.81
660.234	736.58
660.43	795.28
660.626	830.35
660.822	798
661.018	838.68
661.214	803.42
661.41	744.33
661.606	793.73
661.802	816.98
661.998	780.75
662.194	729.8
662.39	803.23
662.586	833.06
662.781	845.85
662.977	818.53
663.173	799.74
663.369	792.77
663.564	800.52
663.76	805.17
663.956	755.95
664.152	817.76
664.347	703.06
664.543	765.83
664.739	757.5
664.934	740.65
665.13	711
665.326	782.5
665.521	772.62
665.717	724.18
665.912	755.37
666.108	709.26
666.304	744.52
666.499	764.67
666.695	695.5
666.89	780.17
667.086	755.18
667.281	755.18
667.477	831.32
667.672	753.43
667.867	754.02
668.063	775.13
668.258	717.4
668.454	749.75
668.649	837.33
668.844	751.3
669.04	772.62
669.235	754.21
669.43	721.08
669.626	678.45
669.821	740.45
670.016	713.91
670.211	745.3
670.407	682.72
670.602	791.99
670.797	735.22
670.992	767.58
671.187	736.38
671.382	785.02
671.578	705.77
671.773	768.93
671.968	662.57
672.163	737.55
672.358	777.85
672.553	692.21
672.748	722.05
672.943	768.74
673.138	728.83
673.333	758.47
673.528	686.59
673.723	744.13
673.918	730.96
674.113	680.78
674.308	803.62
674.503	732.32
674.698	752.66
674.892	755.18
675.087	719.72
675.282	767.77
675.477	728.05
675.672	795.87
675.867	724.95
676.061	680.2
676.256	698.02
676.451	699.19
676.646	736.77
676.84	695.12
677.035	662.37
677.23	683.1
677.424	733.48
677.619	763.9
677.814	791.02
678.008	754.4
678.203	673.22
678.397	680.2
678.592	712.55
678.787	784.24
678.981	720.3
679.176	736
679.37	734.64
679.565	667.02
679.759	706.94
679.954	766.8
680.148	797.03
680.342	769.9
680.537	724.95
680.731	712.55
680.926	739.87
681.12	773
681.314	725.92
681.509	722.63
681.703	734.83
681.897	750.33
682.092	713.33
682.286	700.74
682.48	785.98
682.674	729.41
682.869	726.31
683.063	717.98
683.257	798.58
683.451	675.35
683.645	719.34
683.839	702.48
684.034	734.45
684.228	739.87
684.422	666.83
684.616	661.79
684.81	732.12
685.004	717.79
685.198	681.94
685.392	765.06
685.586	691.24
685.78	703.25
685.974	737.35
686.168	754.21
686.362	766.22
686.556	683.3
686.75	632.54
686.944	659.08
687.138	677.1
687.331	586.62
687.525	604.83
687.719	561.82
687.913	621.49
688.107	620.91
688.301	568.79
688.494	634.47
688.688	585.26
688.882	553.68
689.076	560.85
689.269	583.13
689.463	699.57
689.657	620.14
689.85	554.84
690.044	619.36
690.238	616.84
690.431	636.22
690.625	586.62
690.818	636.99
691.012	643
691.205	658.3
691.399	603.47
691.593	649
691.786	699.57
691.98	689.69
692.173	716.62
692.366	654.82
692.56	703.84
692.753	731.15
692.947	648.81
693.14	720.88
693.333	721.27
693.527	661.4
693.72	709.45
693.914	695.31
694.107	691.44
694.3	675.94
694.493	677.29
694.687	742.97
694.88	656.37
695.073	739.1
695.266	732.32
695.46	730.96
695.653	764.48
695.846	744.72
696.039	645.9
696.232	734.64
696.425	773.78
696.618	793.93
696.812	745.49
697.005	816.79
697.198	898.16
697.391	801.48
697.584	821.44
697.777	906.69
697.97	848.18
698.163	872.4
698.356	878.01
698.549	973.34
698.742	926.45
698.935	843.72
699.127	933.43
699.32	837.33
699.513	875.69
699.706	918.31
699.899	915.99
700.092	907.66
700.285	955.13
700.477	878.6
700.67	968.49
700.863	966.94
701.056	1080.48
701.248	1033.98
701.441	1042.89
701.634	999.69
701.826	1103.73
702.019	996.01
702.212	1046.19
702.404	1040.76
702.597	996.78
702.79	1099.47
702.982	1107.02
703.175	1115.94
703.367	1137.05
703.56	1150.62
703.752	1258.53
703.945	1200.22
704.137	1211.07
704.33	1232.18
704.522	1248.26
704.715	1259.31
704.907	1280.81
705.1	1289.15
705.292	1326.15
705.484	1286.63
705.677	1370.33
705.869	1387.57
706.061	1392.8
706.254	1439.69
706.446	1401.71
706.638	1393.38
706.831	1471.46
707.023	1446.08
707.215	1532.3
707.407	1499.17
707.599	1529.2
707.792	1575.5
707.984	1555.16
708.176	1571.44
708.368	1555.94
708.56	1607.08
708.752	1604.76
708.944	1570.47
709.136	1643.32
709.329	1603.02
709.521	1733.21
709.713	1757.82
709.905	1750.65
710.097	1758.79
710.289	1745.03
710.481	1742.32
710.672	1789.01
710.864	1813.43
711.056	1899.26
711.248	1846.36
711.44	1885.89
711.632	1855.66
711.824	1893.64
712.016	1933.94
712.207	1930.06
712.399	1934.91
712.591	2037.01
712.783	2010.08
712.975	2072.85
713.166	2022.29
713.358	2035.85
713.55	2048.25
713.741	2091.07
713.933	2099.4
714.125	2127.49
714.316	2099.98
714.508	2176.7
714.7	2242.38
714.891	2187.55
715.083	2287.33
715.274	2215.45
715.466	2225.14
715.657	2301.86
715.849	2181.16
716.04	2250.71
716.232	2237.93
716.423	2287.91
716.615	2225.33
716.806	2218.94
716.998	2195.11
717.189	2104.24
717.381	2045.73
717.572	2054.45
717.763	2116.45
717.955	2078.08
718.146	2032.55
718.337	1963
718.528	1971.33
718.72	1916.11
718.911	1982.37
719.102	1929.09
719.293	1990.12
719.485	1981.21
719.676	1948.08
719.867	1906.04
720.058	1964.94
720.249	1975.59
720.44	1985.28
720.632	2044.76
720.823	2056.77
721.014	2184.84
721.205	2219.91
721.396	2302.44
721.587	2398.35
721.778	2449.11
721.969	2475.27
722.16	2490.38
722.351	2502.39
722.542	2644.02
722.733	2689.16
722.924	2633.75
723.115	2681.99
723.305	2674.24
723.496	2669.59
723.687	2529.71
723.878	2576.6
724.069	2589
724.26	2611.47
724.45	2518.47
724.641	2503.17
724.832	2563.42
725.023	2534.55
725.213	2553.35
725.404	2570.01
725.595	2573.5
725.785	2564.58
725.976	2658.16
726.167	2642.47
726.357	2643.44
726.548	2739.54
726.739	2667.08
726.929	2763.76
727.12	2809.09
727.31	2823.82
727.501	2751.94
727.691	2773.64
727.882	2803.28
728.072	2867.22
728.263	2789.33
728.453	2898.6
728.644	2931.54
728.834	2858.89
729.024	2840.87
729.215	2864.31
729.405	2894.54
729.596	2966.8
729.786	3001.48
729.976	3005.94
730.167	3063.48
730.357	2969.9
730.547	3020.86
730.737	3111.34
730.928	3090.61
731.118	3168.49
731.308	3119.67
731.498	3114.24
731.688	3181.28
731.879	3189.81
732.069	3274.47
732.259	3276.99
732.449	3294.43
732.639	3404.28
732.829	3414.75
733.019	3433.54
733.209	3498.06
733.399	3508.33
733.589	3583.31
733.779	3636.39
733.969	3603.07
734.159	3686.57
734.349	3693.16
734.539	3824.52
734.729	3789.26
734.919	3812.9
735.109	3876.83
735.299	3819.68
735.488	3854.36
735.678	3832.08
735.868	3888.26
736.058	3797.59
736.248	3838.08
736.437	3809.6
736.627	3818.52
736.817	3948.33
737.007	3869.08
737.196	3904.93
737.386	3900.28
737.576	3882.26
737.765	3997.34
737.955	3932.05
738.144	4114.37
738.334	4045.39
738.524	3959.76
738.713	3980.29
738.903	4006.06
739.092	4044.04
739.282	4015.75
739.471	4028.34
739.661	4049.85
739.85	4115.14
740.04	4113.4
740.229	4072.91
740.419	4179.08
740.608	4185.47
740.797	4130.45
740.987	4195.35
741.176	4201.17
741.365	4157.57
741.555	4061.09
741.744	4200.97
741.933	4143.43
742.123	4218.02
742.312	4257.16
742.501	4256
742.69	4296.88
742.88	4143.62
743.069	4346.86
743.258	4243.02
743.447	4311.6
743.636	4287.97
743.825	4287.77
744.014	4329.04
744.204	4391.04
744.393	4236.04
744.582	4369.15
744.771	4365.66
744.96	4343.38
745.149	4338.53
745.338	4361.2
745.527	4357.91
745.716	4328.65
745.905	4326.33
746.094	4419.71
746.283	4416.03
746.471	4367.98
746.66	4419.71
746.849	4410.8
747.038	4493.14
747.227	4408.09
747.416	4397.43
747.604	4366.63
747.793	4381.93
747.982	4423.59
748.171	4456.33
748.359	4431.14
748.548	4472.41
748.737	4434.83
748.926	4414.29
749.114	4316.45
749.303	4410.99
749.491	4435.99
749.68	4299.2
749.869	4429.79
750.057	4388.52
750.246	4379.03
750.434	4403.83
750.623	4401.89
750.811	4379.61
751	4434.44
751.188	4381.93
751.377	4366.43
751.565	4336.4
751.754	4342.21
751.942	4312.38
752.131	4379.8
752.319	4342.6
752.507	4303.27
752.696	4365.66
752.884	4367.01
753.072	4313.93
753.261	4329.43
753.449	4380.58
753.637	4296.3
753.825	4365.46
754.014	4334.08
754.202	4361.59
754.39	4450.52
754.578	4399.37
754.766	4316.25
754.955	4273.63
755.143	4393.56
755.331	4310.83
755.519	4316.83
755.707	4293.58
755.895	4294.17
756.083	4341.44
756.271	4237.01
756.459	4280.8
756.647	4324.78
756.835	4239.53
757.023	4250.96
757.211	4258.9
757.399	4250.77
757.587	4232.36
757.775	4126.77
757.963	4199.81
758.151	4230.03
758.339	4192.64
758.526	4196.9
758.714	4203.49
758.902	4090.92
759.09	4037.64
759.278	3854.17
759.465	3634.46
759.653	3225.07
759.841	2998.58
760.028	2652.93
760.216	2310.19
760.404	2186.78
760.591	1872.71
760.779	1645.06
760.967	1491.03
761.154	1283.91
761.342	1355.6
761.529	1349.79
761.717	1424.57
761.905	1454.8
762.092	1549.93
762.28	1540.05
762.467	1548.19
762.655	1502.27
762.842	1547.99
763.029	1577.44
763.217	1611.35
763.404	1592.94
763.592	1651.65
763.779	1574.54
763.966	1663.27
764.154	1702.41
764.341	1781.84
764.528	1800.83
764.716	1872.32
764.903	1917.66
765.09	1995.16
765.277	2007.17
765.465	2225.91
765.652	2271.06
765.839	2336.35
766.026	2466.55
766.213	2534.94
766.4	2622.71
766.588	2795.92
766.775	2877.29
766.962	2908.1
767.149	3027.06
767.336	3130.52
767.523	3099.33
767.71	3230.11
767.897	3345
768.084	3402.93
768.271	3419.01
768.458	3465.51
768.645	3527.51
768.832	3542.43
769.019	3571.1
769.206	3604.04
769.392	3644.53
769.579	3728.81
769.766	3702.65
769.953	3700.52
770.14	3770.47
770.327	3720.87
770.513	3790.62
770.7	3830.14
770.887	3743.92
771.073	3750.12
771.26	3798.56
771.447	3751.29
771.634	3721.06
771.82	3811.93
772.007	3710.6
772.193	3785.77
772.38	3816
772.567	3764.65
772.753	3773.37
772.94	3847.38
773.126	3817.93
773.313	3825.3
773.499	3759.81
773.686	3827.82
773.872	3759.04
774.059	3830.72
774.245	3771.44
774.432	3708.85
774.618	3630.77
774.804	3757.68
774.991	3698.2
775.177	3723
775.363	3691.61
775.55	3730.17
775.736	3648.41
775.922	3683.09
776.109	3694.52
776.295	3728.23
776.481	3709.05
776.667	3730.36
776.853	3675.14
777.04	3660.03
777.226	3671.46
777.412	3687.16
777.598	3592.61
777.784	3619.54
777.97	3584.47
778.156	3684.06
778.342	3617.21
778.528	3652.86
778.715	3530.99
778.901	3563.35
779.087	3592.41
779.272	3601.52
779.458	3533.13
779.644	3595.13
779.83	3547.08
780.016	3642.21
780.202	3546.49
780.388	3497.28
780.574	3439.16
780.76	3509.1
780.946	3528.67
781.131	3496.31
781.317	3508.13
781.503	3482.17
781.689	3483.72
781.874	3611.21
782.06	3474.03
782.246	3481.78
782.432	3458.53
782.617	3476.55
782.803	3529.06
782.989	3407.38
783.174	3422.5
783.36	3362.05
783.545	3412.42
783.731	3404.28
783.916	3312.64
784.102	3373.87
784.288	3369.22
784.473	3379.68
784.659	3318.65
784.844	3411.84
785.029	3308.96
785.215	3299.08
785.4	3258.39
785.586	3381.42
785.771	3244.83
785.956	3336.09
786.142	3274.86
786.327	3295.01
786.512	3280.67
786.698	3268.08
786.883	3179.92
787.068	3239.99
787.254	3210.73
787.439	3215.57
787.624	3238.44
787.809	3185.74
787.994	3151.44
788.18	3270.4
788.365	3126.26
788.55	3128.39
788.735	3171.59
788.92	3171.79
789.105	3163.46
789.29	3217.32
789.475	3121.8
789.66	3174.11
789.845	3096.61
790.03	3098.36
790.215	3158.23
790.4	3159.58
790.585	3138.46
790.77	3107.66
790.955	3014.46
791.14	3075.69
791.325	3153.19
791.51	2985.79
791.695	3058.25
791.879	3052.25
792.064	2997.22
792.249	3145.63
792.434	3010.4
792.618	3049.53
792.803	3077.63
792.988	3034.03
793.173	3069.68
793.357	3102.81
793.542	2993.54
793.727	3041.01
793.911	3064.65
794.096	3063.48
794.281	3061.74
794.465	3125.48
794.65	3075.11
794.834	3095.26
795.019	3116.18
795.203	3136.53
795.388	3112.31
795.572	3173.34
795.757	3137.69
795.941	3137.49
796.126	3131.29
796.31	3036.36
796.494	3099.71
796.679	3081.11
796.863	3078.21
797.048	3143.11
797.232	3108.63
797.416	3167.14
797.601	3081.69
797.785	3206.27
797.969	3154.54
798.153	3061.55
798.338	3179.73
798.522	3219.84
798.706	3180.31
798.89	3210.73
799.074	3266.72
799.258	3188.64
799.443	3149.7
799.627	3130.13
799.811	3195.81
799.995	3137.3
800.179	3147.18
800.363	3113.86
800.547	3126.26
800.731	3166.56
800.915	3025.31
801.099	3091.96
801.283	3114.05
801.467	3101.07
801.651	3094.09
801.835	3209.76
802.019	3111.92
802.202	3183.02
802.386	3078.98
802.57	3077.82
802.754	3091.38
802.938	3054.38
803.121	3080.73
803.305	3143.31
803.489	3119.28
803.673	3107.66
803.856	3135.94
804.04	3133.81
804.224	3133.04
804.407	3073.17
804.591	3109.59
804.775	3096.23
804.958	3126.64
805.142	3178.18
805.326	3118.51
805.509	3117.34
805.693	3157.64
805.876	3169.85
806.06	3110.18
806.243	3163.84
806.427	3174.31
806.61	3151.25
806.794	3101.46
806.977	3123.16
807.16	3114.63
807.344	3139.24
807.527	3091.77
807.71	3113.08
807.894	3111.34
808.077	3117.73
808.26	3039.85
808.444	3052.44
808.627	3127.81
808.81	3048.56
808.993	3046.63
809.177	2993.93
809.36	3009.23
809.543	3037.71
809.726	2958.67
809.909	2973.58
810.092	2903.06
810.276	2948.2
810.459	2939.87
810.642	2903.25
810.825	2867.22
811.008	2914.88
811.191	2814.71
811.374	2834.09
811.557	2798.24
811.74	2922.63
811.923	2756.39
812.106	2781.97
812.289	2764.53
812.472	2757.17
812.654	2781.19
812.837	2768.21
813.02	2730.43
813.203	2675.99
813.386	2551.6
813.569	2589.77
813.751	2514.6
813.934	2556.06
814.117	2510.92
814.3	2449.5
814.482	2410.36
814.665	2360.57
814.848	2329.37
815.03	2303.99
815.213	2314.07
815.396	2256.72
815.578	2229.01
815.761	2201.7
815.943	2281.91
816.126	2132.91
816.309	2118.97
816.491	2065.1
816.674	2013.18
816.856	2043.98
817.039	2080.22
817.221	2111.41
817.403	2066.27
817.586	2077.89
817.768	2115.28
817.951	2008.34
818.133	1980.44
818.315	2013.95
818.498	2046.89
818.68	2125.55
818.862	2088.74
819.045	2136.6
819.227	2115.09
819.409	2040.5
819.591	2089.71
819.774	2075.95
819.956	2045.73
820.138	2107.73
820.32	2109.08
820.502	2180.38
820.684	2241.41
820.866	2228.43
821.048	2310.39
821.231	2302.83
821.413	2253.23
821.595	2261.95
821.777	2278.61
821.959	2250.52
822.141	2321.04
822.323	2198.98
822.505	2116.06
822.686	2086.61
822.868	1977.14
823.05	1873.1
823.232	1846.17
823.414	1761.11
823.596	1846.94
823.778	1796.96
823.96	1874.65
824.141	1859.54
824.323	1880.85
824.505	1955.64
824.687	2026.74
824.868	2056.19
825.05	2182.32
825.232	2180
825.413	2248.39
825.595	2176.7
825.777	2136.21
825.958	2162.75
826.14	2157.91
826.321	2188.52
826.503	2149.96
826.685	2220.49
826.866	2208.28
827.048	2214.68
827.229	2143.18
827.411	2116.83
827.592	2078.86
827.773	2032.94
827.955	2032.17
828.136	2049.02
828.318	1976.56
828.499	2006.59
828.68	1997.49
828.862	1998.26
829.043	2038.37
829.224	1980.82
829.406	1947.3
829.587	1956.41
829.768	1955.05
829.949	1987.99
830.131	1964.16
830.312	2059.29
830.493	1962.03
830.674	2002.52
830.855	1948.47
831.036	1974.04
831.218	2032.75
831.399	2052.7
831.58	1973.46
831.761	1994.77
831.942	2013.37
832.123	1994.19
832.304	1938.97
832.485	1961.64
832.666	2014.73
832.847	2001.55
833.028	1955.05
833.209	1984.12
833.389	1947.5
833.57	1905.26
833.751	1909.14
833.932	1993.03
834.113	1929.09
834.294	1926.38
834.475	1990.7
834.655	2049.99
834.836	2027.13
835.017	1977.53
835.198	1939.56
835.378	2015.5
835.559	2026.55
835.74	1994.97
835.92	1990.12
836.101	1961.84
836.281	2068.98
836.462	1969.97
836.643	2026.35
836.823	2014.15
837.004	2032.94
837.184	2053.48
837.365	2031.97
837.545	2037.01
837.726	2027.71
837.906	2084.67
838.087	1999.81
838.267	2026.55
838.448	1972.1
838.628	1983.73
838.808	2005.43
838.989	2064.72
839.169	1970.94
839.349	2024.42
839.53	2040.88
839.71	2029.84
839.89	1970.75
840.07	2034.49
840.251	1986.05
840.431	2026.74
840.611	1999.04
840.791	1968.81
840.971	1998.65
841.151	1971.72
841.332	1951.18
841.512	2046.7
841.692	1937.81
841.872	1961.64
842.052	1953.89
842.232	1989.93
842.412	1917.66
842.592	1966.1
842.772	1971.14
842.952	1984.12
843.132	1940.33
843.312	1929.87
843.492	1846.36
843.672	1976.75
843.851	1876.2
844.031	1951.76
844.211	1911.66
844.391	1876.2
844.571	1896.74
844.751	1925.41
844.93	1911.85
845.11	1883.56
845.29	1883.56
845.47	1972.88
845.649	1895.19
845.829	1939.56
846.009	1874.65
846.188	1912.62
846.368	1938.97
846.547	1914.95
846.727	1934.71
846.907	1879.69
847.086	1885.89
847.266	1907.97
847.445	1897.12
847.625	1870.58
847.804	1868.84
847.984	1904.68
848.163	1854.69
848.343	1850.43
848.522	1886.86
848.701	1854.89
848.881	1855.08
849.06	1859.73
849.239	1873.68
849.419	1836.68
849.598	1762.08
849.777	1768.86
849.957	1753.36
850.136	1665.21
850.315	1673.93
850.494	1649.32
850.674	1680.71
850.853	1736.9
851.032	1746.2
851.211	1770.61
851.39	1728.37
851.569	1660.37
851.748	1694.27
851.927	1753.36
852.107	1742.71
852.286	1711.13
852.465	1668.7
852.644	1767.7
852.823	1739.22
853.002	1707.06
853.181	1697.95
853.359	1694.46
853.538	1675.67
853.717	1733.21
853.896	1606.31
854.075	1533.46
854.254	1517.57
854.433	1463.13
854.611	1475.72
854.79	1416.24
854.969	1471.46
855.148	1505.17
855.327	1499.36
855.505	1550.7
855.684	1512.54
855.863	1533.27
856.041	1550.7
856.22	1566.59
856.399	1563.88
856.577	1635.95
856.756	1621.62
856.934	1772.54
857.113	1756.66
857.291	1646.8
857.47	1622.97
857.648	1666.76
857.827	1646.03
858.005	1688.07
858.184	1614.64
858.362	1714.23
858.541	1648.93
858.719	1610.77
858.898	1627.43
859.076	1628.4
859.254	1708.03
859.433	1647.19
859.611	1597.01
859.789	1570.08
859.967	1616
860.146	1673.54
860.324	1564.85
860.502	1571.44
860.68	1559.81
860.859	1574.34
861.037	1563.49
861.215	1593.91
861.393	1581.9
861.571	1569.5
861.749	1543.15
861.927	1591.59
862.105	1572.79
862.283	1578.8
862.461	1547.02
862.639	1509.05
862.817	1521.84
862.995	1569.11
863.173	1523.39
863.351	1569.5
863.529	1558.26
863.707	1579.57
863.885	1583.25
864.063	1486.77
864.241	1496.07
864.418	1577.25
864.596	1527.07
864.774	1449.57
864.952	1510.79
865.129	1525.71
865.307	1447.63
865.485	1413.92
865.663	1514.47
865.84	1415.66
866.018	1448.02
866.196	1277.33
866.373	1310.26
866.551	1296.51
866.728	1221.53
866.906	1287.4
867.084	1315.69
867.261	1349.4
867.439	1355.21
867.616	1376.14
867.794	1363.16
867.971	1374.01
868.149	1405.78
868.326	1455.38
868.503	1427.29
868.681	1408.3
868.858	1359.67
869.035	1348.82
869.213	1399
869.39	1344.36
869.567	1452.47
869.745	1389.12
869.922	1413.34
870.099	1410.63
870.276	1425.35
870.454	1404.43
870.631	1390.48
870.808	1396.68
870.985	1422.44
871.162	1452.09
871.339	1401.33
871.517	1319.95
871.694	1363.54
871.871	1378.66
872.048	1349.98
872.225	1349.79
872.402	1333.32
872.579	1334.48
872.756	1351.34
872.933	1316.66
873.11	1323.83
873.287	1375.94
873.463	1321.31
873.64	1319.37
873.817	1333.13
873.994	1336.61
874.171	1289.92
874.348	1352.5
874.524	1268.41
874.701	1305.61
874.878	1258.15
875.055	1308.33
875.231	1313.75
875.408	1295.73
875.585	1215.13
875.762	1296.51
875.938	1294.18
876.115	1221.72
876.291	1254.85
876.468	1270.74
876.645	1227.34
876.821	1225.79
876.998	1217.46
877.174	1277.91
877.351	1245.55
877.527	1233.73
877.704	1233.35
877.88	1226.76
878.057	1216.88
878.233	1304.06
878.409	1235.48
878.586	1251.95
878.762	1226.76
878.938	1214.17
879.115	1166.12
879.291	1234.7
879.467	1163.6
879.644	1186.85
879.82	1243.62
879.996	1166.12
880.172	1153.52
880.349	1189.95
880.525	1228.7
880.701	1146.74
880.877	1132.6
881.053	1179.1
881.229	1168.44
881.405	1236.25
881.581	1156.43
881.757	1174.83
881.933	1182.97
882.109	1188.01
882.285	1214.36
882.461	1092.69
882.637	1150.81
882.813	1107.99
882.989	1149.26
883.165	1229.47
883.341	1124.85
883.517	1189.17
883.693	1186.27
883.869	1176.38
884.044	1145.19
884.22	1207
884.396	1220.17
884.572	1183.36
884.747	1212.62
884.923	1198.28
885.099	1226.57
885.275	1227.53
885.45	1138.41
885.626	1158.56
885.801	1126.4
885.977	1184.13
886.153	1117.29
886.328	1157.98
886.504	1105.28
886.679	1193.82
886.855	1125.82
887.03	1176.58
887.206	1172.51
887.381	1128.53
887.557	1200.02
887.732	1185.49
887.908	1166.31
888.083	1206.22
888.258	1145.19
888.434	1122.14
888.609	1179.87
888.784	1232.18
888.96	1146.94
889.135	1137.64
889.31	1137.64
889.485	1168.63
889.661	1161.85
889.836	1178.52
890.011	1148.87
890.186	1133.37
890.361	1131.82
890.537	1182.97
890.712	1171.54
890.887	1158.75
891.062	1171.93
891.237	1210.29
891.412	1103.54
891.587	1160.88
891.762	1186.46
891.937	1202.54
892.112	1104.89
892.287	1151.39
892.462	1104.12
892.637	1067.11
892.812	1043.67
892.987	1102.95
893.161	1070.79
893.336	1058.39
893.511	1087.65
893.686	1095.4
893.861	1084.74
894.035	1099.66
894.21	1080.29
894.385	1052.58
894.56	1081.84
894.734	992.32
894.909	1041.15
895.084	1021.97
895.258	998.14
895.433	1000.85
895.608	982.25
895.782	942.34
895.957	931.1
896.131	954.35
896.306	879.37
896.48	905.91
896.655	905.72
896.829	827.83
897.004	842.75
897.178	844.5
897.353	807.49
897.527	905.53
897.701	842.17
897.876	822.02
898.05	892.55
898.224	879.37
898.399	896.03
898.573	833.65
898.747	752.47
898.921	798.19
899.096	692.99
899.27	705.39
899.444	689.3
899.618	715.46
899.792	730.96
899.967	746.46
900.141	787.73
900.315	722.82
900.489	713.72
900.663	737.16
900.837	753.82
901.011	663.54
901.185	802.45
901.359	738.71
901.533	765.45
901.707	775.72
901.881	759.05
902.055	704.61
902.229	714.3
902.403	788.7
902.576	769.9
902.75	765.64
902.924	889.06
903.098	823.76
903.272	830.55
903.446	891
903.619	854.57
903.793	857.86
903.967	856.31
904.14	935.94
904.314	917.54
904.488	885.38
904.661	921.22
904.835	895.06
905.009	935.36
905.182	948.73
905.356	919.67
905.529	888.28
905.703	866.39
905.876	857.67
906.05	851.28
906.223	832.68
906.397	740.84
906.57	778.82
906.744	748.01
906.917	746.46
907.09	764.48
907.264	755.76
907.437	712.55
907.61	649.39
907.784	707.13
907.957	714.69
908.13	675.94
908.304	736.38
908.477	642.22
908.65	676.32
908.823	615.1
908.996	731.73
909.17	656.75
909.343	656.75
909.516	700.54
909.689	651.52
909.862	645.13
910.035	644.16
910.208	645.13
910.381	628.66
910.554	731.15
910.727	644.74
910.9	636.02
911.073	609.67
911.246	691.63
911.419	712.36
911.592	713.33
911.765	635.44
911.938	644.35
912.11	648.23
912.283	657.34
912.456	707.71
912.629	653.85
912.802	639.12
912.974	650.94
913.147	575.38
913.32	495.17
913.493	556.78
913.665	549.61
913.838	559.49
914.01	557.17
914.183	600.96
914.356	566.47
914.528	613.16
914.701	658.5
914.873	628.47
915.046	574.02
915.218	557.75
915.391	481.61
915.563	498.08
915.736	564.14
915.908	573.25
916.081	548.64
916.253	563.37
916.425	577.71
916.598	612
916.77	581.97
916.942	525.39
917.115	482.38
917.287	562.01
917.459	548.26
917.632	481.03
917.804	437.24
917.976	553.68
918.148	512.8
918.32	528.11
918.493	571.89
918.665	594.95
918.837	536.44
919.009	611.22
919.181	632.15
919.353	567.82
919.525	586.62
919.697	580.42
919.869	587.78
920.041	636.8
920.213	661.79
920.385	621.11
920.557	577.12
920.729	629.44
920.901	593.59
921.073	605.61
921.244	556.59
921.416	624.98
921.588	577.9
921.76	542.64
921.932	625.17
922.103	558.72
922.275	586.42
922.447	605.02
922.619	512.99
922.79	558.72
922.962	560.85
923.134	572.86
923.305	514.54
923.477	475.02
923.648	509.51
923.82	509.12
923.991	469.01
924.163	441.5
924.335	495.75
924.506	465.72
924.677	571.31
924.849	475.79
925.02	504.28
925.192	527.91
925.363	502.14
925.535	513.96
925.706	466.11
925.877	522.29
926.049	472.11
926.22	498.08
926.391	524.04
926.562	537.02
926.734	519
926.905	515.71
927.076	450.41
927.247	466.11
927.419	435.88
927.59	432.2
927.761	433.95
927.932	406.43
928.103	470.37
928.274	392.48
928.445	382.21
928.616	395.2
928.787	372.33
928.958	396.94
929.129	407.79
929.3	405.08
929.471	349.08
929.642	281.08
929.813	241.55
929.984	361.48
930.155	243.69
930.326	296.38
930.496	280.69
930.667	199.9
930.838	264.22
931.009	228.96
931.18	238.07
931.35	223.34
931.521	241.17
931.692	167.54
931.863	151.07
932.033	182.27
932.204	200.29
932.374	202.8
932.545	130.73
932.716	207.45
932.886	206.87
933.057	87.14
933.227	104.19
933.398	231.09
933.568	97.02
933.739	76.48
933.909	65.83
934.08	124.72
934.25	50.71
934.421	59.82
934.591	97.02
934.761	98.38
934.932	21.26
935.102	118.91
935.272	86.75
935.443	68.34
935.613	72.41
935.783	93.92
935.953	51.49
936.123	248.34
936.294	51.68
936.464	82.49
936.634	97.6
936.804	64.66
936.974	27.85
937.144	98.76
937.314	105.35
937.484	66.6
937.655	32.89
937.825	146.42
937.995	49.55
938.165	104.19
938.334	74.35
938.504	103.99
938.674	68.54
938.844	114.65
939.014	185.37
939.184	176.65
939.354	212.49
939.524	191.76
939.694	149.14
939.863	131.89
940.033	231.87
940.203	228.38
940.373	167.93
940.542	181.3
940.712	150.88
940.882	191.96
941.051	204.74
941.221	179.56
941.391	190.79
941.56	144.29
941.73	145.84
941.899	237.29
942.069	138.87
942.238	175.87
942.408	133.06
942.577	175.29
942.747	142.36
942.916	98.18
943.086	126.66
943.255	187.11
943.425	137.71
943.594	81.91
943.763	78.23
943.933	96.83
944.102	46.64
944.271	101.09
944.441	128.02
944.61	105.16
944.779	117.75
944.948	212.1
945.117	83.07
945.287	92.37
945.456	53.23
945.625	107.87
945.794	100.12
945.963	70.86
946.132	144.68
946.301	92.76
946.47	160.76
946.639	39.67
946.808	102.64
946.977	113.87
947.146	151.66
947.315	106.9
947.484	138.09
947.653	104.96
947.822	93.14
947.991	83.46
948.16	170.45
948.329	159.41
948.498	91.59
948.666	126.47
948.835	121.82
949.004	61.18
949.173	70.28
949.341	124.53
949.51	124.53
949.679	130.92
949.847	119.11
950.016	200.48
950.185	152.43
950.353	96.24
950.522	108.06
950.69	181.88
950.859	105.16
951.028	161.34
951.196	133.25
951.365	91.79
951.533	92.95
951.701	144.29
951.87	138.87
952.038	61.37
952.207	106.71
952.375	150.3
952.543	109.03
952.712	101.86
952.88	78.81
953.048	167.54
953.217	130.15
953.385	106.51
953.553	143.91
953.721	65.24
953.89	142.94
954.058	39.28
954.226	70.86
954.394	110.19
954.562	47.03
954.73	87.53
954.898	94.5
955.067	138.29
955.235	99.15
955.403	120.85
955.571	175.1
955.739	115.04
955.907	72.22
956.075	79.78
956.243	84.23
956.41	134.02
956.578	66.6
956.746	53.62
956.914	79.97
957.082	107.29
957.25	134.99
957.418	54.2
957.585	83.07
957.753	158.63
957.921	79.78
958.089	103.41
958.256	138.48
958.424	147.01
958.592	111.55
958.759	70.86
958.927	133.44
959.095	93.14
959.262	95.86
959.43	86.56
959.597	92.95
959.765	90.04
959.932	60.79
960.1	128.21
960.267	95.08
960.435	72.22
960.602	128.21
960.77	81.91
960.937	71.06
961.104	96.83
961.272	68.93
961.439	57.11
961.606	148.56
961.774	131.7
961.941	93.92
962.108	106.9
962.275	130.34
962.443	161.54
962.61	138.09
962.777	178.2
962.944	143.32
963.111	119.11
963.278	120.07
963.446	102.06
963.613	143.71
963.78	123.76
963.947	121.43
964.114	118.14
964.281	193.51
964.448	148.94
964.615	100.51
964.782	128.02
964.949	146.04
965.116	141.58
965.282	172.77
965.449	108.64
965.616	90.43
965.783	153.4
965.95	130.15
966.117	97.6
966.283	103.41
966.45	123.95
966.617	109.03
966.784	171.03
966.95	165.22
967.117	154.17
967.284	89.46
967.45	120.85
967.617	188.86
967.784	162.89
967.95	188.47
968.117	117.56
968.283	177.81
968.45	231.48
968.616	174.71
968.783	177.23
968.949	147.59
969.116	171.61
969.282	107.48
969.449	150.11
969.615	150.69
969.781	96.05
969.948	140.42
970.114	101.67
970.28	192.54
970.447	135.57
970.613	184.79
970.779	122.01
970.945	151.85
971.112	151.46
971.278	136.74
971.444	149.14
971.61	166.19
971.776	121.04
971.942	175.49
972.108	173.36
972.275	125.5
972.441	159.21
972.607	177.42
972.773	101.67
972.939	143.13
973.105	127.82
973.271	96.63
973.437	104.58
973.602	105.16
973.768	144.87
973.934	133.83
974.1	141
974.266	53.04
974.432	117.17
974.598	96.63
974.763	137.32
974.929	128.79
975.095	153.59
975.261	88.49
975.426	83.26
975.592	115.23
975.758	186.72
975.923	41.03
976.089	103.99
976.255	123.17
976.42	122.4
976.586	149.14
976.751	144.29
976.917	214.82
977.082	150.69
977.248	69.7
977.413	27.85
977.579	101.09
977.744	92.95
977.91	88.49
978.075	99.34
978.24	144.49
978.406	131.7
978.571	106.32
978.736	93.92
978.902	135.38
979.067	85.2
979.232	55.94
979.397	113.49
979.563	177.23
979.728	71.83
979.893	108.26
980.058	80.74
980.223	141
980.388	116.97
980.554	128.6
980.719	58.66
980.884	116.97
981.049	146.81
981.214	128.79
981.379	128.02
981.544	98.38
981.709	111.16
981.874	100.89
982.039	129.76
982.204	151.27
982.368	104.58
982.533	94.11
982.698	146.81
982.863	153.21
983.028	87.53
983.193	129.37
983.357	128.41
983.522	75.9
983.687	97.02
983.852	104.96
984.016	96.44
984.181	124.34
984.346	124.34
984.51	112.91
984.675	111.74
984.839	153.59
985.004	130.15
985.168	139.64
985.333	111.94
985.498	82.29
985.662	134.22
985.827	131.7
985.991	104.58
986.155	105.16
986.32	113.87
986.484	168.12
986.649	110.97
986.813	60.98
986.977	123.37
987.142	120.27
987.306	57.69
987.47	64.28
987.634	113.29
987.799	104.58
987.963	131.12
988.127	101.48
988.291	152.24
988.455	110.39
988.62	106.9
988.784	110.97
988.948	152.24
989.112	58.08
989.276	126.86
989.44	109.81
989.604	83.26
989.768	98.96
989.932	158.24
990.096	75.71
990.26	83.07
990.424	49.16
990.588	105.74
990.752	169.87
990.915	117.36
991.079	90.63
991.243	77.64
991.407	114.84
991.571	96.83
991.734	109.61
991.898	95.86
992.062	148.36
992.226	109.03
992.389	61.18
992.553	54.78
992.717	99.73
992.88	71.06
993.044	109.22
993.207	106.32
993.371	122.59
993.535	93.14
993.698	95.66
993.862	127.63
994.025	125.11
994.189	81.71
994.352	98.57
994.515	110.58
994.679	104.77
994.842	78.42
995.006	108.45
995.169	56.72
995.332	62.73
995.496	109.81
995.659	45.48
995.822	79.78
995.985	85.2
996.149	138.29
996.312	91.59
996.475	146.81
996.638	54.59
996.801	133.83
996.964	159.79
997.128	92.56
997.291	83.26
997.454	86.17
997.617	40.25
997.78	123.76
997.943	54.39
998.106	102.25
998.269	29.79
998.432	65.24
998.595	54.2
998.758	41.22
998.92	23.2
999.083	17.78
999.246	77.64
999.409	21.07
999.572	41.8
999.735	45.29
999.897	75.13
1000.06	41.22
1000.223	69.51
1000.386	83.46
1000.548	91.01
1000.711	84.23
1000.874	108.06
1001.036	8.28
1001.199	131.12
1001.361	38.7
1001.524	76.87
1001.687	109.03
1001.849	44.51
1002.012	75.32
1002.174	72.61
1002.337	80.16
1002.499	72.8
1002.661	116.39
1002.824	36.18
1002.986	55.75
1003.149	72.99
1003.311	5.38
1003.473	144.1
1003.636	47.23
1003.798	70.48
1003.96	102.64
1004.123	49.94
1004.285	25.72
1004.447	53.04
1004.609	75.13
1004.771	116.78
1004.933	17.58
1005.096	14.1
1005.258	-1.02
1005.42	33.08
1005.582	101.28
1005.744	52.84
1005.906	21.07
1006.068	52.65
1006.23	28.43
1006.392	-17.49
1006.554	24.17
1006.716	87.72
1006.878	75.9
1007.04	-3.73
1007.202	26.3
1007.363	65.63
1007.525	66.41
1007.687	73.38
1007.849	80.16
1008.011	6.73
1008.172	-2.57
1008.334	35.41
1008.496	64.66
1008.658	-0.44
1008.819	8.28
1008.981	36.57
1009.143	40.06
1009.304	37.73
1009.466	84.62
1009.627	100.31
1009.789	153.21
1009.95	72.8
1010.112	30.95
1010.273	62.53
1010.435	20.3
1010.596	41.22
1010.758	47.61
1010.919	27.46
1011.081	-4.5
1011.242	17
1011.403	57.3
1011.565	21.84
1011.726	71.06
1011.887	23.98
1012.049	23.59
1012.21	78.61
1012.371	90.04
1012.532	-31.05
1012.693	41.03
1012.855	12.55
1013.016	38.89
1013.177	108.84
1013.338	17.97
1013.499	98.38
1013.66	45.87
1013.821	90.43
1013.982	51.49
1014.143	47.23
1014.304	22.43
1014.465	39.86
1014.626	73.38
1014.787	41.22
1014.948	160.18
1015.109	-46.74
1015.27	102.64
1015.431	0.92
1015.592	7.7
1015.752	93.73
1015.913	34.44
1016.074	64.08
1016.235	59.82
1016.395	55.94
1016.556	42.19
1016.717	34.63
1016.877	60.59
1017.038	5.38
1017.199	34.44
1017.359	33.86
1017.52	37.34
1017.681	22.81
1017.841	31.73
1018.002	16.81
1018.162	10.03
1018.323	104.19
1018.483	15.06
1018.644	25.33
1018.804	16.23
1018.964	-22.33
1019.125	20.88
1019.285	44.71
1019.446	27.46
1019.606	4.21
1019.766	-48.1
1019.926	62.34
1020.087	35.21
1020.247	-4.89
1020.407	39.67
1020.567	74.16
1020.728	-0.05
1020.888	-7.6
1021.048	6.54
1021.208	-15.74
1021.368	11.19
1021.528	80.36
1021.688	47.81
1021.848	43.16
1022.008	40.64
1022.168	-17.1
1022.328	49.36
1022.488	74.35
1022.648	8.48
1022.808	32.11
1022.968	48
1023.128	0.15
1023.288	23.59
1023.448	18.36
1023.608	31.14
1023.767	40.64
1023.927	-14.39
1024.087	-7.41
1024.247	-24.07
1024.406	0.92
1024.566	-6.25
1024.726	-15.16
1024.885	17
1025.045	34.83
1025.205	18.75
1025.364	8.86
1025.524	15.84
1025.683	14.68
1025.843	21.46
1026.003	23.39
1026.162	79.58
1026.321	47.61
1026.481	18.75
1026.64	-22.14
1026.8	20.68
1026.959	11.58
1027.119	23.01
1027.278	27.27
1027.437	-0.44
1027.597	30.18
1027.756	47.03
1027.915	36.76
1028.074	40.06
1028.234	-22.33
1028.393	8.48
1028.552	24.56
1028.711	-51.59
1028.87	38.89
1029.03	-8.38
1029.189	19.71
1029.348	-68.63
1029.507	8.48
1029.666	17.78
1029.825	-38.8
1029.984	-19.23
1030.143	31.34
1030.302	-6.64
1030.461	-31.44
1030.62	8.86
1030.779	43.54
1030.938	9.83
1031.097	-7.8
1031.255	41.99
1031.414	79.58
1031.573	81.71
1031.732	-23.88
1031.891	13.32
1032.049	71.83
1032.208	46.84
1032.367	2.28
1032.525	1.31
1032.684	-31.24
1032.843	45.68
1033.001	-53.91
1033.16	152.43
1033.319	84.62
1033.477	38.7
1033.636	-2.95
1033.794	-35.12
1033.953	29.4
1034.111	28.82
1034.27	10.03
1034.428	49.94
1034.587	-10.7
1034.745	18.75
1034.903	33.47
1035.062	28.43
1035.22	-32.79
1035.378	35.79
1035.537	-11.29
1035.695	17.39
1035.853	5.76
1036.011	53.62
1036.17	50.71
1036.328	-44.42
1036.486	24.75
1036.644	9.45
1036.802	-87.23
1036.96	2.08
1037.119	4.41
1037.277	-11.87
1037.435	-27.37
1037.593	-9.93
1037.751	0.73
1037.909	29.59
1038.067	29.59
