Data from gum_old_FLMT105791__189__15-48-16-249.txt Node

Date: Mon Mar 20 15:48:16 GMT 2023
User: antho
Spectrometer: FLMT10579
Trigger mode: 0
Integration Time (sec): 1.000000E-1
Scans to average: 10
Electric dark correction enabled: true
Nonlinearity correction enabled: false
Boxcar width: 0
XAxis mode: Wavelengths
Number of Pixels in Spectrum: 3648
>>>>>Begin Spectral Data<<<<<
345.248	-193.81
345.464	-193.81
345.681	-193.81
345.898	-191.49
346.114	-190.32
346.331	-41.33
346.548	19.12
346.764	-18.47
346.981	-4.91
347.197	2.84
347.414	38.88
347.631	-28.16
347.847	45.47
348.064	14.47
348.28	31.52
348.497	-28.55
348.713	-30.87
348.93	44.5
349.146	29.38
349.363	11.17
349.579	23.19
349.796	-2.2
350.012	-7.23
350.229	57.09
350.445	4.39
350.661	-6.65
350.878	10.4
351.094	48.57
351.311	37.72
351.527	33.45
351.743	20.09
351.96	48.37
352.176	58.45
352.392	56.51
352.609	44.88
352.825	-1.23
353.041	39.46
353.257	15.82
353.474	25.12
353.69	47.02
353.906	43.53
354.122	-8.78
354.339	69.68
354.555	35.39
354.771	21.05
354.987	62.9
355.203	84.02
355.42	5.17
355.636	12.92
355.852	27.06
356.068	10.98
356.284	-27
356.5	84.22
356.716	43.14
356.932	48.18
357.148	32.48
357.364	23.96
357.58	66.58
357.796	67.36
358.012	67.75
358.228	30.93
358.444	-52.18
358.66	83.44
358.876	59.03
359.092	-17.31
359.308	39.85
359.524	44.5
359.74	6.33
359.956	9.43
360.172	33.26
360.388	51.86
360.604	21.25
360.819	122.38
361.035	67.75
361.251	56.7
361.467	-25.64
361.683	79.37
361.898	24.54
362.114	59.8
362.33	35.39
362.546	79.76
362.762	16.21
362.977	58.83
363.193	-11.5
363.409	79.57
363.624	6.33
363.84	-5.1
364.056	17.57
364.271	44.69
364.487	45.66
364.703	33.07
364.918	36.75
365.134	65.23
365.35	17.95
365.565	137.88
365.781	64.26
365.996	53.6
366.212	111.53
366.427	66.97
366.643	3.42
366.858	18.73
367.074	16.79
367.289	104.75
367.505	159.39
367.72	-4.52
367.936	37.72
368.151	57.09
368.367	83.05
368.582	52.44
368.798	45.27
369.013	60.38
369.228	31.32
369.444	41.78
369.659	92.74
369.874	48.95
370.09	125.87
370.305	-24.86
370.52	34.62
370.736	92.55
370.951	56.51
371.166	117.35
371.381	154.74
371.597	118.7
371.812	14.08
372.027	24.54
372.242	46.82
372.458	135.56
372.673	22.8
372.888	76.27
373.103	78.98
373.318	119.67
373.533	89.64
373.749	98.94
373.964	3.23
374.179	130.13
374.394	10.98
374.609	84.22
374.824	24.35
375.039	122.96
375.254	11.56
375.469	139.82
375.684	58.06
375.899	100.49
376.114	77.24
376.329	73.75
376.544	72.59
376.759	98.36
376.974	44.3
377.189	54.38
377.404	66
377.619	115.02
377.834	23.96
378.049	21.64
378.264	37.72
378.478	92.74
378.693	52.44
378.908	128.78
379.123	61.55
379.338	121.61
379.553	87.9
379.767	89.06
379.982	91.19
380.197	95.26
380.412	56.32
380.626	81.12
380.841	164.04
381.056	116.76
381.271	147.18
381.485	60.19
381.7	51.86
381.915	101.85
382.129	69.88
382.344	89.64
382.559	70.27
382.773	105.53
382.988	14.08
383.202	97.78
383.417	38.88
383.632	165.78
383.846	85.38
384.061	86.93
384.275	63.68
384.49	123.93
384.704	81.12
384.919	87.51
385.133	88.87
385.348	115.8
385.562	49.34
385.777	128.97
385.991	74.92
386.206	58.45
386.42	29.58
386.634	137.11
386.849	96.03
387.063	113.28
387.277	49.73
387.492	66.2
387.706	60.38
387.92	54.96
388.135	147.57
388.349	118.31
388.563	101.46
388.778	93.71
388.992	117.93
389.206	132.65
389.42	192.13
389.635	85.77
389.849	124.13
390.063	133.43
390.277	128.78
390.491	185.74
390.706	146.21
390.92	141.95
391.134	130.33
391.348	159
391.562	61.55
391.776	129.36
391.99	93.52
392.205	155.32
392.419	103.59
392.633	105.53
392.847	159.58
393.061	94.68
393.275	168.11
393.489	87.9
393.703	113.08
393.917	127.61
394.131	37.52
394.345	122.77
394.559	147.57
394.773	112.12
394.986	128.97
395.2	130.91
395.414	178.96
395.628	114.63
395.842	162.3
396.056	165.4
396.27	84.22
396.484	149.7
396.697	155.32
396.911	185.16
397.125	124.13
397.339	129.36
397.553	119.67
397.766	180.9
397.98	155.13
398.194	194.07
398.408	158.23
398.621	194.26
398.835	190.58
399.049	198.33
399.262	226.81
399.476	212.86
399.69	202.6
399.903	256.84
400.117	191.55
400.331	220.81
400.544	206.86
400.758	338.61
400.971	193.49
401.185	258.2
401.398	202.21
401.612	266.73
401.826	282.03
402.039	259.17
402.253	234.37
402.466	241.93
402.68	228.36
402.893	244.83
403.106	261.3
403.32	233.21
403.533	263.43
403.747	231.08
403.96	256.84
404.174	264.4
404.387	183.61
404.6	269.05
404.814	289.01
405.027	224.29
405.24	228.56
405.454	215.58
405.667	269.83
405.88	193.88
406.094	256.84
406.307	291.33
406.52	250.06
406.733	191.36
406.947	201.63
407.16	315.94
407.373	311.29
407.586	223.52
407.799	229.33
408.012	283.78
408.226	283.97
408.439	313.42
408.652	219.64
408.865	297.72
409.078	312.84
409.291	300.05
409.504	250.45
409.717	317.68
409.93	290.36
410.143	266.34
410.357	227.59
410.57	234.56
410.783	257.43
410.996	273.31
411.209	265.76
411.421	326.98
411.634	290.36
411.847	274.28
412.06	311.29
412.273	302.37
412.486	305.47
412.699	395.95
412.912	328.14
413.125	320.01
413.338	306.64
413.55	324.85
413.763	303.15
413.976	320.2
414.189	249.48
414.402	315.55
414.615	392.47
414.827	274.28
415.04	344.22
415.253	321.17
415.466	380.45
415.678	406.42
415.891	333.76
416.104	357.4
416.316	326.98
416.529	283.58
416.742	378.32
416.954	388.59
417.167	337.25
417.38	311.67
417.592	363.99
417.805	286.49
418.017	296.56
418.23	372.9
418.442	319.42
418.655	306.44
418.868	345.77
419.08	386.27
419.293	376
419.505	380.84
419.718	356.43
419.93	378.9
420.142	352.17
420.355	391.11
420.567	399.64
420.78	359.34
420.992	367.28
421.205	418.62
421.417	314.97
421.629	347.13
421.842	365.15
422.054	335.89
422.266	415.91
422.479	428.12
422.691	365.34
422.903	390.92
423.115	331.24
423.328	349.26
423.54	372.32
423.752	366.31
423.964	340.35
424.177	391.5
424.389	351.39
424.601	493.41
424.813	400.22
425.025	432.19
425.238	438.39
425.45	387.62
425.662	385.69
425.874	746.64
426.086	406.61
426.298	391.69
426.51	411.07
426.722	413.39
426.934	386.46
427.146	443.81
427.358	363.79
427.57	469.38
427.782	383.55
427.994	394.21
428.206	366.51
428.418	340.35
428.63	421.14
428.842	432.19
429.054	422.11
429.266	435.48
429.478	364.37
429.69	396.92
429.902	345.97
430.114	419.4
430.325	401.77
430.537	342.67
430.749	339.77
430.961	272.93
431.173	306.83
431.384	358.17
431.596	268.28
431.808	341.12
432.02	400.6
432.231	443.62
432.443	481.78
432.655	460.09
432.867	450.01
433.078	492.25
433.29	532.16
433.502	494.96
433.713	543.59
433.925	522.67
434.136	507.94
434.348	429.67
434.56	392.08
434.771	559.48
434.983	425.21
435.194	432.96
435.406	475.97
435.617	506.2
435.829	567.03
436.04	531
436.252	517.24
436.463	578.27
436.675	546.5
436.886	545.72
437.098	585.05
437.309	627.1
437.521	535.65
437.732	559.48
437.943	531.58
438.155	538.17
438.366	476.36
438.578	597.65
438.789	559.67
439	516.85
439.211	527.32
439.423	506.39
439.634	546.88
439.845	558.51
440.057	594.16
440.268	613.34
440.479	547.47
440.69	570.33
440.902	553.08
441.113	560.64
441.324	531.19
441.535	589.9
441.746	644.14
441.957	579.63
442.168	571.88
442.38	609.08
442.591	650.34
442.802	596.1
443.013	603.85
443.224	645.69
443.435	598.42
443.646	586.02
443.857	612.37
444.068	608.88
444.279	554.25
444.49	698.39
444.701	661.97
444.912	757.29
445.123	648.41
445.334	689.48
445.545	641.82
445.756	612.95
445.967	621.86
446.178	672.24
446.388	667.78
446.599	668.36
446.81	638.72
447.021	613.15
447.232	691.42
447.443	716.61
447.653	646.86
447.864	712.93
448.075	707.89
448.286	719.9
448.496	695.49
448.707	699.75
448.918	686.96
449.129	776.47
449.339	681.93
449.55	713.7
449.761	679.6
449.971	762.91
450.182	673.79
450.393	733.66
450.603	720.87
450.814	727.07
451.024	746.44
451.235	800.11
451.446	813.09
451.656	792.36
451.867	711.57
452.077	774.15
452.288	801.66
452.498	782.09
452.709	753.42
452.919	758.46
453.13	697.81
453.34	755.55
453.55	669.91
453.761	757.1
453.971	706.34
454.182	752.84
454.392	759.42
454.602	822.97
454.813	775.7
455.023	782.09
455.233	709.24
455.444	778.61
455.654	673.4
455.864	749.54
456.075	740.44
456.285	733.27
456.495	754.19
456.705	791.39
456.916	808.25
457.126	832.27
457.336	762.72
457.546	685.22
457.756	749.16
457.967	834.79
458.177	784.42
458.387	788.87
458.597	752.06
458.807	758.65
459.017	742.76
459.227	753.61
459.437	739.27
459.647	781.71
459.857	811.93
460.068	774.34
460.278	843.7
460.488	808.64
460.698	843.32
460.908	779.38
461.117	755.16
461.327	782.09
461.537	849.9
461.747	815.42
461.957	815.61
462.167	939.42
462.377	845.64
462.587	841.19
462.797	892.34
463.007	845.25
463.216	892.92
463.426	927.4
463.636	872.19
463.846	779.57
464.056	849.32
464.265	870.44
464.475	809.61
464.685	848.74
464.895	894.66
465.104	798.37
465.314	886.52
465.524	822.59
465.733	820.65
465.943	933.02
466.153	918.3
466.362	922.37
466.572	860.75
466.782	878.39
466.991	881.49
467.201	936.12
467.41	804.96
467.62	883.42
467.829	874.32
468.039	889.82
468.249	904.93
468.458	908.8
468.668	937.09
468.877	912.68
469.086	942.9
469.296	975.07
469.505	908.03
469.715	1007.42
469.924	943.68
470.134	986.11
470.343	980.88
470.552	937.67
470.762	915.58
470.971	918.88
471.18	930.12
471.39	948.13
471.599	894.08
471.808	980.49
472.018	951.82
472.227	1016.33
472.436	1049.08
472.645	989.6
472.855	989.02
473.064	1061.28
473.273	1062.45
473.482	1027.57
473.691	1086.86
473.901	1039.97
474.11	1039.2
474.319	1134.71
474.528	1055.47
474.737	1140.91
474.946	1087.05
475.155	1097.13
475.364	1134.13
475.573	1110.49
475.783	1142.08
475.992	1117.47
476.201	1164.74
476.41	1090.34
476.619	1085.11
476.828	1118.83
477.037	1096.16
477.245	1090.54
477.454	1160.29
477.663	1134.33
477.872	1145.76
478.081	1238.95
478.29	1151.96
478.499	1254.64
478.708	1230.62
478.917	1289.32
479.125	1220.93
479.334	1229.65
479.543	1231.01
479.752	1280.41
479.961	1261.04
480.169	1290.49
480.378	1254.25
480.587	1425.53
480.796	1321.68
481.004	1271.89
481.213	1300.95
481.422	1313.35
481.63	1339.89
481.839	1342.6
482.048	1432.5
482.256	1340.86
482.465	1402.86
482.674	1401.89
482.882	1424.56
483.091	1456.91
483.299	1373.8
483.508	1462.15
483.716	1420.1
483.925	1419.52
484.134	1366.05
484.342	1385.81
484.551	1423.2
484.759	1410.61
484.967	1474.16
485.176	1484.62
485.384	1468.73
485.593	1493.53
485.801	1433.08
486.01	1396.27
486.218	1350.93
486.426	1213.37
486.635	1252.51
486.843	1235.85
487.051	1287.77
487.26	1286.03
487.468	1336.79
487.676	1385.42
487.885	1369.15
488.093	1414.29
488.301	1482.88
488.509	1459.24
488.717	1549.14
488.926	1490.43
489.134	1476.48
489.342	1487.91
489.55	1451.49
489.758	1500.9
489.967	1534.03
490.175	1614.62
490.383	1572
490.591	1681.66
490.799	1576.65
491.007	1620.82
491.215	1625.86
491.423	1615.79
491.631	1630.9
491.839	1575.68
492.047	1612.11
492.255	1513.49
492.463	1516.01
492.671	1518.14
492.879	1593.89
493.087	1560.18
493.295	1621.21
493.503	1614.04
493.711	1719.83
493.919	1682.82
494.127	1661.32
494.334	1724.29
494.542	1607.26
494.75	1701.81
494.958	1655.89
495.166	1761.1
495.374	1735.14
495.581	1772.72
495.789	1751.02
495.997	1836.66
496.205	1682.82
496.412	1684.96
496.62	1721.38
496.828	1747.54
497.035	1721.96
497.243	1802.37
497.451	1779.12
497.658	1785.51
497.866	1742.5
498.074	1836.27
498.281	1706.46
498.489	1875.8
498.696	1733.59
498.904	1700.07
499.112	1684.37
499.319	1814.38
499.527	1769.82
499.734	1818.45
499.942	1728.94
500.149	1731.07
500.357	1788.22
500.564	1728.16
500.771	1780.08
500.979	1706.27
501.186	1727.97
501.394	1755.29
501.601	1715.95
501.808	1729.71
502.016	1754.7
502.223	1701.42
502.43	1757.42
502.638	1743.08
502.845	1763.81
503.052	1820.77
503.26	1749.09
503.467	1835.69
503.674	1794.81
503.881	1791.52
504.089	1874.63
504.296	1845.57
504.503	1739.59
504.71	1775.05
504.917	1774.66
505.125	1806.82
505.332	1832.59
505.539	1814.38
505.746	1934.11
505.953	1897.88
506.16	1906.8
506.367	1991.85
506.574	1998.83
506.781	1976.74
506.988	1896.14
507.195	1937.41
507.402	1913.77
507.609	1967.44
507.816	1887.23
508.023	1917.84
508.23	1864.56
508.437	1849.64
508.644	1941.09
508.851	1923.46
509.058	1921.52
509.265	1927.33
509.472	1977.32
509.679	2059.66
509.885	1988.75
510.092	1958.53
510.299	1960.46
510.506	1967.05
510.713	1980.23
510.92	1970.34
511.126	1993.01
511.333	2020.91
511.54	2032.73
511.746	2052.3
511.953	2072.84
512.16	2098.22
512.367	2039.51
512.573	2033.7
512.78	2008.13
512.987	2039.71
513.193	1993.59
513.4	1931.6
513.606	1964.73
513.813	2025.95
514.02	1968.02
514.226	2067.8
514.433	2032.93
514.639	1941.48
514.846	2011.03
515.052	1949.81
515.259	1989.72
515.465	1998.44
515.672	2004.06
515.878	2129.99
516.085	2091.63
516.291	2074.97
516.497	2033.51
516.704	2017.62
516.91	1964.14
517.117	1912.22
517.323	1808.57
517.529	1820.19
517.736	1839.18
517.942	1865.91
518.148	1897.3
518.354	1945.74
518.561	1945.93
518.767	1945.55
518.973	1956.39
519.179	1984.49
519.386	1968.21
519.592	1985.65
519.798	1967.05
520.004	2147.24
520.21	2095.51
520.417	2132.32
520.623	2164.29
520.829	2190.05
521.035	2187.34
521.241	2179.98
521.447	2190.44
521.653	2323.35
521.859	2187.15
522.065	2236.75
522.271	2340.98
522.477	2276.47
522.683	2359
522.889	2270.65
523.095	2260.77
523.301	2235.2
523.507	2214.66
523.713	2247.21
523.919	2192.57
524.125	2361.13
524.331	2314.83
524.537	2410.93
524.742	2400.27
524.948	2397.17
525.154	2416.35
525.36	2496.17
525.566	2384.96
525.772	2451.42
525.977	2376.44
526.183	2450.06
526.389	2461.88
526.595	2356.1
526.8	2343.31
527.006	2255.73
527.212	2182.89
527.417	2187.54
527.623	2160.02
527.829	2259.61
528.034	2296.42
528.24	2317.15
528.446	2349.7
528.651	2460.91
528.857	2455.68
529.062	2518.46
529.268	2507.41
529.473	2529.69
529.679	2522.52
529.884	2619.59
530.09	2580.84
530.295	2549.84
530.501	2581.04
530.706	2555.85
530.912	2504.31
531.117	2566.5
531.323	2548.68
531.528	2659.31
531.733	2638.77
531.939	2576.39
532.144	2649.62
532.35	2619.79
532.555	2665.12
532.76	2599.05
532.966	2561.47
533.171	2562.24
533.376	2504.12
533.581	2440.96
533.787	2556.62
533.992	2601.57
534.197	2590.92
534.402	2565.73
534.607	2599.25
534.813	2706.39
535.018	2609.52
535.223	2602.93
535.428	2614.94
535.633	2676.17
535.838	2695.93
536.043	2695.73
536.249	2859.06
536.454	2715.3
536.659	2746.88
536.864	2705.42
537.069	2679.07
537.274	2670.35
537.479	2715.69
537.684	2661.83
537.889	2624.82
538.094	2738.36
538.299	2693.6
538.504	2686.63
538.708	2693.8
538.913	2768.78
539.118	2714.72
539.323	2769.36
539.528	2648.07
539.733	2654.47
539.938	2745.72
540.142	2719.37
540.347	2642.65
540.552	2625.02
540.757	2640.32
540.962	2656.6
541.166	2555.07
541.371	2569.6
541.576	2617.27
541.781	2549.07
541.985	2747.08
542.19	2635.09
542.395	2764.9
542.599	2785.05
542.804	2718.98
543.008	2755.6
543.213	2725.57
543.418	2712.01
543.622	2712.98
543.827	2693.02
544.031	2787.38
544.236	2826.13
544.44	2770.91
544.645	2837.94
544.849	2808.3
545.054	2815.66
545.258	2834.07
545.463	2888.32
545.667	2744.36
545.872	2816.44
546.076	2814.11
546.281	2778.85
546.485	2774.01
546.689	2803.85
546.894	2854.61
547.098	2805.01
547.302	2817.6
547.507	2782.15
547.711	2807.91
547.915	2889.87
548.119	2753.86
548.324	2754.63
548.528	2824.96
548.732	2782.53
548.936	2845.31
549.141	2804.81
549.345	2814.31
549.549	2813.73
549.753	2842.98
549.957	2931.91
550.161	2910.79
550.366	2853.25
550.57	2824.96
550.774	2840.66
550.978	2845.11
551.182	2821.86
551.386	2798.23
551.59	2791.45
551.794	2798.23
551.998	2830.58
552.202	2803.65
552.406	2812.95
552.61	2838.72
552.814	2851.7
553.018	2894.33
553.222	2805.01
553.426	2817.8
553.63	2913.12
553.833	2787.18
554.037	2744.75
554.241	2823.41
554.445	2853.25
554.649	2822.25
554.853	2793.96
555.056	2855.38
555.26	2901.49
555.464	2848.02
555.668	2877.47
555.871	2878.05
556.075	2837.75
556.279	2817.8
556.483	2770.33
556.686	2795.9
556.89	2783.31
557.094	2811.98
557.297	2686.43
557.501	2794.93
557.704	2700.38
557.908	2800.94
558.112	2745.14
558.315	2824
558.519	2752.11
558.722	2701.35
558.926	2703.29
559.129	2643.42
559.333	2598.09
559.536	2623.08
559.74	2591.3
559.943	2557.21
560.147	2605.84
560.35	2637.8
560.553	2647.49
560.757	2582.97
560.96	2711.23
561.164	2624.82
561.367	2751.92
561.57	2695.93
561.774	2706
561.977	2711.62
562.18	2631.02
562.384	2747.46
562.587	2681.2
562.79	2620.95
562.993	2652.72
563.197	2679.46
563.4	2675.39
563.603	2736.23
563.806	2726.54
564.009	2651.95
564.212	2691.28
564.416	2580.84
564.619	2671.52
564.822	2574.45
565.025	2692.25
565.228	2586.85
565.431	2642.45
565.634	2522.72
565.837	2562.05
566.04	2521.94
566.243	2535.89
566.446	2453.94
566.649	2594.79
566.852	2433.01
567.055	2544.42
567.258	2541.12
567.461	2613.78
567.664	2579.29
567.867	2502.18
568.07	2545.97
568.273	2559.14
568.475	2583.17
568.678	2481.84
568.881	2515.55
569.084	2483.19
569.287	2391.74
569.489	2472.34
569.692	2538.61
569.895	2510.32
570.098	2396.39
570.3	2451.61
570.503	2341.18
570.706	2390
570.909	2377.6
571.111	2327.61
571.314	2346.8
571.516	2333.62
571.719	2336.33
571.922	2332.46
572.124	2340.01
572.327	2424.29
572.529	2317.15
572.732	2318.7
572.935	2366.36
573.137	2467.31
573.34	2346.8
573.542	2381.09
573.745	2384
573.947	2330.13
574.15	2391.55
574.352	2369.46
574.554	2436.11
574.757	2313.47
574.959	2300.3
575.162	2336.72
575.364	2310.56
575.566	2397.75
575.769	2294.48
575.971	2287.51
576.173	2174.36
576.376	2286.15
576.578	2315.8
576.78	2380.31
576.982	2171.65
577.185	2269.88
577.387	2247.21
577.589	2229.77
577.791	2268.91
577.993	2290.03
578.196	2226.48
578.398	2280.34
578.6	2292.74
578.802	2165.06
579.004	2168.94
579.206	2164.29
579.408	2239.46
579.61	2180.56
579.812	2249.15
580.014	2168.94
580.216	2202.07
580.418	2192.96
580.62	2180.95
580.822	2141.42
581.024	2218.73
581.226	2233.65
581.428	2215.82
581.63	2282.47
581.832	2194.9
582.034	2268.33
582.236	2205.75
582.438	2254.18
582.64	2298.36
582.841	2278.98
583.043	2310.95
583.245	2256.51
583.447	2273.56
583.649	2220.08
583.85	2251.28
584.052	2254.77
584.254	2199.35
584.456	2276.08
584.657	2209.62
584.859	2211.75
585.061	2217.18
585.262	2168.16
585.464	2113.14
585.666	2245.08
585.867	2163.32
586.069	2250.31
586.27	2146.27
586.472	2142.97
586.674	2146.27
586.875	2122.24
587.077	2103.84
587.278	2146.27
587.48	2110.81
587.681	2281.5
587.883	2167.19
588.084	2083.69
588.285	2089.5
588.487	2105.39
588.688	2148.79
588.89	2042.42
589.091	1983.71
589.292	1997.08
589.494	1939.73
589.695	1892.46
589.896	1834.14
590.098	1804.88
590.299	1895.36
590.5	1888.97
590.702	1901.76
590.903	1943.41
591.104	1999.21
591.305	1968.02
591.507	2054.43
591.708	2025.37
591.909	2023.63
592.11	2084.85
592.311	2036.61
592.512	1985.07
592.714	1959.3
592.915	1984.88
593.116	1949.81
593.317	1998.44
593.518	1959.49
593.719	2013.55
593.92	2064.89
594.121	2066.64
594.322	2018.2
594.523	2008.32
594.724	1909.31
594.925	1998.05
595.126	2010.64
595.327	2005.61
595.528	2005.03
595.729	1961.82
595.929	1967.05
596.13	2024.79
596.331	2005.03
596.532	1980.61
596.733	2100.16
596.934	2032.54
597.135	2016.07
597.335	2035.64
597.536	1977.71
597.737	2017.62
597.938	1972.86
598.138	1998.05
598.339	1996.5
598.54	2008.13
598.74	1997.86
598.941	1957.56
599.142	2075.74
599.342	1983.91
599.543	1937.02
599.744	1997.66
599.944	1935.86
600.145	1981.19
600.345	2003.86
600.546	2085.82
600.746	2043.77
600.947	2060.24
601.147	2003.48
601.348	2032.73
601.548	1915.13
601.749	1995.73
601.949	1905.05
602.15	1924.62
602.35	1935.08
602.551	1955.81
602.751	1888.78
602.951	1922.3
603.152	1847.7
603.352	1958.53
603.552	1944.19
603.753	1985.46
603.953	1980.81
604.153	1989.53
604.354	1972.67
604.554	2014.91
604.754	1957.56
604.954	1931.21
605.155	1981
605.355	1942.64
605.555	2012.78
605.755	2032.93
605.955	1926.36
606.155	1991.27
606.356	1982.55
606.556	1985.65
606.756	1972.09
606.956	1893.62
607.156	1973.25
607.356	1931.6
607.556	1947.48
607.756	1938.57
607.956	1957.75
608.156	1960.85
608.356	1873.28
608.556	1970.73
608.756	1882.77
608.956	1890.52
609.156	1915.51
609.356	1873.47
609.556	1857
609.755	1901.95
609.955	1839.18
610.155	1913.38
610.355	1904.08
610.555	1862.04
610.755	1828.91
610.954	1784.73
611.154	1898.08
611.354	1910.48
611.554	1810.7
611.753	1853.13
611.953	1798.3
612.153	1860.49
612.352	1877.15
612.552	1803.92
612.752	1747.73
612.951	1777.57
613.151	1847.7
613.351	1797.72
613.55	1800.82
613.75	1804.88
613.949	1795.39
614.149	1802.56
614.348	1756.64
614.548	1738.82
614.747	1712.08
614.947	1698.32
615.146	1670.42
615.346	1783.18
615.545	1790.16
615.745	1802.75
615.944	1778.92
616.144	1763.81
616.343	1766.33
616.542	1731.84
616.742	1744.82
616.941	1731.07
617.14	1656.47
617.34	1704.91
617.539	1671.97
617.738	1695.61
617.938	1789.38
618.137	1719.83
618.336	1671.97
618.535	1743.85
618.734	1731.84
618.934	1712.27
619.133	1732.23
619.332	1715.95
619.531	1662.48
619.73	1697.35
619.929	1732.42
620.128	1755.09
620.328	1801.01
620.527	1700.26
620.726	1720.41
620.925	1711.69
621.124	1702.2
621.323	1724.67
621.522	1633.03
621.721	1653.37
621.92	1651.24
622.119	1718.86
622.318	1656.09
622.517	1666.74
622.715	1680.11
622.914	1612.88
623.113	1657.64
623.312	1593.7
623.511	1678.17
623.71	1615.79
623.909	1636.52
624.107	1695.22
624.306	1589.63
624.505	1618.5
624.704	1588.86
624.902	1587.5
625.101	1630.71
625.3	1624.89
625.499	1560.76
625.697	1574.71
625.896	1588.28
626.095	1599.9
626.293	1529.96
626.492	1548.17
626.69	1610.36
626.889	1563.86
627.088	1638.26
627.286	1579.56
627.485	1543.52
627.683	1578.2
627.882	1601.26
628.08	1509.61
628.279	1525.31
628.477	1626.64
628.676	1511.75
628.874	1582.66
629.073	1541.97
629.271	1478.03
629.469	1547.78
629.668	1534.41
629.866	1476.29
630.065	1521.43
630.263	1579.17
630.461	1502.25
630.66	1547.78
630.858	1550.11
631.056	1575.1
631.254	1555.92
631.453	1482.68
631.651	1529.96
631.849	1547.39
632.047	1542.55
632.245	1502.64
632.444	1505.93
632.642	1526.86
632.84	1536.93
633.038	1491.98
633.236	1484.04
633.434	1490.82
633.632	1491.01
633.83	1504.58
634.028	1552.82
634.227	1508.65
634.425	1590.6
634.623	1503.61
634.821	1523.95
635.019	1501.09
635.216	1475.13
635.414	1524.73
635.612	1497.6
635.81	1469.7
636.008	1558.24
636.206	1509.61
636.404	1524.53
636.602	1471.45
636.8	1487.53
636.997	1509.03
637.195	1541.19
637.393	1494.11
637.591	1536.54
637.789	1519.3
637.986	1501.28
638.184	1530.54
638.382	1574.33
638.58	1524.14
638.777	1594.09
638.975	1538.68
639.173	1518.72
639.37	1500.7
639.568	1518.33
639.765	1539.45
639.963	1504.96
640.161	1497.6
640.358	1511.75
640.556	1460.01
640.753	1423.01
640.951	1412.74
641.148	1486.36
641.346	1426.69
641.543	1415.84
641.741	1478.23
641.938	1395.69
642.136	1433.86
642.333	1406.73
642.531	1473.38
642.728	1487.91
642.925	1452.26
643.123	1390.27
643.32	1426.69
643.517	1383.68
643.715	1448.39
643.912	1408.28
644.109	1445.48
644.306	1434.44
644.504	1386.97
644.701	1442.77
644.898	1439.48
645.095	1397.43
645.293	1417.2
645.49	1428.63
645.687	1407.12
645.884	1440.64
646.081	1334.47
646.278	1351.52
646.475	1370.7
646.672	1349.77
646.87	1395.11
647.067	1362.17
647.264	1384.65
647.461	1286.61
647.658	1303.08
647.855	1376.7
648.052	1322.45
648.249	1216.86
648.446	1322.26
648.642	1295.33
648.839	1272.47
649.036	1311.6
649.233	1266.65
649.43	1274.02
649.627	1218.22
649.824	1285.64
650.021	1247.28
650.217	1243.6
650.414	1266.65
650.611	1313.35
650.808	1304.05
651.004	1316.06
651.201	1304.05
651.398	1343.38
651.595	1285.25
651.791	1267.43
651.988	1316.45
652.185	1276.54
652.381	1320.71
652.578	1223.06
652.775	1244.37
652.971	1277.89
653.168	1255.61
653.364	1289.32
653.561	1212.41
653.757	1283.32
653.954	1267.04
654.15	1243.79
654.347	1325.17
654.543	1275.76
654.74	1202.72
654.936	1221.12
655.133	1231.39
655.329	1261.42
655.525	1248.83
655.722	1297.46
655.918	1194.77
656.115	1206.01
656.311	1103.71
656.507	1094.03
656.704	1012.65
656.9	1076.78
657.096	1051.98
657.292	1063.03
657.489	1134.52
657.685	1137.23
657.881	1098.09
658.077	1118.44
658.273	1106.43
658.47	1227.52
658.666	1172.49
658.862	1236.24
659.058	1183.73
659.254	1228.87
659.45	1171.14
659.646	1214.54
659.842	1185.47
660.038	1255.61
660.234	1164.36
660.43	1171.14
660.626	1258.13
660.822	1246.51
661.018	1209.69
661.214	1217.25
661.41	1147.89
661.606	1201.17
661.802	1236.43
661.998	1186.06
662.194	1225.77
662.39	1234.69
662.586	1219.57
662.781	1203.11
662.977	1204.07
663.173	1228.68
663.369	1215.51
663.564	1197.1
663.76	1223.26
663.956	1198.26
664.152	1198.07
664.347	1121.73
664.543	1185.47
664.739	1182.96
664.934	1121.54
665.13	1098.87
665.326	1177.34
665.521	1173.46
665.717	1120.76
665.912	1102.74
666.108	1057.21
666.304	1130.06
666.499	1145.56
666.695	1033.96
666.89	1114.18
667.086	1148.66
667.281	1131.42
667.477	1219.57
667.672	1131.42
667.867	1125.22
668.063	1097.71
668.258	1085.89
668.454	1121.54
668.649	1201.94
668.844	1136.07
669.04	1189.16
669.235	1111.85
669.43	1116.11
669.626	1042.88
669.821	1098.87
670.016	1059.15
670.211	1118.83
670.407	1069.03
670.602	1139.17
670.797	1080.85
670.992	1143.82
671.187	1103.91
671.382	1132.19
671.578	1045.2
671.773	1108.94
671.968	1041.71
672.163	1097.32
672.358	1107.2
672.553	1020.79
672.748	1033.58
672.943	1158.16
673.138	1075.04
673.333	1102.16
673.528	1041.71
673.723	1071.16
673.918	1078.14
674.113	1019.63
674.308	1151.18
674.503	1107.78
674.698	1110.11
674.892	1083.18
675.087	1066.32
675.282	1056.63
675.477	1051.21
675.672	1100.61
675.867	1034.74
676.061	1005.87
676.256	1018.08
676.451	1060.7
676.646	1064.96
676.84	1020.6
677.035	1013.81
677.23	1000.64
677.424	1062.06
677.619	1105.07
677.814	1111.85
678.008	1096.93
678.203	978.75
678.397	1045.01
678.592	1021.56
678.787	1104.1
678.981	1034.74
679.176	1054.11
679.37	1046.56
679.565	997.73
679.759	1038.23
679.954	1084.73
680.148	1072.71
680.342	1117.86
680.537	1050.82
680.731	1033.38
680.926	1063.8
681.12	1037.45
681.314	1013.23
681.509	1020.6
681.703	1042.68
681.897	1095.19
682.092	1032.22
682.286	1020.6
682.48	1093.44
682.674	1075.81
682.869	1043.26
683.063	1032.03
683.257	1085.11
683.451	1003.93
683.645	1069.23
683.839	1014.59
684.034	1041.52
684.228	1032.8
684.422	946
684.616	989.02
684.81	1032.41
685.004	989.02
685.198	1013.43
685.392	1064.19
685.586	976.42
685.78	1023.11
685.974	1036.68
686.168	1032.03
686.362	1108.17
686.556	958.98
686.75	955.69
686.944	933.99
687.138	965.77
687.331	849.13
687.525	849.32
687.719	785.97
687.913	872.96
688.107	843.9
688.301	830.34
688.494	911.71
688.688	847.39
688.882	830.92
689.076	784.61
689.269	854.36
689.463	954.33
689.657	843.51
689.85	873.54
690.044	886.91
690.238	898.54
690.431	899.12
690.625	885.94
690.818	929.34
691.012	930.31
691.205	970.8
691.399	885.94
691.593	938.45
691.786	1002.19
691.98	1024.47
692.173	985.14
692.366	973.32
692.56	1003.74
692.753	1044.62
692.947	934.18
693.14	1016.53
693.333	1054.7
693.527	952.4
693.72	1010.71
693.914	980.3
694.107	1010.33
694.3	1030.28
694.493	981.85
694.687	1048.11
694.88	1011.88
695.073	1086.66
695.266	1066.9
695.46	1054.31
695.653	1101.97
695.846	1096.16
696.039	1013.23
696.232	1006.45
696.425	1095.19
696.618	1116.89
696.812	1093.64
697.005	1170.36
697.198	1235.66
697.391	1136.46
697.584	1170.94
697.777	1237.21
697.97	1184.12
698.163	1201.94
698.356	1195.94
698.549	1290.87
698.742	1267.82
698.935	1198.26
699.127	1240.89
699.32	1219.96
699.513	1231.2
699.706	1249.02
699.899	1307.92
700.092	1221.12
700.285	1287.19
700.477	1195.94
700.67	1307.54
700.863	1332.34
701.056	1390.27
701.248	1377.87
701.441	1349
701.634	1319.94
701.826	1451.68
702.019	1294.55
702.212	1397.24
702.404	1337.95
702.597	1348.61
702.79	1381.93
702.982	1404.6
703.175	1426.3
703.367	1479
703.56	1464.86
703.752	1551.46
703.945	1513.49
704.137	1503.41
704.33	1518.14
704.522	1535.38
704.715	1558.44
704.907	1600.29
705.1	1624.89
705.292	1625.28
705.484	1599.32
705.677	1659.57
705.869	1700.45
706.061	1699.68
706.254	1756.25
706.446	1695.03
706.638	1690.38
706.831	1808.95
707.023	1734.55
707.215	1846.35
707.407	1837.63
707.599	1842.28
707.792	1865.91
707.984	1838.6
708.176	1905.63
708.368	1841.12
708.56	1893.62
708.752	1904.66
708.944	1905.25
709.136	1971.51
709.329	1856.42
709.521	2055.01
709.713	1989.14
709.905	2012
710.097	2067.61
710.289	2027.69
710.481	2069.74
710.672	2093.96
710.864	2050.17
711.056	2174.17
711.248	2142
711.44	2151.11
711.632	2111.78
711.824	2206.33
712.016	2253.8
712.207	2221.25
712.399	2237.52
712.591	2327.61
712.783	2302.04
712.975	2322.38
713.166	2267.75
713.358	2289.64
713.55	2375.08
713.741	2383.22
713.933	2390.97
714.125	2389.42
714.316	2347.57
714.508	2462.66
714.7	2469.44
714.891	2466.73
715.083	2544.22
715.274	2484.74
715.466	2514
715.657	2556.04
715.849	2469.83
716.04	2534.92
716.232	2444.25
716.423	2546.74
716.615	2456.07
716.806	2472.34
716.998	2409.18
717.189	2315.21
717.381	2270.07
717.572	2247.79
717.763	2279.57
717.955	2283.05
718.146	2221.63
718.337	2209.43
718.528	2169.52
718.72	2077.68
718.911	2158.86
719.102	2053.46
719.293	2182.5
719.485	2182.11
719.676	2152.47
719.867	2138.32
720.058	2136
720.249	2166.8
720.44	2172.42
720.632	2232.1
720.823	2285.96
721.014	2380.12
721.205	2405.5
721.396	2470.41
721.587	2628.7
721.778	2613.39
721.969	2706.58
722.16	2743.98
722.351	2728.09
722.542	2885.61
722.733	2892.19
722.924	2830.39
723.115	2879.21
723.305	2872.63
723.496	2890.84
723.687	2727.12
723.878	2785.44
724.069	2745.72
724.26	2785.63
724.45	2722.47
724.641	2738.75
724.832	2779.82
725.023	2759.48
725.213	2732.93
725.404	2738.16
725.595	2758.9
725.785	2716.85
725.976	2879.21
726.167	2814.89
726.357	2864.88
726.548	2984.42
726.739	2853.06
726.929	2925.71
727.12	2970.08
727.31	2977.25
727.501	2940.05
727.691	2994.88
727.882	2975.31
728.072	3011.15
728.263	3031.5
728.453	3067.73
728.644	3064.82
728.834	3039.44
729.024	3034.4
729.215	3028.4
729.405	3050.29
729.596	3202
729.786	3115.2
729.976	3196.18
730.167	3181.26
730.357	3163.63
730.547	3170.03
730.737	3238.42
730.928	3256.63
731.118	3324.64
731.308	3262.25
731.498	3293.44
731.688	3390.51
731.879	3331.61
732.069	3434.69
732.259	3502.3
732.449	3492.23
732.639	3576.7
732.829	3606.54
733.019	3611.96
733.209	3665.25
733.399	3690.43
733.589	3771.42
733.779	3790.6
733.969	3783.82
734.159	3838.65
734.349	3952.19
734.539	3955.48
734.729	3947.92
734.919	4040.15
735.109	4030.65
735.299	3970.59
735.488	4050.61
735.678	4003.14
735.868	3997.33
736.058	4049.64
736.248	4025.81
736.437	3953.35
736.627	3930.87
736.817	4058.36
737.007	4034.92
737.196	4075.99
737.386	4121.91
737.576	4038.98
737.765	4131.21
737.955	4083.16
738.144	4263.15
738.334	4213.36
738.524	4091.88
738.713	4181.78
738.903	4158.14
739.092	4170.54
739.282	4196.11
739.471	4214.91
739.661	4214.33
739.85	4236.8
740.04	4278.26
740.229	4288.92
740.419	4246.29
740.608	4294.34
740.797	4313.72
740.987	4381.72
741.176	4329.22
741.365	4292.41
741.555	4270.9
741.744	4361.77
741.933	4297.44
742.123	4316.24
742.312	4393.54
742.501	4382.89
742.69	4435.78
742.88	4329.8
743.069	4475.69
743.258	4394.12
743.447	4476.27
743.636	4414.47
743.825	4430.55
744.014	4439.07
744.204	4533.81
744.393	4382.69
744.582	4520.25
744.771	4531.1
744.96	4500.68
745.149	4490.41
745.338	4485.57
745.527	4500.3
745.716	4483.63
745.905	4475.5
746.094	4564.62
746.283	4496.03
746.471	4468.91
746.66	4560.55
746.849	4602.4
747.038	4582.25
747.227	4547.76
747.416	4588.84
747.604	4518.9
747.793	4533.23
747.982	4517.73
748.171	4588.64
748.359	4532.85
748.548	4577.99
748.737	4565.59
748.926	4580.12
749.114	4413.3
749.303	4557.26
749.491	4487.7
749.68	4391.8
749.869	4571.4
750.057	4509.21
750.246	4482.47
750.434	4420.08
750.623	4496.81
750.811	4439.65
751	4507.85
751.188	4477.24
751.377	4447.98
751.565	4459.61
751.754	4427.64
751.942	4404.39
752.131	4515.21
752.319	4426.28
752.507	4370.1
752.696	4460.97
752.884	4447.4
753.072	4418.92
753.261	4435.58
753.449	4470.27
753.637	4418.34
753.825	4519.09
754.014	4439.27
754.202	4418.73
754.39	4498.36
754.578	4471.04
754.766	4420.86
754.955	4351.3
755.143	4466.39
755.331	4402.07
755.519	4430.35
755.707	4403.62
755.895	4380.56
756.083	4398.58
756.271	4328.05
756.459	4363.7
756.647	4393.15
756.835	4346.85
757.023	4296.28
757.211	4283.3
757.399	4311.39
757.587	4331.35
757.775	4237.38
757.963	4302.09
758.151	4349.56
758.339	4265.47
758.526	4243.19
758.714	4311.59
758.902	4185.84
759.09	4079.67
759.278	3916.34
759.465	3710.78
759.653	3263.03
759.841	3032.47
760.028	2681.59
760.216	2353.58
760.404	2242.75
760.591	1874.44
760.779	1648.34
760.967	1495.86
761.154	1324
761.342	1363.33
761.529	1378.83
761.717	1442.38
761.905	1461.76
762.092	1547.59
762.28	1528.6
762.467	1611.72
762.655	1529.38
762.842	1539.45
763.029	1604.36
763.217	1590.21
763.404	1632.45
763.592	1678.95
763.779	1621.02
763.966	1697.55
764.154	1723.9
764.341	1802.56
764.528	1789.77
764.716	1889.36
764.903	1909.51
765.09	2007.74
765.277	2048.42
765.465	2218.15
765.652	2295.45
765.839	2355.71
766.026	2512.45
766.213	2530.08
766.4	2675.39
766.588	2817.8
766.775	2853.83
766.962	3000.3
767.149	3002.63
767.336	3192.5
767.523	3168.09
767.71	3270.97
767.897	3383.34
768.084	3468.4
768.271	3501.72
768.458	3513.54
768.645	3624.17
768.832	3624.95
769.019	3638.51
769.206	3680.55
769.392	3713.1
769.579	3797.19
769.766	3793.31
769.953	3709.81
770.14	3798.35
770.327	3786.34
770.513	3839.23
770.7	3917.89
770.887	3817.72
771.073	3825.47
771.26	3824.89
771.447	3805.52
771.634	3773.74
771.82	3878.95
772.007	3814.24
772.193	3832.64
772.38	3899.49
772.567	3822.18
772.753	3804.74
772.94	3903.17
773.126	3854.15
773.313	3896.77
773.499	3824.31
773.686	3861.51
773.872	3825.28
774.059	3858.41
774.245	3765.99
774.432	3787.69
774.618	3697.41
774.804	3770.84
774.991	3726.86
775.177	3746.04
775.363	3728.79
775.55	3778.59
775.736	3696.05
775.922	3735.58
776.109	3723.18
776.295	3689.66
776.481	3723.76
776.667	3756.11
776.853	3754.76
777.04	3708.45
777.226	3720.46
777.412	3798.74
777.598	3659.24
777.784	3657.88
777.97	3634.44
778.156	3727.24
778.342	3622.04
778.528	3640.45
778.715	3594.92
778.901	3563.14
779.087	3643.16
779.272	3598.4
779.458	3574.38
779.644	3607.7
779.83	3578.45
780.016	3683.26
780.202	3561.4
780.388	3592.2
780.574	3455.03
780.76	3497.85
780.946	3595.11
781.131	3529.82
781.317	3565.66
781.503	3506.95
781.689	3533.88
781.874	3611.58
782.06	3482.35
782.246	3539.5
782.432	3523.23
782.617	3477.89
782.803	3566.24
782.989	3438.17
783.174	3450.96
783.36	3407.95
783.545	3434.69
783.731	3455.03
783.916	3308.17
784.102	3439.34
784.288	3407.76
784.473	3418.61
784.659	3363.39
784.844	3415.7
785.029	3422.48
785.215	3337.81
785.4	3312.63
785.586	3420.93
785.771	3273.68
785.956	3368.62
786.142	3325.61
786.327	3301.19
786.512	3301.78
786.698	3292.67
786.883	3256.44
787.068	3244.62
787.254	3280.27
787.439	3240.75
787.624	3273.1
787.809	3229.9
787.994	3239.2
788.18	3315.34
788.365	3154.92
788.55	3212.65
788.735	3178.55
788.92	3198.12
789.105	3184.36
789.29	3236.29
789.475	3119.65
789.66	3152.98
789.845	3086.91
790.03	3117.52
790.215	3202.96
790.4	3140.58
790.585	3227.96
790.77	3118.49
790.955	3018.71
791.14	3102.41
791.325	3242.88
791.51	3023.75
791.695	3107.83
791.879	3060.37
792.064	3059.98
792.249	3194.44
792.434	3075.67
792.618	3080.71
792.803	3099.12
792.988	3034.6
793.173	3087.49
793.357	3142.9
793.542	3049.32
793.727	3066.18
793.911	3093.11
794.096	3062.5
794.281	3125.85
794.465	3186.5
794.65	3059.2
794.834	3120.82
795.019	3169.45
795.203	3153.75
795.388	3113.45
795.572	3226.6
795.757	3194.05
795.941	3163.44
796.126	3141.93
796.31	3114.81
796.494	3163.25
796.679	3091.56
796.863	3074.32
797.048	3192.11
797.232	3125.66
797.416	3157.24
797.601	3112.68
797.785	3207.61
797.969	3207.03
798.153	3144.45
798.338	3151.04
798.522	3207.61
798.706	3175.65
798.89	3218.85
799.074	3294.8
799.258	3252.18
799.443	3187.08
799.627	3175.65
799.811	3221.18
799.995	3195.21
800.179	3143.87
800.363	3133.41
800.547	3193.08
800.731	3214.2
800.915	3120.23
801.099	3132.63
801.283	3194.05
801.467	3194.83
801.651	3158.4
801.835	3186.11
802.019	3156.66
802.202	3179.71
802.386	3117.72
802.57	3088.85
802.754	3133.41
802.938	3052.62
803.121	3105.32
803.305	3221.76
803.489	3132.83
803.673	3179.52
803.856	3122.37
804.04	3163.83
804.224	3197.93
804.407	3154.72
804.591	3140
804.775	3148.91
804.958	3173.52
805.142	3252.56
805.326	3132.83
805.509	3161.7
805.693	3153.17
805.876	3204.32
806.06	3145.42
806.243	3176.23
806.427	3206.65
806.61	3202.58
806.794	3149.3
806.977	3140.19
807.16	3178.36
807.344	3176.61
807.527	3159.95
807.71	3145.81
807.894	3131.86
808.077	3179.71
808.26	3098.15
808.444	3071.02
808.627	3166.35
808.81	3051.26
808.993	3033.44
809.177	3039.64
809.36	3076.06
809.543	3079.94
809.726	2993.14
809.909	2971.44
810.092	2963.49
810.276	2924.55
810.459	2986.74
810.642	2971.82
810.825	2941.21
811.008	2970.27
811.191	2856.35
811.374	2849.76
811.557	2868.56
811.74	2930.17
811.923	2834.65
812.106	2812.37
812.289	2801.52
812.472	2767.03
812.654	2833.1
812.837	2787.96
813.02	2705.03
813.203	2663.96
813.386	2594.6
813.569	2556.24
813.751	2523.69
813.934	2547.32
814.117	2523.49
814.3	2462.46
814.482	2439.02
814.665	2405.69
814.848	2344.28
815.03	2285.57
815.213	2269.49
815.396	2282.28
815.578	2237.52
815.761	2205.36
815.943	2296.62
816.126	2147.82
816.309	2200.9
816.491	2109.26
816.674	1986.81
816.856	2069.54
817.039	2096.28
817.221	2167
817.403	2123.02
817.586	2065.67
817.768	2120.31
817.951	2026.92
818.133	1981.78
818.315	2035.83
818.498	2082.91
818.68	2138.9
818.862	2087.76
819.045	2157.89
819.227	2146.85
819.409	2081.56
819.591	2136.97
819.774	2085.62
819.956	2039.71
820.138	2145.3
820.32	2151.89
820.502	2192.96
820.684	2221.63
820.866	2261.74
821.048	2294.87
821.231	2290.42
821.413	2336.91
821.595	2316.38
821.777	2311.53
821.959	2261.35
822.141	2407.24
822.323	2206.72
822.505	2138.71
822.686	2087.56
822.868	2024.98
823.05	1937.21
823.232	1882.58
823.414	1773.11
823.596	1920.75
823.778	1843.63
823.96	1860.3
824.141	1890.71
824.323	1897.5
824.505	1981.39
824.687	2006.38
824.868	2099.57
825.05	2139.29
825.232	2198.39
825.413	2265.23
825.595	2262.71
825.777	2169.71
825.958	2236.55
826.14	2193.35
826.321	2220.47
826.503	2226.28
826.685	2235.78
826.866	2223.77
827.048	2275.3
827.229	2209.04
827.411	2137.74
827.592	2102.67
827.773	2115.07
827.955	2029.24
828.136	2033.7
828.318	2035.06
828.499	2041.06
828.68	1977.51
828.862	2037.19
829.043	2026.34
829.224	2052.3
829.406	1981.78
829.587	1975.19
829.768	2024.21
829.949	2032.73
830.131	1987.78
830.312	2100.54
830.493	1993.4
830.674	2026.73
830.855	1975.58
831.036	1960.85
831.218	2066.06
831.399	2111.78
831.58	2005.03
831.761	2009.29
831.942	2065.67
832.123	2003.28
832.304	1947.29
832.485	1945.74
832.666	1959.11
832.847	2039.9
833.028	2002.89
833.209	1996.31
833.389	2000.96
833.57	1950.2
833.751	1976.35
833.932	2025.95
834.113	1983.71
834.294	1941.28
834.475	1982.16
834.655	2027.5
834.836	2038.74
835.017	2021.88
835.198	1977.51
835.378	1997.28
835.559	2031.96
835.74	2010.06
835.92	1986.23
836.101	1986.43
836.281	2022.27
836.462	2020.14
836.643	2053.66
836.823	2086.98
837.004	2059.66
837.184	2117.21
837.365	2035.64
837.545	2086.59
837.726	2028.28
837.906	2070.12
838.087	2011.61
838.267	2030.99
838.448	2011.03
838.628	2000.18
838.808	2028.28
838.989	2088.72
839.169	1992.43
839.349	2047.46
839.53	2055.98
839.71	2041.26
839.89	2009.68
840.07	2085.24
840.251	2005.41
840.431	2076.71
840.611	2038.74
840.791	1996.31
840.971	2014.52
841.151	2024.59
841.332	1993.4
841.512	2044.16
841.692	1980.23
841.872	2014.13
842.052	1994.95
842.232	2021.11
842.412	1951.94
842.592	1985.65
842.772	1977.32
842.952	2010.06
843.132	1933.53
843.312	1929.85
843.492	1933.73
843.672	2005.22
843.851	1908.93
844.031	1972.09
844.211	1941.86
844.391	1943.22
844.571	1945.55
844.751	1987.98
844.93	1952.71
845.11	1938.76
845.29	1934.5
845.47	2004.64
845.649	1941.09
845.829	1974.8
846.009	1904.86
846.188	1976.35
846.368	1901.56
846.547	1945.93
846.727	1971.51
846.907	1889.36
847.086	1950
847.266	1924.04
847.445	1925.4
847.625	1913.77
847.804	1847.9
847.984	1888.2
848.163	1869.79
848.343	1872.5
848.522	1891.88
848.701	1877.35
848.881	1835.3
849.06	1905.44
849.239	1869.98
849.419	1917.65
849.598	1807.21
849.777	1790.93
849.957	1794.23
850.136	1730.1
850.315	1707.62
850.494	1703.36
850.674	1747.73
850.853	1763.23
851.032	1765.94
851.211	1800.82
851.39	1751.41
851.569	1668.68
851.748	1728.35
851.927	1771.95
852.107	1784.93
852.286	1687.67
852.465	1703.94
852.644	1738.82
852.823	1758.39
853.002	1730.49
853.181	1761.1
853.359	1761.68
853.538	1666.36
853.717	1789
853.896	1641.56
854.075	1562.31
854.254	1526.66
854.433	1471.83
854.611	1506.32
854.79	1467.18
854.969	1518.72
855.148	1531.31
855.327	1515.23
855.505	1608.42
855.684	1536.35
855.863	1608.81
856.041	1577.81
856.22	1596.8
856.399	1611.72
856.577	1696
856.756	1677.21
856.934	1771.75
857.113	1778.73
857.291	1650.47
857.47	1641.17
857.648	1678.17
857.827	1687.86
858.005	1702
858.184	1631.29
858.362	1727.39
858.541	1671.78
858.719	1632.26
858.898	1649.5
859.076	1635.74
859.254	1716.54
859.433	1631.48
859.611	1639.42
859.789	1579.94
859.967	1682.82
860.146	1689.41
860.324	1559.02
860.502	1564.25
860.68	1504.38
860.859	1595.25
861.037	1591.18
861.215	1596.41
861.393	1611.52
861.571	1564.06
861.749	1591.57
861.927	1604.94
862.105	1625.09
862.283	1569.29
862.461	1549.91
862.639	1545.84
862.817	1544.49
862.995	1566.58
863.173	1543.91
863.351	1539.26
863.529	1609.39
863.707	1593.12
863.885	1583.43
864.063	1498.38
864.241	1535.19
864.418	1629.74
864.596	1518.33
864.774	1464.08
864.952	1504.77
865.129	1553.21
865.307	1477.45
865.485	1439.09
865.663	1514.07
865.84	1438.31
866.018	1472.22
866.196	1316.45
866.373	1327.1
866.551	1306.76
866.728	1257.74
866.906	1315.48
867.084	1332.92
867.261	1350.16
867.439	1394.72
867.616	1401.5
867.794	1377.87
867.971	1395.88
868.149	1416.81
868.326	1469.9
868.503	1412.16
868.681	1402.86
868.858	1417.97
869.035	1391.43
869.213	1434.25
869.39	1421.46
869.567	1479
869.745	1398.4
869.922	1436.96
870.099	1415.45
870.276	1415.45
870.454	1408.48
870.631	1450.91
870.808	1390.65
870.985	1474.55
871.162	1481.91
871.339	1390.85
871.517	1374.38
871.694	1342.8
871.871	1380.19
872.048	1401.7
872.225	1353.65
872.402	1394.53
872.579	1346.09
872.756	1407.32
872.933	1344.73
873.11	1341.05
873.287	1360.82
873.463	1358.88
873.64	1305.21
873.817	1373.22
873.994	1347.64
874.171	1317.03
874.348	1339.31
874.524	1252.51
874.701	1308.89
874.878	1259.49
875.055	1328.65
875.231	1308.7
875.408	1343.57
875.585	1250.38
875.762	1328.07
875.938	1273.05
876.115	1288.74
876.291	1301.92
876.468	1271.11
876.645	1221.12
876.821	1241.66
876.998	1267.04
877.174	1275.95
877.351	1270.34
877.527	1206.79
877.704	1286.03
877.88	1270.14
878.057	1237.79
878.233	1290.1
878.409	1217.64
878.586	1249.61
878.762	1250.38
878.938	1250.96
879.115	1145.56
879.291	1224.42
879.467	1141.88
879.644	1216.67
879.82	1244.96
879.996	1210.86
880.172	1147.11
880.349	1237.21
880.525	1222.29
880.701	1167.26
880.877	1169.2
881.053	1204.07
881.229	1167.07
881.405	1235.46
881.581	1187.61
881.757	1165.71
881.933	1203.88
882.109	1219.19
882.285	1188.19
882.461	1142.08
882.637	1188.19
882.813	1152.34
882.989	1157.96
883.165	1243.02
883.341	1157.58
883.517	1225.77
883.693	1198.84
883.869	1224.03
884.044	1152.54
884.22	1227.52
884.396	1256
884.572	1206.59
884.747	1225.39
884.923	1212.79
885.099	1205.24
885.275	1240.31
885.45	1171.91
885.626	1184.7
885.801	1129.29
885.977	1181.21
886.153	1118.63
886.328	1201.75
886.504	1170.17
886.679	1204.07
886.855	1157.38
887.03	1207.56
887.206	1178.5
887.381	1198.46
887.557	1195.74
887.732	1216.47
887.908	1220.54
888.083	1236.82
888.258	1182.76
888.434	1184.31
888.609	1151.76
888.784	1223.06
888.96	1175.79
889.135	1135.88
889.31	1122.7
889.485	1197.29
889.661	1206.01
889.836	1232.56
890.011	1199.81
890.186	1160.48
890.361	1144.4
890.537	1171.91
890.712	1150.6
890.887	1191.67
891.062	1182.57
891.237	1214.34
891.412	1123.09
891.587	1171.72
891.762	1200.01
891.937	1220.54
892.112	1156.61
892.287	1183.15
892.462	1132.39
892.637	1101.97
892.812	1083.76
892.987	1115.92
893.161	1096.93
893.336	1095.96
893.511	1078.72
893.686	1119.6
893.861	1105.26
894.035	1110.69
894.21	1101.39
894.385	1069.42
894.56	1097.13
894.734	1029.12
894.909	1042.88
895.084	1030.48
895.258	1001.22
895.433	1015.56
895.608	998.9
895.782	951.82
895.957	960.15
896.131	957.63
896.306	904.15
896.48	915.97
896.655	916.17
896.829	830.14
897.004	856.69
897.178	896.02
897.353	845.84
897.527	887.1
897.701	864.44
897.876	799.92
898.05	916.75
898.224	846.03
898.399	938.45
898.573	835.57
898.747	762.72
898.921	812.51
899.096	695.49
899.27	728.62
899.444	719.32
899.618	718.93
899.792	760.59
899.967	772.02
900.141	819.1
900.315	717.58
900.489	747.41
900.663	743.92
900.837	753.61
901.011	722.23
901.185	823.55
901.359	768.92
901.533	773.18
901.707	751.87
901.881	761.56
902.055	701.11
902.229	738.69
902.403	799.14
902.576	743.54
902.75	766.79
902.924	879.74
903.098	802.44
903.272	897.95
903.446	888.65
903.619	857.65
903.793	907.06
903.967	839.44
904.14	938.06
904.314	931.67
904.488	878.39
904.661	936.51
904.835	875.29
905.009	950.65
905.182	977.39
905.356	947.55
905.529	926.82
905.703	886.14
905.876	854.75
906.05	869.09
906.223	815.22
906.397	801.86
906.57	771.63
906.744	755.94
906.917	763.69
907.09	758.46
907.264	741.21
907.437	721.26
907.61	683.67
907.784	697.04
907.957	732.11
908.13	661.19
908.304	706.53
908.477	694.33
908.65	682.89
908.823	634.85
908.996	752.64
909.17	649.57
909.343	658.09
909.516	666.23
909.689	674.37
909.862	646.28
910.035	690.06
910.208	663.52
910.381	625.93
910.554	736.17
910.727	646.08
910.9	630.78
911.073	655.96
911.246	700.72
911.419	721.45
911.592	692.39
911.765	652.86
911.938	640.08
912.11	673.21
912.283	646.08
912.456	714.48
912.629	692
912.802	625.16
912.974	621.48
913.147	556.38
913.32	495.54
913.493	545.92
913.665	590.67
913.838	600.36
914.01	566.45
914.183	598.81
914.356	587.76
914.528	625.35
914.701	695.68
914.873	651.31
915.046	594.35
915.218	557.54
915.391	488.18
915.563	496.9
915.736	569.55
915.908	617.02
916.081	570.91
916.253	577.69
916.425	575.95
916.598	586.99
916.77	574.98
916.942	564.9
917.115	487.21
917.287	576.53
917.459	502.71
917.632	500.38
917.804	438.19
917.976	542.04
918.148	558.51
918.32	528.87
918.493	581.56
918.665	652.09
918.837	572.26
919.009	621.28
919.181	619.93
919.353	575.17
919.525	600.94
919.697	576.33
919.869	582.73
920.041	633.88
920.213	722.61
920.385	620.12
920.557	589.7
920.729	666.62
920.901	592.22
921.073	591.64
921.244	570.91
921.416	642.01
921.588	592.41
921.76	572.85
921.932	656.35
922.103	594.35
922.275	549.4
922.447	591.83
922.619	518.02
922.79	592.61
922.962	538.94
923.134	607.33
923.305	537.97
923.477	504.26
923.648	503.87
923.82	520.73
923.991	497.67
924.163	471.32
924.335	521.89
924.506	460.47
924.677	564.51
924.849	493.6
925.02	523.05
925.192	534.48
925.363	497.87
925.535	521.12
925.706	498.64
925.877	576.14
926.049	492.25
926.22	514.72
926.391	504.45
926.562	540.68
926.734	475.97
926.905	543.01
927.076	446.33
927.247	479.46
927.419	450.2
927.59	440.32
927.761	440.52
927.932	398.67
928.103	425.02
928.274	383.94
928.445	375.61
928.616	411.84
928.787	388.79
928.958	441.49
929.129	386.27
929.3	385.88
929.471	326.01
929.642	280.09
929.813	239.21
929.984	331.44
930.155	256.07
930.326	343.64
930.496	265.76
930.667	228.75
930.838	272.93
931.009	201.82
931.18	233.79
931.35	261.69
931.521	256.26
931.692	176.25
931.863	121.8
932.033	196.01
932.204	203.56
932.374	187.87
932.545	130.71
932.716	233.59
932.886	219.26
933.057	116.38
933.227	107.66
933.398	214.61
933.568	96.23
933.739	58.45
933.909	58.06
934.08	150.86
934.25	50.89
934.421	67.55
934.591	106.3
934.761	89.06
934.932	31.71
935.102	113.47
935.272	92.35
935.443	112.12
935.613	103.78
935.783	110.57
935.953	28.8
936.123	226.04
936.294	56.32
936.464	65.62
936.634	81.7
936.804	32.1
936.974	19.7
937.144	96.81
937.314	84.8
937.484	101.07
937.655	65.81
937.825	157.65
937.995	72.59
938.165	134.59
938.334	85.57
938.504	117.54
938.674	78.79
938.844	110.57
939.014	184.96
939.184	137.69
939.354	219.64
939.524	196.4
939.694	164.62
939.863	122.58
940.033	231.66
940.203	202.98
940.373	189.23
940.542	171.01
940.712	138.85
940.882	209.57
941.051	197.95
941.221	180.9
941.391	202.6
941.56	147.18
941.73	148.93
941.899	266.73
942.069	134.78
942.238	172.76
942.408	126.65
942.577	178.38
942.747	139.43
942.916	87.9
943.086	119.48
943.255	167.14
943.425	136.14
943.594	87.7
943.763	33.65
943.933	66.97
944.102	39.46
944.271	94.68
944.441	114.44
944.61	86.93
944.779	119.48
944.948	196.59
945.117	70.46
945.287	97.58
945.456	26.48
945.625	83.05
945.794	118.12
945.963	87.32
946.132	138.46
946.301	108.63
946.47	131.68
946.639	58.83
946.808	103.01
946.977	142.73
947.146	152.41
947.315	96.42
947.484	130.71
947.653	84.99
947.822	86.93
947.991	86.54
948.16	192.71
948.329	133.04
948.498	121.61
948.666	87.9
948.835	158.61
949.004	61.35
949.173	74.33
949.341	121.8
949.51	125.48
949.679	161.52
949.847	143.7
950.016	215.58
950.185	180.31
950.353	114.44
950.522	107.85
950.69	168.3
950.859	111.34
951.028	169.27
951.196	130.91
951.365	82.08
951.533	102.82
951.701	130.91
951.87	144.08
952.038	62.71
952.207	114.44
952.375	169.46
952.543	92.16
952.712	107.85
952.88	107.27
953.048	169.66
953.217	117.93
953.385	102.23
953.553	163.65
953.721	83.83
953.89	111.34
954.058	55.54
954.226	61.55
954.394	140.21
954.562	72.4
954.73	102.04
954.898	80.73
955.067	139.24
955.235	85.77
955.403	172.76
955.571	162.68
955.739	114.05
955.907	79.57
956.075	72.2
956.243	89.45
956.41	159.2
956.578	66.39
956.746	62.71
956.914	111.15
957.082	144.08
957.25	148.15
957.418	73.17
957.585	110.95
957.753	168.11
957.921	59.8
958.089	119.09
958.256	118.31
958.424	138.08
958.592	103.98
958.759	92.35
958.927	120.45
959.095	93.13
959.262	93.52
959.43	120.06
959.597	80.73
959.765	102.04
959.932	74.53
960.1	135.75
960.267	123.93
960.435	123.16
960.602	150.67
960.77	86.93
960.937	59.42
961.104	129.75
961.272	60.19
961.439	104.75
961.606	99.72
961.774	129.36
961.941	96.62
962.108	120.45
962.275	111.15
962.443	141.37
962.61	141.18
962.777	182.45
962.944	167.33
963.111	108.05
963.278	116.96
963.446	112.7
963.613	125.68
963.78	144.86
963.947	127.23
964.114	110.18
964.281	211.31
964.448	155.13
964.615	98.94
964.782	136.33
964.949	168.5
965.116	163.85
965.282	193.88
965.449	102.43
965.616	73.56
965.783	149.31
965.95	150.67
966.117	88.48
966.283	147.76
966.45	156.1
966.617	131.68
966.784	156.29
966.95	178.18
967.117	160.75
967.284	111.73
967.45	96.81
967.617	200.08
967.784	167.72
967.95	208.99
968.117	128.97
968.283	170.43
968.45	243.48
968.616	159.39
968.783	179.15
968.949	158.23
969.116	200.08
969.282	132.46
969.449	162.68
969.615	143.89
969.781	95.84
969.948	125.48
970.114	98.75
970.28	184.96
970.447	145.25
970.613	209.18
970.779	131.3
970.945	161.91
971.112	163.46
971.278	142.34
971.444	132.26
971.61	175.28
971.776	118.31
971.942	159.58
972.108	176.63
972.275	128.39
972.441	152.41
972.607	214.99
972.773	101.07
972.939	160.94
973.105	151.64
973.271	98.36
973.437	126.45
973.602	115.41
973.768	157.45
973.934	117.73
974.1	161.13
974.266	46.43
974.432	138.85
974.598	98.75
974.763	166.95
974.929	137.3
975.095	214.03
975.261	90.03
975.426	83.25
975.592	139.24
975.758	189.23
975.923	93.71
976.089	100.88
976.255	149.9
976.42	131.1
976.586	130.13
976.751	139.24
976.917	230.49
977.082	122.38
977.248	82.67
977.413	62.13
977.579	122.19
977.744	116.96
977.91	75.3
978.075	95.07
978.24	134.78
978.406	117.35
978.571	91.77
978.736	107.08
978.902	153.58
979.067	95.84
979.232	36.75
979.397	132.85
979.563	174.7
979.728	75.5
979.893	123.35
980.058	71.82
980.223	173.73
980.388	117.93
980.554	109.4
980.719	118.9
980.884	117.35
981.049	150.09
981.214	118.31
981.379	122.96
981.544	105.33
981.709	110.76
981.874	111.15
982.039	111.34
982.204	164.04
982.368	114.44
982.533	95.84
982.698	134.59
982.863	171.79
983.028	90.8
983.193	126.84
983.357	130.13
983.522	117.93
983.687	114.44
983.852	106.3
984.016	94.48
984.181	115.8
984.346	148.93
984.51	124.13
984.675	115.8
984.839	124.13
985.004	136.91
985.168	146.21
985.333	109.02
985.498	114.05
985.662	133.43
985.827	116.38
985.991	77.63
986.155	103.78
986.32	168.11
986.484	177.8
986.649	115.8
986.813	60
986.977	131.1
987.142	126.65
987.306	55.35
987.47	77.24
987.634	101.65
987.799	119.48
987.963	116.18
988.127	147.38
988.291	185.55
988.455	123.93
988.62	70.07
988.784	110.95
988.948	133.62
989.112	68.52
989.276	134.78
989.44	131.68
989.604	84.8
989.768	103.59
989.932	194.65
990.096	71.82
990.26	67.36
990.424	73.17
990.588	95.07
990.752	170.05
990.915	121.61
991.079	95.26
991.243	80.73
991.407	117.93
991.571	81.12
991.734	123.55
991.898	115.6
992.062	195.62
992.226	83.83
992.389	72.98
992.553	40.62
992.717	60
992.88	106.69
993.044	107.27
993.207	74.33
993.371	111.34
993.535	118.31
993.698	88.87
993.862	129.94
994.025	145.05
994.189	111.15
994.352	122
994.515	105.72
994.679	140.79
994.842	47.4
995.006	134.2
995.169	69.88
995.332	66.78
995.496	110.37
995.659	34.23
995.822	91.58
995.985	85.96
996.149	164.23
996.312	104.75
996.475	184.38
996.638	61.16
996.801	139.43
996.964	180.51
997.128	77.24
997.291	79.18
997.454	82.47
997.617	60.77
997.78	134.2
997.943	54.77
998.106	74.92
998.269	77.63
998.432	94.29
998.595	91.97
998.758	43.33
998.92	40.62
999.083	13.3
999.246	77.43
999.409	49.53
999.572	5.75
999.735	57.09
999.897	87.9
1000.06	61.93
1000.223	72.4
1000.386	96.23
1000.548	101.07
1000.711	100.88
1000.874	80.73
1001.036	11.56
1001.199	119.09
1001.361	52.63
1001.524	67.94
1001.687	115.99
1001.849	45.27
1002.012	66.97
1002.174	78.6
1002.337	100.49
1002.499	73.75
1002.661	134.4
1002.824	28.61
1002.986	51.86
1003.149	79.57
1003.311	5.17
1003.473	141.76
1003.636	57.28
1003.798	70.65
1003.96	63.29
1004.123	50.7
1004.285	36.55
1004.447	63.48
1004.609	56.9
1004.771	133.62
1004.933	10.98
1005.096	48.95
1005.258	8.85
1005.42	25.12
1005.582	110.57
1005.744	63.68
1005.906	21.05
1006.068	72.98
1006.23	4.97
1006.392	12.14
1006.554	26.87
1006.716	92.35
1006.878	80.34
1007.04	18.92
1007.202	38.88
1007.363	79.76
1007.525	62.9
1007.687	84.8
1007.849	131.68
1008.011	-11.11
1008.172	20.47
1008.334	54.77
1008.496	91.58
1008.658	22.99
1008.819	18.92
1008.981	-20.41
1009.143	25.9
1009.304	38.88
1009.466	86.93
1009.627	103.01
1009.789	138.85
1009.95	85.57
1010.112	45.66
1010.273	40.43
1010.435	49.53
1010.596	21.44
1010.758	43.72
1010.919	32.29
1011.081	23.77
1011.242	55.93
1011.403	54.96
1011.565	61.16
1011.726	53.8
1011.887	28.03
1012.049	37.13
1012.21	78.4
1012.371	103.98
1012.532	-29.13
1012.693	39.27
1012.855	28.03
1013.016	31.32
1013.177	84.02
1013.338	50.31
1013.499	105.14
1013.66	78.6
1013.821	86.35
1013.982	54.57
1014.143	55.54
1014.304	29.19
1014.465	52.44
1014.626	85.18
1014.787	35
1014.948	122.19
1015.109	-47.92
1015.27	78.02
1015.431	22.22
1015.592	-3.94
1015.752	72.59
1015.913	54.96
1016.074	72.78
1016.235	48.37
1016.395	28.61
1016.556	61.16
1016.717	28.8
1016.877	67.94
1017.038	5.55
1017.199	31.71
1017.359	61.55
1017.52	58.25
1017.681	28.42
1017.841	45.85
1018.002	33.84
1018.162	27.64
1018.323	85.57
1018.483	31.71
1018.644	33.45
1018.804	-15.18
1018.964	1.49
1019.125	14.47
1019.285	50.7
1019.446	0.52
1019.606	13.5
1019.766	-4.91
1019.926	53.41
1020.087	55.73
1020.247	-1.42
1020.407	75.3
1020.567	72.2
1020.728	21.83
1020.888	-16.15
1021.048	15.44
1021.208	11.75
1021.368	-11.5
1021.528	83.63
1021.688	85.96
1021.848	80.34
1022.008	33.45
1022.168	29.38
1022.328	40.23
1022.488	51.86
1022.648	-17.5
1022.808	15.82
1022.968	31.52
1023.128	5.94
1023.288	23.77
1023.448	13.69
1023.608	67.36
1023.767	44.5
1023.927	-17.7
1024.087	-18.47
1024.247	-22.93
1024.406	18.15
1024.566	0.13
1024.726	-12.46
1024.885	63.48
1025.045	75.11
1025.205	37.33
1025.364	18.15
1025.524	32.68
1025.683	7.69
1025.843	31.52
1026.003	52.44
1026.162	70.85
1026.321	55.35
1026.481	14.85
1026.64	4.78
1026.8	37.33
1026.959	38.3
1027.119	36.17
1027.278	-3.36
1027.437	8.85
1027.597	42.37
1027.756	38.3
1027.915	28.8
1028.074	37.13
1028.234	3.42
1028.393	16.21
1028.552	2.45
1028.711	-51.41
1028.87	68.91
1029.03	-33.58
1029.189	24.54
1029.348	-59.54
1029.507	3.81
1029.666	1.1
1029.825	-40.56
1029.984	-20.6
1030.143	32.29
1030.302	-2.97
1030.461	-42.88
1030.62	4.2
1030.779	39.07
1030.938	-17.11
1031.097	-28.74
1031.255	41.98
1031.414	76.08
1031.573	73.37
1031.732	-48.5
1031.891	7.88
1032.049	81.5
1032.208	23.38
1032.367	18.15
1032.525	14.66
1032.684	7.3
1032.843	16.4
1033.001	-32.81
1033.16	178.76
1033.319	73.95
1033.477	35.2
1033.636	-1.81
1033.794	-32.61
1033.953	58.64
1034.111	40.82
1034.27	-16.15
1034.428	46.63
1034.587	-23.7
1034.745	9.04
1034.903	11.75
1035.062	24.54
1035.22	-31.65
1035.378	54.18
1035.537	-31.06
1035.695	27.25
1035.853	-2.2
1036.011	60.58
1036.17	21.44
1036.328	-58.38
1036.486	13.69
1036.644	14.47
1036.802	-63.81
1036.96	-2.58
1037.119	0.71
1037.277	-31.45
1037.435	-16.92
1037.593	-15.18
1037.751	33.07
1037.909	45.27
1038.067	45.27
