Data from gum_old_FLMT105791__146__15-46-35-252.txt Node

Date: Mon Mar 20 15:46:35 GMT 2023
User: antho
Spectrometer: FLMT10579
Trigger mode: 0
Integration Time (sec): 1.000000E-1
Scans to average: 10
Electric dark correction enabled: true
Nonlinearity correction enabled: false
Boxcar width: 0
XAxis mode: Wavelengths
Number of Pixels in Spectrum: 3648
>>>>>Begin Spectral Data<<<<<
345.248	-192.73
345.464	-192.73
345.681	-192.73
345.898	-169.48
346.114	-184.4
346.331	-41.41
346.548	17.87
346.764	-11
346.981	-8.67
347.197	-11
347.414	16.13
347.631	-35.21
347.847	56.82
348.064	20.2
348.28	46.94
348.497	-33.86
348.713	-16.81
348.93	52.55
349.146	9.35
349.363	-13.32
349.579	19.62
349.796	-4.02
350.012	-11.77
350.229	19.62
350.445	0.63
350.661	-7.51
350.878	14.19
351.094	36.28
351.311	31.63
351.527	19.23
351.743	21.17
351.96	36.28
352.176	66.7
352.392	21.94
352.609	28.34
352.825	-4.8
353.041	28.34
353.257	24.46
353.474	24.27
353.69	49.84
353.906	18.45
354.122	-4.6
354.339	56.62
354.555	7.99
354.771	5.47
354.987	81.42
355.203	100.41
355.42	20.2
355.636	-18.94
355.852	15.94
356.068	22.52
356.284	-6.54
356.5	79.1
356.716	18.65
356.932	32.4
357.148	38.02
357.364	-22.62
357.58	50.23
357.796	57.2
358.012	63.21
358.228	43.06
358.444	-59.43
358.66	70.38
358.876	41.7
359.092	12.64
359.308	27.95
359.524	32.21
359.74	5.47
359.956	11.48
360.172	22.14
360.388	51.97
360.604	-16.23
360.819	119.01
361.035	42.29
361.251	53.14
361.467	-15.06
361.683	33.57
361.898	36.47
362.114	76.97
362.33	32.21
362.546	66.12
362.762	1.4
362.977	37.44
363.193	0.44
363.409	62.24
363.624	4.89
363.84	10.12
364.056	2.18
364.271	38.6
364.487	45.58
364.703	24.27
364.918	7.8
365.134	31.05
365.35	0.63
365.565	164.73
365.781	41.51
365.996	74.45
366.212	97.31
366.427	47.9
366.643	17.87
366.858	20.78
367.074	2.95
367.289	78.52
367.505	142.26
367.72	-8.28
367.936	-12.93
368.151	91.88
368.367	76
368.582	34.54
368.798	30.27
369.013	92.27
369.228	41.32
369.444	32.21
369.659	91.3
369.874	86.65
370.09	72.12
370.305	-17
370.52	29.5
370.736	82
370.951	46.16
371.166	94.02
371.381	82.97
371.597	80.45
371.812	1.21
372.027	28.14
372.242	46.74
372.458	111.26
372.673	0.05
372.888	59.34
373.103	52.55
373.318	133.93
373.533	52.36
373.749	63.21
373.964	-20.3
374.179	89.56
374.394	23.88
374.609	100.41
374.824	0.05
375.039	74.25
375.254	27.75
375.469	98.67
375.684	53.14
375.899	80.45
376.114	51.39
376.329	97.5
376.544	72.7
376.759	87.04
376.974	38.41
377.189	14.39
377.404	35.5
377.619	79.68
377.834	-0.15
378.049	18.45
378.264	13.22
378.478	76.19
378.693	19.42
378.908	53.14
379.123	33.18
379.338	125.79
379.553	50.81
379.767	64.76
379.982	78.13
380.197	85.1
380.412	46.35
380.626	58.95
380.841	157.37
381.056	68.05
381.271	124.82
381.485	52.75
381.7	23.49
381.915	84.33
382.129	33.76
382.344	44.8
382.559	38.99
382.773	77.55
382.988	-3.25
383.202	77.16
383.417	9.54
383.632	143.42
383.846	54.69
384.061	65.34
384.275	34.54
384.49	59.53
384.704	94.98
384.919	65.34
385.133	67.67
385.348	78.13
385.562	15.74
385.777	119.4
385.991	89.95
386.206	57.01
386.42	50.04
386.634	103.7
386.849	86.46
387.063	72.9
387.277	58.56
387.492	47.71
387.706	19.42
387.92	33.95
388.135	117.27
388.349	56.82
388.563	75.61
388.778	86.46
388.992	94.98
389.206	110.68
389.42	145.17
389.635	82.39
389.849	95.76
390.063	102.93
390.277	111.65
390.491	167.25
390.706	111.84
390.92	103.7
391.134	91.5
391.348	127.34
391.562	36.09
391.776	60.5
391.99	71.15
392.205	117.85
392.419	62.82
392.633	81.23
392.847	125.4
393.061	89.37
393.275	147.1
393.489	53.72
393.703	58.75
393.917	110.29
394.131	64.57
394.345	78.13
394.559	119.98
394.773	64.37
394.986	99.44
395.2	89.37
395.414	124.82
395.628	67.28
395.842	106.8
396.056	101.18
396.27	25.43
396.484	116.68
396.697	101.57
396.911	121.72
397.125	113.2
397.339	125.98
397.553	96.34
397.766	137.8
397.98	111.26
398.194	166.28
398.408	82.97
398.621	115.91
398.835	163.18
399.049	148.85
399.262	155.43
399.476	122.3
399.69	181.4
399.903	198.45
400.117	160.47
400.331	169.77
400.544	134.9
400.758	268.19
400.971	167.45
401.185	184.69
401.398	117.85
401.612	211.04
401.826	204.65
402.039	177.52
402.253	135.09
402.466	190.5
402.68	178.68
402.893	163.76
403.106	195.15
403.32	186.82
403.533	210.85
403.747	170.93
403.96	171.71
404.174	203.29
404.387	117.85
404.6	154.27
404.814	199.8
405.027	184.5
405.24	147.3
405.454	148.07
405.667	205.81
405.88	114.17
406.094	203.87
406.307	212.2
406.52	188.56
406.733	159.7
406.947	129.08
407.16	231.96
407.373	243.78
407.586	137.61
407.799	134.51
408.012	237.97
408.226	174.61
408.439	244.36
408.652	172.1
408.865	204.84
409.078	238.36
409.291	229.06
409.504	162.41
409.717	247.66
409.93	198.83
410.143	203.68
410.357	157.76
410.57	159.11
410.783	165.12
410.996	207.55
411.209	193.8
411.421	263.54
411.634	208.33
411.847	201.16
412.06	224.8
412.273	221.31
412.486	226.15
412.699	327.09
412.912	196.7
413.125	267.61
413.338	239.91
413.55	245.33
413.763	202.51
413.976	257.34
414.189	196.7
414.402	203.1
414.615	281.76
414.827	210.26
415.04	293.77
415.253	208.71
415.466	257.54
415.678	298.23
415.891	226.54
416.104	232.16
416.316	220.92
416.529	207.75
416.742	263.16
416.954	280.79
417.167	237.39
417.38	204.26
417.592	308.69
417.805	210.85
418.017	187.98
418.23	243.2
418.442	223.25
418.655	240.68
418.868	236.23
419.08	272.65
419.293	282.14
419.505	243.01
419.718	288.34
419.93	281.56
420.142	247.27
420.355	299.39
420.567	291.83
420.78	266.45
420.992	228.48
421.205	288.15
421.417	217.05
421.629	257.15
421.842	212.59
422.054	218.6
422.266	274.39
422.479	271.88
422.691	244.94
422.903	290.67
423.115	216.27
423.328	260.06
423.54	258.51
423.752	272.65
423.964	234.87
424.177	282.73
424.389	247.08
424.601	375.34
424.813	266.64
425.025	314.89
425.238	314.5
425.45	273.04
425.662	251.53
425.874	565.21
426.086	273.43
426.298	291.44
426.51	268.19
426.722	252.69
426.934	276.53
427.146	288.73
427.358	230.61
427.57	294.54
427.782	254.44
427.994	256.96
428.206	232.55
428.418	228.86
428.63	267.81
428.842	336.2
429.054	267.03
429.266	309.46
429.478	276.14
429.69	279.04
429.902	224.41
430.114	275.36
430.325	263.74
430.537	223.63
430.749	229.83
430.961	155.05
431.173	231.19
431.384	264.13
431.596	160.28
431.808	220.92
432.02	273.23
432.231	287.38
432.443	354.02
432.655	289.89
432.867	260.83
433.078	324.77
433.29	384.06
433.502	333.49
433.713	357.9
433.925	309.46
434.136	364.68
434.348	238.75
434.56	252.5
434.771	387.16
434.983	258.31
435.194	267.81
435.406	297.45
435.617	344.72
435.829	409.44
436.04	358.29
436.252	374.17
436.463	405.17
436.675	387.74
436.886	320.12
437.098	345.5
437.309	398.01
437.521	339.3
437.732	373.79
437.943	362.74
438.155	352.86
438.366	290.86
438.578	417.57
438.789	336.2
439	369.14
439.211	359.26
439.423	315.08
439.634	361.39
439.845	385.8
440.057	390.84
440.268	406.92
440.479	333.1
440.69	365.07
440.902	364.68
441.113	328.64
441.324	335.62
441.535	387.35
441.746	426.29
441.957	347.05
442.168	368.36
442.38	420.87
442.591	396.07
442.802	353.06
443.013	350.34
443.224	411.76
443.435	365.84
443.646	392.97
443.857	368.36
444.068	370.69
444.279	359.64
444.49	425.32
444.701	400.91
444.912	529.17
445.123	446.44
445.334	424.16
445.545	445.28
445.756	414.47
445.967	341.04
446.178	425.32
446.388	431.72
446.599	441.99
446.81	427.84
447.021	408.08
447.232	431.52
447.443	479.57
447.653	382.51
447.864	481.51
448.075	424.35
448.286	442.95
448.496	423.97
448.707	453.22
448.918	418.54
449.129	528.59
449.339	387.16
449.55	458.26
449.761	427.65
449.971	493.72
450.182	434.24
450.393	471.82
450.603	423.39
450.814	494.3
451.024	463.3
451.235	518.32
451.446	541.57
451.656	529.75
451.867	444.5
452.077	459.04
452.288	513.09
452.498	496.82
452.709	424.94
452.919	456.52
453.13	404.79
453.34	493.91
453.55	415.06
453.761	484.42
453.971	475.31
454.182	481.12
454.392	481.9
454.602	526.65
454.813	484.03
455.023	490.23
455.233	437.72
455.444	458.84
455.654	370.11
455.864	456.13
456.075	451.87
456.285	446.64
456.495	454.77
456.705	484.03
456.916	494.1
457.126	545.25
457.336	470.47
457.546	438.69
457.756	449.74
457.967	532.47
458.177	444.89
458.387	476.86
458.597	449.15
458.807	467.17
459.017	466.79
459.227	435.4
459.437	444.31
459.647	528.4
459.857	517.16
460.068	461.94
460.278	515.8
460.488	505.53
460.698	550.29
460.908	474.54
461.117	451.29
461.327	447.22
461.537	502.82
461.747	481.12
461.957	507.67
462.167	614.61
462.377	557.07
462.587	504.57
462.797	562.3
463.007	510.77
463.216	542.15
463.426	580.71
463.636	537.12
463.846	474.15
464.056	492.55
464.265	533.24
464.475	496.04
464.685	502.82
464.895	557.07
465.104	522
465.314	590.98
465.524	490.42
465.733	484.03
465.943	596.4
466.153	582.84
466.362	557.65
466.572	524.33
466.782	516
466.991	535.18
467.201	580.13
467.41	479.38
467.62	550.1
467.829	513.09
468.039	529.17
468.249	526.65
468.458	513.67
468.668	583.03
468.877	566.95
469.086	608.22
469.296	602.41
469.505	533.05
469.715	626.24
469.924	593.11
470.134	617.33
470.343	646
470.552	564.63
470.762	548.55
470.971	520.45
471.18	583.23
471.39	571.41
471.599	551.84
471.808	587.88
472.018	545.45
472.227	622.17
472.436	654.14
472.645	626.05
472.855	583.42
473.064	675.26
473.273	627.79
473.482	647.94
473.691	642.51
473.901	647.16
474.11	627.98
474.319	727.96
474.528	635.93
474.737	706.64
474.946	686.3
475.155	685.72
475.364	720.59
475.573	664.6
475.783	677.78
475.992	701.41
476.201	737.45
476.41	666.93
476.619	647.94
476.828	684.56
477.037	641.35
477.245	709.16
477.454	732.03
477.663	659.76
477.872	716.33
478.081	775.62
478.29	649.3
478.499	813.79
478.708	739.97
478.917	787.63
479.125	715.36
479.334	756.05
479.543	705.87
479.752	734.54
479.961	756.44
480.169	794.8
480.378	751.59
480.587	905.82
480.796	804.87
481.004	783.95
481.213	819.21
481.422	786.86
481.63	794.41
481.839	797.12
482.048	874.82
482.256	789.18
482.465	821.34
482.674	853.89
482.882	849.05
483.091	879.47
483.299	830.45
483.508	855.25
483.716	838.59
483.925	832.97
484.134	818.05
484.342	793.44
484.551	873.07
484.759	849.63
484.967	857.57
485.176	869.39
485.384	902.91
485.593	913.95
485.801	874.43
486.01	876.75
486.218	799.06
486.426	733.58
486.635	775.04
486.843	754.31
487.051	779.11
487.26	772.71
487.468	829.09
487.676	832.39
487.885	831.81
488.093	834.32
488.301	878.69
488.509	897.68
488.717	954.83
488.926	889.93
489.134	887.6
489.342	886.83
489.55	872.49
489.758	890.7
489.967	877.53
490.175	993
490.383	905.24
490.591	1002.69
490.799	883.34
491.007	1006.95
491.215	965.88
491.423	937.59
491.631	958.13
491.839	950.18
492.047	979.63
492.255	931.39
492.463	900.39
492.671	917.44
492.879	1001.14
493.087	909.89
493.295	988.93
493.503	991.65
493.711	1057.13
493.919	1029.43
494.127	1018
494.334	1000.95
494.542	950.18
494.75	1006.76
494.958	999.59
495.166	1023.03
495.374	1021.87
495.581	1022.07
495.789	1023.81
495.997	1078.83
496.205	1016.45
496.412	991.45
496.62	1033.3
496.828	1041.63
497.035	1006.18
497.243	1042.6
497.451	1021.1
497.658	1064.69
497.866	1032.14
498.074	1097.63
498.281	1020.32
498.489	1106.93
498.696	1054.42
498.904	1047.83
499.112	1015.48
499.319	1104.02
499.527	1006.57
499.734	1109.45
499.942	1018.77
500.149	1051.71
500.357	1071.86
500.564	1029.62
500.771	1075.54
500.979	1018.97
501.186	1026.72
501.394	1037.76
501.601	1029.23
501.808	1057.13
502.016	1064.5
502.223	1034.66
502.43	1012.57
502.638	1038.73
502.845	993.39
503.052	1106.35
503.26	1041.44
503.467	1129.59
503.674	1077.67
503.881	1109.06
504.089	1182.1
504.296	1100.73
504.503	1066.82
504.71	1065.85
504.917	1032.33
505.125	1086.97
505.332	1098.79
505.539	1124.36
505.746	1191.4
505.953	1156.91
506.16	1122.43
506.367	1232.09
506.574	1223.76
506.781	1205.93
506.988	1115.26
507.195	1185.59
507.402	1127.08
507.609	1171.06
507.816	1135.41
508.023	1137.54
508.23	1120.29
508.437	1068.18
508.644	1175.9
508.851	1176.29
509.058	1164.86
509.265	1175.32
509.472	1209.22
509.679	1281.11
509.885	1156.33
510.092	1191.01
510.299	1170.86
510.506	1185.39
510.713	1194.69
510.92	1157.88
511.126	1165.44
511.333	1238.67
511.54	1232.86
511.746	1261.54
511.953	1254.56
512.16	1276.46
512.367	1220.85
512.573	1222.98
512.78	1244.29
512.987	1227.82
513.193	1220.66
513.4	1134.05
513.606	1194.5
513.813	1229.37
514.02	1208.64
514.226	1283.04
514.433	1248.94
514.639	1178.81
514.846	1225.5
515.052	1143.54
515.259	1203.8
515.465	1227.44
515.672	1245.26
515.878	1311.52
516.085	1255.34
516.291	1286.14
516.497	1220.66
516.704	1220.07
516.91	1187.33
517.117	1166.99
517.323	1097.82
517.529	1137.73
517.736	1117.97
517.942	1136.76
518.148	1129.21
518.354	1209.61
518.561	1189.85
518.767	1196.44
518.973	1239.45
519.179	1250.49
519.386	1211.16
519.592	1243.13
519.798	1237.51
520.004	1298.15
520.21	1283.24
520.417	1327.6
520.623	1395.8
520.829	1367.71
521.035	1369.26
521.241	1360.54
521.447	1361.32
521.653	1527.75
521.859	1349.5
522.065	1408.2
522.271	1522.71
522.477	1427
522.683	1511.28
522.889	1434.36
523.095	1451.6
523.301	1400.65
523.507	1377.2
523.713	1432.03
523.919	1367.52
524.125	1469.62
524.331	1445.98
524.537	1544.02
524.742	1518.83
524.948	1553.71
525.154	1566.69
525.36	1636.05
525.566	1566.11
525.772	1611.64
525.977	1491.71
526.183	1594.2
526.389	1609.89
526.595	1534.14
526.8	1504.3
527.006	1473.3
527.212	1454.32
527.417	1431.45
527.623	1404.13
527.829	1497.91
528.034	1521.16
528.24	1502.56
528.446	1495.58
528.651	1635.86
528.857	1598.46
529.062	1676.93
529.268	1616.29
529.473	1669.37
529.679	1621.91
529.884	1723.82
530.09	1695.72
530.295	1704.64
530.501	1690.49
530.706	1707.16
530.912	1648.64
531.117	1702.12
531.323	1733.31
531.528	1754.04
531.733	1761.21
531.939	1722.07
532.144	1763.73
532.35	1757.92
532.555	1800.15
532.76	1716.26
532.966	1779.81
533.171	1755.01
533.376	1678.09
533.581	1640.31
533.787	1696.31
533.992	1734.86
534.197	1758.5
534.402	1746.68
534.607	1719.36
534.813	1847.04
535.018	1753.46
535.223	1755.59
535.428	1771.87
535.633	1832.12
535.838	1815.27
536.043	1849.17
536.249	1915.24
536.454	1789.11
536.659	1840.26
536.864	1796.67
537.069	1805.19
537.274	1836.19
537.479	1830.38
537.684	1814.49
537.889	1794.73
538.094	1858.86
538.299	1824.95
538.504	1830.38
538.708	1843.75
538.913	1878.23
539.118	1861.18
539.323	1866.03
539.528	1818.37
539.733	1853.24
539.938	1859.25
540.142	1856.53
540.347	1812.75
540.552	1782.33
540.757	1833.87
540.962	1786.98
541.166	1748.04
541.371	1753.07
541.576	1795.5
541.781	1716.46
541.985	1825.92
542.19	1820.5
542.395	1918.15
542.599	1952.83
542.804	1898
543.008	1922.8
543.213	1829.41
543.418	1845.1
543.622	1878.43
543.827	1833.87
544.031	1917.18
544.236	1935.78
544.44	1896.64
544.645	1963.29
544.849	1881.92
545.054	1940.04
545.258	1998.94
545.463	1959.8
545.667	1890.05
545.872	1955.15
546.076	1952.25
546.281	1935.39
546.485	1856.53
546.689	1929.58
546.894	1968.71
547.098	1931.51
547.302	1865.45
547.507	1934.81
547.711	1927.25
547.915	1989.64
548.119	1871.84
548.324	1886.95
548.528	1980.53
548.732	1913.5
548.936	1915.82
549.141	1960.38
549.345	1910.78
549.549	1937.52
549.753	1939.85
549.957	1996.42
550.161	1972.4
550.366	1943.72
550.57	1910.98
550.774	1951.47
550.978	1918.73
551.182	1952.05
551.386	1918.15
551.59	1925.31
551.794	1910.59
551.998	1902.06
552.202	1933.65
552.406	1916.79
552.61	1972.98
552.814	1960.77
553.018	2052.03
553.222	1957.86
553.426	1925.31
553.63	2026.64
553.833	1922.41
554.037	1883.27
554.241	1942.17
554.445	1951.08
554.649	1927.83
554.853	1904.2
555.056	1984.6
555.26	1968.91
555.464	1949.73
555.668	1980.15
555.871	1971.62
556.075	1988.28
556.279	1954.18
556.483	1847.82
556.686	1909.81
556.89	1906.52
557.094	1949.92
557.297	1878.23
557.501	1960.38
557.704	1819.72
557.908	1912.91
558.112	1844.72
558.315	1987.31
558.519	1873
558.722	1892.18
558.926	1829.41
559.129	1796.47
559.333	1793.76
559.536	1806.35
559.74	1770.12
559.943	1802.48
560.147	1789.69
560.35	1789.5
560.553	1804.42
560.757	1736.02
560.96	1852.85
561.164	1798.6
561.367	1875.91
561.57	1793.57
561.774	1840.84
561.977	1808.87
562.18	1768.57
562.384	1908.65
562.587	1772.64
562.79	1794.34
562.993	1781.75
563.197	1835.42
563.4	1857.12
563.603	1871.45
563.806	1885.6
564.009	1786.59
564.212	1817.78
564.416	1721.49
564.619	1758.5
564.822	1689.91
565.025	1825.92
565.228	1733.12
565.431	1749.78
565.634	1683.71
565.837	1717.81
566.04	1699.99
566.243	1714.32
566.446	1610.48
566.649	1710.64
566.852	1648.84
567.055	1664.92
567.258	1729.24
567.461	1750.55
567.664	1739.12
567.867	1683.32
568.07	1694.76
568.273	1685.07
568.475	1734.47
568.678	1670.34
568.881	1675.77
569.084	1657.17
569.287	1548.86
569.489	1587.42
569.692	1644.77
569.895	1631.98
570.098	1523.68
570.3	1590.91
570.503	1528.13
570.706	1519.8
570.909	1530.65
571.111	1485.9
571.314	1497.71
571.516	1553.71
571.719	1550.41
571.922	1478.92
572.124	1499.85
572.327	1505.27
572.529	1503.53
572.732	1473.11
572.935	1510.89
573.137	1607.76
573.34	1497.33
573.542	1574.24
573.745	1552.54
573.947	1539.56
574.15	1508.18
574.352	1480.08
574.554	1575.41
574.757	1488.8
574.959	1450.05
575.162	1458.58
575.364	1457.22
575.566	1562.81
575.769	1438.43
575.971	1447.15
576.173	1376.62
576.376	1454.9
576.578	1489.19
576.78	1505.66
576.982	1374.69
577.185	1464
577.387	1378.95
577.589	1411.69
577.791	1459.55
577.993	1450.25
578.196	1409.95
578.398	1413.63
578.6	1402.58
578.802	1387.67
579.004	1369.65
579.206	1333.42
579.408	1412.66
579.61	1341.36
579.812	1433.58
580.014	1381.08
580.216	1355.12
580.418	1351.24
580.62	1366.16
580.822	1335.94
581.024	1372.75
581.226	1403.94
581.428	1362.87
581.63	1467.49
581.832	1330.7
582.034	1450.25
582.236	1378.95
582.438	1378.75
582.64	1408.01
582.841	1451.02
583.043	1451.6
583.245	1414.98
583.447	1406.07
583.649	1366.16
583.85	1383.98
584.052	1419.83
584.254	1349.89
584.456	1380.88
584.657	1328.57
584.859	1355.7
585.061	1378.17
585.262	1367.71
585.464	1325.86
585.666	1361.12
585.867	1309.97
586.069	1414.6
586.27	1326.44
586.472	1299.51
586.674	1293.7
586.875	1291.18
587.077	1292.34
587.278	1323.73
587.48	1307.84
587.681	1419.44
587.883	1329.15
588.084	1230.92
588.285	1303.19
588.487	1289.05
588.688	1302.8
588.89	1250.11
589.091	1215.04
589.292	1214.84
589.494	1210.97
589.695	1170.67
589.896	1072.25
590.098	1105.18
590.299	1172.99
590.5	1125.72
590.702	1141.41
590.903	1186.17
591.104	1248.17
591.305	1235.77
591.507	1267.35
591.708	1236.35
591.909	1225.31
592.11	1272.97
592.311	1243.13
592.512	1204.19
592.714	1178.81
592.915	1178.23
593.116	1201.47
593.317	1214.07
593.518	1164.08
593.719	1181.13
593.92	1232.67
594.121	1247.59
594.322	1234.61
594.523	1219.11
594.724	1179.19
594.925	1208.26
595.126	1192.18
595.327	1238.09
595.528	1217.56
595.729	1200.31
595.929	1181.33
596.13	1183.26
596.331	1174.54
596.532	1243.71
596.733	1254.56
596.934	1257.66
597.135	1219.49
597.335	1210.39
597.536	1179.58
597.737	1219.11
597.938	1163.11
598.138	1219.3
598.339	1205.93
598.54	1181.33
598.74	1181.52
598.941	1184.23
599.142	1252.24
599.342	1185.01
599.543	1184.43
599.744	1185.78
599.944	1161.37
600.145	1172.61
600.345	1174.74
600.546	1271.61
600.746	1238.29
600.947	1286.53
601.147	1189.27
601.348	1220.85
601.548	1156.53
601.749	1163.69
601.949	1119.33
602.15	1143.93
602.35	1147.03
602.551	1228.21
602.751	1133.08
602.951	1145.87
603.152	1092.98
603.352	1170.67
603.552	1168.73
603.753	1225.31
603.953	1166.6
604.153	1156.53
604.354	1124.56
604.554	1134.44
604.754	1142.96
604.954	1115.84
605.155	1185.2
605.355	1149.94
605.555	1174.74
605.755	1190.04
605.955	1172.41
606.155	1183.84
606.356	1169.89
606.556	1177.06
606.756	1173.77
606.956	1090.46
607.156	1177.64
607.356	1129.21
607.556	1166.79
607.756	1144.71
607.956	1163.69
608.156	1149.55
608.356	1067.4
608.556	1158.46
608.756	1124.94
608.956	1112.93
609.156	1104.8
609.356	1087.94
609.556	1078.83
609.755	1135.41
609.955	1082.32
610.155	1114.29
610.355	1102.47
610.555	1057.33
610.755	1100.53
610.954	1030.78
611.154	1090.07
611.354	1121.84
611.554	1063.14
611.753	1106.35
611.953	1025.36
612.153	1076.51
612.352	1113.71
612.552	1043.76
612.752	998.04
612.951	1020.52
613.151	1071.66
613.351	1012.77
613.55	1048.8
613.75	1044.54
613.949	1053.65
614.149	1061.4
614.348	1041.44
614.548	1014.32
614.747	968.01
614.947	1015.87
615.146	955.8
615.346	1057.52
615.545	1058.88
615.745	1029.62
615.944	1091.81
616.144	1023.42
616.343	1075.35
616.542	1018.97
616.742	1015.28
616.941	1008.12
617.14	946.12
617.34	1001.53
617.539	1012.18
617.738	992.03
617.938	1058.3
618.137	982.73
618.336	963.94
618.535	1037.56
618.734	1022.26
618.934	994.55
619.133	1024.58
619.332	1019.93
619.531	961.03
619.73	1026.13
619.929	1035.05
620.128	1005.79
620.328	1044.93
620.527	980.22
620.726	957.55
620.925	1000.56
621.124	983.12
621.323	995.33
621.522	933.14
621.721	960.45
621.92	934.88
622.119	968.98
622.318	965.49
622.517	954.83
622.715	956.97
622.914	893.03
623.113	953.67
623.312	871.14
623.511	962.78
623.71	952.9
623.909	918.22
624.107	993.97
624.306	864.94
624.505	932.17
624.704	917.83
624.902	918.99
625.101	995.72
625.3	944.57
625.499	897.29
625.697	896.13
625.896	883.54
626.095	936.04
626.293	872.3
626.492	908.14
626.69	969.56
626.889	895.35
627.088	963.75
627.286	902.14
627.485	884.7
627.683	907.75
627.882	976.92
628.08	835.49
628.279	889.54
628.477	956.58
628.676	846.72
628.874	906.79
629.073	858.54
629.271	867.07
629.469	912.99
629.668	901.36
629.866	837.42
630.065	869.2
630.263	911.24
630.461	849.05
630.66	860.87
630.858	912.79
631.056	924.42
631.254	903.1
631.453	850.79
631.651	931.59
631.849	840.33
632.047	913.18
632.245	879.27
632.444	899.81
632.642	902.14
632.84	892.64
633.038	864.94
633.236	815.53
633.434	859.12
633.632	828.32
633.83	839.36
634.028	902.33
634.227	870.55
634.425	919.57
634.623	867.07
634.821	859.51
635.019	861.64
635.216	841.3
635.414	885.67
635.612	876.17
635.81	816.11
636.008	921.7
636.206	863.77
636.404	920.74
636.602	826.19
636.8	869.78
636.997	857.38
637.195	858.93
637.393	833.16
637.591	887.6
637.789	877.92
637.986	848.86
638.184	820.18
638.382	873.65
638.58	896.32
638.777	949.8
638.975	837.42
639.173	858.54
639.37	838.78
639.568	861.64
639.765	870.94
639.963	800.42
640.161	887.02
640.358	895.55
640.556	778.52
640.753	810.3
640.951	800.42
641.148	839.94
641.346	808.17
641.543	820.96
641.741	827.54
641.938	787.44
642.136	785.11
642.333	792.28
642.531	851.76
642.728	870.36
642.925	827.93
643.123	797.32
643.32	812.43
643.517	780.27
643.715	816.69
643.912	777.94
644.109	840.91
644.306	792.47
644.504	759.73
644.701	803.13
644.898	838.78
645.095	740.94
645.293	793.83
645.49	810.49
645.687	799.26
645.884	811.85
646.081	726.99
646.278	776.78
646.475	777.17
646.672	747.53
646.87	806.04
647.067	777.36
647.264	805.26
647.461	727.96
647.658	704.32
647.855	764.57
648.052	740.16
648.249	668.09
648.446	737.26
648.642	722.14
648.839	720.01
649.036	704.71
649.233	714.01
649.43	677.97
649.627	668.48
649.824	701.8
650.021	700.83
650.217	699.67
650.414	696.18
650.611	733.58
650.808	723.31
651.004	734.35
651.201	731.44
651.398	780.27
651.595	735.13
651.791	677.2
651.988	750.43
652.185	691.73
652.381	745.39
652.578	646.58
652.775	712.46
652.971	681.84
653.168	704.13
653.364	739
653.561	666.93
653.757	700.44
653.954	730.28
654.15	680.68
654.347	775.81
654.543	687.27
654.74	665.96
654.936	653.56
655.133	694.44
655.329	711.68
655.525	666.73
655.722	706.45
655.918	666.15
656.115	718.85
656.311	612.29
656.507	582.45
656.704	530.53
656.9	610.74
657.096	592.72
657.292	597.18
657.489	653.95
657.685	641.16
657.881	631.47
658.077	611.71
658.273	630.7
658.47	708.58
658.666	655.11
658.862	666.15
659.058	639.41
659.254	719.82
659.45	622.56
659.646	693.66
659.842	673.51
660.038	713.04
660.234	653.95
660.43	683.78
660.626	763.8
660.822	717.3
661.018	723.11
661.214	655.3
661.41	650.07
661.606	675.06
661.802	729.51
661.998	671.96
662.194	664.8
662.39	690.18
662.586	696.76
662.781	699.09
662.977	718.46
663.173	715.56
663.369	684.56
663.564	694.05
663.76	717.88
663.956	651.04
664.152	720.59
664.347	619.07
664.543	671.38
664.739	680.29
664.934	614.23
665.13	588.85
665.326	696.18
665.521	670.41
665.717	641.93
665.912	626.63
666.108	616.75
666.304	651.23
666.499	636.9
666.695	565.98
666.89	652.98
667.086	651.62
667.281	671.19
667.477	730.28
667.672	650.85
667.867	657.24
668.063	658.4
668.258	588.85
668.454	652.4
668.649	742.49
668.844	674.48
669.04	676.61
669.235	654.33
669.43	632.83
669.626	598.73
669.821	600.28
670.016	626.63
670.211	643.87
670.407	632.25
670.602	660.73
670.797	662.08
670.992	673.9
671.187	602.02
671.382	656.85
671.578	614.42
671.773	657.05
671.968	588.65
672.163	662.66
672.358	656.27
672.553	599.11
672.748	627.21
672.943	692.5
673.138	627.4
673.333	672.16
673.528	578
673.723	641.16
673.918	628.18
674.113	579.93
674.308	727.38
674.503	655.11
674.698	666.73
674.892	661.11
675.087	671.19
675.282	641.55
675.477	639.22
675.672	659.76
675.867	612.87
676.061	573.54
676.256	602.21
676.451	600.47
676.646	607.64
676.84	585.94
677.035	548.93
677.23	599.31
677.424	606.48
677.619	675.06
677.814	643.87
678.008	657.05
678.203	594.66
678.397	559.2
678.592	626.05
678.787	674.87
678.981	582.84
679.176	630.5
679.37	665.96
679.565	604.15
679.759	585.36
679.954	648.13
680.148	666.93
680.342	671.38
680.537	633.41
680.731	592.53
680.926	652.98
681.12	666.15
681.314	601.05
681.509	593.11
681.703	625.85
681.897	657.05
682.092	585.17
682.286	626.05
682.48	680.29
682.674	674.1
682.869	637.48
683.063	623.91
683.257	707.23
683.451	602.41
683.645	607.64
683.839	615
684.034	628.76
684.228	666.54
684.422	575.48
684.616	563.85
684.81	660.73
685.004	610.74
685.198	610.16
685.392	643.1
685.586	571.22
685.78	631.08
685.974	646
686.168	612.48
686.362	695.79
686.556	566.37
686.75	556.88
686.944	572.57
687.138	586.91
687.331	488.49
687.525	570.25
687.719	484.61
687.913	534.79
688.107	537.12
688.301	517.74
688.494	534.4
688.688	497.2
688.882	502.44
689.076	492.55
689.269	525.1
689.463	607.06
689.657	518.71
689.85	520.07
690.044	530.14
690.238	520.26
690.431	513.67
690.625	552.62
690.818	543.9
691.012	548.55
691.205	605.7
691.399	522
691.593	581.1
691.786	639.8
691.98	602.99
692.173	629.92
692.366	627.21
692.56	633.41
692.753	690.56
692.947	582.45
693.14	688.04
693.333	677
693.527	563.85
693.72	673.13
693.914	614.03
694.107	647.16
694.3	645.42
694.493	620.04
694.687	673.32
694.88	611.51
695.073	730.09
695.266	662.28
695.46	654.14
695.653	699.28
695.846	718.46
696.039	640.19
696.232	669.64
696.425	726.6
696.618	730.28
696.812	694.63
697.005	798.48
697.198	849.24
697.391	787.05
697.584	811.07
697.777	855.25
697.97	826.77
698.163	839.17
698.356	819.21
698.549	902.72
698.742	871.33
698.935	818.63
699.127	860.87
699.32	828.12
699.513	836.07
699.706	925
699.899	914.34
700.092	859.51
700.285	948.63
700.477	849.24
700.67	910.27
700.863	952.7
701.056	1035.63
701.248	1006.57
701.441	1010.25
701.634	965.49
701.826	1094.91
702.019	967.43
702.212	1065.85
702.404	1006.57
702.597	991.26
702.79	1029.23
702.982	1102.86
703.175	1118.16
703.367	1126.11
703.56	1096.85
703.752	1212.91
703.945	1180.94
704.137	1206.51
704.33	1201.86
704.522	1226.86
704.715	1228.79
704.907	1250.11
705.1	1314.24
705.292	1294.28
705.484	1280.91
705.677	1325.09
705.869	1345.82
706.061	1381.08
706.254	1417.31
706.446	1366.74
706.638	1388.44
706.831	1461.1
707.023	1411.5
707.215	1513.8
707.407	1499.07
707.599	1503.53
707.792	1552.16
707.984	1503.33
708.176	1573.86
708.368	1546.54
708.56	1564.17
708.752	1588.58
708.944	1568.04
709.136	1607.96
709.329	1595.94
709.521	1722.07
709.713	1694.76
709.905	1693.4
710.097	1724.01
710.289	1712.97
710.481	1706.57
710.672	1781.75
710.864	1771.29
711.056	1833.67
711.248	1802.87
711.44	1819.14
711.632	1796.47
711.824	1871.84
712.016	1968.91
712.207	1934.03
712.399	1922.6
712.591	1982.66
712.783	1965.03
712.975	2014.63
713.166	1945.08
713.358	1983.25
713.55	2039.82
713.741	2058.23
713.933	2081.67
714.125	2068.69
714.316	2051.44
714.508	2151.03
714.7	2141.73
714.891	2127.39
715.083	2193.07
715.274	2138.63
715.466	2189.97
715.657	2185.71
715.849	2107.24
716.04	2238.22
716.232	2135.34
716.423	2214.97
716.615	2149.09
716.806	2147.35
716.998	2123.13
717.189	2072.95
717.381	1999.13
717.572	1968.52
717.763	1994.09
717.955	2014.63
718.146	1946.43
718.337	1926.48
718.528	1924.54
718.72	1825.92
718.911	1945.85
719.102	1856.53
719.293	1928.03
719.485	1930.16
719.676	1894.7
719.867	1869.32
720.058	1900.32
720.249	1855.57
720.44	1905.36
720.632	1962.32
720.823	2010.37
721.014	2118.87
721.205	2115.77
721.396	2206.64
721.587	2279.1
721.778	2356.4
721.969	2394.18
722.16	2427.7
722.351	2421.11
722.542	2594.91
722.733	2571.27
722.924	2509.08
723.115	2564.49
723.305	2545.31
723.496	2575.14
723.687	2422.47
723.878	2462.77
724.069	2491.83
724.26	2492.41
724.45	2413.75
724.641	2413.75
724.832	2473.43
725.023	2444.17
725.213	2432.74
725.404	2412.2
725.595	2426.73
725.785	2431.77
725.976	2523.8
726.167	2502.1
726.357	2471.29
726.548	2665.24
726.739	2525.35
726.929	2616.6
727.12	2623.39
727.31	2690.23
727.501	2628.81
727.691	2635.98
727.882	2689.07
728.072	2664.07
728.263	2678.02
728.453	2755.33
728.644	2759.2
728.834	2776.25
729.024	2734.98
729.215	2686.35
729.405	2746.61
729.596	2846.97
729.786	2862.08
729.976	2852.2
730.167	2895.02
730.357	2850.65
730.547	2818.68
730.737	2888.82
730.928	2924.08
731.118	2969.42
731.308	2920.59
731.498	2954.11
731.688	3020.37
731.879	3029.29
732.069	3095.74
732.259	3084.12
732.449	3097.87
732.639	3216.64
732.829	3243.96
733.019	3266.82
733.209	3330.37
733.399	3301.11
733.589	3405.54
733.779	3408.45
733.969	3424.53
734.159	3504.74
734.349	3573.91
734.539	3554.34
734.729	3549.69
734.919	3618.47
735.109	3669.81
735.299	3603.36
735.488	3633.97
735.678	3641.92
735.868	3608.59
736.058	3662.84
736.248	3617.89
736.437	3588.05
736.627	3560.73
736.817	3703.72
737.007	3662.45
737.196	3718.83
737.386	3651.21
737.576	3638.43
737.765	3746.34
737.955	3646.18
738.144	3821.33
738.334	3723.48
738.524	3728.91
738.713	3779.67
738.903	3777.34
739.092	3845.93
739.282	3788.97
739.471	3805.05
739.661	3761.07
739.85	3874.99
740.04	3827.14
740.229	3884.1
740.419	3916.84
740.608	3925.37
740.797	3877.51
740.987	3983.69
741.176	3900.18
741.365	3919.94
741.555	3829.46
741.744	3984.65
741.933	3879.64
742.123	3940.48
742.312	3950.55
742.501	4076.49
742.69	4017.01
742.88	3912.39
743.069	4108.26
743.258	3974.97
743.447	4074.55
743.636	4023.6
743.825	4028.83
744.014	4106.71
744.204	4075.33
744.393	3991.82
744.582	4117.95
744.771	4120.47
744.96	4093.54
745.149	4103.81
745.338	4036.19
745.527	4148.76
745.716	4085.79
745.905	4052.08
746.094	4115.63
746.283	4142.95
746.471	4166
746.66	4211.73
746.849	4137.91
747.038	4183.63
747.227	4104.78
747.416	4157.67
747.604	4123.96
747.793	4120.08
747.982	4166.78
748.171	4200.1
748.359	4175.49
748.548	4185.96
748.737	4158.25
748.926	4168.52
749.114	3990.27
749.303	4163.87
749.491	4160.77
749.68	4058.47
749.869	4188.67
750.057	4088.11
750.246	4092.18
750.434	4115.43
750.623	4092.38
750.811	4088.89
751	4163.29
751.188	4080.17
751.377	4118.34
751.565	4091.99
751.754	4055.57
751.942	4079.4
752.131	4134.81
752.319	4029.41
752.507	4044.72
752.696	4128.22
752.884	4109.81
753.072	4035.42
753.261	4055.57
753.449	4074.75
753.637	4070.29
753.825	4135.78
754.014	4045.88
754.202	4046.07
754.39	4100.9
754.578	4170.65
754.766	4059.83
754.955	4009.26
755.143	4107.68
755.331	4020.11
755.519	4035.8
755.707	4044.33
755.895	4033.67
756.083	4057.7
756.271	3986.79
756.459	4006.55
756.647	4044.91
756.835	3974.97
757.023	4004.61
757.211	4004.03
757.399	3969.74
757.587	3979.42
757.775	3899.02
757.963	3921.88
758.151	3962.76
758.339	3931.37
758.526	3907.93
758.714	3964.89
758.902	3852.71
759.09	3767.46
759.278	3633
759.465	3422.98
759.653	3007.59
759.841	2846.39
760.028	2485.05
760.216	2173.7
760.404	2061.33
760.591	1753.07
760.779	1534.53
760.967	1394.45
761.154	1219.49
761.342	1245.65
761.529	1252.24
761.717	1352.4
761.905	1364.03
762.092	1469.62
762.28	1434.55
762.467	1459.55
762.655	1403.94
762.842	1441.72
763.029	1500.81
763.217	1519.22
763.404	1496.75
763.592	1579.09
763.779	1534.91
763.966	1583.74
764.154	1611.83
764.341	1672.47
764.528	1686.04
764.716	1760.05
764.903	1779.23
765.09	1840.65
765.277	1919.31
765.465	2046.6
765.652	2105.31
765.839	2191.72
766.026	2328.31
766.213	2368.03
766.4	2447.08
766.588	2648.77
766.775	2625.52
766.962	2722.39
767.149	2816.16
767.336	2935.51
767.523	2865.96
767.71	3003.52
767.897	3148.63
768.084	3211.02
768.271	3241.25
768.458	3228.26
768.645	3322.81
768.832	3328.04
769.019	3338.89
769.206	3410.77
769.392	3424.72
769.579	3548.34
769.766	3495.25
769.953	3461.92
770.14	3535.55
770.327	3434.02
770.513	3586.31
770.7	3596.77
770.887	3544.65
771.073	3565.19
771.26	3568.48
771.447	3560.74
771.634	3494.67
771.82	3643.08
772.007	3524.31
772.193	3584.95
772.38	3571.39
772.567	3550.08
772.753	3527.6
772.94	3588.25
773.126	3563.64
773.313	3578.56
773.499	3551.24
773.686	3565.19
773.872	3508.04
774.059	3532.45
774.245	3492.92
774.432	3509.97
774.618	3430.54
774.804	3474.32
774.991	3458.63
775.177	3473.74
775.363	3459.99
775.55	3492.73
775.736	3416.59
775.922	3468.71
776.109	3448.75
776.295	3432.86
776.481	3490.99
776.667	3463.28
776.853	3422.79
777.04	3418.33
777.226	3457.27
777.412	3510.55
777.598	3412.52
777.784	3402.25
777.97	3373.58
778.156	3420.27
778.342	3431.51
778.528	3367.38
778.715	3313.9
778.901	3365.05
779.087	3356.72
779.272	3344.32
779.458	3310.03
779.644	3339.86
779.83	3304.79
780.016	3420.66
780.202	3318.74
780.388	3322.04
780.574	3219.55
780.76	3271.86
780.946	3316.61
781.131	3300.92
781.317	3259.46
781.503	3255.97
781.689	3270.5
781.874	3346.84
782.06	3252.87
782.246	3286.39
782.432	3250.55
782.617	3205.4
782.803	3276.51
782.989	3146.31
783.174	3184.67
783.36	3150.96
783.545	3146.5
783.731	3224.2
783.916	3095.74
784.102	3176.53
784.288	3150.57
784.473	3164.91
784.659	3121.7
784.844	3146.12
785.029	3131
785.215	3099.62
785.4	3088.38
785.586	3164.52
785.771	3070.75
785.956	3129.26
786.142	3106.2
786.327	3077.14
786.512	3064.94
786.698	3068.42
786.883	2977.36
787.068	3094.19
787.254	3068.42
787.439	3044.59
787.624	3025.02
787.809	2996.54
787.994	3022.7
788.18	3069.97
788.365	2930.28
788.55	2956.82
788.735	2969.61
788.92	2958.76
789.105	2950.24
789.29	2998.87
789.475	2930.28
789.66	2935.51
789.845	2913.04
790.03	2915.36
790.215	2966.9
790.4	2960.31
790.585	2933.77
790.77	2929.7
790.955	2818.1
791.14	2897.15
791.325	3005.84
791.51	2794.08
791.695	2897.54
791.879	2878.94
792.064	2820.04
792.249	2947.33
792.434	2883.39
792.618	2870.22
792.803	2881.84
792.988	2863.83
793.173	2892.31
793.357	2902.19
793.542	2806.48
793.727	2817.52
793.911	2891.73
794.096	2862.28
794.281	2889.21
794.465	2942.68
794.65	2837.09
794.834	2869.44
795.019	2897.73
795.203	2904.13
795.388	2934.35
795.572	2954.31
795.757	2906.64
795.941	2952.17
796.126	2896.57
796.31	2849.88
796.494	2908
796.679	2882.43
796.863	2835.73
797.048	2949.85
797.232	2947.72
797.416	2917.69
797.601	2901.99
797.785	2974.84
797.969	2964.38
798.153	2892.31
798.338	2921.76
798.522	2970
798.706	2958.57
798.89	2948.88
799.074	3017.47
799.258	3029.09
799.443	2965.35
799.627	2964.77
799.811	2991.31
799.995	2902.77
800.179	2920.21
800.363	2918.08
800.547	2943.46
800.731	2942.49
800.915	2836.31
801.099	2930.67
801.283	2932.8
801.467	2939
801.651	2893.66
801.835	3005.07
802.019	2952.17
802.202	2954.31
802.386	2881.84
802.57	2866.93
802.754	2938.81
802.938	2859.76
803.121	2900.25
803.305	2979.88
803.489	2876.23
803.673	2912.46
803.856	2906.06
804.04	2857.63
804.224	2942.68
804.407	2896.57
804.591	2870.22
804.775	2928.15
804.958	2876.81
805.142	2986.08
805.326	2877.19
805.509	2914.01
805.693	2958.76
805.876	2942.88
806.06	2918.66
806.243	2919.24
806.427	2979.49
806.61	3033.74
806.794	2899.67
806.977	2992.28
807.16	2884.56
807.344	2882.23
807.527	2905.68
807.71	2899.86
807.894	2923.89
808.077	2920.21
808.26	2872.54
808.444	2848.71
808.627	2940.55
808.81	2866.54
808.993	2813.26
809.177	2763.66
809.36	2844.84
809.543	2833.02
809.726	2780.9
809.909	2757.65
810.092	2743.12
810.276	2754.36
810.459	2734.79
810.642	2787.3
810.825	2715.42
811.008	2769.86
811.191	2650.9
811.374	2656.71
811.557	2643.34
811.74	2708.83
811.923	2617.77
812.106	2632.88
812.289	2576.69
812.472	2576.5
812.654	2611.95
812.837	2511.59
813.02	2517.41
813.203	2494.16
813.386	2408.71
813.569	2387.01
813.751	2348.07
813.934	2363.76
814.117	2340.13
814.3	2292.27
814.482	2259.53
814.665	2224.65
814.848	2172.15
815.03	2133.01
815.213	2110.73
815.396	2123.32
815.578	2100.07
815.761	2026.84
815.943	2116.74
816.126	2016.57
816.309	2006.88
816.491	1936.16
816.674	1840.26
816.856	1916.98
817.039	1927.64
817.221	1977.05
817.403	1953.6
817.586	1975.69
817.768	1953.8
817.951	1873.58
818.133	1887.53
818.315	1901.48
818.498	1904.58
818.68	2003.39
818.862	1924.35
819.045	1983.05
819.227	1968.91
819.409	1921.63
819.591	1969.3
819.774	1919.11
819.956	1900.71
820.138	1986.15
820.32	1951.66
820.502	2017.34
820.684	2073.53
820.866	2071.21
821.048	2127.01
821.231	2160.72
821.413	2102.01
821.595	2134.76
821.777	2122.36
821.959	2078.37
822.141	2229.5
822.323	2044.47
822.505	2026.26
822.686	1963.48
822.868	1918.53
823.05	1786.59
823.232	1732.54
823.414	1670.92
823.596	1710.26
823.778	1690.49
823.96	1751.14
824.141	1769.93
824.323	1803.84
824.505	1857.31
824.687	1902.84
824.868	1949.34
825.05	2018.12
825.232	2038.66
825.413	2105.5
825.595	2052.99
825.777	2013.86
825.958	2073.14
826.14	2000.1
826.321	2047.57
826.503	2048.93
826.685	2061.71
826.866	2102.21
827.048	2071.79
827.229	2019.67
827.411	1986.35
827.592	1946.05
827.773	1950.89
827.955	1893.73
828.136	1906.91
828.318	1864.09
828.499	1931.71
828.68	1849.95
828.862	1858.28
829.043	1909.23
829.224	1893.93
829.406	1841.81
829.587	1832.51
829.768	1873.2
829.949	1919.11
830.131	1865.25
830.312	1906.13
830.493	1831.15
830.674	1854.6
830.855	1809.26
831.036	1839.1
831.218	1895.48
831.399	1920.47
831.58	1857.89
831.761	1867.97
831.942	1881.33
832.123	1902.26
832.304	1777.87
832.485	1810.42
832.666	1853.82
832.847	1869.32
833.028	1865.45
833.209	1865.64
833.389	1829.22
833.57	1763.92
833.751	1800.93
833.932	1881.53
834.113	1860.22
834.294	1801.9
834.475	1867.77
834.655	1916.79
834.836	1856.92
835.017	1849.37
835.198	1832.7
835.378	1881.72
835.559	1918.34
835.74	1879.4
835.92	1889.86
836.101	1817.98
836.281	1883.47
836.462	1842.97
836.643	1916.6
836.823	1908.46
837.004	1897.22
837.184	1929.96
837.365	1941.98
837.545	1924.35
837.726	1846.46
837.906	1976.66
838.087	1922.6
838.267	1911.36
838.448	1880.75
838.628	1876.3
838.808	1885.98
838.989	1926.09
839.169	1813.52
839.349	1930.55
839.53	1909.62
839.71	1914.08
839.89	1861.18
840.07	1939.07
840.251	1850.92
840.431	1926.67
840.611	1869.13
840.791	1809.45
840.971	1875.13
841.151	1858.67
841.332	1854.79
841.512	1926.67
841.692	1805.58
841.872	1863.7
842.052	1839.29
842.232	1876.49
842.412	1804.8
842.592	1814.49
842.772	1859.05
842.952	1842.2
843.132	1829.8
843.312	1794.92
843.492	1798.99
843.672	1846.65
843.851	1755.4
844.031	1812.75
844.211	1793.76
844.391	1788.34
844.571	1843.55
844.751	1831.73
844.93	1806.16
845.11	1777.49
845.29	1821.66
845.47	1818.95
845.649	1752.3
845.829	1832.9
846.009	1768.77
846.188	1832.51
846.368	1788.34
846.547	1783.3
846.727	1838.32
846.907	1728.08
847.086	1774.19
847.266	1801.32
847.445	1778.84
847.625	1732.73
847.804	1748.81
847.984	1775.35
848.163	1713.36
848.343	1714.71
848.522	1748.62
848.701	1757.34
848.881	1715.49
849.06	1763.34
849.239	1721.3
849.419	1715.87
849.598	1630.63
849.777	1645.35
849.957	1667.24
850.136	1616.68
850.315	1567.46
850.494	1589.36
850.674	1600.79
850.853	1655.62
851.032	1634.69
851.211	1701.34
851.39	1665.11
851.569	1579.09
851.748	1569.98
851.927	1677.9
852.107	1623.65
852.286	1606.21
852.465	1574.83
852.644	1661.43
852.823	1665.11
853.002	1598.46
853.181	1616.68
853.359	1609.31
853.538	1492.48
853.717	1638.76
853.896	1512.63
854.075	1460.13
854.254	1432.62
854.433	1343.1
854.611	1403.94
854.79	1335.55
854.969	1371.39
855.148	1447.15
855.327	1401.42
855.505	1443.66
855.684	1408.98
855.863	1452.77
856.041	1440.75
856.22	1486.28
856.399	1435.72
856.577	1538.6
856.756	1549.25
856.934	1607.76
857.113	1627.33
857.291	1517.09
857.47	1549.06
857.648	1538.79
857.827	1573.08
858.005	1593.62
858.184	1486.86
858.362	1657.17
858.541	1523.29
858.719	1535.11
858.898	1506.63
859.076	1514.57
859.254	1565.53
859.433	1482.8
859.611	1496.36
859.789	1473.88
859.967	1538.21
860.146	1577.73
860.324	1450.05
860.502	1476.21
860.68	1433.2
860.859	1451.99
861.037	1490.35
861.215	1479.89
861.393	1486.28
861.571	1475.43
861.749	1404.52
861.927	1491.51
862.105	1519.41
862.283	1468.26
862.461	1416.15
862.639	1417.31
862.817	1447.92
862.995	1445.6
863.173	1445.21
863.351	1437.46
863.529	1441.92
863.707	1487.45
863.885	1445.79
864.063	1364.42
864.241	1401.03
864.418	1479.89
864.596	1408.98
864.774	1345.82
864.952	1421.57
865.129	1437.46
865.307	1368.49
865.485	1312.3
865.663	1395.22
865.84	1321.21
866.018	1323.54
866.196	1204.19
866.373	1242.16
866.551	1200.31
866.728	1153.43
866.906	1195.08
867.084	1231.51
867.261	1250.49
867.439	1265.8
867.616	1298.93
867.794	1285.95
867.971	1297.77
868.149	1283.04
868.326	1356.28
868.503	1305.9
868.681	1316.56
868.858	1309.2
869.035	1277.42
869.213	1354.92
869.39	1300.48
869.567	1372.17
869.745	1285.37
869.922	1321.02
870.099	1345.82
870.276	1316.75
870.454	1321.79
870.631	1327.22
870.808	1273.16
870.985	1334.39
871.162	1365.77
871.339	1311.14
871.517	1248.94
871.694	1241
871.871	1295.64
872.048	1264.83
872.225	1290.6
872.402	1294.67
872.579	1227.44
872.756	1334.39
872.933	1216.2
873.11	1274.52
873.287	1290.6
873.463	1226.66
873.64	1223.56
873.817	1248.56
873.994	1250.49
874.171	1183.07
874.348	1263.28
874.524	1213.68
874.701	1217.36
874.878	1160.4
875.055	1243.71
875.231	1217.94
875.408	1214.65
875.585	1169.89
875.762	1187.72
875.938	1175.71
876.115	1198.96
876.291	1180.94
876.468	1193.34
876.645	1154.01
876.821	1178.61
876.998	1170.86
877.174	1142.77
877.351	1174.93
877.527	1130.56
877.704	1148.78
877.88	1161.95
878.057	1166.6
878.233	1207.48
878.409	1115.26
878.586	1166.21
878.762	1142.96
878.938	1127.85
879.115	1082.13
879.291	1134.63
879.467	1093.36
879.644	1120.29
879.82	1151.88
879.996	1114.1
880.172	1082.13
880.349	1114.29
880.525	1136.57
880.701	1073.41
880.877	1064.5
881.053	1120.29
881.229	1091.43
881.405	1135.41
881.581	1067.4
881.757	1099.95
881.933	1105.18
882.109	1115.84
882.285	1106.15
882.461	1046.28
882.637	1099.56
882.813	1045.31
882.989	1091.23
883.165	1162.73
883.341	1064.11
883.517	1134.44
883.693	1133.28
883.869	1141.41
884.044	1072.05
884.22	1108.67
884.396	1140.44
884.572	1130.56
884.747	1145.68
884.923	1137.73
885.099	1121.26
885.275	1166.79
885.45	1086.39
885.626	1066.82
885.801	1041.25
885.977	1078.45
886.153	1007.92
886.328	1091.62
886.504	1059.85
886.679	1081.55
886.855	1052.87
887.03	1084.65
887.206	1129.01
887.381	1091.43
887.557	1096.27
887.732	1111.96
887.908	1098.21
888.083	1123.2
888.258	1077.48
888.434	1063.33
888.609	1085.23
888.784	1125.72
888.96	1109.83
889.135	1048.03
889.31	1060.04
889.485	1072.05
889.661	1069.53
889.836	1121.26
890.011	1099.76
890.186	1114.48
890.361	1042.8
890.537	1117.97
890.712	1100.53
890.887	1131.92
891.062	1078.64
891.237	1139.48
891.412	1044.73
891.587	1089.68
891.762	1095.69
891.937	1139.48
892.112	1068.37
892.287	1090.07
892.462	1015.67
892.637	1010.05
892.812	983.9
892.987	1012.96
893.161	986.03
893.336	1026.72
893.511	1011.6
893.686	1043.57
893.861	991.45
894.035	976.15
894.21	1027.1
894.385	976.92
894.56	988.16
894.734	945.53
894.909	954.64
895.084	944.57
895.258	911.44
895.433	965.49
895.608	931.97
895.782	854.28
895.957	888.96
896.131	881.02
896.306	836.46
896.48	822.89
896.655	841.69
896.829	773.1
897.004	788.99
897.178	786.47
897.353	792.28
897.527	837.23
897.701	799.84
897.876	769.03
898.05	826.77
898.224	814.37
898.399	825.02
898.573	782.98
898.747	684.56
898.921	757.41
899.096	658.01
899.27	641.35
899.444	649.68
899.618	654.33
899.792	696.96
899.967	688.82
900.141	742.1
900.315	689.59
900.489	715.17
900.663	704.71
900.837	696.18
901.011	640.77
901.185	779.88
901.359	723.69
901.533	684.56
901.707	720.79
901.881	681.65
902.055	613.65
902.229	696.96
902.403	754.11
902.576	708.78
902.75	716.33
902.924	815.92
903.098	716.33
903.272	773.49
903.446	827.54
903.619	794.99
903.793	815.72
903.967	796.16
904.14	881.6
904.314	855.25
904.488	811.66
904.661	857.19
904.835	826.57
905.009	881.21
905.182	944.76
905.356	876.56
905.529	859.32
905.703	801.58
905.876	812.24
906.05	785.69
906.223	784.34
906.397	716.72
906.57	685.91
906.744	701.99
906.917	713.62
907.09	670.22
907.264	709.55
907.437	629.34
907.61	656.85
907.784	634.38
907.957	692.69
908.13	610.35
908.304	682.04
908.477	605.7
908.65	632.05
908.823	605.9
908.996	689.79
909.17	616.94
909.343	623.72
909.516	634.18
909.689	615.78
909.862	606.86
910.035	628.76
910.208	582.26
910.381	562.5
910.554	666.35
910.727	596.01
910.9	602.02
911.073	574.9
911.246	658.98
911.419	667.9
911.592	640.58
911.765	610.93
911.938	573.15
912.11	626.24
912.283	607.83
912.456	654.14
912.629	622.17
912.802	597.95
912.974	592.91
913.147	516.19
913.32	483.45
913.493	507.67
913.665	539.63
913.838	542.54
914.01	531.88
914.183	532.66
914.356	520.45
914.528	578
914.701	639.41
914.873	563.08
915.046	548.55
915.218	452.64
915.391	445.86
915.563	466.98
915.736	509.02
915.908	546.42
916.081	550.29
916.253	525.1
916.425	530.72
916.598	551.65
916.77	545.25
916.942	519.48
917.115	459.81
917.287	529.75
917.459	496.24
917.632	467.95
917.804	440.44
917.976	524.33
918.148	494.1
918.32	513.48
918.493	532.27
918.665	547.58
918.837	513.09
919.009	596.79
919.181	561.72
919.353	585.36
919.525	546.61
919.697	544.67
919.869	551.07
920.041	571.8
920.213	641.93
920.385	573.73
920.557	567.73
920.729	559.59
920.901	567.34
921.073	561.53
921.244	504.18
921.416	578.58
921.588	532.66
921.76	533.05
921.932	602.41
922.103	515.61
922.275	547.38
922.447	550.68
922.619	453.42
922.79	539.63
922.962	500.89
923.134	560.95
923.305	460.97
923.477	450.32
923.648	481.9
923.82	499.92
923.991	441.4
924.163	442.37
924.335	479.19
924.506	422.22
924.677	515.22
924.849	465.82
925.02	466.98
925.192	494.49
925.363	477.64
925.535	506.31
925.706	479.96
925.877	506.89
926.049	460.39
926.22	456.71
926.391	476.47
926.562	483.64
926.734	448.96
926.905	508.25
927.076	434.82
927.247	433.85
927.419	416.99
927.59	381.54
927.761	434.04
927.932	418.15
928.103	430.75
928.274	361
928.445	327.48
928.616	382.31
928.787	356.74
928.958	397.42
929.129	378.05
929.3	338.52
929.471	296.29
929.642	250.95
929.813	233.9
929.984	333.68
930.155	244.36
930.326	306.17
930.496	243.01
930.667	186.05
930.838	245.72
931.009	211.23
931.18	219.18
931.35	197.09
931.521	206
931.692	158.92
931.863	117.46
932.033	193.6
932.204	156.21
932.374	171.71
932.545	141.87
932.716	194.76
932.886	184.5
933.057	98.47
933.227	114.36
933.398	183.72
933.568	96.53
933.739	56.82
933.909	76.77
934.08	119.59
934.25	60.11
934.421	50.62
934.591	107.38
934.761	73.28
934.932	42.87
935.102	115.33
935.272	78.52
935.443	92.47
935.613	77.35
935.783	87.62
935.953	35.7
936.123	245.72
936.294	68.83
936.464	40.15
936.634	66.31
936.804	47.71
936.974	11.87
937.144	98.08
937.314	92.27
937.484	75.03
937.655	74.45
937.825	110.68
937.995	54.1
938.165	106.42
938.334	52.17
938.504	101.18
938.674	77.55
938.844	89.75
939.014	162.99
939.184	145.75
939.354	161.25
939.524	161.05
939.694	123.85
939.863	152.53
940.033	193.21
940.203	197.09
940.373	152.33
940.542	151.37
940.712	144.2
940.882	161.25
941.051	185.66
941.221	175.2
941.391	191.08
941.56	117.65
941.73	107.77
941.899	238.55
942.069	132.57
942.238	154.85
942.408	118.04
942.577	162.41
942.747	140.52
942.916	80.26
943.086	104.48
943.255	151.95
943.425	110.29
943.594	113
943.763	60.89
943.933	55.07
944.102	46.35
944.271	102.35
944.441	149.82
944.61	74.06
944.779	87.82
944.948	224.41
945.117	59.34
945.287	94.79
945.456	51.97
945.625	72.7
945.794	112.62
945.963	66.89
946.132	100.41
946.301	80.26
946.47	131.8
946.639	32.4
946.808	90.92
946.977	123.47
947.146	146.33
947.315	84.13
947.484	124.05
947.653	95.95
947.822	98.86
947.991	64.37
948.16	191.28
948.329	127.34
948.498	117.27
948.666	88.2
948.835	128.7
949.004	86.07
949.173	48.1
949.341	125.79
949.51	129.86
949.679	136.64
949.847	128.89
950.016	188.56
950.185	157.18
950.353	86.27
950.522	90.53
950.69	128.5
950.859	83.36
951.028	151.75
951.196	121.14
951.365	108.93
951.533	94.98
951.701	117.46
951.87	132.96
952.038	78.13
952.207	126.18
952.375	169
952.543	92.47
952.712	104.48
952.88	61.85
953.048	180.81
953.217	115.52
953.385	97.5
953.553	168.22
953.721	85.1
953.89	95.37
954.058	65.54
954.226	77.16
954.394	101.57
954.562	50.62
954.73	89.56
954.898	86.46
955.067	152.72
955.235	79.68
955.403	143.23
955.571	165.12
955.739	130.05
955.907	57.2
956.075	71.35
956.243	77.16
956.41	132.96
956.578	38.6
956.746	38.8
956.914	106.8
957.082	142.65
957.25	113.78
957.418	66.89
957.585	120.75
957.753	121.33
957.921	66.89
958.089	88.4
958.256	114.17
958.424	127.53
958.592	111.65
958.759	88.98
958.927	152.53
959.095	90.53
959.262	73.67
959.43	107.38
959.597	84.13
959.765	105.83
959.932	59.53
960.1	141.29
960.267	84.33
960.435	78.71
960.602	123.08
960.77	80.07
960.937	47.13
961.104	119.01
961.272	44.03
961.439	70.38
961.606	130.25
961.774	128.5
961.941	80.84
962.108	97.5
962.275	106.22
962.443	152.33
962.61	121.14
962.777	187.79
962.944	133.15
963.111	99.05
963.278	153.69
963.446	115.52
963.613	104.09
963.78	100.99
963.947	126.57
964.114	129.28
964.281	212.78
964.448	133.73
964.615	98.28
964.782	121.14
964.949	138
965.116	140.32
965.282	143.42
965.449	105.45
965.616	80.26
965.783	128.12
965.95	103.7
966.117	61.08
966.283	104.67
966.45	125.79
966.617	113.78
966.784	144.58
966.95	159.31
967.117	161.44
967.284	103.12
967.45	111.65
967.617	188.95
967.784	138.77
967.95	160.28
968.117	124.63
968.283	179.07
968.45	226.93
968.616	142.26
968.783	169.58
968.949	167.64
969.116	171.32
969.282	111.65
969.449	152.14
969.615	125.4
969.781	71.93
969.948	119.98
970.114	60.11
970.28	185.66
970.447	100.8
970.613	170.74
970.779	107
970.945	137.61
971.112	143.03
971.278	122.11
971.444	121.33
971.61	155.63
971.776	125.6
971.942	137.61
972.108	137.22
972.275	93.63
972.441	144
972.607	186.05
972.773	116.68
972.939	137.03
973.105	126.76
973.271	82
973.437	104.87
973.602	91.5
973.768	97.89
973.934	120.75
974.1	138.97
974.266	39.38
974.432	135.67
974.598	101.18
974.763	141.68
974.929	102.73
975.095	181.78
975.261	104.48
975.426	74.83
975.592	119.01
975.758	161.05
975.923	71.54
976.089	85.1
976.255	119.78
976.42	138.19
976.586	138.38
976.751	116.3
976.917	207.16
977.082	142.65
977.248	75.22
977.413	37.64
977.579	81.03
977.744	145.55
977.91	82.97
978.075	82
978.24	125.4
978.406	101.18
978.571	85.68
978.736	86.07
978.902	117.85
979.067	73.28
979.232	34.54
979.397	108.93
979.563	145.55
979.728	69.6
979.893	110.68
980.058	77.55
980.223	150.59
980.388	105.06
980.554	118.23
980.719	82.58
980.884	120.17
981.049	154.85
981.214	100.02
981.379	107.97
981.544	101.18
981.709	90.14
981.874	88.4
982.039	103.12
982.204	119.98
982.368	100.22
982.533	95.37
982.698	137.61
982.863	141.1
983.028	102.35
983.193	104.87
983.357	114.17
983.522	123.47
983.687	105.64
983.852	80.65
984.016	81.62
984.181	130.25
984.346	139.74
984.51	131.41
984.675	111.07
984.839	113.97
985.004	128.89
985.168	143.62
985.333	119.59
985.498	83.94
985.662	136.45
985.827	111.26
985.991	94.79
986.155	55.85
986.32	128.89
986.484	170.74
986.649	123.66
986.813	35.5
986.977	100.22
987.142	102.93
987.306	73.28
987.47	82
987.634	97.31
987.799	107.19
987.963	122.69
988.127	132.38
988.291	184.69
988.455	123.85
988.62	81.23
988.784	124.82
988.948	107.58
989.112	61.66
989.276	112.62
989.44	105.64
989.604	63.6
989.768	83.36
989.932	159.5
990.096	52.36
990.26	39.96
990.424	60.89
990.588	89.95
990.752	165.7
990.915	125.79
991.079	59.34
991.243	56.04
991.407	106.8
991.571	90.33
991.734	116.88
991.898	119.01
992.062	168.22
992.226	86.46
992.389	41.7
992.553	34.15
992.717	38.6
992.88	66.89
993.044	119.01
993.207	68.25
993.371	115.33
993.535	98.47
993.698	115.91
993.862	97.31
994.025	123.85
994.189	79.1
994.352	91.69
994.515	100.6
994.679	112.42
994.842	77.16
995.006	118.62
995.169	50.42
995.332	57.4
995.496	101.77
995.659	32.21
995.822	64.18
995.985	81.23
996.149	139.16
996.312	81.23
996.475	148.85
996.638	55.07
996.801	143.62
996.964	160.08
997.128	74.83
997.291	88.78
997.454	90.14
997.617	21.55
997.78	120.95
997.943	26.98
998.106	72.51
998.269	44.22
998.432	74.64
998.595	90.14
998.758	25.24
998.92	15.94
999.083	37.44
999.246	59.34
999.409	44.8
999.572	-0.73
999.735	48.87
999.897	84.13
1000.06	52.55
1000.223	48.49
1000.386	79.1
1000.548	71.35
1000.711	78.71
1000.874	60.69
1001.036	18.07
1001.199	107.19
1001.361	21.75
1001.524	88.4
1001.687	92.85
1001.849	42.29
1002.012	67.86
1002.174	99.83
1002.337	83.75
1002.499	47.13
1002.661	102.35
1002.824	38.8
1002.986	39.77
1003.149	66.5
1003.311	58.17
1003.473	107.97
1003.636	37.05
1003.798	101.96
1003.96	90.72
1004.123	51.39
1004.285	45.39
1004.447	47.52
1004.609	72.32
1004.771	123.08
1004.933	9.93
1005.096	31.63
1005.258	-15.06
1005.42	15.55
1005.582	96.53
1005.744	60.11
1005.906	9.74
1006.068	71.15
1006.23	0.63
1006.392	17.87
1006.554	29.5
1006.716	96.34
1006.878	87.62
1007.04	16.32
1007.202	41.51
1007.363	55.46
1007.525	49.84
1007.687	84.52
1007.849	91.11
1008.011	-13.32
1008.172	-4.6
1008.334	42.87
1008.496	85.3
1008.658	-11.96
1008.819	8.77
1008.981	16.52
1009.143	13.03
1009.304	48.49
1009.466	86.07
1009.627	104.48
1009.789	135.87
1009.95	84.52
1010.112	-2.47
1010.273	58.56
1010.435	17.87
1010.596	30.27
1010.758	17.29
1010.919	15.55
1011.081	12.25
1011.242	46.55
1011.403	71.35
1011.565	30.27
1011.726	72.51
1011.887	0.24
1012.049	47.9
1012.21	97.7
1012.371	90.72
1012.532	-26.11
1012.693	44.03
1012.855	26.2
1013.016	29.3
1013.177	70.57
1013.338	18.07
1013.499	101.57
1013.66	60.5
1013.821	64.57
1013.982	52.36
1014.143	48.29
1014.304	19.23
1014.465	51.59
1014.626	69.6
1014.787	33.57
1014.948	126.37
1015.109	-44.71
1015.27	81.03
1015.431	2.57
1015.592	24.27
1015.752	108.93
1015.913	56.82
1016.074	56.24
1016.235	60.3
1016.395	27.37
1016.556	33.76
1016.717	14.58
1016.877	100.02
1017.038	1.4
1017.199	48.87
1017.359	36.09
1017.52	31.05
1017.681	23.88
1017.841	30.66
1018.002	37.25
1018.162	18.26
1018.323	108.93
1018.483	37.25
1018.644	-4.21
1018.804	-12.55
1018.964	-33.86
1019.125	7.8
1019.285	32.6
1019.446	-9.64
1019.606	-23.01
1019.766	-39.28
1019.926	49.26
1020.087	67.47
1020.247	-0.73
1020.407	49.07
1020.567	98.28
1020.728	28.53
1020.888	5.09
1021.048	28.53
1021.208	-3.25
1021.368	-16.23
1021.528	78.32
1021.688	27.75
1021.848	67.86
1022.008	54.69
1022.168	33.37
1022.328	50.62
1022.488	44.42
1022.648	12.06
1022.808	-11
1022.968	65.34
1023.128	18.07
1023.288	-4.41
1023.448	18.65
1023.608	46.35
1023.767	56.43
1023.927	6.05
1024.087	-11
1024.247	-29.21
1024.406	-0.15
1024.566	-15.06
1024.726	-1.89
1024.885	13.61
1025.045	56.04
1025.205	31.82
1025.364	0.82
1025.524	20.97
1025.683	20
1025.843	42.48
1026.003	44.42
1026.162	80.26
1026.321	50.81
1026.481	43.45
1026.64	13.42
1026.8	21.36
1026.959	22.33
1027.119	27.17
1027.278	-17
1027.437	11.09
1027.597	24.46
1027.756	47.71
1027.915	20.2
1028.074	35.89
1028.234	-4.02
1028.393	28.14
1028.552	1.79
1028.711	-75.51
1028.87	54.3
1029.03	-38.51
1029.189	13.8
1029.348	-51.29
1029.507	17.29
1029.666	2.95
1029.825	-17.97
1029.984	-33.08
1030.143	20
1030.302	-4.99
1030.461	-46.64
1030.62	12.64
1030.779	36.09
1030.938	-17.78
1031.097	-30.18
1031.255	54.69
1031.414	73.48
1031.573	64.18
1031.732	-40.44
1031.891	-13.71
1032.049	55.46
1032.208	47.52
1032.367	2.18
1032.525	5.86
1032.684	-1.31
1032.843	20.39
1033.001	-44.9
1033.16	169.38
1033.319	61.66
1033.477	39.19
1033.636	-13.51
1033.794	-26.49
1033.953	51.59
1034.111	39.57
1034.27	-6.15
1034.428	40.93
1034.587	-47.81
1034.745	31.82
1034.903	27.75
1035.062	17.68
1035.22	-24.17
1035.378	46.94
1035.537	-8.28
1035.695	46.16
1035.853	-3.05
1036.011	51.97
1036.17	48.1
1036.328	-49.94
1036.486	19.81
1036.644	11.09
1036.802	-78.03
1036.96	-32.5
1037.119	7.41
1037.277	-6.35
1037.435	-40.64
1037.593	-33.66
1037.751	-14.48
1037.909	57.98
1038.067	57.98
