Data from gum_old_FLMT105791__176__15-48-03-249.txt Node

Date: Mon Mar 20 15:48:03 GMT 2023
User: antho
Spectrometer: FLMT10579
Trigger mode: 0
Integration Time (sec): 1.000000E-1
Scans to average: 10
Electric dark correction enabled: true
Nonlinearity correction enabled: false
Boxcar width: 0
XAxis mode: Wavelengths
Number of Pixels in Spectrum: 3648
>>>>>Begin Spectral Data<<<<<
345.248	-189.81
345.464	-189.81
345.681	-189.81
345.898	-219.84
346.114	-180.51
346.331	-49.34
346.548	23.7
346.764	-6.14
346.981	-13.89
347.197	-28.03
347.414	32.81
347.631	-27.06
347.847	93.45
348.064	10.72
348.28	31.65
348.497	-73.17
348.713	5.3
348.93	37.26
349.146	27.19
349.363	-19.31
349.579	-6.14
349.796	19.83
350.012	-0.52
350.229	47.53
350.445	12.08
350.661	-3.23
350.878	11.3
351.094	42.3
351.311	47.73
351.527	39.78
351.743	15.18
351.96	43.46
352.176	67.1
352.392	35.91
352.609	56.25
352.825	-5.94
353.041	26.41
353.257	0.26
353.474	34.36
353.69	19.83
353.906	31.65
354.122	-4.97
354.339	65.36
354.555	31.65
354.771	48.89
354.987	81.44
355.203	77.37
355.42	11.88
355.636	20.6
355.852	0.65
356.068	38.43
356.284	-12.34
356.5	91.32
356.716	33.2
356.932	18.28
357.148	51.99
357.364	4.91
357.58	52.38
357.796	85.7
358.012	71.75
358.228	64.97
358.444	-59.8
358.66	59.16
358.876	39.59
359.092	-3.81
359.308	23.12
359.524	41.72
359.74	19.83
359.956	-7.49
360.172	29.9
360.388	64.19
360.604	20.8
360.819	115.54
361.035	47.15
361.251	44.43
361.467	-7.69
361.683	72.33
361.898	29.51
362.114	73.11
362.33	48.31
362.546	78.14
362.762	33.39
362.977	48.89
363.193	2.39
363.409	71.75
363.624	13.24
363.84	-5.75
364.056	23.9
364.271	70.2
364.487	52.96
364.703	17.31
364.918	-13.5
365.134	19.83
365.35	53.35
365.565	124.64
365.781	52.18
365.996	63.03
366.212	114.96
366.427	59.54
366.643	37.65
366.858	35.71
367.074	3.36
367.289	116.7
367.505	158.16
367.72	-12.72
367.936	53.15
368.151	74.66
368.367	69.23
368.582	43.66
368.798	32.23
369.013	77.37
369.228	63.23
369.444	50.25
369.659	107.59
369.874	62.45
370.09	99.46
370.305	-20.86
370.52	41.14
370.736	104.88
370.951	70.01
371.166	109.53
371.381	105.46
371.597	97.33
371.812	33.97
372.027	30.87
372.242	54.51
372.458	119.8
372.673	49.47
372.888	38.81
373.103	95
373.318	150.8
373.533	110.89
373.749	52.18
373.964	-6.52
374.179	81.83
374.394	37.85
374.609	124.64
374.824	10.33
375.039	93.84
375.254	30.48
375.469	104.11
375.684	77.56
375.899	101.98
376.114	75.63
376.329	44.63
376.544	109.53
376.759	120.58
376.974	64.39
377.189	62.06
377.404	50.25
377.619	103.14
377.834	16.92
378.049	42.3
378.264	25.06
378.478	89.96
378.693	66.52
378.908	90.16
379.123	69.62
379.338	135.69
379.553	81.05
379.767	67.49
379.982	90.16
380.197	109.53
380.412	55.28
380.626	103.53
380.841	162.81
381.056	112.63
381.271	141.89
381.485	56.83
381.7	47.92
381.915	88.8
382.129	69.81
382.344	86.28
382.559	51.99
382.773	87.64
382.988	20.21
383.202	77.18
383.417	17.5
383.632	144.79
383.846	62.84
384.061	75.63
384.275	46.18
384.49	75.24
384.704	60.9
384.919	82.6
385.133	82.21
385.348	111.28
385.562	57.03
385.777	102.56
385.991	88.99
386.206	49.66
386.42	88.61
386.634	125.42
386.849	92.68
387.063	109.14
387.277	77.76
387.492	84.34
387.706	56.25
387.92	56.45
388.135	114.96
388.349	117.09
388.563	96.36
388.778	92.87
388.992	91.51
389.206	95.19
389.42	165.72
389.635	97.52
389.849	156.03
390.063	156.03
390.277	120.77
390.491	179.47
390.706	139.95
390.92	155.26
391.134	85.89
391.348	145.18
391.562	92.48
391.776	134.33
391.99	116.51
392.205	151.57
392.419	111.66
392.633	117.67
392.847	141.69
393.061	78.92
393.275	147.51
393.489	75.82
393.703	83.57
393.917	106.04
394.131	51.02
394.345	116.31
394.559	126.58
394.773	81.63
394.986	121.16
395.2	126.39
395.414	177.54
395.628	101.39
395.842	137.63
396.056	139.56
396.27	76.98
396.484	126.97
396.697	147.89
396.911	149.64
397.125	106.63
397.339	118.44
397.553	120.58
397.766	187.22
397.98	147.12
398.194	183.93
398.408	143.24
398.621	166.88
398.835	212.22
399.049	189.16
399.262	234.69
399.476	197.11
399.69	206.6
399.903	256.2
400.117	225.59
400.331	200.21
400.544	187.81
400.758	314.9
400.971	242.44
401.185	243.41
401.398	172.89
401.612	246.9
401.826	242.64
402.039	244.38
402.253	215.71
402.466	257.55
402.68	206.79
402.893	225.97
403.106	242.64
403.32	222.68
403.533	259.88
403.747	218.22
403.96	266.47
404.174	254.84
404.387	199.04
404.6	220.16
404.814	289.14
405.027	239.54
405.24	231.01
405.454	221.32
405.667	287.39
405.88	197.3
406.094	260.07
406.307	289.91
406.52	249.42
406.733	203.89
406.947	175.99
407.16	305.02
407.373	311.42
407.586	221.71
407.799	230.24
408.012	278.48
408.226	262.79
408.439	306.38
408.652	200.21
408.865	272.67
409.078	309.29
409.291	284.49
409.504	228.69
409.717	301.92
409.93	282.35
410.143	273.05
410.357	203.11
410.57	195.94
410.783	238.18
410.996	268.6
411.209	267.44
411.421	333.5
411.634	288.94
411.847	274.02
412.06	290.3
412.273	305.22
412.486	294.37
412.699	366.05
412.912	301.34
413.125	344.16
413.338	300.57
413.55	339.12
413.763	300.37
413.976	328.66
414.189	284.49
414.402	293.98
414.615	358.88
414.827	288.36
415.04	344.74
415.253	318.78
415.466	381.55
415.678	357.14
415.891	299.21
416.104	288.94
416.316	309.67
416.529	277.32
416.742	352.68
416.954	371.48
417.167	329.43
417.38	307.35
417.592	357.92
417.805	263.17
418.017	283.13
418.23	356.17
418.442	304.83
418.655	302.31
418.868	318
419.08	369.35
419.293	355.98
419.505	350.17
419.718	366.05
419.93	377.87
420.142	310.84
420.355	380.39
420.567	376.32
420.78	338.15
420.992	363.92
421.205	394.53
421.417	298.05
421.629	332.53
421.842	319.36
422.054	299.02
422.266	388.53
422.479	392.4
422.691	329.05
422.903	363.15
423.115	314.32
423.328	323.23
423.54	336.41
423.752	343
423.964	303.47
424.177	376.52
424.389	346.1
424.601	495.28
424.813	402.67
425.025	382.33
425.238	409.45
425.45	377.1
425.662	369.35
425.874	684.96
426.086	351.13
426.298	395.89
426.51	384.27
426.722	361.98
426.934	362.37
427.146	410.03
427.358	330.98
427.57	403.06
427.782	353.85
427.994	367.6
428.206	319.94
428.418	350.17
428.63	400.93
428.842	422.82
429.054	413.33
429.266	448.59
429.478	361.6
429.69	362.76
429.902	317.42
430.114	410.61
430.325	352.68
430.537	329.63
430.749	341.64
430.961	244.96
431.173	314.13
431.384	333.12
431.596	245.35
431.808	330.98
432.02	374.58
432.231	460.21
432.443	473
432.655	452.66
432.867	398.02
433.078	451.5
433.29	499.74
433.502	467.77
433.713	486.18
433.925	465.64
434.136	507.49
434.348	382.52
434.56	363.15
434.771	534.03
434.983	375.35
435.194	425.53
435.406	435.8
435.617	491.21
435.829	560.19
436.04	515.63
436.252	519.11
436.463	553.79
436.675	518.34
436.886	511.17
437.098	531.32
437.309	593.32
437.521	516.21
437.732	534.81
437.943	516.59
438.155	491.6
438.366	456.92
438.578	566.39
438.789	473.58
439	480.95
439.211	463.12
439.423	493.73
439.634	506.13
439.845	536.94
440.057	507.68
440.268	569.49
440.479	517.37
440.69	526.86
440.902	534.61
441.113	497.61
441.324	515.24
441.535	546.82
441.746	620.64
441.957	530.16
442.168	559.03
442.38	609.01
442.591	604.36
442.802	556.51
443.013	574.53
443.224	620.44
443.435	556.12
443.646	579.18
443.857	571.62
444.068	559.8
444.279	585.76
444.49	676.63
444.701	602.81
444.912	735.14
445.123	648.34
445.334	658.42
445.545	622.19
445.756	602.81
445.967	577.24
446.178	609.59
446.388	612.69
446.599	620.06
446.81	637.88
447.021	596.22
447.232	665.78
447.443	680.5
447.653	591.57
447.864	663.07
448.075	667.91
448.286	683.8
448.496	652.41
448.707	678.95
448.918	638.07
449.129	735.72
449.339	604.36
449.55	668.49
449.761	641.95
449.971	685.54
450.182	656.87
450.393	684.38
450.603	634.01
450.814	722.74
451.024	709.18
451.235	737.47
451.446	775.25
451.656	785.52
451.867	681.47
452.077	700.07
452.288	765.17
452.498	743.86
452.709	702.98
452.919	723.32
453.13	661.52
453.34	731.27
453.55	636.91
453.761	715.96
453.971	692.13
454.182	715.77
454.392	738.05
454.602	772.73
454.813	736.89
455.023	762.27
455.233	653.19
455.444	687.67
455.654	640.01
455.864	681.47
456.075	676.24
456.285	662.87
456.495	702.98
456.705	721.39
456.916	770.02
457.126	819.81
457.336	730.49
457.546	662.87
457.756	706.47
457.967	786.1
458.177	710.92
458.387	702.2
458.597	695.81
458.807	725.84
459.017	722.55
459.227	733.4
459.437	711.89
459.647	780.87
459.857	743.67
460.068	688.84
460.278	789.39
460.488	739.21
460.698	820.39
460.908	740.76
461.117	702.2
461.327	739.02
461.537	785.9
461.747	780.09
461.957	763.43
462.167	884.71
462.377	833.18
462.587	773.89
462.797	819.81
463.007	798.88
463.216	825.62
463.426	873.48
463.636	821.94
463.846	741.54
464.056	793.85
464.265	846.35
464.475	779.32
464.685	780.09
464.895	845.38
465.104	789.78
465.314	840.15
465.524	752.58
465.733	766.92
465.943	883.36
466.153	888.59
466.362	862.05
466.572	831.82
466.782	784.16
466.991	825.23
467.201	833.76
467.41	749.87
467.62	826.98
467.829	793.65
468.039	855.65
468.249	785.9
468.458	834.92
468.668	872.31
468.877	872.9
469.086	894.4
469.296	894.01
469.505	863.79
469.715	925.98
469.924	880.65
470.134	955.63
470.343	924.82
470.552	868.83
470.762	862.43
470.971	831.24
471.18	874.83
471.39	891.69
471.599	833.37
471.808	898.47
472.018	900.6
472.227	956.4
472.436	962.21
472.645	939.16
472.855	899.25
473.064	1021.89
473.273	992.63
473.482	975.39
473.691	1002.13
473.901	1008.91
474.11	940.51
474.319	1071.49
474.528	962.21
474.737	1045.72
474.946	1025.57
475.155	1022.66
475.364	1075.36
475.573	1033.12
475.783	1039.32
475.992	1047.85
476.201	1088.15
476.41	1020.53
476.619	1019.76
476.828	1049.4
477.037	1040.49
477.245	1034.29
477.454	1090.09
477.663	1084.47
477.872	1070.52
478.081	1171.46
478.29	1064.71
478.499	1205.75
478.708	1184.44
478.917	1227.45
479.125	1120.31
479.334	1160.61
479.543	1118.37
479.752	1196.07
479.961	1161.77
480.169	1177.27
480.378	1179.4
480.587	1335.18
480.796	1234.04
481.004	1191.61
481.213	1221.06
481.422	1230.55
481.63	1232.3
481.839	1295.07
482.048	1322.39
482.256	1243.53
482.465	1295.85
482.674	1344.09
482.882	1346.41
483.091	1384.78
483.299	1300.5
483.508	1324.71
483.716	1317.55
483.925	1307.86
484.134	1324.13
484.342	1290.42
484.551	1347.58
484.759	1348.35
484.967	1367.73
485.176	1360.95
485.384	1384.58
485.593	1349.71
485.801	1349.32
486.01	1322.39
486.218	1273.95
486.426	1170.1
486.635	1163.9
486.843	1150.73
487.051	1209.63
487.26	1215.05
487.468	1262.91
487.676	1287.71
487.885	1291.97
488.093	1323.16
488.301	1404.73
488.509	1378.58
488.717	1447.36
488.926	1382.84
489.134	1371.02
489.342	1383.42
489.55	1356.68
489.758	1387.68
489.967	1403.18
490.175	1550.04
490.383	1464.6
490.591	1553.53
490.799	1482.23
491.007	1555.85
491.215	1466.92
491.423	1487.46
491.631	1487.46
491.839	1482.04
492.047	1498.12
492.255	1436.51
492.463	1395.04
492.671	1428.37
492.879	1509.16
493.087	1466.73
493.295	1500.83
493.503	1543.07
493.711	1558.18
493.919	1592.86
494.127	1608.55
494.334	1587.82
494.542	1483.2
494.75	1595.96
494.958	1540.74
495.166	1665.71
495.374	1623.47
495.581	1639.55
495.789	1625.6
495.997	1661.25
496.205	1589.57
496.412	1576.59
496.62	1598.48
496.828	1625.99
497.035	1631.42
497.243	1664.16
497.451	1665.9
497.658	1673.07
497.866	1666.48
498.074	1708.92
498.281	1645.56
498.489	1718.6
498.696	1647.11
498.904	1616.69
499.112	1617.66
499.319	1722.09
499.527	1653.12
499.734	1699.42
499.942	1611.46
500.149	1656.8
500.357	1706.2
500.564	1642.65
500.771	1684.31
500.979	1586.47
501.186	1595.57
501.394	1647.11
501.601	1627.54
501.808	1640.72
502.016	1637.03
502.223	1614.75
502.43	1600.61
502.638	1617.66
502.845	1630.45
503.052	1720.54
503.26	1637.23
503.467	1739.91
503.674	1678.69
503.881	1694.19
504.089	1787
504.296	1702.13
504.503	1630.64
504.71	1672.1
504.917	1660.09
505.125	1710.08
505.332	1744.76
505.539	1762.2
505.746	1847.25
505.953	1742.05
506.16	1820.32
506.367	1825.16
506.574	1846.28
506.781	1859.46
506.988	1802.69
507.195	1841.24
507.402	1795.33
507.609	1841.83
507.816	1784.48
508.023	1763.16
508.23	1788.55
508.437	1745.92
508.644	1808.11
508.851	1844.54
509.058	1816.06
509.265	1788.35
509.472	1845.31
509.679	1921.46
509.885	1839.5
510.092	1845.31
510.299	1886.19
510.506	1820.32
510.713	1811.41
510.92	1850.93
511.126	1887.36
511.333	1904.41
511.54	1875.34
511.746	1954.78
511.953	1923.59
512.16	1952.07
512.367	1883.68
512.573	1903.63
512.78	1913.12
512.987	1918.55
513.193	1885.81
513.4	1770.53
513.606	1860.62
513.813	1889.68
514.02	1885.03
514.226	1948.19
514.433	1953.62
514.639	1847.44
514.846	1893.94
515.052	1858.1
515.259	1929.01
515.465	1895.11
515.672	1920.68
515.878	2020.65
516.085	1944.32
516.291	2006.32
516.497	1966.21
516.704	1907.51
516.91	1854.61
517.117	1786.03
517.323	1713.18
517.529	1742.43
517.736	1726.16
517.942	1739.33
518.148	1792.61
518.354	1816.83
518.561	1860.81
518.767	1835.04
518.973	1886.19
519.179	1894.72
519.386	1889.29
519.592	1867.01
519.798	1867.4
520.004	2026.08
520.21	1929.79
520.417	2024.72
520.623	2095.44
520.829	2059.02
521.035	2056.5
521.241	2044.29
521.447	2093.7
521.653	2200.84
521.859	2072.38
522.065	2118.5
522.271	2186.31
522.477	2136.32
522.683	2207.62
522.889	2157.83
523.095	2149.11
523.301	2110.75
523.507	2093.5
523.713	2143.68
523.919	2078.39
524.125	2233.97
524.331	2201.03
524.537	2299.26
524.742	2264.78
524.948	2326.78
525.154	2279.5
525.36	2392.84
525.566	2277.18
525.772	2346.15
525.977	2233.58
526.183	2297.52
526.389	2303.33
526.595	2227.96
526.8	2233.2
527.006	2157.44
527.212	2046.62
527.417	2082.85
527.623	2076.07
527.829	2162.09
528.034	2223.31
528.24	2227.19
528.446	2226.22
528.651	2314.96
528.857	2308.18
529.062	2415.51
529.268	2349.44
529.473	2393.62
529.679	2384.51
529.884	2497.85
530.09	2445.74
530.295	2464.72
530.501	2436.44
530.706	2412.99
530.912	2388.19
531.117	2449.03
531.323	2457.75
531.528	2509.09
531.733	2479.45
531.939	2485.26
532.144	2489.14
532.35	2471.7
532.555	2559.08
532.76	2512
532.966	2464.92
533.171	2435.85
533.376	2357.77
533.581	2356.03
533.787	2380.25
533.992	2483.52
534.197	2506.96
534.402	2436.05
534.607	2474.6
534.813	2545.32
535.018	2503.28
535.223	2510.64
535.428	2521.1
535.633	2559.08
535.838	2549.78
536.043	2578.65
536.249	2722.6
536.454	2589.11
536.659	2614.1
536.864	2584.07
537.069	2586.2
537.274	2555.4
537.479	2560.63
537.684	2544.16
537.889	2476.74
538.094	2630.96
538.299	2569.54
538.504	2572.64
538.708	2603.64
538.913	2668.16
539.118	2590.27
539.323	2604.61
539.528	2581.17
539.733	2545.32
539.938	2580
540.142	2561.98
540.347	2541.83
540.552	2491.27
540.757	2519.75
540.962	2537.38
541.166	2503.67
541.371	2474.99
541.576	2493.59
541.781	2419.97
541.985	2595.11
542.19	2506.38
542.395	2661.57
542.599	2642.39
542.804	2621.85
543.008	2664.86
543.213	2568.38
543.418	2531.95
543.622	2621.85
543.827	2551.33
544.031	2657.11
544.236	2667
544.44	2667.19
544.645	2731.9
544.849	2603.83
545.054	2675.91
545.258	2793.32
545.463	2702.45
545.667	2598.8
545.872	2671.06
546.076	2667.38
546.281	2673.97
546.485	2616.62
546.689	2661.57
546.894	2688.11
547.098	2673.2
547.302	2679.01
547.507	2679.98
547.711	2687.92
547.915	2753.02
548.119	2627.47
548.324	2584.07
548.528	2741.39
548.732	2628.83
548.936	2714.66
549.141	2703.81
549.345	2706.52
549.549	2706.33
549.753	2710.59
549.957	2740.04
550.161	2763.09
550.366	2698.19
550.57	2677.26
550.774	2705.36
550.978	2722.21
551.182	2767.74
551.386	2659.83
551.59	2683.66
551.794	2710.39
551.998	2719.31
552.202	2664.28
552.406	2654.98
552.61	2735
552.814	2705.36
553.018	2773.56
553.222	2683.85
553.426	2666.61
553.63	2743.33
553.833	2720.28
554.037	2608.68
554.241	2748.95
554.445	2715.63
554.649	2657.5
554.853	2697.22
555.056	2754.96
555.26	2753.02
555.464	2711.17
555.668	2738.88
555.871	2735.78
556.075	2736.94
556.279	2694.12
556.483	2616.43
556.686	2673.58
556.89	2677.46
557.094	2682.3
557.297	2565.08
557.501	2704.58
557.704	2600.35
557.908	2715.43
558.112	2577.1
558.315	2697.22
558.519	2597.05
558.722	2595.5
558.926	2593.76
559.129	2515.48
559.333	2522.27
559.536	2471.5
559.74	2504.83
559.943	2473.64
560.147	2491.27
560.35	2507.54
560.553	2521.88
560.757	2457.17
560.96	2601.9
561.164	2530.4
561.367	2624.37
561.57	2571.28
561.774	2573.22
561.977	2527.88
562.18	2509.48
562.384	2647.62
562.587	2542.22
562.79	2518.2
562.993	2481.19
563.197	2531.18
563.4	2602.28
563.603	2595.89
563.806	2631.35
564.009	2526.92
564.212	2575.74
564.416	2471.89
564.619	2549.2
564.822	2461.24
565.025	2572.64
565.228	2494.17
565.431	2530.4
565.634	2399.62
565.837	2419.58
566.04	2470.92
566.243	2406.02
566.446	2297.33
566.649	2414.54
566.852	2358.94
567.055	2401.95
567.258	2426.17
567.461	2473.44
567.664	2472.67
567.867	2368.24
568.07	2430.24
568.273	2387.42
568.475	2517.23
568.678	2393.04
568.881	2346.73
569.084	2367.66
569.287	2260.71
569.489	2305.08
569.692	2360.1
569.895	2378.12
570.098	2270.78
570.3	2259.16
570.503	2257.61
570.706	2275.82
570.909	2260.71
571.111	2209.56
571.314	2225.06
571.516	2217.5
571.719	2234.55
571.922	2187.08
572.124	2204.13
572.327	2266.13
572.529	2180.5
572.732	2241.14
572.935	2290.16
573.137	2355.84
573.34	2253.54
573.542	2272.91
573.745	2256.06
573.947	2251.02
574.15	2206.07
574.352	2207.81
574.554	2328.13
574.757	2228.55
574.959	2215.56
575.162	2173.33
575.364	2197.35
575.566	2274.85
575.769	2115.2
575.971	2181.27
576.173	2050.69
576.376	2120.24
576.578	2159.57
576.78	2223.51
576.982	2094.67
577.185	2143.68
577.387	2103.97
577.589	2104.16
577.791	2149.69
577.993	2148.33
578.196	2139.81
578.398	2140.97
578.6	2177.78
578.802	2057.27
579.004	2053.2
579.206	2047.39
579.408	2093.89
579.61	2066.57
579.812	2130.51
580.014	2089.63
580.216	2091.95
580.418	2083.23
580.62	2068.12
580.822	2019.1
581.024	2071.03
581.226	2122.57
581.428	2064.05
581.63	2129.54
581.832	2073.16
582.034	2144.46
582.236	2101.45
582.438	2128.18
582.64	2156.28
582.841	2175.46
583.043	2205.1
583.245	2140.78
583.447	2149.5
583.649	2080.91
583.85	2135.55
584.052	2136.32
584.254	2035.19
584.456	2120.24
584.657	2072.38
584.859	2090.4
585.061	2059.6
585.262	2057.85
585.464	1992.56
585.666	2061.92
585.867	1996.63
586.069	2107.45
586.27	2064.25
586.472	2032.47
586.674	2025.11
586.875	2005.54
587.077	1997.21
587.278	2025.3
587.48	1992.95
587.681	2125.28
587.883	2020.27
588.084	1975.9
588.285	1989.46
588.487	1971.06
588.688	1985.78
588.89	1943.74
589.091	1867.98
589.292	1864.69
589.494	1834.08
589.695	1798.04
589.896	1709.3
590.098	1726.16
590.299	1781.57
590.5	1734.49
590.702	1821.09
590.903	1800.36
591.104	1902.27
591.305	1896.07
591.507	1952.46
591.708	1901.5
591.909	1886
592.11	1940.64
592.311	1914.87
592.512	1823.03
592.714	1851.51
592.915	1864.49
593.116	1848.03
593.317	1922.62
593.518	1863.72
593.719	1835.63
593.92	1910.61
594.121	1940.25
594.322	1876.12
594.523	1908.09
594.724	1817.03
594.925	1871.86
595.126	1873.79
595.327	1874.76
595.528	1872.24
595.729	1857.33
595.929	1837.95
596.13	1917.97
596.331	1909.06
596.532	1897.24
596.733	1943.74
596.934	1930.17
597.135	1910.22
597.335	1910.61
597.536	1849.96
597.737	1893.36
597.938	1890.84
598.138	1909.83
598.339	1851.32
598.54	1865.08
598.74	1834.85
598.941	1866.24
599.142	1939.67
599.342	1893.17
599.543	1836.01
599.744	1852.48
599.944	1865.66
600.145	1860.43
600.345	1876.12
600.546	1951.29
600.746	1918.94
600.947	1912.93
601.147	1850.74
601.348	1889.49
601.548	1829.43
601.749	1859.65
601.949	1786.22
602.15	1814.31
602.35	1815.67
602.551	1829.04
602.751	1796.1
602.951	1807.34
603.152	1729.45
603.352	1871.66
603.552	1845.7
603.753	1839.5
603.953	1847.44
604.153	1865.27
604.354	1832.33
604.554	1819.16
604.754	1851.32
604.954	1811.41
605.155	1847.06
605.355	1848.22
605.555	1829.04
605.755	1858.68
605.955	1821.68
606.155	1812.57
606.356	1801.53
606.556	1845.51
606.756	1829.43
606.956	1779.05
607.156	1874.96
607.356	1758.13
607.556	1849.77
607.756	1854.03
607.956	1848.22
608.156	1839.31
608.356	1758.13
608.556	1805.79
608.756	1773.24
608.956	1736.62
609.156	1783.9
609.356	1717.25
609.556	1697.48
609.755	1789.71
609.955	1755.8
610.155	1767.23
610.355	1768.98
610.555	1740.69
610.755	1726.35
610.954	1676.37
611.154	1736.43
611.354	1781.96
611.554	1712.21
611.753	1740.11
611.953	1692.64
612.153	1736.62
612.352	1723.64
612.552	1661.83
612.752	1649.24
612.951	1684.5
613.151	1688.38
613.351	1638
613.55	1712.79
613.75	1671.33
613.949	1671.13
614.149	1701.75
614.348	1660.87
614.548	1613.4
614.747	1603.13
614.947	1644.01
615.146	1552.37
615.346	1684.31
615.545	1691.67
615.745	1658.54
615.944	1646.53
616.144	1631.03
616.343	1654.67
616.542	1576.2
616.742	1606.23
616.941	1590.34
617.14	1542.68
617.34	1591.7
617.539	1609.72
617.738	1579.69
617.938	1674.62
618.137	1613.01
618.336	1583.75
618.535	1636.45
618.734	1590.15
618.934	1604.1
619.133	1627.93
619.332	1658.15
619.531	1581.04
619.73	1602.35
619.929	1652.15
620.128	1663.38
620.328	1657.38
620.527	1577.94
620.726	1625.8
620.925	1621.73
621.124	1608.36
621.323	1647.5
621.522	1555.85
621.721	1580.27
621.92	1534.74
622.119	1590.73
622.318	1537.84
622.517	1581.43
622.715	1554.3
622.914	1473.71
623.113	1552.17
623.312	1496.18
623.511	1574.26
623.71	1515.17
623.909	1483.78
624.107	1618.44
624.306	1498.89
624.505	1502.77
624.704	1497.54
624.902	1482.62
625.101	1584.34
625.3	1546.75
625.499	1474.87
625.697	1498.31
625.896	1465.76
626.095	1495.02
626.293	1441.35
626.492	1442.9
626.69	1509.36
626.889	1442.71
627.088	1506.45
627.286	1496.18
627.485	1491.14
627.683	1432.44
627.882	1508.97
628.08	1423.72
628.279	1460.34
628.477	1541.71
628.676	1409.19
628.874	1452.2
629.073	1409.58
629.271	1396.79
629.469	1452.39
629.668	1424.69
629.866	1430.11
630.065	1422.36
630.263	1451.81
630.461	1426.24
630.66	1485.14
630.858	1426.63
631.056	1447.16
631.254	1468.28
631.453	1399.11
631.651	1444.84
631.849	1437.86
632.047	1424.69
632.245	1389.43
632.444	1443.68
632.642	1442.51
632.84	1464.41
633.038	1461.69
633.236	1380.13
633.434	1399.89
633.632	1389.43
633.83	1395.82
634.028	1426.63
634.227	1385.55
634.425	1487.66
634.623	1427.4
634.821	1439.03
635.019	1485.91
635.216	1393.3
635.414	1441.74
635.612	1441.54
635.81	1397.95
636.008	1456.46
636.206	1376.83
636.404	1440.96
636.602	1387.1
636.8	1385.94
636.997	1438.64
637.195	1420.23
637.393	1410.16
637.591	1456.46
637.789	1426.82
637.986	1423.72
638.184	1419.84
638.382	1451.81
638.58	1446.39
638.777	1473.12
638.975	1434.76
639.173	1423.91
639.37	1461.69
639.568	1411.9
639.765	1430.89
639.963	1366.76
640.161	1436.7
640.358	1425.08
640.556	1363.85
640.753	1309.6
640.951	1333.24
641.148	1368.7
641.346	1350.29
641.543	1334.21
641.741	1365.98
641.938	1319.68
642.136	1337.11
642.333	1301.46
642.531	1436.51
642.728	1405.89
642.925	1333.82
643.123	1343.12
643.32	1370.44
643.517	1316.19
643.715	1351.26
643.912	1319.29
644.109	1344.09
644.306	1315.03
644.504	1330.14
644.701	1309.21
644.898	1369.47
645.095	1274.73
645.293	1318.9
645.49	1344.67
645.687	1321.61
645.884	1324.52
646.081	1241.79
646.278	1259.23
646.475	1291.2
646.672	1279.57
646.87	1281.9
647.067	1276.47
647.264	1306.7
647.461	1229.39
647.658	1214.86
647.855	1297.4
648.052	1258.07
648.249	1154.6
648.446	1221.25
648.642	1176.11
648.839	1196.84
649.036	1213.12
649.233	1179.6
649.43	1182.89
649.627	1159.25
649.824	1194.9
650.021	1174.75
650.217	1142.01
650.414	1166.42
650.611	1233.27
650.808	1218.54
651.004	1196.26
651.201	1221.45
651.398	1282.09
651.595	1208.85
651.791	1187.74
651.988	1242.95
652.185	1152.67
652.381	1242.18
652.578	1137.36
652.775	1176.89
652.971	1188.12
653.168	1177.08
653.364	1213.12
653.561	1131.74
653.757	1185.22
653.954	1198.39
654.15	1135.04
654.347	1247.6
654.543	1167.2
654.74	1111.4
654.936	1120.5
655.133	1171.85
655.329	1149.95
655.525	1124.57
655.722	1189.48
655.918	1107.14
656.115	1139.1
656.311	1027.51
656.507	1014.33
656.704	950.2
656.9	987.79
657.096	997.48
657.292	997.86
657.489	1075.36
657.685	1087.76
657.881	1033.12
658.077	1061.61
658.273	1081.37
658.47	1150.92
658.666	1073.23
658.862	1143.56
659.058	1092.61
659.254	1183.28
659.45	1082.92
659.646	1139.69
659.842	1111.79
660.038	1181.92
660.234	1064.12
660.43	1109.46
660.626	1159.25
660.822	1151.7
661.018	1152.86
661.214	1153.64
661.41	1086.99
661.606	1148.4
661.802	1163.52
661.998	1118.57
662.194	1097.26
662.39	1122.64
662.586	1130.39
662.781	1144.92
662.977	1163.52
663.173	1132.71
663.369	1126.51
663.564	1108.88
663.76	1133.49
663.956	1063.74
664.152	1119.54
664.347	1035.45
664.543	1109.27
664.739	1067.42
664.934	1022.66
665.13	1057.34
665.326	1123.99
665.521	1112.56
665.717	1058.12
665.912	1048.62
666.108	980.43
666.304	1043.59
666.499	1058.89
666.695	985.46
666.89	1054.82
667.086	1091.44
667.281	1049.4
667.477	1129.03
667.672	1049.4
667.867	1051.14
668.063	1082.14
668.258	1013.94
668.454	1050.17
668.649	1132.13
668.844	1070.71
669.04	1100.55
669.235	1051.92
669.43	1030.22
669.626	1000.38
669.821	1019.76
670.016	1005.42
670.211	1040.49
670.407	1000.77
670.602	1054.82
670.797	1014.91
670.992	1084.08
671.187	1001.54
671.382	1065.87
671.578	999.22
671.773	1022.66
671.968	975
672.163	981.98
672.358	1035.26
672.553	960.28
672.748	980.04
672.943	1042.23
673.138	998.25
673.333	1028.67
673.528	950.78
673.723	1032.74
673.918	1003.29
674.113	940.32
674.308	1079.04
674.503	1045.91
674.698	1024.02
674.892	1022.27
675.087	1038.74
675.282	999.99
675.477	989.34
675.672	1035.84
675.867	994.57
676.061	950.59
676.256	953.3
676.451	997.09
676.646	1023.05
676.84	946.52
677.035	953.11
677.23	942.64
677.424	994.57
677.619	1043.59
677.814	1012.01
678.008	1014.72
678.203	916.88
678.397	933.73
678.592	967.25
678.787	1040.29
678.981	977.52
679.176	963.38
679.37	988.18
679.565	944.97
679.759	943.42
679.954	1004.45
680.148	1007.74
680.342	1029.83
680.537	971.32
680.731	988.95
680.926	982.17
681.12	1013.75
681.314	928.5
681.509	968.8
681.703	960.08
681.897	1012.59
682.092	965.12
682.286	953.49
682.48	1038.74
682.674	990.69
682.869	926.18
683.063	958.34
683.257	1024.41
683.451	937.22
683.645	963.38
683.839	944.97
684.034	972.29
684.228	996.12
684.422	909.71
684.616	925.6
684.81	976.16
685.004	955.63
685.198	950.39
685.392	967.64
685.586	937.61
685.78	973.06
685.974	992.05
686.168	954.27
686.362	1043.2
686.556	905.83
686.75	892.46
686.944	888.01
687.138	905.25
687.331	783.58
687.525	802.76
687.719	757.23
687.913	806.25
688.107	801.6
688.301	807.6
688.494	875.41
688.688	784.55
688.882	759.17
689.076	765.75
689.269	798.69
689.463	891.11
689.657	791.91
689.85	871.15
690.044	855.65
690.238	849.65
690.431	808.96
690.625	845.38
690.818	879.68
691.012	897.5
691.205	895.95
691.399	832.79
691.593	900.41
691.786	973.26
691.98	962.41
692.173	955.24
692.366	904.28
692.56	936.44
692.753	996.31
692.947	904.67
693.14	1002.32
693.333	974.81
693.527	893.24
693.72	956.79
693.914	964.93
694.107	938.38
694.3	963.76
694.493	953.88
694.687	1006.39
694.88	939.74
695.073	1008.71
695.266	995.54
695.46	994.76
695.653	1072.07
695.846	1011.04
696.039	938.96
696.232	990.89
696.425	1050.17
696.618	1037.19
696.812	1026.73
697.005	1136
697.198	1174.75
697.391	1098.03
697.584	1125.74
697.777	1182.31
697.97	1126.9
698.163	1141.24
698.356	1126.51
698.549	1237.14
698.742	1213.31
698.935	1155.57
699.127	1173.98
699.32	1104.42
699.513	1105.01
699.706	1199.94
699.899	1214.86
700.092	1190.64
700.285	1193.74
700.477	1111.79
700.67	1189.87
700.863	1231.52
701.056	1324.91
701.248	1304.37
701.441	1294.88
701.634	1256.52
701.826	1370.24
702.019	1247.8
702.212	1348.16
702.404	1255.74
702.597	1272.79
702.79	1294.68
702.982	1335.56
703.175	1357.65
703.367	1385.94
703.56	1408.41
703.752	1489.59
703.945	1416.16
704.137	1457.24
704.33	1475.84
704.522	1498.7
704.715	1525.44
704.907	1485.91
705.1	1545.78
705.292	1539
705.484	1536.87
705.677	1572.9
705.869	1567.48
706.061	1632.77
706.254	1657.77
706.446	1618.63
706.638	1643.43
706.831	1727.9
707.023	1666.87
707.215	1764.13
707.407	1769.56
707.599	1749.6
707.792	1802.11
707.984	1777.11
708.176	1844.34
708.368	1778.86
708.56	1829.43
708.752	1847.44
708.944	1843.18
709.136	1888.13
709.329	1875.15
709.521	1982.68
709.713	1915.84
709.905	1943.16
710.097	2032.86
710.289	1951.87
710.481	2017.55
710.672	2030.73
710.864	2017.36
711.056	2090.79
711.248	2067.74
711.44	2089.43
711.632	2061.92
711.824	2129.73
712.016	2188.44
712.207	2178.17
712.399	2148.33
712.591	2249.66
712.783	2235.33
712.975	2260.13
713.166	2158.99
713.358	2227.38
713.55	2319.99
713.741	2299.26
713.933	2335.11
714.125	2283.96
714.316	2296.74
714.508	2401.95
714.7	2374.44
714.891	2423.07
715.083	2453.1
715.274	2423.26
715.466	2407.18
715.657	2496.89
715.849	2353.71
716.04	2460.46
716.232	2420.74
716.423	2493.79
716.615	2406.21
716.806	2363.59
716.998	2353.71
717.189	2285.12
717.381	2255.09
717.572	2212.27
717.763	2211.11
717.955	2205.88
718.146	2140
718.337	2157.44
718.528	2059.99
718.72	2016.97
718.911	2120.82
719.102	2055.14
719.293	2145.43
719.485	2126.44
719.676	2089.63
719.867	2084.2
720.058	2083.23
720.249	2101.45
720.44	2131.67
720.632	2177.01
720.823	2246.95
721.014	2379.67
721.205	2364.94
721.396	2474.99
721.587	2518.97
721.778	2552.3
721.969	2628.63
722.16	2673.2
722.351	2723.38
722.542	2828.77
722.733	2841.56
722.924	2741.98
723.115	2828
723.305	2824.9
723.496	2852.8
723.687	2689.28
723.878	2720.08
724.069	2675.91
724.26	2705.55
724.45	2644.71
724.641	2682.69
724.832	2706.52
725.023	2692.38
725.213	2703.42
725.404	2683.27
725.595	2672.61
725.785	2669.9
725.976	2791.57
726.167	2773.36
726.357	2754.96
726.548	2902.4
726.739	2767.94
726.929	2848.92
727.12	2927.78
727.31	2915.77
727.501	2878.57
727.691	2904.53
727.882	2952.19
728.072	2973.7
728.263	2970.21
728.453	3056.04
728.644	3001.98
728.834	2979.51
729.024	2987.26
729.215	2996.75
729.405	3010.12
729.596	3114.55
729.786	3111.06
729.976	3134.51
730.167	3153.49
730.357	3117.26
730.547	3109.71
730.737	3175.78
730.928	3237.39
731.118	3265.09
731.308	3212.01
731.498	3260.44
731.688	3332.9
731.879	3318.76
732.069	3397.81
732.259	3400.72
732.449	3428.62
732.639	3505.15
732.829	3532.27
733.019	3582.26
733.209	3662.27
733.399	3621.98
733.589	3742.68
733.779	3748.69
733.969	3693.08
734.159	3829.87
734.349	3861.45
734.539	3892.25
734.729	3928.68
734.919	3942.82
735.109	3994.55
735.299	3900
735.488	3938.56
735.678	3980.02
735.868	3991.45
736.058	3989.71
736.248	3969.17
736.437	3915.11
736.627	3924.22
736.817	4091.81
737.007	3965.3
737.196	4090.46
737.386	4019.16
737.576	3964.13
737.765	4094.52
737.955	4058.1
738.144	4190.43
738.334	4141.41
738.524	4061.98
738.713	4159.62
738.903	4077.48
739.092	4105.37
739.282	4095.69
739.471	4165.82
739.661	4170.09
739.85	4178.03
740.04	4212.71
740.229	4208.45
740.419	4224.72
740.608	4223.95
740.797	4193.72
740.987	4332.64
741.176	4300.09
741.365	4200.31
741.555	4164.08
741.744	4319.27
741.933	4242.74
742.123	4284.98
742.312	4318.11
742.501	4359.96
742.69	4381.66
742.88	4287.3
743.069	4402.2
743.258	4334
743.447	4450.24
743.636	4415.37
743.825	4344.85
744.014	4384.95
744.204	4447.53
744.393	4361.12
744.582	4419.44
744.771	4475.43
744.96	4414.98
745.149	4422.15
745.338	4384.18
745.527	4456.44
745.716	4389.41
745.905	4396.19
746.094	4500.43
746.283	4504.88
746.471	4425.83
746.66	4526
746.849	4544.99
747.038	4538.4
747.227	4466.13
747.416	4538.21
747.604	4463.23
747.793	4485.12
747.982	4537.82
748.171	4509.34
748.359	4509.53
748.548	4537.04
748.737	4518.06
748.926	4492.48
749.114	4398.71
749.303	4444.82
749.491	4435.33
749.68	4396.77
749.869	4498.88
750.057	4433.58
750.246	4409.75
750.434	4462.64
750.623	4416.73
750.811	4389.8
751	4477.18
751.188	4418.66
751.377	4452.38
751.565	4405.49
751.754	4389.41
751.942	4375.85
752.131	4438.23
752.319	4335.16
752.507	4351.43
752.696	4370.81
752.884	4412.85
753.072	4368.87
753.261	4433.58
753.449	4380.5
753.637	4330.32
753.825	4488.99
754.014	4396.19
754.202	4353.95
754.39	4444.24
754.578	4469.04
754.766	4376.43
754.955	4376.81
755.143	4463.61
755.331	4358.8
755.519	4330.32
755.707	4336.71
755.895	4344.65
756.083	4342.71
756.271	4267.93
756.459	4306.48
756.647	4344.07
756.835	4306.48
757.023	4345.81
757.211	4297.96
757.399	4282.46
757.587	4271.03
757.775	4227.24
757.963	4237.51
758.151	4211.74
758.339	4220.07
758.526	4193.92
758.714	4237.9
758.902	4135.99
759.09	4096.07
759.278	3843.82
759.465	3629.34
759.653	3255.99
759.841	3041.51
760.028	2661.38
760.216	2336.07
760.404	2179.33
760.591	1879.03
760.779	1660.09
760.967	1472.93
761.154	1280.73
761.342	1356.88
761.529	1363.46
761.717	1441.35
761.905	1409.38
762.092	1604.87
762.28	1523.5
762.467	1546.17
762.655	1503.16
762.842	1558.57
763.029	1597.9
763.217	1598.48
763.404	1601
763.592	1666.29
763.779	1567.67
763.966	1625.6
764.154	1738.56
764.341	1782.35
764.528	1780.41
764.716	1849.38
764.903	1948
765.09	1968.34
765.277	2038.48
765.465	2217.7
765.652	2257.22
765.839	2332.39
766.026	2488.17
766.213	2563.92
766.4	2598.02
766.588	2821.99
766.775	2826.84
766.962	2933.01
767.149	2989.2
767.336	3181.59
767.523	3131.79
767.71	3217.43
767.897	3379.79
768.084	3419.7
768.271	3475.11
768.458	3523.75
768.645	3618.1
768.832	3553.97
769.019	3601.83
769.206	3607.83
769.392	3684.94
769.579	3773.29
769.766	3751.4
769.953	3677.39
770.14	3738.8
770.327	3721.17
770.513	3785.11
770.7	3847.11
770.887	3755.27
771.073	3801.39
771.26	3779.69
771.447	3772.71
771.634	3722.92
771.82	3879.85
772.007	3744.81
772.193	3779.49
772.38	3824.44
772.567	3769.61
772.753	3780.27
772.94	3842.07
773.126	3858.73
773.313	3833.93
773.499	3789.18
773.686	3772.71
773.872	3754.5
774.059	3799.45
774.245	3754.3
774.432	3735.7
774.618	3646.58
774.804	3727.37
774.991	3666.73
775.177	3724.86
775.363	3676.81
775.55	3723.31
775.736	3649.87
775.922	3675.06
776.109	3702.77
776.295	3717.49
776.481	3731.83
776.667	3701.61
776.853	3658.21
777.04	3627.01
777.226	3652.78
777.412	3765.35
777.598	3622.75
777.784	3641.16
777.97	3608.61
778.156	3668.86
778.342	3642.9
778.528	3589.81
778.715	3559.59
778.901	3608.41
779.087	3589.62
779.272	3585.74
779.458	3543.31
779.644	3589.62
779.83	3524.33
780.016	3631.28
780.202	3506.31
780.388	3551.45
780.574	3468.53
780.76	3499.72
780.946	3540.41
781.131	3497.59
781.317	3513.67
781.503	3473.95
781.689	3479.96
781.874	3617.91
782.06	3471.63
782.246	3484.22
782.432	3451.09
782.617	3509.21
782.803	3538.47
782.989	3421.45
783.174	3431.33
783.36	3346.85
783.545	3446.63
783.731	3378.82
783.916	3320.89
784.102	3400.13
784.288	3361.77
784.473	3366.42
784.659	3332.32
784.844	3385.02
785.029	3320.5
785.215	3332.32
785.4	3297.06
785.586	3403.82
785.771	3269.74
785.956	3336.59
786.142	3280.79
786.327	3284.27
786.512	3279.82
786.698	3254.82
786.883	3198.64
787.068	3244.17
787.254	3278.46
787.439	3243.39
787.624	3213.36
787.809	3208.91
787.994	3189.34
788.18	3252.11
788.365	3122.3
788.55	3179.84
788.735	3192.05
788.92	3186.63
789.105	3176.74
789.29	3158.73
789.475	3097.5
789.66	3137.41
789.845	3120.94
790.03	3088.2
790.215	3143.81
790.4	3136.83
790.585	3180.23
790.77	3089.36
790.955	3043.64
791.14	3078.51
791.325	3137.8
791.51	3005.47
791.695	3071.35
791.879	3062.82
792.064	2986.1
792.249	3123.85
792.434	3046.93
792.618	3048.87
792.803	3060.3
792.988	3021.17
793.173	3063.01
793.357	3080.84
793.542	2985.13
793.727	3042.28
793.911	3107.77
794.096	3041.31
794.281	3102.73
794.465	3138.58
794.65	3026.01
794.834	3062.43
795.019	3102.73
795.203	3114.36
795.388	3091.3
795.572	3154.27
795.757	3113.97
795.941	3106.22
796.126	3096.34
796.31	3050.03
796.494	3107.19
796.679	3074.25
796.863	3037.44
797.048	3115.13
797.232	3140.71
797.416	3121.14
797.601	3082
797.785	3148.46
797.969	3131.02
798.153	3101.76
798.338	3135.86
798.522	3116.68
798.706	3177.91
798.89	3138.96
799.074	3273.62
799.258	3198.64
799.443	3164.73
799.627	3123.08
799.811	3167.64
799.995	3138.38
800.179	3111.26
800.363	3137.8
800.547	3170.16
800.731	3171.13
800.915	3053.91
801.099	3079.48
801.283	3125.59
801.467	3134.7
801.651	3111.65
801.835	3166.09
802.019	3150.39
802.202	3159.11
802.386	3096.15
802.57	3075.03
802.754	3122.88
802.938	3064.56
803.121	3100.99
803.305	3166.67
803.489	3096.92
803.673	3125.21
803.856	3135.86
804.04	3126.95
804.224	3142.64
804.407	3077.74
804.591	3075.8
804.775	3121.72
804.958	3100.8
805.142	3209.49
805.326	3082.2
805.509	3078.32
805.693	3162.21
805.876	3150.01
806.06	3109.32
806.243	3125.21
806.427	3185.27
806.61	3190.31
806.794	3101.57
806.977	3137.61
807.16	3157.18
807.344	3160.66
807.527	3127.92
807.71	3101.96
807.894	3129.08
808.077	3145.36
808.26	3091.3
808.444	3080.45
808.627	3131.99
808.81	3100.99
808.993	2989.97
809.177	2992.49
809.36	3018.45
809.543	3040.15
809.726	2947.15
809.909	2953.35
810.092	2990.17
810.276	2890.39
810.459	2957.62
810.642	2896
810.825	2877.02
811.008	2934.37
811.191	2800.49
811.374	2848.15
811.557	2844.86
811.74	2920.61
811.923	2800.49
812.106	2809.98
812.289	2781.11
812.472	2728.8
812.654	2797.77
812.837	2722.02
813.02	2677.26
813.203	2692.57
813.386	2537.18
813.569	2533.12
813.751	2508.12
813.934	2550.75
814.117	2490.3
814.3	2455.62
814.482	2425.97
814.665	2370.95
814.848	2354.09
815.03	2266.71
815.213	2260.71
815.396	2211.5
815.578	2242.69
815.761	2193.09
815.943	2255.48
816.126	2141.94
816.309	2107.07
816.491	2072.97
816.674	1984.04
816.856	2038.67
817.039	2083.04
817.221	2111.91
817.403	2041.97
817.586	2074.9
817.768	2096.22
817.951	1991.59
818.133	1996.44
818.315	2017.36
818.498	2060.95
818.68	2139.62
818.862	2053.59
819.045	2122.18
819.227	2111.52
819.409	2071.03
819.591	2100.48
819.774	2065.41
819.956	2027.05
820.138	2107.84
820.32	2096.6
820.502	2142.33
820.684	2202.2
820.866	2200.26
821.048	2293.84
821.231	2278.34
821.413	2265.36
821.595	2248.11
821.777	2294.81
821.959	2249.28
822.141	2314.96
822.323	2204.52
822.505	2138.45
822.686	2068.9
822.868	1988.3
823.05	1898.21
823.232	1879.41
823.414	1762.58
823.596	1861.78
823.778	1835.43
823.96	1851.51
824.141	1853.26
824.323	1930.95
824.505	1951.49
824.687	2022.01
824.868	2087.5
825.05	2157.05
825.232	2213.05
825.413	2248.11
825.595	2208.98
825.777	2136.32
825.958	2171.58
826.14	2192.51
826.321	2214.79
826.503	2170.61
826.685	2239.98
826.866	2234.16
827.048	2210.14
827.229	2149.69
827.411	2147.17
827.592	2107.84
827.773	2072
827.955	2035.19
828.136	2017.17
828.318	1992.17
828.499	2033.83
828.68	1957.3
828.862	2001.28
829.043	2037.12
829.224	1985.78
829.406	1998.76
829.587	1959.82
829.768	1960.21
829.949	1965.05
830.131	1987.52
830.312	2062.31
830.493	1982.1
830.674	2011.55
830.855	2001.28
831.036	1972.22
831.218	2085.75
831.399	2056.11
831.58	2024.14
831.761	2013.87
831.942	2038.87
832.123	2007.09
832.304	1938.12
832.485	1954.97
832.666	1964.27
832.847	2020.85
833.028	1973.19
833.209	2010
833.389	1968.15
833.57	1881.35
833.751	1925.72
833.932	2034.22
834.113	1942.96
834.294	1939.09
834.475	1955.94
834.655	2038.09
834.836	2024.34
835.017	1986.36
835.198	1972.02
835.378	1977.84
835.559	2050.49
835.74	1976.67
835.92	1959.62
836.101	1976.09
836.281	2010.77
836.462	1992.17
836.643	2028.21
836.823	2046.81
837.004	2051.65
837.184	2073.74
837.365	2059.4
837.545	2062.12
837.726	2009.22
837.906	2070.06
838.087	2044.29
838.267	2013.49
838.448	1955.17
838.628	1997.6
838.808	2028.02
838.989	2092.92
839.169	1970.47
839.349	2035.38
839.53	2038.29
839.71	2069.09
839.89	1981.9
840.07	2091.18
840.251	1978.81
840.431	2072.19
840.611	1968.54
840.791	1964.08
840.971	2011.55
841.151	1970.09
841.332	1960.01
841.512	2020.65
841.692	1940.64
841.872	2035.96
842.052	1968.73
842.232	2024.53
842.412	1916.22
842.592	1970.09
842.772	2011.16
842.952	1958.46
843.132	1935.79
843.312	1910.22
843.492	1941.22
843.672	1986.75
843.851	1909.44
844.031	1937.92
844.211	1921.46
844.391	1893.17
844.571	1939.47
844.751	1931.53
844.93	1961.17
845.11	1888.52
845.29	1925.91
845.47	1964.27
845.649	1902.86
845.829	1954.78
846.009	1897.04
846.188	1955.36
846.368	1916.42
846.547	1920.49
846.727	1939.09
846.907	1879.22
847.086	1910.8
847.266	1938.7
847.445	1901.89
847.625	1858.88
847.804	1850.54
847.984	1868.95
848.163	1892.59
848.343	1880.38
848.522	1886.97
848.701	1853.26
848.881	1833.69
849.06	1886
849.239	1888.71
849.419	1868.76
849.598	1787.38
849.777	1757.74
849.957	1811.21
850.136	1727.51
850.315	1673.46
850.494	1725.58
850.674	1709.5
850.853	1787.77
851.032	1707.95
851.211	1821.87
851.39	1727.51
851.569	1699.81
851.748	1676.75
851.927	1762.2
852.107	1759.48
852.286	1685.86
852.465	1721.31
852.644	1737.2
852.823	1746.89
853.002	1729.06
853.181	1736.43
853.359	1734.88
853.538	1693.42
853.717	1754.06
853.896	1623.67
854.075	1565.93
854.254	1497.73
854.433	1465.76
854.611	1512.46
854.79	1425.85
854.969	1487.27
855.148	1527.37
855.327	1472.93
855.505	1543.26
855.684	1528.34
855.863	1563.6
856.041	1538.22
856.22	1584.14
856.399	1553.53
856.577	1689.93
856.756	1670.55
856.934	1746.7
857.113	1739.72
857.291	1651.37
857.47	1613.01
857.648	1656.6
857.827	1661.83
858.005	1699.81
858.184	1624.83
858.362	1750.76
858.541	1643.62
858.719	1632.58
858.898	1630.25
859.076	1642.27
859.254	1689.93
859.433	1618.24
859.611	1589.57
859.789	1547.91
859.967	1676.17
860.146	1684.31
860.324	1603.32
860.502	1600.42
860.68	1511.1
860.859	1554.3
861.037	1576
861.215	1593.05
861.393	1594.8
861.571	1581.82
861.749	1575.42
861.927	1579.69
862.105	1591.7
862.283	1554.69
862.461	1534.35
862.639	1552.56
862.817	1519.62
862.995	1552.75
863.173	1524.27
863.351	1565.74
863.529	1542.87
863.707	1565.15
863.885	1558.95
864.063	1474.87
864.241	1477.77
864.418	1588.4
864.596	1490.17
864.774	1473.71
864.952	1510.71
865.129	1514.01
865.307	1481.46
865.485	1432.44
865.663	1512.46
865.84	1416.94
866.018	1433.41
866.196	1289.26
866.373	1342.93
866.551	1299.91
866.728	1227.26
866.906	1307.08
867.084	1281.32
867.261	1386.71
867.439	1343.51
867.616	1403.18
867.794	1374.89
867.971	1406.28
868.149	1402.02
868.326	1415.39
868.503	1425.27
868.681	1411.32
868.858	1403.57
869.035	1384.97
869.213	1435.15
869.39	1384.78
869.567	1463.44
869.745	1383.42
869.922	1393.11
870.099	1430.89
870.276	1438.64
870.454	1429.14
870.631	1449.1
870.808	1402.41
870.985	1429.73
871.162	1496.18
871.339	1404.15
871.517	1331.5
871.694	1352.42
871.871	1342.93
872.048	1361.91
872.225	1392.72
872.402	1388.65
872.579	1320.84
872.756	1374.51
872.933	1336.34
873.11	1365.6
873.287	1365.6
873.463	1338.08
873.64	1281.12
873.817	1349.71
873.994	1340.21
874.171	1288.48
874.348	1330.14
874.524	1213.5
874.701	1316.77
874.878	1215.25
875.055	1349.32
875.231	1285.38
875.408	1328.78
875.585	1233.27
875.762	1282.86
875.938	1262.52
876.115	1275.5
876.291	1289.06
876.468	1264.27
876.645	1219.32
876.821	1270.47
876.998	1243.92
877.174	1255.74
877.351	1267.17
877.527	1237.92
877.704	1288.68
877.88	1255.93
878.057	1242.95
878.233	1286.55
878.409	1223.97
878.586	1262.33
878.762	1216.8
878.938	1263.3
879.115	1148.02
879.291	1239.47
879.467	1168.36
879.644	1216.02
879.82	1246.05
879.996	1152.67
880.172	1147.24
880.349	1247.02
880.525	1218.54
880.701	1148.79
880.877	1138.52
881.053	1184.05
881.229	1185.8
881.405	1226.48
881.581	1130.97
881.757	1175.53
881.933	1183.28
882.109	1225.32
882.285	1205.56
882.461	1109.65
882.637	1190.64
882.813	1124.96
882.989	1176.69
883.165	1249.35
883.341	1132.13
883.517	1224.16
883.693	1188.32
883.869	1223
884.044	1148.21
884.22	1178.05
884.396	1209.24
884.572	1178.63
884.747	1197.62
884.923	1215.83
885.099	1229.2
885.275	1244.89
885.45	1157.7
885.626	1153.25
885.801	1150.54
885.977	1169.91
886.153	1140.46
886.328	1152.28
886.504	1161.77
886.679	1167.39
886.855	1124.38
887.03	1174.95
887.206	1210.21
887.381	1180.76
887.557	1177.27
887.732	1158.67
887.908	1199.55
888.083	1206.33
888.258	1140.85
888.434	1147.82
888.609	1147.82
888.784	1239.47
888.96	1140.85
889.135	1131.74
889.31	1127.48
889.485	1170.49
889.661	1143.17
889.836	1204.78
890.011	1166.62
890.186	1164.1
890.361	1106.94
890.537	1177.66
890.712	1173.2
890.887	1174.75
891.062	1161
891.237	1256.71
891.412	1141.43
891.587	1185.22
891.762	1161.77
891.937	1198.78
892.112	1093.38
892.287	1155.96
892.462	1107.72
892.637	1091.25
892.812	1092.99
892.987	1097.84
893.161	1082.92
893.336	1092.41
893.511	1109.07
893.686	1102.87
893.861	1052.31
894.035	1089.51
894.21	1083.89
894.385	1056.37
894.56	1064.51
894.734	1006.19
894.909	1006.97
895.084	978.1
895.258	1001.93
895.433	1044.75
895.608	960.08
895.782	936.83
895.957	955.04
896.131	964.73
896.306	890.72
896.48	892.46
896.655	921.14
896.829	811.09
897.004	820.39
897.178	826.98
897.353	848.48
897.527	882.39
897.701	835.12
897.876	793.27
898.05	903.51
898.224	883.16
898.399	903.7
898.573	828.53
898.747	728.17
898.921	807.41
899.096	700.85
899.27	691.74
899.444	700.27
899.618	708.6
899.792	749.09
899.967	758.2
900.141	779.12
900.315	720.42
900.489	740.18
900.663	730.49
900.837	757.81
901.011	683.8
901.185	828.14
901.359	750.06
901.533	772.15
901.707	768.08
901.881	762.65
902.055	686.12
902.229	720.61
902.403	775.83
902.576	741.92
902.75	762.65
902.924	908.35
903.098	812.83
903.272	835.5
903.446	886.46
903.619	877.93
903.793	887.81
903.967	871.73
904.14	932.18
904.314	914.16
904.488	926.18
904.661	920.75
904.835	897.11
905.009	909.71
905.182	929.08
905.356	949.62
905.529	890.72
905.703	856.43
905.876	900.02
906.05	824.27
906.223	830.27
906.397	777.57
906.57	749.09
906.744	743.86
906.917	740.76
907.09	751.61
907.264	746.77
907.437	727.97
907.61	682.64
907.784	690.39
907.957	717.51
908.13	651.64
908.304	692.13
908.477	637.11
908.65	678.37
908.823	640.98
908.996	724.29
909.17	677.02
909.343	667.52
909.516	698.33
909.689	648.92
909.862	645.63
910.035	643.31
910.208	643.11
910.381	621.8
910.554	757.04
910.727	638.07
910.9	640.59
911.073	633.62
911.246	705.11
911.419	695.04
911.592	682.44
911.765	655.51
911.938	638.46
912.11	683.99
912.283	665.01
912.456	686.51
912.629	656.29
912.802	626.84
912.974	613.08
913.147	580.92
913.32	503.23
913.493	531.71
913.665	566.19
913.838	550.89
914.01	558.64
914.183	589.44
914.356	579.37
914.528	612.89
914.701	686.32
914.873	627.42
915.046	569.1
915.218	528.99
915.391	493.93
915.563	486.56
915.736	543.53
915.908	566
916.081	572.78
916.253	566.39
916.425	572.39
916.598	586.34
916.77	578.21
916.942	577.43
917.115	497.03
917.287	554.76
917.459	534.61
917.632	504
917.804	420.88
917.976	533.06
918.148	547.59
918.32	561.35
918.493	564.84
918.665	622.96
918.837	562.13
919.009	629.94
919.181	621.22
919.353	595.45
919.525	573.56
919.697	578.01
919.869	597.97
920.041	639.24
920.213	702.2
920.385	617.92
920.557	575.88
920.729	591.96
920.901	618.51
921.073	558.06
921.244	570.46
921.416	627.61
921.588	541.39
921.76	542.36
921.932	676.24
922.103	576.27
922.275	571.81
922.447	590.22
922.619	488.5
922.79	583.82
922.962	540.62
923.134	570.26
923.305	521.63
923.477	477.46
923.648	516.59
923.82	551.47
923.991	491.41
924.163	464.28
924.335	516.21
924.506	475.52
924.677	546.82
924.849	505.16
925.02	492.96
925.192	557.28
925.363	519.5
925.535	527.06
925.706	466.22
925.877	542.75
926.049	505.16
926.22	494.31
926.391	516.59
926.562	536.55
926.734	487.73
926.905	530.35
927.076	451.88
927.247	491.6
927.419	426.31
927.59	426.11
927.761	442
927.932	455.18
928.103	443.94
928.274	392.02
928.445	370.7
928.616	391.05
928.787	384.27
928.958	424.56
929.129	412.55
929.3	365.67
929.471	345.9
929.642	297.85
929.813	232.56
929.984	332.53
930.155	258.91
930.326	286.62
930.496	263.37
930.667	203.11
930.838	267.82
931.009	201.37
931.18	239.54
931.35	219
931.521	235.08
931.692	169.01
931.863	142.47
932.033	199.82
932.204	188.19
932.374	189.94
932.545	133.94
932.716	211.83
932.886	192.26
933.057	115.73
933.227	115.34
933.398	220.36
933.568	135.3
933.739	48.5
933.909	84.93
934.08	144.21
934.25	27.58
934.421	61.48
934.591	116.7
934.761	87.83
934.932	52.96
935.102	112.24
935.272	99.84
935.443	110.31
935.613	89.19
935.783	107.59
935.953	63.23
936.123	209.7
936.294	61.48
936.464	55.28
936.634	106.82
936.804	39.01
936.974	32.81
937.144	117.86
937.314	87.64
937.484	86.09
937.655	65.55
937.825	103.33
937.995	62.64
938.165	142.28
938.334	77.76
938.504	125.23
938.674	101.39
938.844	90.35
939.014	190.91
939.184	148.28
939.354	209.7
939.524	205.63
939.694	156.61
939.863	163.01
940.033	223.07
940.203	226.75
940.373	155.84
940.542	219.97
940.712	141.31
940.882	179.86
941.051	183.35
941.221	179.86
941.391	177.34
941.56	138.4
941.73	146.15
941.899	250.58
942.069	138.98
942.238	183.74
942.408	120.58
942.577	157.77
942.747	137.63
942.916	70.39
943.086	130.46
943.255	192.07
943.425	155.84
943.594	98.88
943.763	28.55
943.933	88.22
944.102	67.49
944.271	105.66
944.441	126.39
944.61	94.42
944.779	135.69
944.948	186.84
945.117	84.93
945.287	119.61
945.456	60.32
945.625	99.84
945.794	131.04
945.963	85.51
946.132	125.61
946.301	101.98
946.47	155.26
946.639	42.69
946.808	90.35
946.977	120.96
947.146	165.91
947.315	81.44
947.484	145.96
947.653	93.84
947.822	83.96
947.991	70.39
948.16	184.12
948.329	182.96
948.498	107.4
948.666	109.14
948.835	131.81
949.004	96.55
949.173	64
949.341	108.18
949.51	133.75
949.679	158.36
949.847	140.73
950.016	202.53
950.185	183.16
950.353	76.59
950.522	103.33
950.69	178.7
950.859	103.33
951.028	181.99
951.196	156.61
951.365	68.46
951.533	116.7
951.701	144.41
951.87	136.27
952.038	73.3
952.207	100.43
952.375	185.29
952.543	104.49
952.712	113.41
952.88	65.55
953.048	157.97
953.217	135.49
953.385	93.45
953.553	177.73
953.721	66.71
953.89	130.84
954.058	61.29
954.226	104.11
954.394	122.51
954.562	66.91
954.73	95.58
954.898	71.94
955.067	145.18
955.235	78.34
955.403	143.83
955.571	180.06
955.739	126.58
955.907	59.74
956.075	89.96
956.243	67.88
956.41	134.91
956.578	61.87
956.746	59.93
956.914	82.79
957.082	145.96
957.25	133.17
957.418	83.76
957.585	115.54
957.753	177.54
957.921	92.29
958.089	82.6
958.256	121.35
958.424	130.46
958.592	113.99
958.759	73.49
958.927	142.28
959.095	89.58
959.262	112.63
959.43	118.64
959.597	42.11
959.765	98.49
959.932	86.48
960.1	150.99
960.267	117.86
960.435	80.66
960.602	153.51
960.77	90.54
960.937	49.08
961.104	119.41
961.272	27.96
961.439	77.18
961.606	154.09
961.774	168.82
961.941	118.06
962.108	136.85
962.275	111.08
962.443	139.95
962.61	131.81
962.777	191.68
962.944	157.97
963.111	148.28
963.278	131.81
963.446	131.81
963.613	132.01
963.78	140.53
963.947	161.07
964.114	106.82
964.281	221.71
964.448	129.49
964.615	100.04
964.782	147.12
964.949	155.84
965.116	142.66
965.282	181.41
965.449	119.03
965.616	86.86
965.783	151.19
965.95	133.94
966.117	85.7
966.283	111.08
966.45	147.12
966.617	129.49
966.784	195.75
966.95	166.69
967.117	174.05
967.284	104.88
967.45	128.71
967.617	184.51
967.784	158.36
967.95	187.22
968.117	105.08
968.283	179.09
968.45	248.06
968.616	166.49
968.783	160.29
968.949	150.8
969.116	178.89
969.282	159.91
969.449	166.49
969.615	136.46
969.781	94.03
969.948	113.99
970.114	91.71
970.28	205.63
970.447	146.54
970.613	197.3
970.779	156.03
970.945	171.72
971.112	161.07
971.278	115.34
971.444	130.46
971.61	180.06
971.776	106.43
971.942	173.27
972.108	160.29
972.275	131.81
972.441	189.55
972.607	226.17
972.773	97.52
972.939	146.73
973.105	148.09
973.271	102.75
973.437	114.18
973.602	105.46
973.768	160.49
973.934	123.09
974.1	157.58
974.266	47.73
974.432	152.93
974.598	109.92
974.763	154.29
974.929	111.86
975.095	194.2
975.261	102.56
975.426	82.02
975.592	128.71
975.758	181.22
975.923	82.99
976.089	88.22
976.255	154.87
976.42	115.54
976.586	148.47
976.751	126.39
976.917	225.59
977.082	157.19
977.248	73.11
977.413	59.54
977.579	119.61
977.744	130.26
977.91	60.71
978.075	119.61
978.24	144.41
978.406	104.49
978.571	98.68
978.736	78.34
978.902	146.92
979.067	93.26
979.232	51.41
979.397	132.39
979.563	179.09
979.728	93.84
979.893	124.26
980.058	69.62
980.223	152.74
980.388	135.3
980.554	113.79
980.719	91.13
980.884	113.21
981.049	144.6
981.214	83.57
981.379	117.86
981.544	104.11
981.709	112.24
981.874	82.99
982.039	97.13
982.204	148.67
982.368	112.83
982.533	74.08
982.698	173.08
982.863	155.45
983.028	120.19
983.193	130.65
983.357	103.91
983.522	123.87
983.687	100.43
983.852	106.43
984.016	79.11
984.181	109.14
984.346	155.64
984.51	140.53
984.675	110.89
984.839	111.66
985.004	127.36
985.168	142.28
985.333	135.11
985.498	93.26
985.662	120.77
985.827	138.21
985.991	128.91
986.155	96.55
986.32	163.01
986.484	171.53
986.649	117.28
986.813	31.45
986.977	113.41
987.142	124.45
987.306	52.57
987.47	81.83
987.634	90.74
987.799	144.6
987.963	108.76
988.127	150.02
988.291	180.25
988.455	130.65
988.62	93.26
988.784	135.49
988.948	136.08
989.112	67.68
989.276	131.81
989.44	130.84
989.604	78.14
989.768	106.63
989.932	167.27
990.096	82.41
990.26	89.96
990.424	74.85
990.588	114.96
990.752	160.1
990.915	115.15
991.079	84.54
991.243	69.62
991.407	125.23
991.571	82.21
991.734	109.92
991.898	111.08
992.062	195.75
992.226	94.61
992.389	47.34
992.553	39.4
992.717	79.31
992.88	60.51
993.044	105.85
993.207	76.59
993.371	89.38
993.535	100.23
993.698	81.24
993.862	110.31
994.025	127.16
994.189	128.13
994.352	110.31
994.515	88.22
994.679	131.81
994.842	93.45
995.006	135.88
995.169	73.11
995.332	54.9
995.496	129.49
995.659	40.56
995.822	74.08
995.985	79.11
996.149	153.12
996.312	92.68
996.475	145.96
996.638	63.23
996.801	127.36
996.964	167.46
997.128	76.01
997.291	61.87
997.454	93.26
997.617	35.33
997.78	107.98
997.943	58.38
998.106	141.89
998.269	52.38
998.432	96.94
998.595	50.25
998.758	3.94
998.92	38.43
999.083	31.06
999.246	71.94
999.409	30.68
999.572	16.53
999.735	60.51
999.897	107.21
1000.06	64.39
1000.223	90.54
1000.386	95.39
1000.548	107.01
1000.711	103.72
1000.874	112.24
1001.036	20.99
1001.199	126.97
1001.361	35.52
1001.524	69.62
1001.687	106.82
1001.849	34.16
1002.012	67.1
1002.174	76.01
1002.337	108.76
1002.499	68.46
1002.661	104.69
1002.824	42.69
1002.986	35.91
1003.149	86.86
1003.311	51.21
1003.473	158.94
1003.636	33.39
1003.798	101.59
1003.96	107.4
1004.123	47.53
1004.285	44.82
1004.447	63.61
1004.609	50.25
1004.771	130.07
1004.933	22.35
1005.096	41.53
1005.258	29.71
1005.42	28.35
1005.582	103.53
1005.744	76.79
1005.906	41.14
1006.068	70.2
1006.23	18.86
1006.392	16.34
1006.554	20.41
1006.716	104.11
1006.878	89.38
1007.04	33
1007.202	35.91
1007.363	77.37
1007.525	79.31
1007.687	92.68
1007.849	112.44
1008.011	14.6
1008.172	28.93
1008.334	59.16
1008.496	71.36
1008.658	-32.1
1008.819	4.91
1008.981	20.99
1009.143	33.97
1009.304	51.6
1009.466	65.36
1009.627	100.62
1009.789	153.9
1009.95	52.18
1010.112	29.51
1010.273	44.05
1010.435	21.38
1010.596	35.33
1010.758	51.8
1010.919	23.51
1011.081	31.45
1011.242	40.36
1011.403	88.03
1011.565	48.31
1011.726	70.98
1011.887	-0.71
1012.049	44.24
1012.21	55.09
1012.371	94.42
1012.532	-19.89
1012.693	70.2
1012.855	23.7
1013.016	39.59
1013.177	65.74
1013.338	46.37
1013.499	100.23
1013.66	70.2
1013.821	80.66
1013.982	63.23
1014.143	82.79
1014.304	26.22
1014.465	43.46
1014.626	77.76
1014.787	10.91
1014.948	110.11
1015.109	-7.3
1015.27	90.54
1015.431	31.65
1015.592	16.34
1015.752	97.13
1015.913	65.94
1016.074	50.83
1016.235	71.56
1016.395	65.16
1016.556	48.5
1016.717	10.91
1016.877	81.05
1017.038	25.25
1017.199	86.09
1017.359	41.91
1017.52	23.31
1017.681	29.9
1017.841	12.46
1018.002	31.26
1018.162	-2.45
1018.323	115.15
1018.483	28.16
1018.644	33.78
1018.804	-20.47
1018.964	10.91
1019.125	-2.45
1019.285	49.86
1019.446	-8.46
1019.606	-2.84
1019.766	-22.99
1019.926	50.63
1020.087	47.92
1020.247	-1.87
1020.407	82.41
1020.567	73.49
1020.728	30.87
1020.888	-0.9
1021.048	31.26
1021.208	-0.9
1021.368	9.56
1021.528	93.84
1021.688	74.46
1021.848	68.46
1022.008	47.92
1022.168	17.5
1022.328	34.75
1022.488	58.58
1022.648	-1.1
1022.808	29.13
1022.968	44.05
1023.128	7.23
1023.288	9.95
1023.448	32.61
1023.608	48.31
1023.767	43.46
1023.927	-15.24
1024.087	14.21
1024.247	-22.41
1024.406	18.08
1024.566	6.46
1024.726	-5.55
1024.885	30.1
1025.045	67.49
1025.205	27.96
1025.364	25.06
1025.524	28.35
1025.683	13.43
1025.843	33.58
1026.003	3.55
1026.162	79.31
1026.321	71.36
1026.481	27.96
1026.64	20.21
1026.8	26.03
1026.959	28.74
1027.119	32.42
1027.278	20.99
1027.437	-2.65
1027.597	17.31
1027.756	42.11
1027.915	51.8
1028.074	26.22
1028.234	-33.65
1028.393	7.62
1028.552	12.08
1028.711	-38.68
1028.87	76.59
1029.03	-33.07
1029.189	16.73
1029.348	-57.09
1029.507	-4
1029.666	24.67
1029.825	-34.03
1029.984	-12.14
1030.143	45.01
1030.302	0.26
1030.461	-49.73
1030.62	19.44
1030.779	47.92
1030.938	-10.2
1031.097	-21.83
1031.255	50.83
1031.414	92.68
1031.573	92.09
1031.732	-43.33
1031.891	-2.07
1032.049	64
1032.208	37.07
1032.367	-14.85
1032.525	19.05
1032.684	-10.98
1032.843	42.88
1033.001	-39.65
1033.16	180.64
1033.319	81.44
1033.477	28.55
1033.636	13.63
1033.794	-24.35
1033.953	27
1034.111	56.45
1034.27	3.36
1034.428	44.05
1034.587	-14.66
1034.745	4.71
1034.903	16.73
1035.062	54.9
1035.22	-45.85
1035.378	48.89
1035.537	-15.44
1035.695	61.29
1035.853	25.83
1036.011	55.28
1036.17	42.88
1036.328	-65.62
1036.486	17.11
1036.644	19.44
1036.802	-80.92
1036.96	-17.95
1037.119	-21.05
1037.277	-16.79
1037.435	-25.7
1037.593	-21.64
1037.751	27.19
1037.909	41.33
1038.067	41.33
