Data from gum_old_FLMT105791__61__15-43-49-257.txt Node

Date: Mon Mar 20 15:43:49 GMT 2023
User: antho
Spectrometer: FLMT10579
Trigger mode: 0
Integration Time (sec): 1.000000E-1
Scans to average: 10
Electric dark correction enabled: true
Nonlinearity correction enabled: false
Boxcar width: 0
XAxis mode: Wavelengths
Number of Pixels in Spectrum: 3648
>>>>>Begin Spectral Data<<<<<
345.248	-173.19
345.464	-173.19
345.681	-173.19
345.898	-180.17
346.114	-160.41
346.331	-32.92
346.548	24.82
346.764	3.12
346.981	-29.43
347.197	-33.5
347.414	12.42
347.631	-12.96
347.847	74.42
348.064	2.73
348.28	39.54
348.497	-56.17
348.713	7.96
348.93	7.38
349.146	19.2
349.363	11.25
349.579	33.15
349.796	-23.81
350.012	-7.93
350.229	32.57
350.445	14.16
350.661	3.7
350.878	17.45
351.094	44.77
351.311	30.43
351.527	24.23
351.743	-16.45
351.96	47.29
352.176	46.71
352.392	41.87
352.609	51.94
352.825	-1.73
353.041	18.23
353.257	0.98
353.474	13.58
353.69	25.4
353.906	15.52
354.122	-20.52
354.339	64.34
354.555	-7.93
354.771	2.73
354.987	77.9
355.203	73.83
355.42	17.26
355.636	-5.6
355.852	28.5
356.068	32.37
356.284	-20.13
356.5	87.4
356.716	41.48
356.932	30.43
357.148	78.29
357.364	32.37
357.58	52.91
357.796	67.63
358.012	48.84
358.228	64.34
358.444	-64.31
358.66	69.77
358.876	25.01
359.092	-4.25
359.308	63.18
359.524	52.91
359.74	12.61
359.956	22.68
360.172	60.47
360.388	64.34
360.604	30.05
360.819	104.06
361.035	27.92
361.251	49.81
361.467	-24.78
361.683	43.42
361.898	65.89
362.114	90.69
362.33	48.26
362.546	55.43
362.762	31.79
362.977	41.48
363.193	-3.47
363.409	75.77
363.624	-3.08
363.84	34.7
364.056	30.05
364.271	49.81
364.487	45.74
364.703	10.48
364.918	9.32
365.134	51.94
365.35	32.37
365.565	135.25
365.781	60.27
365.996	84.3
366.212	118.2
366.427	72.28
366.643	20.17
366.858	50.97
367.074	2.34
367.289	76.55
367.505	161.02
367.72	13.97
367.936	25.01
368.151	84.88
368.367	57.56
368.582	52.33
368.798	38.57
369.013	102.7
369.228	44.58
369.444	73.64
369.659	106.96
369.874	78.48
370.09	99.99
370.305	-2.89
370.52	38.38
370.736	107.55
370.951	68.02
371.166	83.91
371.381	118.2
371.597	102.31
371.812	31.4
372.027	34.12
372.242	59.88
372.458	138.16
372.673	59.5
372.888	51.55
373.103	75.58
373.318	145.71
373.533	74.42
373.749	45.74
373.964	4.47
374.179	86.04
374.394	42.45
374.609	104.25
374.824	0.6
375.039	92.63
375.254	26.37
375.469	139.51
375.684	62.98
375.899	105.8
376.114	67.05
376.329	68.22
376.544	113.16
376.759	91.66
376.974	40.32
377.189	36.83
377.404	53.88
377.619	95.34
377.834	0.02
378.049	44.58
378.264	52.91
378.478	63.76
378.693	46.13
378.908	114.13
379.123	74.8
379.338	112.78
379.553	108.51
379.767	94.18
379.982	103.28
380.197	104.25
380.412	87.2
380.626	97.47
380.841	161.8
381.056	110.84
381.271	140.1
381.485	63.18
381.7	65.7
381.915	86.23
382.129	74.8
382.344	93.98
382.559	70.73
382.773	116.85
382.988	8.15
383.202	66.67
383.417	41.28
383.632	154.43
383.846	72.09
384.061	75
384.275	45.74
384.49	80.03
384.704	83.33
384.919	85.07
385.133	99.41
385.348	118.78
385.562	37.99
385.777	139.32
385.991	120.33
386.206	68.99
386.42	49.23
386.634	144.75
386.849	96.7
387.063	131.57
387.277	75.77
387.492	87.2
387.706	54.27
387.92	70.93
388.135	145.52
388.349	126.34
388.563	99.41
388.778	118.4
388.992	128.66
389.206	124.79
389.42	168.96
389.635	88.36
389.849	140.48
390.063	164.31
390.277	103.48
390.491	169.54
390.706	135.45
390.92	149.78
391.134	115.49
391.348	147.85
391.562	98.44
391.776	126.73
391.99	105.61
392.205	168.96
392.419	88.75
392.633	127.89
392.847	163.15
393.061	78.87
393.275	187.95
393.489	114.52
393.703	102.9
393.917	124.79
394.131	65.5
394.345	99.41
394.559	136.03
394.773	133.12
394.986	162.96
395.2	141.65
395.414	155.01
395.628	130.99
395.842	199.19
396.056	164.9
396.27	90.3
396.484	160.25
396.697	162.57
396.911	172.64
397.125	140.87
397.339	147.26
397.553	117.62
397.766	175.16
397.98	182.72
398.194	200.35
398.408	135.06
398.621	204.42
398.835	219.34
399.049	190.47
399.262	274.17
399.476	241.04
399.69	258.28
399.903	258.86
400.117	197.64
400.331	258.86
400.544	188.73
400.758	344.5
400.971	238.52
401.185	265.84
401.398	202.48
401.612	279.01
401.826	248.59
402.039	270.1
402.253	247.82
402.466	291.8
402.68	268.16
402.893	278.62
403.106	263.12
403.32	254.02
403.533	265.26
403.747	252.08
403.96	246.27
404.174	263.32
404.387	226.12
404.6	265.06
404.814	298.58
405.027	278.62
405.24	240.84
405.454	250.92
405.667	312.72
405.88	220.31
406.094	292.96
406.307	292.19
406.52	279.4
406.733	254.99
406.947	218.18
407.16	311.95
407.373	311.37
407.586	260.41
407.799	252.47
408.012	313.5
408.226	301.49
408.439	339.46
408.652	244.33
408.865	300.52
409.078	344.3
409.291	333.26
409.504	278.43
409.717	323.57
409.93	334.81
410.143	305.94
410.357	254.41
410.57	230.77
410.783	271.65
410.996	297.81
411.209	267.39
411.421	352.83
411.634	304.39
411.847	302.84
412.06	331.71
412.273	341.59
412.486	337.91
412.699	440.98
412.912	342.37
413.125	367.75
413.338	354.57
413.55	355.74
413.763	332.1
413.976	371.24
414.189	319.12
414.402	335.2
414.615	411.34
414.827	332.29
415.04	366.59
415.253	380.54
415.466	377.05
415.678	420.64
415.891	347.21
416.104	358.84
416.316	345.08
416.529	343.34
416.742	397.2
416.954	423.74
417.167	367.75
417.38	389.64
417.592	422.58
417.805	351.67
418.017	310.59
418.23	396.81
418.442	359.42
418.655	356.32
418.868	373.17
419.08	408.63
419.293	399.91
419.505	387.32
419.718	372.98
419.93	398.75
420.142	361.55
420.355	411.15
420.567	421.8
420.78	361.74
420.992	383.44
421.205	440.79
421.417	344.69
421.629	378.02
421.842	366
422.054	342.56
422.266	431.88
422.479	405.72
422.691	408.63
422.903	415.8
423.115	369.1
423.328	382.28
423.54	408.63
423.752	376.08
423.964	371.24
424.177	408.05
424.389	414.05
424.601	512.09
424.813	424.71
425.025	443.7
425.238	434.01
425.45	393.32
425.662	415.41
425.874	702.74
426.086	395.45
426.298	431.1
426.51	411.73
426.722	401.46
426.934	401.65
427.146	426.65
427.358	381.31
427.57	470.05
427.782	379.37
427.994	383.44
428.206	399.52
428.418	374.53
428.63	446.02
428.842	455.71
429.054	417.15
429.266	460.75
429.478	408.24
429.69	397.59
429.902	360.77
430.114	426.84
430.325	416.77
430.537	356.12
430.749	326.67
430.961	259.64
431.173	347.4
431.384	367.75
431.596	256.34
431.808	345.66
432.02	421.8
432.231	460.75
432.443	515.97
432.655	473.92
432.867	470.63
433.078	494.46
433.29	521.97
433.502	483.8
433.713	543.09
433.925	518.68
434.136	547.16
434.348	442.15
434.56	391.97
434.771	540.38
434.983	419.29
435.194	460.55
435.406	492.13
435.617	545.22
435.829	557.62
436.04	546.96
436.252	515.77
436.463	568.08
436.675	575.45
436.886	568.08
437.098	564.21
437.309	620.01
437.521	556.85
437.732	529.33
437.943	556.26
438.155	535.34
438.366	475.86
438.578	598.7
438.789	531.66
439	543.28
439.211	513.25
439.423	518.48
439.634	544.64
439.845	582.23
440.057	575.06
440.268	600.44
440.479	552.58
440.69	583.58
440.902	552
441.113	545.8
441.324	565.76
441.535	627.95
441.746	651.2
441.957	578.74
442.168	620.59
442.38	621.75
442.591	661.08
442.802	591.72
443.013	611.29
443.224	623.11
443.435	623.49
443.646	638.41
443.857	625.04
444.068	584.55
444.279	592.11
444.49	738.39
444.701	644.23
444.912	745.75
445.123	676.97
445.334	657.01
445.545	668.64
445.756	632.02
445.967	596.95
446.178	642.29
446.388	669.03
446.599	655.27
446.81	681.04
447.021	611.68
447.232	664.57
447.443	685.88
447.653	637.25
447.864	663.99
448.075	683.36
448.286	688.01
448.496	639.96
448.707	695.96
448.918	642.48
449.129	768.42
449.339	620.59
449.55	720.37
449.761	679.68
449.971	712.81
450.182	672.51
450.393	723.27
450.603	680.26
450.814	736.45
451.024	725.79
451.235	790.5
451.446	793.41
451.656	772.1
451.867	735.29
452.077	718.82
452.288	792.64
452.498	767.26
452.709	725.41
452.919	732.57
453.13	697.31
453.34	747.88
453.55	647.13
453.761	732.38
453.971	716.11
454.182	727.54
454.392	742.65
454.602	802.71
454.813	735.48
455.023	781.59
455.233	670.58
455.444	758.92
455.654	639.77
455.864	711.46
456.075	711.65
456.285	706.81
456.495	710.68
456.705	755.24
456.916	787.21
457.126	824.22
457.336	761.64
457.546	704.29
457.756	729.67
457.967	796.51
458.177	738.97
458.387	761.44
458.597	719.01
458.807	737.03
459.017	695.96
459.227	714.17
459.437	736.26
459.647	781.2
459.857	779.46
460.068	746.33
460.278	799.61
460.488	768.03
460.698	792.25
460.908	762.8
461.117	721.72
461.327	769.19
461.537	769.58
461.747	810.85
461.957	786.63
462.167	918.57
462.377	863.94
462.587	785.66
462.797	844.75
463.007	825.96
463.216	868.2
463.426	894.16
463.636	858.9
463.846	773.46
464.056	802.32
464.265	831
464.475	795.15
464.685	848.44
464.895	809.1
465.104	772.68
465.314	848.24
465.524	801.55
465.733	786.63
465.943	874.2
466.153	887.38
466.362	889.9
466.572	863.55
466.782	847.85
466.991	872.46
467.201	886.6
467.41	764.93
467.62	826.35
467.829	847.66
468.039	861.42
468.249	867.81
468.458	885.44
468.668	871.3
468.877	871.68
469.086	949.18
469.296	925.16
469.505	883.12
469.715	982.12
469.924	917.22
470.134	950.93
470.343	937.56
470.552	876.72
470.762	892.03
470.971	886.6
471.18	916.44
471.39	901.91
471.599	871.3
471.808	942.02
472.018	905.78
472.227	989.1
472.436	1045.09
472.645	955.38
472.855	910.05
473.064	1061.75
473.273	1015.25
473.482	991.81
473.691	1024.16
473.901	1012.73
474.11	975.73
474.319	1103.41
474.528	989.29
474.737	1069.31
474.946	1041.79
475.155	1036.95
475.364	1105.34
475.573	1069.5
475.783	1086.16
475.992	1071.05
476.201	1113.29
476.41	1066.98
476.619	1027.85
476.828	1068.92
477.037	1049.54
477.245	1080.16
477.454	1121.62
477.663	1097.59
477.872	1115.61
478.081	1221.98
478.29	1151.84
478.499	1238.84
478.708	1174.51
478.917	1247.36
479.125	1157.07
479.334	1182.26
479.543	1150.68
479.752	1215.39
479.961	1213.84
480.169	1264.41
480.378	1230.12
480.587	1365.55
480.796	1233.99
481.004	1247.36
481.213	1265.19
481.422	1257.44
481.63	1274.29
481.839	1303.35
482.048	1338.62
482.256	1281.65
482.465	1346.17
482.674	1337.45
482.882	1335.13
483.091	1379.69
483.299	1343.85
483.508	1372.52
483.716	1334.35
483.925	1374.27
484.134	1309.36
484.342	1360.9
484.551	1370.97
484.759	1351.98
484.967	1405.65
485.176	1425.22
485.384	1441.88
485.593	1382.98
485.801	1426.96
486.01	1331.83
486.218	1278.75
486.426	1209.39
486.635	1199.7
486.843	1173.93
487.051	1217.52
487.26	1224.3
487.468	1281.27
487.676	1339.2
487.885	1337.65
488.093	1375.62
488.301	1396.35
488.509	1438.4
488.717	1461.84
488.926	1438.01
489.134	1393.83
489.342	1417.66
489.55	1408.95
489.758	1459.51
489.967	1436.26
490.175	1545.73
490.383	1502.72
490.591	1603.66
490.799	1490.9
491.007	1599.21
491.215	1554.84
491.423	1515.51
491.631	1530.81
491.839	1495.36
492.047	1528.88
492.255	1479.66
492.463	1451.96
492.671	1464.75
492.879	1548.06
493.087	1505.24
493.295	1555.03
493.503	1591.07
493.711	1611.41
493.919	1633.11
494.127	1609.09
494.334	1602.31
494.542	1519.58
494.75	1593.59
494.958	1555.81
495.166	1660.62
495.374	1627.11
495.581	1655.2
495.789	1635.05
495.997	1683.29
496.205	1576.34
496.412	1601.53
496.62	1614.32
496.828	1628.85
497.035	1623.42
497.243	1684.07
497.451	1661.59
497.658	1706.54
497.866	1652.49
498.074	1746.26
498.281	1620.71
498.489	1724.75
498.696	1675.93
498.904	1594.56
499.112	1596.3
499.319	1732.31
499.527	1648.61
499.734	1739.67
499.942	1615.48
500.149	1673.22
500.357	1695.89
500.564	1619.55
500.771	1709.25
500.979	1657.33
501.186	1588.94
501.394	1661.98
501.601	1617.03
501.808	1664.89
502.016	1632.14
502.223	1639.89
502.43	1643.38
502.638	1631.37
502.845	1619.36
503.052	1733.67
503.26	1668.18
503.467	1760.02
503.674	1722.82
503.881	1722.82
504.089	1778.23
504.296	1748.58
504.503	1647.26
504.71	1677.87
504.917	1638.54
505.125	1704.99
505.332	1694.34
505.539	1742.58
505.746	1782.68
505.953	1789.66
506.16	1777.26
506.367	1850.88
506.574	1854.37
506.781	1843.52
506.988	1772.8
507.195	1793.15
507.402	1775.71
507.609	1822.98
507.816	1773.38
508.023	1776.1
508.23	1733.47
508.437	1711.77
508.644	1756.72
508.851	1860.76
509.058	1811.36
509.265	1815.23
509.472	1816.01
509.679	1880.72
509.885	1826.67
510.092	1820.47
510.299	1839.45
510.506	1825.7
510.713	1822.02
510.92	1792.76
511.126	1813.3
511.333	1848.56
511.54	1861.93
511.746	1891.57
511.953	1898.16
512.16	1922.38
512.367	1881.11
512.573	1835.77
512.78	1887.7
512.987	1847.78
513.193	1841.2
513.4	1743.35
513.606	1824.92
513.813	1832.67
514.02	1812.72
514.226	1929.54
514.433	1894.48
514.639	1754.2
514.846	1853.4
515.052	1794.5
515.259	1854.37
515.465	1873.55
515.672	1855.92
515.878	1923.15
516.085	1885.18
516.291	1894.28
516.497	1831.51
516.704	1848.56
516.91	1811.36
517.117	1736.96
517.323	1659.65
517.529	1660.62
517.736	1693.95
517.942	1661.59
518.148	1723.01
518.354	1743.16
518.561	1755.17
518.767	1766.41
518.973	1791.4
519.179	1810.2
519.386	1785.2
519.592	1781.52
519.798	1781.72
520.004	1898.55
520.21	1836.74
520.417	1946.01
520.623	1983.41
520.829	1951.24
521.035	1972.36
521.241	1919.28
521.447	1954.34
521.653	2070.98
521.859	1967.71
522.065	1997.74
522.271	2052.38
522.477	2045.79
522.683	2096.55
522.889	2024.87
523.095	2026.22
523.301	2026.03
523.507	1965
523.713	2022.54
523.919	1977.79
524.125	2065.75
524.331	2039.4
524.537	2158.75
524.742	2101.4
524.948	2142.28
525.154	2126.39
525.36	2235.47
525.566	2142.67
525.772	2214.93
525.977	2112.83
526.183	2186.65
526.389	2198.08
526.595	2097.33
526.8	2134.53
527.006	2028.55
527.212	1912.5
527.417	1939.23
527.623	1964.61
527.829	2016.73
528.034	2029.32
528.24	2078.54
528.446	2072.34
528.651	2192.65
528.857	2169.6
529.062	2260.08
529.268	2208.54
529.473	2262.6
529.679	2238.18
529.884	2322.08
530.09	2291.85
530.295	2321.88
530.501	2271.9
530.706	2279.65
530.912	2221.91
531.117	2259.69
531.323	2284.3
531.528	2318.4
531.733	2360.05
531.939	2306.58
532.144	2348.43
532.35	2318.59
532.555	2343.2
532.76	2313.94
532.966	2332.35
533.171	2275
533.376	2218.62
533.581	2190.52
533.787	2236.05
533.992	2325.95
534.197	2291.66
534.402	2331.76
534.607	2304.45
534.813	2415.85
535.018	2286.62
535.223	2331.96
535.428	2317.43
535.633	2397.06
535.838	2401.13
536.043	2429.03
536.249	2493.74
536.454	2420.69
536.659	2498.58
536.864	2411.98
537.069	2391.24
537.274	2389.11
537.479	2368.77
537.684	2364.31
537.889	2360.83
538.094	2464.67
538.299	2365.28
538.504	2400.35
538.708	2424.38
538.913	2458.86
539.118	2428.06
539.323	2424.96
539.528	2411.01
539.733	2356.56
539.938	2415.46
540.142	2382.53
540.347	2375.36
540.552	2377.88
540.757	2376.13
540.962	2355.59
541.166	2287.4
541.371	2260.47
541.576	2331.38
541.781	2277.32
541.985	2408.29
542.19	2343.58
542.395	2438.33
542.599	2495.09
542.804	2443.56
543.008	2494.12
543.213	2416.63
543.418	2394.73
543.622	2450.14
543.827	2390.47
544.031	2469.13
544.236	2476.88
544.44	2473.39
544.645	2498.19
544.849	2438.52
545.054	2483.66
545.258	2561.35
545.463	2555.35
545.667	2420.31
545.872	2496.26
546.076	2509.82
546.281	2482.11
546.485	2444.33
546.689	2484.24
546.894	2515.24
547.098	2522.02
547.302	2428.64
547.507	2498
547.711	2491.61
547.915	2515.82
548.119	2445.88
548.324	2442.01
548.528	2526.67
548.732	2456.54
548.936	2513.89
549.141	2516.99
549.345	2460.8
549.549	2483.86
549.753	2484.82
549.957	2540.82
550.161	2584.6
550.366	2499.16
550.57	2456.73
550.774	2487.73
550.978	2474.75
551.182	2491.02
551.386	2471.07
551.59	2479.98
551.794	2475.33
551.998	2510.98
552.202	2486.57
552.406	2450.34
552.61	2509.82
552.814	2503.81
553.018	2553.8
553.222	2477.66
553.426	2461.77
553.63	2582.47
553.833	2452.66
554.037	2407.91
554.241	2472.04
554.445	2487.73
554.649	2482.89
554.853	2449.56
555.056	2527.84
555.26	2536.36
555.464	2550.31
555.668	2519.12
555.871	2550.7
556.075	2551.28
556.279	2453.63
556.483	2459.25
556.686	2451.89
556.89	2468.74
557.094	2464.29
557.297	2369.16
557.501	2457.31
557.704	2346.88
557.908	2443.17
558.112	2383.69
558.315	2447.04
558.519	2422.44
558.722	2418.95
558.926	2393.96
559.129	2320.72
559.333	2337.96
559.536	2301.35
559.74	2306.96
559.943	2299.6
560.147	2302.51
560.35	2297.66
560.553	2337.77
560.757	2267.05
560.96	2354.24
561.164	2310.26
561.367	2422.83
561.57	2344.55
561.774	2347.85
561.977	2344.75
562.18	2297.66
562.384	2419.34
562.587	2311.61
562.79	2301.73
562.993	2304.06
563.197	2357.34
563.4	2375.94
563.603	2390.86
563.806	2409.65
564.009	2300.38
564.212	2338.93
564.416	2254.65
564.619	2320.91
564.822	2232.95
565.025	2370.71
565.228	2332.35
565.431	2296.89
565.634	2223.65
565.837	2213.58
566.04	2241.87
566.243	2243.42
566.446	2147.51
566.649	2252.72
566.852	2145.57
567.055	2202.92
567.258	2229.66
567.461	2304.06
567.664	2276.74
567.867	2204.08
568.07	2203.89
568.273	2277.13
568.475	2274.03
568.678	2218.62
568.881	2229.08
569.084	2191.88
569.287	2052.57
569.489	2153.32
569.692	2180.45
569.895	2174.05
570.098	2168.44
570.3	2101.4
570.503	2047.73
570.706	2084.54
570.909	2044.82
571.111	2043.47
571.314	2047.92
571.516	2055.09
571.719	2057.61
571.922	2035.33
572.124	2023.51
572.327	2045.41
572.529	1982.44
572.732	2063.23
572.935	2082.41
573.137	2154.29
573.34	2061.68
573.542	2062.46
573.745	2073.11
573.947	2096.36
574.15	2082.41
574.352	2020.41
574.554	2108.95
574.757	2007.04
574.959	2025.26
575.162	2013.05
575.364	1985.34
575.566	2103.92
575.769	1993.68
575.971	2009.17
576.173	1883.24
576.376	1990.96
576.578	2030.49
576.78	2067.69
576.982	1924.7
577.185	2002.2
577.387	1930.9
577.589	1957.64
577.791	2002.78
577.993	2016.54
578.196	1975.46
578.398	1980.11
578.6	1975.08
578.802	1890.41
579.004	1889.05
579.206	1921.21
579.408	1919.28
579.61	1906.88
579.812	1965.97
580.014	1887.7
580.216	1905.13
580.418	1923.54
580.62	1912.3
580.822	1854.37
581.024	1919.08
581.226	1951.63
581.428	1893.51
581.63	2041.53
581.832	1907.07
582.034	1969.46
582.236	1917.34
582.438	1938.07
582.64	1964.81
582.841	1988.64
583.043	2020.99
583.245	1953.76
583.447	1961.32
583.649	1922.57
583.85	1947.18
584.052	1977.59
584.254	1863.86
584.456	1977.4
584.657	1875.88
584.859	1920.83
585.061	1889.05
585.262	1909.01
585.464	1857.66
585.666	1925.09
585.867	1871.42
586.069	1914.05
586.27	1883.82
586.472	1885.76
586.674	1875.49
586.875	1877.23
587.077	1865.22
587.278	1881.88
587.48	1827.25
587.681	1966.55
587.883	1867.74
588.084	1813.68
588.285	1782.68
588.487	1835
588.688	1868.51
588.89	1731.54
589.091	1746.45
589.292	1688.52
589.494	1702.09
589.695	1635.24
589.896	1580.41
590.098	1590.87
590.299	1647.45
590.5	1653.84
590.702	1683.29
590.903	1694.72
591.104	1748.78
591.305	1735.8
591.507	1779.97
591.708	1758.47
591.909	1740.83
592.11	1789.47
592.311	1774.74
592.512	1717.59
592.714	1694.14
592.915	1713.13
593.116	1722.82
593.317	1742
593.518	1766.99
593.719	1741.03
593.92	1754.78
594.121	1830.73
594.322	1741.22
594.523	1735.02
594.724	1675.93
594.925	1714.68
595.126	1734.44
595.327	1753.62
595.528	1728.05
595.729	1729.79
595.929	1710.22
596.13	1724.56
596.331	1746.65
596.532	1762.34
596.733	1796.25
596.934	1804.77
597.135	1753.23
597.335	1800.51
597.536	1740.64
597.737	1751.49
597.938	1709.06
598.138	1765.63
598.339	1719.91
598.54	1747.62
598.74	1699.95
598.941	1736.19
599.142	1788.69
599.342	1734.83
599.543	1725.53
599.744	1714.29
599.944	1683.29
600.145	1723.79
600.345	1733.86
600.546	1769.9
600.746	1765.83
600.947	1799.54
601.147	1698.6
601.348	1745.1
601.548	1676.7
601.749	1705.57
601.949	1671.67
602.15	1704.22
602.35	1677.67
602.551	1713.52
602.751	1682.52
602.951	1687.55
603.152	1661.59
603.352	1762.53
603.552	1656.36
603.753	1753.23
603.953	1703.83
604.153	1743.55
604.354	1690.46
604.554	1681.74
604.754	1699.57
604.954	1661.59
605.155	1710.03
605.355	1663.14
605.555	1722.24
605.755	1727.85
605.955	1708.67
606.155	1738.12
606.356	1681.74
606.556	1736.96
606.756	1743.55
606.956	1642.8
607.156	1759.82
607.356	1653.07
607.556	1682.71
607.756	1689.49
607.956	1737.54
608.156	1708.09
608.356	1614.32
608.556	1695.5
608.756	1662.56
608.956	1638.54
609.156	1668.95
609.356	1617.03
609.556	1576.54
609.755	1632.34
609.955	1627.11
610.155	1626.52
610.355	1667.4
610.555	1614.51
610.755	1627.69
610.954	1580.02
611.154	1609.86
611.354	1654.62
611.554	1564.91
611.753	1625.94
611.953	1542.83
612.153	1634.47
612.352	1618.39
612.552	1541.47
612.752	1520.35
612.951	1591.07
613.151	1549.22
613.351	1524.81
613.55	1555.81
613.75	1568.98
613.949	1572.66
614.149	1551.16
614.348	1559.49
614.548	1474.24
614.747	1492.26
614.947	1503.49
615.146	1469.59
615.346	1570.92
615.545	1567.24
615.745	1547.67
615.944	1571.11
616.144	1567.04
616.343	1560.46
616.542	1517.83
616.742	1505.82
616.941	1519.77
617.14	1453.51
617.34	1499.23
617.539	1517.64
617.738	1486.06
617.938	1556.78
618.137	1502.53
618.336	1415.53
618.535	1508.73
618.734	1461.65
618.934	1523.06
619.133	1505.24
619.332	1534.49
619.531	1492.84
619.73	1530.04
619.929	1524.42
620.128	1508.92
620.328	1544.57
620.527	1472.11
620.726	1472.69
620.925	1491.48
621.124	1489.35
621.323	1522.29
621.522	1463.78
621.721	1466.49
621.92	1453.51
622.119	1495.94
622.318	1434.13
622.517	1432.78
622.715	1462.61
622.914	1412.24
623.113	1458.93
623.312	1369.81
623.511	1470.75
623.71	1428.51
623.909	1395.58
624.107	1507.95
624.306	1384.34
624.505	1422.51
624.704	1427.93
624.902	1404.88
625.101	1482.57
625.3	1410.3
625.499	1390.73
625.697	1397.13
625.896	1388.41
626.095	1418.83
626.293	1353.15
626.492	1369.23
626.69	1401.97
626.889	1384.92
627.088	1434.33
627.286	1402.36
627.485	1369.42
627.683	1382.98
627.882	1400.23
628.08	1308.58
628.279	1337.65
628.477	1451.76
628.676	1322.73
628.874	1362.06
629.073	1339.97
629.271	1306.84
629.469	1377.75
629.668	1338.42
629.866	1341.91
630.065	1351.21
630.263	1364.77
630.461	1322.15
630.66	1344.62
630.858	1362.06
631.056	1414.37
631.254	1392.86
631.453	1305.68
631.651	1372.33
631.849	1299.48
632.047	1348.88
632.245	1329.9
632.444	1333.97
632.642	1376.2
632.84	1354.89
633.038	1339.2
633.236	1267.7
633.434	1286.11
633.632	1289.02
633.83	1288.82
634.028	1363.42
634.227	1324.47
634.425	1414.76
634.623	1332.42
634.821	1345.59
635.019	1309.94
635.216	1325.05
635.414	1380.08
635.612	1331.83
635.81	1309.75
636.008	1370.58
636.206	1343.27
636.404	1313.62
636.602	1293.47
636.8	1340.94
636.997	1326.8
637.195	1346.95
637.393	1327.96
637.591	1367.68
637.789	1325.63
637.986	1341.13
638.184	1338.42
638.382	1380.27
638.58	1343.85
638.777	1377.37
638.975	1336.68
639.173	1336.48
639.37	1348.88
639.568	1312.65
639.765	1352.18
639.963	1280.3
640.161	1345.4
640.358	1345.78
640.556	1242.71
640.753	1249.1
640.951	1259.95
641.148	1340.17
641.346	1286.69
641.543	1273.9
641.741	1296.19
641.938	1269.45
642.136	1277.78
642.333	1252.59
642.531	1350.82
642.728	1332.03
642.925	1304.13
643.123	1260.54
643.32	1256.27
643.517	1234.77
643.715	1256.66
643.912	1239.03
644.109	1298.51
644.306	1288.63
644.504	1220.24
644.701	1279.14
644.898	1305.68
645.095	1271
645.293	1260.54
645.49	1283.79
645.687	1250.27
645.884	1283.2
646.081	1217.91
646.278	1224.11
646.475	1212.29
646.672	1197.76
646.87	1245.62
647.067	1243.29
647.264	1247.17
647.461	1184.39
647.658	1165.21
647.855	1206.48
648.052	1193.69
648.249	1153.2
648.446	1205.12
648.642	1192.72
648.839	1176.06
649.036	1181.29
649.233	1144.09
649.43	1151.46
649.627	1107.28
649.824	1130.34
650.021	1140.02
650.217	1129.56
650.414	1165.41
650.611	1179.94
650.808	1182.07
651.004	1181.68
651.201	1211.32
651.398	1244.07
651.595	1180.71
651.791	1145.64
651.988	1200.86
652.185	1148.36
652.381	1197.96
652.578	1109.22
652.775	1142.35
652.971	1168.31
653.168	1166.96
653.364	1174.9
653.561	1083.06
653.757	1170.64
653.954	1175.48
654.15	1135.76
654.347	1203.57
654.543	1144.67
654.74	1090.81
654.936	1076.28
655.133	1125.3
655.329	1137.12
655.525	1108.44
655.722	1150.68
655.918	1055.55
656.115	1118.71
656.311	1007.5
656.507	982.31
656.704	918.57
656.9	961.78
657.096	971.85
657.292	947.44
657.489	1039.08
657.685	1046.83
657.881	986.77
658.077	1053.61
658.273	1053.61
658.47	1101.08
658.666	1058.46
658.862	1097.79
659.058	1089.84
659.254	1101.66
659.45	1092.94
659.646	1095.08
659.842	1100.69
660.038	1150.87
660.234	1055.94
660.43	1061.36
660.626	1187.69
660.822	1133.24
661.018	1153.97
661.214	1113.87
661.41	1051.87
661.606	1142.35
661.802	1141.57
661.998	1093.53
662.194	1062.91
662.39	1126.08
662.586	1104.38
662.781	1119.29
662.977	1157.07
663.173	1137.12
663.369	1120.07
663.564	1096.63
663.76	1117.16
663.956	1071.44
664.152	1123.36
664.347	1044.7
664.543	1088.29
664.739	1069.89
664.934	1047.22
665.13	1028.43
665.326	1096.04
665.521	1110.96
665.717	1058.46
665.912	1004.6
666.108	999.36
666.304	1047.03
666.499	1032.88
666.695	982.12
666.89	1048.77
667.086	1078.03
667.281	1076.67
667.477	1114.45
667.672	1073.96
667.867	1048.77
668.063	1059.04
668.258	1014.48
668.454	1064.27
668.649	1126.27
668.844	1079.58
669.04	1075.12
669.235	1028.04
669.43	1044.7
669.626	999.36
669.821	1035.4
670.016	999.75
670.211	1025.13
670.407	970.88
670.602	1038.5
670.797	988.71
670.992	1078.03
671.187	981.54
671.382	1026.1
671.578	966.23
671.773	1007.89
671.968	954.03
672.163	1001.5
672.358	1050.71
672.553	964.49
672.748	1016.61
672.943	1079.96
673.138	1010.8
673.333	1036.76
673.528	978.44
673.723	1042.96
673.918	1000.53
674.113	943.76
674.308	1108.06
674.503	1021.45
674.698	1023.39
674.892	1008.08
675.087	1051.87
675.282	1036.95
675.477	979.41
675.672	1010.21
675.867	964.1
676.061	968.56
676.256	948.02
676.451	986.77
676.646	1023
676.84	938.72
677.035	938.72
677.23	941.63
677.424	996.26
677.619	1015.06
677.814	1041.41
678.008	998.4
678.203	927.68
678.397	974.56
678.592	966.62
678.787	1038.31
678.981	952.48
679.176	988.32
679.37	985.41
679.565	959.65
679.759	984.83
679.954	981.15
680.148	1012.73
680.342	1044.12
680.537	992
680.731	936.59
680.926	1012.93
681.12	1011.18
681.314	958.48
681.509	941.05
681.703	987.74
681.897	1006.53
682.092	985.8
682.286	952.87
682.48	1026.88
682.674	990.84
682.869	956.16
683.063	977.28
683.257	1015.06
683.451	945.7
683.645	977.66
683.839	948.22
684.034	937.56
684.228	990.65
684.422	908.88
684.616	927.48
684.81	953.45
685.004	965.26
685.198	943.57
685.392	981.93
685.586	907.53
685.78	937.37
685.974	975.34
686.168	1004.21
686.362	1024.94
686.556	894.16
686.75	874.98
686.944	891.06
687.138	860.25
687.331	775.2
687.525	794.38
687.719	752.34
687.913	798.45
688.107	822.28
688.301	769
688.494	812.59
688.688	766.87
688.882	743.42
689.076	753.11
689.269	774.23
689.463	880.79
689.657	802.52
689.85	800.77
690.044	826.35
690.238	815.11
690.431	787.79
690.625	813.17
690.818	860.25
691.012	855.99
691.205	856.38
691.399	839.33
691.593	857.15
691.786	904.82
691.98	883.89
692.173	914.31
692.366	856.19
692.56	912.76
692.753	973.79
692.947	852.7
693.14	944.15
693.333	916.44
693.527	853.09
693.72	906.75
693.914	885.83
694.107	897.84
694.3	890.87
694.493	839.72
694.687	962.16
694.88	874.4
695.073	936.59
695.266	952.67
695.46	921.87
695.653	932.52
695.846	970.88
696.039	882.15
696.232	908.5
696.425	970.69
696.618	964.49
696.812	962.55
697.005	1025.71
697.198	1071.63
697.391	990.26
697.584	1006.53
697.777	1084.42
697.97	1072.21
698.163	1041.41
698.356	1048.19
698.549	1132.86
698.742	1078.99
698.935	1027.46
699.127	1071.44
699.32	1019.32
699.513	1064.08
699.706	1093.53
699.899	1116.78
700.092	1035.6
700.285	1083.84
700.477	1027.85
700.67	1084.23
700.863	1104.38
701.056	1173.35
701.248	1170.44
701.441	1169.47
701.634	1124.53
701.826	1212.49
702.019	1121.62
702.212	1190.4
702.404	1148.74
702.597	1141.57
702.79	1179.16
702.982	1201.06
703.175	1238.45
703.367	1232.25
703.56	1237.48
703.752	1331.06
703.945	1255.3
704.137	1289.6
704.33	1328.73
704.522	1311.49
704.715	1338.03
704.907	1361.28
705.1	1370.39
705.292	1422.51
705.484	1367.87
705.677	1400.23
705.869	1428.13
706.061	1441.88
706.254	1497.29
706.446	1437.43
706.638	1447.7
706.831	1529.46
707.023	1502.14
707.215	1612.96
707.407	1537.79
707.599	1545.93
707.792	1635.44
707.984	1595.52
708.176	1658.88
708.368	1541.08
708.56	1642.8
708.752	1605.21
708.944	1590.1
709.136	1649.39
709.329	1621.1
709.521	1770.28
709.713	1715.65
709.905	1723.4
710.097	1802.25
710.289	1712.94
710.481	1775.52
710.672	1785.4
710.864	1811.36
711.056	1869.48
711.248	1857.47
711.44	1855.34
711.632	1827.44
711.824	1892.73
712.016	1962.09
712.207	1943.11
712.399	1984.76
712.591	1996
712.783	1969.46
712.975	2028.55
713.166	1987.09
713.358	1995.81
713.55	2058.58
713.741	2063.23
713.933	2051.61
714.125	2069.43
714.316	2064.97
714.508	2163.2
714.7	2157.97
714.891	2158.75
715.083	2211.64
715.274	2135.11
715.466	2183.74
715.657	2238.18
715.849	2137.82
716.04	2180.64
716.232	2145.96
716.423	2240.51
716.615	2156.04
716.806	2143.64
716.998	2107.02
717.189	2037.66
717.381	1980.69
717.572	2009.37
717.763	2017.31
717.955	1983.6
718.146	1972.56
718.337	1912.5
718.528	1926.25
718.72	1857.47
718.911	1885.95
719.102	1843.52
719.293	1934.97
719.485	1932.64
719.676	1879.36
719.867	1868.9
720.058	1885.76
720.249	1889.25
720.44	1939.62
720.632	1978.37
720.823	2000.65
721.014	2091.52
721.205	2143.64
721.396	2211.45
721.587	2242.06
721.778	2296.11
721.969	2373.42
722.16	2412.94
722.351	2438.33
722.542	2553.6
722.733	2583.64
722.924	2478.24
723.115	2553.99
723.305	2569.49
723.496	2572.4
723.687	2412.17
723.878	2500.13
724.069	2454.02
724.26	2495.29
724.45	2390.86
724.641	2449.37
724.832	2466.22
725.023	2453.24
725.213	2448.4
725.404	2456.73
725.595	2443.36
725.785	2466.81
725.976	2528.8
726.167	2506.52
726.357	2529.39
726.548	2618.51
726.739	2549.15
726.929	2591.58
727.12	2625.87
727.31	2667.72
727.501	2622.19
727.691	2652.61
727.882	2685.16
728.072	2712.67
728.263	2633.43
728.453	2757.04
728.644	2780.48
728.834	2738.25
729.024	2721.58
729.215	2765.76
729.405	2788.04
729.596	2857.79
729.786	2829.89
729.976	2894.6
730.167	2946.33
730.357	2889.76
730.547	2889.95
730.737	2926.76
730.928	2927.73
731.118	3015.5
731.308	2915.33
731.498	2978.49
731.688	3056.38
731.879	3064.13
732.069	3130
732.259	3142.21
732.449	3164.3
732.639	3210.02
732.829	3203.63
733.019	3263.11
733.209	3335.96
733.399	3336.92
733.589	3440.97
733.779	3425.85
733.969	3439.42
734.159	3515.56
734.349	3581.63
734.539	3597.13
734.729	3597.32
734.919	3618.83
735.109	3697.29
735.299	3624.83
735.488	3664.55
735.678	3724.42
735.868	3665.33
736.058	3687.61
736.248	3667.07
736.437	3617.28
736.627	3645.95
736.817	3761.04
737.007	3701.75
737.196	3771.31
737.386	3740.31
737.576	3684.12
737.765	3793.78
737.955	3745.34
738.144	3932.31
738.334	3818.39
738.524	3807.34
738.713	3814.32
738.903	3776.34
739.092	3853.45
739.282	3799.01
739.471	3851.52
739.661	3844.93
739.85	3891.82
740.04	3901.7
740.229	3895.89
740.419	3938.7
740.608	3949.55
740.797	3923.79
740.987	3991.98
741.176	3965.05
741.365	3914.87
741.555	3877.67
741.744	4025.7
741.933	3991.79
742.123	4005.35
742.312	4035
742.501	4087.7
742.69	4039.45
742.88	3993.53
743.069	4109.39
743.258	4072
743.447	4116.76
743.636	4149.11
743.825	4152.99
744.014	4102.42
744.204	4107.84
744.393	4084.98
744.582	4206.85
744.771	4225.64
744.96	4173.14
745.149	4180.31
745.338	4124.31
745.527	4249.09
745.716	4169.26
745.905	4166.74
746.094	4218.67
746.283	4239.98
746.471	4182.05
746.66	4228.36
746.849	4267.69
747.038	4255.29
747.227	4200.26
747.416	4271.17
747.604	4136.33
747.793	4181.86
747.982	4233.97
748.171	4271.17
748.359	4239.59
748.548	4270.98
748.737	4246.57
748.926	4213.05
749.114	4116.37
749.303	4223.71
749.491	4234.17
749.68	4090.21
749.869	4209.76
750.057	4196.97
750.246	4169.84
750.434	4209.76
750.623	4187.67
750.811	4152.6
751	4182.63
751.188	4184.76
751.377	4146.59
751.565	4152.6
751.754	4104.94
751.942	4127.99
752.131	4184.38
752.319	4135.55
752.507	4161.13
752.696	4143.49
752.884	4165.97
753.072	4122.18
753.261	4171.2
753.449	4115.4
753.637	4067.16
753.825	4237.27
754.014	4131.29
754.202	4136.33
754.39	4227.58
754.578	4163.06
754.766	4085.95
754.955	4093.51
755.143	4201.42
755.331	4097.77
755.519	4115.98
755.707	4106.68
755.895	4065.41
756.083	4087.11
756.271	4088.28
756.459	4073.94
756.647	4093.9
756.835	4028.41
757.023	4057.47
757.211	4069.87
757.399	4010.97
757.587	4054.37
757.775	4004.58
757.963	4026.47
758.151	4052.24
758.339	4004
758.526	3949.94
758.714	4033.64
758.902	3901.89
759.09	3849.97
759.278	3650.02
759.465	3465.77
759.653	3069.17
759.841	2882.2
760.028	2480.76
760.216	2202.92
760.404	2087.84
760.591	1790.82
760.779	1550.77
760.967	1447.7
761.154	1207.45
761.342	1270.42
761.529	1303.74
761.717	1343.65
761.905	1369.42
762.092	1502.53
762.28	1434.91
762.467	1484.89
762.655	1431.03
762.842	1446.34
763.029	1470.17
763.217	1525
763.404	1514.15
763.592	1575.57
763.779	1531.59
763.966	1601.92
764.154	1648.61
764.341	1700.73
764.528	1690.46
764.716	1756.53
764.903	1808.65
765.09	1888.08
765.277	1920.44
765.465	2113.41
765.652	2173.86
765.839	2215.71
766.026	2361.02
766.213	2396.48
766.4	2510.21
766.588	2668.5
766.775	2707.44
766.962	2820.98
767.149	2901.38
767.336	3008.52
767.523	2968.8
767.71	3096.68
767.897	3228.43
768.084	3251.09
768.271	3300.31
768.458	3337.89
768.645	3402.99
768.832	3356.88
769.019	3420.43
769.206	3437.29
769.392	3500.45
769.579	3623.09
769.766	3558.38
769.953	3508.2
770.14	3587.63
770.327	3572.72
770.513	3642.66
770.7	3680.44
770.887	3576.59
771.073	3611.27
771.26	3610.5
771.447	3609.33
771.634	3537.45
771.82	3662.81
772.007	3566.13
772.193	3610.3
772.38	3598.29
772.567	3546.75
772.753	3562.83
772.94	3636.85
773.126	3639.17
773.313	3659.13
773.499	3578.14
773.686	3664.74
773.872	3565.35
774.059	3582.6
774.245	3563.8
774.432	3542.3
774.618	3462.09
774.804	3538.62
774.991	3546.17
775.177	3554.7
775.363	3518.47
775.55	3582.4
775.736	3492.5
775.922	3515.17
776.109	3518.85
776.295	3508.2
776.481	3552.95
776.667	3562.06
776.853	3482.43
777.04	3468.48
777.226	3455.3
777.412	3573.1
777.598	3440.58
777.784	3440.77
777.97	3446.97
778.156	3461.12
778.342	3448.72
778.528	3406.87
778.715	3341.96
778.901	3408.22
779.087	3438.45
779.272	3374.51
779.458	3375.29
779.644	3392.14
779.83	3356.88
780.016	3506.84
780.202	3346.22
780.388	3335.57
780.574	3275.51
780.76	3337.51
780.946	3394.47
781.131	3346.61
781.317	3343.71
781.503	3327.24
781.689	3306.31
781.874	3396.79
782.06	3302.63
782.246	3321.81
782.432	3274.34
782.617	3300.69
782.803	3378.19
782.989	3193.36
783.174	3271.63
783.36	3184.64
783.545	3268.34
783.731	3222.42
783.916	3133.68
784.102	3242.96
784.288	3188.32
784.473	3156.74
784.659	3167.2
784.844	3190.65
785.029	3177.28
785.215	3155.38
785.4	3113.73
785.586	3223.97
785.771	3101.72
785.956	3196.26
786.142	3148.8
786.327	3118.77
786.512	3126.52
786.698	3131.17
786.883	3051.15
787.068	3113.34
787.254	3118.77
787.439	3093.38
787.624	3055.8
787.809	3036.62
787.994	3040.3
788.18	3140.66
788.365	2999.8
788.55	3025.19
788.735	3053.47
788.92	2958.73
789.105	3013.37
789.29	3029.06
789.475	2933.35
789.66	2947.69
789.845	2931.41
790.03	2904.09
790.215	2971.52
790.4	2989.34
790.585	2997.87
790.77	2940.71
790.955	2903.12
791.14	2945.94
791.325	3027.32
791.51	2810.32
791.695	2906.22
791.879	2901.38
792.064	2867.67
792.249	2958.73
792.434	2940.13
792.618	2882.39
792.803	2948.66
792.988	2905.26
793.173	2936.45
793.357	2930.44
793.542	2851.2
793.727	2903.51
793.911	2878.13
794.096	2858.56
794.281	2919.79
794.465	2966.67
794.65	2883.94
794.834	2936.06
795.019	2963.96
795.203	2980.43
795.388	2956.99
795.572	3015.89
795.757	2979.07
795.941	2952.53
796.126	2957.18
796.31	2918.24
796.494	2914.94
796.679	2914.94
796.863	2890.53
797.048	2994.77
797.232	2936.84
797.416	2967.25
797.601	2977.91
797.785	3053.28
797.969	2978.49
798.153	2951.76
798.338	2978.49
798.522	3014.72
798.706	2958.92
798.89	3007.94
799.074	3099.39
799.258	3050.95
799.443	2973.45
799.627	3007.17
799.811	3054.25
799.995	3000.77
800.179	2957.37
800.363	2954.47
800.547	2990.12
800.731	3023.83
800.915	2922.11
801.099	2943.62
801.283	2968.61
801.467	3012.59
801.651	2950.79
801.835	2996.9
802.019	2994.77
802.202	2985.66
802.386	2899.06
802.57	2943.42
802.754	2954.27
802.938	2901.77
803.121	2922.89
803.305	3011.62
803.489	2962.61
803.673	2936.64
803.856	2971.32
804.04	2915.52
804.224	2970.55
804.407	2958.54
804.591	2958.92
804.775	2907
804.958	2926.37
805.142	3051.34
805.326	2963.57
805.509	2932.19
805.693	2946.91
805.876	2989.73
806.06	2952.92
806.243	2970.74
806.427	3041.46
806.61	3006.97
806.794	2952.92
806.977	2995.15
807.16	2939.74
807.344	2983.14
807.527	2947.88
807.71	2908.55
807.894	2914.56
808.077	2964.35
808.26	2894.6
808.444	2901.38
808.627	2969.19
808.81	2904.48
808.993	2837.44
809.177	2855.85
809.36	2845.58
809.543	2887.04
809.726	2753.16
809.909	2823.69
810.092	2804.31
810.276	2801.99
810.459	2789.2
810.642	2776.8
810.825	2762.27
811.008	2783.78
811.191	2636.14
811.374	2662.3
811.557	2709.96
811.74	2749.68
811.923	2657.65
812.106	2689.23
812.289	2611.92
812.472	2630.52
812.654	2645.83
812.837	2607.08
813.02	2568.14
813.203	2538.49
813.386	2394.93
813.569	2426.7
813.751	2371.68
813.934	2408.68
814.117	2355.21
814.3	2316.26
814.482	2272.48
814.665	2236.05
814.848	2201.76
815.03	2167.47
815.213	2159.72
815.396	2141.12
815.578	2097.52
815.761	2066.72
815.943	2121.74
816.126	2003.75
816.309	2041.72
816.491	1938.84
816.674	1897.38
816.856	1937.88
817.039	1914.43
817.221	2032.23
817.403	1977.4
817.586	1977.59
817.768	2023.12
817.951	1892.15
818.133	1896.03
818.315	1922.18
818.498	1941.75
818.68	2015.37
818.862	1968.49
819.045	2008.21
819.227	1997.74
819.409	1963.84
819.591	1989.41
819.774	1962.09
819.956	1929.54
820.138	2022.93
820.32	1996.78
820.502	2004.33
820.684	2121.94
820.866	2075.24
821.048	2146.15
821.231	2171.34
821.413	2138.79
821.595	2130.65
821.777	2137.44
821.959	2150.42
822.141	2219.97
822.323	2091.71
822.505	2049.67
822.686	1957.83
822.868	1902.61
823.05	1778.62
823.232	1773.97
823.414	1675.35
823.596	1755.37
823.778	1687.75
823.96	1788.69
824.141	1771.64
824.323	1769.32
824.505	1876.07
824.687	1916.56
824.868	1947.18
825.05	2015.96
825.232	2056.45
825.413	2161.65
825.595	2086.87
825.777	2029.32
825.958	2027.19
826.14	2058.77
826.321	2123.68
826.503	2049.67
826.685	2119.61
826.866	2115.54
827.048	2097.14
827.229	2051.41
827.411	1999.49
827.592	1977.59
827.773	1983.99
827.955	1896.03
828.136	1897.38
828.318	1884.01
828.499	1985.54
828.68	1883.05
828.862	1889.25
829.043	1933.81
829.224	1859.02
829.406	1850.69
829.587	1852.82
829.768	1904.36
829.949	1862.12
830.131	1848.75
830.312	1925.86
830.493	1938.07
830.674	1867.93
830.855	1870.26
831.036	1842.55
831.218	1924.89
831.399	1943.3
831.58	1918.89
831.761	1890.8
831.942	1892.73
832.123	1881.5
832.304	1783.85
832.485	1850.5
832.666	1852.82
832.847	1932.45
833.028	1903.39
833.209	1865.61
833.389	1893.31
833.57	1835
833.751	1837.71
833.932	1878.98
834.113	1839.06
834.294	1839.06
834.475	1873.75
834.655	1919.28
834.836	1893.31
835.017	1888.28
835.198	1867.55
835.378	1864.64
835.559	1960.93
835.74	1840.81
835.92	1900.29
836.101	1864.64
836.281	1852.43
836.462	1888.86
836.643	1915.59
836.823	1924.7
837.004	1958.41
837.184	1968.68
837.365	1973.33
837.545	1965.78
837.726	1909.78
837.906	1987.67
838.087	1909.2
838.267	1908.81
838.448	1849.53
838.628	1927.22
838.808	1905.52
838.989	1941.75
839.169	1865.41
839.349	1890.02
839.53	1908.04
839.71	1946.98
839.89	1890.8
840.07	1937.88
840.251	1866
840.431	1924.7
840.611	1892.15
840.791	1874.71
840.971	1919.28
841.151	1878.78
841.332	1859.6
841.512	1929.93
841.692	1838.87
841.872	1883.82
842.052	1859.41
842.232	1886.73
842.412	1808.84
842.592	1834.03
842.772	1904.94
842.952	1893.51
843.132	1868.9
843.312	1843.52
843.492	1811.75
843.672	1884.4
843.851	1792.37
844.031	1829.96
844.211	1806.71
844.391	1808.07
844.571	1812.52
844.751	1837.9
844.93	1829.96
845.11	1823.18
845.29	1809.42
845.47	1868.9
845.649	1829.18
845.829	1868.51
846.009	1773.77
846.188	1818.14
846.368	1780.94
846.547	1777.84
846.727	1822.21
846.907	1771.64
847.086	1834.61
847.266	1827.44
847.445	1743.55
847.625	1782.68
847.804	1753.62
847.984	1825.31
848.163	1778.23
848.343	1746.45
848.522	1764.86
848.701	1741.8
848.881	1751.88
849.06	1763.12
849.239	1790.24
849.419	1764.67
849.598	1691.04
849.777	1677.87
849.957	1682.52
850.136	1572.86
850.315	1604.44
850.494	1591.84
850.674	1584.87
850.853	1671.47
851.032	1609.28
851.211	1659.27
851.39	1653.84
851.569	1620.32
851.748	1601.92
851.927	1654.81
852.107	1611.99
852.286	1609.67
852.465	1574.99
852.644	1681.94
852.823	1649
853.002	1626.33
853.181	1603.27
853.359	1619.55
853.538	1581.96
853.717	1649.77
853.896	1556.78
854.075	1468.04
854.254	1410.11
854.433	1368.07
854.611	1388.6
854.79	1377.37
854.969	1396.74
855.148	1433.94
855.327	1405.07
855.505	1481.79
855.684	1444.4
855.863	1467.46
856.041	1457.77
856.22	1514.93
856.399	1478.5
856.577	1580.22
856.756	1547.67
856.934	1664.69
857.113	1640.86
857.291	1563.75
857.47	1567.43
857.648	1542.44
857.827	1559.88
858.005	1585.06
858.184	1525.97
858.362	1609.86
858.541	1564.53
858.719	1559.29
858.898	1541.66
859.076	1566.46
859.254	1644.93
859.433	1535.66
859.611	1478.89
859.789	1478.5
859.967	1553.68
860.146	1581.19
860.324	1475.98
860.502	1516.09
860.68	1466.3
860.859	1506.59
861.037	1496.91
861.215	1503.11
861.393	1519.19
861.571	1469.98
861.749	1448.66
861.927	1479.08
862.105	1496.52
862.283	1468.43
862.461	1460.68
862.639	1441.69
862.817	1429.29
862.995	1437.04
863.173	1488.19
863.351	1473.27
863.529	1492.06
863.707	1489.16
863.885	1471.33
864.063	1389.77
864.241	1428.32
864.418	1492.45
864.596	1395.77
864.774	1414.18
864.952	1460.48
865.129	1440.91
865.307	1400.42
865.485	1354.7
865.663	1452.35
865.84	1375.62
866.018	1338.81
866.196	1251.04
866.373	1277.59
866.551	1209.77
866.728	1127.43
866.906	1201.06
867.084	1221.59
867.261	1275.26
867.439	1259.18
867.616	1314.01
867.794	1280.88
867.971	1331.25
868.149	1299.09
868.326	1356.63
868.503	1343.85
868.681	1334.16
868.858	1294.64
869.035	1265.57
869.213	1344.62
869.39	1314.2
869.567	1387.25
869.745	1313.43
869.922	1337.45
870.099	1334.16
870.276	1337.84
870.454	1324.67
870.631	1315.75
870.808	1281.46
870.985	1358.57
871.162	1376.78
871.339	1339.78
871.517	1266.35
871.694	1289.6
871.871	1289.79
872.048	1264.8
872.225	1261.31
872.402	1300.84
872.579	1228.76
872.756	1267.32
872.933	1261.12
873.11	1263.05
873.287	1295.41
873.463	1229.73
873.64	1251.62
873.817	1278.94
873.994	1259.57
874.171	1224.69
874.348	1278.17
874.524	1194.66
874.701	1264.8
874.878	1188.85
875.055	1236.12
875.231	1238.45
875.408	1261.12
875.585	1142.16
875.762	1194.47
875.938	1207.26
876.115	1216.55
876.291	1188.46
876.468	1191.37
876.645	1179.16
876.821	1185.36
876.998	1160.56
877.174	1223.34
877.351	1181.29
877.527	1137.31
877.704	1167.15
877.88	1186.33
878.057	1195.82
878.233	1196.41
878.409	1172.19
878.586	1176.45
878.762	1146.22
878.938	1167.34
879.115	1080.54
879.291	1147.39
879.467	1085.78
879.644	1129.17
879.82	1175.48
879.996	1114.64
880.172	1081.51
880.349	1128.98
880.525	1169.86
880.701	1067.76
880.877	1102.44
881.053	1121.62
881.229	1094.69
881.405	1145.26
881.581	1096.43
881.757	1095.27
881.933	1090.62
882.109	1150.1
882.285	1127.24
882.461	1077.83
882.637	1085.78
882.813	1052.84
882.989	1078.03
883.165	1177.03
883.341	1084.23
883.517	1138.47
883.693	1141.19
883.869	1117.16
884.044	1051.09
884.22	1146.42
884.396	1181.1
884.572	1099.73
884.747	1146.61
884.923	1124.53
885.099	1101.28
885.275	1161.72
885.45	1069.69
885.626	1117.94
885.801	1117.74
885.977	1083.45
886.153	1028.81
886.328	1129.37
886.504	1073.18
886.679	1104.57
886.855	1094.69
887.03	1098.95
887.206	1109.61
887.381	1103.79
887.557	1124.14
887.732	1122.78
887.908	1156.69
888.083	1134.6
888.258	1109.99
888.434	1073.76
888.609	1081.13
888.784	1139.44
888.96	1080.93
889.135	1073.18
889.31	1073.76
889.485	1126.66
889.661	1088.49
889.836	1169.86
890.011	1139.83
890.186	1078.99
890.361	1078.8
890.537	1087.71
890.712	1091.59
890.887	1106.7
891.062	1077.06
891.237	1155.14
891.412	1058.84
891.587	1100.31
891.762	1130.72
891.937	1139.83
892.112	1038.7
892.287	1096.82
892.462	1056.52
892.637	1034.05
892.812	1026.1
892.987	1045.48
893.161	1017.19
893.336	1011.18
893.511	1032.69
893.686	1034.82
893.861	998.78
894.035	1012.15
894.21	1022.81
894.385	934.27
894.56	1036.95
894.734	966.62
894.909	969.14
895.084	949.96
895.258	943.95
895.433	976.7
895.608	920.12
895.782	863.16
895.957	897.26
896.131	882.34
896.306	823.25
896.48	845.72
896.655	862.58
896.829	768.42
897.004	792.83
897.178	787.02
897.353	774.81
897.527	824.99
897.701	791.09
897.876	744.2
898.05	836.42
898.224	829.25
898.399	839.52
898.573	792.64
898.747	699.25
898.921	750.98
899.096	668.44
899.27	675.03
899.444	648.49
899.618	696.73
899.792	744.97
899.967	697.12
900.141	732.96
900.315	668.64
900.489	669.41
900.663	728.12
900.837	723.08
901.011	658.95
901.185	768.03
901.359	684.53
901.533	718.04
901.707	724.44
901.881	694.02
902.055	642.48
902.229	670.96
902.403	762.41
902.576	695.18
902.75	715.72
902.924	835.07
903.098	758.73
903.272	810.27
903.446	825.19
903.619	797.48
903.793	840.1
903.967	790.89
904.14	876.72
904.314	876.14
904.488	824.6
904.661	885.83
904.835	835.65
905.009	879.43
905.182	917.22
905.356	874.98
905.529	861.03
905.703	820.34
905.876	797.29
906.05	796.51
906.223	763.77
906.397	734.12
906.57	710.68
906.744	727.73
906.917	690.34
907.09	687.63
907.264	712.23
907.437	651.98
907.61	654.3
907.784	640.16
907.957	666.89
908.13	603.54
908.304	658.56
908.477	637.83
908.65	638.22
908.823	601.8
908.996	701.19
909.17	605.67
909.343	603.35
909.516	655.46
909.689	629.31
909.862	621.56
910.035	634.15
910.208	579.51
910.381	571.96
910.554	680.65
910.727	622.53
910.9	583.97
911.073	577.58
911.246	653.14
911.419	654.69
911.592	665.15
911.765	584.36
911.938	600.83
912.11	592.11
912.283	614
912.456	661.86
912.629	624.66
912.802	609.54
912.974	536.5
913.147	523.33
913.32	502.02
913.493	502.79
913.665	526.81
913.838	531.85
914.01	526.62
914.183	533.79
914.356	533.79
914.528	568.66
914.701	640.74
914.873	565.18
915.046	545.8
915.218	499.88
915.391	447.77
915.563	481.67
915.736	507.83
915.908	541.73
916.081	522.36
916.253	530.5
916.425	563.24
916.598	573.12
916.77	524.3
916.942	519.26
917.115	447.96
917.287	539.6
917.459	458.62
917.632	462.88
917.804	438.27
917.976	500.47
918.148	508.99
918.32	509.18
918.493	569.83
918.665	566.34
918.837	514.8
919.009	588.62
919.181	569.44
919.353	544.45
919.525	528.56
919.697	550.26
919.869	526.43
920.041	574.28
920.213	675.42
920.385	606.25
920.557	539.99
920.729	540.96
920.901	556.65
921.073	540.96
921.244	537.47
921.416	570.8
921.588	544.83
921.76	510.54
921.932	605.09
922.103	520.61
922.275	553.94
922.447	547.74
922.619	455.32
922.79	545.22
922.962	505.89
923.134	518.1
923.305	466.37
923.477	472.76
923.648	488.26
923.82	505.12
923.991	431.49
924.163	424.13
924.335	473.92
924.506	474.12
924.677	524.1
924.849	449.9
925.02	480.7
925.192	503.37
925.363	472.95
925.535	463.07
925.706	475.47
925.877	502.6
926.049	459.78
926.22	457.45
926.391	486.32
926.562	508.41
926.734	431.49
926.905	480.32
927.076	413.47
927.247	453.77
927.419	380.73
927.59	406.3
927.761	421.61
927.932	401.85
928.103	428.2
928.274	359.03
928.445	314.08
928.616	376.08
928.787	377.63
928.958	392.94
929.129	354.19
929.3	354.96
929.471	286.96
929.642	250.34
929.813	235.23
929.984	320.86
930.155	229.22
930.326	306.14
930.496	253.24
930.667	199.58
930.838	266.42
931.009	176.33
931.18	202.87
931.35	206.16
931.521	225.73
931.692	187.95
931.863	121.3
932.033	181.75
932.204	164.31
932.374	170.51
932.545	116.85
932.716	219.34
932.886	161.99
933.057	90.3
933.227	124.79
933.398	198.22
933.568	108.71
933.739	46.52
933.909	62.4
934.08	139.71
934.25	43.42
934.421	51.55
934.591	110.84
934.761	92.24
934.932	26.37
935.102	91.46
935.272	82.94
935.443	91.08
935.613	69.96
935.783	91.85
935.953	61.05
936.123	209.07
936.294	80.61
936.464	70.35
936.634	101.35
936.804	34.12
936.974	23.07
937.144	84.49
937.314	85.26
937.484	54.85
937.655	39.54
937.825	122.66
937.995	56.01
938.165	134.67
938.334	78.29
938.504	95.15
938.674	75.38
938.844	102.9
939.014	135.45
939.184	143.97
939.354	190.66
939.524	178.84
939.694	162.76
939.863	130.02
940.033	187.76
940.203	200.54
940.373	169.16
940.542	184.27
940.712	159.47
940.882	187.18
941.051	188.53
941.221	159.47
941.391	159.86
941.56	128.28
941.73	107.16
941.899	251.11
942.069	137.19
942.238	139.71
942.408	126.53
942.577	158.5
942.747	121.88
942.916	69.57
943.086	116.26
943.255	159.86
943.425	151.14
943.594	108.13
943.763	44.77
943.933	82.16
944.102	37.41
944.271	113.36
944.441	128.47
944.61	91.85
944.779	106
944.948	212.94
945.117	67.44
945.287	69.38
945.456	36.25
945.625	66.28
945.794	120.72
945.963	71.51
946.132	118.98
946.301	61.43
946.47	124.21
946.639	38.18
946.808	100.96
946.977	131.96
947.146	141.06
947.315	102.9
947.484	138.16
947.653	87.4
947.822	60.85
947.991	62.6
948.16	154.24
948.329	156.56
948.498	121.5
948.666	97.47
948.835	89.33
949.004	61.24
949.173	53.68
949.341	113.75
949.51	113.55
949.679	137.38
949.847	121.11
950.016	169.16
950.185	154.05
950.353	93.4
950.522	106
950.69	131.18
950.859	110.45
951.028	163.73
951.196	125.76
951.365	102.31
951.533	95.73
951.701	125.76
951.87	125.95
952.038	60.27
952.207	92.05
952.375	152.69
952.543	91.08
952.712	118.59
952.88	67.25
953.048	164.51
953.217	117.23
953.385	76.16
953.553	149.78
953.721	66.28
953.89	111.03
954.058	51.17
954.226	73.83
954.394	89.33
954.562	42.06
954.73	96.7
954.898	83.52
955.067	149.01
955.235	62.4
955.403	143.58
955.571	155.21
955.739	108.9
955.907	69.57
956.075	74.22
956.243	39.54
956.41	113.94
956.578	77.9
956.746	37.6
956.914	96.5
957.082	142.81
957.25	118.01
957.418	99.21
957.585	103.28
957.753	146.88
957.921	37.22
958.089	91.66
958.256	119.36
958.424	131.96
958.592	115.3
958.759	83.13
958.927	106.58
959.095	75.38
959.262	89.72
959.43	106.38
959.597	72.67
959.765	102.9
959.932	40.51
960.1	149.98
960.267	106.58
960.435	97.08
960.602	150.95
960.77	95.34
960.937	41.87
961.104	118.4
961.272	60.27
961.439	86.43
961.606	124.21
961.774	115.3
961.941	95.92
962.108	112
962.275	71.51
962.443	137.96
962.61	98.44
962.777	153.66
962.944	148.23
963.111	143.78
963.278	131.96
963.446	115.3
963.613	104.06
963.78	134.48
963.947	119.75
964.114	97.08
964.281	195.31
964.448	96.7
964.615	88.75
964.782	119.56
964.949	161.99
965.116	133.12
965.282	165.28
965.449	107.16
965.616	93.4
965.783	157.73
965.95	126.92
966.117	82.55
966.283	110.26
966.45	130.41
966.617	130.99
966.784	167.61
966.95	132.35
967.117	159.47
967.284	108.13
967.45	96.5
967.617	164.7
967.784	152.11
967.95	171.09
968.117	113.16
968.283	144.16
968.45	242.59
968.616	137.96
968.783	184.46
968.949	139.71
969.116	180.98
969.282	111.61
969.449	130.21
969.615	112.58
969.781	77.32
969.948	101.54
970.114	90.11
970.28	186.98
970.447	130.8
970.613	178.07
970.779	134.48
970.945	151.14
971.112	119.75
971.278	110.84
971.444	124.79
971.61	154.63
971.776	96.7
971.942	151.53
972.108	140.29
972.275	115.68
972.441	145.91
972.607	168.58
972.773	93.98
972.939	124.21
973.105	106.58
973.271	86.81
973.437	113.94
973.602	126.15
973.768	153.66
973.934	87.78
974.1	129.44
974.266	58.33
974.432	132.15
974.598	93.79
974.763	158.5
974.929	109.48
975.095	160.25
975.261	74.22
975.426	79.45
975.592	80.81
975.758	159.08
975.923	51.75
976.089	95.34
976.255	146.3
976.42	130.41
976.586	111.81
976.751	109.87
976.917	179.81
977.082	137.19
977.248	89.14
977.413	51.17
977.579	87.59
977.744	119.36
977.91	69.18
978.075	97.28
978.24	134.28
978.406	68.22
978.571	80.61
978.736	91.85
978.902	118.59
979.067	67.83
979.232	52.52
979.397	105.61
979.563	168.58
979.728	64.34
979.893	113.75
980.058	102.12
980.223	146.49
980.388	90.88
980.554	125.18
980.719	69.38
980.884	161.21
981.049	132.35
981.214	76.93
981.379	114.13
981.544	77.52
981.709	88.17
981.874	88.36
982.039	114.33
982.204	140.1
982.368	72.87
982.533	95.15
982.698	121.5
982.863	139.9
983.028	83.33
983.193	118.78
983.357	105.03
983.522	100.96
983.687	95.73
983.852	79.26
984.016	90.88
984.181	113.16
984.346	123.43
984.51	130.99
984.675	101.15
984.839	128.66
985.004	108.9
985.168	123.24
985.333	122.66
985.498	73.25
985.662	115.3
985.827	129.25
985.991	102.9
986.155	93.01
986.32	91.66
986.484	192.41
986.649	100.76
986.813	54.85
986.977	100.96
987.142	120.14
987.306	61.63
987.47	79.84
987.634	93.6
987.799	108.71
987.963	106
988.127	122.08
988.291	180.01
988.455	105.8
988.62	97.47
988.784	107.55
988.948	136.8
989.112	90.5
989.276	100.38
989.44	107.93
989.604	56.98
989.768	78.29
989.932	168.77
990.096	42.83
990.26	56.4
990.424	17.65
990.588	93.21
990.752	140.87
990.915	111.61
991.079	75.97
991.243	82.16
991.407	131.76
991.571	54.65
991.734	106.19
991.898	116.46
992.062	184.85
992.226	104.64
992.389	49.42
992.553	49.03
992.717	60.27
992.88	75.97
993.044	93.01
993.207	81.78
993.371	123.05
993.535	100.18
993.698	87.98
993.862	124.01
994.025	121.11
994.189	76.93
994.352	87.4
994.515	86.43
994.679	106.58
994.842	107.74
995.006	129.63
995.169	49.81
995.332	77.71
995.496	88.75
995.659	53.3
995.822	83.13
995.985	50.97
996.149	108.9
996.312	88.75
996.475	132.54
996.638	32.57
996.801	145.33
996.964	153.85
997.128	80.23
997.291	43.61
997.454	84.88
997.617	51.36
997.78	121.3
997.943	74.42
998.106	101.93
998.269	24.43
998.432	68.22
998.595	85.26
998.758	14.74
998.92	23.27
999.083	8.54
999.246	76.16
999.409	5.63
999.572	12.42
999.735	47.29
999.897	66.67
1000.06	62.79
1000.223	85.85
1000.386	86.62
1000.548	95.15
1000.711	56.78
1000.874	89.53
1001.036	19.2
1001.199	109.68
1001.361	39.54
1001.524	22.68
1001.687	102.7
1001.849	37.02
1002.012	87.01
1002.174	69.18
1002.337	85.46
1002.499	67.25
1002.661	113.75
1002.824	37.99
1002.986	39.54
1003.149	62.6
1003.311	29.47
1003.473	120.14
1003.636	58.72
1003.798	53.1
1003.96	74.8
1004.123	39.54
1004.285	38.57
1004.447	69.38
1004.609	45.16
1004.771	66.67
1004.933	9.51
1005.096	21.13
1005.258	-12.19
1005.42	30.24
1005.582	96.31
1005.744	100.38
1005.906	8.73
1006.068	54.46
1006.23	13.77
1006.392	3.12
1006.554	18.62
1006.716	80.42
1006.878	63.76
1007.04	6.8
1007.202	23.46
1007.363	57.95
1007.525	35.47
1007.687	79.45
1007.849	64.73
1008.011	-5.22
1008.172	-3.47
1008.334	39.93
1008.496	69.38
1008.658	-37.38
1008.819	24.82
1008.981	5.44
1009.143	14.55
1009.304	33.73
1009.466	67.83
1009.627	93.6
1009.789	139.13
1009.95	50
1010.112	6.6
1010.273	48.26
1010.435	10.48
1010.596	19
1010.758	16.48
1010.919	3.31
1011.081	14.16
1011.242	43.42
1011.403	47.68
1011.565	35.08
1011.726	58.33
1011.887	7.57
1012.049	10.09
1012.21	66.28
1012.371	118.78
1012.532	-24.2
1012.693	35.86
1012.855	30.05
1013.016	32.76
1013.177	71.12
1013.338	28.88
1013.499	128.47
1013.66	86.43
1013.821	82.94
1013.982	38.57
1014.143	30.82
1014.304	0.21
1014.465	50.78
1014.626	46.52
1014.787	32.95
1014.948	110.45
1015.109	-33.11
1015.27	66.67
1015.431	-13.93
1015.592	-2.31
1015.752	86.81
1015.913	56.78
1016.074	32.95
1016.235	44.97
1016.395	31.21
1016.556	25.4
1016.717	22.3
1016.877	84.3
1017.038	16.87
1017.199	22.88
1017.359	41.48
1017.52	37.41
1017.681	0.79
1017.841	39.54
1018.002	22.88
1018.162	9.32
1018.323	87.59
1018.483	9.12
1018.644	15.52
1018.804	-18.39
1018.964	-0.18
1019.125	3.12
1019.285	28.11
1019.446	-1.92
1019.606	8.73
1019.766	-36.6
1019.926	61.43
1020.087	39.15
1020.247	-25.95
1020.407	29.27
1020.567	56.4
1020.728	1.95
1020.888	1.57
1021.048	-16.06
1021.208	-1.34
1021.368	11.06
1021.528	51.94
1021.688	40.51
1021.848	35.86
1022.008	57.37
1022.168	16.87
1022.328	32.57
1022.488	40.12
1022.648	-11.03
1022.808	5.63
1022.968	37.22
1023.128	14.74
1023.288	2.53
1023.448	37.99
1023.608	29.85
1023.767	48.84
1023.927	9.9
1024.087	-15.87
1024.247	16.1
1024.406	-6.18
1024.566	-28.85
1024.726	-3.86
1024.885	48.45
1025.045	63.18
1025.205	13.38
1025.364	5.63
1025.524	30.43
1025.683	7.96
1025.843	41.48
1026.003	7.38
1026.162	72.67
1026.321	57.37
1026.481	53.49
1026.64	29.47
1026.8	28.5
1026.959	-16.06
1027.119	28.11
1027.278	-12.38
1027.437	-9.67
1027.597	45.55
1027.756	33.34
1027.915	40.7
1028.074	42.25
1028.234	-46.48
1028.393	13
1028.552	30.24
1028.711	-38.73
1028.87	45.74
1029.03	-16.26
1029.189	24.62
1029.348	-64.31
1029.507	-24.4
1029.666	7.18
1029.825	-21.88
1029.984	1.37
1030.143	38.77
1030.302	0.79
1030.461	-40.28
1030.62	22.49
1030.779	17.84
1030.938	-17.42
1031.097	-39.31
1031.255	30.82
1031.414	83.91
1031.573	45.74
1031.732	-16.84
1031.891	20.17
1032.049	71.12
1032.208	29.27
1032.367	-19.75
1032.525	14.55
1032.684	-22.46
1032.843	36.63
1033.001	-45.9
1033.16	157.92
1033.319	56.98
1033.477	29.08
1033.636	-1.15
1033.794	-24.78
1033.953	31.79
1034.111	39.73
1034.27	-26.91
1034.428	22.3
1034.587	-10.45
1034.745	19.78
1034.903	36.83
1035.062	29.47
1035.22	-19.16
1035.378	52.72
1035.537	-15.87
1035.695	51.36
1035.853	13
1036.011	18.81
1036.17	35.67
1036.328	-45.32
1036.486	-7.54
1036.644	13.97
1036.802	-53.07
1036.96	-23.62
1037.119	-28.27
1037.277	-11.41
1037.435	-17.23
1037.593	-37.18
1037.751	-4.25
1037.909	17.45
1038.067	17.45
