Data from gum_old_FLMT105791__115__15-46-04-253.txt Node

Date: Mon Mar 20 15:46:04 GMT 2023
User: antho
Spectrometer: FLMT10579
Trigger mode: 0
Integration Time (sec): 1.000000E-1
Scans to average: 10
Electric dark correction enabled: true
Nonlinearity correction enabled: false
Boxcar width: 0
XAxis mode: Wavelengths
Number of Pixels in Spectrum: 3648
>>>>>Begin Spectral Data<<<<<
345.248	-196.77
345.464	-196.77
345.681	-196.77
345.898	-192.5
346.114	-180.69
346.331	-61.34
346.548	30.11
346.764	11.9
346.981	-1.28
347.197	-21.43
347.414	23.33
347.631	-25.69
347.847	70.99
348.064	4.15
348.28	25.27
348.497	-52.81
348.713	-3.21
348.93	39.99
349.146	18.1
349.363	-0.69
349.579	23.91
349.796	5.12
350.012	14.03
350.229	23.72
350.445	14.42
350.661	-1.47
350.878	15.19
351.094	23.33
351.311	13.26
351.527	35.92
351.743	4.54
351.96	28.17
352.176	67.12
352.392	43.29
352.609	27.21
352.825	15.58
353.041	19.84
353.257	8.61
353.474	20.42
353.69	14.22
353.906	39.8
354.122	8.99
354.339	88.04
354.555	37.28
354.771	3.76
354.987	67.12
355.203	74.29
355.42	4.54
355.636	1.44
355.852	5.7
356.068	33.99
356.284	-3.79
356.5	72.54
356.716	31.47
356.932	5.12
357.148	71.96
357.364	24.11
357.58	76.22
357.796	85.33
358.012	80.87
358.228	34.18
358.444	-52.23
358.66	67.12
358.876	41.93
359.092	5.12
359.308	25.66
359.524	66.34
359.74	10.35
359.956	3.96
360.172	7.64
360.388	72.93
360.604	22.75
360.819	113.81
361.035	45.42
361.251	48.91
361.467	14.03
361.683	70.02
361.898	38.83
362.114	66.92
362.33	24.11
362.546	58.2
362.762	41.93
362.977	41.54
363.193	4.15
363.409	73.7
363.624	-12.51
363.84	-2.44
364.056	-6.7
364.271	50.65
364.487	53.94
364.703	20.04
364.918	-0.69
365.134	24.88
365.35	35.34
365.565	136.67
365.781	46.77
365.996	90.75
366.212	110.9
366.427	58.98
366.643	15.77
366.858	40.77
367.074	-0.31
367.289	92.5
367.505	143.84
367.72	-7.48
367.936	43.48
368.151	89.79
368.367	68.28
368.582	39.41
368.798	63.24
369.013	113.81
369.228	59.75
369.444	47.55
369.659	72.54
369.874	60.72
370.09	114
370.305	14.03
370.52	27.98
370.736	84.36
370.951	40.38
371.166	88.82
371.381	111.29
371.597	120.79
371.812	30.5
372.027	47.94
372.242	40.57
372.458	117.49
372.673	32.63
372.888	45.81
373.103	73.32
373.318	145
373.533	82.23
373.749	77.58
373.964	9.38
374.179	98.89
374.394	43.48
374.609	108.97
374.824	24.11
375.039	113.81
375.254	24.11
375.469	127.57
375.684	74.67
375.899	99.09
376.114	46.97
376.329	44.64
376.544	108.19
376.759	78.74
376.974	44.84
377.189	43.87
377.404	44.26
377.619	105.09
377.834	29.34
378.049	14.22
378.264	23.14
378.478	73.51
378.693	58.79
378.908	69.64
379.123	69.25
379.338	122.34
379.553	112.26
379.767	80.68
379.982	92.11
380.197	101.8
380.412	71.57
380.626	90.37
380.841	168.83
381.056	103.54
381.271	138.8
381.485	52.97
381.7	41.16
381.915	98.7
382.129	43.29
382.344	90.37
382.559	39.61
382.773	102.38
382.988	1.24
383.202	94.44
383.417	23.52
383.632	176.2
383.846	47.94
384.061	73.51
384.275	25.46
384.49	107.03
384.704	80.87
384.919	93.66
385.133	79.52
385.348	82.62
385.562	33.6
385.777	107.8
385.991	92.11
386.206	60.72
386.42	46.39
386.634	114.78
386.849	72.35
387.063	77
387.277	50.07
387.492	46.19
387.706	46
387.92	48.13
388.135	106.25
388.349	115.17
388.563	81.65
388.778	90.17
388.992	88.62
389.206	94.63
389.42	174.26
389.635	83.59
389.849	132.41
390.063	124.08
390.277	107.61
390.491	176.97
390.706	118.65
390.92	132.41
391.134	100.44
391.348	145.78
391.562	47.55
391.776	134.74
391.99	88.62
392.205	131.83
392.419	70.02
392.633	100.25
392.847	161.47
393.061	91.92
393.275	144.62
393.489	82.23
393.703	77.58
393.917	120.2
394.131	78.94
394.345	98.7
394.559	121.37
394.773	85.72
394.986	124.27
395.2	105.67
395.414	148.3
395.628	113.04
395.842	129.5
396.056	98.7
396.27	65.37
396.484	122.53
396.697	117.49
396.911	151.59
397.125	107.22
397.339	116.14
397.553	96.18
397.766	191.12
397.98	162.44
398.194	161.67
398.408	124.27
398.621	161.47
398.835	173.29
399.049	167.48
399.262	221.15
399.476	212.82
399.69	179.68
399.903	232.96
400.117	158.95
400.331	204.1
400.544	123.69
400.758	302.13
400.971	182.4
401.185	230.83
401.398	176.78
401.612	245.36
401.826	222.89
402.039	203.9
402.253	201.77
402.466	255.83
402.68	212.43
402.893	203.32
403.106	247.69
403.32	203.13
403.533	249.05
403.747	203.9
403.96	209.52
404.174	235.48
404.387	164.38
404.6	214.37
404.814	267.26
405.027	216.88
405.24	210.3
405.454	183.37
405.667	268.42
405.88	148.1
406.094	211.27
406.307	229.86
406.52	219.79
406.733	178.91
406.947	196.15
407.16	266.48
407.373	264.93
407.586	157.21
407.799	187.43
408.012	258.35
408.226	234.71
408.439	290.51
408.652	172.9
408.865	249.82
409.078	311.82
409.291	284.89
409.504	210.3
409.717	276.75
409.93	253.89
410.143	262.41
410.357	163.41
410.57	183.37
410.783	198.28
410.996	251.56
411.209	221.92
411.421	305.81
411.634	280.43
411.847	219.79
412.06	281.21
412.273	270.55
412.486	263.77
412.699	358.32
412.912	261.06
413.125	289.35
413.338	260.09
413.55	312.21
413.763	261.06
413.976	279.27
414.189	242.07
414.402	264.74
414.615	311.82
414.827	215.14
415.04	278.3
415.253	283.53
415.466	312.01
415.678	366.26
415.891	299.23
416.104	291.86
416.316	276.75
416.529	244.2
416.742	287.99
416.954	294.96
417.167	285.28
417.38	271.13
417.592	311.24
417.805	232
418.017	234.51
418.23	306.01
418.442	281.21
418.655	266.68
418.868	267.65
419.08	318.21
419.293	322.67
419.505	301.16
419.718	313.76
419.93	337.78
420.142	261.83
420.355	346.69
420.567	350.76
420.78	304.46
420.992	290.12
421.205	335.84
421.417	263.77
421.629	298.65
421.842	287.41
422.054	245.36
422.266	344.37
422.479	346.5
422.691	277.53
422.903	330.61
423.115	261.06
423.328	283.15
423.54	305.62
423.752	296.13
423.964	277.53
424.177	328.68
424.389	315.89
424.601	435.43
424.813	324.41
425.025	351.34
425.238	363.55
425.45	301.36
425.662	280.05
425.874	633.63
426.086	312.21
426.298	332.36
426.51	340.49
426.722	320.93
426.934	300.58
427.146	346.11
427.358	275.78
427.57	330.23
427.782	323.25
427.994	307.75
428.206	281.79
428.418	296.51
428.63	343.79
428.842	367.43
429.054	335.46
429.266	358.13
429.478	292.06
429.69	335.26
429.902	273.65
430.114	336.43
430.325	319.18
430.537	281.98
430.749	266.87
430.961	221.15
431.173	240.33
431.384	277.53
431.596	223.47
431.808	294.96
432.02	332.55
432.231	356.96
432.443	383.12
432.655	354.25
432.867	347.86
433.078	372.27
433.29	411.41
433.502	379.24
433.713	407.72
433.925	380.02
434.136	428.65
434.348	316.28
434.56	291.67
434.771	442.21
434.983	305.81
435.194	342.63
435.406	402.69
435.617	407.92
435.829	436.79
436.04	398.43
436.252	424.19
436.463	439.31
436.675	431.94
436.886	433.69
437.098	430.97
437.309	508.28
437.521	431.75
437.732	439.31
437.943	421.29
438.155	424.97
438.366	360.06
438.578	466.82
438.789	396.49
439	405.98
439.211	378.08
439.423	392.42
439.634	402.88
439.845	401.14
440.057	414.12
440.268	503.44
440.479	428.07
440.69	462.94
440.902	428.07
441.113	423.22
441.324	422.45
441.535	466.62
441.746	498.4
441.957	417.99
442.168	444.34
442.38	479.41
442.591	491.81
442.802	442.6
443.013	445.7
443.224	504.21
443.435	494.91
443.646	474.76
443.857	484.64
444.068	443.37
444.279	454.03
444.49	554.2
444.701	502.85
444.912	597.98
445.123	524.36
445.334	509.05
445.545	492.59
445.756	490.26
445.967	448.41
446.178	487.16
446.388	519.9
446.599	484.45
446.81	512.35
447.021	447.44
447.232	512.35
447.443	527.07
447.653	497.43
447.864	541.22
448.075	516.8
448.286	530.37
448.496	525.14
448.707	561.37
448.918	497.62
449.129	583.65
449.339	491.42
449.55	547.61
449.761	536.57
449.971	561.75
450.182	540.44
450.393	532.3
450.603	482.9
450.814	570.28
451.024	574.74
451.235	581.52
451.446	655.92
451.656	608.25
451.867	528.82
452.077	559.04
452.288	624.92
452.498	593.72
452.709	555.75
452.919	573.38
453.13	501.11
453.34	582.29
453.55	478.64
453.761	591.98
453.971	551.1
454.182	574.54
454.392	565.82
454.602	640.22
454.813	556.91
455.023	603.6
455.233	511.57
455.444	571.05
455.654	463.14
455.864	538.31
456.075	537.34
456.285	530.17
456.495	560.2
456.705	565.63
456.916	636.15
457.126	643.32
457.336	602.63
457.546	495.1
457.756	570.67
457.967	612.32
458.177	536.37
458.387	592.17
458.597	544.51
458.807	581.71
459.017	578.22
459.227	564.08
459.437	563.5
459.647	592.56
459.857	603.6
460.068	569.31
460.278	641
460.488	572.6
460.698	637.32
460.908	589.65
461.117	548
461.327	564.08
461.537	618.52
461.747	632.08
461.957	595.66
462.167	709.39
462.377	637.12
462.587	614.84
462.797	670.06
463.007	594.88
463.216	641.19
463.426	676.84
463.636	664.44
463.846	589.85
464.056	589.27
464.265	664.05
464.475	609.42
464.685	633.05
464.895	626.85
465.104	615.23
465.314	642.16
465.524	599.53
465.733	613.87
465.943	693.5
466.153	647.2
466.362	674.13
466.572	657.27
466.782	634.41
466.991	657.47
467.201	687.11
467.41	570.47
467.62	660.95
467.829	647
468.039	660.37
468.249	632.08
468.458	663.47
468.668	697.76
468.877	696.6
469.086	704.55
469.296	697.76
469.505	652.04
469.715	750.85
469.924	701.45
470.134	767.32
470.343	759.57
470.552	669.67
470.762	680.33
470.971	610.77
471.18	674.32
471.39	687.3
471.599	653.2
471.808	720.63
472.018	689.63
472.227	788.44
472.436	768.09
472.645	729.93
472.855	702.22
473.064	783.59
473.273	774.68
473.482	744.46
473.691	796.19
473.901	771.39
474.11	734.19
474.319	829.71
474.528	745.23
474.737	847.92
474.946	765.38
475.155	806.65
475.364	832.81
475.573	797.74
475.783	800.06
475.992	858.96
476.201	850.63
476.41	823.12
476.619	772.94
476.828	800.45
477.037	790.96
477.245	810.53
477.454	864.19
477.663	824.48
477.872	832.03
478.081	926.77
478.29	835.91
478.499	983.93
478.708	899.46
478.917	958.74
479.125	859.93
479.334	888.61
479.543	914.37
479.752	926.19
479.961	870.97
480.169	978.89
480.378	899.26
480.587	1048.64
480.796	985.09
481.004	947.12
481.213	958.16
481.422	949.83
481.63	986.45
481.839	983.35
482.048	1043.99
482.256	988.19
482.465	1016.87
482.674	1023.45
482.882	1007.57
483.091	1062.4
483.299	996.72
483.508	1032.95
483.716	1041.08
483.925	1053.48
484.134	979.28
484.342	986.45
484.551	1066.08
484.759	1031.98
484.967	1078.87
485.176	1064.53
485.384	1083.32
485.593	1079.64
485.801	1071.89
486.01	1038.76
486.218	982.38
486.426	914.76
486.635	927.16
486.843	887.44
487.051	947.89
487.26	944.99
487.468	1010.86
487.676	1005.63
487.885	1003.89
488.093	1064.14
488.301	1079.83
488.509	1077.32
488.717	1087
488.926	1062.4
489.134	1105.21
489.342	1106.18
489.55	1011.44
489.758	1097.27
489.967	1072.67
490.175	1220.11
490.383	1089.52
490.591	1203.06
490.799	1069.37
491.007	1204.8
491.215	1165.47
491.423	1127.5
491.631	1178.45
491.839	1155.4
492.047	1188.14
492.255	1119.36
492.463	1089.13
492.671	1110.25
492.879	1159.08
493.087	1145.9
493.295	1161.6
493.503	1190.66
493.711	1218.94
493.919	1243.55
494.127	1231.93
494.334	1255.18
494.542	1162.56
494.75	1198.99
494.958	1214.68
495.166	1243.55
495.374	1243.36
495.581	1283.07
495.789	1264.67
495.997	1289.47
496.205	1239.48
496.412	1250.33
496.62	1250.14
496.828	1248.2
497.035	1258.47
497.243	1290.24
497.451	1267.19
497.658	1281.52
497.866	1239.29
498.074	1346.62
498.281	1254.4
498.489	1351.66
498.696	1274.94
498.904	1242.78
499.112	1247.23
499.319	1311.17
499.527	1278.81
499.734	1344.88
499.942	1228.83
500.149	1225.73
500.357	1288.5
500.564	1230.18
500.771	1271.45
500.979	1223.21
501.186	1240.06
501.394	1252.08
501.601	1227.86
501.808	1283.46
502.016	1257.31
502.223	1247.81
502.43	1258.66
502.638	1246.84
502.845	1251.88
503.052	1321.24
503.26	1274.36
503.467	1358.06
503.674	1305.55
503.881	1303.22
504.089	1354.57
504.296	1323.18
504.503	1240.45
504.71	1286.37
504.917	1276.49
505.125	1273.39
505.332	1315.04
505.539	1321.44
505.746	1407.46
505.953	1379.37
506.16	1367.35
506.367	1396.03
506.574	1468.3
506.781	1415.6
506.988	1359.22
507.195	1386.34
507.402	1359.02
507.609	1404.36
507.816	1372
508.023	1371.62
508.23	1304
508.437	1307.49
508.644	1367.35
508.851	1353.99
509.058	1408.04
509.265	1368.9
509.472	1408.62
509.679	1466.55
509.885	1425.48
510.092	1430.52
510.299	1405.72
510.506	1407.27
510.713	1381.89
510.92	1401.26
511.126	1435.36
511.333	1450.86
511.54	1440.98
511.746	1469.85
511.953	1504.14
512.16	1519.45
512.367	1475.08
512.573	1459
512.78	1459.58
512.987	1481.08
513.193	1458.03
513.4	1347.59
513.606	1436.14
513.813	1447.57
514.02	1435.17
514.226	1473.14
514.433	1496.39
514.639	1362.12
514.846	1437.88
515.052	1387.12
515.259	1448.15
515.465	1464.81
515.672	1450.86
515.878	1527.78
516.085	1480.31
516.291	1519.64
516.497	1471.4
516.704	1460.16
516.91	1419.47
517.117	1366.77
517.323	1302.84
517.529	1319.5
517.736	1324.15
517.942	1337.91
518.148	1367.74
518.354	1401.07
518.561	1423.93
518.767	1430.71
518.973	1442.92
519.179	1455.12
519.386	1438.27
519.592	1436.33
519.798	1435.94
520.004	1551.22
520.21	1512.47
520.417	1553.93
520.623	1582.03
520.829	1584.93
521.035	1599.27
521.241	1558
521.447	1625.23
521.653	1722.69
521.859	1638.99
522.065	1654.88
522.271	1728.11
522.477	1686.46
522.683	1748.84
522.889	1703.12
523.095	1653.33
523.301	1657.78
523.507	1626.2
523.713	1665.14
523.919	1617.1
524.125	1749.04
524.331	1701.96
524.537	1768.99
524.742	1811.23
524.948	1767.06
525.154	1778.29
525.36	1874.59
525.566	1784.69
525.772	1890.08
525.977	1759.89
526.183	1802.7
526.389	1861.41
526.595	1768.61
526.8	1792.05
527.006	1704.28
527.212	1636.86
527.417	1655.84
527.623	1639.57
527.829	1691.69
528.034	1721.72
528.24	1777.91
528.446	1764.15
528.651	1837.77
528.857	1884.27
529.062	1920.7
529.268	1870.9
529.473	1868.39
529.679	1896.28
529.884	2001.1
530.09	1951.89
530.295	1998
530.501	1953.25
530.706	1934.84
530.912	1908.3
531.117	1956.54
531.323	1960.8
531.528	2016.6
531.733	2020.67
531.939	1957.32
532.144	2011.37
532.35	2010.79
532.555	2008.27
532.76	2002.46
532.966	1973.4
533.171	1945.69
533.376	1906.17
533.581	1866.06
533.787	1959.25
533.992	2014.47
534.197	2026.48
534.402	1979.21
534.607	2001.49
534.813	2099.91
535.018	1984.83
535.223	2012.53
535.428	2011.18
535.633	2036.36
535.838	2086.54
536.043	2072.4
536.249	2184.77
536.454	2092.74
536.659	2109.6
536.864	2079.38
537.069	2056.13
537.274	2086.54
537.479	2066.59
537.684	2056.51
537.889	2025.13
538.094	2146.22
538.299	2075.69
538.504	2080.15
538.708	2119.48
538.913	2123.55
539.118	2073.56
539.323	2139.44
539.528	2056.13
539.733	2059.23
539.938	2090.81
540.142	2088.87
540.347	2068.72
540.552	2041.98
540.757	2013.31
540.962	2050.9
541.166	1964.87
541.371	1985.41
541.576	2033.26
541.781	1923.99
541.985	2098.94
542.19	2081.89
542.395	2141.38
542.599	2155.71
542.804	2130.53
543.008	2190.78
543.213	2070.66
543.418	2083.25
543.622	2101.27
543.827	2060.39
544.031	2133.82
544.236	2160.56
544.44	2126.26
544.645	2251.81
544.849	2128.59
545.054	2165.98
545.258	2236.5
545.463	2228.76
545.667	2108.24
545.872	2177.99
546.076	2151.84
546.281	2182.06
546.485	2099.33
546.689	2175.09
546.894	2203.57
547.098	2148.74
547.302	2142.15
547.507	2174.7
547.711	2178.19
547.915	2209.38
548.119	2130.33
548.324	2134.01
548.528	2189.42
548.732	2131.11
548.936	2179.54
549.141	2184.39
549.345	2190.2
549.549	2204.15
549.753	2190.97
549.957	2252.97
550.161	2271.77
550.366	2202.02
550.57	2198.34
550.774	2208.41
550.978	2191.56
551.182	2202.02
551.386	2175.47
551.59	2171.99
551.794	2163.27
551.998	2170.82
552.202	2197.76
552.406	2148.35
552.61	2250.26
552.814	2210.54
553.018	2221.59
553.222	2185.74
553.426	2185.16
553.63	2293.47
553.833	2128.59
554.037	2119.29
554.241	2194.66
554.445	2180.32
554.649	2184.77
554.853	2156.1
555.056	2211.71
555.26	2283.2
555.464	2201.63
555.668	2207.25
555.871	2232.24
556.075	2242.51
556.279	2153.97
556.483	2172.57
556.686	2154.16
556.89	2175.09
557.094	2159.01
557.297	2080.34
557.501	2162.49
557.704	2048.38
557.908	2149.9
558.112	2077.05
558.315	2181.29
558.519	2124.13
558.722	2112.12
558.926	2083.64
559.129	2024.55
559.333	2012.73
559.536	2026.1
559.74	2003.23
559.943	2041.4
560.147	1985.6
560.35	2062.71
560.553	2027.84
560.757	1966.62
560.96	2099.72
561.164	2041.6
561.367	2153.77
561.57	2042.37
561.774	2072.79
561.977	2041.79
562.18	2013.5
562.384	2116.58
562.587	2039.85
562.79	2024.55
562.993	1988.31
563.197	2054.96
563.4	2110.57
563.603	2086.16
563.806	2123.16
564.009	1992.58
564.212	2036.95
564.416	1947.82
564.619	2018.15
564.822	1963.9
565.025	2060.58
565.228	1972.62
565.431	1998.78
565.634	1889.89
565.837	1949.76
566.04	1922.63
566.243	1903.07
566.446	1832.74
566.649	1957.7
566.852	1868.77
567.055	1873.81
567.258	1936
567.461	2008.66
567.664	1960.61
567.867	1834.29
568.07	1924.77
568.273	1897.45
568.475	1932.13
568.678	1878.46
568.881	1867.03
569.084	1869.94
569.287	1779.46
569.489	1804.06
569.692	1857.34
569.895	1871.1
570.098	1772.48
570.3	1785.07
570.503	1751.17
570.706	1748.26
570.909	1773.84
571.111	1716.68
571.314	1697.31
571.516	1713.39
571.719	1781.2
571.922	1753.69
572.124	1698.28
572.327	1756.59
572.529	1691.11
572.732	1715.71
572.935	1766.67
573.137	1843
573.34	1736.06
573.542	1787.98
573.745	1744.97
573.947	1751.17
574.15	1733.34
574.352	1708.93
574.554	1788.37
574.757	1698.86
574.959	1670.18
575.162	1695.37
575.364	1705.25
575.566	1749.04
575.769	1657.39
575.971	1668.44
576.173	1558.58
576.376	1654.68
576.578	1682
576.78	1743.42
576.982	1599.27
577.185	1637.05
577.387	1612.25
577.589	1620.78
577.791	1696.53
577.993	1687.04
578.196	1651.78
578.398	1688.2
578.6	1662.63
578.802	1555.68
579.004	1561.49
579.206	1570.4
579.408	1623.88
579.61	1592.88
579.812	1653.52
580.014	1589.97
580.216	1566.53
580.418	1538.63
580.62	1541.15
580.822	1550.25
581.024	1588.61
581.226	1608.76
581.428	1563.81
581.63	1651
581.832	1581.83
582.034	1592.68
582.236	1566.72
582.438	1582.8
582.64	1625.81
582.841	1634.14
583.043	1664.18
583.245	1614.19
583.447	1594.43
583.649	1560.33
583.85	1580.48
584.052	1604.5
584.254	1541.53
584.456	1559.36
584.657	1544.44
584.859	1587.65
585.061	1535.53
585.262	1494.07
585.464	1518.09
585.666	1600.82
585.867	1530.49
586.069	1583.58
586.27	1574.08
586.472	1501.23
586.674	1512.08
586.875	1504.33
587.077	1488.06
587.278	1518.09
587.48	1503.75
587.681	1643.25
587.883	1517.9
588.084	1496
588.285	1453.38
588.487	1467.72
588.688	1465.2
588.89	1418.7
589.091	1398.74
589.292	1415.79
589.494	1370.26
589.695	1336.74
589.896	1279.97
590.098	1285.01
590.299	1318.53
590.5	1320.86
590.702	1308.46
590.903	1342.36
591.104	1431.1
591.305	1365.03
591.507	1462.68
591.708	1424.12
591.909	1395.45
592.11	1450.47
592.311	1421.8
592.512	1403.39
592.714	1365.42
592.915	1388.09
593.116	1341.59
593.317	1403.59
593.518	1382.85
593.719	1388.09
593.92	1399.9
594.121	1437.1
594.322	1408.24
594.523	1373.17
594.724	1358.83
594.925	1395.45
595.126	1379.56
595.327	1404.75
595.528	1423.35
595.729	1380.92
595.929	1358.64
596.13	1364.64
596.331	1420.64
596.532	1410.17
596.733	1449.5
596.934	1437.69
597.135	1416.37
597.335	1429.35
597.536	1360.19
597.737	1405.14
597.938	1360.19
598.138	1405.33
598.339	1380.34
598.54	1390.99
598.74	1373.94
598.941	1356.51
599.142	1447.57
599.342	1363.48
599.543	1343.14
599.744	1346.62
599.944	1364.64
600.145	1333.06
600.345	1365.8
600.546	1443.89
600.746	1429.55
600.947	1449.89
601.147	1377.04
601.348	1409.98
601.548	1316.98
601.749	1356.12
601.949	1332.09
602.15	1306.91
602.35	1338.1
602.551	1352.44
602.751	1297.22
602.951	1324.92
603.152	1286.76
603.352	1371.04
603.552	1323.57
603.753	1375.1
603.953	1359.8
604.153	1340.42
604.354	1353.41
604.554	1316.21
604.754	1337.71
604.954	1300.9
605.155	1358.06
605.355	1344.11
605.555	1373.36
605.755	1422.96
605.955	1359.61
606.155	1364.64
606.356	1335.58
606.556	1380.92
606.756	1353.99
606.956	1281.91
607.156	1376.27
607.356	1297.61
607.556	1353.99
607.756	1359.8
607.956	1388.86
608.156	1332.48
608.356	1285.98
608.556	1341.59
608.756	1311.56
608.956	1264.48
609.156	1311.17
609.356	1267.19
609.556	1303.03
609.755	1316.79
609.955	1256.92
610.155	1311.36
610.355	1287.53
610.555	1254.79
610.755	1289.66
610.954	1198.79
611.154	1300.9
611.354	1321.05
611.554	1254.59
611.753	1271.06
611.953	1210.03
612.153	1274.16
612.352	1305.16
612.552	1219.91
612.752	1205.58
612.951	1257.69
613.151	1249.17
613.351	1232.7
613.55	1223.4
613.75	1270.29
613.949	1230.38
614.149	1269.9
614.348	1215.65
614.548	1164.11
614.747	1170.31
614.947	1173.8
615.146	1142.22
615.346	1236.38
615.545	1212.36
615.745	1252.27
615.944	1260.79
616.144	1208.87
616.343	1261.38
616.542	1196.66
616.742	1215.46
616.941	1176.9
617.14	1128.66
617.34	1183.88
617.539	1176.51
617.738	1179.42
617.938	1212.16
618.137	1161.01
618.336	1143.38
618.535	1220.49
618.734	1201.51
618.934	1174.38
619.133	1182.52
619.332	1191.43
619.531	1164.11
619.73	1184.65
619.929	1203.64
620.128	1181.75
620.328	1246.07
620.527	1142.22
620.726	1149.78
620.925	1188.14
621.124	1174.77
621.323	1201.12
621.522	1126.53
621.721	1137.76
621.92	1115.1
622.119	1165.08
622.318	1138.73
622.517	1142.22
622.715	1107.35
622.914	1112.58
623.113	1107.54
623.312	1055.81
623.511	1132.92
623.71	1130.98
623.909	1106.38
624.107	1187.36
624.306	1060.65
624.505	1106.76
624.704	1087.39
624.902	1101.34
625.101	1183.88
625.3	1118.78
625.499	1074.8
625.697	1073.05
625.896	1035.27
626.095	1118
626.293	1037.21
626.492	1035.85
626.69	1095.92
626.889	1058.91
627.088	1099.6
627.286	1033.14
627.485	1076.54
627.683	1064.33
627.882	1110.64
628.08	1011.83
628.279	1061.04
628.477	1144.35
628.676	1054.07
628.874	1069.37
629.073	1053.1
629.271	1003.11
629.469	1096.5
629.668	1027.52
629.866	1031.59
630.065	1024.81
630.263	1057.55
630.461	1004.08
630.66	1039.34
630.858	1081.58
631.056	1094.56
631.254	1096.11
631.453	1012.22
631.651	1085.26
631.849	1026.17
632.047	1035.27
632.245	1038.76
632.444	1051.16
632.642	1057.94
632.84	1065.88
633.038	1001.56
633.236	1002.92
633.434	1011.83
633.632	1023.45
633.83	1016.28
634.028	1073.25
634.227	1038.95
634.425	1089.13
634.623	1014.15
634.821	1031.4
635.019	992.84
635.216	988.77
635.414	1036.24
635.612	999.04
635.81	1027.13
636.008	1058.91
636.206	972.69
636.404	1042.05
636.602	991.49
636.8	985.87
636.997	1036.63
637.195	1059.3
637.393	1030.23
637.591	1072.86
637.789	1011.05
637.986	974.63
638.184	1011.44
638.382	1041.67
638.58	1059.3
638.777	1109.28
638.975	989.35
639.173	1006.02
639.37	990.9
639.568	1015.32
639.765	1079.25
639.963	977.54
640.161	1029.46
640.358	1058.72
640.556	957
640.753	968.04
640.951	951.19
641.148	991.87
641.346	993.42
641.543	970.17
641.741	1002.92
641.938	940.53
642.136	986.64
642.333	934.33
642.531	1009.5
642.728	1041.86
642.925	973.47
643.123	958.35
643.32	974.82
643.517	950.99
643.715	962.23
643.912	930.26
644.109	957.77
644.306	954.48
644.504	911.47
644.701	965.91
644.898	1006.6
645.095	919.61
645.293	960.68
645.49	973.27
645.687	961.45
645.884	976.37
646.081	881.63
646.278	937.82
646.475	927.74
646.672	930.26
646.87	962.04
647.067	927.74
647.264	913.6
647.461	889.57
647.658	879.11
647.855	936.46
648.052	897.71
648.249	826.8
648.446	878.14
648.642	872.91
648.839	845.21
649.036	908.56
649.233	826.99
649.43	883.37
649.627	823.51
649.824	838.04
650.021	843.85
650.217	852.57
650.414	872.33
650.611	865.55
650.808	906.82
651.004	889.38
651.201	887.83
651.398	932.59
651.595	851.6
651.791	861.29
651.988	881.63
652.185	850.82
652.381	906.62
652.578	849.27
652.775	887.83
652.971	860.12
653.168	854.89
653.364	881.24
653.561	834.74
653.757	840.56
653.954	876.21
654.15	812.66
654.347	931.42
654.543	887.64
654.74	793.67
654.936	829.9
655.133	861.29
655.329	819.44
655.525	832.42
655.722	890.16
655.918	813.43
656.115	826.61
656.311	739.81
656.507	716.75
656.704	711.71
656.9	712.3
657.096	732.45
657.292	726.05
657.489	787.47
657.685	764.41
657.881	764.61
658.077	757.05
658.273	796.58
658.47	843.85
658.666	802.19
658.862	847.92
659.058	774.88
659.254	844.62
659.45	805.49
659.646	845.59
659.842	807.62
660.038	857.22
660.234	798.32
660.43	840.36
660.626	879.5
660.822	883.18
661.018	863.81
661.214	811.69
661.41	793.67
661.606	817.89
661.802	863.22
661.998	841.33
662.194	809.17
662.39	837.07
662.586	865.94
662.781	847.92
662.977	863.03
663.173	874.27
663.369	825.64
663.564	819.24
663.76	832.42
663.956	815.76
664.152	865.74
664.347	759.57
664.543	832.61
664.739	805.68
664.934	771.58
665.13	762.48
665.326	841.72
665.521	836.1
665.717	766.35
665.912	778.94
666.108	744.26
666.304	793.48
666.499	771.58
666.695	717.72
666.89	776.23
667.086	867.87
667.281	805.1
667.477	840.94
667.672	831.26
667.867	796.19
668.063	793.48
668.258	758.02
668.454	804.33
668.649	874.85
668.844	762.28
669.04	819.05
669.235	786.5
669.43	761.31
669.626	733.03
669.821	758.41
670.016	736.13
670.211	780.3
670.407	750.46
670.602	773.71
670.797	759.76
670.992	804.91
671.187	769.64
671.382	811.11
671.578	751.04
671.773	791.54
671.968	739.81
672.163	774.88
672.358	769.64
672.553	770.23
672.748	717.91
672.943	812.46
673.138	764.03
673.333	783.79
673.528	719.08
673.723	781.66
673.918	764.8
674.113	756.08
674.308	839.59
674.503	781.46
674.698	799.87
674.892	808.98
675.087	796.96
675.282	779.72
675.477	746.01
675.672	788.63
675.867	720.63
676.061	730.12
676.256	699.7
676.451	733.61
676.646	794.06
676.84	713.85
677.035	687.69
677.23	716.17
677.424	767.9
677.619	783.79
677.814	807.81
678.008	785.92
678.203	691.56
678.397	714.62
678.592	743.3
678.787	827.96
678.981	732.64
679.176	765.19
679.37	760.93
679.565	713.26
679.759	734.38
679.954	776.23
680.148	809.56
680.342	808.98
680.537	750.27
680.731	724.7
680.926	772.55
681.12	776.62
681.314	711.91
681.509	743.88
681.703	734.77
681.897	794.25
682.092	704.93
682.286	733.61
682.48	802
682.674	781.27
682.869	753.95
683.063	739.23
683.257	833.97
683.451	730.9
683.645	764.03
683.839	747.75
684.034	725.47
684.228	764.99
684.422	710.36
684.616	697.18
684.81	741.16
685.004	760.15
685.198	751.63
685.392	752.4
685.586	726.83
685.78	769.84
685.974	738.06
686.168	765.77
686.362	766.54
686.556	705.13
686.75	680.33
686.944	689.63
687.138	694.08
687.331	589.65
687.525	626.08
687.719	563.89
687.913	652.04
688.107	634.8
688.301	607.09
688.494	643.71
688.688	614.26
688.882	572.22
689.076	558.46
689.269	623.17
689.463	707.65
689.657	603.99
689.85	607.48
690.044	642.35
690.238	634.99
690.431	631.31
690.625	636.35
690.818	670.25
691.012	678.58
691.205	687.5
691.399	637.9
691.593	666.76
691.786	722.56
691.98	750.08
692.173	751.24
692.366	701.83
692.56	732.83
692.753	782.43
692.947	663.28
693.14	765.19
693.333	764.8
693.527	677.61
693.72	739.03
693.914	709.97
694.107	711.52
694.3	725.86
694.493	696.21
694.687	739.42
694.88	718.11
695.073	750.85
695.266	761.31
695.46	730.7
695.653	793.67
695.846	806.07
696.039	706.48
696.232	741.36
696.425	803.94
696.618	830.87
696.812	775.07
697.005	852.57
697.198	926.97
697.391	868.46
697.584	873.11
697.777	923.67
697.97	896.36
698.163	920.77
698.356	913.02
698.549	998.07
698.742	933.55
698.935	869.04
699.127	938.4
699.32	942.27
699.513	918.06
699.706	963.39
699.899	984.7
700.092	947.12
700.285	968.43
700.477	943.44
700.67	1011.44
700.863	997.69
701.056	1086.42
701.248	1048.25
701.441	1085.65
701.634	1041.86
701.826	1147.65
702.019	1037.4
702.212	1122.85
702.404	1042.25
702.597	1037.79
702.79	1078.87
702.982	1161.98
703.175	1192.01
703.367	1168.96
703.56	1174.19
703.752	1272.61
703.945	1232.31
704.137	1253.63
704.33	1278.23
704.522	1282.49
704.715	1293.54
704.907	1311.17
705.1	1326.86
705.292	1357.28
705.484	1328.22
705.677	1395.25
705.869	1375.49
706.061	1452.02
706.254	1468.3
706.446	1446.02
706.638	1423.15
706.831	1535.14
707.023	1441.56
707.215	1553.35
707.407	1561.88
707.599	1529.91
707.792	1615.93
707.984	1589
708.176	1611.67
708.368	1577.76
708.56	1627.17
708.752	1654.68
708.944	1639.38
709.136	1678.9
709.329	1668.24
709.521	1801.15
709.713	1748.26
709.905	1748.46
710.097	1804.84
710.289	1774.81
710.481	1786.43
710.672	1808.32
710.864	1829.05
711.056	1889.89
711.248	1918.57
711.44	1884.27
711.632	1875.75
711.824	1946.66
712.016	1977.46
712.207	1990.06
712.399	1971.46
712.591	2072.4
712.783	2041.79
712.975	2092.36
713.166	2017.96
713.358	2068.53
713.55	2142.73
713.741	2114.64
713.933	2165.21
714.125	2159.01
714.316	2114.64
714.508	2247.94
714.7	2212.48
714.891	2198.14
715.083	2305.09
715.274	2251.62
715.466	2239.41
715.657	2335.51
715.849	2258.4
716.04	2278.55
716.232	2225.46
716.423	2336.48
716.615	2270.99
716.806	2276.03
716.998	2224.69
717.189	2174.12
717.381	2082.86
717.572	2058.65
717.763	2093.91
717.955	2051.86
718.146	2071.63
718.337	2041.21
718.528	1998.2
718.72	1912.37
718.911	1973.78
719.102	1932.13
719.293	2040.63
719.485	2000.52
719.676	2000.33
719.867	1956.54
720.058	1992.58
720.249	1997.03
720.44	2034.23
720.632	2079.38
720.823	2116.96
721.014	2240.96
721.205	2215.77
721.396	2338.03
721.587	2404.87
721.778	2466.1
721.969	2474.04
722.16	2567.43
722.351	2565.68
722.542	2711.57
722.733	2735.4
722.924	2651.12
723.115	2668.95
723.305	2667.98
723.496	2703.44
723.687	2596.49
723.878	2594.94
724.069	2600.36
724.26	2628.46
724.45	2578.47
724.641	2554.06
724.832	2599.59
725.023	2581.96
725.213	2588.54
725.404	2555.8
725.595	2600.56
725.785	2589.9
725.976	2682.51
726.167	2637.95
726.357	2677.28
726.548	2784.42
726.739	2685.22
726.929	2786.55
727.12	2817.55
727.31	2855.33
727.501	2787.13
727.691	2815.42
727.882	2804.18
728.072	2814.45
728.263	2832.86
728.453	2937.68
728.644	2946.2
728.834	2903.19
729.024	2864.44
729.215	2844.1
729.405	2923.92
729.596	2991.73
729.786	3020.41
729.976	3019.44
730.167	3056.83
730.357	3032.22
730.547	3028.35
730.737	3083.18
730.928	3090.16
731.118	3199.43
731.308	3089.57
731.498	3128.13
731.688	3235.27
731.879	3262.01
732.069	3266.08
732.259	3281
732.449	3308.31
732.639	3426.31
732.829	3431.54
733.019	3468.16
733.209	3556.7
733.399	3500.32
733.589	3632.07
733.779	3638.27
733.969	3654.35
734.159	3702.2
734.349	3741.15
734.539	3805.66
734.729	3801.6
734.919	3851.97
735.109	3911.06
735.299	3798.3
735.488	3852.55
735.678	3875.99
735.868	3835.11
736.058	3869.41
736.248	3866.31
736.437	3823.68
736.627	3828.91
736.817	3970.74
737.007	3882.39
737.196	3988.56
737.386	3923.07
737.576	3928.89
737.765	4016.65
737.955	3950.59
738.144	4078.46
738.334	4057.73
738.524	3978.1
738.713	4051.72
738.903	4068.77
739.092	4072.07
739.282	4087.95
739.471	4102.48
739.661	4048.24
739.85	4097.45
740.04	4110.04
740.229	4140.07
740.419	4160.8
740.608	4209.82
740.797	4174.56
740.987	4238.88
741.176	4185.02
741.365	4158.86
741.555	4112.75
741.744	4234.81
741.933	4150.15
742.123	4235.59
742.312	4304.18
742.501	4305.73
742.69	4293.71
742.88	4249.93
743.069	4364.43
743.258	4253.22
743.447	4373.34
743.636	4334.01
743.825	4297.78
744.014	4349.71
744.204	4375.28
744.393	4328.59
744.582	4408.22
744.771	4432.63
744.96	4360.36
745.149	4386.52
745.338	4379.74
745.527	4417.13
745.716	4403.57
745.905	4374.89
746.094	4411.71
746.283	4452.2
746.471	4422.75
746.66	4465.57
746.849	4499.09
747.038	4525.05
747.227	4422.94
747.416	4497.73
747.604	4403.57
747.793	4434.95
747.982	4446
748.171	4431.66
748.359	4436.89
748.548	4432.63
748.737	4458.79
748.926	4442.12
749.114	4380.51
749.303	4443.67
749.491	4450.07
749.68	4342.34
749.869	4442.9
750.057	4374.12
750.246	4403.76
750.434	4407.44
750.623	4422.55
750.811	4423.52
751	4457.24
751.188	4396.4
751.377	4415.39
751.565	4357.84
751.754	4317.16
751.942	4339.82
752.131	4433.02
752.319	4333.82
752.507	4334.01
752.696	4407.83
752.884	4449.1
753.072	4347.38
753.261	4351.64
753.449	4351.84
753.637	4285.38
753.825	4425.27
754.014	4332.08
754.202	4381.67
754.39	4400.08
754.578	4411.71
754.766	4334.79
754.955	4317.74
755.143	4424.88
755.331	4318.32
755.519	4357.65
755.707	4358.62
755.895	4331.49
756.083	4356.49
756.271	4293.33
756.459	4308.83
756.647	4300.69
756.835	4285.19
757.023	4267.94
757.211	4271.82
757.399	4253.03
757.587	4285.96
757.775	4197.61
757.963	4234.81
758.151	4266.98
758.339	4205.17
758.526	4185.21
758.714	4260.19
758.902	4179.4
759.09	4055.6
759.278	3883.36
759.465	3661.9
759.653	3277.32
759.841	3015.37
760.028	2689.87
760.216	2326.79
760.404	2239.8
760.591	1934.45
760.779	1648.68
760.967	1498.33
761.154	1361.74
761.342	1356.7
761.529	1384.79
761.717	1453.18
761.905	1465.58
762.092	1562.26
762.28	1550.64
762.467	1588.81
762.655	1473.53
762.842	1574.08
763.029	1588.42
763.217	1649.64
763.404	1606.63
763.592	1661.66
763.779	1562.85
763.966	1680.84
764.154	1737.22
764.341	1792.44
764.528	1765.89
764.716	1882.92
764.903	1923.8
765.09	2025.9
765.277	2048.96
765.465	2244.45
765.652	2285.72
765.839	2337.64
766.026	2520.93
766.213	2541.08
766.4	2640.08
766.588	2849.13
766.775	2870.83
766.962	2968.29
767.149	3012.66
767.336	3183.35
767.523	3112.63
767.71	3260.65
767.897	3408.68
768.084	3462.73
768.271	3488.11
768.458	3547.2
768.645	3604.94
768.832	3576.85
769.019	3576.46
769.206	3627.22
769.392	3725.45
769.579	3748.7
769.766	3738.63
769.953	3763.62
770.14	3793.26
770.327	3778.73
770.513	3845.19
770.7	3882.97
770.887	3757.42
771.073	3824.07
771.26	3798.5
771.447	3786.68
771.634	3773.11
771.82	3872.12
772.007	3722.74
772.193	3849.06
772.38	3839.96
772.567	3765.36
772.753	3832.21
772.94	3838.02
773.126	3872.31
773.313	3830.46
773.499	3811.09
773.686	3866.11
773.872	3750.64
774.059	3818.84
774.245	3739.6
774.432	3773.5
774.618	3683.6
774.804	3750.25
774.991	3708.98
775.177	3759.55
775.363	3722.93
775.55	3775.83
775.736	3678.57
775.922	3749.28
776.109	3716.35
776.295	3691.93
776.481	3702.4
776.667	3724.87
776.853	3712.67
777.04	3699.68
777.226	3674.88
777.412	3728.16
777.598	3654.15
777.784	3648.15
777.97	3649.31
778.156	3654.35
778.342	3619.28
778.528	3644.27
778.715	3542.36
778.901	3582.08
779.087	3630.9
779.272	3571.81
779.458	3542.56
779.644	3586.73
779.83	3575.69
780.016	3649.31
780.202	3589.05
780.388	3526.67
780.574	3483.07
780.76	3507.1
780.946	3592.93
781.131	3541.97
781.317	3526.86
781.503	3491.99
781.689	3488.69
781.874	3646.21
782.06	3502.26
782.246	3495.28
782.432	3488.31
782.617	3479.2
782.803	3565.22
782.989	3411.78
783.174	3421.66
783.36	3381.94
783.545	3431.93
783.731	3432.7
783.916	3352.88
784.102	3428.63
784.288	3383.49
784.473	3366.25
784.659	3393.56
784.844	3415.84
785.029	3357.53
785.215	3343.19
785.4	3306.76
785.586	3454.21
785.771	3280.22
785.956	3368.38
786.142	3333.7
786.327	3301.73
786.512	3309.67
786.698	3284.1
786.883	3186.45
787.068	3271.31
787.254	3253.48
787.439	3264.14
787.624	3233.14
787.809	3236.82
787.994	3209.89
788.18	3291.07
788.365	3152.93
788.55	3237.98
788.735	3222.48
788.92	3205.05
789.105	3165.14
789.29	3203.3
789.475	3105.46
789.66	3146.92
789.845	3148.47
790.03	3102.17
790.215	3159.13
790.4	3191.1
790.585	3177.15
790.77	3106.43
790.955	3036.87
791.14	3097.91
791.325	3140.14
791.51	2995.03
791.695	3088.02
791.879	3097.52
792.064	3006.46
792.249	3111.27
792.434	3041.14
792.618	3039.97
792.803	3080.86
792.988	3068.65
793.173	3080.47
793.357	3112.44
793.542	2990.57
793.727	3054.51
793.911	3109.34
794.096	3043.46
794.281	3119.02
794.465	3163.39
794.65	3077.17
794.834	3110.3
795.019	3128.9
795.203	3171.72
795.388	3155.25
795.572	3180.83
795.757	3144.21
795.941	3160.68
796.126	3113.21
796.31	3068.07
796.494	3118.64
796.679	3113.21
796.863	3048.5
797.048	3164.94
797.232	3112.05
797.416	3127.55
797.601	3129.1
797.785	3188.97
797.969	3204.08
798.153	3135.69
798.338	3132.2
798.522	3203.5
798.706	3197.49
798.89	3190.32
799.074	3261.04
799.258	3212.22
799.443	3146.34
799.627	3180.83
799.811	3177.34
799.995	3160.68
800.179	3126.77
800.363	3117.86
800.547	3176.37
800.731	3202.92
800.915	3085.31
801.099	3080.66
801.283	3144.02
801.467	3138.98
801.651	3107.4
801.835	3193.42
802.019	3199.62
802.202	3185.48
802.386	3075.62
802.57	3082.21
802.754	3105.07
802.938	3078.53
803.121	3087.64
803.305	3192.07
803.489	3108.95
803.673	3156.8
803.856	3160.29
804.04	3099.84
804.224	3160.49
804.407	3097.71
804.591	3135.69
804.775	3122.51
804.958	3107.98
805.142	3254.45
805.326	3119.99
805.509	3102.75
805.693	3175.79
805.876	3175.99
806.06	3164.36
806.243	3188
806.427	3187.8
806.61	3195.94
806.794	3119.02
806.977	3137.62
807.16	3145.95
807.344	3113.21
807.527	3144.21
807.71	3110.5
807.894	3095.58
808.077	3160.49
808.26	3095.77
808.444	3066.71
808.627	3177.92
808.81	3052.57
808.993	3033
809.177	3003.16
809.36	3066.32
809.543	3054.31
809.726	2979.33
809.909	2903.96
810.092	2956.86
810.276	2950.46
810.459	2948.53
810.642	2926.05
810.825	2905.71
811.008	2949.3
811.191	2827.82
811.374	2834.8
811.557	2882.46
811.74	2953.56
811.923	2809.03
812.106	2765.82
812.289	2791.01
812.472	2791.98
812.654	2812.71
812.837	2806.32
813.02	2684.84
813.203	2684.84
813.386	2572.27
813.569	2576.34
813.751	2509.49
813.934	2532.55
814.117	2481.21
814.3	2431.61
814.482	2436.84
814.665	2399.06
814.848	2353.72
815.03	2301.6
815.213	2294.82
815.396	2260.92
815.578	2216.55
815.761	2204.54
815.943	2277.77
816.126	2172.96
816.309	2133.24
816.491	2134.21
816.674	2016.02
816.856	2054.58
817.039	2027.06
817.221	2144.67
817.403	2118.32
817.586	2095.46
817.768	2110.76
817.951	2015.83
818.133	2011.18
818.315	2020.28
818.498	2091.97
818.68	2174.89
818.862	2090.81
819.045	2130.72
819.227	2137.31
819.409	2056.9
819.591	2139.05
819.774	2071.43
819.956	2044.89
820.138	2143.31
820.32	2100.11
820.502	2162.69
820.684	2234.18
820.866	2215.19
821.048	2284.36
821.231	2256.27
821.413	2294.05
821.595	2243.67
821.777	2281.65
821.959	2290.56
822.141	2339.38
822.323	2235.92
822.505	2148.35
822.686	2070.85
822.868	2037.33
823.05	1945.11
823.232	1863.74
823.414	1758.14
823.596	1875.17
823.778	1816.46
823.96	1875.36
824.141	1895.51
824.323	1902.48
824.505	1993.55
824.687	2046.44
824.868	2044.31
825.05	2161.72
825.232	2202.79
825.413	2267.7
825.595	2225.66
825.777	2121.61
825.958	2190.01
826.14	2168.69
826.321	2221.78
826.503	2200.47
826.685	2224.88
826.866	2219.65
827.048	2240.57
827.229	2165.4
827.411	2190.97
827.592	2073.95
827.773	2098.56
827.955	2027.06
828.136	2037.14
828.318	2029.2
828.499	2037.72
828.68	1983.28
828.862	1998.97
829.043	2073.37
829.224	1975.53
829.406	1961.97
829.587	1941.62
829.768	1984.83
829.949	1984.44
830.131	1957.51
830.312	2033.65
830.493	2031.52
830.674	1993.16
830.855	1991.03
831.036	1960.8
831.218	2075.5
831.399	2050.9
831.58	2007.11
831.761	2013.11
831.942	2041.21
832.123	1990.45
832.304	1941.23
832.485	1965.84
832.666	1947.82
832.847	1995.1
833.028	1991.22
833.209	1979.6
833.389	1962.74
833.57	1921.47
833.751	1935.81
833.932	2038.11
834.113	1968.36
834.294	1966.42
834.475	2026.29
834.655	2015.63
834.836	2057.48
835.017	1989.09
835.198	1939.49
835.378	2010.79
835.559	2048.38
835.74	1989.67
835.92	1998.2
836.101	1964.1
836.281	2015.83
836.462	2030.16
836.643	2052.06
836.823	2058.26
837.004	2064.65
837.184	2113.67
837.365	2062.33
837.545	2070.66
837.726	2004.01
837.906	2123.55
838.087	2036.56
838.267	2044.7
838.448	1981.34
838.628	2014.47
838.808	1997.03
838.989	2079.57
839.169	1990.25
839.349	2034.43
839.53	2048.96
839.71	2042.18
839.89	1976.69
840.07	2111.93
840.251	1989.09
840.431	2030.55
840.611	2021.06
840.791	1986.38
840.971	2029.97
841.151	1985.8
841.332	1998
841.512	2072.79
841.692	1931.55
841.872	2017.96
842.052	1975.72
842.232	2012.92
842.412	1911.01
842.592	1973.01
842.772	2002.46
842.952	2002.65
843.132	1947.63
843.312	1954.99
843.492	1929.61
843.672	2007.11
843.851	1896.28
844.031	1949.57
844.211	1917.6
844.391	1913.72
844.571	1947.24
844.751	1929.22
844.93	1943.75
845.11	1912.56
845.29	1945.88
845.47	1958.48
845.649	1945.88
845.829	1972.82
846.009	1904.62
846.188	1935.42
846.368	1910.62
846.547	1906.36
846.727	1981.53
846.907	1868.19
847.086	1889.12
847.266	1941.04
847.445	1915.47
847.625	1895.7
847.804	1858.12
847.984	1871.68
848.163	1862.57
848.343	1880.01
848.522	1891.25
848.701	1874.97
848.881	1853.85
849.06	1874.39
849.239	1874.59
849.419	1866.45
849.598	1749.04
849.777	1794.96
849.957	1782.75
850.136	1700.99
850.315	1664.76
850.494	1680.26
850.674	1701.38
850.853	1772.48
851.032	1772.09
851.211	1762.02
851.39	1749.42
851.569	1706.41
851.748	1682.39
851.927	1771.51
852.107	1753.49
852.286	1708.93
852.465	1686.46
852.644	1782.36
852.823	1753.49
853.002	1738.77
853.181	1758.34
853.359	1738.38
853.538	1655.84
853.717	1750.01
853.896	1623.49
854.075	1564.98
854.254	1541.34
854.433	1459
854.611	1475.47
854.79	1452.99
854.969	1533.98
855.148	1536.5
855.327	1480.7
855.505	1567.88
855.684	1529.52
855.863	1590.16
856.041	1581.45
856.22	1576.8
856.399	1586.87
856.577	1679.48
856.756	1647.51
856.934	1768.8
857.113	1771.51
857.291	1680.06
857.47	1637.44
857.648	1670.96
857.827	1653.13
858.005	1703.12
858.184	1610.12
858.362	1749.62
858.541	1656.81
858.719	1668.05
858.898	1638.41
859.076	1619.81
859.254	1712.81
859.433	1644.22
859.611	1587.45
859.789	1598.88
859.967	1650.23
860.146	1675.41
860.324	1588.03
860.502	1606.44
860.68	1550.45
860.859	1607.8
861.037	1584.93
861.215	1620.39
861.393	1592.49
861.571	1570.98
861.749	1564.4
861.927	1587.65
862.105	1585.13
862.283	1582.41
862.461	1554.32
862.639	1519.45
862.817	1525.84
862.995	1561.68
863.173	1528.36
863.351	1558
863.529	1564.01
863.707	1573.5
863.885	1560.52
864.063	1460.74
864.241	1496.78
864.418	1584.74
864.596	1505.11
864.774	1436.72
864.952	1538.05
865.129	1566.72
865.307	1468.68
865.485	1463.07
865.663	1496.2
865.84	1442.72
866.018	1459.77
866.196	1293.92
866.373	1307.68
866.551	1317.56
866.728	1221.27
866.906	1313.49
867.084	1320.47
867.261	1338.29
867.439	1373.55
867.616	1405.14
867.794	1381.5
867.971	1396.22
868.149	1396.8
868.326	1443.11
868.503	1412.5
868.681	1428.58
868.858	1407.07
869.035	1366.19
869.213	1425.67
869.39	1397.77
869.567	1465.39
869.745	1359.61
869.922	1430.71
870.099	1437.88
870.276	1432.26
870.454	1423.54
870.631	1390.41
870.808	1377.82
870.985	1384.21
871.162	1451.83
871.339	1428.97
871.517	1337.71
871.694	1339.65
871.871	1398.55
872.048	1384.21
872.225	1355.73
872.402	1375.49
872.579	1336.74
872.756	1396.03
872.933	1310.97
873.11	1370.65
873.287	1379.37
873.463	1348.37
873.64	1291.6
873.817	1347.21
873.994	1299.54
874.171	1279.59
874.348	1344.69
874.524	1291.6
874.701	1339.65
874.878	1200.15
875.055	1316.4
875.231	1308.07
875.408	1317.76
875.585	1239.68
875.762	1296.64
875.938	1287.53
876.115	1274.55
876.291	1262.93
876.468	1266.03
876.645	1220.88
876.821	1277.65
876.998	1264.86
877.174	1274.36
877.351	1278.42
877.527	1244.52
877.704	1289.08
877.88	1234.83
878.057	1219.33
878.233	1299.35
878.409	1250.14
878.586	1270.48
878.762	1236.77
878.938	1225.53
879.115	1154.04
879.291	1241.23
879.467	1179.42
879.644	1192.01
879.82	1248.01
879.996	1149.2
880.172	1118.2
880.349	1206.74
880.525	1243.16
880.701	1173.61
880.877	1162.76
881.053	1191.43
881.229	1168.96
881.405	1209.45
881.581	1164.31
881.757	1217.98
881.933	1191.04
882.109	1219.53
882.285	1189.69
882.461	1122.85
882.637	1187.36
882.813	1132.34
882.989	1188.53
883.165	1228.83
883.341	1121.68
883.517	1198.79
883.693	1180.39
883.869	1220.49
884.044	1144.35
884.22	1189.3
884.396	1223.79
884.572	1216.62
884.747	1217.59
884.923	1225.73
885.099	1203.06
885.275	1226.5
885.45	1165.86
885.626	1161.79
885.801	1145.13
885.977	1186.2
886.153	1108.12
886.328	1175.55
886.504	1146.48
886.679	1188.72
886.855	1143.19
887.03	1182.52
887.206	1212.94
887.381	1212.55
887.557	1158.11
887.732	1195.31
887.908	1195.11
888.083	1216.62
888.258	1176.13
888.434	1170.31
888.609	1163.53
888.784	1229.02
888.96	1155.01
889.135	1096.5
889.31	1140.48
889.485	1159.08
889.661	1155.78
889.836	1210.23
890.011	1182.71
890.186	1146.68
890.361	1126.14
890.537	1196.86
890.712	1173.03
890.887	1165.08
891.062	1181.55
891.237	1204.99
891.412	1124.4
891.587	1194.73
891.762	1200.73
891.937	1223.21
892.112	1117.61
892.287	1132.92
892.462	1121.68
892.637	1130.01
892.812	1051.74
892.987	1112
893.161	1060.65
893.336	1094.37
893.511	1117.03
893.686	1098.82
893.861	1111.22
894.035	1087.39
894.21	1087.58
894.385	1021.9
894.56	1106.57
894.734	1021.52
894.909	1001.75
895.084	1031.2
895.258	993.04
895.433	1016.67
895.608	966.3
895.782	926
895.957	949.64
896.131	986.06
896.306	915.15
896.48	906.62
896.655	895.97
896.829	826.41
897.004	841.52
897.178	869.42
897.353	833
897.527	840.94
897.701	842.88
897.876	811.49
898.05	881.05
898.224	898.68
898.399	922.71
898.573	876.59
898.747	754.73
898.921	780.88
899.096	703.77
899.27	690.21
899.444	719.66
899.618	737.68
899.792	748.14
899.967	750.85
900.141	789.21
900.315	725.28
900.489	755.69
900.663	767.51
900.837	762.86
901.011	689.43
901.185	802.78
901.359	746.4
901.533	770.03
901.707	758.79
901.881	739.42
902.055	676.45
902.229	733.8
902.403	818.08
902.576	763.44
902.75	752.01
902.924	888.02
903.098	823.89
903.272	855.09
903.446	863.03
903.619	845.59
903.793	904.11
903.967	876.79
904.14	912.44
904.314	913.79
904.488	901.2
904.661	918.25
904.835	910.89
905.009	943.05
905.182	979.28
905.356	953.51
905.529	905.66
905.703	854.7
905.876	859.54
906.05	862.26
906.223	825.64
906.397	775.84
906.57	746.2
906.744	722.37
906.917	776.81
907.09	722.18
907.264	748.72
907.437	688.46
907.61	705.32
907.784	696.8
907.957	720.05
908.13	672.19
908.304	709.39
908.477	651.65
908.65	684.4
908.823	641.97
908.996	726.25
909.17	636.93
909.343	669.28
909.516	692.53
909.689	697.96
909.862	618.33
910.035	657.85
910.208	620.27
910.381	616.97
910.554	742.13
910.727	662.31
910.9	636.15
911.073	647.39
911.246	731.86
911.419	696.8
911.592	693.89
911.765	665.41
911.938	658.82
912.11	675.87
912.283	671.61
912.456	708.03
912.629	670.64
912.802	634.8
912.974	633.63
913.147	548.39
913.32	516.8
913.493	556.14
913.665	589.46
913.838	589.07
914.01	568.54
914.183	581.32
914.356	568.15
914.528	643.32
914.701	659.98
914.873	618.91
915.046	559.62
915.218	563.11
915.391	515.25
915.563	535.99
915.736	553.62
915.908	561.56
916.081	571.83
916.253	541.6
916.425	592.95
916.598	614.84
916.77	604.77
916.942	545.29
917.115	492.97
917.287	603.22
917.459	548.97
917.632	489.49
917.804	433.49
917.976	565.63
918.148	550.52
918.32	536.95
918.493	575.7
918.665	588.1
918.837	590.43
919.009	603.6
919.181	612.32
919.353	577.64
919.525	581.71
919.697	579.77
919.869	591.01
920.041	620.65
920.213	687.69
920.385	625.3
920.557	589.27
920.729	628.79
920.901	596.82
921.073	575.32
921.244	572.41
921.416	601.28
921.588	577.64
921.76	547.8
921.932	653.78
922.103	572.6
922.275	583.45
922.447	595.08
922.619	491.62
922.79	561.75
922.962	551.1
923.134	561.75
923.305	526.69
923.477	500.14
923.648	514.29
923.82	515.06
923.991	470.5
924.163	477.09
924.335	520.68
924.506	490.45
924.677	550.71
924.849	497.04
925.02	518.94
925.192	558.07
925.363	506.73
925.535	488.32
925.706	500.72
925.877	557.88
926.049	496.27
926.22	500.72
926.391	500.14
926.562	534.24
926.734	482.51
926.905	552.45
927.076	455
927.247	471.27
927.419	448.41
927.59	424.58
927.761	462.75
927.932	433.11
928.103	422.06
928.274	391.45
928.445	371.88
928.616	386.61
928.787	379.05
928.958	439.31
929.129	357.16
929.3	394.74
929.471	350.96
929.642	293.22
929.813	220.95
929.984	343.98
930.155	230.06
930.326	319.57
930.496	264.16
930.667	210.3
930.838	283.34
931.009	235.87
931.18	239.55
931.35	259.31
931.521	237.03
931.692	200.8
931.863	134.54
932.033	200.22
932.204	192.08
932.374	194.99
932.545	128.92
932.716	224.63
932.886	177.75
933.057	81.45
933.227	137.06
933.398	206.03
933.568	82.23
933.739	108
933.909	78.16
934.08	129.5
934.25	64.6
934.421	65.37
934.591	85.72
934.761	90.95
934.932	37.67
935.102	85.52
935.272	92.11
935.443	90.95
935.613	75.45
935.783	94.05
935.953	28.37
936.123	253.31
936.294	87.85
936.464	86.69
936.634	87.27
936.804	75.25
936.974	40.19
937.144	99.09
937.314	70.02
937.484	78.94
937.655	89.79
937.825	132.02
937.995	81.65
938.165	126.6
938.334	71.96
938.504	109.16
938.674	100.83
938.844	108.19
939.014	179.3
939.184	136.09
939.354	207.2
939.524	222.7
939.694	157.4
939.863	144.81
940.033	223.08
940.203	236.84
940.373	160.5
940.542	198.48
940.712	127.76
940.882	176.78
941.051	226.38
941.221	214.17
941.391	216.5
941.56	157.6
941.73	126.99
941.899	244.4
942.069	148.68
942.238	177.36
942.408	138.8
942.577	164.77
942.747	110.71
942.916	79.32
943.086	132.99
943.255	175.81
943.425	154.88
943.594	106.84
943.763	44.45
943.933	55.69
944.102	44.26
944.271	94.24
944.441	117.49
944.61	108.77
944.779	105.67
944.948	204.87
945.117	91.53
945.287	125.24
945.456	77
945.625	77.77
945.794	106.45
945.963	72.35
946.132	140.35
946.301	105.09
946.47	131.25
946.639	64.79
946.808	90.56
946.977	131.25
947.146	165.73
947.315	105.48
947.484	120.01
947.653	99.47
947.822	100.83
947.991	93.85
948.16	201.97
948.329	135.7
948.498	129.89
948.666	139.97
948.835	142.68
949.004	66.34
949.173	73.51
949.341	97.73
949.51	145.78
949.679	142.87
949.847	126.4
950.016	178.33
950.185	187.43
950.353	93.66
950.522	131.44
950.69	159.15
950.859	120.98
951.028	158.57
951.196	132.8
951.365	93.66
951.533	106.06
951.701	153.92
951.87	145.78
952.038	43.29
952.207	104.12
952.375	162.63
952.543	82.04
952.712	108.39
952.88	86.88
953.048	177.75
953.217	111.1
953.385	124.66
953.553	175.81
953.721	89.4
953.89	82.81
954.058	46.58
954.226	77.77
954.394	108
954.562	77.58
954.73	80.49
954.898	110.32
955.067	155.85
955.235	97.34
955.403	152.75
955.571	189.18
955.739	116.91
955.907	104.7
956.075	87.27
956.243	80.87
956.41	133.19
956.578	66.34
956.746	57.24
956.914	80.87
957.082	132.99
957.25	130.86
957.418	82.42
957.585	138.22
957.753	172.13
957.921	44.06
958.089	111.49
958.256	159.92
958.424	126.21
958.592	109.94
958.759	120.4
958.927	122.92
959.095	96.18
959.262	89.79
959.43	103.54
959.597	45.61
959.765	104.12
959.932	78.16
960.1	134.93
960.267	110.71
960.435	125.82
960.602	154.88
960.77	113.81
960.937	56.85
961.104	102.19
961.272	32.63
961.439	83
961.606	126.21
961.774	161.08
961.941	94.24
962.108	140.16
962.275	133.19
962.443	154.5
962.61	148.1
962.777	164.38
962.944	159.53
963.111	117.3
963.278	142.29
963.446	115.36
963.613	115.94
963.78	121.37
963.947	138.61
964.114	135.9
964.281	195.38
964.448	134.35
964.615	99.09
964.782	119.24
964.949	174.45
965.116	153.92
965.282	166.51
965.449	106.64
965.616	66.92
965.783	156.05
965.95	116.91
966.117	97.73
966.283	136.09
966.45	160.5
966.617	130.47
966.784	147.72
966.95	166.9
967.117	141.32
967.284	100.83
967.45	102.19
967.617	182.4
967.784	160.89
967.95	196.35
968.117	151.4
968.283	185.11
968.45	242.65
968.616	173.29
968.783	180.27
968.949	154.5
969.116	199.06
969.282	119.04
969.449	148.68
969.615	145.39
969.781	89.59
969.948	113.23
970.114	101.99
970.28	176
970.447	132.02
970.613	198.87
970.779	144.81
970.945	153.33
971.112	163.8
971.278	153.72
971.444	160.31
971.61	183.56
971.776	140.93
971.942	170.58
972.108	155.85
972.275	108.97
972.441	158.57
972.607	215.53
972.773	96.57
972.939	174.26
973.105	134.74
973.271	106.25
973.437	120.01
973.602	95.4
973.768	166.12
973.934	97.92
974.1	120.59
974.266	57.24
974.432	165.54
974.598	112.26
974.763	151.59
974.929	92.89
975.095	188.98
975.261	98.7
975.426	106.84
975.592	126.79
975.758	213.59
975.923	61.3
976.089	106.06
976.255	153.72
976.42	149.85
976.586	130.28
976.751	172.9
976.917	211.07
977.082	165.73
977.248	76.42
977.413	54.33
977.579	120.01
977.744	132.02
977.91	70.8
978.075	98.89
978.24	142.68
978.406	132.99
978.571	119.82
978.736	94.82
978.902	136.09
979.067	79.32
979.232	48.52
979.397	112.45
979.563	181.43
979.728	70.22
979.893	84.17
980.058	69.05
980.223	154.3
980.388	112.84
980.554	95.21
980.719	105.09
980.884	122.34
981.049	134.93
981.214	82.42
981.379	132.6
981.544	78.35
981.709	100.83
981.874	96.18
982.039	110.9
982.204	139
982.368	108.97
982.533	81.65
982.698	157.4
982.863	157.4
983.028	91.72
983.193	107.42
983.357	143.26
983.522	98.31
983.687	101.41
983.852	125.82
984.016	83.59
984.181	134.93
984.346	138.22
984.51	152.75
984.675	116.33
984.839	123.69
985.004	136.09
985.168	148.3
985.333	101.99
985.498	108
985.662	157.98
985.827	131.05
985.991	83.2
986.155	103.54
986.32	120.2
986.484	184.33
986.649	113.42
986.813	55.3
986.977	120.98
987.142	114.59
987.306	65.95
987.47	78.16
987.634	94.44
987.799	118.27
987.963	126.6
988.127	145
988.291	162.25
988.455	129.12
988.62	117.3
988.784	129.12
988.948	131.25
989.112	82.62
989.276	104.9
989.44	97.54
989.604	71.19
989.768	108.58
989.932	192.08
990.096	85.14
990.26	54.33
990.424	73.32
990.588	97.34
990.752	152.95
990.915	139.19
991.079	59.37
991.243	86.69
991.407	125.82
991.571	107.61
991.734	134.54
991.898	146.17
992.062	190.73
992.226	97.73
992.389	72.54
992.553	35.34
992.717	65.95
992.88	95.02
993.044	94.82
993.207	81.84
993.371	133.38
993.535	102.96
993.698	91.34
993.862	139.77
994.025	120.59
994.189	96.18
994.352	122.92
994.515	108
994.679	126.6
994.842	73.12
995.006	119.82
995.169	66.73
995.332	40.38
995.496	109.35
995.659	60.53
995.822	77
995.985	82.42
996.149	149.07
996.312	94.44
996.475	161.08
996.638	89.59
996.801	134.35
996.964	163.8
997.128	84.75
997.291	90.37
997.454	89.2
997.617	15.19
997.78	133.38
997.943	58.59
998.106	131.05
998.269	63.24
998.432	81.45
998.595	93.08
998.758	3.18
998.92	60.14
999.083	0.27
999.246	77.39
999.409	10.93
999.572	7.44
999.735	55.49
999.897	89.4
1000.06	59.56
1000.223	84.94
1000.386	100.64
1000.548	121.17
1000.711	106.25
1000.874	110.52
1001.036	14.81
1001.199	109.74
1001.361	44.06
1001.524	80.87
1001.687	124.66
1001.849	40.57
1002.012	95.99
1002.174	90.17
1002.337	99.47
1002.499	59.95
1002.661	104.7
1002.824	46.19
1002.986	53.36
1003.149	94.24
1003.311	19.46
1003.473	108.58
1003.636	61.69
1003.798	108.39
1003.96	79.32
1004.123	62.27
1004.285	57.24
1004.447	58.98
1004.609	69.05
1004.771	130.47
1004.933	15.97
1005.096	18.29
1005.258	22.56
1005.42	38.25
1005.582	106.84
1005.744	94.82
1005.906	12.29
1006.068	77
1006.23	4.34
1006.392	0.08
1006.554	32.05
1006.716	110.32
1006.878	100.25
1007.04	25.66
1007.202	30.5
1007.363	70.22
1007.525	65.18
1007.687	87.27
1007.849	94.82
1008.011	-16.97
1008.172	35.73
1008.334	47.16
1008.496	84.36
1008.658	10.35
1008.819	5.89
1008.981	6.28
1009.143	29.53
1009.304	51.62
1009.466	51.81
1009.627	120.01
1009.789	165.93
1009.95	64.02
1010.112	32.82
1010.273	60.92
1010.435	52.78
1010.596	58.59
1010.758	-6.7
1010.919	30.31
1011.081	9.96
1011.242	69.83
1011.403	65.57
1011.565	60.72
1011.726	64.21
1011.887	27.79
1012.049	38.06
1012.21	65.95
1012.371	119.82
1012.532	-29.37
1012.693	30.31
1012.855	31.27
1013.016	53.94
1013.177	74.09
1013.338	40.96
1013.499	108.58
1013.66	70.41
1013.821	67.7
1013.982	49.49
1014.143	53.94
1014.304	10.54
1014.465	58.79
1014.626	64.79
1014.787	39.99
1014.948	145.97
1015.109	-18.33
1015.27	62.47
1015.431	34.57
1015.592	20.23
1015.752	96.95
1015.913	58.59
1016.074	50.65
1016.235	63.05
1016.395	35.73
1016.556	26.62
1016.717	29.72
1016.877	85.14
1017.038	5.7
1017.199	54.33
1017.359	30.89
1017.52	52.39
1017.681	10.16
1017.841	46.19
1018.002	41.35
1018.162	30.89
1018.323	91.34
1018.483	11.51
1018.644	14.81
1018.804	-10.19
1018.964	-11.16
1019.125	21.78
1019.285	47.55
1019.446	-19.1
1019.606	3.96
1019.766	-20.07
1019.926	53.75
1020.087	68.86
1020.247	-5.93
1020.407	44.26
1020.567	86.3
1020.728	48.52
1020.888	1.82
1021.048	-23.17
1021.208	-3.6
1021.368	-9.22
1021.528	86.1
1021.688	76.8
1021.848	68.67
1022.008	39.41
1022.168	43.87
1022.328	43.67
1022.488	50.46
1022.648	20.81
1022.808	39.41
1022.968	37.67
1023.128	16.55
1023.288	17.13
1023.448	26.24
1023.608	57.82
1023.767	50.84
1023.927	-15.03
1024.087	-23.36
1024.247	1.24
1024.406	15.97
1024.566	-4.57
1024.726	9.38
1024.885	3.96
1025.045	43.67
1025.205	34.18
1025.364	11.9
1025.524	38.44
1025.683	13.45
1025.843	21.01
1026.003	26.82
1026.162	86.88
1026.321	70.8
1026.481	46.39
1026.64	24.3
1026.8	15.58
1026.959	36.51
1027.119	17.13
1027.278	28.95
1027.437	9.38
1027.597	10.93
1027.756	32.82
1027.915	35.92
1028.074	36.89
1028.234	11.9
1028.393	41.74
1028.552	23.33
1028.711	-52.04
1028.87	69.83
1029.03	-25.11
1029.189	9.77
1029.348	-41.38
1029.507	-1.66
1029.666	16.74
1029.825	-10.38
1029.984	11.71
1030.143	22.17
1030.302	0.47
1030.461	-29.76
1030.62	43.48
1030.779	49.68
1030.938	2.21
1031.097	-32.66
1031.255	37.86
1031.414	83.78
1031.573	63.44
1031.732	-27.63
1031.891	11.9
1032.049	58.79
1032.208	33.99
1032.367	0.47
1032.525	7.25
1032.684	3.57
1032.843	37.86
1033.001	-45.64
1033.16	180.46
1033.319	56.85
1033.477	24.49
1033.636	-7.86
1033.794	-27.63
1033.953	18.87
1034.111	50.65
1034.27	-7.86
1034.428	48.91
1034.587	-25.88
1034.745	21.78
1034.903	21.39
1035.062	39.02
1035.22	-28.01
1035.378	40.38
1035.537	-25.3
1035.695	54.91
1035.853	27.21
1036.011	28.17
1036.17	52.78
1036.328	-72.38
1036.486	17.13
1036.644	1.63
1036.802	-69.47
1036.96	-17.16
1037.119	17.32
1037.277	5.31
1037.435	-39.06
1037.593	-14.84
1037.751	14.22
1037.909	52.78
1038.067	52.78
