Data from gum_old_FLMT105791__182__15-48-09-249.txt Node

Date: Mon Mar 20 15:48:09 GMT 2023
User: antho
Spectrometer: FLMT10579
Trigger mode: 0
Integration Time (sec): 1.000000E-1
Scans to average: 10
Electric dark correction enabled: true
Nonlinearity correction enabled: false
Boxcar width: 0
XAxis mode: Wavelengths
Number of Pixels in Spectrum: 3648
>>>>>Begin Spectral Data<<<<<
345.248	-197.01
345.464	-197.01
345.681	-197.01
345.898	-160.78
346.114	-171.82
346.331	-41.43
346.548	43.04
346.764	-5.01
346.981	-6.17
347.197	-18.76
347.414	38.59
347.631	-28.45
347.847	67.84
348.064	-9.07
348.28	20.18
348.497	-61.19
348.713	0.42
348.93	39.36
349.146	62.03
349.363	1.39
349.579	48.66
349.796	18.05
350.012	-2.1
350.229	31.81
350.445	3.71
350.661	-8.88
350.878	21.54
351.094	17.66
351.311	25.22
351.527	9.14
351.743	13.98
351.96	37.81
352.176	54.09
352.392	33.16
352.609	71.53
352.825	-9.27
353.041	35.1
353.257	7.01
353.474	38.2
353.69	34.71
353.906	-3.07
354.122	-14.11
354.339	53.51
354.555	17.66
354.771	-3.84
354.987	64.94
355.203	73.66
355.42	12.63
355.636	20.38
355.852	-11.59
356.068	28.71
356.284	0.81
356.5	78.5
356.716	47.5
356.932	50.79
357.148	42.08
357.364	15.92
357.58	62.23
357.796	72.11
358.012	68.81
358.228	41.3
358.444	-52.67
358.66	58.16
358.876	48.86
359.092	-23.41
359.308	49.05
359.524	70.75
359.74	36.26
359.956	15.73
360.172	16.89
360.388	80.63
360.604	19.79
360.819	102.52
361.035	60.68
361.251	61.45
361.467	21.54
361.683	63.58
361.898	16.31
362.114	59.51
362.33	66.88
362.546	83.54
362.762	56.8
362.977	13.59
363.193	-15.85
363.409	56.8
363.624	-2.49
363.84	14.18
364.056	43.63
364.271	51.76
364.487	70.17
364.703	21.34
364.918	7.01
365.134	43.63
365.35	43.24
365.565	163.55
365.781	78.11
365.996	63.78
366.212	102.72
366.427	66.88
366.643	53.7
366.858	30.64
367.074	35.49
367.289	101.36
367.505	164.33
367.72	4.49
367.936	47.11
368.151	117.83
368.367	93.22
368.582	59.13
368.798	31.03
369.013	96.13
369.228	82.37
369.444	72.3
369.659	72.69
369.874	86.64
370.09	126.94
370.305	-21.28
370.52	45.37
370.736	124.03
370.951	85.67
371.166	108.14
371.381	135.27
371.597	106.21
371.812	25.99
372.027	38.39
372.242	51.57
372.458	153.09
372.673	34.52
372.888	64.74
373.103	62.42
373.318	154.26
373.533	76.37
373.749	98.65
373.964	-8.88
374.179	115.7
374.394	24.64
374.609	90.32
374.824	29.48
375.039	105.24
375.254	55.25
375.469	126.55
375.684	68.62
375.899	98.07
376.114	62.81
376.329	71.33
376.544	103.11
376.759	101.94
376.974	54.67
377.189	63.58
377.404	54.28
377.619	144.18
377.834	13.59
378.049	23.67
378.264	45.76
378.478	92.84
378.693	62.03
378.908	106.01
379.123	94.58
379.338	117.44
379.553	85.47
379.767	74.82
379.982	99.81
380.197	99.04
380.412	90.9
380.626	101.36
380.841	163.36
381.056	89.16
381.271	146.51
381.485	67.07
381.7	41.11
381.915	72.49
382.129	29.87
382.344	89.93
382.559	76.76
382.773	116.28
382.988	16.69
383.202	67.26
383.417	61.26
383.632	176.92
383.846	97.1
384.061	79.08
384.275	79.86
384.49	92.64
384.704	105.24
384.919	99.23
385.133	62.61
385.348	122.87
385.562	72.11
385.777	123.84
385.991	88.57
386.206	49.05
386.42	72.88
386.634	139.14
386.849	100.39
387.063	101.94
387.277	93.81
387.492	59.71
387.706	44.98
387.92	71.53
388.135	121.32
388.349	109.5
388.563	87.99
388.778	112.41
388.992	140.11
389.206	125.77
389.42	191.26
389.635	104.27
389.849	130.81
390.063	135.46
390.277	150.38
390.491	153.87
390.706	160.26
390.92	159.1
391.134	127.32
391.348	171.5
391.562	79.27
391.776	132.94
391.99	117.44
392.205	167.04
392.419	93.42
392.633	101.36
392.847	172.47
393.061	102.52
393.275	156.77
393.489	97.29
393.703	105.04
393.917	102.52
394.131	48.28
394.345	106.79
394.559	162.78
394.773	99.23
394.986	159.29
395.2	126.94
395.414	192.62
395.628	78.11
395.842	158.32
396.056	137.59
396.27	86.44
396.484	135.46
396.697	128.1
396.911	189.32
397.125	148.44
397.339	154.06
397.553	105.43
397.766	196.3
397.98	190.29
398.194	205.79
398.408	159.87
398.621	213.54
398.835	202.11
399.049	187.77
399.262	229.24
399.476	228.07
399.69	213.74
399.903	298.6
400.117	200.37
400.331	242.8
400.544	166.65
400.758	316.62
400.971	250.55
401.185	257.33
401.398	194.36
401.612	298.98
401.826	245.51
402.039	258.49
402.253	220.71
402.466	292.4
402.68	228.46
402.893	254.23
403.106	224
403.32	223.62
403.533	259.46
403.747	213.15
403.96	264.11
404.174	280.19
404.387	218.58
404.6	249.58
404.814	295.11
405.027	257.33
405.24	248.61
405.454	259.27
405.667	320.88
405.88	186.8
406.094	255.2
406.307	313.52
406.52	267.6
406.733	217.22
406.947	203.08
407.16	319.33
407.373	318.75
407.586	263.72
407.799	210.64
408.012	312.55
408.226	278.06
408.439	325.92
408.652	240.86
408.865	291.23
409.078	358.46
409.291	299.37
409.504	270.7
409.717	308.87
409.93	311.38
410.143	303.25
410.357	224.39
410.57	209.86
410.783	245.12
410.996	286.39
411.209	303.25
411.421	349.94
411.634	301.12
411.847	246.67
412.06	327.85
412.273	310.22
412.486	326.11
412.699	410
412.912	291.04
413.125	333.08
413.338	327.47
413.55	337.54
413.763	312.74
413.976	318.94
414.189	306.54
414.402	326.69
414.615	422.4
414.827	300.73
415.04	372.03
415.253	353.43
415.466	380.55
415.678	415.43
415.891	342.96
416.104	326.88
416.316	324.37
416.529	338.7
416.742	358.85
416.954	388.11
417.167	366.99
417.38	356.14
417.592	374.55
417.805	314.68
418.017	310.8
418.23	375.9
418.442	317.58
418.655	341.41
418.868	350.71
419.08	369.7
419.293	409.61
419.505	375.51
419.718	395.66
419.93	385.59
420.142	327.85
420.355	399.93
420.567	404.96
420.78	365.63
420.992	363.5
421.205	445.26
421.417	344.32
421.629	370.28
421.842	367.38
422.054	346.45
422.266	403.41
422.479	432.09
422.691	368.93
422.903	379.2
423.115	349.75
423.328	351.88
423.54	379.39
423.752	362.15
423.964	361.18
424.177	408.45
424.389	341.8
424.601	498.74
424.813	398.76
425.025	406.13
425.238	430.93
425.45	391.21
425.662	383.65
425.874	729.3
426.086	396.83
426.298	422.21
426.51	423.56
426.722	432.28
426.934	406.32
427.146	436.35
427.358	370.48
427.57	450.88
427.782	384.23
427.994	396.05
428.206	375.32
428.418	337.15
428.63	459.21
428.842	472.78
429.054	426.47
429.266	429.38
429.478	366.21
429.69	382.1
429.902	349.55
430.114	419.88
430.325	377.84
430.537	358.85
430.749	333.47
430.961	292.01
431.173	336.76
431.384	379.97
431.596	286.39
431.808	358.46
432.02	436.54
432.231	475.49
432.443	515.98
432.655	492.93
432.867	424.73
433.078	462.51
433.29	540.59
433.502	492.34
433.713	503.97
433.925	492.93
434.136	537.49
434.348	459.41
434.56	389.46
434.771	560.16
434.983	412.33
435.194	432.09
435.406	497.58
435.617	540.01
435.829	591.35
436.04	543.3
436.252	528.38
436.463	570.04
436.675	593.67
436.886	574.69
437.098	581.47
437.309	614.79
437.521	557.64
437.732	526.25
437.943	532.84
438.155	558.22
438.366	482.46
438.578	613.44
438.789	529.16
439	536.71
439.211	520.82
439.423	525.67
439.634	539.23
439.845	549.11
440.057	571.78
440.268	621.38
440.479	512.69
440.69	561.51
440.902	545.24
441.113	540.59
441.324	540.97
441.535	619.05
441.746	677.95
441.957	558.99
442.168	588.25
442.38	646.95
442.591	658.97
442.802	613.63
443.013	586.7
443.224	659.94
443.435	606.46
443.646	596.39
443.857	586.31
444.068	608.79
444.279	605.88
444.49	720
444.701	633.59
444.912	735.11
445.123	694.81
445.334	667.88
445.545	684.54
445.756	670.79
445.967	610.72
446.178	629.52
446.388	664.39
446.599	680.28
446.81	664.39
447.021	604.52
447.232	707.6
447.443	691.13
447.653	621.38
447.864	726.39
448.075	671.37
448.286	713.02
448.496	662.26
448.707	730.85
448.918	649.67
449.129	765.72
449.339	665.75
449.55	736.85
449.761	685.9
449.971	705.08
450.182	702.37
450.393	731.23
450.603	680.67
450.814	744.41
451.024	729.88
451.235	770.18
451.446	813
451.656	799.24
451.867	722.52
452.077	745.18
452.288	784.51
452.498	768.24
452.709	734.33
452.919	725.62
453.13	680.28
453.34	729.49
453.55	683.38
453.761	738.21
453.971	726.97
454.182	786.26
454.392	744.41
454.602	800.79
454.813	779.67
455.023	766.11
455.233	689.38
455.444	757
455.654	654.7
455.864	750.22
456.075	713.8
456.285	729.68
456.495	720.38
456.705	774.25
456.916	802.53
457.126	843.61
457.336	797.11
457.546	692.48
457.756	747.9
457.967	831.01
458.177	772.31
458.387	776.76
458.597	700.82
458.807	746.15
459.017	747.51
459.227	731.82
459.437	730.85
459.647	824.23
459.857	781.41
460.068	734.92
460.278	831.4
460.488	790.52
460.698	856.59
460.908	780.64
461.117	747.9
461.327	771.53
461.537	828.11
461.747	806.02
461.957	797.11
462.167	918.78
462.377	881.97
462.587	834.89
462.797	875.77
463.007	819.78
463.216	883.13
463.426	897.66
463.636	866.28
463.846	790.52
464.056	805.05
464.265	857.95
464.475	808.73
464.685	829.46
464.895	832.56
465.104	813.58
465.314	874.61
465.524	812.61
465.733	786.65
465.943	929.83
466.153	934.09
466.362	897.86
466.572	893.59
466.782	841.67
466.991	877.71
467.201	888.36
467.41	794.78
467.62	865.89
467.829	860.85
468.039	873.25
468.249	892.82
468.458	893.21
468.668	891.27
468.877	921.3
469.086	966.44
469.296	966.06
469.505	917.81
469.715	983.3
469.924	923.63
470.134	984.07
470.343	989.89
470.552	936.8
470.762	892.63
470.971	879.26
471.18	931.76
471.39	905.03
471.599	903.28
471.808	931.76
472.018	947.84
472.227	1020.5
472.436	1031.93
472.645	1003.06
472.855	1007.71
473.064	1055.76
473.273	1026.7
473.482	1026.7
473.691	1060.22
473.901	1053.63
474.11	1006.74
474.319	1139.85
474.528	1018.56
474.737	1112.53
474.946	1085.02
475.155	1084.24
475.364	1122.99
475.573	1093.35
475.783	1104.78
475.992	1125.7
476.201	1170.65
476.41	1065.64
476.619	1080.95
476.828	1130.55
477.037	1058.47
477.245	1071.26
477.454	1178.02
477.663	1127.45
477.872	1145.85
478.081	1207.47
478.29	1128.61
478.499	1265.4
478.708	1213.86
478.917	1277.41
479.125	1178.21
479.334	1228.78
479.543	1217.73
479.752	1225.87
479.961	1225.68
480.169	1298.33
480.378	1261.33
480.587	1417.49
480.796	1303.76
481.004	1262.49
481.213	1291.75
481.422	1279.35
481.63	1311.89
481.839	1349.29
482.048	1415.36
482.256	1319.45
482.465	1358.01
482.674	1390.75
482.882	1359.36
483.091	1416.13
483.299	1376.99
483.508	1372.54
483.716	1385.32
483.925	1394.82
484.134	1364.79
484.342	1373.31
484.551	1417.1
484.759	1406.64
484.967	1431.24
485.176	1437.64
485.384	1463.99
485.593	1431.05
485.801	1443.64
486.01	1378.35
486.218	1325.84
486.426	1223.93
486.635	1219.09
486.843	1198.36
487.051	1271.6
487.26	1252.61
487.468	1324.88
487.676	1365.95
487.885	1330.11
488.093	1400.82
488.301	1469.22
488.509	1443.45
488.717	1498.47
488.926	1489.17
489.134	1443.26
489.342	1465.54
489.55	1417.68
489.758	1446.16
489.967	1478.71
490.175	1588.18
490.383	1571.52
490.591	1623.25
490.799	1547.88
491.007	1598.83
491.215	1611.23
491.423	1576.36
491.631	1567.06
491.839	1559.12
492.047	1580.43
492.255	1538.97
492.463	1499.25
492.671	1486.46
492.879	1576.94
493.087	1541.29
493.295	1575.2
493.503	1618.4
493.711	1655.99
493.919	1690.28
494.127	1686.6
494.334	1658.31
494.542	1629.45
494.75	1651.15
494.958	1611.82
495.166	1705.78
495.374	1714.7
495.581	1736.98
495.789	1689.51
495.997	1738.14
496.205	1658.9
496.412	1661.41
496.62	1712.18
496.828	1702.1
497.035	1690.09
497.243	1725.74
497.451	1718.18
497.658	1745.5
497.866	1711.6
498.074	1783.67
498.281	1685.25
498.489	1802.66
498.696	1694.55
498.904	1676.33
499.112	1671.3
499.319	1798.2
499.527	1734.07
499.734	1769.33
499.942	1677.11
500.149	1736.39
500.357	1740.66
500.564	1732.33
500.771	1720.7
500.979	1679.63
501.186	1674.78
501.394	1709.08
501.601	1670.13
501.808	1744.53
502.016	1702.49
502.223	1702.68
502.43	1698.61
502.638	1715.86
502.845	1690.86
503.052	1798.01
503.26	1749.57
503.467	1801.11
503.674	1777.47
503.881	1799.36
504.089	1841.02
504.296	1781.73
504.503	1698.61
504.71	1772.43
504.917	1713.53
505.125	1783.48
505.332	1780.76
505.539	1810.99
505.746	1893.91
505.953	1853.81
506.16	1871.44
506.367	1923.17
506.574	1955.33
506.781	1958.43
506.988	1899.34
507.195	1886.55
507.402	1890.04
507.609	1910.19
507.816	1841.79
508.023	1821.06
508.23	1847.99
508.437	1823
508.644	1868.92
508.851	1923.17
509.058	1921.23
509.265	1879.38
509.472	1949.9
509.679	2036.32
509.885	1943.12
510.092	1959.79
510.299	1931.69
510.506	1947.77
510.713	1954.55
510.92	1917.94
511.126	1945.64
511.333	1973.74
511.54	1969.09
511.746	2002.8
511.953	2067.12
512.16	2075.07
512.367	1970.25
512.573	2006.87
512.78	2025.66
512.987	2014.03
513.193	1981.1
513.4	1875.12
513.606	1978.77
513.813	2000.67
514.02	1973.93
514.226	2029.34
514.433	2041.93
514.639	1955.14
514.846	1970.83
515.052	1976.64
515.259	1997.37
515.465	1986.52
515.672	1988.85
515.878	2074.48
516.085	2016.94
516.291	2083.4
516.497	2040.19
516.704	2021.01
516.91	1952.62
517.117	1829.97
517.323	1785.8
517.529	1835.98
517.736	1816.03
517.942	1841.99
518.148	1855.36
518.354	1953.97
518.561	1876.67
518.767	1911.35
518.973	1955.52
519.179	2000.86
519.386	1959.59
519.592	1946.22
519.798	1982.07
520.004	2067.51
520.21	2045.42
520.417	2140.94
520.623	2170.97
520.829	2181.24
521.035	2164.77
521.241	2180.27
521.447	2200.42
521.653	2311.63
521.859	2147.14
522.065	2218.05
522.271	2300.2
522.477	2246.34
522.683	2291.67
522.889	2243.63
523.095	2258.16
523.301	2215.53
523.507	2185.5
523.713	2260.48
523.919	2188.41
524.125	2343.21
524.331	2258.93
524.537	2382.54
524.742	2373.44
524.948	2418
525.154	2400.17
525.36	2453.07
525.566	2397.65
525.772	2493.56
525.977	2379.05
526.183	2415.67
526.389	2430.98
526.595	2347.28
526.8	2334.88
527.006	2222.31
527.212	2192.86
527.417	2169.23
527.623	2165.93
527.829	2274.43
528.034	2291.67
528.24	2350.19
528.446	2333.91
528.651	2431.56
528.857	2412.19
529.062	2480.77
529.268	2466.05
529.473	2520.88
529.679	2530.95
529.884	2589.85
530.09	2564.66
530.295	2546.26
530.501	2544.71
530.706	2539.09
530.912	2503.83
531.117	2552.85
531.323	2556.53
531.528	2611.55
531.733	2653.01
531.939	2589.08
532.144	2648.75
532.35	2580.94
532.555	2653.59
532.76	2599.15
532.966	2599.93
533.171	2543.55
533.376	2459.07
533.581	2459.46
533.787	2540.06
533.992	2586.36
534.197	2596.05
534.402	2564.28
534.607	2576.1
534.813	2678.59
535.018	2629.38
535.223	2587.33
535.428	2621.24
535.633	2646.23
535.838	2679.94
536.043	2696.61
536.249	2800.26
536.454	2694.67
536.659	2760.16
536.864	2691.57
537.069	2686.73
537.274	2701.64
537.479	2663.67
537.684	2646.23
537.889	2598.76
538.094	2777.4
538.299	2677.62
538.504	2703.77
538.708	2727.02
538.913	2752.21
539.118	2743.3
539.323	2716.37
539.528	2685.76
539.733	2690.02
539.938	2721.41
540.142	2748.34
540.347	2671.42
540.552	2672.39
540.757	2627.05
540.962	2639.64
541.166	2557.11
541.371	2585.2
541.576	2639.45
541.781	2547.81
541.985	2674.91
542.19	2690.99
542.395	2766.16
542.599	2780.11
542.804	2708.62
543.008	2788.44
543.213	2720.63
543.418	2681.3
543.622	2735.74
543.827	2654.95
544.031	2788.64
544.236	2801.42
544.44	2786.5
544.645	2833.97
544.849	2740.78
545.054	2814.6
545.258	2855.48
545.463	2854.32
545.667	2775.85
545.872	2838.82
546.076	2802.2
546.281	2830.29
546.485	2754.15
546.689	2802
546.894	2835.91
547.098	2813.44
547.302	2730.9
547.507	2801.81
547.711	2802.59
547.915	2845.6
548.119	2730.71
548.324	2760.35
548.528	2842.69
548.732	2773.52
548.936	2839.79
549.141	2833
549.345	2785.54
549.549	2775.46
549.753	2801.42
549.957	2904.3
550.161	2906.63
550.366	2869.82
550.57	2773.14
550.774	2802.2
550.978	2795.22
551.182	2856.06
551.386	2777.4
551.59	2757.44
551.794	2800.65
551.998	2841.14
552.202	2822.93
552.406	2794.64
552.61	2846.37
552.814	2832.62
553.018	2876.21
553.222	2809.17
553.426	2813.24
553.63	2873.3
553.833	2795.03
554.037	2741.56
554.241	2797.16
554.445	2796.77
554.649	2781.27
554.853	2791.35
555.056	2830.87
555.26	2907.6
555.464	2850.64
555.668	2856.25
555.871	2864.78
556.075	2854.12
556.279	2796.58
556.483	2760.74
556.686	2786.5
556.89	2771.2
557.094	2739.42
557.297	2730.71
557.501	2792.12
557.704	2652.04
557.908	2741.94
558.112	2706.49
558.315	2813.82
558.519	2698.93
558.722	2728.19
558.926	2656.5
559.129	2602.64
559.333	2622.59
559.536	2617.17
559.74	2578.42
559.943	2596.63
560.147	2569.31
560.35	2625.89
560.553	2659.02
560.757	2575.71
560.96	2681.3
561.164	2610.78
561.367	2746.01
561.57	2627.24
561.774	2697.38
561.977	2628.79
562.18	2619.69
562.384	2677.23
562.587	2609.42
562.79	2620.46
562.993	2600.9
563.197	2625.31
563.4	2691.18
563.603	2696.41
563.806	2747.56
564.009	2609.23
564.212	2629.76
564.416	2561.37
564.619	2637.51
564.822	2519.33
565.025	2633.44
565.228	2580.16
565.431	2584.62
565.634	2487.94
565.837	2503.83
566.04	2498.02
566.243	2472.44
566.446	2414.32
566.649	2556.91
566.852	2426.14
567.055	2491.62
567.258	2503.25
567.461	2568.73
567.664	2557.5
567.867	2429.82
568.07	2494.14
568.273	2524.75
568.475	2570.09
568.678	2432.72
568.881	2424.78
569.084	2446.28
569.287	2352.51
569.489	2392.81
569.692	2452.87
569.895	2462.75
570.098	2368.98
570.3	2367.62
570.503	2302.33
570.706	2314.92
570.909	2352.9
571.111	2238.98
571.314	2233.74
571.516	2273.27
571.719	2310.47
571.922	2289.74
572.124	2256.41
572.327	2290.32
572.529	2212.43
572.732	2300.01
572.935	2332.75
573.137	2418.97
573.34	2299.04
573.542	2352.7
573.745	2337.4
573.947	2339.53
574.15	2310.27
574.352	2255.44
574.554	2324.03
574.757	2275.4
574.959	2250.21
575.162	2255.06
575.364	2238.2
575.566	2356.97
575.769	2201.19
575.971	2222.89
576.173	2117.5
576.376	2191.12
576.578	2256.99
576.78	2290.51
576.982	2125.63
577.185	2208.17
577.387	2141.52
577.589	2175.04
577.791	2228.71
577.993	2181.43
578.196	2217.86
578.398	2215.92
578.6	2184.14
578.802	2113.62
579.004	2060.34
579.206	2127.76
579.408	2150.05
579.61	2102.19
579.812	2169.61
580.014	2120.6
580.216	2114.98
580.418	2164
580.62	2094.44
580.822	2082.81
581.024	2162.25
581.226	2172.91
581.428	2094.44
581.63	2218.83
581.832	2111.68
582.034	2199.26
582.236	2115.36
582.438	2187.44
582.64	2227.93
582.841	2204.1
583.043	2268.42
583.245	2152.18
583.447	2158.96
583.649	2153.92
583.85	2190.15
584.052	2207.98
584.254	2125.44
584.456	2165.35
584.657	2088.63
584.859	2150.82
585.061	2073.71
585.262	2095.21
585.464	2012.87
585.666	2076.81
585.867	2060.73
586.069	2106.84
586.27	2065.77
586.472	2053.56
586.674	2056.47
586.875	2050.85
587.077	2045.23
587.278	2100.64
587.48	2062.28
587.681	2132.61
587.883	2079.13
588.084	2029.15
588.285	2066.93
588.487	1975.67
588.688	2040
588.89	1958.43
589.091	1912.7
589.292	1927.62
589.494	1885.39
589.695	1829.01
589.896	1743.37
590.098	1775.92
590.299	1814.67
590.5	1784.64
590.702	1831.52
590.903	1837.34
591.104	1917.35
591.305	1945.45
591.507	1950.87
591.708	1927.43
591.909	1897.79
592.11	1984.59
592.311	1972.96
592.512	1897.4
592.714	1836.95
592.915	1878.61
593.116	1884.03
593.317	1898.37
593.518	1895.85
593.719	1885.19
593.92	1963.27
594.121	1962.3
594.322	1902.44
594.523	1889.26
594.724	1827.84
594.925	1880.35
595.126	1918.32
595.327	1878.41
595.528	1926.85
595.729	1863.11
595.929	1863.11
596.13	1870.86
596.331	1878.99
596.532	1914.64
596.733	1978
596.934	1934.4
597.135	1953
597.335	1936.92
597.536	1838.11
597.737	1908.25
597.938	1866.79
598.138	1896.82
598.339	1880.74
598.54	1882.29
598.74	1836.17
598.941	1896.04
599.142	1937.5
599.342	1892.17
599.543	1851.48
599.744	1847.41
599.944	1897.98
600.145	1841.21
600.345	1896.24
600.546	1943.51
600.746	1911.54
600.947	1958.43
601.147	1845.09
601.348	1884.03
601.548	1839.08
601.749	1865.43
601.949	1792.78
602.15	1797.81
602.35	1832.11
602.551	1882.29
602.751	1832.88
602.951	1803.43
603.152	1725.74
603.352	1878.41
603.552	1845.09
603.753	1878.41
603.953	1865.82
604.153	1887.32
604.354	1846.06
604.554	1834.62
604.754	1861.17
604.954	1810.99
605.155	1867.95
605.355	1847.41
605.555	1858.46
605.755	1902.63
605.955	1841.79
606.155	1905.15
606.356	1842.76
606.556	1885
606.756	1867.37
606.956	1767.39
607.156	1873.76
607.356	1805.37
607.556	1872.41
607.756	1835.79
607.956	1876.09
608.156	1821.26
608.356	1773.4
608.556	1878.22
608.756	1774.95
608.956	1779.21
609.156	1769.91
609.356	1746.28
609.556	1738.33
609.755	1802.46
609.955	1752.48
610.155	1767.59
610.355	1779.21
610.555	1724.58
610.755	1740.08
610.954	1689.31
611.154	1729.23
611.354	1785.8
611.554	1741.82
611.753	1738.33
611.953	1689.9
612.153	1744.92
612.352	1770.3
612.552	1669.36
612.752	1631
612.951	1706.75
613.151	1690.86
613.351	1677.11
613.55	1712.56
613.75	1718.57
613.949	1686.21
614.149	1689.51
614.348	1686.41
614.548	1645.91
614.747	1610.85
614.947	1671.68
615.146	1598.83
615.346	1688.73
615.545	1667.03
615.745	1655.41
615.944	1673.43
616.144	1684.66
616.343	1689.31
616.542	1601.55
616.742	1604.45
616.941	1651.92
617.14	1578.3
617.34	1622.86
617.539	1614.53
617.738	1608.52
617.938	1670.52
618.137	1597.87
618.336	1578.49
618.535	1662.19
618.734	1594.96
618.934	1611.62
619.133	1616.66
619.332	1673.23
619.531	1612.98
619.73	1607.36
619.929	1625.57
620.128	1635.65
620.328	1676.53
620.527	1597.09
620.726	1575.39
620.925	1645.91
621.124	1604.65
621.323	1610.27
621.522	1556.6
621.721	1597.87
621.92	1566.87
622.119	1625.57
622.318	1531.8
622.517	1587.21
622.715	1552.14
622.914	1552.92
623.113	1561.05
623.312	1490.92
623.511	1590.89
623.71	1532.19
623.909	1502.93
624.107	1618.98
624.306	1471.35
624.505	1495.18
624.704	1524.24
624.902	1494.02
625.101	1533.15
625.3	1495.37
625.499	1463.79
625.697	1482.59
625.896	1471.93
626.095	1526.18
626.293	1446.94
626.492	1470.19
626.69	1516.1
626.889	1491.69
627.088	1514.55
627.286	1457.59
627.485	1454.88
627.683	1476
627.882	1526.76
628.08	1407.99
628.279	1460.5
628.477	1529.67
628.676	1422.52
628.874	1499.64
629.073	1426.98
629.271	1452.56
629.469	1463.99
629.668	1473.09
629.866	1454.69
630.065	1411.48
630.263	1473.09
630.461	1391.52
630.66	1450.04
630.858	1457.98
631.056	1458.17
631.254	1461.86
631.453	1387.46
631.651	1434.54
631.849	1435.7
632.047	1417.68
632.245	1433.57
632.444	1448.87
632.642	1430.66
632.84	1493.24
633.038	1431.24
633.236	1377.19
633.434	1389.97
633.632	1388.62
633.83	1385.32
634.028	1425.62
634.227	1401.79
634.425	1494.02
634.623	1448.87
634.821	1446.16
635.019	1452.17
635.216	1412.45
635.414	1470.96
635.612	1435.12
635.81	1378.74
636.008	1476.77
636.206	1414.97
636.404	1434.54
636.602	1363.43
636.8	1375.25
636.997	1443.26
637.195	1452.75
637.393	1409.93
637.591	1507.77
637.789	1414.97
637.986	1409.35
638.184	1449.65
638.382	1465.92
638.58	1465.54
638.777	1449.84
638.975	1402.37
639.173	1408.38
639.37	1409.74
639.568	1434.92
639.765	1453.91
639.963	1388.81
640.161	1425.62
640.358	1376.8
640.556	1336.89
640.753	1354.33
640.951	1336.69
641.148	1378.93
641.346	1339.41
641.543	1338.63
641.741	1394.82
641.938	1342.12
642.136	1329.33
642.333	1352.97
642.531	1408.57
642.728	1427.76
642.925	1335.73
643.123	1331.27
643.32	1337.28
643.517	1323.13
643.715	1349.09
643.912	1315.96
644.109	1380.48
644.306	1316.35
644.504	1308.99
644.701	1339.21
644.898	1364.01
645.095	1324.49
645.293	1291.36
645.49	1336.31
645.687	1342.12
645.884	1377.96
646.081	1230.71
646.278	1266.36
646.475	1286.9
646.672	1287.29
646.87	1304.92
647.067	1296.2
647.264	1312.67
647.461	1265.78
647.658	1225.87
647.855	1299.88
648.052	1246.21
648.249	1163.68
648.446	1243.11
648.642	1252.22
648.839	1205.92
649.036	1216.57
649.233	1164.07
649.43	1156.7
649.627	1184.8
649.824	1199.52
650.021	1188.28
650.217	1162.32
650.414	1184.41
650.611	1208.05
650.808	1224.13
651.004	1202.04
651.201	1249.9
651.398	1280.7
651.595	1237.11
651.791	1183.83
651.988	1239.05
652.185	1141.2
652.381	1261.91
652.578	1142.95
652.775	1227.42
652.971	1211.53
653.168	1183.05
653.364	1242.53
653.561	1162.71
653.757	1228.78
653.954	1198.94
654.15	1184.41
654.347	1255.32
654.543	1187.32
654.74	1127.64
654.936	1141.59
655.133	1178.98
655.329	1174.33
655.525	1167.55
655.722	1179.18
655.918	1094.12
656.115	1134.81
656.311	1013.14
656.507	1001.12
656.704	969.74
656.9	1006.74
657.096	1007.71
657.292	963.73
657.489	1086.76
657.685	1080.75
657.881	1074.55
658.077	1067.97
658.273	1096.84
658.47	1135.39
658.666	1089.86
658.862	1133.84
659.058	1099.94
659.254	1184.8
659.45	1097.22
659.646	1149.15
659.842	1111.75
660.038	1133.65
660.234	1080.75
660.43	1147.21
660.626	1178.98
660.822	1134.23
661.018	1144.3
661.214	1165.42
661.41	1073.78
661.606	1130.55
661.802	1173.95
661.998	1120.47
662.194	1094.32
662.39	1154.18
662.586	1151.08
662.781	1163.29
662.977	1168.52
663.173	1146.05
663.369	1120.09
663.564	1126.09
663.76	1144.11
663.956	1126.09
664.152	1120.47
664.347	1048.98
664.543	1065.45
664.739	1110.4
664.934	1020.31
665.13	1020.69
665.326	1113.89
665.521	1097.8
665.717	1040.84
665.912	1042.97
666.108	1022.24
666.304	1063.51
666.499	1070.1
666.695	995.12
666.89	1050.53
667.086	1106.72
667.281	1085.79
667.477	1141.2
667.672	1075.14
667.867	1091.02
668.063	1069.13
668.258	1034.84
668.454	1067.39
668.649	1136.36
668.844	1057.31
669.04	1076.49
669.235	1016.82
669.43	1006.94
669.626	997.83
669.821	1028.06
670.016	1024.57
670.211	1035.42
670.407	1007.13
670.602	1058.86
670.797	1036.19
670.992	1084.63
671.187	987.17
671.382	1049.95
671.578	1004.42
671.773	1052.08
671.968	972.45
672.163	1003.45
672.358	1052.47
672.553	990.86
672.748	991.63
672.943	1092.19
673.138	1018.76
673.333	1058.09
673.528	979.04
673.723	1003.64
673.918	1035.8
674.113	977.68
674.308	1088.7
674.503	1035.03
674.698	1059.83
674.892	1005
675.087	1035.42
675.282	1009.46
675.477	959.86
675.672	1022.44
675.867	990.08
676.061	974.39
676.256	937.38
676.451	979.81
676.646	995.51
676.84	955.79
677.035	936.8
677.23	958.89
677.424	1030.38
677.619	1007.71
677.814	1027.67
678.008	1026.89
678.203	914.33
678.397	943
678.592	981.75
678.787	1040.84
678.981	1000.54
679.176	970.32
679.37	990.08
679.565	980.01
679.759	954.24
679.954	992.6
680.148	1028.83
680.342	1053.82
680.537	995.7
680.731	992.21
680.926	1025.92
681.12	1029.8
681.314	999.38
681.509	992.6
681.703	963.15
681.897	1003.26
682.092	934.48
682.286	945.91
682.48	1044.72
682.674	1023.99
682.869	959.27
683.063	978.65
683.257	1072.04
683.451	937.19
683.645	964.51
683.839	964.12
684.034	977.87
684.228	1008.87
684.422	911.81
684.616	949.39
684.81	1000.54
685.004	982.14
685.198	957.14
685.392	1005.19
685.586	932.54
685.78	951.33
685.974	994.73
686.168	981.56
686.362	1062.54
686.556	903.48
686.75	890.11
686.944	897.86
687.138	905.41
687.331	776.38
687.525	818.81
687.719	747.9
687.913	804.28
688.107	818.23
688.301	789.75
688.494	865.89
688.688	806.8
688.882	801.95
689.076	770.18
689.269	823.26
689.463	884.29
689.657	840.12
689.85	842.45
690.044	853.3
690.238	849.42
690.431	835.66
690.625	856.78
690.818	881
691.012	904.06
691.205	901.73
691.399	861.04
691.593	905.41
691.786	977.29
691.98	948.42
692.173	989.69
692.366	931.76
692.56	957.92
692.753	998.99
692.947	898.05
693.14	1010.81
693.333	985.43
693.527	910.45
693.72	993.37
693.914	939.51
694.107	940.68
694.3	987.37
694.493	936.22
694.687	994.15
694.88	955.21
695.073	991.82
695.266	1018.56
695.46	988.53
695.653	1040.65
695.846	1009.26
696.039	943.58
696.232	956.56
696.425	1057.31
696.618	1032.51
696.812	1046.46
697.005	1107.88
697.198	1163.29
697.391	1064.67
697.584	1090.05
697.777	1156.7
697.97	1125.7
698.163	1179.37
698.356	1131.52
698.549	1208.43
698.742	1207.66
698.935	1155.54
699.127	1173.75
699.32	1155.35
699.513	1135.78
699.706	1180.34
699.899	1204.75
700.092	1182.67
700.285	1200.88
700.477	1125.32
700.67	1195.84
700.863	1225.1
701.056	1340.38
701.248	1279.35
701.441	1284
701.634	1265.2
701.826	1379.51
702.019	1239.24
702.212	1355.29
702.404	1268.11
702.597	1286.9
702.79	1302.21
702.982	1332.63
703.175	1358.59
703.367	1418.46
703.56	1363.24
703.752	1486.85
703.945	1427.95
704.137	1452.94
704.33	1467.09
704.522	1461.27
704.715	1527.15
704.907	1538.77
705.1	1562.6
705.292	1547.69
705.484	1580.43
705.677	1554.66
705.869	1583.33
706.061	1620.73
706.254	1666.84
706.446	1628.09
706.638	1623.05
706.831	1715.08
707.023	1682.15
707.215	1812.93
707.407	1770.88
707.599	1763.52
707.792	1794.13
707.984	1814.28
708.176	1829.59
708.368	1808.66
708.56	1837.14
708.752	1834.04
708.944	1831.91
709.136	1913.87
709.329	1864.46
709.521	2014.62
709.713	1965.6
709.905	1989.24
710.097	2012.29
710.289	1948.35
710.481	1959.01
710.672	2035.73
710.864	2076.62
711.056	2069.06
711.248	2105.1
711.44	2093.28
711.632	2124.28
711.824	2131.25
712.016	2191.12
712.207	2205.65
712.399	2154.7
712.591	2257.38
712.783	2230.45
712.975	2281.41
713.166	2232
713.358	2266.87
713.55	2318.22
713.741	2322.48
713.933	2337.59
714.125	2366.07
714.316	2344.37
714.508	2448.03
714.7	2431.56
714.891	2436.4
715.083	2479.22
715.274	2438.92
715.466	2437.76
715.657	2540.83
715.849	2408.89
716.04	2498.02
716.232	2458.88
716.423	2511.77
716.615	2461.98
716.806	2391.65
716.998	2376.15
717.189	2321.12
717.381	2255.44
717.572	2223.09
717.763	2291.67
717.955	2251.18
718.146	2195.77
718.337	2198.87
718.528	2135.32
718.72	2062.28
718.911	2165.74
719.102	2097.73
719.293	2155.08
719.485	2185.5
719.676	2112.07
719.867	2089.4
720.058	2124.08
720.249	2169.03
720.44	2136.87
720.632	2226.38
720.823	2283.54
721.014	2402.3
721.205	2405.6
721.396	2522.81
721.587	2580.16
721.778	2657.08
721.969	2691.57
722.16	2761.32
722.351	2745.62
722.542	2902.17
722.733	2903.53
722.924	2832.42
723.115	2906.82
723.305	2871.75
723.496	2913.8
723.687	2743.11
723.878	2749.69
724.069	2797.16
724.26	2795.61
724.45	2756.67
724.641	2758.02
724.832	2789.99
725.023	2740.97
725.213	2796.58
725.404	2721.6
725.595	2773.91
725.785	2776.04
725.976	2869.43
726.167	2833.2
726.357	2849.86
726.548	2963.01
726.739	2884.35
726.929	2950.03
727.12	2991.88
727.31	3038.76
727.501	2963.59
727.691	2975.99
727.882	2990.52
728.072	3055.43
728.263	3058.14
728.453	3138.54
728.644	3168.19
728.834	3046.9
729.024	3100.18
729.215	3073.06
729.405	3113.36
729.596	3173.03
729.786	3176.32
729.976	3229.8
730.167	3272.62
730.357	3208.87
730.547	3259.05
730.737	3281.53
730.928	3336.75
731.118	3347.79
731.308	3293.54
731.498	3323.77
731.688	3403.01
731.879	3417.73
732.069	3521.78
732.259	3516.93
732.449	3571.57
732.639	3651.78
732.829	3634.73
733.019	3686.65
733.209	3742.45
733.399	3772.48
733.589	3840.68
733.779	3871.49
733.969	3875.95
734.159	3924.77
734.349	3993.16
734.539	4054.39
734.729	4072.79
734.919	4056.32
735.109	4159.01
735.299	4031.52
735.488	4091.59
735.678	4075.12
735.868	4089.84
736.058	4123.55
736.248	4081.9
736.437	4025.32
736.627	4078.02
736.817	4215.78
737.007	4123.75
737.196	4178.77
737.386	4155.14
737.576	4143.7
737.765	4244.45
737.955	4154.36
738.144	4308.58
738.334	4244.26
738.524	4210.93
738.713	4328.15
738.903	4229.92
739.092	4269.83
739.282	4321.76
739.471	4289.4
739.661	4271.38
739.85	4326.99
740.04	4308
740.229	4381.63
740.419	4387.83
740.608	4406.43
740.797	4344.81
740.987	4506.79
741.176	4458.16
741.365	4378.33
741.555	4366.13
741.744	4460.29
741.933	4407.98
742.123	4491.87
742.312	4454.86
742.501	4502.52
742.69	4554.25
742.88	4435.49
743.069	4582.54
743.258	4464.74
743.447	4533.91
743.636	4551.35
743.825	4524.42
744.014	4549.8
744.204	4608.12
744.393	4494.77
744.582	4599.59
744.771	4605.02
744.96	4544.18
745.149	4596.88
745.338	4558.71
745.527	4671.08
745.716	4601.53
745.905	4548.25
746.094	4654.81
746.283	4649
746.471	4619.74
746.66	4669.73
746.849	4662.37
747.038	4733.66
747.227	4607.15
747.416	4677.48
747.604	4623.62
747.793	4645.51
747.982	4625.17
748.171	4694.14
748.359	4645.12
748.548	4636.21
748.737	4630.01
748.926	4633.69
749.114	4546.31
749.303	4635.63
749.491	4654.81
749.68	4529.65
749.869	4639.89
750.057	4575.18
750.246	4579.83
750.434	4591.26
750.623	4577.7
750.811	4544.76
751	4633.5
751.188	4586.03
751.377	4580.02
751.565	4579.05
751.754	4556.19
751.942	4490.32
752.131	4606.57
752.319	4526.36
752.507	4490.32
752.696	4607.15
752.884	4553.29
753.072	4519.19
753.261	4575.57
753.449	4524.22
753.637	4491.67
753.825	4634.08
754.014	4555.42
754.202	4567.24
754.39	4588.16
754.578	4550.96
754.766	4550.19
754.955	4523.84
755.143	4616.64
755.331	4509.11
755.519	4520.93
755.707	4500.97
755.895	4457.38
756.083	4519.96
756.271	4428.32
756.459	4496.52
756.647	4522.09
756.835	4461.45
757.023	4493.22
757.211	4493.22
757.399	4431.61
757.587	4415.14
757.775	4362.83
757.963	4405.07
758.151	4415.73
758.339	4338.42
758.526	4363.03
758.714	4450.99
758.902	4284.17
759.09	4225.27
759.278	4064.66
759.465	3800.97
759.653	3364.07
759.841	3088.17
760.028	2720.44
760.216	2397.27
760.404	2271.72
760.591	1947.19
760.779	1678.08
760.967	1521.92
761.154	1347.54
761.342	1371.18
761.529	1372.54
761.717	1477.35
761.905	1523.47
762.092	1579.65
762.28	1551.37
762.467	1620.53
762.655	1537.8
762.842	1588.76
763.029	1588.37
763.217	1646.69
763.404	1628.67
763.592	1698.42
763.779	1659.86
763.966	1754.22
764.154	1759.84
764.341	1866.21
764.528	1847.61
764.716	1902.44
764.903	2027.79
765.09	2075.45
765.277	2082.62
765.465	2302.91
765.652	2341.47
765.839	2423.81
766.026	2569.12
766.213	2635.96
766.4	2719.47
766.588	2954.87
766.775	2941.89
766.962	3039.73
767.149	3118.98
767.336	3267.39
767.523	3257.31
767.71	3351.86
767.897	3469.27
768.084	3589.39
768.271	3583
768.458	3646.55
768.645	3790.89
768.832	3689.37
769.019	3706.42
769.206	3755.24
769.392	3861.41
769.579	3930.39
769.766	3863.16
769.953	3893
770.14	3909.08
770.327	3897.45
770.513	3942.01
770.7	4048.38
770.887	3922.83
771.073	3929.03
771.26	3971.66
771.447	3908.3
771.634	3878.66
771.82	4026.1
772.007	3905.98
772.193	3908.3
772.38	3953.83
772.567	3915.86
772.753	3894.74
772.94	3949.18
773.126	3942.98
773.313	3966.81
773.499	3931.94
773.686	3942.01
773.872	3882.53
774.059	3965.46
774.245	3863.74
774.432	3911.21
774.618	3791.86
774.804	3867.03
774.991	3808.52
775.177	3863.16
775.363	3845.14
775.55	3902.68
775.736	3795.54
775.922	3835.26
776.109	3858.7
776.295	3832.93
776.481	3889.12
776.667	3848.82
776.853	3772.68
777.04	3804.84
777.226	3778.1
777.412	3886.99
777.598	3739.16
777.784	3761.25
777.97	3778.3
778.156	3809.68
778.342	3783.14
778.528	3717.27
778.715	3701.77
778.901	3695.37
779.087	3743.23
779.272	3684.33
779.458	3624.07
779.644	3703.32
779.83	3641.51
780.016	3786.43
780.202	3688.01
780.388	3679.49
780.574	3555.29
780.76	3583
780.946	3697.7
781.131	3641.51
781.317	3594.62
781.503	3610.71
781.689	3579.51
781.874	3733.35
782.06	3578.74
782.246	3621.56
782.432	3638.41
782.617	3634.54
782.803	3692.27
782.989	3541.54
783.174	3589.78
783.36	3467.33
783.545	3547.54
783.731	3482.44
783.916	3400.1
784.102	3522.36
784.288	3467.14
784.473	3492.52
784.659	3427.61
784.844	3508.02
785.029	3465.01
785.215	3452.03
785.4	3386.73
785.586	3527.98
785.771	3370.85
785.956	3489.42
786.142	3389.64
786.327	3450.48
786.512	3401.85
786.698	3362.32
786.883	3295.87
787.068	3358.45
787.254	3367.94
787.439	3354.38
787.624	3319.89
787.809	3305.36
787.994	3303.62
788.18	3353.41
788.365	3246.65
788.55	3289.28
788.735	3351.67
788.92	3247.82
789.105	3270.87
789.29	3266.22
789.475	3209.26
789.66	3231.54
789.845	3207.52
790.03	3201.9
790.215	3244.52
790.4	3250.53
790.585	3245.69
790.77	3185.43
790.955	3195.7
791.14	3203.84
791.325	3244.33
791.51	3063.18
791.695	3169.16
791.879	3133.51
792.064	3104.25
792.249	3248.2
792.434	3133.12
792.618	3159.66
792.803	3195.89
792.988	3153.85
793.173	3192.41
793.357	3207.52
793.542	3120.72
793.727	3164.51
793.911	3228.44
794.096	3122.46
794.281	3163.73
794.465	3194.15
794.65	3172.45
794.834	3198.99
795.019	3221.47
795.203	3234.45
795.388	3281.34
795.572	3304.2
795.757	3250.53
795.941	3251.11
796.126	3258.86
796.31	3163.15
796.494	3195.7
796.679	3206.94
796.863	3154.24
797.048	3281.14
797.232	3212.94
797.416	3212.36
797.601	3216.43
797.785	3320.47
797.969	3274.36
798.153	3193.18
798.338	3230.57
798.522	3262.93
798.706	3265.84
798.89	3304.97
799.074	3400.88
799.258	3317.76
799.443	3252.08
799.627	3242.39
799.811	3313.3
799.995	3251.5
800.179	3229.41
800.363	3208.68
800.547	3265.06
800.731	3280.95
800.915	3182.14
801.099	3227.28
801.283	3205.19
801.467	3261.57
801.651	3251.11
801.835	3282.69
802.019	3284.82
802.202	3237.94
802.386	3185.62
802.57	3164.51
802.754	3238.13
802.938	3183.3
803.121	3239.1
803.305	3265.45
803.489	3172.26
803.673	3191.82
803.856	3270.68
804.04	3200.93
804.224	3259.83
804.407	3149.2
804.591	3214.69
804.775	3156.95
804.958	3196.28
805.142	3342.37
805.326	3202.87
805.509	3227.86
805.693	3288.5
805.876	3246.07
806.06	3232.51
806.243	3269.32
806.427	3285.79
806.61	3326.48
806.794	3241.23
806.977	3292.19
807.16	3243.55
807.344	3295.87
807.527	3221.08
807.71	3202.29
807.894	3190.08
808.077	3236.39
808.26	3182.72
808.444	3136.22
808.627	3260.99
808.81	3154.04
808.993	3123.82
809.177	3122.27
809.36	3161.79
809.543	3136.61
809.726	3040.7
809.909	3061.04
810.092	3012.8
810.276	3030.43
810.459	3050.19
810.642	3026.56
810.825	2976.18
811.008	3032.37
811.191	2912.05
811.374	2908.18
811.557	2952.93
811.74	2992.85
811.923	2873.69
812.106	2858.77
812.289	2857.22
812.472	2857.42
812.654	2889
812.837	2805.88
813.02	2779.92
813.203	2766.36
813.386	2627.63
813.569	2626.86
813.751	2559.24
813.934	2631.12
814.117	2591.01
814.3	2501.12
814.482	2488.52
814.665	2468.95
814.848	2405.6
815.03	2378.86
815.213	2354.64
815.396	2338.37
815.578	2315.7
815.761	2243.04
815.943	2376.92
816.126	2245.95
816.309	2241.69
816.491	2140.55
816.674	2081.65
816.856	2159.35
817.039	2084.36
817.221	2208.94
817.403	2134.74
817.586	2119.24
817.768	2153.92
817.951	2098.31
818.133	2074.48
818.315	2100.64
818.498	2171.55
818.68	2208.36
818.862	2152.76
819.045	2164.96
819.227	2187.83
819.409	2118.66
819.591	2179.69
819.774	2143.26
819.956	2122.92
820.138	2195.58
820.32	2176.78
820.502	2260.67
820.684	2307.95
820.866	2304.66
821.048	2360.26
821.231	2369.37
821.413	2396.1
821.595	2321.12
821.777	2349.02
821.959	2338.95
822.141	2429.43
822.323	2275.59
822.505	2220.76
822.686	2165.93
822.868	2041.55
823.05	1950.29
823.232	1948.35
823.414	1852.64
823.596	1942.93
823.778	1865.82
823.96	1973.54
824.141	1955.72
824.323	1965.6
824.505	2050.07
824.687	2064.22
824.868	2154.89
825.05	2206.04
825.232	2293.42
825.413	2368.79
825.595	2292.06
825.777	2205.46
825.958	2280.24
826.14	2226.77
826.321	2332.17
826.503	2251.38
826.685	2284.7
826.866	2285.86
827.048	2305.24
827.229	2237.23
827.411	2232.97
827.592	2183.56
827.773	2115.36
827.955	2113.81
828.136	2101.41
828.318	2067.51
828.499	2105.48
828.68	2037.09
828.862	2076.42
829.043	2115.95
829.224	2072.93
829.406	2037.87
829.587	2027.4
829.768	2066.93
829.949	2083.01
830.131	2062.86
830.312	2100.64
830.493	2100.06
830.674	2057.05
830.855	2047.36
831.036	2039.42
831.218	2082.62
831.399	2139.2
831.58	2054.14
831.761	2090.37
831.942	2069.83
832.123	2029.73
832.304	2005.51
832.485	1976.06
832.666	2043.29
832.847	2046.39
833.028	2059.18
833.209	2048.91
833.389	2031.86
833.57	1963.66
833.751	2021.01
833.932	2095.8
834.113	2018.3
834.294	2002.99
834.475	2076.23
834.655	2083.98
834.836	2102.77
835.017	2097.35
835.198	2021.98
835.378	2049.1
835.559	2120.4
835.74	2035.93
835.92	2061.5
836.101	1997.18
836.281	2090.18
836.462	2080.1
836.643	2117.69
836.823	2129.51
837.004	2097.35
837.184	2156.63
837.365	2150.05
837.545	2169.81
837.726	2071.19
837.906	2133.19
838.087	2100.64
838.267	2077.97
838.448	2054.72
838.628	2109.36
838.808	2077.2
838.989	2126.02
839.169	2025.08
839.349	2086.11
839.53	2151.6
839.71	2096.76
839.89	2073.9
840.07	2102.58
840.251	2051.43
840.431	2138.23
840.611	2073.9
840.791	2028.76
840.971	2089.98
841.151	2052.01
841.332	2039.03
841.512	2135.9
841.692	1984.2
841.872	2071.77
842.052	2060.15
842.232	2103.55
842.412	1979.16
842.592	2009.77
842.772	2086.3
842.952	2043.68
843.132	2019.07
843.312	1985.55
843.492	1971.22
843.672	2044.07
843.851	1957.46
844.031	2030.31
844.211	2011.52
844.391	1957.65
844.571	2018.1
844.751	2009
844.93	2010.55
845.11	1986.52
845.29	1977.22
845.47	2055.11
845.649	1966.18
845.829	2043.1
846.009	1986.14
846.188	1997.57
846.368	1976.25
846.547	1955.72
846.727	2004.73
846.907	1934.99
847.086	1949.13
847.266	1996.79
847.445	1981.29
847.625	1940.8
847.804	1960.95
847.984	1932.27
848.163	1888.68
848.343	1946.22
848.522	1951.26
848.701	1935.76
848.881	1913.67
849.06	1957.46
849.239	1939.05
849.419	1914.25
849.598	1840.82
849.777	1844.12
849.957	1832.49
850.136	1778.63
850.315	1746.66
850.494	1744.34
850.674	1733.1
850.853	1829.59
851.032	1771.66
851.211	1865.62
851.39	1833.85
851.569	1766.04
851.748	1781.54
851.927	1879.57
852.107	1802.46
852.286	1743.76
852.465	1746.08
852.644	1859.81
852.823	1782.89
853.002	1789.09
853.181	1766.43
853.359	1825.71
853.538	1694.55
853.717	1820.09
853.896	1671.68
854.075	1604.84
854.254	1591.28
854.433	1507.97
854.611	1588.18
854.79	1491.89
854.969	1557.57
855.148	1556.99
855.327	1554.27
855.505	1624.6
855.684	1599.22
855.863	1600.77
856.041	1582.17
856.22	1642.04
856.399	1604.45
856.577	1699.97
856.756	1711.21
856.934	1821.26
857.113	1801.11
857.291	1719.93
857.47	1677.88
857.648	1714.89
857.827	1713.73
858.005	1750.15
858.184	1681.18
858.362	1789.68
858.541	1728.65
858.719	1707.53
858.898	1678.27
859.076	1670.71
859.254	1780.57
859.433	1654.25
859.611	1670.91
859.789	1637.97
859.967	1754.41
860.146	1731.16
860.324	1625.38
860.502	1656.96
860.68	1606.78
860.859	1609.88
861.037	1634.48
861.215	1649.4
861.393	1650.76
861.571	1645.91
861.749	1572.48
861.927	1661.8
862.105	1623.63
862.283	1618.98
862.461	1576.17
862.639	1587.98
862.817	1586.24
862.995	1630.03
863.173	1575.39
863.351	1569
863.529	1631.58
863.707	1658.12
863.885	1592.44
864.063	1538.97
864.241	1562.22
864.418	1637.78
864.596	1531.41
864.774	1526.37
864.952	1581.4
865.129	1612.01
865.307	1523.47
865.485	1462.24
865.663	1592.83
865.84	1443.26
866.018	1483.94
866.196	1345.41
866.373	1372.93
866.551	1331.46
866.728	1309.57
866.906	1339.21
867.084	1386.68
867.261	1396.76
867.439	1423.69
867.616	1438.99
867.794	1446.36
867.971	1478.71
868.149	1470.77
868.326	1515.14
868.503	1476.97
868.681	1433.18
868.858	1452.17
869.035	1373.7
869.213	1454.88
869.39	1439.38
869.567	1513
869.745	1419.04
869.922	1485.69
870.099	1461.08
870.276	1467.67
870.454	1482.39
870.631	1509.13
870.808	1424.85
870.985	1465.34
871.162	1505.06
871.339	1484.14
871.517	1372.15
871.694	1382.61
871.871	1432.99
872.048	1406.25
872.225	1426.21
872.402	1445.97
872.579	1378.35
872.756	1415.36
872.933	1389.78
873.11	1396.56
873.287	1409.35
873.463	1396.76
873.64	1364.98
873.817	1434.34
873.994	1370.99
874.171	1348.32
874.348	1343.28
874.524	1306.28
874.701	1382.42
874.878	1288.06
875.055	1376.99
875.231	1332.63
875.408	1371.57
875.585	1293.1
875.762	1336.89
875.938	1321
876.115	1311.12
876.291	1324.68
876.468	1305.5
876.645	1274.89
876.821	1253.19
876.998	1309.38
877.174	1322.74
877.351	1290
877.527	1270.05
877.704	1296.39
877.88	1294.85
878.057	1240.79
878.233	1334.18
878.409	1302.01
878.586	1314.8
878.762	1261.13
878.938	1271.98
879.115	1190.22
879.291	1252.61
879.467	1202.62
879.644	1240.79
879.82	1306.08
879.996	1242.15
880.172	1191
880.349	1197.78
880.525	1256.48
880.701	1191.38
880.877	1172.59
881.053	1233.62
881.229	1200.49
881.405	1251.83
881.581	1173.37
881.757	1194.87
881.933	1249.9
882.109	1268.88
882.285	1215.41
882.461	1169.88
882.637	1232.07
882.813	1161.55
882.989	1235.17
883.165	1263.65
883.341	1203.98
883.517	1261.13
883.693	1223.35
883.869	1261.71
884.044	1179.37
884.22	1211.53
884.396	1267.91
884.572	1252.41
884.747	1284.19
884.923	1218.7
885.099	1255.32
885.275	1261.13
885.45	1185.57
885.626	1200.3
885.801	1165.23
885.977	1204.56
886.153	1138.49
886.328	1192.55
886.504	1150.12
886.679	1202.82
886.855	1171.23
887.03	1219.28
887.206	1222.38
887.381	1216.38
887.557	1255.51
887.732	1246.6
887.908	1231.88
888.083	1228.2
888.258	1202.82
888.434	1185.57
888.609	1194.1
888.784	1255.13
888.96	1189.83
889.135	1180.92
889.31	1153.41
889.485	1208.24
889.661	1202.62
889.836	1270.24
890.011	1229.36
890.186	1229.36
890.361	1197.2
890.537	1240.79
890.712	1191.19
890.887	1238.66
891.062	1217.35
891.237	1226.26
891.412	1183.63
891.587	1215.8
891.762	1254.74
891.937	1233.62
892.112	1151.28
892.287	1182.47
892.462	1165.62
892.637	1117.95
892.812	1097.8
892.987	1135
893.161	1103.81
893.336	1104.2
893.511	1136.17
893.686	1121.25
893.861	1104.97
894.035	1141.59
894.21	1136.75
894.385	1062.74
894.56	1139.46
894.734	1067.58
894.909	1049.56
895.084	1061.96
895.258	1020.31
895.433	1028.83
895.608	1021.27
895.782	937.77
895.957	993.37
896.131	1006.16
896.306	923.63
896.48	954.04
896.655	930.99
896.829	862.21
897.004	850.78
897.178	892.63
897.353	844.38
897.527	917.62
897.701	874.22
897.876	822.68
898.05	919.17
898.224	938.54
898.399	942.61
898.573	861.63
898.747	740.92
898.921	818.42
899.096	709.15
899.27	734.53
899.444	726.2
899.618	786.26
899.792	777.15
899.967	773.47
900.141	819
900.315	731.43
900.489	753.71
900.663	797.3
900.837	780.64
901.011	716.12
901.185	873.83
901.359	772.11
901.533	762.82
901.707	788.58
901.881	781.22
902.055	732.4
902.229	753.9
902.403	823.26
902.576	801.76
902.75	785.68
902.924	888.36
903.098	827.53
903.272	868.02
903.446	914.91
903.619	877.71
903.793	928.47
903.967	906.58
904.14	975.74
904.314	960.63
904.488	921.49
904.661	957.92
904.835	946.29
905.009	983.69
905.182	1001.32
905.356	942.61
905.529	926.92
905.703	908.13
905.876	894.18
906.05	886.04
906.223	846.9
906.397	766.11
906.57	814.93
906.744	773.08
906.917	791.1
907.09	788
907.264	762.82
907.437	739.95
907.61	686.28
907.784	751.97
907.957	733.56
908.13	680.09
908.304	746.15
908.477	692.87
908.65	692.48
908.823	681.05
908.996	758.36
909.17	684.54
909.343	670.59
909.516	705.08
909.689	703.33
909.862	665.17
910.035	672.34
910.208	649.67
910.381	672.53
910.554	746.93
910.727	679.89
910.9	688.42
911.073	654.32
911.246	726.58
911.419	765.92
911.592	700.62
911.765	647.73
911.938	658.39
912.11	675.44
912.283	673.5
912.456	747.51
912.629	686.67
912.802	649.86
912.974	662.45
913.147	587.09
913.32	551.63
913.493	572.17
913.665	602.97
913.838	586.51
914.01	598.9
914.183	587.86
914.356	599.68
914.528	630.49
914.701	717.28
914.873	658.39
915.046	628.35
915.218	562.29
915.391	501.26
915.563	510.94
915.736	564.42
915.908	624.67
916.081	591.16
916.253	587.09
916.425	591.74
916.598	570.42
916.77	622.54
916.942	564.61
917.115	498.54
917.287	609.95
917.459	549.5
917.632	523.15
917.804	485.56
917.976	550.66
918.148	547.95
918.32	555.89
918.493	615.76
918.665	653.54
918.837	586.51
919.009	669.62
919.181	628.74
919.353	619.64
919.525	623.7
919.697	587.67
919.869	563.84
920.041	646.57
920.213	728.91
920.385	646.95
920.557	609.37
920.729	632.81
920.901	620.22
921.073	620.22
921.244	601.81
921.416	635.33
921.588	601.04
921.76	601.81
921.932	685.9
922.103	601.23
922.275	607.24
922.447	607.82
922.619	525.09
922.79	567.71
922.962	552.6
923.134	614.79
923.305	552.79
923.477	534
923.648	553.37
923.82	535.16
923.991	488.08
924.163	474.13
924.335	530.51
924.506	489.44
924.677	585.15
924.849	509.97
925.02	543.3
925.192	543.3
925.363	530.32
925.535	567.71
925.706	509.01
925.877	589.61
926.049	490.99
926.22	544.27
926.391	541.94
926.562	537.49
926.734	502.81
926.905	515.21
927.076	476.07
927.247	503
927.419	440.81
927.59	461.73
927.761	458.24
927.932	429.96
928.103	446.81
928.274	420.27
928.445	397.02
928.616	388.69
928.787	409.61
928.958	460.38
929.129	421.82
929.3	390.63
929.471	317.58
929.642	288.33
929.813	245.7
929.984	357.3
930.155	270.5
930.326	315.45
930.496	287.94
930.667	200.75
930.838	289.68
931.009	204.05
931.18	254.62
931.35	225.94
931.521	262.17
931.692	175.95
931.863	119.96
932.033	222.84
932.204	202.69
932.374	187.58
932.545	154.45
932.716	231.56
932.886	189.32
933.057	110.86
933.227	140.5
933.398	213.74
933.568	130.62
933.739	54.48
933.909	100.39
934.08	162.78
934.25	48.08
934.421	74.82
934.591	138.56
934.761	95.16
934.932	35.29
935.102	122.29
935.272	103.88
935.443	111.24
935.613	62.23
935.783	114.54
935.953	74.43
936.123	263.33
936.294	59.13
936.464	75.79
936.634	109.11
936.804	45.56
936.974	19.79
937.144	120.54
937.314	82.96
937.484	77.92
937.655	40.53
937.825	118.61
937.995	46.34
938.165	143.79
938.334	76.95
938.504	119.57
938.674	98.84
938.844	138.37
939.014	171.5
939.184	165.49
939.354	217.8
939.524	201.34
939.694	150.77
939.863	167.04
940.033	215.09
940.203	221.49
940.373	177.12
940.542	200.75
940.712	157.16
940.882	216.45
941.051	212.96
941.221	182.15
941.391	185.84
941.56	139.53
941.73	123.84
941.899	283.48
942.069	147.09
942.238	192.62
942.408	107.37
942.577	202.11
942.747	152.71
942.916	99.23
943.086	136.04
943.255	184.87
943.425	161.23
943.594	151.54
943.763	40.91
943.933	76.56
944.102	31.42
944.271	101.56
944.441	133.72
944.61	119.57
944.779	128.1
944.948	222.65
945.117	85.28
945.287	99.81
945.456	59.13
945.625	93.03
945.794	128.49
945.963	104.46
946.132	127.71
946.301	110.47
946.47	132.17
946.639	63.97
946.808	104.46
946.977	148.83
947.146	157.36
947.315	110.86
947.484	147.09
947.653	125
947.822	97.68
947.991	99.04
948.16	203.66
948.329	177.31
948.498	127.32
948.666	138.56
948.835	168.01
949.004	78.31
949.173	90.32
949.341	119.38
949.51	130.23
949.679	191.84
949.847	136.24
950.016	195.14
950.185	185.06
950.353	77.72
950.522	97.87
950.69	176.34
950.859	110.08
951.028	160.26
951.196	138.17
951.365	100.2
951.533	129.07
951.701	133.33
951.87	148.83
952.038	70.36
952.207	93.81
952.375	208.12
952.543	114.73
952.712	104.85
952.88	90.9
953.048	180.8
953.217	126.74
953.385	131.78
953.553	186.61
953.721	98.26
953.89	104.07
954.058	74.04
954.226	87.22
954.394	114.54
954.562	83.15
954.73	138.37
954.898	104.07
955.067	134.3
955.235	95.16
955.403	147.47
955.571	179.25
955.739	139.72
955.907	56.99
956.075	100.01
956.243	79.66
956.41	119.96
956.578	68.43
956.746	89.74
956.914	88.96
957.082	133.14
957.25	156.58
957.418	79.27
957.585	123.06
957.753	163.36
957.921	85.86
958.089	120.54
958.256	135.85
958.424	111.24
958.592	141.86
958.759	106.98
958.927	154.45
959.095	74.82
959.262	124.81
959.43	107.37
959.597	62.23
959.765	101.75
959.932	80.24
960.1	154.45
960.267	118.41
960.435	135.66
960.602	170.53
960.77	95.74
960.937	54.86
961.104	107.37
961.272	55.44
961.439	103.69
961.606	148.83
961.774	161.42
961.941	105.04
962.108	142.44
962.275	115.51
962.443	169.56
962.61	112.99
962.777	204.63
962.944	165.49
963.111	140.89
963.278	139.34
963.446	140.5
963.613	117.83
963.78	141.08
963.947	135.66
964.114	112.02
964.281	191.65
964.448	143.6
964.615	128.87
964.782	155.03
964.949	180.99
965.116	163.55
965.282	183.7
965.449	97.87
965.616	92.84
965.783	162.2
965.95	137.79
966.117	99.04
966.283	114.34
966.45	148.44
966.617	143.6
966.784	180.22
966.95	162.59
967.117	156.77
967.284	124.22
967.45	125.77
967.617	207.92
967.784	167.82
967.95	192.04
968.117	126.16
968.283	203.66
968.45	234.27
968.616	163.75
968.783	174.99
968.949	164.33
969.116	167.24
969.282	150.96
969.449	157.94
969.615	161.23
969.781	112.41
969.948	126.16
970.114	111.44
970.28	201.53
970.447	113.57
970.613	207.92
970.779	141.08
970.945	161.42
971.112	143.79
971.278	117.83
971.444	138.56
971.61	179.44
971.776	132.17
971.942	167.24
972.108	168.98
972.275	143.41
972.441	134.88
972.607	197.85
972.773	136.82
972.939	151.54
973.105	128.87
973.271	93.22
973.437	123.06
973.602	115.51
973.768	152.51
973.934	146.51
974.1	151.35
974.266	56.22
974.432	143.41
974.598	133.91
974.763	169.17
974.929	124.81
975.095	206.18
975.261	119.38
975.426	114.34
975.592	148.83
975.758	193.39
975.923	69.78
976.089	88.96
976.255	165.3
976.42	147.28
976.586	124.42
976.751	142.24
976.917	226.52
977.082	180.41
977.248	93.22
977.413	80.63
977.579	129.65
977.744	129.65
977.91	92.06
978.075	109.31
978.24	137.98
978.406	144.37
978.571	118.22
978.736	107.17
978.902	142.82
979.067	96.91
979.232	65.91
979.397	136.43
979.563	168.59
979.728	77.34
979.893	95.55
980.058	86.06
980.223	140.5
980.388	149.41
980.554	127.71
980.719	102.52
980.884	138.17
981.049	135.46
981.214	89.93
981.379	117.44
981.544	116.86
981.709	114.15
981.874	96.32
982.039	120.93
982.204	124.81
982.368	108.34
982.533	107.37
982.698	143.41
982.863	146.7
983.028	88.19
983.193	112.41
983.357	129.65
983.522	121.51
983.687	127.52
983.852	89.93
984.016	125.97
984.181	122.67
984.346	138.37
984.51	151.16
984.675	94.97
984.839	125.77
985.004	119.96
985.168	145.34
985.333	141.27
985.498	103.3
985.662	136.62
985.827	169.95
985.991	146.12
986.155	91.48
986.32	140.31
986.484	186.03
986.649	131.97
986.813	80.24
986.977	131.39
987.142	154.26
987.306	69.01
987.47	82.76
987.634	104.07
987.799	110.66
987.963	111.63
988.127	139.92
988.291	181.19
988.455	93.61
988.62	99.04
988.784	142.63
988.948	141.86
989.112	64.36
989.276	109.89
989.44	110.47
989.604	73.07
989.768	88.19
989.932	185.06
990.096	76.76
990.26	71.14
990.424	94.58
990.588	122.87
990.752	171.11
990.915	149.99
991.079	89.35
991.243	96.71
991.407	120.74
991.571	129.26
991.734	151.74
991.898	130.23
992.062	181.19
992.226	103.69
992.389	51.76
992.553	63.78
992.717	82.76
992.88	79.66
993.044	96.13
993.207	79.27
993.371	126.36
993.535	127.71
993.698	107.17
993.862	126.74
994.025	135.85
994.189	93.81
994.352	112.41
994.515	102.33
994.679	134.69
994.842	89.54
995.006	112.6
995.169	74.43
995.332	76.37
995.496	97.87
995.659	58.16
995.822	99.23
995.985	111.05
996.149	163.94
996.312	77.53
996.475	158.13
996.638	80.82
996.801	152.71
996.964	167.24
997.128	82.76
997.291	88.38
997.454	128.68
997.617	76.37
997.78	104.46
997.943	33.36
998.106	125.39
998.269	75.4
998.432	75.59
998.595	75.79
998.758	37.81
998.92	57.38
999.083	27.16
999.246	73.66
999.409	36.07
999.572	27.16
999.735	46.14
999.897	100.78
1000.06	68.81
1000.223	59.13
1000.386	112.41
1000.548	115.31
1000.711	98.46
1000.874	90.71
1001.036	22.31
1001.199	145.92
1001.361	59.51
1001.524	74.43
1001.687	120.74
1001.849	76.76
1002.012	86.06
1002.174	84.51
1002.337	104.66
1002.499	71.72
1002.661	111.05
1002.824	50.21
1002.986	51.57
1003.149	87.99
1003.311	28.71
1003.473	126.74
1003.636	67.65
1003.798	99.04
1003.96	97.29
1004.123	56.99
1004.285	48.28
1004.447	80.63
1004.609	72.11
1004.771	130.42
1004.933	28.9
1005.096	27.74
1005.258	20.18
1005.42	39.36
1005.582	126.74
1005.744	75.79
1005.906	25.61
1006.068	60.87
1006.23	27.74
1006.392	12.63
1006.554	2.74
1006.716	87.02
1006.878	121.9
1007.04	21.73
1007.202	42.08
1007.363	59.51
1007.525	80.63
1007.687	111.44
1007.849	115.12
1008.011	14.37
1008.172	15.92
1008.334	38.39
1008.496	95.55
1008.658	18.05
1008.819	18.83
1008.981	12.04
1009.143	32
1009.304	45.18
1009.466	79.66
1009.627	105.82
1009.789	168.2
1009.95	83.92
1010.112	31.03
1010.273	59.32
1010.435	31.81
1010.596	71.33
1010.758	25.61
1010.919	39.56
1011.081	22.51
1011.242	50.79
1011.403	87.41
1011.565	34.91
1011.726	71.91
1011.887	21.73
1012.049	28.13
1012.21	73.46
1012.371	97.1
1012.532	-28.84
1012.693	36.07
1012.855	14.76
1013.016	28.9
1013.177	71.14
1013.338	48.66
1013.499	102.33
1013.66	55.06
1013.821	87.61
1013.982	66.1
1014.143	28.32
1014.304	38.39
1014.465	65.13
1014.626	87.99
1014.787	33.74
1014.948	116.47
1015.109	-17.79
1015.27	84.31
1015.431	30.45
1015.592	11.46
1015.752	94.97
1015.913	45.18
1016.074	57.38
1016.235	63.78
1016.395	23.86
1016.556	66.29
1016.717	27.74
1016.877	98.26
1017.038	26.96
1017.199	49.05
1017.359	52.54
1017.52	67.65
1017.681	28.71
1017.841	62.81
1018.002	34.71
1018.162	13.21
1018.323	90.71
1018.483	25.03
1018.644	17.47
1018.804	-30.77
1018.964	5.84
1019.125	20.38
1019.285	65.71
1019.446	14.76
1019.606	25.8
1019.766	-6.75
1019.926	61.26
1020.087	44.21
1020.247	-5.01
1020.407	78.69
1020.567	95.55
1020.728	6.62
1020.888	1.19
1021.048	31.42
1021.208	6.81
1021.368	1.78
1021.528	87.99
1021.688	72.11
1021.848	43.82
1022.008	23.28
1022.168	19.79
1022.328	30.06
1022.488	59.51
1022.648	11.08
1022.808	44.21
1022.968	41.88
1023.128	27.93
1023.288	22.12
1023.448	37.23
1023.608	43.24
1023.767	29.29
1023.927	10.88
1024.087	-27.29
1024.247	-4.62
1024.406	16.31
1024.566	-18.76
1024.726	-14.5
1024.885	32.39
1025.045	55.06
1025.205	33.94
1025.364	25.03
1025.524	32.19
1025.683	22.89
1025.843	54.48
1026.003	27.35
1026.162	95.16
1026.321	78.11
1026.481	51.38
1026.64	19.6
1026.8	40.72
1026.959	38.78
1027.119	43.63
1027.278	6.43
1027.437	13.98
1027.597	62.81
1027.756	31.23
1027.915	56.61
1028.074	46.14
1028.234	13.79
1028.393	11.85
1028.552	9.53
1028.711	-67
1028.87	71.72
1029.03	13.59
1029.189	42.85
1029.348	-54.6
1029.507	1.78
1029.666	12.24
1029.825	3.91
1029.984	-14.31
1030.143	40.33
1030.302	8.36
1030.461	-46.66
1030.62	19.79
1030.779	36.26
1030.938	1.97
1031.097	-7.14
1031.255	34.52
1031.414	74.04
1031.573	81.41
1031.732	-38.33
1031.891	-7.14
1032.049	68.43
1032.208	52.54
1032.367	-5.97
1032.525	8.36
1032.684	23.48
1032.843	20.18
1033.001	-40.46
1033.16	163.94
1033.319	46.53
1033.477	47.89
1033.636	21.93
1033.794	-14.11
1033.953	40.14
1034.111	58.54
1034.27	7.39
1034.428	42.46
1034.587	4.88
1034.745	28.51
1034.903	34.91
1035.062	58.74
1035.22	2.36
1035.378	57.19
1035.537	-18.76
1035.695	39.36
1035.853	-6.56
1036.011	46.53
1036.17	25.22
1036.328	-46.66
1036.486	26.38
1036.644	35.1
1036.802	-59.25
1036.96	-1.91
1037.119	-16.82
1037.277	-7.91
1037.435	-18.95
1037.593	-40.46
1037.751	4.49
1037.909	42.66
1038.067	42.66
