Data from gum_old_FLMT105791__179__15-48-06-249.txt Node

Date: Mon Mar 20 15:48:06 GMT 2023
User: antho
Spectrometer: FLMT10579
Trigger mode: 0
Integration Time (sec): 1.000000E-1
Scans to average: 10
Electric dark correction enabled: true
Nonlinearity correction enabled: false
Boxcar width: 0
XAxis mode: Wavelengths
Number of Pixels in Spectrum: 3648
>>>>>Begin Spectral Data<<<<<
345.248	-181.15
345.464	-181.15
345.681	-181.15
345.898	-192.58
346.114	-167.98
346.331	-37.78
346.548	44.56
346.764	-23.44
346.981	-6.39
347.197	-17.44
347.414	32.74
347.631	-35.46
347.847	75.76
348.064	3.29
348.28	32.55
348.497	-78.47
348.713	10.07
348.93	41.27
349.146	35.65
349.363	-16.08
349.579	41.07
349.796	1.36
350.012	-2.91
350.229	44.56
350.445	4.07
350.661	-6.97
350.878	17.05
351.094	59.67
351.311	32.55
351.527	26.74
351.743	28.67
351.96	57.74
352.176	58.51
352.392	53.47
352.609	69.56
352.825	21.31
353.041	22.28
353.257	27.51
353.474	13.76
353.69	42.04
353.906	43.59
354.122	3.29
354.339	87.38
354.555	42.04
354.771	8.52
354.987	102.3
355.203	80.99
355.42	2.13
355.636	32.55
355.852	-1.36
356.068	29.45
356.284	-3.87
356.5	96.87
356.716	52.31
356.932	25.96
357.148	46.11
357.364	16.86
357.58	91.06
357.796	107.14
358.012	74.59
358.228	42.43
358.444	-31.39
358.66	74.21
358.876	10.85
359.092	22.09
359.308	34.1
359.524	47.08
359.74	35.84
359.956	28.09
360.172	42.82
360.388	50.76
360.604	27.71
360.819	114.5
361.035	57.74
361.251	68.78
361.467	6.59
361.683	80.6
361.898	37.59
362.114	59.09
362.33	42.24
362.546	71.88
362.762	72.07
362.977	28.48
363.193	4.84
363.409	81.76
363.624	21.51
363.84	1.94
364.056	-1.36
364.271	58.71
364.487	38.94
364.703	36.62
364.918	39.14
365.134	52.51
365.35	42.24
365.565	155
365.781	43.4
365.996	86.02
366.212	126.52
366.427	53.86
366.643	16.08
366.858	67.23
367.074	43.4
367.289	97.84
367.505	142.79
367.72	16.86
367.936	40.69
368.151	103.46
368.367	58.9
368.582	45.92
368.798	58.71
369.013	99.97
369.228	68.01
369.444	65.87
369.659	102.88
369.874	78.66
370.09	115.67
370.305	22.86
370.52	68.39
370.736	106.17
370.951	83.12
371.166	112.76
371.381	165.27
371.597	111.21
371.812	54.64
372.027	37.97
372.242	65.1
372.458	147.83
372.673	30.81
372.888	64.13
373.103	70.33
373.318	166.82
373.533	109.47
373.749	55.41
373.964	19.76
374.179	117.22
374.394	7.94
374.609	107.53
374.824	-0.58
375.039	108.3
375.254	33.52
375.469	124.19
375.684	71.88
375.899	119.54
376.114	50.96
376.329	90.48
376.544	95.32
376.759	105.59
376.974	37.59
377.189	65.68
377.404	67.62
377.619	136.59
377.834	47.27
378.049	59.67
378.264	31.39
378.478	98.23
378.693	55.22
378.908	95.71
379.123	69.17
379.338	130
379.553	87.57
379.767	87.96
379.982	119.74
380.197	104.24
380.412	77.89
380.626	109.27
380.841	155.39
381.056	101.52
381.271	167.59
381.485	88.74
381.7	32.36
381.915	80.02
382.129	56.19
382.344	78.86
382.559	74.21
382.773	106.37
382.988	26.54
383.202	90.87
383.417	60.26
383.632	166.24
383.846	85.25
384.061	103.46
384.275	57.35
384.49	88.15
384.704	81.96
384.919	82.92
385.133	114.31
385.348	121.67
385.562	39.14
385.777	141.05
385.991	94.74
386.206	66.65
386.42	76.14
386.634	145.31
386.849	125.16
387.063	115.09
387.277	60.45
387.492	80.79
387.706	68.2
387.92	67.42
388.135	134.07
388.349	102.1
388.563	117.6
388.778	93.19
388.992	129.04
389.206	132.72
389.42	169.92
389.635	108.11
389.849	139.69
390.063	152.87
390.277	148.41
390.491	175.15
390.706	148.22
390.92	153.06
391.134	145.89
391.348	154.42
391.562	91.84
391.776	121.48
391.99	122.84
392.205	148.6
392.419	96.49
392.633	122.84
392.847	150.93
393.061	105.98
393.275	159.45
393.489	101.72
393.703	112.57
393.917	119.74
394.131	63.55
394.345	131.36
394.559	155.77
394.773	146.86
394.986	134.85
395.2	155.97
395.414	161.97
395.628	146.47
395.842	171.47
396.056	129.42
396.27	99.2
396.484	155.39
396.697	127.29
396.911	177.28
397.125	124.58
397.339	161.97
397.553	151.51
397.766	198.59
397.98	167.2
398.194	203.43
398.408	132.91
398.621	186.97
398.835	234.63
399.049	185.8
399.262	256.52
399.476	201.5
399.69	246.06
399.903	268.34
400.117	209.25
400.331	239.86
400.544	177.08
400.758	332.47
400.971	213.51
401.185	233.08
401.398	200.92
401.612	282.29
401.826	271.83
402.039	259.43
402.253	212.54
402.466	245.67
402.68	220.68
402.893	265.43
403.106	274.15
403.32	225.52
403.533	254
403.747	231.53
403.96	282.68
404.174	280.35
404.387	218.35
404.6	238.12
404.814	300.7
405.027	250.32
405.24	238.89
405.454	236.76
405.667	300.7
405.88	184.64
406.094	266.4
406.307	305.15
406.52	262.33
406.733	221.65
406.947	211.18
407.16	315.61
407.373	320.07
407.586	219.9
407.799	227.65
408.012	273.38
408.226	267.56
408.439	334.8
408.652	234.24
408.865	311.93
409.078	322.01
409.291	288.68
409.504	250.9
409.717	330.34
409.93	332.08
410.143	280.16
410.357	243.73
410.57	209.63
410.783	263.3
410.996	272.99
411.209	326.46
411.421	346.61
411.634	309.8
411.847	287.71
412.06	342.55
412.273	334.99
412.486	308.45
412.699	395.44
412.912	320.46
413.125	337.7
413.338	323.17
413.55	336.15
413.763	305.35
413.976	349.33
414.189	290.81
414.402	330.73
414.615	401.06
414.827	289.26
415.04	353.59
415.253	354.94
415.466	380.33
415.678	395.83
415.891	321.81
416.104	331.31
416.316	308.83
416.529	300.7
416.742	357.85
416.954	389.43
417.167	362.89
417.38	355.91
417.592	384.2
417.805	320.26
418.017	298.56
418.23	369.86
418.442	305.93
418.655	342.35
418.868	346.42
419.08	372.58
419.293	397.76
419.505	345.65
419.718	362.31
419.93	411.13
420.142	334.8
420.355	391.37
420.567	403.19
420.78	341.58
420.992	340.41
421.205	420.24
421.417	334.99
421.629	368.12
421.842	363.66
422.054	344.48
422.266	401.64
422.479	435.16
422.691	360.76
422.903	403.77
423.115	349.13
423.328	344.48
423.54	370.25
423.752	358.04
423.964	347.58
424.177	411.91
424.389	369.09
424.601	522.54
424.813	418.49
425.025	435.54
425.238	434.96
425.45	387.69
425.662	380.71
425.874	721.9
426.086	417.33
426.298	425.28
426.51	420.04
426.722	388.46
426.934	412.49
427.146	427.6
427.358	364.24
427.57	444.26
427.782	378.19
427.994	387.88
428.206	369.86
428.418	373.16
428.63	442.52
428.842	434.58
429.054	414.43
429.266	415.59
429.478	386.33
429.69	416.75
429.902	346.03
430.114	411.71
430.325	405.9
430.537	357.08
430.749	336.15
430.961	265.82
431.173	309.22
431.384	371.41
431.596	278.61
431.808	332.66
432.02	425.66
432.231	476.62
432.443	512.85
432.655	484.76
432.867	433.22
433.078	463.06
433.29	501.03
433.502	479.33
433.713	535.32
433.925	511.69
434.136	513.62
434.348	419.66
434.56	383.81
434.771	552.37
434.983	376.26
435.194	462.86
435.406	471.97
435.617	544.24
435.829	575.62
436.04	521.57
436.252	556.05
436.463	572.52
436.675	575.82
436.886	553.73
437.098	554.89
437.309	602.36
437.521	535.13
437.732	579.89
437.943	527.38
438.155	523.51
438.366	478.36
438.578	608.95
438.789	509.36
439	527.96
439.211	485.92
439.423	526.6
439.634	532.03
439.845	572.72
440.057	576.01
440.268	593.06
440.479	537.45
440.69	593.25
440.902	539.59
441.113	554.89
441.324	561.09
441.535	578.14
441.746	669.4
441.957	549.27
442.168	584.73
442.38	614.76
442.591	632.97
442.802	576.98
443.013	585.5
443.224	650.8
443.435	546.56
443.646	603.72
443.857	615.53
444.068	577.95
444.279	609.34
444.49	688.19
444.701	623.67
444.912	733.33
445.123	676.95
445.334	662.81
445.545	640.53
445.756	631.23
445.967	585.89
446.178	635.3
446.388	651.57
446.599	637.23
446.81	646.34
447.021	605.65
447.232	668.04
447.443	665.72
447.653	650.02
447.864	686.25
448.075	688.77
448.286	720.74
448.496	673.85
448.707	722.68
448.918	638.4
449.129	756.2
449.339	632.39
449.55	709.11
449.761	678.5
449.971	717.25
450.182	694.97
450.393	704.08
450.603	684.51
450.814	735.66
451.024	733.72
451.235	744.18
451.446	798.43
451.656	799.21
451.867	713.18
452.077	748.64
452.288	770.15
452.498	767.63
452.709	734.88
452.919	738.37
453.13	685.09
453.34	718.61
453.55	644.6
453.761	728.68
453.971	722.29
454.182	754.26
454.392	731.01
454.602	793.59
454.813	755.42
455.023	765.3
455.233	717.83
455.444	721.9
455.654	658.16
455.864	703.69
456.075	706.79
456.285	707.18
456.495	737.79
456.705	782.55
456.916	817.23
457.126	825.17
457.336	765.11
457.546	695.94
457.756	724.23
457.967	806.76
458.177	762.59
458.387	748.83
458.597	678.7
458.807	745.15
459.017	737.79
459.227	746.31
459.437	728.49
459.647	796.11
459.857	775.57
460.068	724.42
460.278	833.69
460.488	788.74
460.698	820.71
460.908	759.68
461.117	744.76
461.327	758.13
461.537	771.11
461.747	807.34
461.957	803.66
462.167	902.09
462.377	834.47
462.587	813.93
462.797	830.01
463.007	819.36
463.216	826.33
463.426	892.79
463.636	849.97
463.846	765.11
464.056	823.81
464.265	819.36
464.475	767.43
464.685	839.12
464.895	832.73
465.104	810.64
465.314	851.13
465.524	813.35
465.733	783.32
465.943	919.33
466.153	883.29
466.362	896.86
466.572	845.32
466.782	810.64
466.991	873.8
467.201	905.77
467.41	804.83
467.62	876.9
467.829	844.74
468.039	862.95
468.249	864.89
468.458	893.95
468.668	902.86
468.877	892.01
469.086	934.64
469.296	943.74
469.505	867.41
469.715	984.82
469.924	898.99
470.134	942.77
470.343	975.9
470.552	897.82
470.762	891.82
470.971	888.91
471.18	905.96
471.39	899.57
471.599	891.82
471.808	963.7
472.018	909.84
472.227	1002.45
472.436	1021.24
472.645	940.84
472.855	943.55
473.064	1067.93
473.273	1021.44
473.482	997.02
473.691	1045.46
473.901	1038.68
474.11	990.24
474.319	1107.65
474.528	1009.62
474.737	1083.63
474.946	1050.5
475.155	1071.81
475.364	1096.03
475.573	1028.22
475.783	1124.12
475.992	1092.35
476.201	1126.64
476.41	1072.2
476.619	1061.15
476.828	1104.94
477.037	1054.18
477.245	1060.57
477.454	1130.71
477.663	1104.55
477.872	1093.9
478.081	1197.75
478.29	1109.4
478.499	1237.46
478.708	1187.86
478.917	1247.93
479.125	1173.72
479.334	1162.87
479.543	1188.64
479.752	1197.16
479.961	1217.12
480.169	1265.75
480.378	1250.83
480.587	1383.94
480.796	1263.62
481.004	1249.28
481.213	1278.93
481.422	1272.14
481.63	1307.21
481.839	1276.99
482.048	1383.94
482.256	1300.43
482.465	1343.44
482.674	1324.07
482.882	1343.64
483.091	1391.69
483.299	1334.72
483.508	1419.59
483.716	1354.1
483.925	1361.07
484.134	1312.83
484.342	1335.11
484.551	1408.54
484.759	1395.76
484.967	1437.02
485.176	1386.65
485.384	1410.67
485.593	1442.64
485.801	1390.33
486.01	1346.93
486.218	1278.15
486.426	1181.47
486.635	1193.29
486.843	1204.53
487.051	1206.85
487.26	1262.65
487.468	1303.73
487.676	1357.97
487.885	1328.91
488.093	1380.26
488.301	1419
488.509	1415.13
488.717	1480.04
488.926	1439.93
489.134	1435.09
489.342	1465.89
489.55	1393.43
489.758	1470.74
489.967	1435.47
490.175	1569.55
490.383	1517.23
490.591	1608.3
490.799	1495.92
491.007	1575.94
491.215	1539.71
491.423	1513.55
491.631	1544.36
491.839	1512
492.047	1550.37
492.255	1472.87
492.463	1439.54
492.671	1434.31
492.879	1522.66
493.087	1510.65
493.295	1574.2
493.503	1580.2
493.711	1603.26
493.919	1646.27
494.127	1636.78
494.334	1641.43
494.542	1538.16
494.75	1616.82
494.958	1598.41
495.166	1676.3
495.374	1657.7
495.581	1665.64
495.789	1685.6
495.997	1685.02
496.205	1609.07
496.412	1600.55
496.62	1638.71
496.828	1638.52
497.035	1664.68
497.243	1700.13
497.451	1692.77
497.658	1675.33
497.866	1673.59
498.074	1776.47
498.281	1685.99
498.489	1782.86
498.696	1675.14
498.904	1656.35
499.112	1669.71
499.319	1750.51
499.527	1726.29
499.734	1753.61
499.942	1633.1
500.149	1686.18
500.357	1741.4
500.564	1674.94
500.771	1717.76
500.979	1650.15
501.186	1633.87
501.394	1711.95
501.601	1655.18
501.808	1726.48
502.016	1687.54
502.223	1652.08
502.43	1685.02
502.638	1673.59
502.845	1648.6
503.052	1806.5
503.26	1718.73
503.467	1781.51
503.674	1751.09
503.881	1749.34
504.089	1815.99
504.296	1777.63
504.503	1679.79
504.71	1718.34
504.917	1669.91
505.125	1763.49
505.332	1766.78
505.539	1767.94
505.746	1845.64
505.953	1835.95
506.16	1834.4
506.367	1889.42
506.574	1915.39
506.781	1911.9
506.988	1866.17
507.195	1889.04
507.402	1862.3
507.609	1910.15
507.816	1826.07
508.023	1815.41
508.23	1786.35
508.437	1781.31
508.644	1853.39
508.851	1879.93
509.058	1882.64
509.265	1877.41
509.472	1916.55
509.679	1991.33
509.885	1909.57
510.092	1905.31
510.299	1913.84
510.506	1862.88
510.713	1900.08
510.92	1900.27
511.126	1940.96
511.333	1963.43
511.54	1944.83
511.746	1977.38
511.953	2002.57
512.16	1989.59
512.367	1976.8
512.573	1964.6
512.78	1977.97
512.987	1942.7
513.193	1927.01
513.4	1872.57
513.606	1935.73
513.813	1981.65
514.02	1951.23
514.226	2012.84
514.433	1975.45
514.639	1902.99
514.846	1964.6
515.052	1914.8
515.259	1963.24
515.465	1947.16
515.672	1938.83
515.878	2073.68
516.085	2018.46
516.291	2076.2
516.497	1953.36
516.704	1951.62
516.91	1884.97
517.117	1835.56
517.323	1771.24
517.529	1813.47
517.736	1792.55
517.942	1812.31
518.148	1824.71
518.354	1902.6
518.561	1875.09
518.767	1902.99
518.973	1957.62
519.179	1934.57
519.386	1918.29
519.592	1951.62
519.798	1930.69
520.004	2082.4
520.21	2030.47
520.417	2085.5
520.623	2115.33
520.829	2121.73
521.035	2122.11
521.241	2127.15
521.447	2150.01
521.653	2285.83
521.859	2148.85
522.065	2182.95
522.271	2257.54
522.477	2231.19
522.683	2252.51
522.889	2212.98
523.095	2216.47
523.301	2155.63
523.507	2158.73
523.713	2191.47
523.919	2181.4
524.125	2236.81
524.331	2284.28
524.537	2368.95
524.742	2356.94
524.948	2347.64
525.154	2370.3
525.36	2477.06
525.566	2353.45
525.772	2418.55
525.977	2279.63
526.183	2373.21
526.389	2412.93
526.595	2310.24
526.8	2292.42
527.006	2225.19
527.212	2152.34
527.417	2127.73
527.623	2133.16
527.829	2223.06
528.034	2250.57
528.24	2262.39
528.446	2289.12
528.651	2414.28
528.857	2392.97
529.062	2435.79
529.268	2419.13
529.473	2449.16
529.679	2457.68
529.884	2576.84
530.09	2507.48
530.295	2494.5
530.501	2499.15
530.706	2519.1
530.912	2457.3
531.117	2520.65
531.323	2494.5
531.528	2618.49
531.733	2593.31
531.939	2556.3
532.144	2602.99
532.35	2558.43
532.555	2596.99
532.76	2540.61
532.966	2568.51
533.171	2529.37
533.376	2439.67
533.581	2415.45
533.787	2511.93
533.992	2533.05
534.197	2557.27
534.402	2573.74
534.607	2552.62
534.813	2647.75
535.018	2543.32
535.223	2583.43
535.428	2606.68
535.633	2636.32
535.838	2657.63
536.043	2681.85
536.249	2748.3
536.454	2620.82
536.659	2729.12
536.864	2655.11
537.069	2682.62
537.274	2649.69
537.479	2638.45
537.684	2646.39
537.889	2578.58
538.094	2729.12
538.299	2627.99
538.504	2656.27
538.708	2683.79
538.913	2714.2
539.118	2717.3
539.323	2721.18
539.528	2675.84
539.733	2643.29
539.938	2672.94
540.142	2677.97
540.347	2630.89
540.552	2570.64
540.757	2588.08
540.962	2631.86
541.166	2579.16
541.371	2538.67
541.576	2587.11
541.781	2548.55
541.985	2627.6
542.19	2621.21
542.395	2737.45
542.599	2772.52
542.804	2757.6
543.008	2745.2
543.213	2667.9
543.418	2647.56
543.622	2735.9
543.827	2633.61
544.031	2740.36
544.236	2744.62
544.44	2750.63
544.645	2794.8
544.849	2724.47
545.054	2799.65
545.258	2824.83
545.463	2834.72
545.667	2714.01
545.872	2812.24
546.076	2778.92
546.281	2772.14
546.485	2723.5
546.689	2790.74
546.894	2785.5
547.098	2744.62
547.302	2762.45
547.507	2739.2
547.711	2778.72
547.915	2787.25
548.119	2738.81
548.324	2720.79
548.528	2814.18
548.732	2737.84
548.936	2810.11
549.141	2814.95
549.345	2741.91
549.549	2771.17
549.753	2792.87
549.957	2880.83
550.161	2873.27
550.366	2797.13
550.57	2786.86
550.774	2754.31
550.978	2777.95
551.182	2780.85
551.386	2741.33
551.59	2735.13
551.794	2741.52
551.998	2814.18
552.202	2760.9
552.406	2720.6
552.61	2784.92
552.814	2771.17
553.018	2829.68
553.222	2763.42
553.426	2726.22
553.63	2836.07
553.833	2748.3
554.037	2688.63
554.241	2792.29
554.445	2766.13
554.649	2790.54
554.853	2739.59
555.056	2808.75
555.26	2811.27
555.464	2814.95
555.668	2754.5
555.871	2784.73
556.075	2802.55
556.279	2778.14
556.483	2728.74
556.686	2731.25
556.89	2734.94
557.094	2778.92
557.297	2627.02
557.501	2751.79
557.704	2622.37
557.908	2767.49
558.112	2661.12
558.315	2775.24
558.519	2686.5
558.722	2678.75
558.926	2655.5
559.129	2560.95
559.333	2585.75
559.536	2584.98
559.74	2589.82
559.943	2571.99
560.147	2538.09
560.35	2579.74
560.553	2601.25
560.757	2550.49
560.96	2662.28
561.164	2596.21
561.367	2673.52
561.57	2630.12
561.774	2658.21
561.977	2613.07
562.18	2600.86
562.384	2689.79
562.587	2595.44
562.79	2574.32
562.993	2552.43
563.197	2630.12
563.4	2619.46
563.603	2646.97
563.806	2708.2
564.009	2569.09
564.212	2609.19
564.416	2477.06
564.619	2596.99
564.822	2512.9
565.025	2616.56
565.228	2574.9
565.431	2599.31
565.634	2479.96
565.837	2497.21
566.04	2462.91
566.243	2419.52
566.446	2385.03
566.649	2487.91
566.852	2422.42
567.055	2453.03
567.258	2504.96
567.461	2540.99
567.664	2536.73
567.867	2395.68
568.07	2464.46
568.273	2456.52
568.475	2517.16
568.678	2446.06
568.881	2439.47
569.084	2406.73
569.287	2345.31
569.489	2338.53
569.692	2442.38
569.895	2413.32
570.098	2362.36
570.3	2358.1
570.503	2275.37
570.706	2338.92
570.909	2311.99
571.111	2225.19
571.314	2248.44
571.516	2282.15
571.719	2290.09
571.922	2234.29
572.124	2237.78
572.327	2291.25
572.529	2240.3
572.732	2245.14
572.935	2306.56
573.137	2345.7
573.34	2280.02
573.542	2295.13
573.745	2302.49
573.947	2311.6
574.15	2236.23
574.352	2238.36
574.554	2336.79
574.757	2222.47
574.959	2214.14
575.162	2212.4
575.364	2199.03
575.566	2332.14
575.769	2162.8
575.971	2202.13
576.173	2065.54
576.376	2169
576.578	2189.92
576.78	2235.84
576.982	2105.06
577.185	2155.63
577.387	2176.36
577.589	2157.18
577.791	2154.47
577.993	2169.78
578.196	2119.79
578.398	2133.35
578.6	2166.87
578.802	2102.35
579.004	2070.77
579.206	2056.63
579.408	2145.75
579.61	2091.7
579.812	2133.35
580.014	2093.05
580.216	2085.11
580.418	2085.88
580.62	2049.46
580.822	2009.93
581.024	2084.91
581.226	2137.61
581.428	2054.88
581.63	2176.36
581.832	2104.29
582.034	2160.86
582.236	2088.6
582.438	2131.61
582.64	2142.26
582.841	2156.21
583.043	2188.37
583.245	2105.26
583.447	2100.03
583.649	2095.76
583.85	2097.89
584.052	2133.54
584.254	2056.82
584.456	2108.36
584.657	2062.63
584.859	2096.93
585.061	2056.24
585.262	2063.02
585.464	1988.43
585.666	2096.15
585.867	2000.25
586.069	2065.73
586.27	2061.08
586.472	2076.78
586.674	1987.27
586.875	2045
587.077	2018.85
587.278	2052.36
587.48	1986.1
587.681	2131.03
587.883	2023.11
588.084	1979.32
588.285	1994.05
588.487	1971.38
588.688	2010.13
588.89	1913.06
589.091	1884.39
589.292	1867.92
589.494	1850.48
589.695	1786.35
589.896	1740.63
590.098	1708.46
590.299	1783.25
590.5	1767.56
590.702	1782.67
590.903	1865.59
591.104	1907.44
591.305	1867.53
591.507	1955.49
591.708	1900.66
591.909	1904.92
592.11	1969.05
592.311	1895.82
592.512	1900.85
592.714	1833.82
592.915	1853.19
593.116	1855.52
593.317	1884.77
593.518	1898.53
593.719	1870.05
593.92	1891.55
594.121	1929.72
594.322	1890
594.523	1890.78
594.724	1878.57
594.925	1868.3
595.126	1865.98
595.327	1890.78
595.528	1866.17
595.729	1868.11
595.929	1828.2
596.13	1855.9
596.331	1879.54
596.532	1887.87
596.733	1948.52
596.934	1934.18
597.135	1932.82
597.335	1871.6
597.536	1831.3
597.737	1910.54
597.938	1870.82
598.138	1887.29
598.339	1855.9
598.54	1890.78
598.74	1819.09
598.941	1838.66
599.142	1880.51
599.342	1851.45
599.543	1812.7
599.744	1855.52
599.944	1873.73
600.145	1848.93
600.345	1858.62
600.546	1893.49
600.746	1897.75
600.947	1937.47
601.147	1861.14
601.348	1891.36
601.548	1815.8
601.749	1817.93
601.949	1799.33
602.15	1741.98
602.35	1806.11
602.551	1894.65
602.751	1782.86
602.951	1781.51
603.152	1743.73
603.352	1831.11
603.552	1851.64
603.753	1849.7
603.953	1865.01
604.153	1844.67
604.354	1833.43
604.554	1822.58
604.754	1809.99
604.954	1792.16
605.155	1865.4
605.355	1787.71
605.555	1876.05
605.755	1885.35
605.955	1809.99
606.155	1808.63
606.356	1782.28
606.556	1853.58
606.756	1832.27
606.956	1754.96
607.156	1878.77
607.356	1770.66
607.556	1817.54
607.756	1810.57
607.956	1834.4
608.156	1777.24
608.356	1779.18
608.556	1791
608.756	1778.21
608.956	1750.89
609.156	1758.26
609.356	1716.02
609.556	1698.58
609.755	1718.73
609.955	1700.91
610.155	1757.09
610.355	1747.02
610.555	1703.04
610.755	1699.94
610.954	1660.99
611.154	1742.56
611.354	1766.39
611.554	1691.8
611.753	1691.41
611.953	1674.56
612.153	1728.23
612.352	1685.41
612.552	1648.79
612.752	1598.41
612.951	1679.01
613.151	1693.54
613.351	1656.15
613.55	1660.99
613.75	1681.53
613.949	1636
614.149	1666.23
614.348	1660.03
614.548	1611.98
614.747	1593.38
614.947	1608.68
615.146	1546.68
615.346	1669.33
615.545	1629.8
615.745	1638.13
615.944	1665.64
616.144	1637.16
616.343	1619.73
616.542	1597.25
616.742	1600.16
616.941	1574.2
617.14	1530.99
617.34	1569.16
617.539	1594.73
617.738	1563.93
617.938	1640.07
618.137	1534.09
618.336	1544.94
618.535	1587.76
618.734	1579.23
618.934	1589.89
619.133	1587.18
619.332	1580.01
619.531	1564.9
619.73	1563.15
619.929	1630.77
620.128	1576.33
620.328	1670.29
620.527	1551.14
620.726	1526.92
620.925	1605.97
621.124	1561.02
621.323	1603.65
621.522	1529.83
621.721	1580.98
621.92	1494.57
622.119	1554.63
622.318	1496.89
622.517	1521.11
622.715	1517.04
622.914	1486.04
623.113	1513.36
623.312	1443.8
623.511	1562.57
623.71	1509.68
623.909	1482.75
624.107	1598.41
624.306	1447.29
624.505	1506
624.704	1457.56
624.902	1483.14
625.101	1574.2
625.3	1513.94
625.499	1476.55
625.697	1465.89
625.896	1421.52
626.095	1516.07
626.293	1426.56
626.492	1444.97
626.69	1505.42
626.889	1469.57
627.088	1501.54
627.286	1467.83
627.485	1456.59
627.683	1435.28
627.882	1462.6
628.08	1416.1
628.279	1432.76
628.477	1468.41
628.676	1375.22
628.874	1494.18
629.073	1414.55
629.271	1375.02
629.469	1470.15
629.668	1409.51
629.866	1420.94
630.065	1402.92
630.263	1427.34
630.461	1362.82
630.66	1383.55
630.858	1418.81
631.056	1467.25
631.254	1439.15
631.453	1359.33
631.651	1462.79
631.849	1419.59
632.047	1394.59
632.245	1356.04
632.444	1417.65
632.642	1414.16
632.84	1426.37
633.038	1383.94
633.236	1351.39
633.434	1363.21
633.632	1326.59
633.83	1336.86
634.028	1420.55
634.227	1377.74
634.425	1449.81
634.623	1374.44
634.821	1402.34
635.019	1372.51
635.216	1369.41
635.414	1424.24
635.612	1403.31
635.81	1393.24
636.008	1449.04
636.206	1401.76
636.404	1416.29
636.602	1364.56
636.8	1356.23
636.997	1386.65
637.195	1418.81
637.393	1375.99
637.591	1433.73
637.789	1414.35
637.986	1370.96
638.184	1362.24
638.382	1435.67
638.58	1421.72
638.777	1438.57
638.975	1358.17
639.173	1400.99
639.37	1412.22
639.568	1374.06
639.765	1414.94
639.963	1330.46
640.161	1392.85
640.358	1390.33
640.556	1346.16
640.753	1306.44
640.951	1315.93
641.148	1339.76
641.346	1344.41
641.543	1334.53
641.741	1363.98
641.938	1286.68
642.136	1330.46
642.333	1282.99
642.531	1375.8
642.728	1382.97
642.925	1347.32
643.123	1334.92
643.32	1332.21
643.517	1270.01
643.715	1303.92
643.912	1279.89
644.109	1300.82
644.306	1308.96
644.504	1299.46
644.701	1328.52
644.898	1335.11
645.095	1293.84
645.293	1279.89
645.49	1284.74
645.687	1322.91
645.884	1324.07
646.081	1250.64
646.278	1255.87
646.475	1272.34
646.672	1260.91
646.87	1327.17
647.067	1263.81
647.264	1267.88
647.461	1199.49
647.658	1207.05
647.855	1271.95
648.052	1197.36
648.249	1137.68
648.446	1211.5
648.642	1217.9
648.839	1194.45
649.036	1192.51
649.233	1154.15
649.43	1152.6
649.627	1118.5
649.824	1180.7
650.021	1139.62
650.217	1110.56
650.414	1190.38
650.611	1229.13
650.808	1196.78
651.004	1178.56
651.201	1224.09
651.398	1222.55
651.595	1184.96
651.791	1181.66
651.988	1232.43
652.185	1140.2
652.381	1200.65
652.578	1113.66
652.775	1186.12
652.971	1167.91
653.168	1165
653.364	1196.2
653.561	1128.97
653.757	1157.06
653.954	1196.97
654.15	1137.49
654.347	1231.65
654.543	1169.26
654.74	1125.67
654.936	1157.45
655.133	1135.17
655.329	1136.71
655.525	1118.31
655.722	1151.05
655.918	1112.69
656.115	1115.02
656.311	1008.45
656.507	986.75
656.704	957.11
656.9	985.98
657.096	978.62
657.292	965.44
657.489	1051.47
657.685	1033.45
657.881	1025.5
658.077	1060.77
658.273	1068.32
658.47	1152.8
658.666	1098.35
658.862	1129.35
659.058	1067.74
659.254	1169.26
659.45	1069.87
659.646	1087.89
659.842	1090.8
660.038	1167.13
660.234	1061.73
660.43	1099.9
660.626	1166.36
660.822	1148.15
661.018	1132.07
661.214	1090.8
661.41	1073.36
661.606	1141.36
661.802	1163.26
661.998	1122.38
662.194	1070.65
662.39	1137.68
662.586	1110.56
662.781	1132.45
662.977	1132.26
663.173	1129.74
663.369	1113.08
663.564	1109.01
663.76	1090.99
663.956	1043.14
664.152	1127.8
664.347	1005.55
664.543	1103
664.739	1090.99
664.934	982.69
665.13	1022.99
665.326	1126.06
665.521	1096.61
665.717	1043.91
665.912	1033.84
666.108	962.92
666.304	1025.89
666.499	1049.14
666.695	975.32
666.89	1060.77
667.086	1096.42
667.281	1054.76
667.477	1129.74
667.672	1043.91
667.867	1063.67
668.063	1060.18
668.258	995.28
668.454	1066.58
668.649	1106.1
668.844	1060.77
669.04	1096.61
669.235	1028.02
669.43	1009.23
669.626	979.78
669.821	1004.77
670.016	979.97
670.211	1005.55
670.407	993.15
670.602	1064.25
670.797	986.75
670.992	1038.87
671.187	971.45
671.382	1052.43
671.578	993.92
671.773	1036.55
671.968	956.92
672.163	999.74
672.358	1018.92
672.553	1000.7
672.748	986.37
672.943	1057.67
673.138	985.4
673.333	1034.42
673.528	951.11
673.723	1021.44
673.918	983.27
674.113	935.8
674.308	1063.87
674.503	1006.9
674.698	998.19
674.892	1025.89
675.087	1030.93
675.282	997.8
675.477	989.47
675.672	1001.09
675.867	962.92
676.061	932.7
676.256	935.61
676.451	967.96
676.646	991.4
676.84	920.3
677.035	898.41
677.23	929.6
677.424	989.08
677.619	1019.11
677.814	1004
678.008	1017.17
678.203	911.39
678.397	975.13
678.592	969.32
678.787	978.81
678.981	952.85
679.176	981.52
679.37	945.1
679.565	918.36
679.759	917.97
679.954	990.82
680.148	1022.99
680.342	1015.82
680.537	992.76
680.731	934.64
680.926	978.23
681.12	980.55
681.314	923.98
681.509	978.23
681.703	965.83
681.897	963.89
682.092	967.19
682.286	938.71
682.48	1032.29
682.674	1020.85
682.869	942.19
683.063	931.92
683.257	994.12
683.451	923.98
683.645	1002.45
683.839	958.66
684.034	941.22
684.228	979.2
684.422	923.01
684.616	904.61
684.81	978.04
685.004	917.2
685.198	955.95
685.392	997.99
685.586	942.19
685.78	977.26
685.974	981.14
686.168	968.35
686.362	1006.9
686.556	878.45
686.75	860.82
686.944	864.31
687.138	898.21
687.331	765.3
687.525	787
687.719	742.44
687.913	817.61
688.107	837.18
688.301	786.03
688.494	833.11
688.688	777.7
688.882	738.76
689.076	758.71
689.269	793.2
689.463	890.66
689.657	792.62
689.85	789.91
690.044	834.28
690.238	822.07
690.431	824.01
690.625	844.54
690.818	820.71
691.012	856.17
691.205	868.76
691.399	831.95
691.593	851.52
691.786	927.86
691.98	932.31
692.173	965.25
692.366	911.58
692.56	921.66
692.753	981.14
692.947	859.27
693.14	967.19
693.333	986.56
693.527	890.46
693.72	950.14
693.914	935.22
694.107	898.79
694.3	946.07
694.493	908.67
694.687	973
694.88	914.68
695.073	1001.48
695.266	974.94
695.46	958.86
695.653	1033.45
695.846	1043.14
696.039	941.03
696.232	968.74
696.425	1011.55
696.618	1010.59
696.812	992.57
697.005	1069.1
697.198	1128
697.391	1060.77
697.584	1089.25
697.777	1132.07
697.97	1132.26
698.163	1124.32
698.356	1099.52
698.549	1210.73
698.742	1169.65
698.935	1115.79
699.127	1146.6
699.32	1114.63
699.513	1105.13
699.706	1144.27
699.899	1168.49
700.092	1143.11
700.285	1215.96
700.477	1126.06
700.67	1193.68
700.863	1208.01
701.056	1307.6
701.248	1274.66
701.441	1277.57
701.634	1240.37
701.826	1334.92
702.019	1224.68
702.212	1325.81
702.404	1267.3
702.597	1252.77
702.79	1275.83
702.982	1331.43
703.175	1376.38
703.367	1392.07
703.56	1346.54
703.752	1477.32
703.945	1414.74
704.137	1415.13
704.33	1472.87
704.522	1444.19
704.715	1463.37
704.907	1502.12
705.1	1526.92
705.292	1542.81
705.484	1510.07
705.677	1576.91
705.869	1574.58
706.061	1599.38
706.254	1632.71
706.446	1596.28
706.638	1607.13
706.831	1729.19
707.023	1630.96
707.215	1789.64
707.407	1755.35
707.599	1701.49
707.792	1800.69
707.984	1771.04
708.176	1786.93
708.368	1773.95
708.56	1838.08
708.752	1811.15
708.944	1813.67
709.136	1895.04
709.329	1832.27
709.521	2009.93
709.713	1959.75
709.905	1939.41
710.097	1964.21
710.289	1921.39
710.481	1960.72
710.672	1966.92
710.864	2030.86
711.056	2087.43
711.248	2068.64
711.44	2067.28
711.632	2060.89
711.824	2111.84
712.016	2177.14
712.207	2149.63
712.399	2161.25
712.591	2262.58
712.783	2188.18
712.975	2249.6
713.166	2219.37
713.358	2252.51
713.55	2297.65
713.741	2325.94
713.933	2330
714.125	2308.5
714.316	2324.58
714.508	2427.65
714.7	2399.37
714.891	2430.37
715.083	2452.65
715.274	2441.22
715.466	2454.58
715.657	2495.46
715.849	2388.32
716.04	2511.55
716.232	2444.51
716.423	2494.69
716.615	2428.62
716.806	2401.11
716.998	2403.05
717.189	2337.37
717.381	2221.7
717.572	2222.28
717.763	2283.12
717.955	2249.02
718.146	2233.13
718.337	2157.57
718.528	2144.2
718.72	2068.45
718.911	2156.6
719.102	2118.82
719.293	2152.34
719.485	2123.86
719.676	2147.3
719.867	2099.64
720.058	2096.15
720.249	2121.14
720.44	2115.53
720.632	2193.41
720.823	2263.74
721.014	2388.52
721.205	2406.53
721.396	2483.26
721.587	2607.45
721.778	2617.72
721.969	2658.99
722.16	2739
722.351	2744.24
722.542	2884.9
722.733	2920.74
722.924	2808.56
723.115	2893.23
723.305	2863
723.496	2878.89
723.687	2740.55
723.878	2780.08
724.069	2784.15
724.26	2813.02
724.45	2763.8
724.641	2710.52
724.832	2786.09
725.023	2755.47
725.213	2785.5
725.404	2767.1
725.595	2757.22
725.785	2766.71
725.976	2851.57
726.167	2860.29
726.357	2821.93
726.548	2978.48
726.739	2849.63
726.929	2968.21
727.12	2980.99
727.31	3078.06
727.501	2971.31
727.691	2969.56
727.882	3001.92
728.072	3035.24
728.263	3045.9
728.453	3102.67
728.644	3150.72
728.834	3104.22
729.024	3072.25
729.215	3087.75
729.405	3102.86
729.596	3195.28
729.786	3212.52
729.976	3231.9
730.167	3237.13
730.357	3220.08
730.547	3191.99
730.737	3322.18
730.928	3341.17
731.118	3399.68
731.308	3343.5
731.498	3340.4
731.688	3428.55
731.879	3422.16
732.069	3491.13
732.259	3521.94
732.449	3527.36
732.639	3591.69
732.829	3635.86
733.019	3742.62
733.209	3814.3
733.399	3792.6
733.589	3826.31
733.779	3880.18
733.969	3879.21
734.159	3950.51
734.349	4010.96
734.539	4052.22
734.729	4041.18
734.919	4117.32
735.109	4142.12
735.299	4039.24
735.488	4086.9
735.678	4131.85
735.868	4134.37
736.058	4089.62
736.248	4091.55
736.437	4041.57
736.627	4068.11
736.817	4188.23
737.007	4129.53
737.196	4179.32
737.386	4127.01
737.576	4134.37
737.765	4234.15
737.955	4189.59
738.144	4340.13
738.334	4270
738.524	4201.8
738.713	4300.99
738.903	4263.99
739.092	4256.82
739.282	4264.38
739.471	4345.75
739.661	4287.82
739.85	4390.89
740.04	4329.28
740.229	4394.57
740.419	4396.9
740.608	4441.27
740.797	4426.16
740.987	4455.61
741.176	4468.59
741.365	4407.75
741.555	4349.63
741.744	4462.19
741.933	4433.13
742.123	4459.87
742.312	4418.99
742.501	4486.99
742.69	4530.78
742.88	4429.84
743.069	4560.23
743.258	4565.07
743.447	4584.25
743.636	4560.81
743.825	4528.65
744.014	4578.05
744.204	4617.19
744.393	4518.77
744.582	4635.01
744.771	4655.36
744.96	4584.25
745.149	4602.85
745.338	4616.42
745.527	4642.38
745.716	4588.13
745.905	4567.59
746.094	4689.65
746.283	4640.83
746.471	4636.18
746.66	4666.6
746.849	4707.67
747.038	4698.37
747.227	4648.77
747.416	4652.06
747.604	4612.93
747.793	4650.51
747.982	4661.56
748.171	4669.7
748.359	4688.1
748.548	4676.48
748.737	4682.87
748.926	4668.34
749.114	4544.92
749.303	4650.32
749.491	4657.1
749.68	4525.55
749.869	4634.05
750.057	4620.48
750.246	4600.72
750.434	4611.18
750.623	4546.08
750.811	4560.23
751	4591.62
751.188	4597.82
751.377	4585.22
751.565	4573.02
751.754	4548.22
751.942	4563.72
752.131	4618.74
752.319	4543.95
752.507	4481.37
752.696	4579.22
752.884	4634.43
753.072	4542.99
753.261	4562.94
753.449	4590.65
753.637	4523.22
753.825	4577.47
754.014	4522.84
754.202	4562.17
754.39	4607.7
754.578	4610.8
754.766	4531.75
754.955	4516.83
755.143	4555.19
755.331	4544.73
755.519	4546.67
755.707	4498.81
755.895	4478.66
756.083	4528.84
756.271	4487.57
756.459	4472.85
756.647	4566.04
756.835	4481.37
757.023	4421.12
757.211	4442.24
757.399	4444.56
757.587	4455.02
757.775	4380.62
757.963	4381.21
758.151	4424.41
758.339	4403.29
758.526	4346.14
758.714	4391.09
758.902	4280.07
759.09	4209.93
759.278	4044.47
759.465	3771.68
759.653	3382.05
759.841	3113.71
760.028	2713.82
760.216	2419.52
760.404	2292.42
760.591	1906.86
760.779	1698.39
760.967	1532.54
761.154	1355.65
761.342	1430.44
761.529	1416.68
761.717	1480.04
761.905	1533.32
762.092	1640.07
762.28	1613.14
762.467	1645.11
762.655	1538.93
762.842	1591.83
763.029	1624.76
763.217	1659.45
763.404	1637.36
763.592	1739.85
763.779	1658.67
763.966	1749.54
764.154	1773.56
764.341	1866.17
764.528	1823.74
764.716	1929.92
764.903	1994.05
765.09	2059.15
765.277	2127.54
765.465	2306.17
765.652	2352.87
765.839	2407.5
766.026	2581.68
766.213	2630.89
766.4	2720.02
766.588	2923.06
766.775	2989.13
766.962	3073.99
767.149	3134.64
767.336	3263.48
767.523	3223.37
767.71	3370.43
767.897	3483.19
768.084	3591.88
768.271	3631.6
768.458	3681
768.645	3698.83
768.832	3654.65
769.019	3759.47
769.206	3758.5
769.392	3834.26
769.579	3940.62
769.766	3835.81
769.953	3884.83
770.14	3876.88
770.327	3880.18
770.513	3930.55
770.7	3998.94
770.887	3874.75
771.073	3939.85
771.26	3928.03
771.447	3893.54
771.634	3897.23
771.82	4014.64
772.007	3853.63
772.193	3928.81
772.38	3944.69
772.567	3887.15
772.753	3948.96
772.94	3975.89
773.126	3952.25
773.313	3978.41
773.499	3948.37
773.686	3932.87
773.872	3933.65
774.059	3941.01
774.245	3901.49
774.432	3878.63
774.618	3800.16
774.804	3871.46
774.991	3828.45
775.177	3875.72
775.363	3864.09
775.55	3901.1
775.736	3797.83
775.922	3820.5
776.109	3837.36
776.295	3854.21
776.481	3870.49
776.667	3923.19
776.853	3806.75
777.04	3784.08
777.226	3805.2
777.412	3868.36
777.598	3792.41
777.784	3748.62
777.97	3739.13
778.156	3809.85
778.342	3761.8
778.528	3729.63
778.715	3680.23
778.901	3711.62
779.087	3783.69
779.272	3690.88
779.458	3662.21
779.644	3720.14
779.83	3677.71
780.016	3756.57
780.202	3713.94
780.388	3658.92
780.574	3602.54
780.76	3648.84
780.946	3715.88
781.131	3694.37
781.317	3623.65
781.503	3605.25
781.689	3623.65
781.874	3762.96
782.06	3586.84
782.246	3631.6
782.432	3624.62
782.617	3631.02
782.803	3655.82
782.989	3539.96
783.174	3522.52
783.36	3504.31
783.545	3529.88
783.731	3540.15
783.916	3466.53
784.102	3556.23
784.288	3477.76
784.473	3512.06
784.659	3460.91
784.844	3513.41
785.029	3490.16
785.215	3475.05
785.4	3380.11
785.586	3483.38
785.771	3382.25
785.956	3446.18
786.142	3404.33
786.327	3440.37
786.512	3443.66
786.698	3372.36
786.883	3296.22
787.068	3367.91
787.254	3390.58
787.439	3360.74
787.624	3345.24
787.809	3364.03
787.994	3311.72
788.18	3381.66
788.365	3274.33
788.55	3322.96
788.735	3296.42
788.92	3291.77
789.105	3307.85
789.29	3294.67
789.475	3232.87
789.66	3250.11
789.845	3211.75
790.03	3214.85
790.215	3242.55
790.4	3287.12
790.585	3294.28
790.77	3231.9
790.955	3170.09
791.14	3181.91
791.325	3293.7
791.51	3120.3
791.695	3170.29
791.879	3180.75
792.064	3114.49
792.249	3199.93
792.434	3119.14
792.618	3157.69
792.803	3201.09
792.988	3147.62
793.173	3154.2
793.357	3233.45
793.542	3118.56
793.727	3150.72
793.911	3217.37
794.096	3128.82
794.281	3205.55
794.465	3241.58
794.65	3151.1
794.834	3181.52
795.019	3234.42
795.203	3258.83
795.388	3222.99
795.572	3303.2
795.757	3244.49
795.941	3238.87
796.126	3216.98
796.31	3178.04
796.494	3207.68
796.679	3200.12
796.863	3182.88
797.048	3273.75
797.232	3229.77
797.416	3201.29
797.601	3222.4
797.785	3283.24
797.969	3281.11
798.153	3200.9
798.338	3260.18
798.522	3261.73
798.706	3319.47
798.89	3291.77
799.074	3371.78
799.258	3337.49
799.443	3257.67
799.627	3285.76
799.811	3358.41
799.995	3236.35
800.179	3257.86
800.363	3258.63
800.547	3279.17
800.731	3280.72
800.915	3177.26
801.099	3214.46
801.283	3229.57
801.467	3274.91
801.651	3253.98
801.835	3282.85
802.019	3285.95
802.202	3286.53
802.386	3193.92
802.57	3175.13
802.754	3204.19
802.938	3190.05
803.121	3218.92
803.305	3276.85
803.489	3256.5
803.673	3224.34
803.856	3246.43
804.04	3204.19
804.224	3268.13
804.407	3209.04
804.591	3227.64
804.775	3185.2
804.958	3196.44
805.142	3329.74
805.326	3181.72
805.509	3239.84
805.693	3278.98
805.876	3291.18
806.06	3207.1
806.243	3256.89
806.427	3265.22
806.61	3295.25
806.794	3230.74
806.977	3274.72
807.16	3266.97
807.344	3254.76
807.527	3233.06
807.71	3224.34
807.894	3252.82
808.077	3238.68
808.26	3218.53
808.444	3185.79
808.627	3295.83
808.81	3139.09
808.993	3128.44
809.177	3107.51
809.36	3168.93
809.543	3125.53
809.726	3095.31
809.909	3016.45
810.092	3040.86
810.276	3056.56
810.459	3056.94
810.642	3061.79
810.825	3012.58
811.008	3015.68
811.191	2920.16
811.374	2926.36
811.557	2969.95
811.74	3024.01
811.923	2914.35
812.106	2900.59
812.289	2881.8
812.472	2858.55
812.654	2876.18
812.837	2848.86
813.02	2781.44
813.203	2761.67
813.386	2634.96
813.569	2657.24
813.751	2589.43
813.934	2627.41
814.117	2571.61
814.3	2568.7
814.482	2485.58
814.665	2443.93
814.848	2409.25
815.03	2362.36
815.213	2368.56
815.396	2325.55
815.578	2309.47
815.761	2271.49
815.943	2376.12
816.126	2241.27
816.309	2191.28
816.491	2134.32
816.674	2045.58
816.856	2111.46
817.039	2130.06
817.221	2196.9
817.403	2158.73
817.586	2138.39
817.768	2178.69
817.951	2098.09
818.133	2094.02
818.315	2101.58
818.498	2169.58
818.68	2193.8
818.862	2155.05
819.045	2195.93
819.227	2166.68
819.409	2137.42
819.591	2166.68
819.774	2121.73
819.956	2128.7
820.138	2226.93
820.32	2193.22
820.502	2211.43
820.684	2313.73
820.866	2294.35
821.048	2366.82
821.231	2351.12
821.413	2364.88
821.595	2325.55
821.777	2347.83
821.959	2339.89
822.141	2437.92
822.323	2274.98
822.505	2217.82
822.686	2180.24
822.868	2071.93
823.05	1984.36
823.232	1923.13
823.414	1859
823.596	1911.7
823.778	1879.74
823.96	1951.62
824.141	1914.8
824.323	1948.13
824.505	2065.15
824.687	2088.98
824.868	2140.13
825.05	2256.38
825.232	2279.44
825.413	2364.88
825.595	2279.44
825.777	2231
825.958	2294.55
826.14	2283.12
826.321	2273.82
826.503	2264.52
826.685	2296.29
826.866	2269.94
827.048	2298.04
827.229	2251.15
827.411	2217.05
827.592	2176.36
827.773	2168.81
827.955	2098.28
828.136	2115.72
828.318	2065.15
828.499	2130.83
828.68	2017.1
828.862	2086.08
829.043	2102.35
829.224	2082.59
829.406	2058.76
829.587	2058.56
829.768	2052.17
829.949	2081.43
830.131	2046.55
830.312	2113.2
830.493	2062.83
830.674	2065.73
830.855	2032.02
831.036	2057.4
831.218	2094.21
831.399	2103.13
831.58	2099.06
831.761	2079.1
831.942	2074.06
832.123	2047.33
832.304	2000.44
832.485	2034.73
832.666	2036.86
832.847	2083.17
833.028	2091.5
833.209	2087.43
833.389	2037.25
833.57	1991.33
833.751	1956.65
833.932	2077.55
834.113	2042.48
834.294	2018.26
834.475	2046.36
834.655	2082.2
834.836	2101.19
835.017	2082.01
835.198	2027.18
835.378	2044.23
835.559	2107.78
835.74	2076.2
835.92	2072.32
836.101	2011.29
836.281	2103.32
836.462	2112.04
836.643	2091.7
836.823	2138.39
837.004	2096.54
837.184	2146.14
837.365	2142.65
837.545	2144.98
837.726	2085.3
837.906	2138.19
838.087	2118.82
838.267	2073.48
838.448	2062.05
838.628	2109.71
838.808	2079.68
838.989	2162.61
839.169	2011.87
839.349	2121.14
839.53	2113.2
839.71	2120.95
839.89	2053.91
840.07	2156.79
840.251	2061.86
840.431	2107.78
840.611	2055.46
840.791	2029.89
840.971	2097.51
841.151	2074.45
841.332	2055.27
841.512	2100.99
841.692	1981.65
841.872	2062.83
842.052	2053.91
842.232	2099.64
842.412	1979.52
842.592	2004.7
842.772	2073.1
842.952	2069.03
843.132	2032.99
843.312	1995.21
843.492	1967.89
843.672	2034.93
843.851	1987.27
844.031	1959.75
844.211	2002.77
844.391	1953.36
844.571	2039.19
844.751	1989.2
844.93	2000.83
845.11	1964.6
845.29	2011.29
845.47	2027.37
845.649	1988.82
845.829	2037.64
846.009	1957.04
846.188	1995.02
846.368	2015.75
846.547	1943.67
846.727	2024.46
846.907	1920.81
847.086	1964.21
847.266	2010.71
847.445	1954.52
847.625	1971.96
847.804	1957.43
847.984	1886.71
848.163	1913.06
848.343	1908.99
848.522	1949.1
848.701	1965.37
848.881	1888.84
849.06	1915.58
849.239	1964.21
849.419	1940.38
849.598	1844.67
849.777	1865.79
849.957	1840.02
850.136	1776.66
850.315	1756.32
850.494	1739.27
850.674	1735.98
850.853	1852.61
851.032	1787.12
851.211	1838.08
851.39	1821.22
851.569	1780.92
851.748	1749.73
851.927	1840.99
852.107	1796.81
852.286	1784.8
852.465	1781.31
852.644	1828.97
852.823	1825.87
853.002	1804.76
853.181	1777.44
853.359	1772.4
853.538	1713.5
853.717	1807.66
853.896	1680.56
854.075	1631.16
854.254	1586.6
854.433	1524.02
854.611	1560.83
854.79	1487.78
854.969	1581.56
855.148	1580.01
855.327	1527.12
855.505	1581.36
855.684	1617.4
855.863	1625.15
856.041	1612.36
856.22	1639.3
856.399	1600.35
856.577	1716.21
856.756	1739.85
856.934	1848.93
857.113	1829.75
857.291	1725.51
857.47	1641.62
857.648	1698
857.827	1722.8
858.005	1776.86
858.184	1662.93
858.362	1794.87
858.541	1659.06
858.719	1697.61
858.898	1674.56
859.076	1659.45
859.254	1753.22
859.433	1697.42
859.611	1673.78
859.789	1592.99
859.967	1729
860.146	1728.81
860.324	1631.35
860.502	1637.16
860.68	1621.86
860.859	1609.85
861.037	1652.28
861.215	1648.4
861.393	1634.45
861.571	1641.04
861.749	1615.08
861.927	1632.9
862.105	1650.15
862.283	1619.73
862.461	1588.34
862.639	1569.93
862.817	1604.03
862.995	1612.75
863.173	1611.4
863.351	1598.41
863.529	1614.3
863.707	1681.92
863.885	1616.82
864.063	1513.17
864.241	1590.28
864.418	1654.99
864.596	1542.62
864.774	1560.25
864.952	1581.36
865.129	1559.08
865.307	1529.25
865.485	1478.29
865.663	1578.26
865.84	1489.92
866.018	1468.41
866.196	1332.59
866.373	1365.53
866.551	1339.18
866.728	1295.2
866.906	1307.79
867.084	1349.64
867.261	1409.51
867.439	1408.93
867.616	1429.47
867.794	1401.76
867.971	1467.05
868.149	1418.04
868.326	1508.32
868.503	1478.68
868.681	1466.09
868.858	1436.05
869.035	1411.45
869.213	1489.14
869.39	1424.82
869.567	1538.16
869.745	1420.36
869.922	1479.26
870.099	1496.5
870.276	1475.97
870.454	1472.67
870.631	1481.97
870.808	1431.79
870.985	1484.49
871.162	1493.02
871.339	1446.9
871.517	1408.93
871.694	1382.19
871.871	1430.63
872.048	1403.31
872.225	1393.43
872.402	1421.33
872.579	1344.99
872.756	1400.99
872.933	1356.81
873.11	1394.01
873.287	1425.98
873.463	1369.41
873.64	1382.77
873.817	1419.97
873.994	1386.26
874.171	1323.87
874.348	1372.51
874.524	1325.81
874.701	1364.76
874.878	1295.98
875.055	1390.52
875.231	1333.76
875.408	1363.21
875.585	1285.71
875.762	1346.54
875.938	1330.85
876.115	1309.34
876.291	1300.43
876.468	1280.09
876.645	1268.85
876.821	1293.26
876.998	1310.7
877.174	1308.76
877.351	1289.78
877.527	1285.32
877.704	1299.08
877.88	1313.02
878.057	1281.83
878.233	1313.41
878.409	1266.72
878.586	1304.11
878.762	1263.81
878.938	1261.68
879.115	1208.21
879.291	1265.36
879.467	1244.05
879.644	1204.33
879.82	1282.41
879.996	1238.82
880.172	1199.3
880.349	1242.69
880.525	1307.99
880.701	1176.63
880.877	1199.3
881.053	1260.91
881.229	1217.51
881.405	1276.6
881.581	1196.97
881.757	1233.78
881.933	1226.03
882.109	1245.41
882.285	1235.53
882.461	1153.38
882.637	1211.7
882.813	1159.77
882.989	1214.21
883.165	1303.53
883.341	1162.68
883.517	1238.04
883.693	1239.21
883.869	1245.21
884.044	1191.16
884.22	1240.18
884.396	1275.83
884.572	1231.65
884.747	1267.49
884.923	1273.11
885.099	1263.81
885.275	1277.38
885.45	1171.78
885.626	1210.92
885.801	1190.19
885.977	1199.68
886.153	1145.63
886.328	1244.44
886.504	1182.25
886.679	1257.23
886.855	1191.93
887.03	1238.43
887.206	1228.94
887.381	1221.58
887.557	1235.72
887.732	1225.64
887.908	1249.28
888.083	1247.93
888.258	1215.18
888.434	1189.41
888.609	1193.29
888.784	1243.86
888.96	1188.83
889.135	1173.14
889.31	1178.95
889.485	1232.04
889.661	1214.8
889.836	1235.72
890.011	1222.74
890.186	1196.58
890.361	1188.45
890.537	1213.25
890.712	1228.16
890.887	1254.32
891.062	1212.08
891.237	1249.48
891.412	1191.16
891.587	1238.63
891.762	1225.45
891.937	1244.05
892.112	1172.95
892.287	1206.85
892.462	1145.05
892.637	1109.78
892.812	1103
892.987	1125.67
893.161	1127.8
893.336	1141.75
893.511	1167.33
893.686	1132.84
893.861	1131.1
894.035	1146.98
894.21	1136.52
894.385	1056.12
894.56	1098.74
894.734	1032.29
894.909	1076.07
895.084	1088.86
895.258	1029.96
895.433	1049.92
895.608	1013.69
895.782	964.28
895.957	994.12
896.131	1013.3
896.306	908.48
896.48	913.71
896.655	949.75
896.829	876.9
897.004	856.17
897.178	904.8
897.353	867.79
897.527	882.32
897.701	896.47
897.876	836.79
898.05	922.43
898.224	901.51
898.399	931.73
898.573	859.08
898.747	762.01
898.921	820.91
899.096	706.79
899.27	746.51
899.444	716.86
899.618	758.91
899.792	800.95
899.967	789.33
900.141	826.14
900.315	748.06
900.489	763.36
900.663	789.91
900.837	818.97
901.011	724.61
901.185	839.89
901.359	788.36
901.533	758.91
901.707	752.13
901.881	766.27
902.055	728.49
902.229	770.73
902.403	842.99
902.576	768.4
902.75	781.96
902.924	889.69
903.098	814.51
903.272	857.33
903.446	925.14
903.619	911.97
903.793	900.54
903.967	886.39
904.14	984.04
904.314	967.19
904.488	917.01
904.661	968.74
904.835	908.29
905.009	945.1
905.182	999.74
905.356	985.59
905.529	924.76
905.703	921.07
905.876	896.47
906.05	850.16
906.223	843.96
906.397	799.01
906.57	768.4
906.744	760.46
906.917	768.01
907.09	761.23
907.264	744.96
907.437	720.55
907.61	695.36
907.784	726.16
907.957	738.95
908.13	702.91
908.304	754.84
908.477	669.4
908.65	742.83
908.823	661.26
908.996	770.73
909.17	696.91
909.343	683.35
909.516	697.1
909.689	670.75
909.862	672.11
910.035	688.19
910.208	662.03
910.381	656.03
910.554	770.53
910.727	684.7
910.9	662.42
911.073	660.68
911.246	754.26
911.419	719.19
911.592	718.22
911.765	678.7
911.938	669.78
912.11	707.56
912.283	672.88
912.456	750.58
912.629	706.21
912.802	648.86
912.974	643.43
913.147	582.02
913.32	545.2
913.493	598.1
913.665	590.93
913.838	608.37
914.01	581.05
914.183	647.7
914.356	610.89
914.528	686.06
914.701	720.93
914.873	674.43
915.046	579.11
915.218	571.75
915.391	504.71
915.563	533.97
915.736	555.86
915.908	623.67
916.081	604.88
916.253	592.67
916.425	600.42
916.598	618.05
916.77	613.98
916.942	588.02
917.115	514.4
917.287	595.19
917.459	591.7
917.632	513.43
917.804	447.17
917.976	570.59
918.148	560.9
918.32	563.8
918.493	576.98
918.665	652.54
918.837	607.2
919.009	656.42
919.181	655.25
919.353	616.31
919.525	593.25
919.697	577.75
919.869	592.09
920.041	651.38
920.213	749.41
920.385	631.62
920.557	629.68
920.729	641.69
920.901	631.81
921.073	598.87
921.244	619.8
921.416	648.86
921.588	621.93
921.76	596.16
921.932	684.12
922.103	572.72
922.275	610.11
922.447	620.57
922.619	550.24
922.79	578.92
922.962	592.09
923.134	609.72
923.305	552.18
923.477	496.38
923.648	537.65
923.82	523.51
923.991	496.38
924.163	469.64
924.335	508.01
924.506	508.01
924.677	584.92
924.849	508.97
925.02	525.25
925.192	570
925.363	520.21
925.535	542.88
925.706	504.91
925.877	585.5
926.049	470.03
926.22	539.39
926.391	537.45
926.562	584.15
926.734	491.92
926.905	550.44
927.076	474.29
927.247	482.82
927.419	459.18
927.59	451.43
927.761	482.82
927.932	460.15
928.103	450.66
928.274	410.74
928.445	380.33
928.616	414.81
928.787	387.69
928.958	423.73
929.129	413.46
929.3	381.49
929.471	341.38
929.642	309.41
929.813	247.61
929.984	349.91
930.155	272.02
930.326	345.06
930.496	267.56
930.667	220.29
930.838	257.88
931.009	220.29
931.18	267.18
931.35	245.28
931.521	237.53
931.692	182.32
931.863	137.17
932.033	213.12
932.204	192.2
932.374	209.05
932.545	158.68
932.716	206.53
932.886	212.93
933.057	129.42
933.227	109.47
933.398	209.05
933.568	107.53
933.739	75.56
933.909	94.35
934.08	167.98
934.25	57.93
934.421	72.27
934.591	101.91
934.761	86.02
934.932	68.97
935.102	119.54
935.272	123.42
935.443	101.14
935.613	95.71
935.783	110.82
935.953	63.74
936.123	241.99
936.294	102.49
936.464	89.51
936.634	91.06
936.804	66.46
936.974	43.59
937.144	71.3
937.314	96.29
937.484	88.93
937.655	65.49
937.825	147.25
937.995	73.04
938.165	132.14
938.334	92.8
938.504	114.5
938.674	86.99
938.844	130.39
939.014	178.05
939.184	170.11
939.354	224.94
939.524	216.03
939.694	139.3
939.863	147.44
940.033	226.1
940.203	217.97
940.373	184.25
940.542	195.3
940.712	155.97
940.882	200.33
941.051	197.23
941.221	192.97
941.391	211.57
941.56	147.44
941.73	129.42
941.899	262.72
942.069	145.89
942.238	182.9
942.408	179.6
942.577	208.08
942.747	137.17
942.916	93.19
943.086	110.05
943.255	204.6
943.425	171.08
943.594	116.25
943.763	52.7
943.933	94.94
944.102	56.19
944.271	112.95
944.441	127.1
944.61	118.38
944.779	124.39
944.948	212.93
945.117	85.64
945.287	85.83
945.456	64.32
945.625	89.9
945.794	125.94
945.963	83.7
946.132	130
946.301	103.65
946.47	167.79
946.639	64.71
946.808	94.16
946.977	162.75
947.146	167.01
947.315	96.49
947.484	137.95
947.653	122.64
947.822	99.59
947.991	98.62
948.16	175.15
948.329	203.24
948.498	97.84
948.666	134.65
948.835	133.1
949.004	74.21
949.173	95.52
949.341	155.39
949.51	140.85
949.679	153.06
949.847	128.45
950.016	204.4
950.185	188.71
950.353	96.29
950.522	113.73
950.69	167.79
950.859	98.04
951.028	172.82
951.196	119.74
951.365	119.93
951.533	113.54
951.701	161
951.87	118.38
952.038	55.22
952.207	122.45
952.375	185.8
952.543	88.35
952.712	110.44
952.88	92.61
953.048	171.47
953.217	126.71
953.385	131.17
953.553	158.29
953.721	104.62
953.89	129.42
954.058	70.91
954.226	82.54
954.394	104.62
954.562	88.93
954.73	100.17
954.898	102.69
955.067	143.18
955.235	110.82
955.403	146.28
955.571	192.58
955.739	155.19
955.907	85.06
956.075	109.66
956.243	90.87
956.41	117.41
956.578	84.67
956.746	67.23
956.914	111.6
957.082	138.14
957.25	142.21
957.418	105.01
957.585	128.45
957.753	166.43
957.921	84.09
958.089	119.35
958.256	146.28
958.424	136.98
958.592	136.79
958.759	85.25
958.927	140.47
959.095	97.45
959.262	130.78
959.43	119.15
959.597	106.56
959.765	95.32
959.932	96.49
960.1	138.92
960.267	125.35
960.435	98.81
960.602	148.02
960.77	86.02
960.937	86.22
961.104	104.62
961.272	68.59
961.439	84.28
961.606	131.75
961.774	134.27
961.941	93
962.108	132.72
962.275	124.77
962.443	156.35
962.61	133.3
962.777	195.1
962.944	144.73
963.111	131.36
963.278	170.3
963.446	122.25
963.613	144.73
963.78	128.45
963.947	179.6
964.114	146.09
964.281	212.15
964.448	157.13
964.615	111.4
964.782	140.66
964.949	175.15
965.116	167.79
965.282	170.5
965.449	143.95
965.616	118.38
965.783	149.77
965.95	133.49
966.117	88.93
966.283	124.58
966.45	164.88
966.617	148.41
966.784	177.08
966.95	178.63
967.117	167.01
967.284	102.1
967.45	122.06
967.617	185.22
967.784	177.28
967.95	214.67
968.117	125.55
968.283	195.1
968.45	260.98
968.616	168.75
968.783	207.12
968.949	155.77
969.116	183.09
969.282	133.49
969.449	191.62
969.615	149.19
969.781	124
969.948	129.81
970.114	110.44
970.28	212.15
970.447	141.63
970.613	176.12
970.779	136.4
970.945	184.64
971.112	184.06
971.278	165.85
971.444	144.54
971.61	183.67
971.776	147.64
971.942	200.72
972.108	173.4
972.275	165.27
972.441	164.3
972.607	240.44
972.773	127.49
972.939	155
973.105	161
973.271	118.77
973.437	141.24
973.602	145.12
973.768	166.62
973.934	132.72
974.1	118.77
974.266	64.91
974.432	151.7
974.598	115.47
974.763	168.37
974.929	124
975.095	202.85
975.261	132.14
975.426	108.5
975.592	149.96
975.758	183.48
975.923	64.13
976.089	125.94
976.255	181.35
976.42	176.89
976.586	150.35
976.751	151.12
976.917	221.84
977.082	145.12
977.248	109.66
977.413	59.09
977.579	122.84
977.744	134.07
977.91	90.48
978.075	127.49
978.24	169.14
978.406	118.19
978.571	115.28
978.736	100.55
978.902	140.08
979.067	112.76
979.232	66.46
979.397	121.48
979.563	193.55
979.728	85.25
979.893	124.97
980.058	97.26
980.223	149.19
980.388	135.24
980.554	115.47
980.719	82.73
980.884	132.91
981.049	158.49
981.214	114.89
981.379	146.09
981.544	84.09
981.709	106.95
981.874	125.74
982.039	107.14
982.204	176.5
982.368	114.31
982.533	114.89
982.698	145.5
982.863	162.36
983.028	121.29
983.193	148.99
983.357	136.59
983.522	156.94
983.687	105.98
983.852	124.39
984.016	108.69
984.181	139.89
984.346	157.9
984.51	141.82
984.675	115.86
984.839	150.74
985.004	113.54
985.168	151.9
985.333	119.54
985.498	97.45
985.662	158.29
985.827	153.64
985.991	109.85
986.155	85.64
986.32	145.7
986.484	188.71
986.649	160.62
986.813	82.92
986.977	137.75
987.142	144.92
987.306	87.19
987.47	101.33
987.634	109.85
987.799	118.77
987.963	136.2
988.127	150.15
988.291	242.18
988.455	110.63
988.62	88.35
988.784	144.15
988.948	152.87
989.112	86.22
989.276	134.65
989.44	95.32
989.604	71.69
989.768	88.15
989.932	210.6
990.096	86.99
990.26	71.11
990.424	65.87
990.588	111.4
990.752	186.58
990.915	154.61
991.079	102.3
991.243	92.8
991.407	140.47
991.571	100.36
991.734	129.81
991.898	116.83
992.062	204.98
992.226	126.52
992.389	104.62
992.553	46.11
992.717	87.77
992.88	106.75
993.044	86.99
993.207	89.32
993.371	116.25
993.535	123.42
993.698	97.84
993.862	123.22
994.025	149.77
994.189	129.81
994.352	110.44
994.515	93.77
994.679	145.12
994.842	91.06
995.006	119.93
995.169	84.86
995.332	82.73
995.496	132.52
995.659	49.21
995.822	101.33
995.985	105.59
996.149	157.32
996.312	108.89
996.475	158.29
996.638	87.38
996.801	163.91
996.964	167.2
997.128	89.12
997.291	89.12
997.454	101.91
997.617	34.1
997.78	136.59
997.943	47.27
998.106	145.5
998.269	76.14
998.432	84.47
998.595	107.92
998.758	40.49
998.92	68.39
999.083	54.44
999.246	87.96
999.409	35.26
999.572	13.76
999.735	76.72
999.897	86.61
1000.06	89.9
1000.223	96.68
1000.386	76.72
1000.548	113.54
1000.711	109.85
1000.874	104.62
1001.036	49.79
1001.199	142.99
1001.361	68.39
1001.524	106.17
1001.687	144.73
1001.849	49.21
1002.012	98.81
1002.174	77.11
1002.337	99.97
1002.499	74.59
1002.661	120.9
1002.824	76.53
1002.986	72.66
1003.149	60.45
1003.311	56.19
1003.473	135.04
1003.636	30.03
1003.798	98.23
1003.96	102.1
1004.123	76.72
1004.285	29.45
1004.447	57.74
1004.609	71.11
1004.771	143.57
1004.933	-2.13
1005.096	31.97
1005.258	31.19
1005.42	46.31
1005.582	96.87
1005.744	85.06
1005.906	-1.16
1006.068	88.15
1006.23	27.9
1006.392	13.37
1006.554	32.16
1006.716	113.92
1006.878	96.68
1007.04	38.75
1007.202	30.81
1007.363	70.72
1007.525	96.49
1007.687	75.37
1007.849	127.29
1008.011	22.28
1008.172	21.12
1008.334	50.96
1008.496	90.09
1008.658	20.92
1008.819	37.97
1008.981	38.75
1009.143	37.01
1009.304	49.6
1009.466	75.37
1009.627	118.77
1009.789	174.95
1009.95	83.89
1010.112	46.31
1010.273	84.47
1010.435	31
1010.596	24.8
1010.758	45.53
1010.919	29.45
1011.081	9.69
1011.242	37.97
1011.403	81.37
1011.565	47.86
1011.726	91.84
1011.887	34.49
1012.049	46.11
1012.21	100.94
1012.371	101.33
1012.532	-2.91
1012.693	45.14
1012.855	12.79
1013.016	74.59
1013.177	99.59
1013.338	60.26
1013.499	111.21
1013.66	78.27
1013.821	99
1013.982	80.41
1014.143	73.04
1014.304	28.48
1014.465	40.69
1014.626	85.64
1014.787	33.91
1014.948	144.92
1015.109	-25.38
1015.27	85.25
1015.431	27.51
1015.592	41.27
1015.752	116.83
1015.913	61.42
1016.074	56.77
1016.235	70.14
1016.395	42.43
1016.556	31
1016.717	54.06
1016.877	78.86
1017.038	0.58
1017.199	45.34
1017.359	63.55
1017.52	58.71
1017.681	21.89
1017.841	39.52
1018.002	35.07
1018.162	35.84
1018.323	105.4
1018.483	34.49
1018.644	43.98
1018.804	14.92
1018.964	-20.92
1019.125	49.6
1019.285	33.52
1019.446	-6.39
1019.606	3.1
1019.766	-33.13
1019.926	66.26
1020.087	35.07
1020.247	-4.07
1020.407	64.71
1020.567	65.68
1020.728	47.08
1020.888	21.12
1021.048	22.09
1021.208	-7.17
1021.368	22.86
1021.528	121.29
1021.688	69.75
1021.848	86.02
1022.008	45.14
1022.168	28.29
1022.328	48.24
1022.488	49.6
1022.648	26.16
1022.808	39.52
1022.968	49.41
1023.128	3.1
1023.288	3.1
1023.448	32.36
1023.608	63.36
1023.767	74.79
1023.927	4.26
1024.087	24.41
1024.247	-9.69
1024.406	3.29
1024.566	-2.91
1024.726	-4.26
1024.885	14.14
1025.045	58.51
1025.205	32.36
1025.364	46.89
1025.524	55.22
1025.683	20.92
1025.843	24.99
1026.003	45.14
1026.162	86.99
1026.321	62.58
1026.481	44.76
1026.64	12.21
1026.8	43.01
1026.959	37.59
1027.119	36.62
1027.278	32.55
1027.437	16.47
1027.597	9.88
1027.756	36.42
1027.915	36.23
1028.074	60.26
1028.234	2.71
1028.393	51.92
1028.552	24.99
1028.711	-41.66
1028.87	82.34
1029.03	7.94
1029.189	49.02
1029.348	-28.09
1029.507	-3.87
1029.666	21.12
1029.825	-21.31
1029.984	17.05
1030.143	29.84
1030.302	2.52
1030.461	-31.58
1030.62	3.1
1030.779	70.14
1030.938	1.74
1031.097	-25.19
1031.255	43.79
1031.414	73.24
1031.573	64.71
1031.732	-31
1031.891	28.09
1032.049	55.02
1032.208	55.99
1032.367	13.76
1032.525	24.41
1032.684	23.64
1032.843	46.11
1033.001	-41.27
1033.16	196.46
1033.319	64.13
1033.477	40.69
1033.636	3.68
1033.794	-10.66
1033.953	40.88
1034.111	38.75
1034.27	-4.07
1034.428	43.01
1034.587	-3.1
1034.745	50.37
1034.903	47.86
1035.062	48.82
1035.22	-36.42
1035.378	54.06
1035.537	-10.07
1035.695	44.76
1035.853	-2.32
1036.011	23.64
1036.17	43.98
1036.328	-40.88
1036.486	12.59
1036.644	17.05
1036.802	-42.82
1036.96	-9.49
1037.119	16.47
1037.277	6.97
1037.435	-14.53
1037.593	-33.13
1037.751	22.47
1037.909	48.24
1038.067	48.24
