Data from gum_old_FLMT105791__77__15-44-05-256.txt Node

Date: Mon Mar 20 15:44:05 GMT 2023
User: antho
Spectrometer: FLMT10579
Trigger mode: 0
Integration Time (sec): 1.000000E-1
Scans to average: 10
Electric dark correction enabled: true
Nonlinearity correction enabled: false
Boxcar width: 0
XAxis mode: Wavelengths
Number of Pixels in Spectrum: 3648
>>>>>Begin Spectral Data<<<<<
345.248	-193.75
345.464	-193.75
345.681	-193.75
345.898	-171.27
346.114	-176.89
346.331	-33.71
346.548	30.03
346.764	-7.56
346.981	-16.66
347.197	-17.82
347.414	5.81
347.631	-15.69
347.847	37.59
348.064	20.92
348.28	18.79
348.497	-48.44
348.713	26.74
348.93	17.24
349.146	10.07
349.363	24.99
349.579	55.41
349.796	-8.52
350.012	-11.82
350.229	48.63
350.445	14.34
350.661	-5.42
350.878	-2.13
351.094	58.71
351.311	18.21
351.527	32.74
351.743	-4.07
351.96	44.17
352.176	53.86
352.392	40.69
352.609	29.26
352.825	-22.67
353.041	38.56
353.257	7.56
353.474	9.11
353.69	51.34
353.906	10.66
354.122	-31
354.339	56.19
354.555	0.19
354.771	11.82
354.987	80.6
355.203	81.18
355.42	20.15
355.636	9.49
355.852	17.82
356.068	9.88
356.284	-33.52
356.5	77.69
356.716	46.69
356.932	2.71
357.148	49.21
357.364	7.75
357.58	75.17
357.796	71.3
358.012	47.08
358.228	51.73
358.444	-38.56
358.66	87.38
358.876	49.6
359.092	-2.71
359.308	34.29
359.524	49.6
359.74	16.47
359.956	7.17
360.172	31.77
360.388	58.12
360.604	28.29
360.819	129.04
361.035	44.37
361.251	50.37
361.467	7.17
361.683	77.11
361.898	40.69
362.114	50.37
362.33	23.44
362.546	82.73
362.762	41.85
362.977	48.44
363.193	12.79
363.409	73.04
363.624	-5.42
363.84	33.71
364.056	8.72
364.271	36.62
364.487	63.55
364.703	31.19
364.918	19.96
365.134	8.91
365.35	23.25
365.565	153.64
365.781	56.96
365.996	84.67
366.212	120.9
366.427	60.45
366.643	7.56
366.858	25.57
367.074	27.51
367.289	99.2
367.505	161
367.72	-8.91
367.936	31.39
368.151	86.41
368.367	72.27
368.582	48.24
368.798	35.84
369.013	122.06
369.228	74.21
369.444	61.03
369.659	116.83
369.874	79.24
370.09	110.05
370.305	-3.68
370.52	52.51
370.736	99.97
370.951	35.26
371.166	97.07
371.381	114.89
371.597	63.36
371.812	27.32
372.027	33.32
372.242	52.7
372.458	134.65
372.673	61.03
372.888	61.22
373.103	80.99
373.318	161.97
373.533	97.65
373.749	78.27
373.964	18.41
374.179	126.13
374.394	4.26
374.609	89.7
374.824	30.22
375.039	131.94
375.254	42.82
375.469	81.18
375.684	84.47
375.899	101.72
376.114	56.96
376.329	60.45
376.544	124.19
376.759	108.89
376.974	51.92
377.189	64.91
377.404	63.94
377.619	107.14
377.834	29.45
378.049	32.94
378.264	45.53
378.478	93.97
378.693	59.29
378.908	107.72
379.123	68.39
379.338	132.33
379.553	82.92
379.767	79.05
379.982	102.88
380.197	101.91
380.412	81.37
380.626	88.93
380.841	159.26
381.056	125.74
381.271	157.52
381.485	39.33
381.7	43.21
381.915	107.14
382.129	77.31
382.344	70.91
382.559	70.14
382.773	116.44
382.988	16.86
383.202	87.96
383.417	43.98
383.632	160.04
383.846	77.31
384.061	62.39
384.275	76.14
384.49	92.22
384.704	95.13
384.919	109.08
385.133	76.53
385.348	107.53
385.562	38.94
385.777	139.5
385.991	92.42
386.206	48.05
386.42	68.39
386.634	104.43
386.849	116.05
387.063	102.69
387.277	95.71
387.492	90.09
387.706	47.27
387.92	82.34
388.135	124.58
388.349	100.75
388.563	99.2
388.778	130.97
388.992	107.34
389.206	126.71
389.42	167.79
389.635	94.74
389.849	151.51
390.063	186.58
390.277	136.98
390.491	191.03
390.706	130.39
390.92	158.87
391.134	122.06
391.348	167.2
391.562	100.75
391.776	111.99
391.99	117.41
392.205	167.2
392.419	138.92
392.633	144.54
392.847	175.34
393.061	81.96
393.275	156.55
393.489	110.44
393.703	93.58
393.917	121.48
394.131	50.18
394.345	140.66
394.559	150.93
394.773	116.64
394.986	142.02
395.2	128.84
395.414	199.75
395.628	117.8
395.842	161.39
396.056	153.64
396.27	116.05
396.484	145.89
396.697	162.75
396.911	182.51
397.125	131.75
397.339	146.28
397.553	119.54
397.766	157.52
397.98	172.63
398.194	175.92
398.408	141.63
398.621	199.95
398.835	235.21
399.049	214.28
399.262	273.38
399.476	241.02
399.69	248.38
399.903	303.99
400.117	226.68
400.331	242.18
400.544	198.98
400.758	352.43
400.971	277.06
401.185	285.39
401.398	199.95
401.612	298.37
401.826	267.37
402.039	313.87
402.253	242.96
402.466	282.48
402.68	265.63
402.893	300.31
403.106	291.59
403.32	277.83
403.533	268.73
403.747	278.61
403.96	288.68
404.174	338.48
404.387	212.93
404.6	281.13
404.814	320.65
405.027	278.41
405.24	274.93
405.454	268.53
405.667	295.08
405.88	240.83
406.094	296.82
406.307	295.85
406.52	270.86
406.733	237.34
406.947	223.78
407.16	309.03
407.373	311.16
407.586	267.56
407.799	241.41
408.012	327.82
408.226	275.9
408.439	326.66
408.652	279.19
408.865	322.98
409.078	352.62
409.291	339.83
409.504	286.94
409.717	329.95
409.93	365.21
410.143	306.51
410.357	237.34
410.57	247.42
410.783	301.66
410.996	297.79
411.209	285.2
411.421	361.14
411.634	338.86
411.847	295.66
412.06	346.03
412.273	341.19
412.486	362.31
412.699	388.46
412.912	358.82
413.125	375.29
413.338	339.45
413.55	369.28
413.763	356.69
413.976	362.69
414.189	328.79
414.402	359.59
414.615	403.77
414.827	325.5
415.04	382.65
415.253	366.38
415.466	408.03
415.678	430.31
415.891	359.98
416.104	375.48
416.316	387.3
416.529	371.8
416.742	400.09
416.954	413.26
417.167	378
417.38	376.26
417.592	400.28
417.805	344.1
418.017	304.96
418.23	384.59
418.442	350.88
418.655	389.24
418.868	377.42
419.08	398.73
419.293	418.3
419.505	390.98
419.718	397.96
419.93	446.78
420.142	379.55
420.355	417.53
420.567	415.39
420.78	378.39
420.992	370.64
421.205	447.94
421.417	330.92
421.629	379.94
421.842	383.04
422.054	363.08
422.266	428.96
422.479	432.83
422.691	396.6
422.903	420.43
423.115	385.56
423.328	387.49
423.54	414.23
423.752	378.58
423.964	407.45
424.177	416.36
424.389	385.36
424.601	509.94
424.813	406.48
425.025	457.24
425.238	456.27
425.45	410.55
425.662	402.03
425.874	710.08
426.086	399.51
426.298	437.29
426.51	414.62
426.722	438.06
426.934	416.94
427.146	452.59
427.358	372.38
427.57	469.06
427.782	394.66
427.994	398.73
428.206	369.48
428.418	380.71
428.63	457.63
428.842	470.42
429.054	441.74
429.266	418.88
429.478	416.56
429.69	440.58
429.902	341.38
430.114	442.91
430.325	414.62
430.537	366.76
430.749	354.94
430.961	302.05
431.173	355.72
431.384	354.94
431.596	245.67
431.808	377.23
432.02	425.86
432.231	494.06
432.443	509.17
432.655	493.47
432.867	435.35
433.078	478.75
433.29	518.27
433.502	509.56
433.713	516.14
433.925	508.97
434.136	535.32
434.348	407.45
434.56	425.28
434.771	586.47
434.983	408.23
435.194	454.14
435.406	469.06
435.617	534.74
435.829	588.99
436.04	555.47
436.252	541.72
436.463	577.75
436.675	599.65
436.886	586.86
437.098	571.94
437.309	618.05
437.521	554.89
437.732	575.43
437.943	549.66
438.155	526.99
438.366	495.99
438.578	589.19
438.789	526.99
439	552.57
439.211	491.15
439.423	524.09
439.634	547.34
439.845	564.19
440.057	575.62
440.268	602.17
440.479	556.25
440.69	588.41
440.902	553.15
441.113	550.44
441.324	527.57
441.535	605.27
441.746	634.52
441.957	569.23
442.168	580.08
442.38	608.56
442.591	640.53
442.802	589.96
443.013	596.55
443.224	630.26
443.435	614.37
443.646	586.86
443.857	631.03
444.068	589.77
444.279	570.78
444.49	682.38
444.701	653.9
444.912	749.8
445.123	693.62
445.334	633.75
445.545	651.77
445.756	633.75
445.967	622.9
446.178	671.53
446.388	665.13
446.599	634.72
446.81	658.93
447.021	605.07
447.232	678.31
447.443	711.05
447.653	624.06
447.864	718.03
448.075	689.16
448.286	705.43
448.496	713.18
448.707	718.8
448.918	663.78
449.129	744.38
449.339	652.93
449.55	693.03
449.761	673.27
449.971	733.72
450.182	706.21
450.393	721.51
450.603	694.2
450.814	726.75
451.024	739.92
451.235	773.05
451.446	784.29
451.656	805.79
451.867	706.01
452.077	740.89
452.288	780.61
452.498	767.63
452.709	713.38
452.919	734.11
453.13	689.74
453.34	735.85
453.55	656.42
453.761	744.38
453.971	731.4
454.182	730.81
454.392	727.71
454.602	795.53
454.813	762.4
455.023	783.9
455.233	688.77
455.444	765.88
455.654	642.85
455.864	729.65
456.075	725
456.285	696.52
456.495	723.26
456.705	747.67
456.916	792.23
457.126	822.46
457.336	773.25
457.546	696.13
457.756	741.08
457.967	818.97
458.177	758.33
458.387	783.71
458.597	727.71
458.807	767.43
459.017	728.3
459.227	775.76
459.437	743.99
459.647	788.36
459.857	778.48
460.068	740.31
460.278	853.46
460.488	796.3
460.698	822.65
460.908	781.19
461.117	769.18
461.327	776.15
461.537	818.97
461.747	806.57
461.957	787.58
462.167	904.61
462.377	880.58
462.587	808.12
462.797	836.99
463.007	864.31
463.216	874.96
463.426	923.01
463.636	845.71
463.846	760.46
464.056	800.95
464.265	842.99
464.475	798.43
464.685	842.41
464.895	857.33
465.104	803.08
465.314	861.01
465.524	798.63
465.733	794.17
465.943	918.56
466.153	896.66
466.362	905.96
466.572	850.55
466.782	853.84
466.991	867.41
467.201	922.04
467.41	762.2
467.62	869.73
467.829	865.28
468.039	881.74
468.249	868.96
468.458	902.86
468.668	902.28
468.877	895.69
469.086	928.24
469.296	947.23
469.505	906.54
469.715	966.22
469.924	938.71
470.134	961.76
470.343	954.98
470.552	907.9
470.762	903.83
470.971	885.81
471.18	934.64
471.39	916.81
471.599	867.6
471.808	946.26
472.018	924.56
472.227	993.73
472.436	1029.96
472.645	984.62
472.855	974.35
473.064	1056.5
473.273	1030.54
473.482	1036.35
473.691	1050.88
473.901	1056.89
474.11	996.44
474.319	1096.03
474.528	1017.75
474.737	1140.01
474.946	1116.18
475.155	1078.4
475.364	1122.57
475.573	1081.88
475.783	1108.82
475.992	1112.11
476.201	1109.98
476.41	1100.68
476.619	1070.84
476.828	1119.08
477.037	1063.87
477.245	1079.75
477.454	1141.36
477.663	1115.6
477.872	1141.56
478.081	1228.16
478.29	1148.53
478.499	1264.59
478.708	1236.69
478.917	1273.31
479.125	1193.68
479.334	1214.41
479.543	1220.8
479.752	1198.52
479.961	1233.2
480.169	1287.64
480.378	1267.11
480.587	1394.79
480.796	1296.17
481.004	1268.08
481.213	1272.53
481.422	1273.31
481.63	1297.14
481.839	1333.17
482.048	1377.93
482.256	1336.08
482.465	1364.37
482.674	1354.49
482.882	1385.1
483.091	1421.33
483.299	1349.45
483.508	1388.2
483.716	1380.84
483.925	1356.62
484.134	1356.62
484.342	1337.63
484.551	1417.45
484.759	1370.57
484.967	1378.9
485.176	1421.14
485.384	1446.32
485.593	1417.84
485.801	1401.95
486.01	1358.75
486.218	1282.03
486.426	1196.97
486.635	1189.03
486.843	1214.41
487.051	1253.93
487.26	1239.59
487.468	1282.22
487.676	1323.49
487.885	1297.53
488.093	1330.07
488.301	1388.01
488.509	1384.52
488.717	1486.04
488.926	1456.2
489.134	1421.52
489.342	1426.17
489.55	1409.32
489.758	1422.1
489.967	1449.23
490.175	1545.72
490.383	1492.24
490.591	1584.66
490.799	1482.55
491.007	1559.47
491.215	1557.15
491.423	1511.62
491.631	1568.38
491.839	1508.9
492.047	1542.81
492.255	1470.15
492.463	1451.94
492.671	1418.62
492.879	1503.48
493.087	1518.98
493.295	1516.65
493.503	1583.11
493.711	1617.79
493.919	1579.81
494.127	1604.81
494.334	1603.84
494.542	1542.23
494.75	1640.46
494.958	1610.23
495.166	1646.85
495.374	1652.86
495.581	1648.4
495.789	1680.37
495.997	1728.03
496.205	1627.28
496.412	1592.99
496.62	1645.3
496.828	1640.65
497.035	1623.41
497.243	1698.39
497.451	1679.98
497.658	1658.28
497.866	1669.52
498.074	1741.01
498.281	1604.42
498.489	1736.56
498.696	1654.02
498.904	1606.36
499.112	1645.11
499.319	1716.79
499.527	1655.38
499.734	1724.16
499.942	1632.71
500.149	1619.73
500.357	1675.91
500.564	1608.68
500.771	1660.03
500.979	1619.34
501.186	1599.58
501.394	1715.05
501.601	1620.11
501.808	1638.13
502.016	1652.66
502.223	1597.83
502.43	1663.51
502.638	1659.25
502.845	1642.01
503.052	1740.43
503.26	1641.43
503.467	1746.63
503.674	1699.36
503.881	1745.47
504.089	1793.71
504.296	1736.94
504.503	1657.12
504.71	1693.54
504.917	1665.45
505.125	1696.26
505.332	1723.77
505.539	1780.73
505.746	1840.99
505.953	1793.91
506.16	1795.84
506.367	1846.8
506.574	1876.44
506.781	1861.14
506.988	1821.61
507.195	1800.88
507.402	1827.62
507.609	1836.72
507.816	1746.63
508.023	1775.69
508.23	1766.39
508.437	1732.1
508.644	1790.61
508.851	1812.89
509.058	1853.58
509.265	1812.7
509.472	1869.66
509.679	1945.8
509.885	1842.34
510.092	1846.41
510.299	1838.66
510.506	1825.68
510.713	1825.29
510.92	1845.05
511.126	1876.05
511.333	1890.2
511.54	1854.35
511.746	1941.54
511.953	1951.03
512.16	1965.95
512.367	1872.18
512.573	1902.02
512.78	1899.5
512.987	1847.19
513.193	1852.22
513.4	1800.11
513.606	1870.05
513.813	1868.69
514.02	1840.99
514.226	1914.03
514.433	1872.37
514.639	1818.71
514.846	1839.05
515.052	1808.63
515.259	1850.29
515.465	1846.41
515.672	1859
515.878	1942.51
516.085	1864.82
516.291	1912.87
516.497	1870.63
516.704	1842.34
516.91	1809.79
517.117	1768.14
517.323	1672.43
517.529	1680.18
517.736	1682.11
517.942	1725.51
518.148	1740.04
518.354	1753.02
518.561	1768.52
518.767	1744.89
518.973	1845.25
519.179	1819.29
519.386	1796.42
519.592	1789.84
519.798	1814.64
520.004	1930.3
520.21	1856.29
520.417	1933.79
520.623	1963.82
520.829	1967.89
521.035	1962.66
521.241	1953.94
521.447	1996.18
521.653	2072.32
521.859	1979.32
522.065	2027.76
522.271	2147.69
522.477	2053.91
522.683	2109.52
522.889	2062.83
523.095	2057.01
523.301	2019.23
523.507	2025.24
523.713	2042.68
523.919	2022.53
524.125	2127.54
524.331	2082.2
524.537	2162.22
524.742	2185.08
524.948	2201.36
525.154	2172.68
525.36	2272.46
525.566	2212.59
525.772	2213.37
525.977	2120.56
526.183	2177.91
526.389	2197.48
526.595	2136.26
526.8	2105.64
527.006	2051.78
527.212	1984.17
527.417	1979.13
527.623	1960.92
527.829	2048.1
528.034	2102.35
528.24	2108.55
528.446	2162.61
528.651	2259.67
528.857	2203.87
529.062	2269.56
529.268	2250.57
529.473	2265.68
529.679	2278.66
529.884	2367.59
530.09	2401.88
530.295	2368.95
530.501	2325.16
530.706	2303.65
530.912	2263.55
531.117	2328.45
531.323	2329.62
531.528	2410.8
531.733	2400.53
531.939	2357.52
532.144	2401.3
532.35	2352.67
532.555	2416.61
532.76	2345.31
532.966	2370.69
533.171	2325.94
533.376	2280.6
533.581	2231.77
533.787	2306.75
533.992	2385.03
534.197	2362.55
534.402	2368.56
534.607	2353.25
534.813	2440.25
535.018	2322.64
535.223	2354.8
535.428	2382.9
535.633	2451.29
535.838	2438.7
536.043	2433.27
536.249	2537.12
536.454	2456.52
536.659	2478.8
536.864	2417.19
537.069	2448.19
537.274	2401.69
537.479	2416.03
537.684	2433.66
537.889	2351.9
538.094	2504.38
538.299	2401.69
538.504	2422.62
538.708	2481.13
538.913	2518.33
539.118	2451.1
539.323	2469.11
539.528	2464.46
539.733	2417.38
539.938	2476.28
540.142	2468.92
540.347	2408.28
540.552	2397.62
540.757	2364.88
540.962	2403.43
541.166	2338.92
541.371	2336.59
541.576	2349.38
541.781	2318.57
541.985	2413.12
542.19	2423.39
542.395	2488.1
542.599	2523.95
542.804	2465.63
543.008	2493.53
543.213	2454.58
543.418	2388.32
543.622	2470.66
543.827	2384.45
544.031	2503.02
544.236	2487.52
544.44	2510.19
544.645	2584.59
544.849	2456.71
545.054	2530.53
545.258	2615.2
545.463	2604.74
545.667	2481.9
545.872	2537.51
546.076	2505.15
546.281	2506.31
546.485	2487.33
546.689	2591.76
546.894	2512.9
547.098	2514.26
547.302	2470.08
547.507	2515.81
547.711	2543.32
547.915	2515.23
548.119	2439.08
548.324	2430.56
548.528	2553.78
548.732	2434.63
548.936	2488.88
549.141	2485
549.345	2441.22
549.549	2477.25
549.753	2484.81
549.957	2570.83
550.161	2575.68
550.366	2504.76
550.57	2480.55
550.774	2499.15
550.978	2494.69
551.182	2502.44
551.386	2428.23
551.59	2485
551.794	2443.35
551.998	2529.95
552.202	2497.98
552.406	2469.89
552.61	2530.92
552.814	2527.43
553.018	2569.48
553.222	2526.08
553.426	2503.99
553.63	2586.91
553.833	2485.97
554.037	2411.96
554.241	2506.7
554.445	2507.86
554.649	2523.95
554.853	2484.23
555.056	2536.73
555.26	2571.03
555.464	2526.66
555.668	2530.34
555.871	2585.56
556.075	2544.09
556.279	2501.66
556.483	2438.5
556.686	2484.23
556.89	2474.93
557.094	2490.04
557.297	2396.46
557.501	2501.47
557.704	2366.82
557.908	2446.25
558.112	2391.42
558.315	2455.16
558.519	2434.24
558.722	2407.31
558.926	2435.02
559.129	2338.34
559.333	2330.2
559.536	2334.65
559.74	2308.69
559.943	2311.4
560.147	2293.58
560.35	2334.65
560.553	2350.35
560.757	2298.81
560.96	2422.23
561.164	2318.38
561.367	2466.21
561.57	2399.95
561.774	2431.14
561.977	2342.4
562.18	2328.26
562.384	2452.06
562.587	2347.64
562.79	2368.17
562.993	2313.92
563.197	2370.88
563.4	2397.62
563.603	2391.62
563.806	2467.37
564.009	2328.26
564.212	2374.95
564.416	2290.09
564.619	2351.9
564.822	2287.96
565.025	2346.67
565.228	2328.45
565.431	2329.42
565.634	2241.66
565.837	2273.24
566.04	2243.21
566.243	2246.5
566.446	2112.23
566.649	2256.96
566.852	2169.78
567.055	2247.08
567.258	2214.72
567.461	2278.85
567.664	2285.25
567.867	2187.99
568.07	2247.86
568.273	2269.36
568.475	2307.72
568.678	2242.62
568.881	2250.18
569.084	2222.86
569.287	2087.43
569.489	2187.6
569.692	2220.73
569.895	2196.9
570.098	2133.74
570.3	2132.38
570.503	2099.06
570.706	2065.73
570.909	2118.04
571.111	2027.37
571.314	2019.81
571.516	2069.8
571.719	2093.05
571.922	2037.83
572.124	2081.23
572.327	2086.08
572.529	2041.9
572.732	2051.98
572.935	2062.83
573.137	2178.88
573.34	2082.78
573.542	2114.36
573.745	2138.58
573.947	2140.91
574.15	2052.17
574.352	2078.52
574.554	2167.06
574.757	2072.13
574.959	2055.27
575.162	2085.11
575.364	2045.78
575.566	2153.89
575.769	2022.33
575.971	2048.68
576.173	1919.65
576.376	2052.17
576.578	2108.74
576.78	2099.64
576.982	1932.05
577.185	2018.46
577.387	1998.89
577.589	1977.77
577.791	2033.18
577.993	2013.23
578.196	2006.25
578.398	1982.62
578.6	2007.61
578.802	1931.47
579.004	1906.86
579.206	1909.57
579.408	1953.17
579.61	1939.41
579.812	1994.24
580.014	1914.61
580.216	1904.73
580.418	1932.05
580.62	1925.46
580.822	1876.44
581.024	1971.77
581.226	1959.56
581.428	1927.98
581.63	1987.65
581.832	1902.79
582.034	1962.85
582.236	1968.67
582.438	1968.67
582.64	1958.01
582.841	1975.06
583.043	2033.96
583.245	1978.74
583.447	1988.23
583.649	1960.53
583.85	1962.85
584.052	1963.63
584.254	1876.64
584.456	2016.13
584.657	1920.04
584.859	1933.6
585.061	1971.38
585.262	1951.23
585.464	1874.7
585.666	1936.5
585.867	1878.77
586.069	1961.3
586.27	1902.6
586.472	1850.87
586.674	1858.62
586.875	1867.92
587.077	1865.4
587.278	1874.7
587.48	1861.91
587.681	1968.47
587.883	1926.43
588.084	1829.75
588.285	1834.98
588.487	1848.35
588.688	1858.04
588.89	1792.94
589.091	1730.16
589.292	1722.61
589.494	1713.89
589.695	1656.15
589.896	1607.52
590.098	1579.23
590.299	1714.86
590.5	1660.03
590.702	1653.83
590.903	1726.48
591.104	1774.53
591.305	1751.09
591.507	1778.21
591.708	1790.22
591.909	1770.46
592.11	1813.67
592.311	1768.52
592.512	1722.99
592.714	1723.96
592.915	1668.55
593.116	1709.04
593.317	1737.91
593.518	1745.08
593.719	1736.36
593.92	1766.01
594.121	1830.72
594.322	1771.82
594.523	1751.09
594.724	1738.3
594.925	1769.69
595.126	1774.34
595.327	1750.89
595.528	1714.66
595.729	1733.84
595.929	1746.83
596.13	1744.89
596.331	1753.61
596.532	1753.41
596.733	1821.42
596.934	1797.97
597.135	1791.77
597.335	1781.89
597.536	1754.77
597.737	1767.17
597.938	1724.35
598.138	1763.1
598.339	1722.8
598.54	1752.83
598.74	1744.89
598.941	1741.01
599.142	1802.62
599.342	1750.7
599.543	1698.58
599.744	1706.53
599.944	1736.56
600.145	1730.16
600.345	1752.25
600.546	1800.49
600.746	1785.77
600.947	1781.51
601.147	1782.47
601.348	1760.39
601.548	1691.61
601.749	1733.84
601.949	1705.75
602.15	1688.7
602.35	1681.34
602.551	1750.31
602.751	1647.63
602.951	1676.69
603.152	1667.97
603.352	1719.51
603.552	1690.25
603.753	1746.24
603.953	1756.51
604.153	1733.84
604.354	1718.15
604.554	1755.35
604.754	1716.79
604.954	1667.97
605.155	1757.67
605.355	1719.31
605.555	1753.02
605.755	1761.16
605.955	1693.16
606.155	1741.79
606.356	1688.89
606.556	1724.35
606.756	1711.95
606.956	1669.13
607.156	1755.54
607.356	1648.98
607.556	1702.65
607.756	1680.18
607.956	1734.62
608.156	1728.42
608.356	1661.58
608.556	1716.6
608.756	1660.41
608.956	1615.66
609.156	1657.9
609.356	1598.41
609.556	1595.51
609.755	1627.48
609.955	1599.96
610.155	1628.83
610.355	1628.64
610.555	1576.13
610.755	1612.36
610.954	1556.18
611.154	1608.68
611.354	1645.88
611.554	1555.4
611.753	1565.48
611.953	1572.07
612.153	1598.41
612.352	1600.93
612.552	1554.24
612.752	1531.96
612.951	1570.52
613.151	1586.79
613.351	1537.58
613.55	1582.91
613.75	1590.47
613.949	1561.41
614.149	1577.49
614.348	1550.95
614.548	1524.21
614.747	1512.58
614.947	1532.93
615.146	1506.19
615.346	1563.73
615.545	1568.77
615.745	1577.49
615.944	1578.07
616.144	1594.15
616.343	1564.7
616.542	1526.92
616.742	1489.92
616.941	1511.03
617.14	1444.19
617.34	1465.12
617.539	1477.32
617.738	1470.15
617.938	1549.78
618.137	1501.54
618.336	1446.52
618.535	1528.08
618.734	1521.88
618.934	1517.62
619.133	1517.43
619.332	1564.32
619.531	1492.24
619.73	1532.35
619.929	1543.78
620.128	1531.57
620.328	1573.42
620.527	1465.5
620.726	1515.68
620.925	1524.98
621.124	1498.25
621.323	1547.65
621.522	1447.29
621.721	1419.2
621.92	1421.91
622.119	1505.22
622.318	1433.73
622.517	1489.92
622.715	1477.32
622.914	1427.72
623.113	1462.02
623.312	1367.08
623.511	1477.9
623.71	1421.33
623.909	1394.98
624.107	1517.43
624.306	1395.56
624.505	1389.94
624.704	1451.75
624.902	1418.04
625.101	1451.75
625.3	1438.96
625.499	1413.19
625.697	1387.62
625.896	1365.92
626.095	1399.44
626.293	1367.08
626.492	1374.44
626.69	1395.76
626.889	1378.32
627.088	1423.07
627.286	1355.46
627.485	1345.96
627.683	1397.31
627.882	1414.74
628.08	1314.96
628.279	1311.47
628.477	1435.09
628.676	1344.99
628.874	1381.22
629.073	1330.27
629.271	1289
629.469	1353.13
629.668	1333.56
629.866	1333.76
630.065	1359.72
630.263	1382.97
630.461	1329.88
630.66	1350.22
630.858	1359.14
631.056	1396.92
631.254	1392.07
631.453	1289.19
631.651	1377.35
631.849	1359.33
632.047	1353.91
632.245	1344.41
632.444	1349.84
632.642	1334.14
632.84	1370.18
633.038	1335.31
633.236	1349.84
633.434	1324.07
633.632	1338.79
633.83	1325.23
634.028	1355.46
634.227	1343.83
634.425	1428.11
634.623	1335.69
634.821	1354.49
635.019	1350.81
635.216	1347.71
635.414	1408.74
635.612	1347.12
635.81	1329.49
636.008	1401.18
636.206	1335.69
636.404	1384.71
636.602	1316.12
636.8	1352.74
636.997	1366.11
637.195	1406.99
637.393	1353.52
637.591	1413.19
637.789	1361.46
637.986	1342.47
638.184	1348.87
638.382	1396.72
638.58	1405.64
638.777	1443.42
638.975	1340.92
639.173	1355.84
639.37	1333.76
639.568	1354.49
639.765	1358.75
639.963	1339.57
640.161	1393.24
640.358	1391.49
640.556	1298.49
640.753	1294.62
640.951	1277.57
641.148	1329.3
641.346	1282.41
641.543	1273.69
641.741	1316.51
641.938	1261.68
642.136	1305.86
642.333	1243.86
642.531	1303.34
642.728	1304.89
642.925	1277.38
643.123	1256.45
643.32	1283.19
643.517	1217.9
643.715	1247.93
643.912	1288.23
644.109	1301.98
644.306	1248.31
644.504	1252.58
644.701	1273.31
644.898	1260.71
645.095	1267.11
645.293	1252.96
645.49	1258.58
645.687	1258.58
645.884	1284.35
646.081	1188.64
646.278	1229.52
646.475	1225.45
646.672	1196.58
646.87	1250.06
647.067	1181.86
647.264	1209.76
647.461	1165.78
647.658	1185.54
647.855	1226.81
648.052	1199.1
648.249	1079.37
648.446	1197.55
648.642	1168.1
648.839	1164.23
649.036	1170.43
649.233	1154.93
649.43	1138.07
649.627	1091.57
649.824	1161.71
650.021	1141.75
650.217	1118.89
650.414	1128.38
650.611	1189.41
650.808	1217.31
651.004	1170.23
651.201	1234.36
651.398	1265.17
651.595	1170.81
651.791	1162.48
651.988	1207.05
652.185	1173.14
652.381	1196.78
652.578	1129.35
652.775	1183.02
652.971	1156.09
653.168	1185.15
653.364	1175.46
653.561	1109.98
653.757	1149.7
653.954	1174.88
654.15	1148.92
654.347	1232.23
654.543	1169.46
654.74	1090.6
654.936	1128.19
655.133	1122.38
655.329	1129.74
655.525	1103.39
655.722	1135.36
655.918	1114.05
656.115	1125.28
656.311	1011.17
656.507	1006.52
656.704	931.54
656.9	978.81
657.096	976.87
657.292	949.17
657.489	1055.73
657.685	1035.77
657.881	1011.94
658.077	1051.27
658.273	1068.32
658.47	1127.22
658.666	1103.78
658.862	1126.64
659.058	1097.38
659.254	1153.57
659.45	1107.46
659.646	1126.64
659.842	1099.9
660.038	1172.95
660.234	1083.43
660.43	1106.3
660.626	1186.51
660.822	1144.27
661.018	1180.89
661.214	1117.92
661.41	1055.15
661.606	1148.15
661.802	1168.3
661.998	1122.77
662.194	1088.67
662.39	1144.66
662.586	1168.1
662.781	1142.72
662.977	1145.43
663.173	1143.5
663.369	1098.74
663.564	1122.18
663.76	1129.93
663.956	1110.95
664.152	1147.37
664.347	1073.17
664.543	1091.57
664.739	1080.72
664.934	1011.55
665.13	1069.29
665.326	1128.77
665.521	1116.18
665.717	1067.74
665.912	1070.26
666.108	994.89
666.304	1095.06
666.499	1076.46
666.695	1002.64
666.89	1047.2
667.086	1115.6
667.281	1100.29
667.477	1140.01
667.672	1067.93
667.867	1046.82
668.063	1087.12
668.258	1052.05
668.454	1068.9
668.649	1125.28
668.844	1051.08
669.04	1113.47
669.235	1080.14
669.43	1035.39
669.626	1016.59
669.821	1059.99
670.016	1008.45
670.211	1051.08
670.407	1008.45
670.602	1071.42
670.797	1034.42
670.992	1064.25
671.187	1031.12
671.382	1066.19
671.578	1013.49
671.773	1053.21
671.968	1023.95
672.163	1007.68
672.358	1057.47
672.553	982.49
672.748	1006.9
672.943	1094.28
673.138	1002.45
673.333	1041
673.528	1013.69
673.723	1049.33
673.918	1017.75
674.113	977.07
674.308	1120.25
674.503	1034.8
674.698	1103.78
674.892	1010.59
675.087	1027.44
675.282	1044.88
675.477	997.99
675.672	1008.45
675.867	969.7
676.061	989.47
676.256	941.42
676.451	954.21
676.646	1048.37
676.84	1004.58
677.035	975.9
677.23	972.42
677.424	1031.12
677.619	1068.13
677.814	1034.42
678.008	1014.65
678.203	970.87
678.397	989.66
678.592	996.83
678.787	1054.57
678.981	986.75
679.176	1008.84
679.37	1001.09
679.565	970.87
679.759	972.61
679.954	1012.33
680.148	1055.73
680.342	1043.72
680.537	1011.94
680.731	1016.2
680.926	1009.23
681.12	1002.64
681.314	972.8
681.509	966.22
681.703	970.67
681.897	1021.63
682.092	997.6
682.286	949.75
682.48	1053.02
682.674	1014.85
682.869	969.7
683.063	975.13
683.257	1019.5
683.451	942.19
683.645	991.02
683.839	987.53
684.034	970.29
684.228	986.75
684.422	923.59
684.616	939.67
684.81	958.86
685.004	941.42
685.198	963.5
685.392	1010.39
685.586	918.94
685.78	925.92
685.974	959.05
686.168	990.63
686.362	974.74
686.556	877.48
686.75	899.96
686.944	887.75
687.138	896.27
687.331	782.93
687.525	781.38
687.719	743.8
687.913	851.13
688.107	792.04
688.301	747.48
688.494	825.56
688.688	764.33
688.882	751.16
689.076	742.63
689.269	785.65
689.463	866.44
689.657	784.48
689.85	800.76
690.044	817.03
690.238	790.49
690.431	815.09
690.625	817.81
690.818	828.08
691.012	846.87
691.205	856.36
691.399	825.75
691.593	839.51
691.786	894.34
691.98	907.12
692.173	931.73
692.366	911
692.56	899.76
692.753	939.48
692.947	827.69
693.14	947.81
693.333	920.49
693.527	867.41
693.72	926.5
693.914	867.02
694.107	906.54
694.3	876.12
694.493	900.15
694.687	922.04
694.88	846.09
695.073	938.71
695.266	972.8
695.46	879.61
695.653	1003.03
695.846	972.8
696.039	870.12
696.232	913.52
696.425	982.88
696.618	971.64
696.812	980.55
697.005	1055.73
697.198	1087.89
697.391	1023.57
697.584	1051.47
697.777	1088.08
697.97	1062.7
698.163	1099.13
698.356	1072.39
698.549	1146.01
698.742	1112.5
698.935	1065.42
699.127	1112.5
699.32	1069.48
699.513	1049.14
699.706	1098.55
699.899	1130.9
700.092	1057.28
700.285	1138.85
700.477	1080.53
700.67	1121.99
700.863	1186.31
701.056	1209.56
701.248	1196
701.441	1199.1
701.634	1149.5
701.826	1282.8
702.019	1170.62
702.212	1243.28
702.404	1191.35
702.597	1131.1
702.79	1185.93
702.982	1245.79
703.175	1271.18
703.367	1295.78
703.56	1282.41
703.752	1362.24
703.945	1320.39
704.137	1358.17
704.33	1363.01
704.522	1364.95
704.715	1379.29
704.907	1435.47
705.1	1430.24
705.292	1419.59
705.484	1435.09
705.677	1460.66
705.869	1486.23
706.061	1493.21
706.254	1546.49
706.446	1514.13
706.638	1493.6
706.831	1579.62
707.023	1517.62
707.215	1642.2
707.407	1609.65
707.599	1574.39
707.792	1667
707.984	1666.03
708.176	1646.08
708.368	1645.3
708.56	1677.27
708.752	1669.13
708.944	1666.61
709.136	1698.58
709.329	1681.34
709.521	1833.43
709.713	1777.63
709.905	1798.36
710.097	1838.08
710.289	1788.87
710.481	1797.59
710.672	1854.74
710.864	1834.21
711.056	1933.98
711.248	1901.63
711.44	1909.96
711.632	1928.17
711.824	1939.8
712.016	1982.23
712.207	1970.41
712.399	1981.84
712.591	2050.81
712.783	2015.16
712.975	2015.36
713.166	2000.05
713.358	2057.4
713.55	2162.99
713.741	2105.26
713.933	2116.3
714.125	2118.24
714.316	2110.1
714.508	2157.76
714.7	2183.73
714.891	2192.64
715.083	2239.91
715.274	2182.56
715.466	2212.4
715.657	2251.34
715.849	2180.24
716.04	2194.77
716.232	2160.67
716.423	2282.54
716.615	2204.07
716.806	2172.49
716.998	2169.58
717.189	2078.13
717.381	2038.8
717.572	2005.48
717.763	2069.41
717.955	2032.8
718.146	2004.7
718.337	1967.31
718.528	1916.55
718.72	1843.5
718.911	1923.72
719.102	1872.95
719.293	1918.68
719.485	1920.62
719.676	1930.3
719.867	1860.36
720.058	1873.73
720.249	1912.29
720.44	1922.55
720.632	1978.74
720.823	2016.71
721.014	2139.74
721.205	2129.28
721.396	2235.65
721.587	2309.66
721.778	2343.95
721.969	2376.5
722.16	2428.82
722.351	2461.95
722.542	2617.91
722.733	2612.68
722.924	2505.73
723.115	2599.7
723.305	2566.38
723.496	2590.59
723.687	2448
723.878	2467.37
724.069	2503.99
724.26	2534.79
724.45	2474.15
724.641	2430.75
724.832	2492.95
725.023	2483.45
725.213	2476.86
725.404	2474.15
725.595	2456.52
725.785	2446.64
725.976	2524.72
726.167	2543.51
726.357	2544.68
726.548	2660.15
726.739	2537.51
726.929	2695.02
727.12	2671.97
727.31	2701.03
727.501	2662.86
727.691	2689.02
727.882	2708.59
728.072	2721.76
728.263	2709.75
728.453	2769.23
728.644	2838.78
728.834	2738.62
729.024	2737.84
729.215	2721.57
729.405	2787.05
729.596	2872.11
729.786	2856.61
729.976	2856.42
730.167	2906.6
730.357	2882.57
730.547	2866.88
730.737	2939.92
730.928	2950.38
731.118	3035.05
731.308	2948.45
731.498	3002.5
731.688	3080.39
731.879	3077.29
732.069	3104.99
732.259	3154.01
732.449	3150.33
732.639	3244.49
732.829	3242.36
733.019	3253.79
733.209	3352.02
733.399	3337.1
733.589	3489.58
733.779	3447.93
733.969	3445.99
734.159	3539.96
734.349	3553.91
734.539	3586.07
734.729	3623.65
734.919	3637.22
735.109	3691.85
735.299	3606.6
735.488	3674.03
735.678	3690.88
735.868	3646.9
736.058	3664.92
736.248	3661.05
736.437	3622.88
736.627	3587.81
736.817	3734.87
737.007	3687.98
737.196	3726.34
737.386	3723.05
737.576	3703.28
737.765	3807.52
737.955	3747.07
738.144	3895.29
738.334	3867.78
738.524	3823.41
738.713	3829.22
738.903	3779.04
739.092	3812.36
739.282	3830.58
739.471	3892.58
739.661	3882.11
739.85	3936.94
740.04	3884.83
740.229	3945.08
740.419	3992.55
740.608	3935.2
740.797	3925.13
740.987	4029.55
741.176	3970.07
741.365	3931.52
741.555	3887.73
741.744	3989.26
741.933	3959.03
742.123	4068.5
742.312	4015.22
742.501	4080.32
742.69	4106.47
742.88	3962.13
743.069	4116.55
743.258	4080.32
743.447	4182.62
743.636	4084.77
743.825	4053.39
744.014	4068.69
744.204	4132.43
744.393	4119.07
744.582	4170.99
744.771	4158.78
744.96	4069.85
745.149	4190.75
745.338	4078.96
745.527	4174.09
745.716	4106.86
745.905	4111.7
746.094	4174.67
746.283	4201.99
746.471	4182.42
746.66	4221.56
746.849	4211.87
747.038	4242.1
747.227	4166.34
747.416	4256.24
747.604	4149.87
747.793	4195.6
747.982	4207.03
748.171	4280.85
748.359	4240.55
748.548	4203.54
748.737	4208.38
748.926	4193.27
749.114	4111.9
749.303	4213.81
749.491	4152.2
749.68	4147.55
749.869	4205.09
750.057	4193.47
750.246	4144.64
750.434	4137.67
750.623	4165.95
750.811	4164.6
751	4144.25
751.188	4142.12
751.377	4107.83
751.565	4119.45
751.754	4090.97
751.942	4107.44
752.131	4143.67
752.319	4110.35
752.507	4096.01
752.696	4106.09
752.884	4158.78
753.072	4125.07
753.261	4142.32
753.449	4111.51
753.637	4079.74
753.825	4204.9
754.014	4174.48
754.202	4115.19
754.39	4131.85
754.578	4165.76
754.766	4089.81
754.955	4053.58
755.143	4146.38
755.331	4095.43
755.519	4107.44
755.707	4129.72
755.895	4074.7
756.083	4067.72
756.271	3971.04
756.459	4058.04
756.647	4114.03
756.835	4021.61
757.023	4051.45
757.211	4022.77
757.399	4048.93
757.587	4019.67
757.775	3947.6
757.963	3970.66
758.151	4025.29
758.339	3958.26
758.526	3951.28
758.714	4012.12
758.902	3923.38
759.09	3855.76
759.278	3677.52
759.465	3443.66
759.653	3104.41
759.841	2874.24
760.028	2498.56
760.216	2173.84
760.404	2054.88
760.591	1793.13
760.779	1546.49
760.967	1403.5
761.154	1244.83
761.342	1251.61
761.529	1286.87
761.717	1373.86
761.905	1338.21
762.092	1493.21
762.28	1451.94
762.467	1495.34
762.655	1421.52
762.842	1457.95
763.029	1491.27
763.217	1507.74
763.404	1527.12
763.592	1550.56
763.779	1533.12
763.966	1565.28
764.154	1640.85
764.341	1670.88
764.528	1690.25
764.716	1773.56
764.903	1795.07
765.09	1866.75
765.277	1920.23
765.465	2093.05
765.652	2151.56
765.839	2213.95
766.026	2368.37
766.213	2412.15
766.4	2481.13
766.588	2665.19
766.775	2695.99
766.962	2755.86
767.149	2803.13
767.336	2992.23
767.523	2952.71
767.71	3035.44
767.897	3160.4
768.084	3235.97
768.271	3233.83
768.458	3293.7
768.645	3359.58
768.832	3341.36
769.019	3400.65
769.206	3402.59
769.392	3459.94
769.579	3539.96
769.766	3492.68
769.953	3500.82
770.14	3583.94
770.327	3545.19
770.513	3594.01
770.7	3663.57
770.887	3536.66
771.073	3563.21
771.26	3573.67
771.447	3586.26
771.634	3555.46
771.82	3657.95
772.007	3550.03
772.193	3542.67
772.38	3629.08
772.567	3544.99
772.753	3563.21
772.94	3623.46
773.126	3596.14
773.313	3607.38
773.499	3617.07
773.686	3644.39
773.872	3538.6
774.059	3622.3
774.245	3530.07
774.432	3562.24
774.618	3476.21
774.804	3517.67
774.991	3472.92
775.177	3519.22
775.363	3471.76
775.55	3563.98
775.736	3501.98
775.922	3501.79
776.109	3516.9
776.295	3489.58
776.481	3491.33
776.667	3530.27
776.853	3453.16
777.04	3398.71
777.226	3413.24
777.412	3538.79
777.598	3457.61
777.784	3433.59
777.97	3404.53
778.156	3456.45
778.342	3412.86
778.528	3457.81
778.715	3354.73
778.901	3410.14
779.087	3400.65
779.272	3383.02
779.458	3356.09
779.644	3360.93
779.83	3317.34
780.016	3406.85
780.202	3320.44
780.388	3326.45
780.574	3218.72
780.76	3302.23
780.946	3361.71
781.131	3331.87
781.317	3324.9
781.503	3252.82
781.689	3313.66
781.874	3384.76
782.06	3271.62
782.246	3285.37
782.432	3278.59
782.617	3254.18
782.803	3341.75
782.989	3189.27
783.174	3257.67
783.36	3174.94
783.545	3273.55
783.731	3216.59
783.916	3159.24
784.102	3234.22
784.288	3188.3
784.473	3202.64
784.659	3140.26
784.844	3243.13
785.029	3155.95
785.215	3147.81
785.4	3091.43
785.586	3252.82
785.771	3050.16
785.956	3165.05
786.142	3108.48
786.327	3111
786.512	3097.44
786.698	3091.24
786.883	3018.19
787.068	3089.11
787.254	3073.02
787.439	3055.01
787.624	3027.88
787.809	3080.39
787.994	2996.88
788.18	3094.14
788.365	2980.41
788.55	2958.33
788.735	3001.14
788.92	2985.64
789.105	3031.76
789.29	3033.31
789.475	2953.48
789.66	2980.8
789.845	2935.46
790.03	2962.98
790.215	2960.46
790.4	3031.95
790.585	2980.99
790.77	2945.73
790.955	2877.15
791.14	2915.9
791.325	3011.41
791.51	2838.59
791.695	2918.8
791.879	2899.81
792.064	2848.28
792.249	2950.96
792.434	2883.93
792.618	2856.22
792.803	2916.48
792.988	2854.28
793.173	2876.76
793.357	2909.5
793.542	2816.89
793.727	2849.25
793.911	2956.58
794.096	2867.85
794.281	2902.33
794.465	2964.14
794.65	2906.6
794.834	2952.13
795.019	2937.6
795.203	2985.84
795.388	2948.45
795.572	2977.89
795.757	2924.03
795.941	2981.96
796.126	2967.63
796.31	2942.83
796.494	2909.11
796.679	2890.71
796.863	2875.02
797.048	2988.36
797.232	2942.05
797.416	2975.76
797.601	2940.31
797.785	2987.39
797.969	3011.99
798.153	2928.68
798.338	2956
798.522	2973.24
798.706	2956.78
798.89	3038.73
799.074	3066.63
799.258	3007.34
799.443	2998.04
799.627	3019.94
799.811	3082.52
799.995	3030.59
800.179	2910.08
800.363	2947.28
800.547	3003.28
800.731	3025.56
800.915	2930.81
801.099	2926.36
801.283	2899.23
801.467	2963.36
801.651	2905.63
801.835	2998.24
802.019	2969.37
802.202	2956
802.386	2916.09
802.57	2885.09
802.754	2923.26
802.938	2919.38
803.121	2899.04
803.305	2984.48
803.489	2932.36
803.673	2969.76
803.856	2976.93
804.04	2944.76
804.224	2959.68
804.407	2952.9
804.591	2944.18
804.775	2928.49
804.958	2929.07
805.142	3058.49
805.326	2969.95
805.509	2917.25
805.693	2974.79
805.876	2995.33
806.06	2963.56
806.243	3002.89
806.427	3010.25
806.61	2994.56
806.794	2962.4
806.977	3006.57
807.16	2927.33
807.344	2946.31
807.527	2964.72
807.71	2937.21
807.894	2947.28
808.077	2957.94
808.26	2880.44
808.444	2877.73
808.627	2958.91
808.81	2909.31
808.993	2870.17
809.177	2798.68
809.36	2842.85
809.543	2909.31
809.726	2815.34
809.909	2777.17
810.092	2770.59
810.276	2759.35
810.459	2785.31
810.642	2754.89
810.825	2743.07
811.008	2750.44
811.191	2677.2
811.374	2679.52
811.557	2693.67
811.74	2719.82
811.923	2643.49
812.106	2645.42
812.289	2600.86
812.472	2588.46
812.654	2612.88
812.837	2576.45
813.02	2548.16
813.203	2520.26
813.386	2415.64
813.569	2389.87
813.751	2328.26
813.934	2419.9
814.117	2356.16
814.3	2286.22
814.482	2301.14
814.665	2251.73
814.848	2200.39
815.03	2133.35
815.213	2149.04
815.396	2123.28
815.578	2098.67
815.761	2079.49
815.943	2136.84
816.126	2044.81
816.309	2013.61
816.491	1939.22
816.674	1869.08
816.856	1900.08
817.039	1930.69
817.221	2022.53
817.403	1936.12
817.586	1963.43
817.768	1986.68
817.951	1912.87
818.133	1898.53
818.315	1907.64
818.498	1932.43
818.68	2023.11
818.862	2003.35
819.045	2003.93
819.227	1965.95
819.409	1957.04
819.591	1979.32
819.774	1961.11
819.956	1919.45
820.138	2030.66
820.32	1964.4
820.502	2022.91
820.684	2086.27
820.866	2116.3
821.048	2157.38
821.231	2145.36
821.413	2145.36
821.595	2141.29
821.777	2128.12
821.959	2151.95
822.141	2213.76
822.323	2072.51
822.505	2032.8
822.686	1978.55
822.868	1887.29
823.05	1803.01
823.232	1737.14
823.414	1668.94
823.596	1748.37
823.778	1720.09
823.96	1786.93
824.141	1790.22
824.323	1803.79
824.505	1848.54
824.687	1887.87
824.868	1954.33
825.05	2036.86
825.232	2040.16
825.413	2135.68
825.595	2080.46
825.777	1993.66
825.958	2081.43
826.14	2052.36
826.321	2085.11
826.503	2032.8
826.685	2079.1
826.866	2091.5
827.048	2097.31
827.229	2024.08
827.411	2018.07
827.592	1924.1
827.773	1948.52
827.955	1924.3
828.136	1893.1
828.318	1852.03
828.499	1870.24
828.68	1827.62
828.862	1882.84
829.043	1907.44
829.224	1886.9
829.406	1838.47
829.587	1871.99
829.768	1848.54
829.949	1894.65
830.131	1841.76
830.312	1937.28
830.493	1864.24
830.674	1872.95
830.855	1865.4
831.036	1847.96
831.218	1915.58
831.399	1931.66
831.58	1890.39
831.761	1919.07
831.942	1890.39
832.123	1871.79
832.304	1815.61
832.485	1862.3
832.666	1855.13
832.847	1842.15
833.028	1854.35
833.209	1842.73
833.389	1861.14
833.57	1838.66
833.751	1805.14
833.932	1891.94
834.113	1838.47
834.294	1800.49
834.475	1865.79
834.655	1883.22
834.836	1901.82
835.017	1881.09
835.198	1815.61
835.378	1862.88
835.559	1932.82
835.74	1863.27
835.92	1863.46
836.101	1802.04
836.281	1890
836.462	1908.41
836.643	1914.42
836.823	1886.32
837.004	1943.67
837.184	1951.23
837.365	1934.57
837.545	1952.97
837.726	1869.08
837.906	1898.72
838.087	1926.62
838.267	1912.87
838.448	1860.75
838.628	1899.11
838.808	1890.97
838.989	1963.43
839.169	1837.89
839.349	1897.56
839.53	1934.37
839.71	1904.73
839.89	1858.04
840.07	1937.86
840.251	1881.48
840.431	1941.93
840.611	1927.98
840.791	1837.5
840.971	1869.08
841.151	1884.58
841.332	1836.34
841.512	1901.63
841.692	1787.71
841.872	1898.72
842.052	1817.54
842.232	1902.02
842.412	1798.17
842.592	1834.59
842.772	1855.71
842.952	1862.49
843.132	1854.35
843.312	1857.84
843.492	1806.69
843.672	1886.32
843.851	1769.88
844.031	1819.48
844.211	1818.32
844.391	1806.11
844.571	1835.17
844.751	1825.87
844.93	1792.74
845.11	1807.47
845.29	1796.23
845.47	1855.9
845.649	1809.79
845.829	1831.88
846.009	1750.12
846.188	1828.39
846.368	1820.06
846.547	1793.52
846.727	1841.37
846.907	1745.08
847.086	1786.54
847.266	1846.41
847.445	1808.24
847.625	1763.1
847.804	1740.43
847.984	1736.17
848.163	1774.72
848.343	1765.04
848.522	1774.34
848.701	1779.37
848.881	1705.36
849.06	1753.02
849.239	1763.1
849.419	1736.94
849.598	1650.53
849.777	1672.62
849.957	1642.78
850.136	1582.33
850.315	1566.25
850.494	1592.02
850.674	1592.6
850.853	1639.49
851.032	1634.65
851.211	1692.38
851.39	1652.47
851.569	1596.48
851.748	1602.68
851.927	1657.12
852.107	1634.65
852.286	1620.5
852.465	1576.71
852.644	1641.62
852.823	1661.38
853.002	1634.65
853.181	1638.91
853.359	1619.73
853.538	1567.03
853.717	1613.53
853.896	1511.03
854.075	1462.6
854.254	1429.85
854.433	1352.94
854.611	1391.11
854.79	1324.65
854.969	1387.04
855.148	1425.59
855.327	1388.78
855.505	1499.22
855.684	1441.48
855.863	1480.81
856.041	1468.6
856.22	1495.53
856.399	1439.93
856.577	1547.46
856.756	1571.29
856.934	1670.1
857.113	1708.27
857.291	1543.78
857.47	1560.05
857.648	1520.53
857.827	1570.9
858.005	1590.28
858.184	1525.76
858.362	1655.18
858.541	1560.05
858.719	1567.03
858.898	1543.2
859.076	1533.12
859.254	1593.76
859.433	1492.63
859.611	1491.27
859.789	1474.8
859.967	1549.4
860.146	1607.71
860.324	1479.07
860.502	1526.73
860.68	1426.37
860.859	1497.86
861.037	1469.57
861.215	1495.53
861.393	1509.1
861.571	1466.67
861.749	1465.31
861.927	1507.16
862.105	1488.75
862.283	1480.62
862.461	1451.75
862.639	1417.07
862.817	1445.55
862.995	1449.23
863.173	1449.42
863.351	1460.47
863.529	1441.67
863.707	1506.38
863.885	1468.6
864.063	1382.97
864.241	1427.72
864.418	1483.33
864.596	1394.79
864.774	1394.59
864.952	1426.37
865.129	1427.14
865.307	1387.81
865.485	1346.16
865.663	1425.79
865.84	1340.15
866.018	1388.97
866.196	1226.42
866.373	1238.24
866.551	1207.24
866.728	1137.3
866.906	1243.86
867.084	1233.78
867.261	1311.67
867.439	1290.74
867.616	1319.22
867.794	1298.69
867.971	1325.62
868.149	1324.65
868.326	1348.67
868.503	1326.01
868.681	1352.36
868.858	1272.34
869.035	1282.22
869.213	1336.08
869.39	1314.96
869.567	1365.14
869.745	1318.45
869.922	1305.08
870.099	1338.41
870.276	1332.4
870.454	1305.28
870.631	1338.99
870.808	1324.46
870.985	1347.32
871.162	1381.61
871.339	1342.86
871.517	1281.83
871.694	1248.51
871.871	1269.24
872.048	1249.48
872.225	1264.59
872.402	1294.04
872.579	1235.72
872.756	1278.54
872.933	1235.91
873.11	1254.51
873.287	1269.63
873.463	1270.79
873.64	1235.33
873.817	1265.56
873.994	1272.73
874.171	1233.59
874.348	1272.92
874.524	1169.07
874.701	1224.87
874.878	1146.98
875.055	1264.59
875.231	1219.06
875.408	1242.11
875.585	1169.46
875.762	1232.43
875.938	1206.66
876.115	1186.12
876.291	1162.68
876.468	1165.58
876.645	1139.43
876.821	1176.24
876.998	1171.78
877.174	1200.26
877.351	1183.6
877.527	1132.65
877.704	1180.7
877.88	1172.75
878.057	1167.13
878.233	1223.51
878.409	1159.38
878.586	1163.65
878.762	1179.34
878.938	1153.96
879.115	1074.72
879.291	1133.03
879.467	1089.63
879.644	1118.31
879.82	1150.86
879.996	1093.7
880.172	1053.02
880.349	1127.42
880.525	1159.38
880.701	1070.45
880.877	1102.23
881.053	1093.7
881.229	1103.39
881.405	1155.7
881.581	1069.48
881.757	1108.43
881.933	1128.58
882.109	1139.23
882.285	1114.43
882.461	1070.84
882.637	1103.78
882.813	1077.04
882.989	1094.28
883.165	1147.76
883.341	1086.34
883.517	1150.47
883.693	1071.23
883.869	1141.95
884.044	1081.88
884.22	1145.43
884.396	1146.6
884.572	1123.15
884.747	1167.71
884.923	1105.91
885.099	1118.5
885.275	1154.54
885.45	1058.25
885.626	1087.12
885.801	1082.47
885.977	1077.82
886.153	1039.26
886.328	1078.2
886.504	1074.52
886.679	1107.46
886.855	1059.8
887.03	1108.23
887.206	1124.32
887.381	1096.03
887.557	1133.81
887.732	1117.92
887.908	1113.08
888.083	1112.88
888.258	1078.98
888.434	1069.48
888.609	1091.18
888.784	1139.04
888.96	1088.28
889.135	1061.93
889.31	1062.7
889.485	1092.54
889.661	1097.19
889.836	1131.87
890.011	1119.86
890.186	1087.89
890.361	1065.22
890.537	1115.79
890.712	1126.06
890.887	1099.9
891.062	1087.31
891.237	1148.53
891.412	1066.19
891.587	1090.41
891.762	1129.74
891.937	1154.54
892.112	1045.46
892.287	1069.1
892.462	1021.63
892.637	1005.74
892.812	1013.69
892.987	1036.94
893.161	1015.82
893.336	1039.84
893.511	1001.48
893.686	1017.56
893.861	1014.07
894.035	1027.05
894.21	1027.44
894.385	948.59
894.56	1028.8
894.734	944.32
894.909	940.06
895.084	966.99
895.258	931.73
895.433	946.46
895.608	917.59
895.782	866.24
895.957	884.84
896.131	891.24
896.306	817.81
896.48	855.2
896.655	824.39
896.829	795.91
897.004	798.82
897.178	770.73
897.353	769.95
897.527	813.74
897.701	815.29
897.876	744.18
898.05	842.41
898.224	790.29
898.399	847.84
898.573	800.95
898.747	711.25
898.921	744.38
899.096	625.03
899.27	633.55
899.444	646.73
899.618	676.76
899.792	689.93
899.967	690.32
900.141	744.96
900.315	662.23
900.489	696.33
900.663	714.15
900.837	710.66
901.011	657.58
901.185	772.86
901.359	725.39
901.533	688.38
901.707	719.96
901.881	724.03
902.055	647.89
902.229	676.95
902.403	733.72
902.576	701.56
902.75	701.56
902.924	844.93
903.098	765.3
903.272	821.29
903.446	854.43
903.619	796.3
903.793	851.33
903.967	796.11
904.14	859.85
904.314	861.79
904.488	852.49
904.661	878.26
904.835	841.44
905.009	869.15
905.182	889.11
905.356	852.88
905.529	847.84
905.703	797.46
905.876	808.31
906.05	789.91
906.223	757.75
906.397	745.93
906.57	701.36
906.744	681.02
906.917	687.03
907.09	673.66
907.264	687.8
907.437	670.56
907.61	661.84
907.784	637.04
907.957	683.73
908.13	621.73
908.304	676.95
908.477	609.53
908.65	652.54
908.823	599.26
908.996	686.45
909.17	615.73
909.343	632.2
909.516	661.84
909.689	595.39
909.862	579.69
910.035	616.89
910.208	584.92
910.381	570.39
910.554	659.71
910.727	613.98
910.9	587.05
911.073	616.89
911.246	689.74
911.419	640.53
911.592	644.98
911.765	602.75
911.938	588.22
912.11	623.67
912.283	574.65
912.456	654.48
912.629	623.09
912.802	569.62
912.974	541.52
913.147	524.47
913.32	484.37
913.493	494.83
913.665	512.27
913.838	560.9
914.01	534.16
914.183	545.01
914.356	547.92
914.528	619.41
914.701	635.68
914.873	606.04
915.046	544.82
915.218	486.89
915.391	446.39
915.563	461.51
915.736	526.8
915.908	529.51
916.081	534.35
916.253	540.75
916.425	554.89
916.598	543.85
916.77	562.64
916.942	506.46
917.115	446.97
917.287	517.69
917.459	480.11
917.632	462.28
917.804	411.52
917.976	515.37
918.148	495.22
918.32	517.11
918.493	535.32
918.665	589.96
918.837	528.93
919.009	582.6
919.181	579.89
919.353	548.11
919.525	546.95
919.697	529.7
919.869	526.41
920.041	575.24
920.213	621.15
920.385	558.77
920.557	551.02
920.729	577.56
920.901	565.55
921.073	551.6
921.244	526.41
921.416	620.77
921.588	523.7
921.76	527.19
921.932	601.97
922.103	528.15
922.275	568.45
922.447	561.48
922.619	467.71
922.79	543.07
922.962	506.26
923.134	536.29
923.305	491.15
923.477	465.77
923.648	455.11
923.82	493.09
923.991	439.61
924.163	435.54
924.335	480.11
924.506	433.61
924.677	537.45
924.849	397.18
925.02	487.66
925.192	509.94
925.363	475.26
925.535	464.02
925.706	470.81
925.877	532.8
926.049	436.71
926.22	488.24
926.391	483.79
926.562	464.61
926.734	448.72
926.905	473.32
927.076	438.06
927.247	451.82
927.419	417.33
927.59	417.91
927.761	414.62
927.932	390.21
928.103	434.38
928.274	334.8
928.445	381.49
928.616	342.74
928.787	363.08
928.958	424.11
929.129	369.67
929.3	367.93
929.471	320.26
929.642	274.35
929.813	217
929.984	332.66
930.155	227.85
930.326	314.06
930.496	235.02
930.667	185.03
930.838	244.12
931.009	187.35
931.18	221.26
931.35	198.98
931.521	216.03
931.692	168.37
931.863	95.71
932.033	169.14
932.204	176.31
932.374	153.06
932.545	120.7
932.716	183.87
932.886	184.06
933.057	103.07
933.227	95.9
933.398	190.84
933.568	110.44
933.739	48.24
933.909	95.13
934.08	139.5
934.25	35.07
934.421	29.45
934.591	135.24
934.761	65.29
934.932	36.42
935.102	96.49
935.272	71.11
935.443	76.34
935.613	97.65
935.783	104.43
935.953	86.02
936.123	224.55
936.294	63.74
936.464	74.79
936.634	107.92
936.804	57.74
936.974	35.84
937.144	94.16
937.314	85.83
937.484	43.59
937.655	54.06
937.825	113.73
937.995	52.12
938.165	103.46
938.334	76.14
938.504	116.44
938.674	83.12
938.844	99.78
939.014	185.03
939.184	141.63
939.354	196.27
939.524	187.74
939.694	143.95
939.863	160.04
940.033	203.24
940.203	181.15
940.373	158.29
940.542	182.9
940.712	128.26
940.882	204.21
941.051	178.63
941.221	180.77
941.391	172.44
941.56	128.07
941.73	119.93
941.899	244.51
942.069	123.8
942.238	135.82
942.408	112.76
942.577	159.07
942.747	131.17
942.916	73.04
943.086	94.74
943.255	179.99
943.425	112.57
943.594	101.91
943.763	30.81
943.933	92.42
944.102	36.04
944.271	105.01
944.441	103.07
944.61	73.24
944.779	119.54
944.948	192.97
945.117	62.58
945.287	91.84
945.456	38.94
945.625	93.19
945.794	109.08
945.963	82.73
946.132	131.17
946.301	98.62
946.47	130
946.639	44.56
946.808	88.15
946.977	131.94
947.146	124.19
947.315	70.52
947.484	130.78
947.653	92.42
947.822	78.86
947.991	75.95
948.16	184.83
948.329	147.83
948.498	132.14
948.666	93.58
948.835	127.1
949.004	62.77
949.173	74.01
949.341	94.35
949.51	125.94
949.679	128.84
949.847	131.55
950.016	186.97
950.185	155.19
950.353	63.16
950.522	91.25
950.69	184.25
950.859	122.06
951.028	147.64
951.196	134.27
951.365	94.35
951.533	92.22
951.701	132.52
951.87	131.36
952.038	89.7
952.207	83.51
952.375	148.02
952.543	83.31
952.712	85.44
952.88	99.97
953.048	176.31
953.217	109.08
953.385	108.5
953.553	154.42
953.721	62.77
953.89	104.82
954.058	62.39
954.226	70.72
954.394	117.22
954.562	24.99
954.73	88.35
954.898	99
955.067	125.16
955.235	97.07
955.403	132.52
955.571	167.4
955.739	116.64
955.907	82.15
956.075	81.96
956.243	61.61
956.41	121.09
956.578	59.48
956.746	62.97
956.914	75.37
957.082	127.29
957.25	138.72
957.418	55.8
957.585	105.4
957.753	155.39
957.921	72.85
958.089	88.15
958.256	127.49
958.424	111.6
958.592	118.77
958.759	65.49
958.927	120.51
959.095	51.15
959.262	97.84
959.43	121.67
959.597	57.54
959.765	101.52
959.932	74.98
960.1	119.35
960.267	85.06
960.435	117.02
960.602	133.88
960.77	103.65
960.937	58.12
961.104	91.84
961.272	63.55
961.439	95.13
961.606	130
961.774	119.35
961.941	90.09
962.108	115.28
962.275	124.97
962.443	152.87
962.61	99.78
962.777	166.24
962.944	131.75
963.111	115.28
963.278	127.87
963.446	118.19
963.613	98.42
963.78	144.92
963.947	130.97
964.114	132.91
964.281	192.2
964.448	151.7
964.615	106.37
964.782	132.91
964.949	141.44
965.116	148.8
965.282	190.65
965.449	119.15
965.616	70.33
965.783	144.34
965.95	145.31
966.117	55.61
966.283	104.82
966.45	142.99
966.617	117.41
966.784	178.44
966.95	140.08
967.117	156.74
967.284	94.94
967.45	86.61
967.617	155.19
967.784	125.74
967.95	171.47
968.117	138.72
968.283	161.2
968.45	231.92
968.616	130.97
968.783	169.34
968.949	143.95
969.116	168.95
969.282	105.01
969.449	134.85
969.615	141.44
969.781	109.08
969.948	110.63
970.114	69.56
970.28	166.62
970.447	135.82
970.613	177.47
970.779	127.1
970.945	170.5
971.112	143.18
971.278	123.03
971.444	125.16
971.61	155.58
971.776	108.89
971.942	149.57
972.108	152.48
972.275	122.25
972.441	131.94
972.607	187.74
972.773	98.62
972.939	135.43
973.105	113.54
973.271	79.24
973.437	116.64
973.602	89.9
973.768	146.86
973.934	93.39
974.1	140.85
974.266	41.85
974.432	144.34
974.598	99.97
974.763	123.22
974.929	111.21
975.095	179.22
975.261	112.18
975.426	89.9
975.592	124.97
975.758	171.08
975.923	65.87
976.089	77.5
976.255	127.68
976.42	125.35
976.586	110.63
976.751	107.34
976.917	194.33
977.082	125.55
977.248	80.02
977.413	62
977.579	102.49
977.744	120.51
977.91	63.74
978.075	81.76
978.24	132.91
978.406	107.92
978.571	80.99
978.736	71.69
978.902	144.54
979.067	81.96
979.232	42.82
979.397	135.82
979.563	138.92
979.728	97.65
979.893	96.29
980.058	94.94
980.223	166.24
980.388	122.84
980.554	86.22
980.719	87.19
980.884	106.17
981.049	157.71
981.214	68.97
981.379	101.14
981.544	67.42
981.709	83.7
981.874	92.8
982.039	96.68
982.204	108.3
982.368	101.33
982.533	91.84
982.698	139.89
982.863	160.81
983.028	77.11
983.193	120.7
983.357	116.25
983.522	124.97
983.687	82.15
983.852	81.18
984.016	85.25
984.181	115.09
984.346	114.89
984.51	137.37
984.675	106.95
984.839	99.39
985.004	126.9
985.168	136.59
985.333	89.32
985.498	101.52
985.662	130.2
985.827	115.47
985.991	84.67
986.155	87.57
986.32	142.21
986.484	154.61
986.649	100.94
986.813	12.01
986.977	100.94
987.142	131.36
987.306	48.05
987.47	61.22
987.634	89.9
987.799	88.54
987.963	93.58
988.127	120.9
988.291	169.53
988.455	116.44
988.62	64.52
988.784	133.3
988.948	139.69
989.112	84.47
989.276	96.1
989.44	102.3
989.604	82.92
989.768	88.54
989.932	167.98
990.096	75.95
990.26	65.49
990.424	52.89
990.588	87.96
990.752	158.49
990.915	127.68
991.079	70.91
991.243	93.97
991.407	107.72
991.571	85.25
991.734	125.35
991.898	138.53
992.062	168.37
992.226	76.34
992.389	90.67
992.553	32.74
992.717	67.04
992.88	76.53
993.044	91.06
993.207	97.84
993.371	104.24
993.535	82.54
993.698	93.97
993.862	130.59
994.025	133.49
994.189	83.51
994.352	97.45
994.515	85.83
994.679	123.8
994.842	78.66
995.006	145.31
995.169	47.47
995.332	50.96
995.496	110.44
995.659	28.67
995.822	71.3
995.985	71.69
996.149	126.13
996.312	83.89
996.475	124.77
996.638	38.36
996.801	128.65
996.964	184.83
997.128	76.53
997.291	76.92
997.454	88.15
997.617	27.9
997.78	121.09
997.943	82.92
998.106	60.64
998.269	58.71
998.432	48.44
998.595	86.02
998.758	32.36
998.92	22.09
999.083	26.54
999.246	69.36
999.409	18.99
999.572	17.24
999.735	59.29
999.897	68.97
1000.06	31.19
1000.223	78.27
1000.386	97.65
1000.548	104.43
1000.711	102.3
1000.874	110.05
1001.036	22.09
1001.199	106.17
1001.361	49.79
1001.524	70.91
1001.687	103.46
1001.849	52.51
1002.012	83.12
1002.174	56.19
1002.337	83.12
1002.499	59.09
1002.661	93.39
1002.824	38.36
1002.986	37.78
1003.149	80.79
1003.311	31.19
1003.473	117.6
1003.636	54.06
1003.798	77.69
1003.96	72.66
1004.123	62.97
1004.285	37.01
1004.447	40.88
1004.609	60.45
1004.771	132.72
1004.933	10.85
1005.096	43.59
1005.258	2.13
1005.42	23.83
1005.582	62.77
1005.744	50.57
1005.906	0.58
1006.068	64.13
1006.23	4.46
1006.392	-6.59
1006.554	1.74
1006.716	110.82
1006.878	79.44
1007.04	8.72
1007.202	14.14
1007.363	57.16
1007.525	52.89
1007.687	61.81
1007.849	104.43
1008.011	-11.04
1008.172	10.46
1008.334	27.32
1008.496	65.87
1008.658	6.2
1008.819	22.28
1008.981	14.34
1009.143	20.15
1009.304	28.87
1009.466	62.19
1009.627	93.39
1009.789	162.17
1009.95	61.61
1010.112	44.76
1010.273	65.87
1010.435	21.89
1010.596	41.27
1010.758	30.61
1010.919	-8.91
1011.081	-6.39
1011.242	47.86
1011.403	50.96
1011.565	28.48
1011.726	40.3
1011.887	13.37
1012.049	12.4
1012.21	71.88
1012.371	83.89
1012.532	-36.62
1012.693	57.93
1012.855	12.21
1013.016	22.47
1013.177	56.77
1013.338	31.19
1013.499	91.84
1013.66	70.91
1013.821	55.41
1013.982	58.12
1014.143	47.47
1014.304	26.93
1014.465	59.67
1014.626	63.74
1014.787	35.65
1014.948	117.8
1015.109	-25.77
1015.27	78.66
1015.431	12.21
1015.592	17.82
1015.752	77.5
1015.913	43.98
1016.074	43.4
1016.235	45.92
1016.395	41.66
1016.556	44.17
1016.717	58.71
1016.877	95.9
1017.038	-4.07
1017.199	34.49
1017.359	50.37
1017.52	48.63
1017.681	6.97
1017.841	13.95
1018.002	42.43
1018.162	-4.46
1018.323	92.22
1018.483	27.32
1018.644	19.57
1018.804	19.57
1018.964	-27.12
1019.125	38.36
1019.285	24.99
1019.446	-25.38
1019.606	-14.14
1019.766	-33.32
1019.926	45.14
1020.087	37.01
1020.247	0.19
1020.407	47.47
1020.567	45.72
1020.728	15.5
1020.888	-13.17
1021.048	19.57
1021.208	-16.47
1021.368	6.01
1021.528	57.16
1021.688	63.16
1021.848	46.31
1022.008	64.91
1022.168	0.97
1022.328	41.85
1022.488	36.81
1022.648	2.32
1022.808	31.58
1022.968	45.34
1023.128	12.01
1023.288	17.05
1023.448	27.32
1023.608	56.38
1023.767	48.82
1023.927	-9.88
1024.087	-16.27
1024.247	-14.34
1024.406	22.86
1024.566	-13.95
1024.726	-7.75
1024.885	27.51
1025.045	30.03
1025.205	37.2
1025.364	22.28
1025.524	9.49
1025.683	12.01
1025.843	20.54
1026.003	4.26
1026.162	65.49
1026.321	51.15
1026.481	49.02
1026.64	-23.83
1026.8	10.85
1026.959	35.26
1027.119	20.15
1027.278	1.36
1027.437	2.52
1027.597	20.92
1027.756	30.81
1027.915	37.59
1028.074	52.12
1028.234	7.17
1028.393	34.68
1028.552	21.31
1028.711	-68.78
1028.87	70.14
1029.03	5.23
1029.189	31.19
1029.348	-49.6
1029.507	8.14
1029.666	6.01
1029.825	-23.06
1029.984	-11.62
1030.143	27.51
1030.302	-5.62
1030.461	-49.21
1030.62	3.1
1030.779	55.8
1030.938	11.24
1031.097	-12.59
1031.255	28.87
1031.414	63.16
1031.573	69.75
1031.732	-18.41
1031.891	-10.07
1032.049	86.8
1032.208	42.04
1032.367	-0.39
1032.525	0.77
1032.684	5.23
1032.843	23.83
1033.001	-50.76
1033.16	161
1033.319	66.65
1033.477	48.24
1033.636	-34.1
1033.794	-41.66
1033.953	53.28
1034.111	28.87
1034.27	3.49
1034.428	13.37
1034.587	-0.77
1034.745	10.46
1034.903	3.29
1035.062	52.31
1035.22	-52.89
1035.378	50.18
1035.537	-15.69
1035.695	28.09
1035.853	-7.17
1036.011	57.16
1036.17	34.68
1036.328	-43.79
1036.486	31.97
1036.644	16.86
1036.802	-76.72
1036.96	-13.95
1037.119	3.87
1037.277	-21.7
1037.435	-34.68
1037.593	-22.47
1037.751	6.2
1037.909	31.97
1038.067	31.97
