Data from gum_old_FLMT105791__151__15-47-38-250.txt Node

Date: Mon Mar 20 15:47:38 GMT 2023
User: antho
Spectrometer: FLMT10579
Trigger mode: 0
Integration Time (sec): 1.000000E-1
Scans to average: 10
Electric dark correction enabled: true
Nonlinearity correction enabled: false
Boxcar width: 0
XAxis mode: Wavelengths
Number of Pixels in Spectrum: 3648
>>>>>Begin Spectral Data<<<<<
345.248	-184.74
345.464	-184.74
345.681	-184.74
345.898	-199.08
346.114	-186.87
346.331	-44.27
346.548	22.77
346.764	-3.97
346.981	-2.23
347.197	-8.43
347.414	15.21
347.631	2.81
347.847	76.63
348.064	-8.82
348.28	21.22
348.497	-52.41
348.713	-18.5
348.93	40.78
349.146	22.77
349.363	17.92
349.579	41.37
349.796	13.08
350.012	-0.1
350.229	57.83
350.445	17.73
350.661	2.03
350.878	20.05
351.094	40.98
351.311	52.6
351.527	29.55
351.743	7.27
351.96	49.11
352.176	68.49
352.392	65.2
352.609	71.98
352.825	21.8
353.041	15.4
353.257	21.41
353.474	34.97
353.69	32.84
353.906	20.63
354.122	-20.05
354.339	85.54
354.555	53.18
354.771	30.9
354.987	91.74
355.203	109.37
355.42	-21.02
355.636	8.04
355.852	29.55
356.068	13.85
356.284	-4.36
356.5	93.48
356.716	52.8
356.932	8.43
357.148	65.78
357.364	22.57
357.58	59.96
357.796	106.08
358.012	84.38
358.228	49.31
358.444	-56.48
358.66	83.41
358.876	38.85
359.092	14.82
359.308	17.53
359.524	39.43
359.74	33.03
359.956	1.26
360.172	56.28
360.388	55.51
360.604	-7.65
360.819	121
361.035	55.51
361.251	68.3
361.467	3
361.683	74.88
361.898	42.92
362.114	53.96
362.33	45.05
362.546	95.81
362.762	32.45
362.977	37.49
363.193	19.67
363.409	72.75
363.624	5.52
363.84	16.76
364.056	10.56
364.271	76.24
364.487	77.6
364.703	29.16
364.918	11.14
365.134	22.96
365.35	48.53
365.565	150.44
365.781	69.07
365.996	46.6
366.212	118.48
366.427	43.5
366.643	25.09
366.858	14.63
367.074	22.18
367.289	97.94
367.505	151.8
367.72	8.04
367.936	28.19
368.151	108.21
368.367	96.39
368.582	66.55
368.798	27.03
369.013	110.34
369.228	65.97
369.444	62.1
369.659	115.96
369.874	78.76
370.09	148.51
370.305	7.27
370.52	43.11
370.736	103.95
370.951	53.38
371.166	114.02
371.381	135.14
371.597	88.06
371.812	4.36
372.027	41.17
372.242	81.47
372.458	132.04
372.673	66.36
372.888	32.84
373.103	79.92
373.318	157.42
373.533	90.19
373.749	47.76
373.964	5.72
374.179	107.63
374.394	24.32
374.609	110.53
374.824	43.11
375.039	99.88
375.254	48.53
375.469	134.94
375.684	82.25
375.899	120.22
376.114	43.3
376.329	84.38
376.544	117.9
376.759	101.81
376.974	42.33
377.189	78.18
377.404	53.18
377.619	114.6
377.834	19.28
378.049	33.03
378.264	3.97
378.478	59.77
378.693	37.88
378.908	105.5
379.123	49.89
379.338	113.05
379.553	74.3
379.767	82.25
379.982	102.78
380.197	89.22
380.412	80.89
380.626	95.03
380.841	155.29
381.056	89.03
381.271	153.54
381.485	62.48
381.7	66.16
381.915	99.49
382.129	76.63
382.344	71.98
382.559	67.13
382.773	109.76
382.988	2.23
383.202	48.73
383.417	3.39
383.632	142.69
383.846	82.44
384.061	72.95
384.275	47.95
384.49	92.51
384.704	93.29
384.919	94.84
385.133	59.58
385.348	109.37
385.562	67.33
385.777	136.49
385.991	70.23
386.206	91.74
386.42	43.5
386.634	133.2
386.849	84.76
387.063	83.8
387.277	53.76
387.492	75.08
387.706	65.97
387.92	28.19
388.135	125.45
388.349	126.61
388.563	82.25
388.778	98.33
388.992	101.81
389.206	119.45
389.42	164.59
389.635	119.83
389.849	134.17
390.063	157.61
390.277	157.03
390.491	186.68
390.706	114.41
390.92	155.87
391.134	136.88
391.348	163.43
391.562	80.31
391.776	122.93
391.99	93.1
392.205	151.99
392.419	94.26
392.633	123.32
392.847	161.29
393.061	93.29
393.275	183.96
393.489	106.66
393.703	102.4
393.917	134.56
394.131	65.58
394.345	95.61
394.559	144.63
394.773	111.7
394.986	122.16
395.2	114.21
395.414	155.29
395.628	132.23
395.842	125.45
396.056	133.2
396.27	81.08
396.484	142.69
396.697	112.66
396.911	143.47
397.125	114.8
397.339	115.57
397.553	116.73
397.766	166.91
397.98	161.49
398.194	196.56
398.408	147.93
398.621	211.09
398.835	179.89
399.049	194.04
399.262	208.18
399.476	210.89
399.69	212.25
399.903	273.09
400.117	211.86
400.331	220.97
400.544	186.87
400.758	326.75
400.971	238.02
401.185	220.77
401.398	188.03
401.612	268.63
401.826	241.12
402.039	238.99
402.253	193.46
402.466	256.42
402.68	204.89
402.893	264.76
403.106	241.12
403.32	222.13
403.533	255.84
403.747	213.61
403.96	232.01
404.174	254.29
404.387	185.32
404.6	231.24
404.814	261.85
405.027	231.24
405.24	240.92
405.454	209.15
405.667	254.68
405.88	194.04
406.094	252.36
406.307	281.81
406.52	245.19
406.733	190.55
406.947	158.58
407.16	311.84
407.373	280.64
407.586	220.97
407.799	196.75
408.012	271.92
408.226	264.37
408.439	313.58
408.652	216.51
408.865	266.31
409.078	304.67
409.291	300.02
409.504	244.8
409.717	285.87
409.93	291.88
410.143	280.64
410.357	203.34
410.57	219.42
410.783	257.59
410.996	254.29
411.209	264.37
411.421	338.96
411.634	263.98
411.847	263.21
412.06	300.6
412.273	289.56
412.486	306.99
412.699	413.36
412.912	275.22
413.125	317.65
413.338	281.42
413.55	318.62
413.763	300.79
413.976	312.22
414.189	285.49
414.402	309.51
414.615	386.82
414.827	280.84
415.04	334.89
415.253	336.05
415.466	344.39
415.678	381.59
415.891	289.17
416.104	300.41
416.316	287.23
416.529	308.15
416.742	367.44
416.954	369.38
417.167	311.25
417.38	310.48
417.592	358.92
417.805	312.22
418.017	257.2
418.23	332.18
418.442	310.29
418.655	308.35
418.868	356.01
419.08	317.26
419.293	403.28
419.505	356.2
419.718	352.91
419.93	371.32
420.142	297.69
420.355	388.56
420.567	390.3
420.78	341.29
420.992	317.65
421.205	423.24
421.417	313.58
421.629	342.25
421.842	315.9
422.054	306.22
422.266	404.25
422.479	396.31
422.691	326.17
422.903	381.78
423.115	330.63
423.328	351.94
423.54	370.74
423.752	345.35
423.964	319.78
424.177	375.39
424.389	353.88
424.601	492.41
424.813	377.52
425.025	387.98
425.238	412.39
425.45	353.69
425.662	338.38
425.874	722.39
426.086	356.01
426.298	380.81
426.51	408.9
426.722	358.14
426.934	372.48
427.146	428.86
427.358	365.31
427.57	387.59
427.782	344
427.994	351.75
428.206	327.34
428.418	325.98
428.63	425.57
428.842	434.09
429.054	412.78
429.266	400.96
429.478	364.54
429.69	346.52
429.902	309.9
430.114	427.31
430.325	384.88
430.537	336.83
430.749	349.23
430.961	248.67
431.173	315.9
431.384	356.4
431.596	296.72
431.808	317.65
432.02	381.97
432.231	421.3
432.443	474.78
432.655	446.49
432.867	403.28
433.078	424.6
433.29	494.73
433.502	493.18
433.713	516.24
433.925	471.1
434.136	518.37
434.348	389.14
434.56	366.67
434.771	529.8
434.983	378.29
435.194	417.23
435.406	472.26
435.617	499
435.829	562.35
436.04	502.48
436.252	513.14
436.463	577.66
436.675	525.54
436.886	492.8
437.098	524.18
437.309	572.62
437.521	517.21
437.732	533.48
437.943	502.1
438.155	517.79
438.366	418.4
438.578	537.94
438.789	539.88
439	470.13
439.211	483.11
439.423	495.51
439.634	510.04
439.845	509.07
440.057	509.07
440.268	551.31
440.479	508.3
440.69	539.1
440.902	511.4
441.113	514.88
441.324	486.21
441.535	567.58
441.746	620.86
441.957	504.03
442.168	542.2
442.38	592.96
442.591	592.58
442.802	534.65
443.013	588.31
443.224	591.61
443.435	557.31
443.646	572.23
443.857	587.34
444.068	554.02
444.279	517.01
444.49	675.5
444.701	575.91
444.912	708.24
445.123	635.2
445.334	594.32
445.545	604.98
445.756	600.71
445.967	552.86
446.178	595.68
446.388	609.43
446.599	613.11
446.81	582.69
447.021	563.13
447.232	621.83
447.443	626.87
447.653	609.24
447.864	683.44
448.075	641.21
448.286	675.69
448.496	652.64
448.707	679.18
448.918	607.88
449.129	743.5
449.339	630.36
449.55	679.96
449.761	634.43
449.971	683.83
450.182	632.68
450.393	692.94
450.603	672.4
450.814	695.26
451.024	704.76
451.235	695.46
451.446	761.33
451.656	763.65
451.867	674.14
452.077	697.2
452.288	738.66
452.498	741.37
452.709	689.84
452.919	696.23
453.13	630.74
453.34	705.34
453.55	607.3
453.761	686.54
453.971	684.02
454.182	715.41
454.392	690.03
454.602	730.14
454.813	742.54
455.023	737.5
455.233	665.23
455.444	700.11
455.654	609.43
455.864	689.26
456.075	664.46
456.285	660.77
456.495	683.25
456.705	730.72
456.916	753.97
457.126	746.22
457.336	725.1
457.546	662.13
457.756	703.21
457.967	772.37
458.177	715.22
458.387	707.66
458.597	678.6
458.807	690.22
459.017	684.8
459.227	720.06
459.437	696.81
459.647	737.31
459.857	761.72
460.068	711.34
460.278	766.75
460.488	741.37
460.698	789.42
460.908	733.04
461.117	709.02
461.327	716.96
461.537	755.13
461.747	750.09
461.957	772.57
462.167	895.6
462.377	809.19
462.587	768.5
462.797	821.59
463.007	776.44
463.216	803.76
463.426	840.38
463.636	799.89
463.846	723.94
464.056	748.74
464.265	807.44
464.475	734.21
464.685	792.72
464.895	810.35
465.104	752.03
465.314	796.98
465.524	771.99
465.733	721.42
465.943	859.56
466.153	863.43
466.362	835.53
466.572	794.65
466.782	794.65
466.991	792.33
467.201	867.89
467.41	725.1
467.62	815.19
467.829	789.81
468.039	831.47
468.249	829.14
468.458	811.12
468.668	875.25
468.877	854.33
469.086	869.44
469.296	912.45
469.505	799.3
469.715	914.2
469.924	875.06
470.134	890.56
470.343	902.57
470.552	862.08
470.762	841.35
470.971	838.05
471.18	863.24
471.39	881.07
471.599	807.05
471.808	925.05
472.018	863.24
472.227	949.07
472.436	938.8
472.645	941.9
472.855	903.73
473.064	992.86
473.273	951.78
473.482	972.32
473.691	986.46
473.901	955.66
474.11	929.31
474.319	1091.09
474.528	953.53
474.737	1010.49
474.946	1022.69
475.155	1016.3
475.364	1054.08
475.573	991.11
475.783	1037.03
475.992	1047.69
476.201	1063.77
476.41	997.31
476.619	995.18
476.828	1013.98
477.037	978.33
477.245	1022.69
477.454	1075.78
477.663	1021.34
477.872	1086.83
478.081	1164.52
478.29	1049.24
478.499	1187.38
478.708	1118.02
478.917	1190.09
479.125	1110.07
479.334	1123.64
479.543	1107.36
479.752	1150.96
479.961	1168.2
480.169	1194.55
480.378	1157.74
480.587	1322.81
480.796	1211.6
481.004	1178.66
481.213	1201.91
481.422	1206.56
481.63	1197.45
481.839	1252.87
482.048	1294.52
482.256	1240.85
482.465	1228.65
482.674	1274.18
482.882	1319.13
483.091	1324.36
483.299	1263.72
483.508	1293.36
483.716	1275.53
483.925	1293.36
484.134	1258.87
484.342	1282.12
484.551	1308.67
484.759	1330.37
484.967	1352.65
485.176	1335.4
485.384	1338.89
485.593	1345.09
485.801	1318.74
486.01	1269.14
486.218	1211.21
486.426	1168.97
486.635	1162.19
486.843	1100.19
487.051	1164.32
487.26	1193
487.468	1228.45
487.676	1265.27
487.885	1262.55
488.093	1297.23
488.301	1336.95
488.509	1336.37
488.717	1430.34
488.926	1372.99
489.134	1372.8
489.342	1367.37
489.55	1312.54
489.758	1376.09
489.967	1391.2
490.175	1533.22
490.383	1419.1
490.591	1540.77
490.799	1439.83
491.007	1516.17
491.215	1505.13
491.423	1440.61
491.631	1448.94
491.839	1452.62
492.047	1493.11
492.255	1399.53
492.463	1382.48
492.671	1403.02
492.879	1488.08
493.087	1417.75
493.295	1483.23
493.503	1490.4
493.711	1569.45
493.919	1569.64
494.127	1546.97
494.334	1532.83
494.542	1488.27
494.75	1574.29
494.958	1551.24
495.166	1602
495.374	1573.71
495.581	1580.11
495.789	1599.67
495.997	1623.31
496.205	1535.93
496.412	1556.86
496.62	1578.94
496.828	1627.38
497.035	1619.44
497.243	1652.95
497.451	1589.02
497.658	1630.29
497.866	1612.46
498.074	1698.1
498.281	1579.72
498.489	1660.12
498.696	1618.66
498.904	1603.74
499.112	1561.7
499.319	1697.52
499.527	1623.89
499.734	1646.75
499.942	1608.78
500.149	1614.98
500.357	1623.7
500.564	1586.89
500.771	1626.02
500.979	1611.49
501.186	1595.99
501.394	1597.35
501.601	1604.52
501.808	1633.39
502.016	1590.37
502.223	1583.4
502.43	1641.72
502.638	1604.13
502.845	1599.48
503.052	1704.68
503.26	1623.7
503.467	1735.68
503.674	1686.86
503.881	1675.82
504.089	1746.15
504.296	1721.93
504.503	1627.96
504.71	1643.85
504.917	1618.85
505.125	1699.84
505.332	1685.12
505.539	1725.42
505.746	1799.04
505.953	1774.05
506.16	1758.55
506.367	1823.84
506.574	1819.38
506.781	1847.09
506.988	1745.18
507.195	1792.84
507.402	1813.76
507.609	1850.58
507.816	1765.33
508.023	1735.49
508.23	1764.75
508.437	1719.22
508.644	1769.01
508.851	1804.85
509.058	1831.59
509.265	1847.28
509.472	1835.66
509.679	1893.2
509.885	1832.75
510.092	1818.22
510.299	1826.75
510.506	1830.04
510.713	1831.59
510.92	1813.18
511.126	1851.16
511.333	1905.99
511.54	1875.57
511.746	1915.29
511.953	1918.58
512.16	1965.86
512.367	1889.13
512.573	1916.64
512.78	1888.55
512.987	1884.48
513.193	1899.79
513.4	1792.45
513.606	1844.18
513.813	1859.68
514.02	1865.3
514.226	1958.49
514.433	1933.5
514.639	1824.81
514.846	1877.7
515.052	1824.42
515.259	1897.08
515.465	1862.01
515.672	1932.73
515.878	1996.08
516.085	1966.24
516.291	1964.5
516.497	1944.74
516.704	1942.22
516.91	1870.73
517.117	1762.03
517.323	1718.83
517.529	1755.83
517.736	1746.73
517.942	1742.66
518.148	1774.82
518.354	1835.08
518.561	1856.58
518.767	1824.42
518.973	1887.78
519.179	1911.41
519.386	1869.18
519.592	1891.65
519.798	1868.4
520.004	2028.44
520.21	1939.7
520.417	2037.35
520.623	2109.23
520.829	2079
521.035	2108.26
521.241	2067.77
521.447	2073.58
521.653	2214.82
521.859	2093.15
522.065	2167.93
522.271	2210.17
522.477	2184.21
522.683	2207.27
522.889	2178.98
523.095	2167.74
523.301	2175.49
523.507	2111.17
523.713	2182.66
523.919	2113.69
524.125	2269.26
524.331	2190.99
524.537	2325.45
524.742	2290.96
524.948	2330.49
525.154	2338.43
525.36	2425.62
525.566	2319.64
525.772	2375.05
525.977	2273.14
526.183	2322.74
526.389	2360.91
526.595	2287.28
526.8	2258.8
527.006	2163.09
527.212	2122.6
527.417	2117.17
527.623	2131.12
527.829	2203
528.034	2230.13
528.24	2245.43
528.446	2267.13
528.651	2374.28
528.857	2383.38
529.062	2415.54
529.268	2391.71
529.473	2405.27
529.679	2470.57
529.884	2510.09
530.09	2499.44
530.295	2498.08
530.501	2506.99
530.706	2468.82
530.912	2452.36
531.117	2477.16
531.323	2468.44
531.528	2567.83
531.733	2568.02
531.939	2549.62
532.144	2538.38
532.35	2570.15
532.555	2605.03
532.76	2526.17
532.966	2484.52
533.171	2487.42
533.376	2442.09
533.581	2409.92
533.787	2491.69
533.992	2517.84
534.197	2571.12
534.402	2512.03
534.607	2530.44
534.813	2655.6
535.018	2531.21
535.223	2565.7
535.428	2559.89
535.633	2609.1
535.838	2639.32
536.043	2632.35
536.249	2715.08
536.454	2651.53
536.659	2663.73
536.864	2655.79
537.069	2622.66
537.274	2609.68
537.479	2607.93
537.684	2592.63
537.889	2578.1
538.094	2677.1
538.299	2603.28
538.504	2670.9
538.708	2666.45
538.913	2714.69
539.118	2667.41
539.323	2712.95
539.528	2642.62
539.733	2599.02
539.938	2683.11
540.142	2651.33
540.347	2624.98
540.552	2602.12
540.757	2583.33
540.962	2583.72
541.166	2550.97
541.371	2540.51
541.576	2575.97
541.781	2506.22
541.985	2654.63
542.19	2627.12
542.395	2747.63
542.599	2760.41
542.804	2689.5
543.008	2747.24
543.213	2636.8
543.418	2605.8
543.622	2700.16
543.827	2599.8
544.031	2728.06
544.236	2691.44
544.44	2730.77
544.645	2818.54
544.849	2723.8
545.054	2767.97
545.258	2816.21
545.463	2803.81
545.667	2686.98
545.872	2801.1
546.076	2718.76
546.281	2730.19
546.485	2726.7
546.689	2747.05
546.894	2767.97
547.098	2753.24
547.302	2699
547.507	2748.6
547.711	2812.92
547.915	2804.78
548.119	2702.29
548.324	2715.46
548.528	2817.76
548.732	2695.31
548.936	2763.32
549.141	2765.84
549.345	2761.96
549.549	2781.53
549.753	2795.87
549.957	2872.4
550.161	2841.98
550.366	2776.11
550.57	2770.88
550.774	2760.03
550.978	2772.62
551.182	2735.03
551.386	2767.39
551.59	2775.14
551.794	2756.73
551.998	2804.78
552.202	2740.07
552.406	2726.12
552.61	2816.99
552.814	2792.19
553.018	2854.57
553.222	2740.85
553.426	2746.85
553.63	2833.46
553.833	2752.86
554.037	2692.02
554.241	2776.69
554.445	2785.79
554.649	2756.73
554.853	2739.3
555.056	2821.83
555.26	2845.27
555.464	2807.49
555.668	2811.18
555.871	2821.44
556.075	2865.81
556.279	2733.87
556.483	2735.61
556.686	2733.68
556.89	2750.92
557.094	2796.06
557.297	2625.57
557.501	2744.91
557.704	2675.16
557.908	2770.68
558.112	2630.99
558.315	2762.54
558.519	2670.13
558.722	2664.32
558.926	2666.06
559.129	2605.22
559.333	2587.59
559.536	2561.44
559.74	2543.42
559.943	2539.74
560.147	2537.6
560.35	2605.42
560.553	2568.6
560.757	2519
560.96	2641.45
561.164	2590.11
561.367	2707.52
561.57	2638.55
561.774	2638.93
561.977	2582.55
562.18	2560.66
562.384	2647.27
562.587	2571.51
562.79	2571.32
562.993	2597.67
563.197	2623.43
563.4	2657.15
563.603	2643.39
563.806	2678.07
564.009	2592.82
564.212	2589.92
564.416	2523.27
564.619	2560.08
564.822	2518.81
565.025	2603.09
565.228	2542.06
565.431	2567.25
565.634	2466.31
565.837	2496.53
566.04	2489.94
566.243	2489.75
566.446	2354.71
566.649	2488.97
566.852	2353.16
567.055	2458.94
567.258	2460.49
567.461	2546.71
567.664	2531.6
567.867	2413.99
568.07	2441.7
568.273	2491.3
568.475	2497.11
568.678	2410.7
568.881	2390.36
569.084	2440.34
569.287	2282.25
569.489	2336.3
569.692	2349.28
569.895	2395.98
570.098	2338.63
570.3	2332.62
570.503	2241.95
570.706	2297.75
570.909	2310.34
571.111	2221.8
571.314	2198.55
571.516	2277.01
571.719	2256.28
571.922	2242.72
572.124	2254.35
572.327	2290.19
572.529	2211.92
572.732	2221.22
572.935	2333.01
573.137	2362.65
573.34	2217.15
573.542	2305.88
573.745	2326.81
573.947	2311.31
574.15	2245.24
574.352	2241.17
574.554	2326.61
574.757	2220.44
574.959	2195.83
575.162	2219.08
575.364	2190.41
575.566	2275.85
575.769	2163.48
575.971	2207.27
576.173	2077.07
576.376	2150.3
576.578	2161.35
576.78	2197
576.982	2077.26
577.185	2137.71
577.387	2107.87
577.589	2159.6
577.791	2197
577.993	2136.74
578.196	2139.26
578.398	2110.39
578.6	2153.98
578.802	2096.83
579.004	2064.09
579.206	2050.33
579.408	2106.13
579.61	2044.71
579.812	2137.32
580.014	2098.57
580.216	2072.61
580.418	2097.02
580.62	2033.67
580.822	2016.23
581.024	2074.55
581.226	2093.54
581.428	2067.57
581.63	2170.84
581.832	2064.67
582.034	2135.39
582.236	2079.39
582.438	2133.84
582.64	2143.52
582.841	2148.95
583.043	2194.67
583.245	2086.56
583.447	2158.25
583.649	2092.37
583.85	2113.88
584.052	2122.02
584.254	2036.96
584.456	2113.69
584.657	2048.01
584.859	2079.39
585.061	2047.04
585.262	2036.57
585.464	2015.84
585.666	2060.21
585.867	2003.64
586.069	2071.45
586.27	2007.12
586.472	1986.39
586.674	1967.41
586.875	2023.01
587.077	2032.89
587.278	1971.09
587.48	2000.34
587.681	2110
587.883	1987.56
588.084	1936.79
588.285	1962.18
588.487	1924.59
588.688	1965.86
588.89	1865.3
589.091	1837.6
589.292	1852.51
589.494	1826.36
589.695	1750.99
589.896	1677.17
590.098	1696.55
590.299	1759.32
590.5	1738.2
590.702	1787.61
590.903	1807.95
591.104	1924.2
591.305	1877.12
591.507	1893.39
591.708	1876.93
591.909	1859.88
592.11	1882.93
592.311	1910.25
592.512	1844.18
592.714	1798.65
592.915	1811.05
593.116	1832.17
593.317	1877.9
593.518	1857.16
593.719	1831.98
593.92	1909.09
594.121	1930.79
594.322	1869.95
594.523	1862.01
594.724	1825.39
594.925	1814.54
595.126	1863.56
595.327	1853.68
595.528	1863.17
595.729	1861.23
595.929	1832.75
596.13	1843.02
596.331	1874.6
596.532	1873.25
596.733	1934.86
596.934	1898.63
597.135	1905.6
597.335	1879.06
597.536	1807.76
597.737	1862.59
597.938	1821.71
598.138	1854.06
598.339	1870.73
598.54	1862.01
598.74	1844.57
598.941	1862.2
599.142	1874.02
599.342	1851.93
599.543	1828.68
599.744	1840.31
599.944	1873.83
600.145	1831.4
600.345	1807.76
600.546	1919.74
600.746	1900.18
600.947	1926.14
601.147	1850.38
601.348	1865.88
601.548	1745.18
601.749	1836.82
601.949	1741.3
602.15	1788.38
602.35	1793.03
602.551	1837.79
602.751	1762.81
602.951	1791.1
603.152	1730.84
603.352	1848.45
603.552	1799.23
603.753	1828.68
603.953	1808.34
604.153	1823.26
604.354	1798.26
604.554	1803.5
604.754	1827.52
604.954	1776.18
605.155	1830.43
605.355	1781.99
605.555	1841.08
605.755	1862.98
605.955	1789.93
606.155	1850.38
606.356	1796.33
606.556	1826.94
606.756	1820.16
606.956	1747.31
607.156	1850.77
607.356	1731.81
607.556	1819.77
607.756	1772.5
607.956	1819.38
608.156	1765.33
608.356	1730.07
608.556	1792.26
608.756	1751.38
608.956	1706.04
609.156	1743.05
609.356	1686.09
609.556	1707.98
609.755	1706.04
609.955	1685.5
610.155	1760.87
610.355	1760.29
610.555	1687.64
610.755	1685.7
610.954	1634.74
611.154	1693.06
611.354	1751.77
611.554	1659.93
611.753	1663.22
611.953	1649.66
612.153	1736.07
612.352	1703.52
612.552	1640.17
612.752	1584.37
612.951	1683.76
613.151	1654.7
613.351	1639.59
613.55	1625.25
613.75	1687.83
613.949	1636.49
614.149	1652.18
614.348	1630.48
614.548	1629.7
614.747	1561.7
614.947	1609.94
615.146	1527.6
615.346	1649.27
615.545	1640.36
615.745	1635.9
615.944	1655.47
616.144	1635.71
616.343	1646.37
616.542	1579.72
616.742	1600.06
616.941	1573.52
617.14	1500.28
617.34	1561.7
617.539	1585.14
617.738	1547.56
617.938	1629.9
618.137	1539.42
618.336	1537.29
618.535	1618.08
618.734	1562.86
618.934	1577.78
619.133	1554.92
619.332	1577.59
619.531	1535.93
619.73	1601.22
619.929	1581.27
620.128	1616.92
620.328	1644.62
620.527	1538.06
620.726	1534.96
620.925	1580.11
621.124	1556.27
621.323	1560.54
621.522	1516.75
621.721	1525.66
621.92	1492.34
622.119	1568.67
622.318	1491.18
622.517	1512.88
622.715	1509.97
622.914	1472.77
623.113	1477.03
623.312	1441.38
623.511	1500.86
623.71	1503.96
623.909	1473.35
624.107	1549.88
624.306	1425.11
624.505	1447.78
624.704	1471.03
624.902	1478.58
625.101	1533.99
625.3	1478.97
625.499	1432.66
625.697	1425.69
625.896	1378.22
626.095	1474.51
626.293	1420.26
626.492	1391.2
626.69	1471.03
626.889	1429.56
627.088	1515.39
627.286	1375.12
627.485	1420.07
627.683	1416.39
627.882	1430.15
628.08	1379
628.279	1423.56
628.477	1460.37
628.676	1381.71
628.874	1423.75
629.073	1384.81
629.271	1386.16
629.469	1417.36
629.668	1392.95
629.866	1405.35
630.065	1391.01
630.263	1410.96
630.461	1359.43
630.66	1411.74
630.858	1408.45
631.056	1417.16
631.254	1447
631.453	1367.37
631.651	1393.33
631.849	1376.67
632.047	1425.11
632.245	1393.91
632.444	1389.26
632.642	1449.91
632.84	1409.41
633.038	1374.54
633.236	1343.35
633.434	1364.08
633.632	1354.58
633.83	1356.91
634.028	1421.81
634.227	1368.92
634.425	1446.61
634.623	1372.8
634.821	1428.6
635.019	1370.47
635.216	1361.95
635.414	1414.45
635.612	1372.99
635.81	1362.14
636.008	1422.78
636.206	1360.01
636.404	1384.23
636.602	1332.11
636.8	1359.62
636.997	1376.86
637.195	1388.49
637.393	1346.64
637.591	1446.23
637.789	1388.49
637.986	1342.96
638.184	1366.79
638.382	1414.84
638.58	1396.63
638.777	1444.48
638.975	1377.83
639.173	1376.48
639.37	1362.33
639.568	1356.71
639.765	1379
639.963	1330.56
640.161	1400.7
640.358	1403.8
640.556	1327.46
640.753	1292
640.951	1315.64
641.148	1330.75
641.346	1312.54
641.543	1308.47
641.741	1325.91
641.938	1297.43
642.136	1302.08
642.333	1274.37
642.531	1343.54
642.728	1341.99
642.925	1315.45
643.123	1314.28
643.32	1308.86
643.517	1250.54
643.715	1307.89
643.912	1304.6
644.109	1300.72
644.306	1275.34
644.504	1261.59
644.701	1306.34
644.898	1321.84
645.095	1254.22
645.293	1288.71
645.49	1320.87
645.687	1267.2
645.884	1299.56
646.081	1207.72
646.278	1275.73
646.475	1236.01
646.672	1239.3
646.87	1232.33
647.067	1216.44
647.264	1234.65
647.461	1192.61
647.658	1158.9
647.855	1245.31
648.052	1187.96
648.249	1102.91
648.446	1170.14
648.642	1192.42
648.839	1163.74
649.036	1163.94
649.233	1149.41
649.43	1118.79
649.627	1107.75
649.824	1154.64
650.021	1136.81
650.217	1117.63
650.414	1130.42
650.611	1169.17
650.808	1149.02
651.004	1145.72
651.201	1178.08
651.398	1186.41
651.595	1160.64
651.791	1140.3
651.988	1210.44
652.185	1108.14
652.381	1209.85
652.578	1122.09
652.775	1145.92
652.971	1148.82
653.168	1135.84
653.364	1171.49
653.561	1090.12
653.757	1114.92
653.954	1164.52
654.15	1125.19
654.347	1199.2
654.543	1168.59
654.74	1105.04
654.936	1093.41
655.133	1126.54
655.329	1085.28
655.525	1080.82
655.722	1118.21
655.918	1032.96
656.115	1071.71
656.311	998.67
656.507	981.43
656.704	928.34
656.9	965.35
657.096	956.63
657.292	960.89
657.489	1034.9
657.685	1039.36
657.881	992.28
658.077	1019.21
658.273	1040.52
658.47	1105.42
658.666	1068.23
658.862	1111.24
659.058	1075.39
659.254	1105.62
659.45	1073.26
659.646	1095.16
659.842	1056.21
660.038	1119.76
660.234	1033.93
660.43	1056.99
660.626	1161.22
660.822	1117.63
661.018	1130.81
661.214	1091.67
661.41	1002.93
661.606	1092.83
661.802	1130.22
661.998	1068.61
662.194	1026.18
662.39	1082.95
662.586	1082.37
662.781	1099.03
662.977	1094.57
663.173	1089.15
663.369	1081.79
663.564	1092.64
663.76	1104.84
663.956	1049.04
664.152	1103.49
664.347	1027.73
664.543	1056.02
664.739	1075.01
664.934	1001
665.13	1019.59
665.326	1069
665.521	1067.06
665.717	1003.32
665.912	1032.77
666.108	977.94
666.304	1027.15
666.499	998.67
666.695	932.02
666.89	1028.7
667.086	1066.87
667.281	1007.97
667.477	1089.15
667.672	1003.51
667.867	1004.48
668.063	1022.11
668.258	995.76
668.454	1005.26
668.649	1081.21
668.844	1002.93
669.04	1050.79
669.235	1035.87
669.43	998.67
669.626	962.44
669.821	981.04
670.016	928.53
670.211	998.48
670.407	927.76
670.602	994.99
670.797	969.61
670.992	1021.34
671.187	1010.68
671.382	1028.12
671.578	969.22
671.773	988.21
671.968	941.13
672.163	965.73
672.358	995.18
672.553	944.03
672.748	964.96
672.943	1040.71
673.138	980.26
673.333	1030.64
673.528	938.22
673.723	1002.16
673.918	974.26
674.113	910.13
674.308	1023.08
674.503	991.31
674.698	1006.61
674.892	967.09
675.087	1008.16
675.282	994.6
675.477	935.31
675.672	970
675.867	944.61
676.061	919.23
676.256	920.59
676.451	923.11
676.646	986.27
676.84	920.98
677.035	895.21
677.23	901.22
677.424	963.21
677.619	994.21
677.814	1006.23
678.008	995.38
678.203	886.88
678.397	898.89
678.592	917.68
678.787	1014.94
678.981	954.5
679.176	930.66
679.37	951.59
679.565	915.75
679.759	901.02
679.954	950.04
680.148	963.02
680.342	979.88
680.537	931.44
680.731	937.64
680.926	956.82
681.12	968.83
681.314	931.25
681.509	964.76
681.703	952.95
681.897	957.4
682.092	949.07
682.286	904.12
682.48	995.18
682.674	976.58
682.869	927.18
683.063	947.71
683.257	1010.49
683.451	914.39
683.645	965.54
683.839	963.41
684.034	931.05
684.228	966.51
684.422	888.23
684.616	879.52
684.81	939.77
685.004	910.9
685.198	936.86
685.392	961.28
685.586	926.4
685.78	936.48
685.974	949.07
686.168	956.63
686.362	981.43
686.556	885.52
686.75	840.38
686.944	844.83
687.138	888.82
687.331	766.37
687.525	787.68
687.719	713.86
687.913	778.96
688.107	791.17
688.301	750.29
688.494	830.69
688.688	761.14
688.882	778.19
689.076	733.62
689.269	781.48
689.463	894.82
689.657	803.18
689.85	840.18
690.044	830.88
690.238	793.88
690.431	828.95
690.625	803.76
690.818	856.07
691.012	868.08
691.205	864.02
691.399	810.54
691.593	880.1
691.786	915.55
691.98	906.64
692.173	946.94
692.366	923.11
692.56	925.05
692.753	974.45
692.947	893.47
693.14	963.41
693.333	966.7
693.527	861.69
693.72	957.21
693.914	929.5
694.107	898.12
694.3	920.78
694.493	920.78
694.687	973.87
694.88	910.32
695.073	1003.51
695.266	975.81
695.46	976
695.653	1023.66
695.846	999.83
696.039	904.12
696.232	964.96
696.425	1025.6
696.618	1013.98
696.812	1022.5
697.005	1087.02
697.198	1140.3
697.391	1084.69
697.584	1117.63
697.777	1166.07
697.97	1131.58
698.163	1130.81
698.356	1108.33
698.549	1199
698.742	1169.36
698.935	1124.41
699.127	1159.48
699.32	1129.84
699.513	1155.22
699.706	1178.27
699.899	1183.89
700.092	1180.79
700.285	1217.41
700.477	1170.52
700.67	1214.31
700.863	1237.95
701.056	1302.27
701.248	1270.5
701.441	1296.27
701.634	1259.26
701.826	1374.54
702.019	1256.94
702.212	1332.69
702.404	1278.44
702.597	1303.63
702.79	1293.17
702.982	1353.42
703.175	1360.4
703.367	1379.19
703.56	1415.23
703.752	1493.31
703.945	1429.76
704.137	1429.37
704.33	1452.04
704.522	1505.13
704.715	1523.14
704.907	1530.51
705.1	1557.05
705.292	1583.4
705.484	1508.61
705.677	1584.76
705.869	1600.45
706.061	1635.52
706.254	1709.14
706.446	1618.85
706.638	1624.86
706.831	1735.1
707.023	1689.57
707.215	1787.8
707.407	1761.45
707.599	1735.3
707.792	1827.71
707.984	1781.41
708.176	1845.54
708.368	1814.54
708.56	1861.81
708.752	1848.64
708.944	1849.22
709.136	1905.99
709.329	1874.8
709.521	2037.74
709.713	1956.75
709.905	2001.7
710.097	2066.99
710.289	2007.51
710.481	1984.07
710.672	2067.57
710.864	2078.04
711.056	2149.14
711.248	2136.55
711.44	2098.96
711.632	2158.83
711.824	2149.14
712.016	2276.63
712.207	2222.57
712.399	2221.02
712.591	2314.6
712.783	2293.87
712.975	2294.45
713.166	2272.95
713.358	2298.71
713.55	2410.12
713.741	2354.71
713.933	2415.74
714.125	2360.52
714.316	2391.91
714.508	2496.34
714.7	2520.17
714.891	2491.1
715.083	2564.92
715.274	2488.2
715.466	2514.94
715.657	2565.31
715.849	2449.84
716.04	2531.02
716.232	2464.37
716.423	2579.07
716.615	2507.38
716.806	2509.12
716.998	2466.11
717.189	2353.93
717.381	2331.07
717.572	2260.55
717.763	2335.33
717.955	2313.05
718.146	2272.36
718.337	2241.75
718.528	2212.3
718.72	2166.97
718.911	2218.12
719.102	2151.08
719.293	2208.43
719.485	2246.21
719.676	2184.21
719.867	2168.52
720.058	2161.54
720.249	2205.13
720.44	2216.37
720.632	2252.41
720.823	2357.61
721.014	2441.51
721.205	2441.89
721.396	2574.22
721.587	2631.38
721.778	2671.29
721.969	2752.47
722.16	2801.88
722.351	2812.73
722.542	2937.5
722.733	2974.5
722.924	2929.17
723.115	2971.79
723.305	2966.37
723.496	2986.9
723.687	2821.64
723.878	2861.94
724.069	2859.03
724.26	2894.87
724.45	2818.73
724.641	2812.34
724.832	2846.05
725.023	2880.54
725.213	2845.47
725.404	2835.39
725.595	2826.87
725.785	2869.88
725.976	2944.28
726.167	2902.43
726.357	2935.75
726.548	3078.74
726.739	2990.2
726.929	3082.03
727.12	3096.76
727.31	3157.98
727.501	3041.93
727.691	3094.24
727.882	3087.46
728.072	3125.43
728.263	3110.51
728.453	3202.35
728.644	3231.61
728.834	3215.33
729.024	3180.26
729.215	3166.12
729.405	3198.67
729.596	3297.48
729.786	3329.26
729.976	3316.27
730.167	3361.61
730.357	3310.07
730.547	3345.72
730.737	3347.27
730.928	3422.25
731.118	3506.73
731.308	3416.44
731.498	3465.46
731.688	3541.6
731.879	3560.98
732.069	3634.79
732.259	3638.09
732.449	3658.04
732.639	3777.59
732.829	3795.99
733.019	3810.91
733.209	3876.2
733.399	3901
733.589	3995.55
733.779	4019.77
733.969	3990.9
734.159	4099.98
734.349	4148.03
734.539	4165.47
734.729	4149.78
734.919	4220.69
735.109	4294.5
735.299	4144.54
735.488	4249.94
735.678	4209.26
735.868	4248.59
736.058	4240.84
736.248	4259.82
736.437	4225.72
736.627	4213.52
736.817	4371.62
737.007	4289.08
737.196	4345.27
737.386	4290.63
737.576	4319.89
737.765	4350.69
737.955	4360.38
738.144	4514.02
738.334	4399.13
738.524	4349.72
738.713	4425.48
738.903	4355.34
739.092	4444.85
739.282	4441.95
739.471	4471.2
739.661	4464.23
739.85	4531.46
740.04	4496.78
740.229	4520.41
740.419	4545.21
740.608	4607.02
740.797	4561.49
740.987	4616.51
741.176	4600.62
741.365	4568.66
741.555	4505.88
741.744	4685.87
741.933	4582.61
742.123	4620.58
742.312	4644.61
742.501	4708.54
742.69	4620.77
742.88	4601.4
743.069	4740.32
743.258	4694.01
743.447	4753.69
743.636	4753.49
743.825	4696.14
744.014	4727.92
744.204	4798.05
744.393	4701.18
744.582	4809.1
744.771	4815.3
744.96	4746.52
745.149	4813.17
745.338	4789.33
745.527	4816.46
745.716	4792.43
745.905	4762.4
746.094	4860.05
746.283	4834.09
746.471	4818.01
746.66	4878.26
746.849	4890.86
747.038	4915.66
747.227	4846.1
747.416	4875.94
747.604	4855.4
747.793	4830.6
747.982	4862.57
748.171	4853.27
748.359	4856.56
748.548	4855.01
748.737	4851.33
748.926	4818.4
749.114	4701.95
749.303	4834.28
749.491	4845.72
749.68	4737.8
749.869	4868.77
750.057	4819.56
750.246	4771.9
750.434	4775.77
750.623	4782.36
750.811	4760.85
751	4831.96
751.188	4782.55
751.377	4790.69
751.565	4809.1
751.754	4746.32
751.942	4743.03
752.131	4839.71
752.319	4746.32
752.507	4724.82
752.696	4762.6
752.884	4821.69
753.072	4766.86
753.261	4756.2
753.449	4758.14
753.637	4683.94
753.825	4867.61
754.014	4753.49
754.202	4779.65
754.39	4777.52
754.578	4796.89
754.766	4740.7
754.955	4718.42
755.143	4825.57
755.331	4699.05
755.519	4752.72
755.707	4714.74
755.895	4733.54
756.083	4701.18
756.271	4659.33
756.459	4650.81
756.647	4759.69
756.835	4639.57
757.023	4665.34
757.211	4654.87
757.399	4637.82
757.587	4639.96
757.775	4573.69
757.963	4570.79
758.151	4612.83
758.339	4612.44
758.526	4545.21
758.714	4603.53
758.902	4477.4
759.09	4420.83
759.278	4200.15
759.465	3932.58
759.653	3573.38
759.841	3236.84
760.028	2827.64
760.216	2514.16
760.404	2383.19
760.591	1995.11
760.779	1781.02
760.967	1586.11
761.154	1412.32
761.342	1468.12
761.529	1462.69
761.717	1539.03
761.905	1566.54
762.092	1700.42
762.28	1657.02
762.467	1717.47
762.655	1617.5
762.842	1674.07
763.029	1727.35
763.217	1753.9
763.404	1747.7
763.592	1822.48
763.779	1745.37
763.966	1832.56
764.154	1834.3
764.341	1949
764.528	1941.83
764.716	2038.9
764.903	2127.05
765.09	2125.12
765.277	2247.18
765.465	2390.74
765.652	2480.64
765.839	2555.62
766.026	2661.02
766.213	2766.23
766.4	2845.27
766.588	3090.17
766.775	3092.3
766.962	3205.06
767.149	3276.17
767.336	3440.66
767.523	3375.56
767.71	3541.21
767.897	3638.28
768.084	3668.89
768.271	3792.31
768.458	3773.71
768.645	3883.95
768.832	3853.73
769.019	3910.88
769.206	3918.05
769.392	3979.08
769.579	4065.11
769.766	4065.11
769.953	4007.95
770.14	4098.82
770.327	4069.95
770.513	4067.43
770.7	4161.21
770.887	4072.86
771.073	4089.52
771.26	4150.94
771.447	4078.48
771.634	4086.23
771.82	4197.05
772.007	4044.76
772.193	4081.19
772.38	4153.65
772.567	4080.99
772.753	4096.3
772.94	4130.59
773.126	4143.96
773.313	4158.69
773.499	4097.27
773.686	4126.53
773.872	4073.24
774.059	4108.12
774.245	4039.73
774.432	4063.56
774.618	3977.53
774.804	4044.38
774.991	4009.31
775.177	4060.26
775.363	4020.16
775.55	4055.03
775.736	3987.61
775.922	4062.2
776.109	3984.7
776.295	4006.4
776.481	4040.11
776.667	4037.21
776.853	4006.01
777.04	3971.72
777.226	3979.86
777.412	4078.09
777.598	3932.39
777.784	3947.12
777.97	3968.62
778.156	3942.47
778.342	3937.43
778.528	3881.24
778.715	3851.4
778.901	3880.08
779.087	3942.47
779.272	3862.06
779.458	3836.49
779.644	3875.43
779.83	3853.92
780.016	3948.08
780.202	3839.97
780.388	3858.96
780.574	3721.59
780.76	3814.4
780.946	3840.55
781.131	3795.8
781.317	3789.41
781.503	3717.72
781.689	3794.25
781.874	3857.41
782.06	3738.06
782.246	3811.88
782.432	3759.57
782.617	3750.46
782.803	3804.13
782.989	3690.98
783.174	3707.26
783.36	3689.24
783.545	3697.76
783.731	3706.48
783.916	3603.8
784.102	3704.16
784.288	3665.21
784.473	3681.68
784.659	3633.83
784.844	3658.04
785.029	3601.66
785.215	3595.08
785.4	3528.82
785.586	3663.08
785.771	3534.05
785.956	3609.03
786.142	3578.03
786.327	3562.91
786.512	3543.15
786.698	3542.96
786.883	3472.05
787.068	3517.38
787.254	3535.4
787.439	3505.57
787.624	3473.79
787.809	3529.78
787.994	3423.03
788.18	3509.83
788.365	3430.39
788.55	3421.67
788.735	3468.75
788.92	3438.92
789.105	3409.08
789.29	3436.79
789.475	3364.52
789.66	3359.09
789.845	3335.46
790.03	3365.87
790.215	3411.79
790.4	3400.17
790.585	3400.75
790.77	3362.58
790.955	3261.44
791.14	3393.19
791.325	3432.33
791.51	3256.02
791.695	3328.09
791.879	3340.88
792.064	3267.06
792.249	3385.64
792.434	3339.72
792.618	3317.24
792.803	3338.36
792.988	3298.06
793.173	3324.61
793.357	3347.47
793.542	3263.96
793.727	3298.45
793.911	3349.02
794.096	3268.42
794.281	3337.97
794.465	3403.85
794.65	3310.07
794.834	3347.27
795.019	3405.4
795.203	3373.82
795.388	3371.3
795.572	3430.97
795.757	3379.82
795.941	3408.89
796.126	3353.28
796.31	3326.93
796.494	3389.51
796.679	3322.28
796.863	3300.39
797.048	3431.17
797.232	3358.12
797.416	3391.64
797.601	3357.74
797.785	3442.4
797.969	3485.22
798.153	3343.98
798.338	3425.94
798.522	3398.23
798.706	3436.2
798.89	3438.72
799.074	3521.26
799.258	3478.44
799.443	3397.65
799.627	3410.44
799.811	3492.78
799.995	3378.27
800.179	3362.97
800.363	3361.81
800.547	3386.02
800.731	3479.8
800.915	3324.61
801.099	3369.17
801.283	3401.72
801.467	3381.57
801.651	3347.08
801.835	3427.68
802.019	3414.89
802.202	3390.87
802.386	3344.76
802.57	3348.63
802.754	3371.69
802.938	3284.5
803.121	3328.09
803.305	3449.19
803.489	3357.35
803.673	3355.02
803.856	3388.74
804.04	3368.97
804.224	3378.08
804.407	3356.96
804.591	3288.37
804.775	3331.97
804.958	3339.91
805.142	3474.18
805.326	3368.78
805.509	3364.32
805.693	3394.55
805.876	3412.37
806.06	3390.29
806.243	3391.45
806.427	3445.7
806.61	3421.67
806.794	3376.53
806.977	3406.75
807.16	3340.69
807.344	3392.22
807.527	3380.21
807.71	3343.98
807.894	3369.75
808.077	3377.89
808.26	3316.86
808.444	3299.61
808.627	3403.85
808.81	3309.69
808.993	3248.85
809.177	3230.06
809.36	3264.74
809.543	3282.56
809.726	3182.4
809.909	3175.81
810.092	3177.55
810.276	3205.84
810.459	3189.18
810.642	3188.4
810.825	3130.08
811.008	3174.26
811.191	3016.35
811.374	3083.97
811.557	3090.17
811.74	3214.17
811.923	3004.73
812.106	3021
812.289	3004.34
812.472	3000.85
812.654	3039.6
812.837	2963.07
813.02	2909.79
813.203	2897.2
813.386	2773.01
813.569	2775.33
813.751	2679.23
813.934	2752.66
814.117	2693.96
814.3	2647.27
814.482	2615.49
814.665	2567.25
814.848	2528.3
815.03	2477.93
815.213	2442.47
815.396	2437.05
815.578	2422.71
815.761	2386.87
815.943	2417.87
816.126	2329.52
816.309	2290.77
816.491	2246.79
816.674	2174.33
816.856	2229.55
817.039	2220.83
817.221	2295.42
817.403	2219.08
817.586	2286.7
817.768	2283.41
817.951	2170.65
818.133	2154.57
818.315	2140.42
818.498	2211.53
818.68	2267.33
818.862	2252.99
819.045	2283.99
819.227	2284.76
819.409	2248.15
819.591	2254.73
819.774	2232.26
819.956	2187.7
820.138	2331.46
820.32	2281.28
820.502	2328.74
820.684	2437.24
820.866	2408.37
821.048	2502.15
821.231	2493.04
821.413	2470.37
821.595	2452.55
821.777	2457.59
821.959	2461.46
822.141	2508.35
822.323	2377.38
822.505	2324.09
822.686	2266.94
822.868	2164.45
823.05	2091.79
823.232	2025.92
823.414	1905.6
823.596	1981.55
823.778	1950.55
823.96	2049.56
824.141	2063.12
824.323	2083.07
824.505	2135.19
824.687	2167.35
824.868	2227.42
825.05	2327.58
825.232	2391.33
825.413	2429.3
825.595	2398.3
825.777	2300.85
825.958	2367.3
826.14	2347.93
826.321	2359.16
826.503	2332.62
826.685	2411.86
826.866	2410.12
827.048	2396.56
827.229	2349.48
827.411	2342.11
827.592	2228.77
827.773	2234.2
827.955	2186.15
828.136	2190.8
828.318	2186.34
828.499	2222.38
828.68	2153.4
828.862	2167.55
829.043	2221.8
829.224	2154.57
829.406	2129.38
829.587	2134.61
829.768	2137.32
829.949	2164.25
830.131	2158.83
830.312	2240.01
830.493	2163.67
830.674	2168.9
830.855	2133.84
831.036	2149.92
831.218	2189.05
831.399	2254.73
831.58	2153.79
831.761	2178.4
831.942	2173.36
832.123	2174.33
832.304	2091.99
832.485	2123.76
832.666	2101.29
832.847	2167.55
833.028	2131.12
833.209	2157.28
833.389	2141.97
833.57	2057.3
833.751	2069.9
833.932	2145.65
834.113	2123.76
834.294	2117.37
834.475	2148.56
834.655	2201.84
834.836	2180.53
835.017	2197
835.198	2112.72
835.378	2172.39
835.559	2177.04
835.74	2135.39
835.92	2128.99
836.101	2118.92
836.281	2143.72
836.462	2164.25
836.643	2177.23
836.823	2214.63
837.004	2164.25
837.184	2229.55
837.365	2214.63
837.545	2217.53
837.726	2196.22
837.906	2217.53
838.087	2200.1
838.267	2187.31
838.448	2125.7
838.628	2184.98
838.808	2190.6
838.989	2178.59
839.169	2138.68
839.349	2185.18
839.53	2224.51
839.71	2196.22
839.89	2125.5
840.07	2202.62
840.251	2143.13
840.431	2223.15
840.611	2165.61
840.791	2122.02
840.971	2162.7
841.151	2155.73
841.332	2116.98
841.512	2169.48
841.692	2113.88
841.872	2166
842.052	2139.07
842.232	2210.37
842.412	2063.12
842.592	2112.33
842.772	2168.32
842.952	2134.22
843.132	2090.82
843.312	2097.6
843.492	2072.22
843.672	2124.15
843.851	2041.03
844.031	2098.96
844.211	2049.56
844.391	2061.95
844.571	2091.99
844.751	2119.11
844.93	2102.64
845.11	2075.71
845.29	2095.67
845.47	2108.26
845.649	2058.85
845.829	2114.07
846.009	2071.45
846.188	2098.77
846.368	2083.85
846.547	2044.13
846.727	2103.61
846.907	2021.46
847.086	2050.14
847.266	2099.35
847.445	2053.43
847.625	2029.79
847.804	2006.54
847.984	2030.96
848.163	2022.24
848.343	1997.63
848.522	2022.82
848.701	2014.1
848.881	1989.88
849.06	2011.58
849.239	1997.82
849.419	1992.79
849.598	1951.71
849.777	1907.15
849.957	1890.68
850.136	1841.08
850.315	1806.98
850.494	1828.1
850.674	1849.41
850.853	1893.78
851.032	1859.1
851.211	1947.26
851.39	1902.5
851.569	1823.45
851.748	1838.95
851.927	1955.01
852.107	1858.33
852.286	1825.2
852.465	1810.47
852.644	1927.49
852.823	1882.16
853.002	1868.98
853.181	1832.56
853.359	1928.85
853.538	1822.68
853.717	1862.78
853.896	1742.08
854.075	1656.44
854.254	1656.44
854.433	1586.31
854.611	1623.89
854.79	1558.21
854.969	1657.02
855.148	1625.83
855.327	1608.39
855.505	1690.35
855.684	1623.5
855.863	1694.8
856.041	1666.32
856.22	1725.42
856.399	1684.15
856.577	1809.89
856.756	1802.33
856.934	1879.44
857.113	1877.9
857.291	1790.9
857.47	1733.94
857.648	1825.58
857.827	1813.18
858.005	1810.47
858.184	1752.15
858.362	1874.41
858.541	1810.86
858.719	1766.1
858.898	1749.05
859.076	1764.75
859.254	1802.14
859.433	1740.33
859.611	1740.72
859.789	1731.03
859.967	1758.16
860.146	1812.41
860.324	1723.09
860.502	1740.92
860.68	1717.67
860.859	1686.86
861.037	1725.8
861.215	1733.94
861.393	1740.53
861.571	1715.92
861.749	1660.32
861.927	1728.9
862.105	1720.77
862.283	1659.35
862.461	1684.15
862.639	1642.3
862.817	1668.45
862.995	1685.7
863.173	1648.11
863.351	1657.99
863.529	1672.14
863.707	1718.83
863.885	1682.21
864.063	1622.54
864.241	1621.57
864.418	1697.52
864.596	1661.87
864.774	1603.36
864.952	1630.67
865.129	1683.37
865.307	1594.44
865.485	1589.79
865.663	1633.39
865.84	1518.3
866.018	1498.34
866.196	1389.46
866.373	1450.29
866.551	1420.46
866.728	1346.83
866.906	1403.21
867.084	1415.23
867.261	1476.06
867.439	1484.59
867.616	1483.62
867.794	1485.94
867.971	1489.24
868.149	1484.2
868.326	1565.77
868.503	1513.46
868.681	1540
868.858	1489.04
869.035	1483.62
869.213	1510.94
869.39	1515.01
869.567	1555.5
869.745	1504.16
869.922	1507.84
870.099	1489.82
870.276	1531.67
870.454	1550.07
870.631	1512.49
870.808	1487.88
870.985	1541.36
871.162	1532.44
871.339	1547.36
871.517	1494.08
871.694	1489.04
871.871	1497.38
872.048	1456.88
872.225	1485.75
872.402	1491.76
872.579	1403.99
872.756	1498.54
872.933	1407.09
873.11	1453.2
873.287	1462.89
873.463	1427.43
873.64	1410.38
873.817	1465.02
873.994	1460.37
874.171	1406.31
874.348	1468.7
874.524	1386.36
874.701	1418.71
874.878	1375.9
875.055	1432.47
875.231	1409.61
875.408	1431.5
875.585	1329.59
875.762	1398.56
875.938	1387.33
876.115	1369.31
876.291	1389.07
876.468	1366.6
876.645	1340.05
876.821	1351.87
876.998	1373.38
877.174	1375.31
877.351	1350.32
877.527	1327.07
877.704	1377.45
877.88	1357.1
878.057	1315.83
878.233	1411.16
878.409	1354
878.586	1356.33
878.762	1337.15
878.938	1342.38
879.115	1254.22
879.291	1346.06
879.467	1263.52
879.644	1271.66
879.82	1338.89
879.996	1288.71
880.172	1250.35
880.349	1293.36
880.525	1308.08
880.701	1248.6
880.877	1217.41
881.053	1274.18
881.229	1266.04
881.405	1296.07
881.581	1250.35
881.757	1279.02
881.933	1279.22
882.109	1320.29
882.285	1269.14
882.461	1223.22
882.637	1304.79
882.813	1223.42
882.989	1261.97
883.165	1343.15
883.341	1256.16
883.517	1323.39
883.693	1247.64
883.869	1314.48
884.044	1233.49
884.22	1305.37
884.396	1326.1
884.572	1282.12
884.747	1291.23
884.923	1271.66
885.099	1291.62
885.275	1301.3
885.45	1257.71
885.626	1251.51
885.801	1281.73
885.977	1237.17
886.153	1217.8
886.328	1289.1
886.504	1226.52
886.679	1240.47
886.855	1235.04
887.03	1279.22
887.206	1323.97
887.381	1277.08
887.557	1290.26
887.732	1291.03
887.908	1303.63
888.083	1284.64
888.258	1247.44
888.434	1258.87
888.609	1271.66
888.784	1304.21
888.96	1249.96
889.135	1258.29
889.31	1204.43
889.485	1265.46
889.661	1275.15
889.836	1281.15
890.011	1280.38
890.186	1275.34
890.361	1239.5
890.537	1276.31
890.712	1286.77
890.887	1282.32
891.062	1265.46
891.237	1302.27
891.412	1210.82
891.587	1271.85
891.762	1272.82
891.937	1271.27
892.112	1198.42
892.287	1241.44
892.462	1239.5
892.637	1165.1
892.812	1175.76
892.987	1196.49
893.161	1171.69
893.336	1174.21
893.511	1168.59
893.686	1196.29
893.861	1170.14
894.035	1181.37
894.21	1177.89
894.385	1121.31
894.56	1170.52
894.734	1122.47
894.909	1120.73
895.084	1104.07
895.258	1084.5
895.433	1113.56
895.608	1061.06
895.782	1002.16
895.957	1026.38
896.131	1005.64
896.306	950.23
896.48	977.36
896.655	966.31
896.829	891.33
897.004	923.11
897.178	917.68
897.353	904.12
897.527	944.23
897.701	945.39
897.876	873.12
898.05	976.78
898.224	923.11
898.399	971.93
898.573	909.16
898.747	816.74
898.921	883.39
899.096	747.96
899.27	780.7
899.444	751.06
899.618	811.32
899.792	835.53
899.967	801.82
900.141	885.13
900.315	783.42
900.489	798.92
900.663	794.07
900.837	776.25
901.011	745.83
901.185	871.96
901.359	803.18
901.533	831.47
901.707	819.26
901.881	805.7
902.055	751.25
902.229	782.84
902.403	860.14
902.576	844.64
902.75	835.34
902.924	937.83
903.098	877.38
903.272	924.08
903.446	950.04
903.619	938.8
903.793	980.46
903.967	949.65
904.14	1012.81
904.314	971.35
904.488	971.55
904.661	1001.96
904.835	959.53
905.009	1019.21
905.182	1062.41
905.356	973.48
905.529	965.73
905.703	944.23
905.876	952.95
906.05	901.41
906.223	918.65
906.397	813.45
906.57	840.38
906.744	809.77
906.917	801.63
907.09	809.57
907.264	783.42
907.437	783.03
907.61	745.44
907.784	777.02
907.957	770.05
908.13	749.7
908.304	768.69
908.477	716.96
908.65	755.52
908.823	704.95
908.996	802.6
909.17	718.9
909.343	698.36
909.516	694.87
909.689	727.42
909.862	693.32
910.035	704.95
910.208	700.3
910.381	709.02
910.554	778.96
910.727	691.97
910.9	716.38
911.073	678.21
911.246	771.21
911.419	788.84
911.592	765.59
911.765	707.47
911.938	696.04
912.11	707.47
912.283	717.74
912.456	754.94
912.629	764.43
912.802	666.2
912.974	694.68
913.147	625.13
913.32	576.3
913.493	584.05
913.665	615.05
913.838	620.48
914.01	619.31
914.183	654.38
914.356	639.85
914.528	681.12
914.701	733.24
914.873	693.32
915.046	638.88
915.218	585.21
915.391	530.38
915.563	541.62
915.736	573.78
915.908	660
916.081	609.43
916.253	623.19
916.425	632.1
916.598	617.38
916.77	610.59
916.942	595.09
917.115	542.59
917.287	621.83
917.459	552.28
917.632	552.66
917.804	496.86
917.976	599.74
918.148	580.56
918.32	579.21
918.493	610.21
918.665	642.95
918.837	629.39
919.009	665.81
919.181	698.94
919.353	643.73
919.525	627.64
919.697	626.09
919.869	651.48
920.041	712.12
920.213	741.76
920.385	638.88
920.557	655.93
920.729	669.49
920.901	668.52
921.073	620.09
921.244	601.29
921.416	682.09
921.588	632.68
921.76	615.24
921.932	669.69
922.103	607.11
922.275	625.51
922.447	650.7
922.619	588.89
922.79	620.67
922.962	602.46
923.134	647.6
923.305	563.71
923.477	537.55
923.648	532.13
923.82	568.16
923.991	485.43
924.163	497.83
924.335	509.65
924.506	529.61
924.677	589.67
924.849	514.88
925.02	538.71
925.192	599.55
925.363	550.92
925.535	550.34
925.706	494.15
925.877	602.26
926.049	516.05
926.22	549.56
926.391	581.34
926.562	591.22
926.734	526.51
926.905	566.42
927.076	497.25
927.247	512.56
927.419	501.51
927.59	471.48
927.761	474.2
927.932	469.55
928.103	446.49
928.274	434.09
928.445	407.74
928.616	445.52
928.787	410.65
928.958	422.66
929.129	392.63
929.3	389.53
929.471	351.55
929.642	319.59
929.813	271.54
929.984	372.48
930.155	275.99
930.326	341.87
930.496	310.67
930.667	237.82
930.838	294.4
931.009	260.49
931.18	268.05
931.35	226.97
931.521	232.59
931.692	219.61
931.863	125.45
932.033	202.56
932.204	205.66
932.374	191.33
932.545	153.35
932.716	219.22
932.886	218.45
933.057	113.05
933.227	138.63
933.398	226.59
933.568	102.2
933.739	74.11
933.909	108.4
934.08	142.89
934.25	47.56
934.421	70.04
934.591	113.44
934.761	82.05
934.932	57.06
935.102	106.27
935.272	114.8
935.443	93.1
935.613	80.7
935.783	161.1
935.953	55.9
936.123	260.88
936.294	96.97
936.464	80.31
936.634	105.88
936.804	72.56
936.974	36.91
937.144	95.03
937.314	104.72
937.484	97.55
937.655	67.13
937.825	158.19
937.995	62.29
938.165	143.47
938.334	109.37
938.504	132.23
938.674	114.6
938.844	106.08
939.014	210.31
939.184	155.87
939.354	217.48
939.524	202.18
939.694	155.09
939.863	136.88
940.033	233.56
940.203	223.29
940.373	181.06
940.542	222.91
940.712	159.74
940.882	206.24
941.051	239.18
941.221	198.3
941.391	215.16
941.56	173.69
941.73	134.17
941.899	283.74
942.069	141.53
942.238	175.05
942.408	171.18
942.577	206.05
942.747	135.14
942.916	95.23
943.086	136.3
943.255	212.44
943.425	144.24
943.594	108.98
943.763	61.71
943.933	107.43
944.102	64.81
944.271	113.44
944.441	162.07
944.61	124.1
944.779	127.58
944.948	216.51
945.117	76.05
945.287	117.51
945.456	59.58
945.625	83.8
945.794	143.08
945.963	96.39
946.132	141.34
946.301	92.9
946.47	165.17
946.639	76.82
946.808	83.02
946.977	144.83
947.146	193.65
947.315	110.34
947.484	169.04
947.653	110.15
947.822	116.35
947.991	81.66
948.16	182.22
948.329	197.72
948.498	108.01
948.666	129.71
948.835	144.63
949.004	91.55
949.173	76.05
949.341	131.07
949.51	160.13
949.679	162.46
949.847	162.65
950.016	232.4
950.185	216.13
950.353	123.9
950.522	105.3
950.69	194.04
950.859	100.26
951.028	178.54
951.196	152.58
951.365	81.66
951.533	133.2
951.701	162.26
951.87	186.87
952.038	75.27
952.207	145.02
952.375	183.19
952.543	89.61
952.712	69.26
952.88	92.9
953.048	196.94
953.217	134.17
953.385	113.63
953.553	174.28
953.721	90.19
953.89	118.86
954.058	58.61
954.226	90
954.394	123.71
954.562	69.46
954.73	124.48
954.898	105.11
955.067	150.83
955.235	64.81
955.403	149.28
955.571	196.75
955.739	138.24
955.907	74.3
956.075	99.88
956.243	101.23
956.41	140.18
956.578	58.22
956.746	96.2
956.914	106.85
957.082	149.86
957.25	135.14
957.418	90.96
957.585	124.68
957.753	177.76
957.921	98.33
958.089	175.44
958.256	146.57
958.424	126.42
958.592	162.46
958.759	86.9
958.927	145.41
959.095	90.77
959.262	113.44
959.43	119.25
959.597	84.38
959.765	96.2
959.932	68.88
960.1	155.87
960.267	106.08
960.435	114.02
960.602	152.77
960.77	108.4
960.937	96
961.104	144.24
961.272	74.5
961.439	106.66
961.606	127.58
961.774	146.57
961.941	102.98
962.108	141.73
962.275	128.55
962.443	175.24
962.61	137.66
962.777	186.87
962.944	151.03
963.111	159.94
963.278	166.14
963.446	143.28
963.613	129.52
963.78	156.84
963.947	153.74
964.114	138.63
964.281	213.99
964.448	143.08
964.615	92.51
964.782	152.38
964.949	182.03
965.116	170.79
965.282	172.92
965.449	134.56
965.616	110.73
965.783	139.01
965.95	131.26
966.117	88.64
966.283	132.81
966.45	151.8
966.617	143.28
966.784	194.04
966.95	163.81
967.117	159.36
967.284	118.09
967.45	117.12
967.617	200.43
967.784	153.74
967.95	227.75
968.117	141.73
968.283	205.08
968.45	261.27
968.616	170.79
968.783	183.38
968.949	134.56
969.116	209.54
969.282	136.49
969.449	138.24
969.615	147.15
969.781	131.07
969.948	148.89
970.114	123.32
970.28	224.46
970.447	143.08
970.613	188.03
970.779	151.8
970.945	184.93
971.112	178.15
971.278	157.81
971.444	141.53
971.61	217.68
971.776	102.98
971.942	170.79
972.108	177.76
972.275	135.72
972.441	181.44
972.607	246.16
972.773	119.83
972.939	178.73
973.105	139.01
973.271	94.26
973.437	103.56
973.602	105.3
973.768	163.81
973.934	124.87
974.1	170.98
974.266	66.75
974.432	154.9
974.598	129.13
974.763	189
974.929	125.45
975.095	191.52
975.261	108.21
975.426	107.24
975.592	134.36
975.758	210.89
975.923	99.49
976.089	105.3
976.255	186.68
976.42	141.53
976.586	151.99
976.751	151.8
976.917	212.06
977.082	175.63
977.248	104.72
977.413	87.09
977.579	107.05
977.744	137.46
977.91	82.83
978.075	93.68
978.24	171.37
978.406	108.4
978.571	106.66
978.736	103.56
978.902	173.5
979.067	96.2
979.232	62.68
979.397	127.2
979.563	191.13
979.728	68.68
979.893	107.24
980.058	94.06
980.223	153.35
980.388	122.16
980.554	140.37
980.719	102.78
980.884	135.53
981.049	173.89
981.214	102.78
981.379	123.9
981.544	104.33
981.709	113.44
981.874	108.01
982.039	127.58
982.204	135.91
982.368	122.93
982.533	105.5
982.698	126.42
982.863	166.91
983.028	88.25
983.193	156.64
983.357	136.69
983.522	137.85
983.687	79.73
983.852	101.43
984.016	105.69
984.181	147.93
984.346	134.75
984.51	166.53
984.675	110.34
984.839	140.76
985.004	133.39
985.168	144.83
985.333	127
985.498	111.7
985.662	171.37
985.827	159.36
985.991	120.41
986.155	148.51
986.32	156.06
986.484	201.4
986.649	164.59
986.813	66.36
986.977	119.45
987.142	123.32
987.306	88.64
987.47	86.51
987.634	84.96
987.799	121.38
987.963	110.92
988.127	170.21
988.291	205.47
988.455	111.89
988.62	114.6
988.784	129.91
988.948	153.74
989.112	102.4
989.276	145.6
989.44	109.18
989.604	104.91
989.768	97.75
989.932	190.94
990.096	74.5
990.26	92.51
990.424	81.28
990.588	110.73
990.752	197.53
990.915	123.9
991.079	115.18
991.243	105.5
991.407	185.13
991.571	108.21
991.734	120.61
991.898	116.35
992.062	207.6
992.226	102.98
992.389	93.87
992.553	52.02
992.717	95.61
992.88	85.15
993.044	109.37
993.207	80.11
993.371	142.89
993.535	122.55
993.698	109.56
993.862	157.61
994.025	148.51
994.189	110.73
994.352	105.11
994.515	133.39
994.679	121.19
994.842	109.18
995.006	121.38
995.169	59.38
995.332	79.92
995.496	133.98
995.659	47.56
995.822	91.74
995.985	90.38
996.149	146.38
996.312	97.36
996.475	145.99
996.638	89.61
996.801	155.87
996.964	153.54
997.128	83.41
997.291	101.23
997.454	87.28
997.617	38.07
997.78	126.03
997.943	76.63
998.106	113.25
998.269	79.53
998.432	99.88
998.595	86.9
998.758	54.54
998.92	63.84
999.083	31.68
999.246	93.68
999.409	47.95
999.572	20.44
999.735	70.62
999.897	103.75
1000.06	63.84
1000.223	94.84
1000.386	108.21
1000.548	127.39
1000.711	120.61
1000.874	117.9
1001.036	54.35
1001.199	126.81
1001.361	50.86
1001.524	100.65
1001.687	95.81
1001.849	64.42
1002.012	84.96
1002.174	98.52
1002.337	130.88
1002.499	52.41
1002.661	128.16
1002.824	23.35
1002.986	62.87
1003.149	103.56
1003.311	48.34
1003.473	127.97
1003.636	30.32
1003.798	80.89
1003.96	104.53
1004.123	82.25
1004.285	41.75
1004.447	67.52
1004.609	87.48
1004.771	109.76
1004.933	15.98
1005.096	58.8
1005.258	38.46
1005.42	46.6
1005.582	105.3
1005.744	76.05
1005.906	27.42
1006.068	66.36
1006.23	27.42
1006.392	10.37
1006.554	32.26
1006.716	101.04
1006.878	90.58
1007.04	24.9
1007.202	41.95
1007.363	71.01
1007.525	69.26
1007.687	88.83
1007.849	100.85
1008.011	-15.98
1008.172	31.29
1008.334	49.11
1008.496	90
1008.658	5.13
1008.819	19.47
1008.981	27.22
1009.143	43.88
1009.304	71.78
1009.466	80.5
1009.627	118.09
1009.789	163.81
1009.95	96.58
1010.112	33.81
1010.273	84.96
1010.435	24.9
1010.596	59.38
1010.758	15.79
1010.919	47.95
1011.081	51.44
1011.242	24.51
1011.403	84.96
1011.565	46.6
1011.726	72.36
1011.887	22.77
1012.049	27.8
1012.21	71.59
1012.371	108.4
1012.532	-6.1
1012.693	64.42
1012.855	32.65
1013.016	45.63
1013.177	82.44
1013.338	27.8
1013.499	127
1013.66	88.64
1013.821	69.26
1013.982	75.27
1014.143	65.2
1014.304	21.99
1014.465	83.99
1014.626	75.85
1014.787	39.82
1014.948	128.55
1015.109	-33.81
1015.27	95.23
1015.431	24.7
1015.592	20.05
1015.752	84.96
1015.913	45.82
1016.074	32.84
1016.235	94.06
1016.395	63.45
1016.556	33.62
1016.717	33.23
1016.877	101.43
1017.038	14.82
1017.199	72.56
1017.359	35.36
1017.52	30.9
1017.681	34.39
1017.841	46.21
1018.002	30.52
1018.162	12.69
1018.323	90
1018.483	26.83
1018.644	20.25
1018.804	-11.92
1018.964	7.46
1019.125	26.45
1019.285	23.54
1019.446	20.05
1019.606	5.13
1019.766	2.23
1019.926	76.63
1020.087	56.67
1020.247	-6.1
1020.407	50.47
1020.567	63.84
1020.728	25.09
1020.888	4.55
1021.048	27.03
1021.208	-10.17
1021.368	1.26
1021.528	79.15
1021.688	78.76
1021.848	53.96
1022.008	36.33
1022.168	18.89
1022.328	58.22
1022.488	60.16
1022.648	50.08
1022.808	58.03
1022.968	28.97
1023.128	28.77
1023.288	17.92
1023.448	30.32
1023.608	64.81
1023.767	47.95
1023.927	-10.17
1024.087	3.78
1024.247	-22.96
1024.406	28.58
1024.566	-16.57
1024.726	11.33
1024.885	18.89
1025.045	56.48
1025.205	16.57
1025.364	36.91
1025.524	30.9
1025.683	28.97
1025.843	44.66
1026.003	27.03
1026.162	62.29
1026.321	75.46
1026.481	26.25
1026.64	28.77
1026.8	36.72
1026.959	20.83
1027.119	22.18
1027.278	-7.07
1027.437	6.49
1027.597	40.59
1027.756	41.56
1027.915	40.4
1028.074	37.49
1028.234	-1.65
1028.393	36.13
1028.552	-6.3
1028.711	-65.2
1028.87	68.49
1029.03	-9.98
1029.189	58.61
1029.348	-34
1029.507	7.85
1029.666	20.63
1029.825	-8.62
1029.984	10.56
1030.143	43.3
1030.302	0.48
1030.461	-37.1
1030.62	19.47
1030.779	29.16
1030.938	-10.37
1031.097	-12.11
1031.255	48.73
1031.414	61.13
1031.573	70.62
1031.732	-39.62
1031.891	1.26
1032.049	65.58
1032.208	43.5
1032.367	-0.48
1032.525	4.17
1032.684	13.47
1032.843	34.78
1033.001	-22.38
1033.16	172.14
1033.319	78.95
1033.477	49.31
1033.636	-0.87
1033.794	-28.38
1033.953	58.22
1034.111	48.34
1034.27	-10.75
1034.428	31.48
1034.587	7.27
1034.745	40.59
1034.903	8.04
1035.062	18.12
1035.22	-13.85
1035.378	71.2
1035.537	13.66
1035.695	34
1035.853	10.75
1036.011	47.95
1036.17	32.07
1036.328	-49.11
1036.486	47.95
1036.644	0.29
1036.802	-71.2
1036.96	0.1
1037.119	1.45
1037.277	8.23
1037.435	-22.38
1037.593	-23.93
1037.751	6.49
1037.909	81.47
1038.067	81.47
