Data from gum_old_FLMT105791__171__15-47-58-250.txt Node

Date: Mon Mar 20 15:47:58 GMT 2023
User: antho
Spectrometer: FLMT10579
Trigger mode: 0
Integration Time (sec): 1.000000E-1
Scans to average: 10
Electric dark correction enabled: true
Nonlinearity correction enabled: false
Boxcar width: 0
XAxis mode: Wavelengths
Number of Pixels in Spectrum: 3648
>>>>>Begin Spectral Data<<<<<
345.248	-166.43
345.464	-166.43
345.681	-166.43
345.898	-173.4
346.114	-178.63
346.331	-39.91
346.548	15.5
346.764	-6.78
346.981	4.07
347.197	-14.14
347.414	-7.75
347.631	-15.5
347.847	62
348.064	30.81
348.28	15.69
348.497	-43.79
348.713	-0.19
348.93	41.66
349.146	7.94
349.363	-5.81
349.579	48.05
349.796	26.35
350.012	7.94
350.229	53.86
350.445	25.96
350.661	2.13
350.878	20.73
351.094	26.16
351.311	24.99
351.527	48.63
351.743	20.73
351.96	59.09
352.176	50.96
352.392	47.47
352.609	73.04
352.825	-12.59
353.041	32.36
353.257	12.79
353.474	15.89
353.69	13.56
353.906	37.01
354.122	-0.97
354.339	68.39
354.555	14.53
354.771	16.86
354.987	73.24
355.203	86.02
355.42	13.56
355.636	16.08
355.852	-2.52
356.068	26.35
356.284	12.79
356.5	75.56
356.716	49.6
356.932	43.79
357.148	57.35
357.364	54.64
357.58	62
357.796	93
358.012	67.62
358.228	41.27
358.444	-11.43
358.66	94.74
358.876	44.37
359.092	-9.88
359.308	64.71
359.524	62.77
359.74	9.88
359.956	30.42
360.172	35.84
360.388	56.77
360.604	8.72
360.819	113.92
361.035	17.63
361.251	65.68
361.467	21.7
361.683	94.94
361.898	61.22
362.114	74.01
362.33	50.37
362.546	91.84
362.762	32.74
362.977	40.88
363.193	5.23
363.409	70.14
363.624	20.54
363.84	-5.81
364.056	-6.01
364.271	55.22
364.487	54.25
364.703	26.93
364.918	30.03
365.134	41.07
365.35	41.85
365.565	157.9
365.781	32.55
365.996	56.96
366.212	123.22
366.427	49.41
366.643	30.42
366.858	35.26
367.074	9.69
367.289	99.59
367.505	159.45
367.72	4.46
367.936	45.53
368.151	91.25
368.367	90.87
368.582	71.49
368.798	26.54
369.013	126.52
369.228	49.21
369.444	76.34
369.659	120.9
369.874	68.97
370.09	116.44
370.305	-3.49
370.52	21.7
370.736	129.04
370.951	40.11
371.166	116.05
371.381	105.59
371.597	93.77
371.812	37.39
372.027	2.91
372.242	55.22
372.458	127.29
372.673	34.68
372.888	54.64
373.103	75.56
373.318	138.72
373.533	85.64
373.749	50.76
373.964	39.33
374.179	102.88
374.394	31.19
374.609	116.64
374.824	16.86
375.039	107.34
375.254	26.74
375.469	130
375.684	87.38
375.899	107.92
376.114	67.23
376.329	74.98
376.544	111.6
376.759	90.29
376.974	27.71
377.189	76.34
377.404	48.82
377.619	116.83
377.834	17.24
378.049	31.97
378.264	34.1
378.478	46.89
378.693	62.19
378.908	93.19
379.123	58.32
379.338	92.42
379.553	85.64
379.767	82.34
379.982	100.36
380.197	120.12
380.412	60.64
380.626	82.34
380.841	152.67
381.056	85.25
381.271	159.84
381.485	53.67
381.7	48.82
381.915	100.75
382.129	75.56
382.344	86.02
382.559	76.92
382.773	103.65
382.988	10.66
383.202	80.79
383.417	38.36
383.632	153.64
383.846	76.14
384.061	82.54
384.275	61.81
384.49	91.06
384.704	112.95
384.919	84.09
385.133	88.35
385.348	120.32
385.562	58.9
385.777	122.25
385.991	94.16
386.206	71.49
386.42	60.84
386.634	134.27
386.849	113.73
387.063	99.59
387.277	55.61
387.492	55.99
387.706	50.57
387.92	37.97
388.135	145.89
388.349	120.12
388.563	104.24
388.778	93
388.992	119.74
389.206	130.39
389.42	157.52
389.635	117.22
389.849	144.54
390.063	135.62
390.277	105.01
390.491	197.43
390.706	142.4
390.92	141.24
391.134	113.34
391.348	165.65
391.562	85.25
391.776	115.47
391.99	96.49
392.205	129.42
392.419	92.42
392.633	102.88
392.847	178.25
393.061	93.58
393.275	160.04
393.489	100.55
393.703	113.54
393.917	120.32
394.131	71.49
394.345	99
394.559	144.73
394.773	78.08
394.986	117.99
395.2	124.97
395.414	180.77
395.628	99.39
395.842	129.42
396.056	123.61
396.27	71.11
396.484	130
396.697	121.48
396.911	172.05
397.125	153.25
397.339	128.84
397.553	105.79
397.766	182.9
397.98	160.23
398.194	174.95
398.408	148.6
398.621	189.68
398.835	173.6
399.049	189.68
399.262	240.63
399.476	206.15
399.69	197.62
399.903	272.02
400.117	211.18
400.331	233.27
400.544	181.93
400.758	315.23
400.971	216.61
401.185	243.93
401.398	187.35
401.612	268.73
401.826	234.82
402.039	247.61
402.253	211.57
402.466	272.99
402.68	246.45
402.893	241.99
403.106	234.24
403.32	190.26
403.533	272.6
403.747	218.55
403.96	252.45
404.174	270.08
404.387	200.14
404.6	268.15
404.814	290.23
405.027	251.48
405.24	245.48
405.454	235.79
405.667	310
405.88	172.05
406.094	250.32
406.307	277.25
406.52	252.84
406.733	198.59
406.947	189.29
407.16	313.68
407.373	302.25
407.586	252.45
407.799	241.8
408.012	291.78
408.226	253.03
408.439	290.43
408.652	239.67
408.865	276.09
409.078	323.36
409.291	289.65
409.504	260.4
409.717	297.4
409.93	301.66
410.143	267.56
410.357	203.43
410.57	216.42
410.783	226.88
410.996	277.64
411.209	245.87
411.421	323.75
411.634	285.2
411.847	270.47
412.06	315.23
412.273	296.05
412.486	310.58
412.699	409.97
412.912	317.16
413.125	361.34
413.338	316
413.55	317.55
413.763	290.23
413.976	290.62
414.189	293.53
414.402	288.68
414.615	379.74
414.827	283.84
415.04	341.58
415.253	325.5
415.466	359.98
415.678	430.7
415.891	315.03
416.104	306.9
416.316	304.76
416.529	298.95
416.742	366.18
416.954	392.53
417.167	350.1
417.38	324.14
417.592	383.81
417.805	303.8
418.017	245.87
418.23	371.22
418.442	308.64
418.655	310.58
418.868	313.87
419.08	347.58
419.293	380.91
419.505	356.49
419.718	345.45
419.93	371.61
420.142	336.15
420.355	390.59
420.567	410.74
420.78	378.19
420.992	340.61
421.205	438.84
421.417	322.78
421.629	359.01
421.842	335.18
422.054	308.64
422.266	375.68
422.479	405.9
422.691	339.83
422.903	392.34
423.115	328.01
423.328	334.02
423.54	375.48
423.752	370.25
423.964	336.54
424.177	396.41
424.389	355.53
424.601	501.03
424.813	381.49
425.025	404.35
425.238	437.09
425.45	350.49
425.662	346.81
425.874	701.95
426.086	393.69
426.298	392.73
426.51	391.18
426.722	382.65
426.934	363.08
427.146	409
427.358	332.28
427.57	448.33
427.782	386.72
427.994	379.74
428.206	342.35
428.418	363.47
428.63	400.48
428.842	468.09
429.054	408.03
429.266	422.95
429.478	350.1
429.69	391.76
429.902	329.37
430.114	411.13
430.325	369.09
430.537	345.45
430.749	325.69
430.961	270.28
431.173	333.63
431.384	345.06
431.596	265.63
431.808	337.12
432.02	403.77
432.231	433.99
432.443	482.62
432.655	462.86
432.867	407.06
433.078	467.32
433.29	492.7
433.502	474.49
433.713	514.98
433.925	487.08
434.136	510.14
434.348	367.34
434.56	394.28
434.771	553.92
434.983	367.93
435.194	402.03
435.406	455.89
435.617	500.64
435.829	559.35
436.04	509.94
436.252	490.18
436.463	531.64
436.675	517.5
436.886	539.59
437.098	570.97
437.309	591.51
437.521	538.04
437.732	533.77
437.943	524.67
438.155	520.79
438.366	447.94
438.578	562.06
438.789	493.28
439	522.73
439.211	480.3
439.423	499.48
439.634	506.26
439.845	557.99
440.057	523.12
440.268	581.82
440.479	492.51
440.69	545.79
440.902	512.66
441.113	530.29
441.324	518.27
441.535	576.01
441.746	634.91
441.957	543.27
442.168	561.87
442.38	594.03
442.591	613.21
442.802	545.01
443.013	577.56
443.224	607.79
443.435	591.32
443.646	571.17
443.857	585.12
444.068	564.97
444.279	566.71
444.49	672.88
444.701	578.53
444.912	726.94
445.123	645.95
445.334	624.06
445.545	617.47
445.756	641.5
445.967	568.84
446.178	595.39
446.388	643.63
446.599	623.28
446.81	635.68
447.021	582.99
447.232	646.92
447.443	654.67
447.653	620.96
447.864	687.42
448.075	677.53
448.286	656.61
448.496	658.55
448.707	694.78
448.918	646.92
449.129	743.02
449.339	647.12
449.55	672.5
449.761	665.52
449.971	696.91
450.182	666.3
450.393	686.06
450.603	638.4
450.814	728.88
451.024	705.82
451.235	721.32
451.446	778.09
451.656	770.15
451.867	692.84
452.077	716.86
452.288	761.81
452.498	763.56
452.709	695.94
452.919	723.84
453.13	682.57
453.34	694.2
453.55	646.34
453.761	716.86
453.971	687.8
454.182	711.05
454.392	725.39
454.602	770.92
454.813	736.63
455.023	733.14
455.233	652.93
455.444	703.5
455.654	610.3
455.864	676.57
456.075	688.19
456.285	680.44
456.495	696.91
456.705	731.98
456.916	785.26
457.126	780.61
457.336	762.98
457.546	641.3
457.756	697.88
457.967	786.42
458.177	759.88
458.387	736.43
458.597	713.57
458.807	719.19
459.017	698.27
459.227	732.17
459.437	720.74
459.647	768.4
459.857	769.76
460.068	727.91
460.278	793.2
460.488	715.7
460.698	825.94
460.908	718.41
461.117	717.06
461.327	756.78
461.537	785.26
461.747	791.26
461.957	772.66
462.167	899.18
462.377	796.88
462.587	798.04
462.797	840.86
463.007	791.07
463.216	852.49
463.426	832.73
463.636	825.56
463.846	758.71
464.056	780.03
464.265	833.89
464.475	772.66
464.685	817.81
464.895	835.83
465.104	772.08
465.314	847.45
465.524	786.61
465.733	766.66
465.943	877.09
466.153	905.38
466.362	850.74
466.572	866.83
466.782	791.26
466.991	799.59
467.201	865.86
467.41	766.66
467.62	832.34
467.829	840.67
468.039	883.1
468.249	830.79
468.458	852.49
468.668	882.32
468.877	907.71
469.086	907.9
469.296	920.88
469.505	856.75
469.715	913.52
469.924	903.83
470.134	978.42
470.343	925.72
470.552	867.02
470.762	874.77
470.971	838.54
471.18	920.49
471.39	879.42
471.599	833.5
471.808	891.82
472.018	878.64
472.227	979.78
472.436	1003.22
472.645	919.72
472.855	933.86
473.064	1006.13
473.273	961.37
473.482	963.12
473.691	1037.32
473.901	999.54
474.11	962.73
474.319	1100.68
474.528	979.2
474.737	1071.81
474.946	1028.99
475.155	1072.2
475.364	1093.7
475.573	1048.56
475.783	1059.02
475.992	1047.4
476.201	1075.3
476.41	1016.79
476.619	981.91
476.828	1040.23
477.037	1033.64
477.245	1053.6
477.454	1080.92
477.663	1046.43
477.872	1089.83
478.081	1181.66
478.29	1077.04
478.499	1224.29
478.708	1184.18
478.917	1230.88
479.125	1132.07
479.334	1147.95
479.543	1165.97
479.752	1150.47
479.961	1173.53
480.169	1237.08
480.378	1179.92
480.587	1352.16
480.796	1238.04
481.004	1198.13
481.213	1244.24
481.422	1223.9
481.63	1261.88
481.839	1287.64
482.048	1293.84
482.256	1250.83
482.465	1321.94
482.674	1315.54
482.882	1365.14
483.091	1379.87
483.299	1300.24
483.508	1348.48
483.716	1330.66
483.925	1323.49
484.134	1297.14
484.342	1314.57
484.551	1372.89
484.759	1354.49
484.967	1372.12
485.176	1379.09
485.384	1365.72
485.593	1379.87
485.801	1361.46
486.01	1344.8
486.218	1280.48
486.426	1194.26
486.635	1159.96
486.843	1155.7
487.051	1220.8
487.26	1204.33
487.468	1260.91
487.676	1292.49
487.885	1289.78
488.093	1350.81
488.301	1398.47
488.509	1379.48
488.717	1412.61
488.926	1406.8
489.134	1405.25
489.342	1381.42
489.55	1376.19
489.758	1400.02
489.967	1394.21
490.175	1551.92
490.383	1461.44
490.591	1589.11
490.799	1480.81
491.007	1552.5
491.215	1512.39
491.423	1510.07
491.631	1504.06
491.839	1485.85
492.047	1549.01
492.255	1449.62
492.463	1439.35
492.671	1437.22
492.879	1533.51
493.087	1456.79
493.295	1504.83
493.503	1516.85
493.711	1601.32
493.919	1567.61
494.127	1579.04
494.334	1586.98
494.542	1531.77
494.75	1583.88
494.958	1538.16
495.166	1634.84
495.374	1621.08
495.581	1633.68
495.789	1664.29
495.997	1705.17
496.205	1574.39
496.412	1586.21
496.62	1628.45
496.828	1637.75
497.035	1656.93
497.243	1647.82
497.451	1616.43
497.658	1673.2
497.866	1617.21
498.074	1696.06
498.281	1611.98
498.489	1733.65
498.696	1672.23
498.904	1555.79
499.112	1625.35
499.319	1707.88
499.527	1649.95
499.734	1737.91
499.942	1618.95
500.149	1671.07
500.357	1711.18
500.564	1624.38
500.771	1647.24
500.979	1624.57
501.186	1599.19
501.394	1643.95
501.601	1593.96
501.808	1682.5
502.016	1631.74
502.223	1612.75
502.43	1623.99
502.638	1630.77
502.845	1594.15
503.052	1750.51
503.26	1666.81
503.467	1749.15
503.674	1718.34
503.881	1723.19
504.089	1789.45
504.296	1722.61
504.503	1635.42
504.71	1680.76
504.917	1679.01
505.125	1695.68
505.332	1702.46
505.539	1744.69
505.746	1827.42
505.953	1813.28
506.16	1791.39
506.367	1883.61
506.574	1877.22
506.781	1886.9
506.988	1785.19
507.195	1786.16
507.402	1839.82
507.609	1834.59
507.816	1768.91
508.023	1736.36
508.23	1756.51
508.437	1732.29
508.644	1812.31
508.851	1820.45
509.058	1832.27
509.265	1847.38
509.472	1902.79
509.679	1958.59
509.885	1840.6
510.092	1877.22
510.299	1864.24
510.506	1858.81
510.713	1847.38
510.92	1851.06
511.126	1875.09
511.333	1930.3
511.54	1896.79
511.746	1932.43
511.953	1986.49
512.16	1967.89
512.367	1915.19
512.573	1940.18
512.78	1904.73
512.987	1854.74
513.193	1901.82
513.4	1787.9
513.606	1885.94
513.813	1917.52
514.02	1903.18
514.226	1973.12
514.433	1909.77
514.639	1866.17
514.846	1891.55
515.052	1856.1
515.259	1878.57
515.465	1913.84
515.672	1916.55
515.878	2013.81
516.085	1961.11
516.291	1987.07
516.497	1932.82
516.704	1940.38
516.91	1820.64
517.117	1789.26
517.323	1684.83
517.529	1760.39
517.736	1749.15
517.942	1759.81
518.148	1767.94
518.354	1852.8
518.561	1838.85
518.767	1833.62
518.973	1883.61
519.179	1885.74
519.386	1866.37
519.592	1931.08
519.798	1902.99
520.004	2032.99
520.21	1940.57
520.417	2040.93
520.623	2071.55
520.829	2059.15
521.035	2052.56
521.241	2051.59
521.447	2089.95
521.653	2209.69
521.859	2075.61
522.065	2092.28
522.271	2218.6
522.477	2159.7
522.683	2221.7
522.889	2134.13
523.095	2137.42
523.301	2143.81
523.507	2104.68
523.713	2112.23
523.919	2072.51
524.125	2206.2
524.331	2175.98
524.537	2304.43
524.742	2275.17
524.948	2304.04
525.154	2311.99
525.36	2378.83
525.566	2261.03
525.772	2316.25
525.977	2243.4
526.183	2305.79
526.389	2325.35
526.595	2241.66
526.8	2263.74
527.006	2113.01
527.212	2080.85
527.417	2050.23
527.623	2069.8
527.829	2159.51
528.034	2211.04
528.24	2200.58
528.446	2202.91
528.651	2333.88
528.857	2286.02
529.062	2383.67
529.268	2352.09
529.473	2422.03
529.679	2401.5
529.884	2475.51
530.09	2478.8
530.295	2412.93
530.501	2443.73
530.706	2413.51
530.912	2401.11
531.117	2457.3
531.323	2451.1
531.528	2519.49
531.733	2522.59
531.939	2531.89
532.144	2509.22
532.35	2469.11
532.555	2510.96
532.76	2463.11
532.966	2491.59
533.171	2422.23
533.376	2389.1
533.581	2337.56
533.787	2415.25
533.992	2475.31
534.197	2520.65
534.402	2460.01
534.607	2482.48
534.813	2570.83
535.018	2466.79
535.223	2473.18
535.428	2510
535.633	2579.55
535.838	2569.48
536.043	2559.98
536.249	2626.24
536.454	2545.26
536.659	2607.64
536.864	2571.41
537.069	2526.85
537.274	2533.05
537.479	2544.68
537.684	2500.89
537.889	2455.55
538.094	2621.98
538.299	2546.61
538.504	2535.96
538.708	2584.01
538.913	2615.39
539.118	2600.28
539.323	2613.07
539.528	2594.47
539.733	2549.71
539.938	2578
540.142	2567.54
540.347	2560.37
540.552	2542.35
540.757	2508.06
540.962	2522.78
541.166	2466.79
541.371	2480.55
541.576	2511.16
541.781	2412.73
541.985	2531.5
542.19	2532.66
542.395	2628.37
542.599	2656.08
542.804	2608.23
543.008	2665.77
543.213	2593.89
543.418	2525.11
543.622	2600.86
543.827	2529.95
544.031	2659.76
544.236	2672.74
544.44	2624.31
544.645	2726.99
544.849	2637.48
545.054	2715.95
545.258	2711.88
545.463	2696.57
545.667	2666.74
545.872	2691.92
546.076	2680.3
546.281	2679.33
546.485	2615.39
546.689	2739.78
546.894	2710.33
547.098	2680.11
547.302	2609.78
547.507	2675.84
547.711	2706.07
547.915	2738.62
548.119	2601.44
548.324	2595.44
548.528	2720.02
548.732	2686.69
548.936	2701.42
549.141	2697.54
549.345	2683.4
549.549	2663.06
549.753	2693.86
549.957	2806.43
550.161	2770.97
550.366	2669.26
550.57	2651.62
550.774	2682.43
550.978	2683.59
551.182	2702.19
551.386	2667.12
551.59	2680.69
551.794	2684.37
551.998	2720.99
552.202	2744.62
552.406	2637.09
552.61	2703.55
552.814	2696.38
553.018	2768.65
553.222	2674.1
553.426	2711.49
553.63	2754.7
553.833	2701.03
554.037	2623.34
554.241	2680.88
554.445	2716.92
554.649	2691.73
554.853	2637.87
555.056	2738.62
555.26	2754.5
555.464	2736.87
555.668	2754.12
555.871	2743.27
556.075	2759.54
556.279	2672.55
556.483	2630.31
556.686	2643.87
556.89	2656.27
557.094	2719.44
557.297	2563.08
557.501	2695.22
557.704	2548.94
557.908	2695.41
558.112	2623.72
558.315	2705.29
558.519	2624.31
558.722	2578.19
558.926	2587.69
559.129	2523.95
559.333	2504.38
559.536	2542.74
559.74	2523.36
559.943	2492.56
560.147	2517.16
560.35	2529.18
560.553	2531.7
560.757	2479.38
560.96	2592.92
561.164	2494.5
561.367	2607.45
561.57	2587.3
561.774	2574.32
561.977	2526.66
562.18	2507.09
562.384	2607.26
562.587	2513.87
562.79	2516.97
562.993	2537.12
563.197	2539.83
563.4	2589.82
563.603	2603.19
563.806	2619.66
564.009	2520.65
564.212	2538.67
564.416	2433.27
564.619	2531.5
564.822	2452.06
565.025	2543.13
565.228	2482.87
565.431	2491.78
565.634	2370.3
565.837	2401.88
566.04	2422.81
566.243	2404.02
566.446	2287.57
566.649	2414.87
566.852	2319.93
567.055	2373.4
567.258	2411.18
567.461	2455.55
567.664	2462.91
567.867	2369.53
568.07	2423.2
568.273	2419.13
568.475	2485.97
568.678	2346.86
568.881	2375.73
569.084	2362.17
569.287	2249.21
569.489	2284.47
569.692	2371.66
569.895	2338.34
570.098	2283.89
570.3	2270.33
570.503	2244.37
570.706	2277.69
570.909	2226.16
571.111	2188.76
571.314	2138.19
571.516	2185.27
571.719	2217.05
571.922	2195.93
572.124	2171.13
572.327	2231.77
572.529	2192.64
572.732	2210.27
572.935	2258.12
573.137	2303.27
573.34	2234.29
573.542	2258.9
573.745	2255.61
573.947	2280.99
574.15	2208.52
574.352	2171.13
574.554	2266.65
574.757	2169.39
574.959	2169
575.162	2177.72
575.364	2135.87
575.566	2291.45
575.769	2101.38
575.971	2158.93
576.173	2046.36
576.376	2140.52
576.578	2170.55
576.78	2208.72
576.982	2041.51
577.185	2104.87
577.387	2079.3
577.589	2050.43
577.791	2145.94
577.993	2138.19
578.196	2122.31
578.398	2103.51
578.6	2159.12
578.802	2020.4
579.004	2050.23
579.206	2028.15
579.408	2108.94
579.61	2077.55
579.812	2139.55
580.014	2062.25
580.216	2049.85
580.418	2089.95
580.62	2047.71
580.822	2001.02
581.024	2083.56
581.226	2138.97
581.428	2065.93
581.63	2139.55
581.832	2042.87
582.034	2140.91
582.236	2061.86
582.438	2116.88
582.64	2142.26
582.841	2141.88
583.043	2180.82
583.245	2104.09
583.447	2133.74
583.649	2115.33
583.85	2108.16
584.052	2114.75
584.254	2047.33
584.456	2125.99
584.657	2017.88
584.859	2082.01
585.061	2041.51
585.262	2021.17
585.464	1995.4
585.666	2094.6
585.867	1994.63
586.069	2043.84
586.27	2002.18
586.472	1997.34
586.674	1991.92
586.875	1977
587.077	2004.32
587.278	1989.98
587.48	1998.31
587.681	2136.45
587.883	1996.76
588.084	1959.56
588.285	1965.95
588.487	1932.43
588.688	2001.99
588.89	1897.17
589.091	1844.09
589.292	1873.34
589.494	1820.45
589.695	1780.73
589.896	1717.18
590.098	1703.81
590.299	1776.08
590.5	1752.64
590.702	1747.41
590.903	1799.52
591.104	1911.9
591.305	1880.51
591.507	1937.08
591.708	1889.42
591.909	1856.49
592.11	1949.48
592.311	1915.97
592.512	1831.3
592.714	1846.41
592.915	1846.02
593.116	1872.57
593.317	1841.95
593.518	1851.84
593.719	1874.31
593.92	1923.91
594.121	1948.9
594.322	1897.56
594.523	1894.46
594.724	1837.5
594.925	1905.89
595.126	1871.79
595.327	1855.52
595.528	1881.29
595.729	1905.5
595.929	1874.31
596.13	1875.86
596.331	1861.14
596.532	1867.72
596.733	1929.92
596.934	1881.29
597.135	1882.84
597.335	1891.55
597.536	1826.07
597.737	1909.38
597.938	1837.89
598.138	1887.68
598.339	1858.23
598.54	1866.75
598.74	1819.67
598.941	1865.01
599.142	1906.28
599.342	1860.94
599.543	1813.28
599.744	1837.69
599.944	1852.42
600.145	1830.52
600.345	1863.65
600.546	1896.01
600.746	1888.07
600.947	1948.71
601.147	1787.32
601.348	1902.6
601.548	1796.04
601.749	1847.96
601.949	1784.99
602.15	1832.66
602.35	1778.41
602.551	1803.79
602.751	1764.26
602.951	1781.12
603.152	1753.22
603.352	1844.67
603.552	1836.72
603.753	1838.08
603.953	1840.4
604.153	1851.84
604.354	1807.27
604.554	1795.46
604.754	1829.36
604.954	1791.97
605.155	1841.18
605.355	1813.28
605.555	1858.62
605.755	1891.17
605.955	1811.15
606.155	1860.55
606.356	1837.3
606.556	1828.78
606.756	1835.75
606.956	1770.27
607.156	1837.3
607.356	1746.44
607.556	1797.39
607.756	1787.71
607.956	1840.4
608.156	1828.59
608.356	1741.4
608.556	1816.19
608.756	1769.11
608.956	1735.59
609.156	1740.24
609.356	1736.17
609.556	1726.29
609.755	1778.02
609.955	1701.88
610.155	1740.63
610.355	1719.51
610.555	1695.29
610.755	1695.29
610.954	1698.19
611.154	1720.86
611.354	1763.87
611.554	1687.15
611.753	1680.76
611.953	1644.91
612.153	1733.65
612.352	1716.41
612.552	1660.61
612.752	1633.1
612.951	1692.77
613.151	1708.66
613.351	1628.25
613.55	1649.18
613.75	1702.26
613.949	1621.66
614.149	1658.67
614.348	1628.45
614.548	1598.41
614.747	1596.09
614.947	1591.83
615.146	1541.07
615.346	1670.1
615.545	1642.98
615.745	1639.49
615.944	1678.43
616.144	1645.5
616.343	1631.35
616.542	1610.04
616.742	1551.53
616.941	1594.73
617.14	1535.06
617.34	1576.33
617.539	1556.57
617.738	1541.26
617.938	1647.82
618.137	1557.92
618.336	1540.29
618.535	1612.56
618.734	1583.88
618.934	1569.74
619.133	1597.45
619.332	1622.63
619.531	1549.2
619.73	1596.09
619.929	1621.66
620.128	1600.35
620.328	1641.62
620.527	1549.78
620.726	1548.82
620.925	1580.01
621.124	1607.91
621.323	1580.4
621.522	1526.92
621.721	1559.28
621.92	1565.67
622.119	1578.26
622.318	1515.68
622.517	1545.91
622.715	1554.43
622.914	1481
623.113	1568.58
623.312	1467.44
623.511	1522.85
623.71	1505.8
623.909	1487.2
624.107	1574.97
624.306	1437.41
624.505	1510.84
624.704	1487.01
624.902	1468.8
625.101	1588.34
625.3	1531.77
625.499	1493.4
625.697	1487.01
625.896	1443.42
626.095	1478.87
626.293	1423.27
626.492	1450.59
626.69	1521.11
626.889	1472.09
627.088	1535.83
627.286	1476.55
627.485	1436.25
627.683	1419.2
627.882	1475.58
628.08	1398.47
628.279	1391.88
628.477	1517.23
628.676	1413
628.874	1459.69
629.073	1424.43
629.271	1398.08
629.469	1448.84
629.668	1444.77
629.866	1426.56
630.065	1401.76
630.263	1485.27
630.461	1384.71
630.66	1388.2
630.858	1431.99
631.056	1479.45
631.254	1486.43
631.453	1381.81
631.651	1496.5
631.849	1412.22
632.047	1383.36
632.245	1398.27
632.444	1420.75
632.642	1428.5
632.84	1451.36
633.038	1375.8
633.236	1371.73
633.434	1355.65
633.632	1386.65
633.83	1354.29
634.028	1449.04
634.227	1399.82
634.425	1483.52
634.623	1393.62
634.821	1412.42
635.019	1429.47
635.216	1388.97
635.414	1440.9
635.612	1408.35
635.81	1397.11
636.008	1439.54
636.206	1373.47
636.404	1403.5
636.602	1362.62
636.8	1328.33
636.997	1419.59
637.195	1446.52
637.393	1391.49
637.591	1440.51
637.789	1428.69
637.986	1357.01
638.184	1400.79
638.382	1436.44
638.58	1435.28
638.777	1449.04
638.975	1389.17
639.173	1387.42
639.37	1384.71
639.568	1387.62
639.765	1407.96
639.963	1372.31
640.161	1437.99
640.358	1386.65
640.556	1327.17
640.753	1334.72
640.951	1329.69
641.148	1338.6
641.346	1344.8
641.543	1334.72
641.741	1346.54
641.938	1299.27
642.136	1349.64
642.333	1274.47
642.531	1356.81
642.728	1380.64
642.925	1348.09
643.123	1339.37
643.32	1309.73
643.517	1305.28
643.715	1319.03
643.912	1333.76
644.109	1303.14
644.306	1313.61
644.504	1295.39
644.701	1318.26
644.898	1321.55
645.095	1275.44
645.293	1298.88
645.49	1330.85
645.687	1307.41
645.884	1354.29
646.081	1235.14
646.278	1268.08
646.475	1251.8
646.672	1288.03
646.87	1300.24
647.067	1250.83
647.264	1260.91
647.461	1219.06
647.658	1168.68
647.855	1280.48
648.052	1242.5
648.249	1135.75
648.446	1221.19
648.642	1223.32
648.839	1167.13
649.036	1192.71
649.233	1178.95
649.43	1173.53
649.627	1112.5
649.824	1164.42
650.021	1135.17
650.217	1142.72
650.414	1175.27
650.611	1217.31
650.808	1178.95
651.004	1183.99
651.201	1218.28
651.398	1294.04
651.595	1227.97
651.791	1170.04
651.988	1238.04
652.185	1180.89
652.381	1204.53
652.578	1146.98
652.775	1197.36
652.971	1172.75
653.168	1198.52
653.364	1231.26
653.561	1126.25
653.757	1206.85
653.954	1165.58
654.15	1160.35
654.347	1239.21
654.543	1172.17
654.74	1123.73
654.936	1113.27
655.133	1166.55
655.329	1165.39
655.525	1175.46
655.722	1165.58
655.918	1099.9
656.115	1115.02
656.311	1032.87
656.507	991.4
656.704	932.31
656.9	1016.4
657.096	1013.1
657.292	974.55
657.489	1082.66
657.685	1076.65
657.881	1031.51
658.077	1047.98
658.273	1073.94
658.47	1142.72
658.666	1059.6
658.862	1122.18
659.058	1112.3
659.254	1144.66
659.45	1090.99
659.646	1165.39
659.842	1115.4
660.038	1176.24
660.234	1082.27
660.43	1112.88
660.626	1182.83
660.822	1149.31
661.018	1161.9
661.214	1106.88
661.41	1086.53
661.606	1129.55
661.802	1145.43
661.998	1099.71
662.194	1093.51
662.39	1144.85
662.586	1159
662.781	1128.38
662.977	1172.95
663.173	1147.56
663.369	1113.08
663.564	1077.04
663.76	1127.42
663.956	1104.36
664.152	1167.33
664.347	1049.72
664.543	1060.77
664.739	1056.12
664.934	1026.09
665.13	1000.9
665.326	1107.65
665.521	1068.32
665.717	1038.87
665.912	1037.52
666.108	998.38
666.304	1042.36
666.499	1044.3
666.695	979
666.89	1015.24
667.086	1088.08
667.281	1054.57
667.477	1124.32
667.672	1083.63
667.867	1046.82
668.063	1045.07
668.258	1003.42
668.454	1006.71
668.649	1125.09
668.844	1030.15
669.04	1052.05
669.235	1016.4
669.43	1023.18
669.626	983.85
669.821	1020.66
670.016	979.97
670.211	1025.31
670.407	960.02
670.602	1040.81
670.797	989.47
670.992	1066.38
671.187	973.77
671.382	1041.59
671.578	1002.84
671.773	1040.23
671.968	965.83
672.163	1009.42
672.358	1018.14
672.553	1004.39
672.748	1000.32
672.943	1063.48
673.138	988.5
673.333	1032.29
673.528	1016.2
673.723	1031.9
673.918	988.5
674.113	941.61
674.308	1090.22
674.503	1033.06
674.698	1020.08
674.892	1017.95
675.087	1010.78
675.282	1028.22
675.477	954.79
675.672	1042.94
675.867	969.51
676.061	948.01
676.256	941.03
676.451	988.89
676.646	986.95
676.84	942.19
677.035	924.37
677.23	924.17
677.424	988.5
677.619	1014.65
677.814	1002.84
678.008	1022.21
678.203	910.22
678.397	937.16
678.592	977.84
678.787	1032.29
678.981	955.37
679.176	985.98
679.37	984.04
679.565	962.92
679.759	940.45
679.954	978.81
680.148	1038.29
680.342	1025.89
680.537	1009.04
680.731	950.14
680.926	979.78
681.12	1000.9
681.314	893.37
681.509	948.2
681.703	982.49
681.897	1019.89
682.092	954.79
682.286	962.92
682.48	1030.93
682.674	1020.47
682.869	946.46
683.063	964.09
683.257	1039.26
683.451	919.91
683.645	975.52
683.839	972.42
684.034	952.27
684.228	997.22
684.422	925.14
684.616	918.17
684.81	981.52
685.004	984.82
685.198	942.77
685.392	985.4
685.586	934.83
685.78	990.24
685.974	958.86
686.168	989.85
686.362	1004
686.556	894.53
686.75	877.09
686.944	902.28
687.138	887.17
687.331	790.29
687.525	805.79
687.719	740.7
687.913	824.78
688.107	803.86
688.301	781
688.494	827.69
688.688	792.43
688.882	762.2
689.076	770.92
689.269	817.23
689.463	891.04
689.657	799.01
689.85	801.34
690.044	839.89
690.238	815.87
690.431	821.1
690.625	824.39
690.818	859.85
691.012	863.34
691.205	914.68
691.399	832.73
691.593	912.94
691.786	965.64
691.98	965.25
692.173	983.46
692.366	906.74
692.56	959.82
692.753	988.3
692.947	889.88
693.14	956.92
693.333	992.57
693.527	905.57
693.72	949.94
693.914	925.53
694.107	926.5
694.3	955.17
694.493	916.23
694.687	1005.16
694.88	905.57
695.073	1019.69
695.266	968.35
695.46	981.91
695.653	1036.55
695.846	1002.84
696.039	935.61
696.232	982.3
696.425	1023.37
696.618	1026.09
696.812	1036.55
697.005	1079.37
697.198	1155.31
697.391	1079.75
697.584	1112.88
697.777	1151.05
697.97	1149.7
698.163	1136.52
698.356	1113.66
698.549	1248.7
698.742	1158.22
698.935	1121.8
699.127	1170.62
699.32	1126.45
699.513	1151.25
699.706	1159.77
699.899	1214.6
700.092	1136.13
700.285	1209.56
700.477	1125.67
700.67	1179.53
700.863	1220.03
701.056	1291.52
701.248	1248.31
701.441	1266.14
701.634	1255.68
701.826	1328.52
702.019	1253.93
702.212	1330.07
702.404	1246.96
702.597	1265.36
702.79	1290.55
702.982	1312.44
703.175	1322.52
703.367	1347.12
703.56	1354.68
703.752	1475.19
703.945	1444.97
704.137	1428.11
704.33	1469.77
704.522	1469.19
704.715	1481.59
704.907	1490.3
705.1	1508.52
705.292	1529.44
705.484	1523.05
705.677	1575.16
705.869	1573.42
706.061	1606.16
706.254	1673.39
706.446	1589.89
706.638	1588.53
706.831	1671.84
707.023	1650.73
707.215	1739.85
707.407	1724.54
707.599	1749.15
707.792	1803.4
707.984	1780.15
708.176	1831.11
708.368	1802.43
708.56	1804.56
708.752	1778.41
708.944	1811.15
709.136	1855.32
709.329	1823.74
709.521	1986.49
709.713	1931.47
709.905	1962.66
710.097	2001.22
710.289	1917.52
710.481	1973.32
710.672	1992.69
710.864	2019.04
711.056	2073.48
711.248	2025.05
711.44	2091.11
711.632	2047.13
711.824	2116.88
712.016	2167.26
712.207	2174.43
712.399	2169.78
712.591	2242.62
712.783	2192.06
712.975	2252.51
713.166	2189.54
713.358	2262.19
713.55	2317.6
713.741	2303.85
713.933	2311.6
714.125	2304.24
714.316	2276.53
714.508	2392
714.7	2401.88
714.891	2395.1
715.083	2479.58
715.274	2400.72
715.466	2404.21
715.657	2459.04
715.849	2350.93
716.04	2426.88
716.232	2417.77
716.423	2467.76
716.615	2378.25
716.806	2399.17
716.998	2394.13
717.189	2321.29
717.381	2253.67
717.572	2261.03
717.763	2255.22
717.955	2226.54
718.146	2205.04
718.337	2163.58
718.528	2120.56
718.72	2047.33
718.911	2143.23
719.102	2084.33
719.293	2135.87
719.485	2111.07
719.676	2102.35
719.867	2083.95
720.058	2064.76
720.249	2126.38
720.44	2107.39
720.632	2182.95
720.823	2232.94
721.014	2369.53
721.205	2355.97
721.396	2459.81
721.587	2553.01
721.778	2566.96
721.969	2609.58
722.16	2722.92
722.351	2723.89
722.542	2840.92
722.733	2843.24
722.924	2779.5
723.115	2811.08
723.305	2785.5
723.496	2819.99
723.687	2685.72
723.878	2738.62
724.069	2742.3
724.26	2750.63
724.45	2664.8
724.641	2692.12
724.832	2734.55
725.023	2714.01
725.213	2759.54
725.404	2733.97
725.595	2728.93
725.785	2719.63
725.976	2813.02
726.167	2800.62
726.357	2783.95
726.548	2931.4
726.739	2805.85
726.929	2913.76
727.12	2938.56
727.31	2950.77
727.501	2912.41
727.691	2961.04
727.882	2895.55
728.072	2973.63
728.263	2955.23
728.453	3048.61
728.644	3083.49
728.834	3041.25
729.024	3020.33
729.215	2996.11
729.405	3015.09
729.596	3093.17
729.786	3139.67
729.976	3192.57
730.167	3180.55
730.357	3142.58
730.547	3205.74
730.737	3177.26
730.928	3222.6
731.118	3304.94
731.308	3247.4
731.498	3289.05
731.688	3328.77
731.879	3364.61
732.069	3433.39
732.259	3427.78
732.449	3484.35
732.639	3560.3
732.829	3593.04
733.019	3597.89
733.209	3673.83
733.399	3675.97
733.589	3812.75
733.779	3807.91
733.969	3770.9
734.159	3871.46
734.349	3881.34
734.539	3938.3
734.729	3972.59
734.919	3996.81
735.109	4039.44
735.299	3942.76
735.488	3979.18
735.678	4007.66
735.868	4011.15
736.058	4012.31
736.248	4028.59
736.437	3942.95
736.627	3955.93
736.817	4083.61
737.007	4034.79
737.196	4063.65
737.386	4080.7
737.576	4004.76
737.765	4091.75
737.955	4088.45
738.144	4271.35
738.334	4178.93
738.524	4072.37
738.713	4204.7
738.903	4150.07
739.092	4196.18
739.282	4232.21
739.471	4210.51
739.661	4185.13
739.85	4225.63
740.04	4216.91
740.229	4275.42
740.419	4340.71
740.608	4333.35
740.797	4276.2
740.987	4391.09
741.176	4312.81
741.365	4263.6
741.555	4244.03
741.744	4344.39
741.933	4297.51
742.123	4367.06
742.312	4387.99
742.501	4449.99
742.69	4382.76
742.88	4331.41
743.069	4485.83
743.258	4361.83
743.447	4460.06
743.636	4513.15
743.825	4418.02
744.014	4450.76
744.204	4514.89
744.393	4399.61
744.582	4508.89
744.771	4536.98
744.96	4471.69
745.149	4489.51
745.338	4458.51
745.527	4547.05
745.716	4480.4
745.905	4452.12
746.094	4539.3
746.283	4556.74
746.471	4496.68
746.66	4562.94
746.849	4547.83
747.038	4546.86
747.227	4511.4
747.416	4534.46
747.604	4560.03
747.793	4564.88
747.982	4522.45
748.171	4557.71
748.359	4559.45
748.548	4556.35
748.737	4516.64
748.926	4552.67
749.114	4498.04
749.303	4535.62
749.491	4545.12
749.68	4446.31
749.869	4561.39
750.057	4466.45
750.246	4509.66
750.434	4465.87
750.623	4484.86
750.811	4482.15
751	4480.6
751.188	4458.32
751.377	4483.31
751.565	4500.55
751.754	4384.5
751.942	4442.62
752.131	4488.35
752.319	4441.07
752.507	4393.8
752.696	4469.55
752.884	4461.22
753.072	4467.23
753.261	4448.63
753.449	4436.81
753.637	4414.53
753.825	4523.8
754.014	4446.31
754.202	4444.17
754.39	4445.14
754.578	4486.99
754.766	4431.97
754.955	4384.89
755.143	4475.56
755.331	4411.04
755.519	4429.06
755.707	4406.39
755.895	4391.28
756.083	4379.46
756.271	4344.01
756.459	4403.87
756.647	4411.24
756.835	4314.56
757.023	4333.74
757.211	4352.53
757.399	4322.89
757.587	4320.56
757.775	4316.69
757.963	4332.96
758.151	4347.11
758.339	4266.51
758.526	4274.84
758.714	4318.24
758.902	4214.58
759.09	4097.95
759.278	3938.3
759.465	3671.51
759.653	3311.14
759.841	3035.44
760.028	2644.65
760.216	2357.52
760.404	2215.31
760.591	1874.12
760.779	1646.08
760.967	1501.15
761.154	1303.53
761.342	1362.24
761.529	1397.89
761.717	1468.99
761.905	1460.66
762.092	1573.23
762.28	1533.12
762.467	1554.82
762.655	1526.34
762.842	1571.48
763.029	1597.64
763.217	1607.13
763.404	1597.83
763.592	1648.98
763.779	1632.32
763.966	1655.38
764.154	1773.17
764.341	1834.01
764.528	1822.58
764.716	1890
764.903	1994.05
765.09	2013.42
765.277	2051.59
765.465	2232.55
765.652	2313.92
765.839	2379.6
766.026	2528.79
766.213	2588.27
766.4	2669.64
766.588	2887.61
766.775	2883.73
766.962	2948.45
767.149	3009.48
767.336	3204.77
767.523	3151.1
767.71	3274.52
767.897	3375.46
768.084	3491.91
768.271	3500.43
768.458	3571.73
768.645	3615.52
768.832	3618.23
769.019	3599.05
769.206	3674.42
769.392	3721.88
769.579	3814.3
769.766	3778.26
769.953	3748.43
770.14	3811.98
770.327	3806.75
770.513	3821.66
770.7	3863.32
770.887	3825.93
771.073	3883.28
771.26	3849.56
771.447	3854.99
771.634	3784.66
771.82	3920.28
772.007	3779.43
772.193	3860.8
772.38	3868.36
772.567	3857.31
772.753	3803.26
772.94	3867.19
773.126	3867.39
773.313	3893.54
773.499	3874.36
773.686	3887.15
773.872	3762.18
774.059	3887.54
774.245	3755.6
774.432	3786.4
774.618	3755.6
774.804	3802.29
774.991	3726.73
775.177	3816.05
775.363	3780.98
775.55	3800.93
775.736	3693.4
775.922	3734.48
776.109	3724.98
776.295	3734.87
776.481	3704.83
776.667	3801.32
776.853	3696.5
777.04	3662.99
777.226	3739.32
777.412	3802.87
777.598	3718.98
777.784	3704.45
777.97	3635.47
778.156	3731.18
778.342	3671.7
778.528	3645.35
778.715	3628.3
778.901	3603.12
779.087	3674.61
779.272	3599.44
779.458	3604.86
779.644	3627.53
779.83	3574.83
780.016	3670.73
780.202	3596.34
780.388	3559.14
780.574	3533.37
780.76	3526.97
780.946	3616.1
781.131	3572.31
781.317	3530.46
781.503	3515.93
781.689	3488.03
781.874	3661.82
782.06	3500.24
782.246	3532.21
782.432	3516.32
782.617	3555.84
782.803	3583.35
782.989	3440.56
783.174	3490.36
783.36	3383.41
783.545	3469.82
783.731	3465.56
783.916	3376.43
784.102	3448.31
784.288	3441.92
784.473	3423.32
784.659	3378.37
784.844	3452.19
785.029	3390.58
785.215	3371.78
785.4	3302.62
785.586	3461.29
785.771	3315.98
785.956	3377.01
786.142	3334.2
786.327	3374.69
786.512	3292.73
786.698	3327.61
786.883	3235.97
787.068	3261.35
787.254	3306.1
787.439	3264.64
787.624	3242.75
787.809	3253.79
787.994	3248.37
788.18	3303.2
788.365	3180.17
788.55	3243.72
788.735	3179.2
788.92	3202.45
789.105	3218.72
789.29	3229.77
789.475	3158.08
789.66	3173
789.845	3128.24
790.03	3137.16
790.215	3156.53
790.4	3157.89
790.585	3212.52
790.77	3150.72
790.955	3082.52
791.14	3164.67
791.325	3210.59
791.51	3038.73
791.695	3127.08
791.879	3088.33
792.064	3051.52
792.249	3132.89
792.434	3086.78
792.618	3057.33
792.803	3132.51
792.988	3078.84
793.173	3136.96
793.357	3152.85
793.542	3059.46
793.727	3100.73
793.911	3097.63
794.096	3090.27
794.281	3134.25
794.465	3164.09
794.65	3081.94
794.834	3118.56
795.019	3153.62
795.203	3166.02
795.388	3135.8
795.572	3179.39
795.757	3142.58
795.941	3185.79
796.126	3110.03
796.31	3092.98
796.494	3100.34
796.679	3132.89
796.863	3099.96
797.048	3204.39
797.232	3147.04
797.416	3158.66
797.601	3142.19
797.785	3219.5
797.969	3207.87
798.153	3126.5
798.338	3197.41
798.522	3254.37
798.706	3205.94
798.89	3206.71
799.074	3318.5
799.258	3224.34
799.443	3206.71
799.627	3165.25
799.811	3193.92
799.995	3146.45
800.179	3165.83
800.363	3149.55
800.547	3183.07
800.731	3184.82
800.915	3095.31
801.099	3153.24
801.283	3112.94
801.467	3174.16
801.651	3199.74
801.835	3170.87
802.019	3159.24
802.202	3174.94
802.386	3103.44
802.57	3118.17
802.754	3167.38
802.938	3154.2
803.121	3117.2
803.305	3193.92
803.489	3153.82
803.673	3178.42
803.856	3172.22
804.04	3150.14
804.224	3174.55
804.407	3114.49
804.591	3087.75
804.775	3128.63
804.958	3148.78
805.142	3273.55
805.326	3133.86
805.509	3169.12
805.693	3203.8
805.876	3186.95
806.06	3161.76
806.243	3202.25
806.427	3209.62
806.61	3237.52
806.794	3171.06
806.977	3204.19
807.16	3143.16
807.344	3193.54
807.527	3139.48
807.71	3089.11
807.894	3159.24
808.077	3162.54
808.26	3098.79
808.444	3082.91
808.627	3176.29
808.81	3104.8
808.993	3040.48
809.177	3021.1
809.36	3069.15
809.543	3103.64
809.726	2984.48
809.909	2986.03
810.092	2941.08
810.276	2987.19
810.459	2976.15
810.642	2978.09
810.825	2926.16
811.008	2973.63
811.191	2860.29
811.374	2876.76
811.557	2910.08
811.74	2954.84
811.923	2840.53
812.106	2847.5
812.289	2836.46
812.472	2812.43
812.654	2853.32
812.837	2801.78
813.02	2707.62
813.203	2739.39
813.386	2576.06
813.569	2605.13
813.751	2488.68
813.934	2553.01
814.117	2542.93
814.3	2483.84
814.482	2416.61
814.665	2389.48
814.848	2417.38
815.03	2300.36
815.213	2288.93
815.396	2275.95
815.578	2268.01
815.761	2214.92
815.943	2286.8
816.126	2161.25
816.309	2156.6
816.491	2089.18
816.674	2045.58
816.856	2095.76
817.039	2019.43
817.221	2121.92
817.403	2093.83
817.586	2116.69
817.768	2119.98
817.951	1990.75
818.133	2029.5
818.315	2057.4
818.498	2093.63
818.68	2205.23
818.862	2094.21
819.045	2150.21
819.227	2132.58
819.409	2061.86
819.591	2130.64
819.774	2093.25
819.956	2093.25
820.138	2144.98
820.32	2109.33
820.502	2194.38
820.684	2246.5
820.866	2193.61
821.048	2287.77
821.231	2332.33
821.413	2319.93
821.595	2301.72
821.777	2308.69
821.959	2289.7
822.141	2367.59
822.323	2201.94
822.505	2113.98
822.686	2115.14
822.868	2011.1
823.05	1923.52
823.232	1895.82
823.414	1791.19
823.596	1889.62
823.778	1870.24
823.96	1911.12
824.141	1890.2
824.323	1919.84
824.505	1972.73
824.687	2047.52
824.868	2106.61
825.05	2195.16
825.232	2210.85
825.413	2303.27
825.595	2275.75
825.777	2152.92
825.958	2231.19
826.14	2215.69
826.321	2242.62
826.503	2202.32
826.685	2252.31
826.866	2278.27
827.048	2265.49
827.229	2190.12
827.411	2163.19
827.592	2125.6
827.773	2124.24
827.955	2032.99
828.136	2056.24
828.318	2036.67
828.499	2061.08
828.68	2019.23
828.862	2073.87
829.043	2089.37
829.224	2034.54
829.406	1956.27
829.587	1990.95
829.768	1986.49
829.949	2029.7
830.131	2009.16
830.312	2069.8
830.493	1993.47
830.674	2045.39
830.855	1984.75
831.036	2002.57
831.218	2044.23
831.399	2061.08
831.58	2014.97
831.761	2036.67
831.942	2023.5
832.123	2013.03
832.304	1995.98
832.485	2008.19
832.666	1997.73
832.847	2020.78
833.028	2002.96
833.209	1998.5
833.389	1996.95
833.57	1955.3
833.751	1942.51
833.932	2042.29
834.113	1999.86
834.294	1982.42
834.475	2030.28
834.655	2075.61
834.836	2050.81
835.017	2024.46
835.198	1963.82
835.378	1978.55
835.559	2039.38
835.74	2022.14
835.92	2002.18
836.101	1965.37
836.281	2051.01
836.462	2025.63
836.643	2057.4
836.823	2073.87
837.004	2082.98
837.184	2109.52
837.365	2076.39
837.545	2078.13
837.726	2028.73
837.906	2085.5
838.087	2046.36
838.267	2049.07
838.448	2029.31
838.628	2043.45
838.808	2001.22
838.989	2091.31
839.169	2015.16
839.349	2050.43
839.53	2036.48
839.71	2100.03
839.89	2008
840.07	2115.33
840.251	2016.71
840.431	2077.94
840.611	2013.23
840.791	2008.38
840.971	2048.3
841.151	2005.87
841.332	1973.7
841.512	2053.53
841.692	1996.95
841.872	2028.34
842.052	2026.21
842.232	2017.49
842.412	1914.61
842.592	2020.2
842.772	2015.16
842.952	2010.32
843.132	1958.4
843.312	1973.12
843.492	1950.07
843.672	2010.71
843.851	1910.54
844.031	1977.97
844.211	1951.03
844.391	1982.62
844.571	1962.08
844.751	1967.5
844.93	1964.4
845.11	1909.96
845.29	1927.59
845.47	1958.2
845.649	1961.11
845.829	1985.91
846.009	1914.42
846.188	1985.91
846.368	1950.84
846.547	1902.79
846.727	1970.8
846.907	1893.3
847.086	1910.15
847.266	1966.73
847.445	1948.52
847.625	1906.47
847.804	1867.92
847.984	1887.49
848.163	1918.49
848.343	1896.01
848.522	1899.5
848.701	1920.23
848.881	1862.69
849.06	1872.18
849.239	1867.34
849.419	1871.99
849.598	1829.36
849.777	1773.37
849.957	1782.86
850.136	1718.15
850.315	1694.32
850.494	1693.74
850.674	1729
850.853	1786.16
851.032	1770.07
851.211	1812.12
851.39	1779.57
851.569	1687.34
851.748	1742.56
851.927	1773.76
852.107	1785.57
852.286	1713.31
852.465	1718.54
852.644	1777.63
852.823	1747.6
853.002	1755.93
853.181	1774.53
853.359	1775.89
853.538	1670.29
853.717	1767.94
853.896	1654.6
854.075	1582.91
854.254	1561.22
854.433	1467.05
854.611	1512.78
854.79	1436.83
854.969	1502.7
855.148	1516.46
855.327	1497.28
855.505	1553.66
855.684	1549.4
855.863	1592.6
856.041	1532.35
856.22	1604.03
856.399	1579.23
856.577	1695.87
856.756	1686.96
856.934	1784.99
857.113	1754.19
857.291	1694.51
857.47	1658.48
857.648	1705.75
857.827	1694.9
858.005	1682.69
858.184	1655.96
858.362	1737.14
858.541	1704.2
858.719	1664.29
858.898	1645.69
859.076	1638.13
859.254	1706.53
859.433	1674.17
859.611	1622.44
859.789	1594.54
859.967	1652.28
860.146	1692.58
860.324	1561.8
860.502	1618.95
860.68	1568.58
860.859	1613.14
861.037	1577.3
861.215	1636.97
861.393	1631.16
861.571	1588.73
861.749	1563.15
861.927	1631.16
862.105	1607.13
862.283	1590.66
862.461	1557.53
862.639	1511.42
862.817	1561.22
862.995	1593.96
863.173	1579.81
863.351	1559.08
863.529	1578.46
863.707	1580.59
863.885	1599
864.063	1501.93
864.241	1497.08
864.418	1604.23
864.596	1520.53
864.774	1476.94
864.952	1516.46
865.129	1542.42
865.307	1472.67
865.485	1435.86
865.663	1540.1
865.84	1430.24
866.018	1459.11
866.196	1322.91
866.373	1353.52
866.551	1310.12
866.728	1242.31
866.906	1302.76
867.084	1342.47
867.261	1375.41
867.439	1358.94
867.616	1411.64
867.794	1420.55
867.971	1428.89
868.149	1410.67
868.326	1464.54
868.503	1467.83
868.681	1441.87
868.858	1434.31
869.035	1373.09
869.213	1458.14
869.39	1392.27
869.567	1481
869.745	1390.91
869.922	1415.52
870.099	1418.04
870.276	1424.82
870.454	1443.61
870.631	1422.88
870.808	1408.15
870.985	1435.09
871.162	1460.27
871.339	1431.4
871.517	1331.62
871.694	1380.45
871.871	1402.92
872.048	1419.2
872.225	1351
872.402	1395.17
872.579	1325.81
872.756	1409.32
872.933	1329.69
873.11	1352.36
873.287	1376.96
873.463	1357.97
873.64	1336.66
873.817	1366.31
873.994	1346.74
874.171	1323.1
874.348	1359.52
874.524	1287.06
874.701	1362.82
874.878	1262.46
875.055	1342.47
875.231	1313.99
875.408	1336.47
875.585	1274.86
875.762	1292.1
875.938	1280.28
876.115	1249.67
876.291	1270.59
876.468	1291.52
876.645	1254.51
876.821	1266.33
876.998	1273.11
877.174	1271.95
877.351	1269.82
877.527	1246.76
877.704	1277.38
877.88	1291.13
878.057	1267.49
878.233	1321.55
878.409	1265.56
878.586	1262.65
878.762	1240.95
878.938	1267.49
879.115	1181.08
879.291	1243.08
879.467	1190.19
879.644	1205.69
879.82	1255.87
879.996	1214.41
880.172	1152.21
880.349	1229.52
880.525	1252.19
880.701	1143.88
880.877	1178.56
881.053	1218.67
881.229	1192.71
881.405	1257.81
881.581	1152.8
881.757	1178.76
881.933	1220.03
882.109	1245.02
882.285	1209.37
882.461	1127.8
882.637	1210.15
882.813	1180.31
882.989	1207.63
883.165	1287.84
883.341	1163.84
883.517	1197.16
883.693	1239.21
883.869	1221.58
884.044	1143.5
884.22	1184.96
884.396	1252.58
884.572	1219.25
884.747	1244.05
884.923	1212.28
885.099	1274.08
885.275	1254.13
885.45	1155.9
885.626	1168.68
885.801	1166.55
885.977	1193.48
886.153	1124.9
886.328	1203.95
886.504	1125.67
886.679	1186.51
886.855	1144.27
887.03	1211.89
887.206	1229.71
887.381	1205.5
887.557	1190.19
887.732	1201.62
887.908	1195.61
888.083	1212.86
888.258	1205.88
888.434	1151.05
888.609	1162.29
888.784	1227.97
888.96	1195.23
889.135	1119.47
889.31	1133.23
889.485	1181.47
889.661	1158.22
889.836	1223.71
890.011	1195.03
890.186	1186.31
890.361	1135.75
890.537	1167.91
890.712	1163.26
890.887	1175.08
891.062	1188.25
891.237	1209.37
891.412	1136.91
891.587	1180.5
891.762	1228.55
891.937	1244.83
892.112	1111.33
892.287	1167.13
892.462	1127.03
892.637	1124.12
892.812	1116.76
892.987	1081.69
893.161	1103.78
893.336	1092.93
893.511	1104.36
893.686	1099.52
893.861	1090.8
894.035	1089.05
894.21	1115.6
894.385	1031.51
894.56	1094.48
894.734	1020.08
894.909	1031.7
895.084	1050.5
895.258	999.54
895.433	1014.46
895.608	975.52
895.782	948.01
895.957	980.94
896.131	982.49
896.306	882.71
896.48	917.2
896.655	889.3
896.829	852.49
897.004	837.57
897.178	811.99
897.353	825.94
897.527	869.93
897.701	889.88
897.876	821.68
898.05	899.18
898.224	891.24
898.399	919.52
898.573	850.36
898.747	735.66
898.921	823.23
899.096	685.09
899.27	710.47
899.444	725.2
899.618	737.79
899.792	729.07
899.967	785.45
900.141	823.62
900.315	741.86
900.489	756.58
900.663	754.45
900.837	749.61
901.011	701.95
901.185	838.34
901.359	753.48
901.533	762.98
901.707	777.31
901.881	737.6
902.055	684.51
902.229	745.73
902.403	785.84
902.576	746.12
902.75	789.13
902.924	897.63
903.098	809.48
903.272	871.09
903.446	899.76
903.619	871.48
903.793	920.11
903.967	878.64
904.14	924.17
904.314	917.39
904.488	910.42
904.661	934.64
904.835	928.05
905.009	953.82
905.182	977.26
905.356	944.13
905.529	951.11
905.703	876.12
905.876	889.11
906.05	886.39
906.223	858.88
906.397	782.35
906.57	771.89
906.744	755.42
906.917	740.7
907.09	764.72
907.264	766.66
907.437	709.89
907.61	654.28
907.784	705.05
907.957	728.49
908.13	697.49
908.304	721.9
908.477	688.19
908.65	695.75
908.823	654.87
908.996	729.65
909.17	671.33
909.343	658.35
909.516	664.94
909.689	657.58
909.862	609.92
910.035	672.11
910.208	618.25
910.381	643.43
910.554	755.61
910.727	641.5
910.9	677.15
911.073	663.39
911.246	697.68
911.419	727.33
911.592	705.24
911.765	647.89
911.938	641.11
912.11	652.35
912.283	663
912.456	706.6
912.629	680.83
912.802	613.79
912.974	611.47
913.147	569.23
913.32	521.57
913.493	543.07
913.665	595.58
913.838	613.6
914.01	545.4
914.183	602.36
914.356	579.11
914.528	626.58
914.701	684.7
914.873	638.98
915.046	600.62
915.218	539.97
915.391	470.03
915.563	517.5
915.736	584.54
915.908	614.37
916.081	573.49
916.253	543.27
916.425	623.67
916.598	576.2
916.77	595.77
916.942	541.72
917.115	481.27
917.287	549.66
917.459	523.51
917.632	493.09
917.804	485.92
917.976	527.57
918.148	545.98
918.32	572.52
918.493	588.41
918.665	608.56
918.837	611.08
919.009	641.88
919.181	645.18
919.353	598.87
919.525	587.83
919.697	588.8
919.869	570.59
920.041	628.32
920.213	731.59
920.385	617.28
920.557	608.17
920.729	635.3
920.901	592.87
921.073	598.29
921.244	568.45
921.416	612.82
921.588	598.1
921.76	560.9
921.932	639.56
922.103	594.61
922.275	566.9
922.447	588.41
922.619	501.61
922.79	576.2
922.962	567.49
923.134	593.06
923.305	519.05
923.477	490.76
923.648	530.09
923.82	520.6
923.991	507.81
924.163	481.07
924.335	539.78
924.506	516.72
924.677	556.05
924.849	481.07
925.02	524.86
925.192	541.52
925.363	507.04
925.535	517.5
925.706	502.58
925.877	537.45
926.049	493.47
926.22	519.63
926.391	513.82
926.562	562.64
926.734	490.18
926.905	542.1
927.076	442.71
927.247	495.22
927.419	427.99
927.59	430.89
927.761	461.51
927.932	430.31
928.103	486.5
928.274	400.28
928.445	396.6
928.616	403.58
928.787	405.71
928.958	428.76
929.129	402.61
929.3	384.39
929.471	343.51
929.642	289.65
929.813	256.52
929.984	369.67
930.155	255.75
930.326	313.68
930.496	268.15
930.667	228.23
930.838	263.69
931.009	228.23
931.18	240.44
931.35	239.67
931.521	245.67
931.692	186.38
931.863	157.52
932.033	196.07
932.204	190.65
932.374	196.07
932.545	143.37
932.716	214.28
932.886	190.84
933.057	113.15
933.227	110.44
933.398	214.48
933.568	115.47
933.739	67.23
933.909	82.73
934.08	148.6
934.25	52.31
934.421	60.06
934.591	146.86
934.761	77.89
934.932	33.91
935.102	91.84
935.272	101.52
935.443	81.96
935.613	89.12
935.783	110.05
935.953	78.66
936.123	239.28
936.294	75.17
936.464	79.82
936.634	87.38
936.804	37.97
936.974	52.7
937.144	91.06
937.314	119.74
937.484	64.13
937.655	55.41
937.825	126.9
937.995	65.29
938.165	123.03
938.334	93.58
938.504	117.41
938.674	89.7
938.844	118.19
939.014	193.36
939.184	151.51
939.354	220.48
939.524	188.32
939.694	178.05
939.863	156.35
940.033	209.63
940.203	198.01
940.373	152.29
940.542	222.42
940.712	133.3
940.882	189.68
941.051	194.91
941.221	190.45
941.391	193.36
941.56	150.93
941.73	147.25
941.899	271.44
942.069	152.67
942.238	176.12
942.408	126.71
942.577	184.64
942.747	111.6
942.916	95.9
943.086	107.34
943.255	144.15
943.425	142.79
943.594	133.88
943.763	66.65
943.933	82.34
944.102	36.62
944.271	111.99
944.441	149.96
944.61	86.99
944.779	123.61
944.948	206.73
945.117	50.18
945.287	71.11
945.456	55.99
945.625	88.93
945.794	137.75
945.963	88.15
946.132	114.12
946.301	81.96
946.47	154.42
946.639	35.46
946.808	85.83
946.977	132.14
947.146	169.34
947.315	79.63
947.484	144.54
947.653	112.37
947.822	113.15
947.991	93.77
948.16	184.64
948.329	144.54
948.498	122.06
948.666	112.57
948.835	158.1
949.004	67.23
949.173	72.85
949.341	97.65
949.51	141.05
949.679	136.79
949.847	148.02
950.016	206.15
950.185	173.21
950.353	84.47
950.522	108.5
950.69	176.5
950.859	119.15
951.028	173.99
951.196	127.1
951.365	97.65
951.533	141.63
951.701	165.85
951.87	151.32
952.038	76.72
952.207	107.72
952.375	164.69
952.543	88.74
952.712	102.1
952.88	75.37
953.048	168.56
953.217	134.65
953.385	130.97
953.553	168.56
953.721	106.56
953.89	122.06
954.058	69.75
954.226	95.32
954.394	122.64
954.562	69.94
954.73	99.59
954.898	82.34
955.067	155.58
955.235	104.82
955.403	128.65
955.571	177.67
955.739	118.77
955.907	67.04
956.075	103.65
956.243	68.97
956.41	123.42
956.578	74.59
956.746	70.52
956.914	89.51
957.082	128.45
957.25	122.45
957.418	95.13
957.585	123.22
957.753	153.06
957.921	79.82
958.089	90.09
958.256	138.53
958.424	129.81
958.592	115.86
958.759	98.42
958.927	119.54
959.095	82.73
959.262	93.39
959.43	118.19
959.597	91.84
959.765	113.15
959.932	88.93
960.1	135.04
960.267	96.1
960.435	114.31
960.602	150.15
960.77	118.19
960.937	70.52
961.104	101.33
961.272	59.87
961.439	101.91
961.606	141.63
961.774	155.97
961.941	47.08
962.108	137.17
962.275	130
962.443	152.87
962.61	130.78
962.777	205.57
962.944	145.7
963.111	133.1
963.278	139.69
963.446	154.61
963.613	125.74
963.78	152.09
963.947	142.6
964.114	116.83
964.281	208.47
964.448	154.61
964.615	101.14
964.782	135.62
964.949	161
965.116	138.72
965.282	186.38
965.449	113.92
965.616	108.69
965.783	159.07
965.95	139.89
966.117	71.69
966.283	99
966.45	159.65
966.617	142.02
966.784	185.61
966.95	170.11
967.117	170.89
967.284	88.35
967.45	82.92
967.617	202.27
967.784	162.36
967.95	201.69
968.117	112.76
968.283	164.49
968.45	234.82
968.616	169.92
968.783	184.45
968.949	148.8
969.116	191.23
969.282	138.14
969.449	157.9
969.615	145.7
969.781	102.88
969.948	130.97
970.114	95.32
970.28	224.17
970.447	140.47
970.613	200.33
970.779	142.02
970.945	177.47
971.112	142.6
971.278	125.94
971.444	138.34
971.61	177.67
971.776	136.4
971.942	155.97
972.108	173.02
972.275	137.37
972.441	151.7
972.607	218.55
972.773	98.04
972.939	176.12
973.105	130.39
973.271	93.19
973.437	111.6
973.602	90.48
973.768	157.71
973.934	98.04
974.1	156.35
974.266	37.2
974.432	138.72
974.598	125.35
974.763	159.65
974.929	129.62
975.095	198.01
975.261	105.2
975.426	105.79
975.592	136.98
975.758	187.55
975.923	68.78
976.089	108.5
976.255	149.38
976.42	158.68
976.586	171.66
976.751	154.42
976.917	234.63
977.082	176.12
977.248	68.59
977.413	59.87
977.579	85.25
977.744	149.57
977.91	84.47
978.075	97.26
978.24	149.57
978.406	116.25
978.571	120.7
978.736	69.94
978.902	135.82
979.067	77.69
979.232	61.03
979.397	144.34
979.563	178.44
979.728	79.24
979.893	109.47
980.058	87.19
980.223	134.85
980.388	121.29
980.554	118.57
980.719	92.42
980.884	128.07
981.049	152.67
981.214	114.5
981.379	128.26
981.544	99.78
981.709	96.1
981.874	93.39
982.039	82.15
982.204	127.68
982.368	114.12
982.533	100.55
982.698	169.72
982.863	172.44
983.028	100.36
983.193	124.39
983.357	132.52
983.522	114.7
983.687	101.72
983.852	94.35
984.016	112.18
984.181	113.54
984.346	153.25
984.51	136.98
984.675	101.14
984.839	127.49
985.004	123.8
985.168	133.1
985.333	118.77
985.498	93.39
985.662	124.19
985.827	135.04
985.991	123.03
986.155	104.43
986.32	142.02
986.484	165.27
986.649	121.87
986.813	38.75
986.977	93.77
987.142	143.76
987.306	73.04
987.47	102.88
987.634	120.32
987.799	112.95
987.963	118.19
988.127	140.27
988.291	160.81
988.455	117.99
988.62	106.17
988.784	126.9
988.948	132.72
989.112	81.57
989.276	115.47
989.44	91.45
989.604	108.3
989.768	101.52
989.932	220.87
990.096	66.26
990.26	78.27
990.424	76.14
990.588	81.96
990.752	186.97
990.915	126.52
991.079	90.87
991.243	60.26
991.407	120.51
991.571	96.68
991.734	131.55
991.898	113.73
992.062	175.73
992.226	85.25
992.389	73.43
992.553	41.46
992.717	63.36
992.88	92.8
993.044	107.92
993.207	70.91
993.371	121.29
993.535	98.81
993.698	105.98
993.862	142.6
994.025	133.49
994.189	88.93
994.352	106.75
994.515	126.71
994.679	140.27
994.842	87.19
995.006	149.77
995.169	92.22
995.332	51.15
995.496	143.57
995.659	52.31
995.822	103.65
995.985	72.07
996.149	138.92
996.312	86.99
996.475	136.79
996.638	64.91
996.801	152.09
996.964	144.34
997.128	70.33
997.291	81.96
997.454	97.65
997.617	70.33
997.78	148.41
997.943	85.83
998.106	114.12
998.269	56.38
998.432	72.66
998.595	84.28
998.758	29.84
998.92	26.35
999.083	18.21
999.246	44.56
999.409	55.22
999.572	12.98
999.735	57.16
999.897	106.95
1000.06	48.82
1000.223	84.47
1000.386	124
1000.548	121.87
1000.711	117.02
1000.874	90.29
1001.036	27.32
1001.199	118.96
1001.361	45.53
1001.524	95.52
1001.687	108.89
1001.849	64.52
1002.012	76.34
1002.174	97.65
1002.337	105.98
1002.499	86.61
1002.661	140.08
1002.824	13.95
1002.986	34.68
1003.149	53.28
1003.311	52.51
1003.473	133.49
1003.636	66.07
1003.798	113.73
1003.96	101.91
1004.123	59.87
1004.285	60.84
1004.447	51.92
1004.609	64.71
1004.771	136.79
1004.933	23.44
1005.096	28.67
1005.258	5.81
1005.42	29.06
1005.582	88.54
1005.744	68.97
1005.906	3.87
1006.068	76.14
1006.23	13.76
1006.392	-2.91
1006.554	24.02
1006.716	129.42
1006.878	81.18
1007.04	4.26
1007.202	53.09
1007.363	65.49
1007.525	42.82
1007.687	112.37
1007.849	99.78
1008.011	8.52
1008.172	10.27
1008.334	63.16
1008.496	68.78
1008.658	-3.87
1008.819	37.2
1008.981	7.56
1009.143	11.43
1009.304	43.01
1009.466	80.6
1009.627	91.45
1009.789	153.25
1009.95	33.13
1010.112	46.69
1010.273	68.78
1010.435	53.47
1010.596	21.31
1010.758	35.65
1010.919	40.49
1011.081	14.14
1011.242	59.29
1011.403	78.86
1011.565	68.01
1011.726	53.28
1011.887	41.27
1012.049	47.08
1012.21	73.43
1012.371	119.74
1012.532	-39.14
1012.693	49.79
1012.855	22.47
1013.016	51.34
1013.177	63.36
1013.338	47.08
1013.499	107.53
1013.66	62.19
1013.821	94.16
1013.982	85.83
1014.143	43.98
1014.304	26.93
1014.465	66.84
1014.626	75.76
1014.787	36.04
1014.948	123.22
1015.109	-45.72
1015.27	72.27
1015.431	16.27
1015.592	28.29
1015.752	80.99
1015.913	57.16
1016.074	75.37
1016.235	86.02
1016.395	33.71
1016.556	38.17
1016.717	32.55
1016.877	96.68
1017.038	10.85
1017.199	46.89
1017.359	25.77
1017.52	48.82
1017.681	30.22
1017.841	59.48
1018.002	46.11
1018.162	23.64
1018.323	91.64
1018.483	9.88
1018.644	37.01
1018.804	25.38
1018.964	-18.99
1019.125	30.22
1019.285	10.66
1019.446	-6.39
1019.606	2.91
1019.766	-26.35
1019.926	66.46
1020.087	78.27
1020.247	5.04
1020.407	42.04
1020.567	91.64
1020.728	39.14
1020.888	-18.6
1021.048	36.42
1021.208	19.76
1021.368	20.15
1021.528	56.57
1021.688	93.39
1021.848	41.07
1022.008	53.67
1022.168	34.68
1022.328	43.01
1022.488	50.57
1022.648	23.06
1022.808	34.49
1022.968	50.57
1023.128	-8.33
1023.288	31.58
1023.448	17.44
1023.608	89.32
1023.767	50.76
1023.927	14.34
1024.087	3.68
1024.247	-12.79
1024.406	18.41
1024.566	-54.06
1024.726	13.17
1024.885	44.56
1025.045	56.19
1025.205	-0.77
1025.364	29.06
1025.524	34.29
1025.683	36.23
1025.843	60.84
1026.003	46.5
1026.162	108.11
1026.321	45.72
1026.481	36.81
1026.64	0
1026.8	28.87
1026.959	30.81
1027.119	16.27
1027.278	-8.33
1027.437	-4.65
1027.597	16.27
1027.756	29.84
1027.915	33.13
1028.074	41.07
1028.234	-2.32
1028.393	24.99
1028.552	22.28
1028.711	-53.47
1028.87	44.95
1029.03	-31.97
1029.189	21.51
1029.348	-47.27
1029.507	18.02
1029.666	16.47
1029.825	-1.16
1029.984	-17.82
1030.143	24.41
1030.302	-4.07
1030.461	-32.36
1030.62	18.21
1030.779	41.46
1030.938	-8.72
1031.097	-2.71
1031.255	32.74
1031.414	72.66
1031.573	70.91
1031.732	-38.36
1031.891	14.72
1032.049	51.34
1032.208	20.92
1032.367	-22.67
1032.525	3.87
1032.684	-9.49
1032.843	1.16
1033.001	-37.97
1033.16	189.1
1033.319	63.55
1033.477	11.82
1033.636	-19.96
1033.794	-37.01
1033.953	44.37
1034.111	53.47
1034.27	-14.53
1034.428	25.19
1034.587	-7.75
1034.745	30.42
1034.903	49.21
1035.062	29.45
1035.22	-40.88
1035.378	49.41
1035.537	-34.68
1035.695	39.52
1035.853	24.99
1036.011	50.96
1036.17	34.68
1036.328	-35.46
1036.486	8.52
1036.644	30.81
1036.802	-70.52
1036.96	10.27
1037.119	-2.52
1037.277	-4.07
1037.435	-11.62
1037.593	-18.79
1037.751	17.44
1037.909	63.36
1038.067	63.36
