Data from gum_old_FLMT105791__32__15-42-54-259.txt Node

Date: Mon Mar 20 15:42:54 GMT 2023
User: antho
Spectrometer: FLMT10579
Trigger mode: 0
Integration Time (sec): 1.000000E-1
Scans to average: 10
Electric dark correction enabled: true
Nonlinearity correction enabled: false
Boxcar width: 0
XAxis mode: Wavelengths
Number of Pixels in Spectrum: 3648
>>>>>Begin Spectral Data<<<<<
345.248	-180.93
345.464	-180.93
345.681	-180.93
345.898	-192.75
346.114	-157.29
346.331	-31.55
346.548	24.06
346.764	-26.7
346.981	-3.65
347.197	-15.27
347.414	25.99
347.631	-3.65
347.847	50.21
348.064	6.62
348.28	35.88
348.497	-44.92
348.713	-17.02
348.93	14.76
349.146	25.8
349.363	11.08
349.579	35.29
349.796	15.34
350.012	16.69
350.229	38.01
350.445	35.1
350.661	5.65
350.878	8.36
351.094	27.93
351.311	40.72
351.527	52.15
351.743	1.78
351.96	51.57
352.176	49.05
352.392	44.01
352.609	73.46
352.825	27.74
353.041	18.83
353.257	27.54
353.474	28.9
353.69	42.27
353.906	20.96
354.122	17.08
354.339	82.37
354.555	31.23
354.771	36.84
354.987	76.17
355.203	80.44
355.42	10.49
355.636	62.81
355.852	20.18
356.068	24.83
356.284	-10.24
356.5	86.06
356.716	60.68
356.932	27.74
357.148	48.66
357.364	42.27
357.58	66.49
357.796	83.15
358.012	96.91
358.228	63
358.444	-32.9
358.66	83.54
358.876	46.53
359.092	22.12
359.308	43.04
359.524	41.3
359.74	34.33
359.956	28.9
360.172	62.61
360.388	58.54
360.604	65.52
360.819	131.59
361.035	69.78
361.251	93.61
361.467	37.62
361.683	97.49
361.898	84.89
362.114	115.89
362.33	78.5
362.546	89.74
362.762	68.43
362.977	61.06
363.193	45.37
363.409	79.86
363.624	29.48
363.84	34.33
364.056	41.88
364.271	69.39
364.487	74.82
364.703	69.01
364.918	42.08
365.134	58.16
365.35	86.44
365.565	161.42
365.781	80.05
365.996	89.54
366.212	141.08
366.427	118.99
366.643	75.21
366.858	52.15
367.074	77.34
367.289	127.13
367.505	204.24
367.72	41.69
367.936	75.59
368.151	108.92
368.367	112.41
368.582	90.71
368.798	76.56
369.013	124.22
369.228	95.36
369.444	104.85
369.659	137.98
369.874	140.5
370.09	161.04
370.305	45.56
370.52	83.34
370.736	144.37
370.951	100.01
371.166	153.48
371.381	160.65
371.597	129.46
371.812	73.27
372.027	81.21
372.242	109.31
372.458	153.67
372.673	83.15
372.888	118.02
373.103	130.23
373.318	175.37
373.533	124.81
373.749	108.92
373.964	53.7
374.179	147.09
374.394	41.11
374.609	155.81
374.824	33.94
375.039	153.09
375.254	26.38
375.469	147.09
375.684	111.24
375.899	175.37
376.114	86.64
376.329	114.15
376.544	142.82
376.759	143.21
376.974	93.22
377.189	98.07
377.404	96.71
377.619	145.34
377.834	108.92
378.049	90.51
378.264	83.34
378.478	134.69
378.693	112.6
378.908	162.39
379.123	121.12
379.338	153.87
379.553	136.24
379.767	124.22
379.982	162.59
380.197	155.22
380.412	117.64
380.626	131.01
380.841	231.95
381.056	147.28
381.271	214.12
381.485	118.02
381.7	106.79
381.915	150.38
382.129	112.21
382.344	126.74
382.559	121.12
382.773	145.54
382.988	34.33
383.202	89.54
383.417	88.57
383.632	178.86
383.846	104.85
384.061	131.78
384.275	106.59
384.49	129.65
384.704	147.28
384.919	146.31
385.133	129.65
385.348	178.67
385.562	96.71
385.777	186.8
385.991	150.38
386.206	131.2
386.42	115.51
386.634	232.14
386.849	152.51
387.063	148.06
387.277	151.93
387.492	160.65
387.706	115.51
387.92	129.84
388.135	191.26
388.349	170.72
388.563	174.4
388.778	165.88
388.992	199.59
389.206	169.95
389.42	255.2
389.635	198.04
389.849	204.05
390.063	250.93
390.277	242.8
390.491	248.8
390.706	236.6
390.92	239.7
391.134	200.95
391.348	230.01
391.562	151.35
391.776	267.6
391.99	211.02
392.205	238.54
392.419	191.26
392.633	214.12
392.847	243.19
393.061	183.7
393.275	245.12
393.489	140.31
393.703	141.47
393.917	186.03
394.131	104.66
394.345	161.04
394.559	189.32
394.773	143.6
394.986	241.44
395.2	245.7
395.414	271.86
395.628	259.85
395.842	276.32
396.056	273.02
396.27	221.87
396.484	246.29
396.697	241.64
396.911	202.5
397.125	177.7
397.339	198.62
397.553	176.54
397.766	271.28
397.98	228.46
398.194	260.43
398.408	253.65
398.621	329.02
398.835	329.98
399.049	342.96
399.262	390.24
399.476	383.65
399.69	377.84
399.903	450.3
400.117	395.08
400.331	410.78
400.544	361.37
400.758	476.46
400.971	408.65
401.185	418.91
401.398	361.76
401.612	451.66
401.826	433.06
402.039	426.86
402.253	378.81
402.466	449.53
402.68	417.95
402.893	453.01
403.106	439.45
403.32	410.39
403.533	435.19
403.747	398.76
403.96	428.79
404.174	468.51
404.387	402.06
404.6	460.96
404.814	478.59
405.027	428.41
405.24	434.03
405.454	429.96
405.667	466.19
405.88	394.5
406.094	462.51
406.307	494.67
406.52	451.08
406.733	384.23
406.947	408.65
407.16	502.61
407.373	505.52
407.586	454.18
407.799	419.11
408.012	487.11
408.226	464.44
408.439	541.94
408.652	451.85
408.865	490.79
409.078	541.36
409.291	501.26
409.504	478.39
409.717	539.62
409.93	550.27
410.143	522.76
410.357	439.84
410.57	393.15
410.783	467.93
410.996	473.55
411.209	505.91
411.421	576.43
411.634	528.77
411.847	522.18
412.06	546.59
412.273	575.85
412.486	556.47
412.699	645.6
412.912	571.2
413.125	610.92
413.338	559.38
413.55	587.28
413.763	566.94
413.976	565
414.189	541.56
414.402	539.81
414.615	656.45
414.827	540.97
415.04	598.71
415.253	585.54
415.466	654.12
415.678	657.8
415.891	573.33
416.104	588.83
416.316	583.99
416.529	569.84
416.742	655.87
416.954	651.8
417.167	621.96
417.38	614.21
417.592	651.22
417.805	578.17
418.017	546.79
418.23	653.35
418.442	569.26
418.655	575.07
418.868	596.97
419.08	626.03
419.293	634.55
419.505	657.22
419.718	617.12
419.93	673.69
420.142	610.53
420.355	661.49
420.567	654.9
420.78	651.41
420.992	610.72
421.205	698.49
421.417	603.94
421.629	677.18
421.842	647.15
422.054	635.14
422.266	689
422.479	711.28
422.691	619.44
422.903	673.89
423.115	611.3
423.328	613.24
423.54	628.94
423.752	620.41
423.964	622.74
424.177	694.03
424.389	636.49
424.601	739.18
424.813	669.62
425.025	705.27
425.238	721.16
425.45	654.12
425.662	650.05
425.874	976.91
426.086	695.2
426.298	689.38
426.51	654.12
426.722	672.34
426.934	653.35
427.146	730.85
427.358	656.06
427.57	725.23
427.782	673.69
427.994	634.55
428.206	630.29
428.418	658
428.63	717.28
428.842	748.09
429.054	697.52
429.266	726.2
429.478	625.25
429.69	664.97
429.902	627.39
430.114	653.93
430.325	633.2
430.537	588.83
430.749	568.29
430.961	512.3
431.173	550.86
431.384	572.94
431.596	518.31
431.808	621.77
432.02	692.68
432.231	773.86
432.443	821.91
432.655	829.66
432.867	775.6
433.078	773.08
433.29	835.47
433.502	805.44
433.713	829.08
433.925	864.34
434.136	876.35
434.348	740.73
434.56	690.35
434.771	847.29
434.983	701.98
435.194	769.21
435.406	819
435.617	837.99
435.829	912.39
436.04	868.21
436.252	867.24
436.463	893.79
436.675	919.75
436.886	938.16
437.098	941.64
437.309	981.17
437.521	882.36
437.732	925.18
437.943	864.34
438.155	844.19
438.366	808.35
438.578	912.19
438.789	820.16
439	864.34
439.211	836.44
439.423	832.95
439.634	872.86
439.845	907.54
440.057	876.35
440.268	927.89
440.479	904.83
440.69	943.39
440.902	881.97
441.113	893.79
441.324	884.1
441.535	976.32
441.746	992.02
441.957	952.88
442.168	992.99
442.38	1010.23
442.591	1028.06
442.802	1003.26
443.013	1001.32
443.224	1056.34
443.435	989.5
443.646	1006.36
443.857	996.28
444.068	985.62
444.279	991.44
444.49	1134.23
444.701	1050.72
444.912	1156.51
445.123	1125.51
445.334	1088.31
445.545	1071.45
445.756	1067.97
445.967	1007.32
446.178	1047.43
446.388	1048.2
446.599	1043.55
446.81	1015.85
447.021	1017.4
447.232	1080.95
447.443	1130.74
447.653	1098
447.864	1132.87
448.075	1133.84
448.286	1097.61
448.496	1107.3
448.707	1153.02
448.918	1064.87
449.129	1173.17
449.339	1102.65
449.55	1147.21
449.761	1115.24
449.971	1154.96
450.182	1129.58
450.393	1178.02
450.603	1156.9
450.814	1225.87
451.024	1190.22
451.235	1250.09
451.446	1287.29
451.656	1277.21
451.867	1208.63
452.077	1192.35
452.288	1247.18
452.498	1231.68
452.709	1193.32
452.919	1163.87
453.13	1114.27
453.34	1169.1
453.55	1061.77
453.761	1146.82
453.971	1133.26
454.182	1171.43
454.392	1193.52
454.602	1239.82
454.813	1193.9
455.023	1197.58
455.233	1172.78
455.444	1194.68
455.654	1078.04
455.864	1182.67
456.075	1166.39
456.285	1152.83
456.495	1197.97
456.705	1193.32
456.916	1293.88
457.126	1270.63
457.336	1247.76
457.546	1168.91
457.756	1183.63
457.967	1269.46
458.177	1220.25
458.387	1239.82
458.597	1136.55
458.807	1194.87
459.017	1184.22
459.227	1197.58
459.437	1176.27
459.647	1232.26
459.857	1226.26
460.068	1229.36
460.278	1270.63
460.488	1246.99
460.698	1304.14
460.908	1231.68
461.117	1229.55
461.327	1259.39
461.537	1275.47
461.747	1295.43
461.957	1309.76
462.167	1403.15
462.377	1350.84
462.587	1282.45
462.797	1365.56
463.007	1310.73
463.216	1385.91
463.426	1418.65
463.636	1375.25
463.846	1236.91
464.056	1313.06
464.265	1336.69
464.475	1263.07
464.685	1331.27
464.895	1337.08
465.104	1298.53
465.314	1369.24
465.524	1322.55
465.733	1290.2
465.943	1401.21
466.153	1448.29
466.362	1418.46
466.572	1371.57
466.782	1329.91
466.991	1363.82
467.201	1408.57
467.41	1271.6
467.62	1342.31
467.829	1407.22
468.039	1409.16
468.249	1364.79
468.458	1423.3
468.668	1400.05
468.877	1415.16
469.086	1428.72
469.296	1468.06
469.505	1464.96
469.715	1531.02
469.924	1453.72
470.134	1483.36
470.343	1478.32
470.552	1403.54
470.762	1428.72
470.971	1421.94
471.18	1445.77
471.39	1465.92
471.599	1415.74
471.808	1513.97
472.018	1522.5
472.227	1537.61
472.436	1597.28
472.645	1559.12
472.855	1555.63
473.064	1684.86
473.273	1655.8
473.482	1613.37
473.691	1645.14
473.901	1653.08
474.11	1593.02
474.319	1700.16
474.528	1618.02
474.737	1744.14
474.946	1701.71
475.155	1694.16
475.364	1760.23
475.573	1706.56
475.783	1778.05
475.992	1729.23
476.201	1766.81
476.41	1788.9
476.619	1695.51
476.828	1733.68
477.037	1711.01
477.245	1734.46
477.454	1803.04
477.663	1793.16
477.872	1803.82
478.081	1912.9
478.29	1822.03
478.499	1948.55
478.708	1955.72
478.917	1969.09
479.125	1872.02
479.334	1898.56
479.543	1920.26
479.752	1950.68
479.961	1964.63
480.169	2012.29
480.378	1984
480.587	2157.41
480.796	2032.44
481.004	2052.01
481.213	2052.78
481.422	2050.65
481.63	2071
481.839	2137.45
482.048	2187.63
482.256	2146.56
482.465	2170.19
482.674	2183.56
482.882	2206.81
483.091	2254.86
483.299	2153.73
483.508	2238.59
483.716	2245.95
483.925	2224.64
484.134	2169.03
484.342	2210.11
484.551	2242.85
484.759	2268.42
484.967	2288.77
485.176	2314.92
485.384	2335.27
485.593	2303.69
485.801	2284.12
486.01	2234.91
486.218	2084.95
486.426	1959.2
486.635	1931.3
486.843	1938.09
487.051	2004.93
487.26	2027.79
487.468	2059.95
487.676	2221.15
487.885	2189.18
488.093	2267.46
488.301	2329.46
488.509	2346.12
488.717	2418.39
488.926	2387.39
489.134	2358.9
489.342	2325
489.55	2336.82
489.758	2410.44
489.967	2417.22
490.175	2542
490.383	2531.53
490.591	2629.38
490.799	2511.77
491.007	2585.01
491.215	2579.2
491.423	2550.71
491.631	2577.84
491.839	2505.77
492.047	2550.13
492.255	2465.85
492.463	2429.62
492.671	2389.71
492.879	2522.23
493.087	2473.99
493.295	2519.52
493.503	2585.78
493.711	2677.43
493.919	2604.19
494.127	2635.77
494.334	2627.83
494.542	2536.38
494.75	2614.84
494.958	2593.92
495.166	2706.68
495.374	2768.87
495.581	2765.39
495.789	2735.36
495.997	2744.66
496.205	2668.32
496.412	2672.19
496.62	2748.92
496.828	2712.3
497.035	2761.32
497.243	2769.65
497.451	2795.8
497.658	2779.14
497.866	2756.09
498.074	2830.49
498.281	2715.4
498.489	2807.43
498.696	2702.61
498.904	2653.4
499.112	2675.49
499.319	2806.07
499.527	2740.01
499.734	2757.06
499.942	2720.63
500.149	2766.36
500.357	2778.17
500.564	2688.08
500.771	2729.93
500.979	2649.14
501.186	2650.3
501.394	2700.87
501.601	2657.28
501.808	2660.18
502.016	2643.91
502.223	2665.41
502.43	2720.05
502.638	2690.79
502.845	2678.78
503.052	2806.65
503.26	2721.99
503.467	2864.97
503.674	2787.28
503.881	2784.76
504.089	2829.13
504.296	2816.34
504.503	2744.66
504.71	2706.1
504.917	2695.06
505.125	2806.85
505.332	2743.69
505.539	2785.54
505.746	2911.67
505.953	2930.07
506.16	2862.65
506.367	2938.02
506.574	2958.75
506.781	2935.5
506.988	2887.25
507.195	2935.88
507.402	2862.45
507.609	2903.92
507.816	2871.37
508.023	2799.68
508.23	2807.24
508.437	2776.24
508.644	2797.74
508.851	2847.92
509.058	2870.59
509.265	2875.24
509.472	2935.88
509.679	3000.4
509.885	2947.12
510.092	2945.77
510.299	2898.49
510.506	2854.9
510.713	2879.31
510.92	2925.03
511.126	2908.76
511.333	2974.63
511.54	2963.78
511.746	2995.95
511.953	2989.55
512.16	3025.78
512.367	3021.71
512.573	2930.46
512.78	3000.79
512.987	2946.54
513.193	2917.28
513.4	2863.04
513.606	2896.17
513.813	2941.7
514.02	2910.7
514.226	2940.92
514.433	2961.26
514.639	2849.28
514.846	2900.62
515.052	2867.3
515.259	2921.35
515.465	2950.42
515.672	2922.71
515.878	3008.73
516.085	3001.37
516.291	3042.83
516.497	3006.6
516.704	2880.08
516.91	2864.39
517.117	2713.27
517.323	2591.98
517.529	2600.7
517.736	2573.96
517.942	2612.52
518.148	2664.25
518.354	2780.5
518.561	2778.56
518.767	2743.88
518.973	2775.66
519.179	2778.37
519.386	2778.17
519.592	2806.65
519.798	2858
520.004	3005.05
520.21	2956.03
520.417	3041.86
520.623	3047.68
520.829	3088.17
521.035	3070.54
521.241	3037.8
521.447	3110.45
521.653	3242.78
521.859	3036.83
522.065	3174.39
522.271	3220.89
522.477	3239.29
522.683	3258.67
522.889	3178.84
523.095	3155.01
523.301	3117.81
523.507	3118.59
523.713	3154.62
523.919	3042.25
524.125	3193.57
524.331	3194.92
524.537	3276.3
524.742	3340.62
524.948	3335.2
525.154	3381.12
525.36	3409.79
525.566	3283.08
525.772	3406.11
525.977	3286.76
526.183	3308.46
526.389	3355.35
526.595	3243.55
526.8	3186.4
527.006	3077.13
527.212	3032.18
527.417	3014.35
527.623	2970.56
527.829	3148.81
528.034	3168.57
528.24	3204.42
528.446	3214.49
528.651	3373.95
528.857	3364.07
529.062	3411.73
529.268	3396.81
529.473	3496.2
529.679	3459.2
529.884	3533.21
530.09	3488.26
530.295	3455.71
530.501	3463.85
530.706	3500.66
530.912	3427.61
531.117	3476.25
531.323	3467.14
531.528	3593.46
531.733	3580.48
531.939	3565.95
532.144	3558.2
532.35	3533.79
532.555	3580.67
532.76	3508.41
532.966	3475.08
533.171	3382.28
533.376	3383.44
533.581	3346.24
533.787	3415.99
533.992	3479.54
534.197	3461.91
534.402	3488.06
534.607	3469.66
534.813	3576.41
535.018	3515.19
535.223	3551.61
535.428	3533.21
535.633	3594.62
535.838	3632.41
536.043	3684.14
536.249	3707
536.454	3628.72
536.659	3666.7
536.864	3594.82
537.069	3579.51
537.274	3613.03
537.479	3622.72
537.684	3550.84
537.889	3512.28
538.094	3639.77
538.299	3611.67
538.504	3590.36
538.708	3613.42
538.913	3715.52
539.118	3604.89
539.323	3657.98
539.528	3569.05
539.733	3604.51
539.938	3629.31
540.142	3566.73
540.347	3587.84
540.552	3539.79
540.757	3517.9
540.962	3543.28
541.166	3459.78
541.371	3437.88
541.576	3536.89
541.781	3447.96
541.985	3590.75
542.19	3545.8
542.395	3706.61
542.599	3708.55
542.804	3615.94
543.008	3715.72
543.213	3636.47
543.418	3574.86
543.622	3630.47
543.827	3564.4
544.031	3665.54
544.236	3700.41
544.44	3678.71
544.645	3768.61
544.849	3645
545.054	3769
545.258	3815.5
545.463	3775.97
545.667	3613.42
545.872	3737.8
546.076	3768.03
546.281	3688.2
546.485	3629.31
546.689	3750.78
546.894	3718.04
547.098	3655.07
547.302	3633.76
547.507	3702.54
547.711	3705.84
547.915	3688.4
548.119	3612.06
548.324	3609.74
548.528	3701.57
548.732	3607.99
548.936	3683.36
549.141	3693.44
549.345	3661.27
549.549	3677.55
549.753	3689.95
549.957	3754.66
550.161	3744
550.366	3686.27
550.57	3661.47
550.774	3709.71
550.978	3652.36
551.182	3663.4
551.386	3607.8
551.59	3673.48
551.794	3644.22
551.998	3689.56
552.202	3684.14
552.406	3639.19
552.61	3712.62
552.814	3700.41
553.018	3762.8
553.222	3683.55
553.426	3663.6
553.63	3769
553.833	3679.29
554.037	3623.3
554.241	3677.16
554.445	3654.3
554.649	3692.85
554.853	3618.07
555.056	3685.1
555.26	3730.44
555.464	3682.78
555.668	3725.21
555.871	3765.12
556.075	3720.37
556.279	3656.04
556.483	3642.29
556.686	3637.06
556.89	3624.46
557.094	3614.19
557.297	3500.08
557.501	3644.61
557.704	3490.78
557.908	3611.29
558.112	3533.4
558.315	3650.04
558.519	3552.78
558.722	3525.26
558.926	3556.07
559.129	3432.07
559.333	3453.38
559.536	3453
559.74	3433.43
559.943	3387.32
560.147	3404.95
560.35	3440.6
560.553	3456.68
560.757	3418.12
560.96	3541.54
561.164	3471.79
561.367	3587.07
561.57	3518.87
561.774	3508.02
561.977	3435.75
562.18	3413.47
562.384	3536.89
562.587	3463.26
562.79	3440.79
562.993	3443.11
563.197	3456.29
563.4	3517.32
563.603	3552.19
563.806	3559.94
564.009	3504.34
564.212	3523.91
564.416	3377.05
564.619	3455.51
564.822	3363.1
565.025	3417.54
565.228	3450.86
565.431	3447.57
565.634	3312.14
565.837	3386.15
566.04	3301.1
566.243	3308.46
566.446	3244.14
566.649	3318.73
566.852	3236.77
567.055	3276.1
567.258	3288.31
567.461	3401.26
567.664	3428.78
567.867	3304.97
568.07	3349.92
568.273	3328.61
568.475	3390.61
568.678	3266.8
568.881	3290.05
569.084	3245.49
569.287	3097.86
569.489	3176.32
569.692	3273
569.895	3261.38
570.098	3157.92
570.3	3149.78
570.503	3124.21
570.706	3086.43
570.909	3108.9
571.111	3027.14
571.314	3076.16
571.516	3069.38
571.719	3070.54
571.922	3069.76
572.124	3080.42
572.327	3108.32
572.529	3062.79
572.732	3069.38
572.935	3132.73
573.137	3211.59
573.34	3127.11
573.542	3197.64
573.745	3187.76
573.947	3174
574.15	3141.26
574.352	3150.56
574.554	3199.57
574.757	3081.19
574.959	3056.78
575.162	3098.44
575.364	2955.07
575.566	3114.33
575.769	2997.3
575.971	3053.29
576.173	2903.72
576.376	3005.83
576.578	3006.99
576.78	3065.89
576.982	2944.8
577.185	3063.18
577.387	2979.67
577.589	2982
577.791	3003.31
577.993	3000.4
578.196	3009.7
578.398	2968.82
578.6	3036.44
578.802	2932.78
579.004	2886.28
579.206	2866.14
579.408	2952.16
579.61	2906.43
579.812	3005.44
580.014	2906.24
580.216	2913.8
580.418	2936.85
580.62	2929.88
580.822	2931.62
581.024	2965.91
581.226	2994.98
581.428	2920.58
581.63	3027.33
581.832	2931.04
582.034	2959.13
582.236	2943.44
582.438	2982.19
582.64	3007.38
582.841	3021.52
583.043	3083.52
583.245	2962.04
583.447	2993.62
583.649	2957.39
583.85	3016.1
584.052	3033.15
584.254	2991.88
584.456	2997.3
584.657	2926.97
584.859	3014.93
585.061	2896.75
585.262	2955.26
585.464	2939.37
585.666	2995.17
585.867	2926.39
586.069	2991.88
586.27	2933.56
586.472	2915.93
586.674	2837.65
586.875	2849.86
587.077	2876.02
587.278	2933.37
587.48	2853.93
587.681	3018.03
587.883	2918.06
588.084	2836.49
588.285	2897.33
588.487	2841.34
588.688	2829.71
588.89	2746.59
589.091	2749.11
589.292	2671.03
589.494	2607.87
589.695	2567.76
589.896	2496.08
590.098	2520.1
590.299	2560.21
590.5	2588.11
590.702	2566.21
590.903	2644.1
591.104	2750.66
591.305	2769.26
591.507	2775.46
591.708	2726.25
591.909	2695.06
592.11	2788.44
592.311	2775.27
592.512	2720.82
592.714	2649.72
592.915	2693.31
593.116	2684.59
593.317	2738.26
593.518	2711.91
593.719	2751.63
593.92	2744.07
594.121	2756.86
594.322	2725.67
594.523	2786.12
594.724	2695.44
594.925	2705.91
595.126	2719.27
595.327	2720.63
595.528	2683.43
595.729	2702.61
595.929	2697.57
596.13	2765
596.331	2762.09
596.532	2727.61
596.733	2808.2
596.934	2783.02
597.135	2770.42
597.335	2756.28
597.536	2712.88
597.737	2741.94
597.938	2716.17
598.138	2699.12
598.339	2726.64
598.54	2734.39
598.74	2670.84
598.941	2644.29
599.142	2775.66
599.342	2689.83
599.543	2640.42
599.744	2649.91
599.944	2665.41
600.145	2653.4
600.345	2671.81
600.546	2730.71
600.746	2700.09
600.947	2756.28
601.147	2667.16
601.348	2729.74
601.548	2666.38
601.749	2653.79
601.949	2576.29
602.15	2646.62
602.35	2611.36
602.551	2625.69
602.751	2560.6
602.951	2595.28
603.152	2553.04
603.352	2691.18
603.552	2635.38
603.753	2669.68
603.953	2682.08
604.153	2662.89
604.354	2690.6
604.554	2631.89
604.754	2657.86
604.954	2605.55
605.155	2663.28
605.355	2638.68
605.555	2629.38
605.755	2683.82
605.955	2638.29
606.155	2690.79
606.356	2662.31
606.556	2635.58
606.756	2647.39
606.956	2610.97
607.156	2657.28
607.356	2612.52
607.556	2637.71
607.756	2638.68
607.956	2640.03
608.156	2617.75
608.356	2552.85
608.556	2598.76
608.756	2595.66
608.956	2547.03
609.156	2559.63
609.356	2536.57
609.556	2491.82
609.755	2557.88
609.955	2508.67
610.155	2494.14
610.355	2541.41
610.555	2487.36
610.755	2483.1
610.954	2437.57
611.154	2516.23
611.354	2533.86
611.554	2494.14
611.753	2477.48
611.953	2442.22
612.153	2503.44
612.352	2491.82
612.552	2428.07
612.752	2429.62
612.951	2439.31
613.151	2474.38
613.351	2433.3
613.55	2464.3
613.75	2452.1
613.949	2426.91
614.149	2417.22
614.348	2409.28
614.548	2389.13
614.747	2337.01
614.947	2420.13
615.146	2380.41
615.346	2489.1
615.545	2453.65
615.745	2455
615.944	2456.55
616.144	2456.55
616.343	2398.62
616.542	2373.63
616.742	2408.89
616.941	2360.26
617.14	2276.56
617.34	2352.51
617.539	2319.96
617.738	2315.7
617.938	2424.2
618.137	2338.95
618.336	2335.46
618.535	2374.6
618.734	2365.3
618.934	2393.59
619.133	2396.49
619.332	2392.23
619.531	2364.91
619.73	2411.8
619.929	2414.12
620.128	2405.6
620.328	2441.83
620.527	2376.15
620.726	2438.92
620.925	2427.88
621.124	2393.39
621.323	2378.28
621.522	2299.04
621.721	2343.21
621.92	2338.37
622.119	2372.08
622.318	2319.38
622.517	2326.36
622.715	2343.79
622.914	2241.88
623.113	2363.17
623.312	2251.96
623.511	2341.27
623.71	2304.85
623.909	2279.86
624.107	2349.02
624.306	2250.99
624.505	2262.81
624.704	2303.3
624.902	2270.94
625.101	2342.24
625.3	2285.67
625.499	2196.35
625.697	2219.6
625.896	2210.69
626.095	2219.6
626.293	2157.02
626.492	2199.45
626.69	2249.44
626.889	2212.43
627.088	2262.81
627.286	2237.23
627.485	2217.47
627.683	2201.19
627.882	2225.8
628.08	2134.35
628.279	2146.56
628.477	2250.41
628.676	2141.52
628.874	2185.31
629.073	2103.93
629.271	2179.69
629.469	2195.38
629.668	2115.36
629.866	2118.85
630.065	2112.65
630.263	2156.44
630.461	2108.2
630.66	2147.53
630.858	2142.68
631.056	2175.62
631.254	2182.98
631.453	2121.56
631.651	2173.49
631.849	2122.15
632.047	2127.96
632.245	2062.28
632.444	2113.81
632.642	2105.87
632.84	2173.1
633.038	2072.74
633.236	2077.58
633.434	2092.7
633.632	2120.01
633.83	2066.73
634.028	2122.34
634.227	2091.92
634.425	2226.58
634.623	2101.22
634.821	2123.11
635.019	2162.06
635.216	2113.04
635.414	2170.19
635.612	2090.95
635.81	2071.58
636.008	2160.7
636.206	2096.96
636.404	2120.01
636.602	2109.75
636.8	2081.65
636.997	2108.58
637.195	2096.96
637.393	2106.26
637.591	2173.68
637.789	2166.51
637.986	2095.02
638.184	2085.72
638.382	2206.43
638.58	2154.5
638.777	2176.98
638.975	2112.65
639.173	2080.1
639.37	2149.08
639.568	2103.74
639.765	2147.91
639.963	2103.35
640.161	2109.75
640.358	2102.58
640.556	2035.93
640.753	2009.38
640.951	2019.27
641.148	2039.03
641.346	2058.02
641.543	2038.06
641.741	2054.53
641.938	1984.59
642.136	2029.73
642.333	1976.06
642.531	2083.01
642.728	2071.38
642.925	2027.4
643.123	1977.03
643.32	2024.88
643.517	2009.38
643.715	1993.11
643.912	1995.82
644.109	2026.05
644.306	2042.32
644.504	1970.05
644.701	2007.83
644.898	2052.78
645.095	1988.46
645.293	2006.28
645.49	2002.8
645.687	1984.78
645.884	2035.15
646.081	1946.61
646.278	1951.84
646.475	1918.13
646.672	1911.54
646.87	1970.25
647.067	1954.94
647.264	1942.15
647.461	1923.17
647.658	1859.81
647.855	1922.78
648.052	1890.62
648.249	1770.3
648.446	1861.75
648.642	1904.37
648.839	1825.52
649.036	1867.17
649.233	1814.48
649.43	1856.13
649.627	1785.41
649.824	1845.09
650.021	1790.64
650.217	1818.54
650.414	1829.97
650.611	1848.19
650.808	1881.12
651.004	1853.42
651.201	1894.49
651.398	1934.21
651.595	1893.52
651.791	1840.24
651.988	1928.2
652.185	1793.94
652.381	1861.36
652.578	1775.73
652.775	1856.91
652.971	1849.93
653.168	1837.92
653.364	1894.69
653.561	1767.59
653.757	1849.35
653.954	1892.75
654.15	1814.86
654.347	1879.19
654.543	1835.59
654.74	1776.89
654.936	1806.14
655.133	1814.28
655.329	1840.63
655.525	1768.17
655.722	1813.31
655.918	1729.42
656.115	1695.13
656.311	1628.28
656.507	1565.32
656.704	1546.14
656.9	1565.12
657.096	1562.8
657.292	1574.03
657.489	1651.15
657.685	1679.05
657.881	1646.88
658.077	1665.87
658.273	1703.65
658.47	1775.34
658.666	1735.04
658.862	1777.86
659.058	1726.51
659.254	1842.18
659.45	1766.43
659.646	1744.92
659.842	1745.11
660.038	1825.91
660.234	1731.94
660.43	1775.14
660.626	1854.97
660.822	1841.02
661.018	1821.64
661.214	1812.54
661.41	1752.67
661.606	1823.77
661.802	1855.55
661.998	1777.66
662.194	1788.51
662.39	1833.85
662.586	1815.44
662.781	1865.82
662.977	1856.52
663.173	1850.71
663.369	1778.05
663.564	1818.93
663.76	1823.58
663.956	1806.92
664.152	1832.49
664.347	1725.16
664.543	1823.97
664.739	1798.39
664.934	1734.26
665.13	1729.03
665.326	1815.64
665.521	1793.36
665.717	1784.25
665.912	1756.93
666.108	1705.2
666.304	1756.93
666.499	1764.1
666.695	1662.96
666.89	1772.04
667.086	1787.54
667.281	1806.53
667.477	1831.52
667.672	1783.28
667.867	1759.84
668.063	1765.26
668.258	1725.55
668.454	1758.68
668.649	1817.58
668.844	1769.91
669.04	1797.04
669.235	1741.04
669.43	1737.36
669.626	1703.07
669.821	1732.52
670.016	1683.31
670.211	1742.21
670.407	1704.62
670.602	1741.82
670.797	1737.56
670.992	1759.06
671.187	1694.74
671.382	1773.21
671.578	1660.45
671.773	1720.51
671.968	1647.08
672.163	1728.26
672.358	1695.51
672.553	1666.06
672.748	1714.5
672.943	1780.38
673.138	1700.75
673.333	1733.1
673.528	1672.85
673.723	1751.31
673.918	1681.76
674.113	1660.64
674.308	1758.09
674.503	1696.68
674.698	1730.78
674.892	1673.04
675.087	1719.54
675.282	1689.12
675.477	1668.2
675.672	1732.33
675.867	1648.05
676.061	1637.2
676.256	1619.37
676.451	1639.72
676.646	1643.78
676.84	1622.28
677.035	1613.56
677.23	1645.91
677.424	1682.92
677.619	1691.64
677.814	1722.83
678.008	1685.63
678.203	1622.08
678.397	1612.78
678.592	1630.61
678.787	1689.9
678.981	1639.72
679.176	1677.5
679.37	1628.48
679.565	1618.6
679.759	1640.68
679.954	1627.32
680.148	1685.83
680.342	1677.3
680.537	1656.18
680.731	1603.48
680.926	1681.56
681.12	1624.41
681.314	1658.51
681.509	1626.73
681.703	1608.13
681.897	1629.83
682.092	1622.47
682.286	1606.78
682.48	1680.6
682.674	1666.45
682.869	1589.34
683.063	1637.78
683.257	1671.68
683.451	1604.07
683.645	1617.82
683.839	1568.22
684.034	1635.45
684.228	1609.88
684.422	1547.3
684.616	1581.01
684.81	1629.83
685.004	1601.16
685.198	1593.6
685.392	1600.19
685.586	1592.44
685.78	1599.22
685.974	1614.92
686.168	1585.85
686.362	1661.41
686.556	1517.07
686.75	1451.01
686.944	1515.52
687.138	1404.12
687.331	1313.25
687.525	1318.29
687.719	1215.02
687.913	1294.26
688.107	1313.44
688.301	1297.56
688.494	1331.85
688.688	1286.71
688.882	1239.24
689.076	1284.19
689.269	1323.13
689.463	1394.24
689.657	1321
689.85	1285.35
690.044	1342.31
690.238	1370.41
690.431	1306.47
690.625	1352.78
690.818	1410.12
691.012	1377.77
691.205	1443.45
691.399	1395.4
691.593	1409.74
691.786	1454.49
691.98	1449.07
692.173	1505.25
692.366	1472.9
692.56	1497.12
692.753	1509.52
692.947	1442.87
693.14	1529.47
693.333	1520.75
693.527	1431.24
693.72	1494.02
693.914	1455.27
694.107	1435.7
694.3	1475.42
694.493	1432.21
694.687	1488.79
694.88	1426.59
695.073	1524.44
695.266	1476.97
695.46	1484.33
695.653	1493.24
695.846	1477.94
696.039	1446.55
696.232	1450.81
696.425	1508.55
696.618	1509.32
696.812	1535.87
697.005	1587.02
697.198	1644.56
697.391	1579.07
697.584	1594.38
697.777	1648.63
697.97	1598.06
698.163	1645.14
698.356	1614.72
698.549	1732.71
698.742	1693.77
698.935	1673.43
699.127	1654.44
699.32	1626.15
699.513	1606.2
699.706	1636.62
699.899	1677.11
700.092	1642.23
700.285	1630.61
700.477	1586.05
700.67	1726.9
700.863	1686.6
701.056	1783.28
701.248	1749.18
701.441	1753.25
701.634	1732.13
701.826	1805.56
702.019	1710.82
702.212	1764.1
702.404	1736.59
702.597	1726.32
702.79	1752.67
702.982	1795.29
703.175	1844.89
703.367	1885
703.56	1861.94
703.752	1913.09
703.945	1891.59
704.137	1928.59
704.33	1895.07
704.522	1927.04
704.715	1928.01
704.907	1949.52
705.1	2000.28
705.292	2017.52
705.484	1985.55
705.677	2034.57
705.869	2028.37
706.061	2074.29
706.254	2106.06
706.446	2085.53
706.638	2078.36
706.831	2167.1
707.023	2126.99
707.215	2233.55
707.407	2207.78
707.599	2212.63
707.792	2247.31
707.984	2247.31
708.176	2256.22
708.368	2236.46
708.56	2278.89
708.752	2289.35
708.944	2284.31
709.136	2345.92
709.329	2293.42
709.521	2452.29
709.713	2402.3
709.905	2412.57
710.097	2461.59
710.289	2427.1
710.481	2451.71
710.672	2448.22
710.864	2502.08
711.056	2527.66
711.248	2544.13
711.44	2514.87
711.632	2553.81
711.824	2560.4
712.016	2649.72
712.207	2653.4
712.399	2590.05
712.591	2712.3
712.783	2683.43
712.975	2701.64
713.166	2683.82
713.358	2695.64
713.55	2740.01
713.741	2726.83
713.933	2763.26
714.125	2757.44
714.316	2728.96
714.508	2831.26
714.7	2832.81
714.891	2845.79
715.083	2848.89
715.274	2798.32
715.466	2847.73
715.657	2878.92
715.849	2803.17
716.04	2876.21
716.232	2836.69
716.423	2881.25
716.615	2850.44
716.806	2812.47
716.998	2712.88
717.189	2664.64
717.381	2593.15
717.572	2583.07
717.763	2613.1
717.955	2542.58
718.146	2536.96
718.337	2479.42
718.528	2484.26
718.72	2362.59
718.911	2420.71
719.102	2395.14
719.293	2426.14
719.485	2460.43
719.676	2390.68
719.867	2374.21
720.058	2425.75
720.249	2423.04
720.44	2437.18
720.632	2485.03
720.823	2559.05
721.014	2674.52
721.205	2724.12
721.396	2809.37
721.587	2934.33
721.778	2976.57
721.969	2969.6
722.16	3090.3
722.351	3070.73
722.542	3195.12
722.733	3185.62
722.924	3133.89
723.115	3248.01
723.305	3169.54
723.496	3227.28
723.687	3070.15
723.878	3071.31
724.069	3147.46
724.26	3119.75
724.45	3041.09
724.641	3032.56
724.832	3080.81
725.023	3042.83
725.213	3074.03
725.404	3073.06
725.595	3051.36
725.785	3050.78
725.976	3144.55
726.167	3094.56
726.357	3123.63
726.548	3267.58
726.739	3136.99
726.929	3289.67
727.12	3302.45
727.31	3353.02
727.501	3261.57
727.691	3245.49
727.882	3311.37
728.072	3324.73
728.263	3356.7
728.453	3396.61
728.644	3414.05
728.834	3367.75
729.024	3360.38
729.215	3354.18
729.405	3371.82
729.596	3492.33
729.786	3489.23
729.976	3557.81
730.167	3506.08
730.357	3504.14
730.547	3545.41
730.737	3557.23
730.928	3588.23
731.118	3636.67
731.308	3574.09
731.498	3613.42
731.688	3753.69
731.879	3717.07
732.069	3778.1
732.259	3814.33
732.449	3850.37
732.639	3971.27
732.829	3990.06
733.019	4015.64
733.209	4081.51
733.399	4091.59
733.589	4181.1
733.779	4208.22
733.969	4206.67
734.159	4309.16
734.349	4327.57
734.539	4357.41
734.729	4390.93
734.919	4405.65
735.109	4523.06
735.299	4354.31
735.488	4450.02
735.678	4412.24
735.868	4457.19
736.058	4434.33
736.248	4413.4
736.437	4393.06
736.627	4415.34
736.817	4506.98
737.007	4466.68
737.196	4527.91
737.386	4505.43
737.576	4469.97
737.765	4589.71
737.955	4535.46
738.144	4673.8
738.334	4626.33
738.524	4571.89
738.713	4602.5
738.903	4552.9
739.092	4654.62
739.282	4598.04
739.471	4642.22
739.661	4671.67
739.85	4681.55
740.04	4658.49
740.229	4797.21
740.419	4746.26
740.608	4770.86
740.797	4754.4
740.987	4807.29
741.176	4767.57
741.365	4761.18
741.555	4695.88
741.744	4851.08
741.933	4752.65
742.123	4768.54
742.312	4840.42
742.501	4824.34
742.69	4887.31
742.88	4825.69
743.069	4887.5
743.258	4863.48
743.447	4927.8
743.636	4926.25
743.825	4873.74
744.014	4930.9
744.204	4976.04
744.393	4877.23
744.582	5008.98
744.771	5003.55
744.96	4967.32
745.149	4986.7
745.338	4965
745.527	5051.02
745.716	4999.49
745.905	4932.84
746.094	5023.7
746.283	5069.62
746.471	4976.24
746.66	5101.98
746.849	5066.52
747.038	5132.98
747.227	4988.83
747.416	5045.99
747.604	4993.67
747.793	5034.94
747.982	5026.22
748.171	5063.62
748.359	5055.28
748.548	5055.87
748.737	5014.6
748.926	5061.29
749.114	4942.14
749.303	5049.09
749.491	5063.81
749.68	4922.96
749.869	5046.18
750.057	5011.69
750.246	4964.22
750.434	4973.33
750.623	4989.22
750.811	4932.26
751	4995.42
751.188	4980.89
751.377	4954.34
751.565	4922.57
751.754	4930.51
751.942	4941.17
752.131	5029.13
752.319	4914.62
752.507	4864.64
752.696	4985.92
752.884	4976.62
753.072	4870.45
753.261	4974.69
753.449	4971
753.637	4926.64
753.825	4951.44
754.014	4935.55
754.202	4965.39
754.39	4989.8
754.578	4998.9
754.766	4958.22
754.955	4895.25
755.143	5002.39
755.331	4934
755.519	4915.98
755.707	4925.67
755.895	4863.28
756.083	4915.98
756.271	4800.51
756.459	4868.32
756.647	4898.74
756.835	4847.2
757.023	4811.74
757.211	4822.98
757.399	4804.77
757.587	4808.84
757.775	4732.7
757.963	4776.1
758.151	4812.33
758.339	4755.95
758.526	4754.4
758.714	4781.33
758.902	4664.3
759.09	4581.96
759.278	4363.8
759.465	4087.32
759.653	3662.63
759.841	3359.03
760.028	2970.56
760.216	2603.8
760.404	2455
760.591	2098.9
760.779	1833.27
760.967	1647.27
761.154	1494.02
761.342	1507.39
761.529	1547.69
761.717	1618.21
761.905	1644.75
762.092	1774.18
762.28	1768.36
762.467	1772.24
762.655	1744.73
762.842	1752.09
763.029	1799.56
763.217	1797.81
763.404	1820.48
763.592	1841.21
763.779	1829.01
763.966	1905.92
764.154	1943.12
764.341	2015.39
764.528	2029.53
764.716	2119.63
764.903	2175.04
765.09	2231.23
765.277	2299.23
765.465	2512.35
765.652	2570.86
765.839	2649.33
766.026	2783.02
766.213	2857.8
766.4	2943.05
766.588	3169.93
766.775	3232.32
766.962	3294.32
767.149	3429.36
767.336	3600.82
767.523	3534.37
767.71	3654.11
767.897	3782.37
768.084	3877.69
768.271	3948.79
768.458	3924.38
768.645	4087.91
768.832	3989.68
769.019	4022.03
769.206	4086.55
769.392	4183.03
769.579	4210.16
769.766	4194.66
769.953	4178
770.14	4232.63
770.327	4193.11
770.513	4279.33
770.7	4298.9
770.887	4215.2
771.073	4278.36
771.26	4309.36
771.447	4285.14
771.634	4199.31
771.82	4347.53
772.007	4204.35
772.193	4258.79
772.38	4269.45
772.567	4234.96
772.753	4268.67
772.94	4296.57
773.126	4318.08
773.313	4284.95
773.499	4240.58
773.686	4272.93
773.872	4189.43
774.059	4273.9
774.245	4191.37
774.432	4229.34
774.618	4122.97
774.804	4189.04
774.991	4155.72
775.177	4215.58
775.363	4202.99
775.55	4173.74
775.736	4109.99
775.922	4170.25
776.109	4112.51
776.295	4129.56
776.481	4157.46
776.667	4173.93
776.853	4128.79
777.04	4102.63
777.226	4130.34
777.412	4197.18
777.598	4038.5
777.784	4097.4
777.97	4041.21
778.156	4086.74
778.342	4068.34
778.528	4046.06
778.715	3981.15
778.901	4007.69
779.087	4036.37
779.272	3998.78
779.458	3983.67
779.644	3995.1
779.83	4016.8
780.016	4088.1
780.202	3936.78
780.388	3988.13
780.574	3867.03
780.76	3928.06
780.946	3971.27
781.131	3967.98
781.317	3955.19
781.503	3856.38
781.689	3903.26
781.874	4063.49
782.06	3852.89
782.246	3897.45
782.432	3879.82
782.617	3861.03
782.803	3921.86
782.989	3835.84
783.174	3869.36
783.36	3802.13
783.545	3800.77
783.731	3790.5
783.916	3692.08
784.102	3781.98
784.288	3713.78
784.473	3771.71
784.659	3713
784.844	3786.63
785.029	3762.99
785.215	3758.73
785.4	3695.76
785.586	3819.18
785.771	3658.56
785.956	3713
786.142	3661.66
786.327	3674.06
786.512	3708.94
786.698	3700.02
786.883	3562.85
787.068	3632.02
787.254	3659.14
787.439	3662.44
787.624	3626.98
787.809	3642.09
787.994	3630.66
788.18	3661.08
788.365	3570.6
788.55	3556.84
788.735	3555.49
788.92	3562.85
789.105	3519.26
789.29	3582.61
789.475	3476.63
789.66	3514.03
789.845	3510.34
790.03	3454.93
790.215	3488.64
790.4	3552.78
790.585	3552.58
790.77	3486.13
790.955	3414.05
791.14	3489.42
791.325	3516.16
791.51	3341.2
791.695	3458.61
791.879	3429.55
792.064	3373.75
792.249	3455.13
792.434	3439.82
792.618	3424.71
792.803	3448.35
792.988	3410.95
793.173	3395.45
793.357	3438.46
793.542	3381.31
793.727	3418.51
793.911	3463.46
794.096	3442.73
794.281	3446.8
794.465	3533.21
794.65	3397
794.834	3506.08
795.019	3482.64
795.203	3483.41
795.388	3511.51
795.572	3502.4
795.757	3506.47
795.941	3484.38
796.126	3462.88
796.31	3374.53
796.494	3487.48
796.679	3459.2
796.863	3444.86
797.048	3526.62
797.232	3466.95
797.416	3516.93
797.601	3513.83
797.785	3580.09
797.969	3562.66
798.153	3485.54
798.338	3474.89
798.522	3552
798.706	3548.13
798.89	3508.6
799.074	3623.88
799.258	3624.46
799.443	3543.09
799.627	3521
799.811	3605.28
799.995	3521.39
800.179	3510.54
800.363	3502.21
800.547	3510.54
800.731	3567.69
800.915	3440.98
801.099	3486.9
801.283	3492.33
801.467	3497.36
801.651	3481.86
801.835	3529.14
802.019	3517.13
802.202	3533.01
802.386	3406.11
802.57	3432.85
802.754	3475.47
802.938	3420.25
803.121	3448.73
803.305	3527.98
803.489	3452.8
803.673	3538.63
803.856	3466.17
804.04	3478.76
804.224	3463.26
804.407	3465.2
804.591	3461.33
804.775	3469.27
804.958	3493.49
805.142	3601.6
805.326	3468.88
805.509	3470.05
805.693	3521.39
805.876	3502.79
806.06	3484.19
806.243	3514.41
806.427	3539.79
806.61	3568.08
806.794	3477.41
806.977	3507.24
807.16	3505.11
807.344	3489.81
807.527	3493.49
807.71	3445.44
807.894	3432.85
808.077	3483.03
808.26	3448.35
808.444	3406.11
808.627	3500.46
808.81	3413.08
808.993	3325.7
809.177	3367.94
809.36	3321.83
809.543	3400.3
809.726	3305.94
809.909	3306.91
810.092	3299.55
810.276	3315.63
810.459	3283.66
810.642	3254.6
810.825	3201.51
811.008	3241.23
811.191	3155.01
811.374	3192.79
811.557	3173.61
811.74	3217.21
811.923	3109.09
812.106	3107.54
812.289	3075.58
812.472	3103.67
812.654	3097.08
812.837	3088.56
813.02	2986.06
813.203	2972.31
813.386	2884.15
813.569	2855.48
813.751	2759.96
813.934	2848.5
814.117	2787.47
814.3	2760.74
814.482	2689.44
814.665	2580.55
814.848	2564.08
815.03	2510.61
815.213	2552.26
815.396	2528.82
815.578	2463.72
815.761	2454.81
815.943	2516.62
816.126	2374.6
816.309	2383.12
816.491	2277.53
816.674	2224.83
816.856	2252.54
817.039	2269.2
817.221	2355.03
817.403	2300.59
817.586	2284.51
817.768	2310.08
817.951	2249.63
818.133	2240.53
818.315	2252.34
818.498	2263.39
818.68	2383.7
818.862	2333.14
819.045	2328.87
819.227	2312.02
819.409	2295.74
819.591	2281.41
819.774	2264.55
819.956	2254.86
820.138	2369.75
820.32	2320.54
820.502	2407.34
820.684	2461.4
820.866	2483.29
821.048	2531.53
821.231	2525.14
821.413	2541.41
821.595	2493.95
821.777	2569.31
821.959	2519.91
822.141	2585.4
822.323	2441.44
822.505	2373.44
822.686	2305.24
822.868	2202.16
823.05	2119.05
823.232	2057.82
823.414	1988.65
823.596	2063.05
823.778	2028.18
823.96	2073.52
824.141	2048.52
824.323	2098.7
824.505	2199.84
824.687	2257.19
824.868	2305.04
825.05	2383.12
825.232	2431.95
825.413	2502.28
825.595	2438.34
825.777	2405.4
825.958	2419.16
826.14	2383.32
826.321	2465.47
826.503	2432.53
826.685	2449.19
826.866	2504.02
827.048	2437.76
827.229	2416.06
827.411	2338.76
827.592	2316.09
827.773	2313.76
827.955	2257.38
828.136	2276.95
828.318	2220.57
828.499	2239.56
828.68	2251.76
828.862	2228.51
829.043	2240.33
829.224	2218.24
829.406	2152.37
829.587	2178.14
829.768	2175.43
829.949	2202.55
830.131	2157.41
830.312	2235.29
830.493	2214.95
830.674	2231.81
830.855	2182.01
831.036	2201.78
831.218	2268.04
831.399	2256.03
831.58	2244.59
831.761	2221.73
831.942	2232.19
832.123	2174.84
832.304	2129.31
832.485	2150.05
832.666	2181.43
832.847	2198.29
833.028	2188.41
833.209	2207.2
833.389	2189.38
833.57	2087.08
833.751	2136.29
833.932	2198.29
834.113	2156.05
834.294	2171.16
834.475	2195.77
834.655	2225.22
834.836	2246.73
835.017	2236.07
835.198	2154.5
835.378	2215.92
835.559	2244.01
835.74	2217.28
835.92	2231.23
836.101	2198.87
836.281	2254.48
836.462	2214.76
836.643	2255.44
836.823	2243.82
837.004	2265.91
837.184	2282.37
837.365	2256.99
837.545	2249.83
837.726	2201.19
837.906	2305.43
838.087	2248.86
838.267	2207.39
838.448	2164.96
838.628	2223.48
838.808	2217.86
838.989	2268.62
839.169	2198.68
839.349	2242.46
839.53	2270.36
839.71	2230.26
839.89	2198.68
840.07	2276.17
840.251	2206.62
840.431	2266.1
840.611	2224.83
840.791	2187.44
840.971	2262.81
841.151	2204.88
841.332	2195.77
841.512	2262.22
841.692	2167.68
841.872	2245.76
842.052	2219.6
842.232	2227.16
842.412	2123.89
842.592	2195.96
842.772	2202.74
842.952	2190.15
843.132	2177.56
843.312	2132.8
843.492	2152.56
843.672	2194.03
843.851	2114.4
844.031	2138.42
844.211	2140.75
844.391	2131.45
844.571	2147.91
844.751	2158.76
844.93	2160.7
845.11	2104.51
845.29	2151.01
845.47	2170.78
845.649	2117.11
845.829	2163.22
846.009	2136.87
846.188	2158.38
846.368	2142.1
846.547	2106.26
846.727	2144.23
846.907	2078.75
847.086	2119.24
847.266	2123.89
847.445	2088.05
847.625	2102.19
847.804	2101.8
847.984	2068.48
848.163	2086.3
848.343	2037.67
848.522	2061.12
848.701	2055.3
848.881	2023.53
849.06	2076.03
849.239	2063.25
849.419	2048.91
849.598	1992.92
849.777	1988.27
849.957	1968.89
850.136	1897.59
850.315	1882.87
850.494	1911.35
850.674	1885.19
850.853	1966.95
851.032	1928.59
851.211	1966.95
851.39	1956.3
851.569	1878.02
851.748	1870.66
851.927	1997.57
852.107	1940.02
852.286	1854.19
852.465	1879.96
852.644	1945.84
852.823	1958.43
853.002	1952.23
853.181	1910.38
853.359	1925.1
853.538	1835.21
853.717	1937.12
853.896	1808.47
854.075	1718.76
854.254	1684.66
854.433	1630.22
854.611	1658.7
854.79	1605.62
854.969	1663.93
855.148	1666.06
855.327	1640.3
855.505	1693.77
855.684	1718.18
855.863	1728.65
856.041	1698.61
856.22	1764.29
856.399	1710.82
856.577	1849.74
856.756	1839.66
856.934	1901.08
857.113	1918.9
857.291	1848.19
857.47	1790.84
857.648	1793.55
857.827	1844.7
858.005	1820.87
858.184	1795.29
858.362	1870.27
858.541	1811.76
858.719	1802.46
858.898	1805.18
859.076	1807.11
859.254	1878.22
859.433	1767.2
859.611	1773.98
859.789	1736.2
859.967	1834.43
860.146	1852.84
860.324	1731.55
860.502	1769.14
860.68	1739.49
860.859	1759.84
861.037	1720.9
861.215	1797.04
861.393	1772.04
861.571	1759.26
861.749	1730.39
861.927	1742.21
862.105	1725.16
862.283	1689.31
862.461	1716.63
862.639	1672.07
862.817	1701.71
862.995	1720.7
863.173	1691.06
863.351	1709.08
863.529	1741.82
863.707	1787.93
863.885	1705.78
864.063	1670.52
864.241	1648.63
864.418	1717.8
864.596	1691.83
864.774	1617.24
864.952	1661.61
865.129	1687.18
865.307	1676.33
865.485	1595.15
865.663	1683.89
865.84	1559.5
866.018	1597.87
866.196	1473.09
866.373	1445.97
866.551	1432.41
866.728	1349.09
866.906	1414.39
867.084	1440.93
867.261	1497.89
867.439	1476
867.616	1556.02
867.794	1493.82
867.971	1513
868.149	1517.46
868.326	1573.07
868.503	1582.75
868.681	1559.12
868.858	1536.25
869.035	1505.25
869.213	1577.13
869.39	1530.64
869.567	1600.38
869.745	1535.29
869.922	1569.58
870.099	1567.25
870.276	1575.39
870.454	1543.62
870.631	1587.79
870.808	1535.29
870.985	1575.78
871.162	1597.87
871.339	1575
871.517	1480.84
871.694	1508.55
871.871	1515.52
872.048	1472.51
872.225	1479.1
872.402	1524.24
872.579	1464.76
872.756	1506.8
872.933	1474.64
873.11	1474.84
873.287	1501.96
873.463	1476
873.64	1439.77
873.817	1493.82
873.994	1475.61
874.171	1441.9
874.348	1460.69
874.524	1389.39
874.701	1422.91
874.878	1373.12
875.055	1443.64
875.231	1434.15
875.408	1495.95
875.585	1358.2
875.762	1410.51
875.938	1412.45
876.115	1395.21
876.291	1383.77
876.468	1420.39
876.645	1339.21
876.821	1375.44
876.998	1370.79
877.174	1410.12
877.351	1373.31
877.527	1371.38
877.704	1402.18
877.88	1365.76
878.057	1370.21
878.233	1441.9
878.409	1353.94
878.586	1391.72
878.762	1342.51
878.938	1341.34
879.115	1274.31
879.291	1352.19
879.467	1310.15
879.644	1321.58
879.82	1369.83
879.996	1304.34
880.172	1278.96
880.349	1327.98
880.525	1297.75
880.701	1267.53
880.877	1250.28
881.053	1356.84
881.229	1299.69
881.405	1347.35
881.581	1281.48
881.757	1287.68
881.933	1312.67
882.109	1325.65
882.285	1314.03
882.461	1237.69
882.637	1296.59
882.813	1270.24
882.989	1290.58
883.165	1328.94
883.341	1251.64
883.517	1349.87
883.693	1351.61
883.869	1340.57
884.044	1285.16
884.22	1339.02
884.396	1353.36
884.572	1322.16
884.747	1346.58
884.923	1297.36
885.099	1329.33
885.275	1354.71
885.45	1289.61
885.626	1279.35
885.801	1259.39
885.977	1277.41
886.153	1225.48
886.328	1297.36
886.504	1266.95
886.679	1306.47
886.855	1229.94
887.03	1295.81
887.206	1308.41
887.381	1289.42
887.557	1288.06
887.732	1308.6
887.908	1301.04
888.083	1344.64
888.258	1311.12
888.434	1271.4
888.609	1269.46
888.784	1326.81
888.96	1276.05
889.135	1234.4
889.31	1242.53
889.485	1265.4
889.661	1277.8
889.836	1325.26
890.011	1307.24
890.186	1281.67
890.361	1249.12
890.537	1270.82
890.712	1287.1
890.887	1318.29
891.062	1279.35
891.237	1321.39
891.412	1259.58
891.587	1271.79
891.762	1295.23
891.937	1318.87
892.112	1214.83
892.287	1243.11
892.462	1213.08
892.637	1191.97
892.812	1169.3
892.987	1200.1
893.161	1201.27
893.336	1198.94
893.511	1217.73
893.686	1212.89
893.861	1197.2
894.035	1178.21
894.21	1201.65
894.385	1133.65
894.56	1175.11
894.734	1131.13
894.909	1115.44
895.084	1109.82
895.258	1114.47
895.433	1118.34
895.608	1080.75
895.782	1030.57
895.957	1081.34
896.131	1043.55
896.306	980.97
896.48	996.86
896.655	986.98
896.829	914.13
897.004	922.08
897.178	933.89
897.353	909.09
897.527	971.29
897.701	930.79
897.876	870.15
898.05	966.25
898.224	934.86
898.399	993.76
898.573	909.29
898.747	837.99
898.921	890.88
899.096	769.02
899.27	733.95
899.444	758.17
899.618	818.03
899.792	848.26
899.967	807.38
900.141	872.86
900.315	799.63
900.489	794.59
900.663	828.5
900.837	817.84
901.011	760.88
901.185	846.51
901.359	805.44
901.533	818.23
901.707	803.7
901.881	803.5
902.055	783.55
902.229	795.75
902.403	863.95
902.576	831.79
902.75	834.31
902.924	918.2
903.098	861.43
903.272	892.43
903.446	955.21
903.619	937.96
903.793	970.51
903.967	964.51
904.14	1017.21
904.314	1001.51
904.488	960.24
904.661	971.67
904.835	989.89
905.009	1017.59
905.182	1061.96
905.356	996.09
905.529	985.43
905.703	966.64
905.876	929.24
906.05	926.53
906.223	882.94
906.397	846.71
906.57	839.73
906.744	803.5
906.917	831.98
907.09	825.59
907.264	823.46
907.437	780.06
907.61	733.56
907.784	751.19
907.957	796.72
908.13	739.18
908.304	780.64
908.477	700.62
908.65	732.2
908.823	714.38
908.996	775.6
909.17	727.17
909.343	715.15
909.516	748.09
909.689	693.65
909.862	691.13
910.035	725.23
910.208	686.09
910.381	696.17
910.554	765.14
910.727	704.3
910.9	687.45
911.073	694.81
911.246	763.2
911.419	749.45
911.592	747.12
911.765	716.7
911.938	692.48
912.11	708.95
912.283	710.89
912.456	752.35
912.629	710.12
912.802	686.67
912.974	643.47
913.147	591.93
913.32	566.36
913.493	608.01
913.665	602.39
913.838	615.95
914.01	652.96
914.183	619.05
914.356	664.39
914.528	661.29
914.701	717.28
914.873	669.62
915.046	610.92
915.218	587.28
915.391	523.73
915.563	545.82
915.736	617.12
915.908	645.99
916.081	612.08
916.253	623.9
916.425	627.58
916.598	656.06
916.77	632.62
916.942	604.72
917.115	544.46
917.287	622.35
917.459	571.39
917.632	549.31
917.804	480.33
917.976	586.12
918.148	596.58
918.32	621.57
918.493	644.44
918.665	655.29
918.837	627.58
919.009	676.6
919.181	652.96
919.353	639.59
919.525	637.27
919.697	639.4
919.869	617.89
920.041	712.63
920.213	747.51
920.385	686.28
920.557	669.62
920.729	647.34
920.901	647.73
921.073	667.3
921.244	664
921.416	656.06
921.588	621.96
921.76	648.5
921.932	666.72
922.103	615.37
922.275	632.81
922.447	651.8
922.619	551.44
922.79	612.85
922.962	584.96
923.134	597.35
923.305	525.09
923.477	524.51
923.648	554.34
923.82	557.25
923.991	509.01
924.163	535.55
924.335	550.47
924.506	523.92
924.677	613.82
924.849	505.13
925.02	550.47
925.192	594.45
925.363	550.47
925.535	560.54
925.706	523.15
925.877	602.78
926.049	538.26
926.22	558.8
926.391	564.42
926.562	601.42
926.734	553.76
926.905	570.42
927.076	513.07
927.247	524.89
927.419	501.26
927.59	485.76
927.761	479.17
927.932	460.76
928.103	496.8
928.274	461.54
928.445	431.12
928.616	430.34
928.787	439.45
928.958	417.95
929.129	429.18
929.3	414.07
929.471	365.63
929.642	311.77
929.813	282.52
929.984	379.97
930.155	283.87
930.326	340.06
930.496	286.97
930.667	219.35
930.838	271.47
931.009	245.7
931.18	266.63
931.35	251.9
931.521	257.91
931.692	202.69
931.863	134.88
932.033	185.64
932.204	189.52
932.374	213.93
932.545	145.92
932.716	210.64
932.886	183.51
933.057	135.66
933.227	115.7
933.398	200.95
933.568	101.17
933.739	35.88
933.909	84.7
934.08	150.38
934.25	71.91
934.421	79.08
934.591	115.7
934.761	71.72
934.932	66.1
935.102	99.23
935.272	99.23
935.443	87.41
935.613	87.41
935.783	126.36
935.953	65.33
936.123	247.83
936.294	84.51
936.464	92.26
936.634	87.61
936.804	60.87
936.974	52.93
937.144	91.29
937.314	98.65
937.484	83.92
937.655	70.75
937.825	103.69
937.995	55.64
938.165	126.36
938.334	94.97
938.504	131.01
938.674	84.12
938.844	125.58
939.014	196.69
939.184	183.9
939.354	193.78
939.524	217.22
939.694	160.65
939.863	138.17
940.033	243.57
940.203	230.59
940.373	187.58
940.542	189.71
940.712	172.85
940.882	180.22
941.051	220.52
941.221	180.8
941.391	211.41
941.56	160.26
941.73	150.19
941.899	285.62
942.069	165.88
942.238	158.52
942.408	151.35
942.577	168.4
942.747	144.96
942.916	91.48
943.086	107.95
943.255	193.59
943.425	148.64
943.594	125.97
943.763	63.39
943.933	85.67
944.102	43.82
944.271	112.99
944.441	153.67
944.61	101.36
944.779	149.99
944.948	189.9
945.117	78.31
945.287	117.44
945.456	64.55
945.625	80.24
945.794	137.21
945.963	127.91
946.132	155.42
946.301	94.19
946.47	150.19
946.639	86.06
946.808	115.31
946.977	133.72
947.146	173.63
947.315	87.99
947.484	140.11
947.653	105.82
947.822	90.51
947.991	106.79
948.16	208.89
948.329	157.74
948.498	144.96
948.666	117.06
948.835	171.3
949.004	80.44
949.173	81.41
949.341	122.67
949.51	143.6
949.679	149.61
949.847	150.57
950.016	214.12
950.185	182.15
950.353	104.85
950.522	91.48
950.69	182.93
950.859	122.67
951.028	169.75
951.196	134.49
951.365	91.29
951.533	107.76
951.701	149.02
951.87	130.42
952.038	70.17
952.207	94.19
952.375	172.27
952.543	115.31
952.712	98.84
952.88	91.67
953.048	194.94
953.217	102.52
953.385	125
953.553	160.65
953.721	103.3
953.89	101.75
954.058	64.94
954.226	96.91
954.394	118.8
954.562	64.55
954.73	99.42
954.898	90.12
955.067	135.85
955.235	96.32
955.403	148.06
955.571	180.8
955.739	152.9
955.907	90.32
956.075	109.89
956.243	77.14
956.41	117.64
956.578	60.68
956.746	67.84
956.914	105.04
957.082	152.9
957.25	164.33
957.418	94
957.585	130.81
957.753	160.65
957.921	101.56
958.089	89.35
958.256	113.37
958.424	136.82
958.592	121.9
958.759	81.99
958.927	131.97
959.095	82.18
959.262	97.1
959.43	125.77
959.597	100.2
959.765	111.82
959.932	82.96
960.1	140.69
960.267	86.64
960.435	125.77
960.602	156.58
960.77	106.01
960.937	79.66
961.104	122.48
961.272	94.39
961.439	84.51
961.606	116.28
961.774	161.81
961.941	100.59
962.108	127.32
962.275	134.3
962.443	160.26
962.61	144.57
962.777	189.9
962.944	181.19
963.111	99.42
963.278	149.22
963.446	138.95
963.613	108.53
963.78	136.82
963.947	146.31
964.114	144.18
964.281	216.45
964.448	156
964.615	118.8
964.782	137.4
964.949	162.2
965.116	148.06
965.282	166.85
965.449	128.87
965.616	106.98
965.783	149.61
965.95	131.97
966.117	100.97
966.283	130.23
966.45	148.06
966.617	123.84
966.784	159.68
966.95	157.94
967.117	167.62
967.284	131.78
967.45	102.52
967.617	194.75
967.784	166.46
967.95	204.63
968.117	157.16
968.283	189.13
968.45	283.48
968.616	187.77
968.783	186.8
968.949	176.54
969.116	193.97
969.282	157.94
969.449	153.87
969.615	146.31
969.781	112.79
969.948	143.21
970.114	115.89
970.28	174.6
970.447	138.17
970.613	226.33
970.779	165.3
970.945	183.9
971.112	169.95
971.278	152.12
971.444	126.74
971.61	200.75
971.776	138.95
971.942	190.29
972.108	163.17
972.275	144.76
972.441	152.51
972.607	208.7
972.773	129.26
972.939	157.74
973.105	135.27
973.271	80.05
973.437	121.71
973.602	117.83
973.768	144.96
973.934	166.27
974.1	156.77
974.266	31.23
974.432	147.47
974.598	97.87
974.763	186.8
974.929	162.59
975.095	186.42
975.261	103.49
975.426	81.6
975.592	150.19
975.758	200.17
975.923	87.8
976.089	101.56
976.255	157.36
976.42	158.32
976.586	154.26
976.751	157.36
976.917	220.32
977.082	141.66
977.248	95.55
977.413	78.31
977.579	125.77
977.744	136.43
977.91	98.84
978.075	109.31
978.24	137.4
978.406	100.01
978.571	105.62
978.736	93.81
978.902	147.09
979.067	100.97
979.232	91.09
979.397	117.44
979.563	183.9
979.728	103.11
979.893	143.02
980.058	109.89
980.223	147.47
980.388	113.37
980.554	137.79
980.719	115.51
980.884	120.54
981.049	162.39
981.214	114.92
981.379	134.49
981.544	112.6
981.709	105.43
981.874	111.63
982.039	120.35
982.204	136.43
982.368	128.29
982.533	105.82
982.698	149.02
982.863	147.86
983.028	103.11
983.193	112.6
983.357	115.7
983.522	128.1
983.687	119.96
983.852	119.77
984.016	89.16
984.181	111.44
984.346	152.71
984.51	120.16
984.675	113.18
984.839	166.65
985.004	122.67
985.168	139.53
985.333	143.02
985.498	123.84
985.662	152.9
985.827	132.75
985.991	112.6
986.155	94.58
986.32	151.54
986.484	149.61
986.649	157.94
986.813	64.16
986.977	114.54
987.142	148.44
987.306	62.61
987.47	93.81
987.634	113.18
987.799	123.45
987.963	119.19
988.127	131.97
988.291	186.03
988.455	124.61
988.62	108.53
988.784	135.85
988.948	100.59
989.112	93.61
989.276	98.84
989.44	127.52
989.604	92.45
989.768	87.61
989.932	183.7
990.096	75.98
990.26	76.76
990.424	77.92
990.588	79.08
990.752	193.78
990.915	144.76
991.079	78.31
991.243	64.94
991.407	128.87
991.571	120.16
991.734	118.99
991.898	110.08
992.062	184.29
992.226	96.91
992.389	95.74
992.553	66.49
992.717	59.71
992.88	104.27
993.044	112.41
993.207	94
993.371	111.82
993.535	114.92
993.698	103.11
993.862	113.76
994.025	142.44
994.189	99.04
994.352	126.16
994.515	124.81
994.679	115.31
994.842	96.52
995.006	121.9
995.169	68.81
995.332	78.31
995.496	122.48
995.659	39.94
995.822	96.32
995.985	70.75
996.149	140.5
996.312	97.49
996.475	143.21
996.638	68.62
996.801	109.31
996.964	171.69
997.128	97.29
997.291	94.97
997.454	121.9
997.617	22.7
997.78	129.84
997.943	75.01
998.106	125.19
998.269	67.65
998.432	98.84
998.595	106.59
998.758	50.6
998.92	49.83
999.083	22.12
999.246	62.42
999.409	32.19
999.572	30.64
999.735	87.22
999.897	97.1
1000.06	61.84
1000.223	74.04
1000.386	136.82
1000.548	97.68
1000.711	91.29
1000.874	107.56
1001.036	25.22
1001.199	112.79
1001.361	46.34
1001.524	80.82
1001.687	129.46
1001.849	48.47
1002.012	90.32
1002.174	72.3
1002.337	100.2
1002.499	70.56
1002.661	108.34
1002.824	18.63
1002.986	40.72
1003.149	70.75
1003.311	21.54
1003.473	160.07
1003.636	49.63
1003.798	93.22
1003.96	97.29
1004.123	84.12
1004.285	64.36
1004.447	55.83
1004.609	77.72
1004.771	126.74
1004.933	23.86
1005.096	27.54
1005.258	21.15
1005.42	44.59
1005.582	89.54
1005.744	80.24
1005.906	10.11
1006.068	60.29
1006.23	2.16
1006.392	1.19
1006.554	44.01
1006.716	97.49
1006.878	82.18
1007.04	-2.49
1007.202	41.49
1007.363	96.71
1007.525	57.19
1007.687	82.37
1007.849	100.78
1008.011	-7.91
1008.172	16.31
1008.334	53.31
1008.496	63.97
1008.658	-8.49
1008.819	41.88
1008.981	3.91
1009.143	38.59
1009.304	51.18
1009.466	89.74
1009.627	96.52
1009.789	134.11
1009.95	46.34
1010.112	35.49
1010.273	58.74
1010.435	21.54
1010.596	40.14
1010.758	24.06
1010.919	31.42
1011.081	13.4
1011.242	45.37
1011.403	62.03
1011.565	31.23
1011.726	51.57
1011.887	29.09
1012.049	50.79
1012.21	80.82
1012.371	108.92
1012.532	-0.55
1012.693	51.96
1012.855	32.78
1013.016	15.53
1013.177	83.73
1013.338	45.95
1013.499	113.76
1013.66	64.74
1013.821	72.49
1013.982	52.15
1014.143	41.69
1014.304	48.86
1014.465	61.64
1014.626	63.39
1014.787	33.16
1014.948	130.81
1015.109	-32.32
1015.27	97.49
1015.431	36.26
1015.592	22.51
1015.752	111.24
1015.913	78.5
1016.074	45.37
1016.235	47.31
1016.395	39.94
1016.556	26.77
1016.717	30.06
1016.877	90.12
1017.038	16.31
1017.199	39.75
1017.359	39.17
1017.52	49.44
1017.681	26.38
1017.841	40.14
1018.002	17.47
1018.162	40.53
1018.323	104.27
1018.483	20.18
1018.644	34.71
1018.804	-16.44
1018.964	-9.46
1019.125	4.68
1019.285	49.63
1019.446	-2.49
1019.606	28.51
1019.766	-36.59
1019.926	57.38
1020.087	53.31
1020.247	-27.48
1020.407	32.19
1020.567	74.24
1020.728	42.08
1020.888	-11.21
1021.048	22.51
1021.208	-13.92
1021.368	-4.62
1021.528	63.58
1021.688	75.59
1021.848	56.99
1022.008	44.01
1022.168	-7.91
1022.328	23.67
1022.488	33.74
1022.648	4.29
1022.808	32.58
1022.968	25.41
1023.128	-0.74
1023.288	7.39
1023.448	8.17
1023.608	47.5
1023.767	53.51
1023.927	13.01
1024.087	10.3
1024.247	4.68
1024.406	16.89
1024.566	-22.83
1024.726	-6.94
1024.885	20.76
1025.045	38.59
1025.205	19.21
1025.364	31.61
1025.524	37.62
1025.683	21.34
1025.843	12.63
1026.003	26.77
1026.162	74.43
1026.321	59.9
1026.481	13.59
1026.64	17.66
1026.8	54.09
1026.959	13.21
1027.119	11.27
1027.278	-11.4
1027.437	-6.94
1027.597	44.01
1027.756	34.33
1027.915	30.06
1028.074	61.64
1028.234	-6.75
1028.393	38.2
1028.552	3.52
1028.711	-55.38
1028.87	54.48
1029.03	-40.27
1029.189	19.02
1029.348	-40.46
1029.507	-29.61
1029.666	19.6
1029.825	-31.16
1029.984	7.98
1030.143	-3.84
1030.302	-7.91
1030.461	-37.36
1030.62	2.74
1030.779	54.48
1030.938	-21.09
1031.097	-7.72
1031.255	54.09
1031.414	66.68
1031.573	79.47
1031.732	-35.81
1031.891	1.39
1032.049	72.69
1032.208	40.72
1032.367	-15.27
1032.525	-9.85
1032.684	-5.97
1032.843	14.95
1033.001	-40.27
1033.16	161.23
1033.319	66.88
1033.477	21.54
1033.636	-14.69
1033.794	-28.45
1033.953	49.83
1034.111	41.69
1034.27	14.56
1034.428	18.44
1034.587	-32.71
1034.745	17.66
1034.903	12.04
1035.062	27.74
1035.22	-10.62
1035.378	40.72
1035.537	-37.55
1035.695	42.66
1035.853	19.99
1036.011	67.65
1036.17	43.04
1036.328	-37.36
1036.486	51.96
1036.644	21.34
1036.802	-79.21
1036.96	-1.13
1037.119	-5.97
1037.277	-12.95
1037.435	-76.11
1037.593	-30.97
1037.751	-17.6
1037.909	24.25
1038.067	24.25
