Data from gum_old_FLMT105791__82__15-44-10-256.txt Node

Date: Mon Mar 20 15:44:10 GMT 2023
User: antho
Spectrometer: FLMT10579
Trigger mode: 0
Integration Time (sec): 1.000000E-1
Scans to average: 10
Electric dark correction enabled: true
Nonlinearity correction enabled: false
Boxcar width: 0
XAxis mode: Wavelengths
Number of Pixels in Spectrum: 3648
>>>>>Begin Spectral Data<<<<<
345.248	-167.43
345.464	-167.43
345.681	-167.43
345.898	-174.99
346.114	-165.49
346.331	-41.69
346.548	34.84
346.764	-22.51
346.981	-11.85
347.197	2.29
347.414	20.89
347.631	-16.69
347.847	94.9
348.064	6.75
348.28	24.77
348.497	-54.48
348.713	-37.23
348.93	11.98
349.146	35.81
349.363	-5.65
349.579	36.78
349.796	-14.95
350.012	-1.19
350.229	49.37
350.445	19.15
350.661	-7.39
350.878	7.14
351.094	32.71
351.311	4.04
351.527	42.59
351.743	11.21
351.96	67.78
352.176	66.62
352.392	42.79
352.609	63.9
352.825	2.49
353.041	53.05
353.257	25.35
353.474	21.09
353.69	45.69
353.906	32.52
354.122	9.46
354.339	95.29
354.555	48.79
354.771	12.17
354.987	77.27
355.203	96.07
355.42	9.27
355.636	7.33
355.852	14.69
356.068	16.05
356.284	-19.21
356.5	94.71
356.716	25.35
356.932	32.52
357.148	36.2
357.364	32.13
357.58	79.21
357.796	88.51
358.012	88.9
358.228	33.68
358.444	-32.97
358.66	86.96
358.876	58.48
359.092	-22.51
359.308	24.77
359.524	58.87
359.74	35.42
359.956	36.78
360.172	36.97
360.388	79.6
360.604	34.84
360.819	100.52
361.035	52.09
361.251	79.99
361.467	-6.23
361.683	79.6
361.898	27.48
362.114	68.75
362.33	58.29
362.546	79.4
362.762	31.16
362.977	29.22
363.193	28.06
363.409	92.97
363.624	11.21
363.84	10.43
364.056	28.45
364.271	43.37
364.487	61.77
364.703	25.54
364.918	12.95
365.134	35.23
365.35	48.4
365.565	141.4
365.781	43.37
365.996	52.47
366.212	100.52
366.427	39.1
366.643	21.09
366.858	62.16
367.074	14.31
367.289	125.13
367.505	148.77
367.72	10.82
367.936	52.09
368.151	103.62
368.367	88.51
368.582	78.05
368.798	47.44
369.013	112.73
369.228	69.91
369.444	67.59
369.659	117.96
369.874	104.78
370.09	120.87
370.305	-2.55
370.52	45.69
370.736	96.65
370.951	56.74
371.166	115.44
371.381	125.52
371.597	77.85
371.812	34.45
372.027	31.55
372.242	81.92
372.458	142.57
372.673	48.21
372.888	52.86
373.103	79.99
373.318	141.4
373.533	79.4
373.749	87.74
373.964	-27.93
374.179	103.43
374.394	26.12
374.609	94.52
374.824	23.02
375.039	77.85
375.254	36.59
375.469	102.07
375.684	72.43
375.899	107.3
376.114	74.95
376.329	57.12
376.544	94.52
376.759	113.31
376.974	50.92
377.189	61.19
377.404	68.94
377.619	135.98
377.834	42.4
378.049	32.71
378.264	24.96
378.478	96.07
378.693	69.33
378.908	127.84
379.123	68.94
379.338	129.78
379.553	114.47
379.767	74.17
379.982	93.94
380.197	91.8
380.412	84.83
380.626	100.91
380.841	171.24
381.056	109.05
381.271	177.44
381.485	47.63
381.7	63.9
381.915	101.1
382.129	54.41
382.344	78.44
382.559	86.96
382.773	100.52
382.988	21.86
383.202	109.05
383.417	26.51
383.632	150.12
383.846	86.38
384.061	80.95
384.275	67.59
384.49	100.52
384.704	112.15
384.919	99.36
385.133	59.45
385.348	135.59
385.562	58.09
385.777	154
385.991	78.82
386.206	77.08
386.42	77.27
386.634	113.89
386.849	117.96
387.063	125.71
387.277	60.61
387.492	51.5
387.706	77.47
387.92	67.78
388.135	122.8
388.349	122.03
388.563	109.43
388.778	138.88
388.992	115.44
389.206	148.18
389.42	177.25
389.635	104.98
389.849	147.99
390.063	149.35
390.277	148.96
390.491	191.78
390.706	150.51
390.92	168.14
391.134	128.23
391.348	171.43
391.562	106.72
391.776	140.24
391.99	144.7
392.205	175.7
392.419	126.48
392.633	112.15
392.847	188.29
393.061	102.65
393.275	190.03
393.489	93.94
393.703	103.04
393.917	134.43
394.131	81.34
394.345	87.54
394.559	141.6
394.773	93.35
394.986	150.12
395.2	136.75
395.414	174.73
395.628	129.2
395.842	155.35
396.056	182.87
396.27	98.97
396.484	164.27
396.697	160.78
396.911	169.3
397.125	99.36
397.339	161.17
397.553	132.3
397.766	169.11
397.98	173.95
398.194	208.63
398.408	161.94
398.621	220.26
398.835	233.82
399.049	219.29
399.262	253.2
399.476	263.08
399.69	228.4
399.903	302.02
400.117	224.71
400.331	258.04
400.544	225.49
400.758	352.2
400.971	278.96
401.185	299.5
401.398	188.29
401.612	304.34
401.826	290.01
402.039	302.99
402.253	237.31
402.466	268.5
402.68	283.61
402.893	271.6
403.106	256.3
403.32	267.53
403.533	270.05
403.747	244.48
403.96	266.56
404.174	308.22
404.387	250.1
404.6	272.76
404.814	311.51
405.027	270.63
405.24	288.46
405.454	285.94
405.667	318.88
405.88	243.7
406.094	283.23
406.307	334.18
406.52	292.72
406.733	227.81
406.947	222
407.16	330.69
407.373	315.78
407.586	264.82
407.799	278.77
408.012	305.12
408.226	293.3
408.439	352.01
408.652	265.21
408.865	305.89
409.078	331.08
409.291	292.91
409.504	293.49
409.717	336.7
409.93	358.98
410.143	331.66
410.357	247.38
410.57	240.02
410.783	281.68
410.996	299.69
411.209	269.86
411.421	339.03
411.634	319.84
411.847	309.96
412.06	343.29
412.273	337.28
412.486	351.43
412.699	403.93
412.912	356.27
413.125	375.06
413.338	347.55
413.55	367.12
413.763	372.35
413.976	354.72
414.189	313.84
414.402	338.44
414.615	399.67
414.827	314.81
415.04	365.96
415.253	356.08
415.466	399.09
415.678	443.65
415.891	364.99
416.104	350.65
416.316	383.59
416.529	330.69
416.742	397.15
416.954	396.76
417.167	368.86
417.38	386.11
417.592	398.7
417.805	342.51
418.017	311.32
418.23	395.6
418.442	332.05
418.655	347.36
418.868	374.09
419.08	377.97
419.293	417.69
419.505	380.68
419.718	422.34
419.93	403.16
420.142	366.73
420.355	424.47
420.567	429.7
420.78	399.09
420.992	396.76
421.205	424.86
421.417	365.76
421.629	402.96
421.842	376.03
422.054	350.46
422.266	435.9
422.479	436.29
422.691	394.05
422.903	446.36
423.115	370.8
423.328	375.84
423.54	404.71
423.752	390.76
423.964	387.27
424.177	403.35
424.389	403.93
424.601	533.35
424.813	452.56
425.025	443.46
425.238	458.18
425.45	396.96
425.662	400.06
425.874	698.81
426.086	428.92
426.298	438.61
426.51	407.22
426.722	418.27
426.934	413.81
427.146	473.29
427.358	386.11
427.57	453.34
427.782	406.84
427.994	395.21
428.206	378.74
428.418	362.86
428.63	435.71
428.842	491.12
429.054	467.67
429.266	471.55
429.478	389.01
429.69	411.1
429.902	378.94
430.114	439.58
430.325	423.5
430.537	354.14
430.749	358.98
430.961	308.61
431.173	326.04
431.384	377.58
431.596	277.03
431.808	370.99
432.02	425.44
432.231	465.74
432.443	514.37
432.655	489.18
432.867	450.04
433.078	478.72
433.29	514.37
433.502	498.29
433.713	544.59
433.925	501.58
434.136	538.39
434.348	425.44
434.56	401.8
434.771	555.83
434.983	401.8
435.194	446.36
435.406	495.96
435.617	529.09
435.829	575.59
436.04	530.06
436.252	548.85
436.463	569.97
436.675	578.69
436.886	563
437.098	578.11
437.309	612.4
437.521	561.64
437.732	557.18
437.943	552.92
438.155	531.8
438.366	516.89
438.578	596.71
438.789	512.82
439	529.48
439.211	528.7
439.423	519.21
439.634	557.18
439.845	580.43
440.057	568.62
440.268	604.27
440.479	554.67
440.69	559.51
440.902	560.67
441.113	534.52
441.324	569.78
441.535	612.79
441.746	634.3
441.957	560.28
442.168	581.02
442.38	618.41
442.591	648.05
442.802	585.08
443.013	627.71
443.224	647.86
443.435	613.76
443.646	613.95
443.857	614.73
444.068	584.12
444.279	575.98
444.49	686.41
444.701	636.81
444.912	732.53
445.123	706.56
445.334	652.7
445.545	651.54
445.756	631.58
445.967	586.05
446.178	643.79
446.388	669.75
446.599	675.18
446.81	658.71
447.021	611.43
447.232	692.61
447.443	673.63
447.653	646.31
447.864	696.88
448.075	689.71
448.286	731.75
448.496	667.04
448.707	716.64
448.918	662.2
449.129	774.96
449.339	650.96
449.55	676.92
449.761	695.91
449.971	690.87
450.182	687
450.393	706.56
450.603	672.27
450.814	742.02
451.024	746.09
451.235	770.31
451.446	797.24
451.656	799.95
451.867	726.52
452.077	751.51
452.288	743.18
452.498	754.81
452.709	720.9
452.919	727.1
453.13	678.08
453.34	748.03
453.55	656.58
453.761	753.84
453.971	699.98
454.182	738.14
454.392	720.32
454.602	805.57
454.813	759.46
455.023	768.18
455.233	693.2
455.444	744.73
455.654	680.02
455.864	706.76
456.075	725.55
456.285	706.37
456.495	716.06
456.705	728.84
456.916	782.51
457.126	806.34
457.336	768.76
457.546	685.25
457.756	759.07
457.967	822.23
458.177	762.17
458.387	782.51
458.597	704.82
458.807	729.81
459.017	721.68
459.227	730.2
459.437	704.05
459.647	780.19
459.857	743.18
460.068	744.34
460.278	775.93
460.488	774.57
460.698	875.12
460.908	743.96
461.117	728.84
461.327	772.05
461.537	798.4
461.747	790.07
461.957	822.62
462.167	893.14
462.377	811.38
462.587	802.08
462.797	854.2
463.007	799.95
463.216	863.31
463.426	895.27
463.636	878.03
463.846	755.39
464.056	777.86
464.265	856.72
464.475	771.66
464.685	820.68
464.895	847.42
465.104	803.24
465.314	835.99
465.524	796.85
465.733	807.51
465.943	893.53
466.153	920.85
466.362	883.07
466.572	854.2
466.782	864.27
466.991	815.26
467.201	887.72
467.41	775.15
467.62	811.19
467.829	824.17
468.039	884.62
468.249	855.36
468.458	855.36
468.668	898.95
468.877	917.55
469.086	914.07
469.296	940.61
469.505	894.3
469.715	947.59
469.924	911.94
470.134	951.85
470.343	953.59
470.552	893.34
470.762	888.88
470.971	872.61
471.18	897.99
471.39	885.01
471.599	886.17
471.808	942.16
472.018	900.89
472.227	978.97
472.436	988.08
472.645	990.21
472.855	938.09
473.064	1041.36
473.273	1010.94
473.482	992.53
473.691	993.7
473.901	1010.36
474.11	940.03
474.319	1064.61
474.528	990.79
474.737	1077.78
474.946	1034.77
475.155	1052.79
475.364	1101.42
475.573	1022.18
475.783	1096.19
475.992	1087.28
476.201	1123.31
476.41	1081.08
476.619	1040
476.828	1064.22
477.037	1036.32
477.245	1065
477.454	1102.58
477.663	1062.28
477.872	1123.9
478.081	1198.68
478.29	1103.16
478.499	1252.54
478.708	1139.01
478.917	1236.08
479.125	1151.79
479.334	1157.99
479.543	1191.9
479.752	1196.55
479.961	1210.5
480.169	1245.57
480.378	1209.73
480.587	1338.57
480.796	1256.22
481.004	1227.55
481.213	1253.12
481.422	1278.12
481.63	1280.06
481.839	1288.97
482.048	1340.7
482.256	1289.94
482.465	1346.9
482.674	1361.24
482.882	1364.14
483.091	1419.36
483.299	1301.17
483.508	1370.15
483.716	1379.45
483.925	1367.82
484.134	1324.42
484.342	1344.38
484.551	1391.65
484.759	1392.43
484.967	1417.81
485.176	1373.44
485.384	1399.79
485.593	1421.68
485.801	1394.75
486.01	1314.54
486.218	1283.93
486.426	1200.62
486.635	1184.34
486.843	1194.03
487.051	1234.33
487.26	1222.9
487.468	1281.61
487.676	1317.45
487.885	1317.45
488.093	1321.52
488.301	1382.16
488.509	1415.87
488.717	1441.83
488.926	1434.28
489.134	1415.68
489.342	1402.12
489.55	1378.48
489.758	1432.15
489.967	1414.32
490.175	1546.85
490.383	1486.01
490.591	1625.51
490.799	1500.54
491.007	1562.73
491.215	1568.16
491.423	1499.18
491.631	1517.78
491.839	1547.43
492.047	1541.42
492.255	1484.27
492.463	1468.57
492.671	1417.03
492.879	1544.52
493.087	1522.05
493.295	1531.93
493.503	1556.73
493.711	1580.75
493.919	1610.59
494.127	1587.53
494.334	1604
494.542	1517.59
494.75	1596.25
494.958	1564.67
495.166	1637.13
495.374	1641.2
495.581	1658.06
495.789	1642.17
495.997	1713.27
496.205	1602.26
496.412	1581.14
496.62	1623.96
496.828	1604.78
497.035	1617.18
497.243	1637.13
497.451	1647.79
497.658	1646.04
497.866	1627.25
498.074	1702.42
498.281	1617.18
498.489	1693.32
498.696	1626.48
498.904	1587.53
499.112	1584.05
499.319	1706.69
499.527	1642.75
499.734	1698.94
499.942	1620.86
500.149	1636.74
500.357	1683.24
500.564	1618.53
500.771	1634.03
500.979	1626.48
501.186	1612.53
501.394	1595.86
501.601	1602.64
501.808	1644.88
502.016	1605.74
502.223	1613.69
502.43	1614.46
502.638	1617.76
502.845	1604
503.052	1698.55
503.26	1617.37
503.467	1789.61
503.674	1670.07
503.881	1728.97
504.089	1794.26
504.296	1748.92
504.503	1638.88
504.71	1674.53
504.917	1654.76
505.125	1692.54
505.332	1749.51
505.539	1703.97
505.746	1786.12
505.953	1773.34
506.16	1755.9
506.367	1819.45
506.574	1811.7
506.781	1855.1
506.988	1780.31
507.195	1807.63
507.402	1749.12
507.609	1855.68
507.816	1750.67
508.023	1762.68
508.23	1730.71
508.437	1703.39
508.644	1761.52
508.851	1772.56
509.058	1786.51
509.265	1764.62
509.472	1816.93
509.679	1900.82
509.885	1814.02
510.092	1794.84
510.299	1853.16
510.506	1812.09
510.713	1844.83
510.92	1794.07
511.126	1861.49
511.333	1869.63
511.54	1870.02
511.746	1932.98
511.953	1889.2
512.16	1918.26
512.367	1898.69
512.573	1867.3
512.78	1852.38
512.987	1850.64
513.193	1853.74
513.4	1775.08
513.606	1826.42
513.813	1839.02
514.02	1829.14
514.226	1949.06
514.433	1910.12
514.639	1817.32
514.846	1841.34
515.052	1821.19
515.259	1862.27
515.465	1821.77
515.672	1893.85
515.878	1931.24
516.085	1879.7
516.291	1936.47
516.497	1892.3
516.704	1868.27
516.91	1782.25
517.117	1737.3
517.323	1669.29
517.529	1700.29
517.736	1701.84
517.942	1675.3
518.148	1745.44
518.354	1765.78
518.561	1760.16
518.767	1749.31
518.973	1818.67
519.179	1827.59
519.386	1784.77
519.592	1797.36
519.798	1821.19
520.004	1914.77
520.21	1853.93
520.417	1937.83
520.623	1977.55
520.829	1995.95
521.035	1945.38
521.241	1947.71
521.447	1969.6
521.653	2089.34
521.859	2005.83
522.065	2020.56
522.271	2142.62
522.477	2051.56
522.683	2085.27
522.889	2022.69
523.095	2044
523.301	2034.7
523.507	1951.2
523.713	2004.48
523.919	1947.71
524.125	2081.2
524.331	2067.83
524.537	2158.89
524.742	2149.79
524.948	2144.36
525.154	2172.65
525.36	2287.54
525.566	2144.56
525.772	2222.25
525.977	2132.35
526.183	2122.08
526.389	2220.31
526.595	2111.62
526.8	2096.89
527.006	2027.34
527.212	2000.6
527.417	1958.17
527.623	1928.72
527.829	2008.55
528.034	2054.27
528.24	2064.93
528.446	2087.21
528.651	2210.82
528.857	2161.61
529.062	2239.69
529.268	2211.79
529.473	2255.38
529.679	2256.15
529.884	2326.29
530.09	2258.09
530.295	2266.42
530.501	2243.75
530.706	2284.64
530.912	2283.86
531.117	2236.78
531.323	2309.82
531.528	2329.58
531.733	2342.18
531.939	2287.73
532.144	2347.6
532.35	2332.49
532.555	2388.1
532.76	2319.32
532.966	2283.47
533.171	2289.67
533.376	2205.39
533.581	2179.04
533.787	2235.23
533.992	2300.91
534.197	2347.99
534.402	2287.15
534.607	2293.16
534.813	2395.65
535.018	2271.85
535.223	2296.07
535.428	2359.42
535.633	2393.13
535.838	2393.91
536.043	2371.82
536.249	2522.17
536.454	2426.46
536.659	2459.2
536.864	2412.9
537.069	2388.87
537.274	2421.42
537.479	2382.09
537.684	2367.56
537.889	2283.86
538.094	2458.04
538.299	2370.47
538.504	2377.83
538.708	2395.85
538.913	2455.13
539.118	2385.77
539.323	2417.16
539.528	2378.21
539.733	2377.83
539.938	2428.59
540.142	2397.4
540.347	2378.6
540.552	2341.98
540.757	2330.75
540.962	2334.62
541.166	2283.28
541.371	2305.56
541.576	2311.37
541.781	2251.5
541.985	2371.63
542.19	2376.86
542.395	2418.32
542.599	2494.66
542.804	2399.53
543.008	2484.78
543.213	2442.93
543.418	2361.55
543.622	2433.63
543.827	2363.3
544.031	2466.95
544.236	2467.73
544.44	2468.5
544.645	2573.9
544.849	2476.06
545.054	2535.54
545.258	2565.18
545.463	2508.8
545.667	2457.26
545.872	2509.77
546.076	2465.21
546.281	2512.87
546.485	2440.99
546.689	2501.24
546.894	2556.07
547.098	2496.79
547.302	2485.94
547.507	2513.84
547.711	2510.35
547.915	2533.41
548.119	2430.33
548.324	2455.33
548.528	2541.93
548.732	2510.93
548.936	2509.58
549.141	2560.92
549.345	2560.72
549.549	2487.29
549.753	2551.04
549.957	2598.31
550.161	2615.94
550.366	2550.84
550.57	2543.68
550.774	2527.01
550.978	2563.82
551.182	2557.82
551.386	2474.7
551.59	2494.27
551.794	2487.49
551.998	2574.09
552.202	2498.53
552.406	2485.94
552.61	2571.57
552.814	2538.83
553.018	2572.93
553.222	2496.21
553.426	2503.57
553.63	2620.98
553.833	2489.81
554.037	2462.69
554.241	2532.83
554.445	2584.94
554.649	2515.97
554.853	2498.34
555.056	2569.06
555.26	2558.01
555.464	2554.52
555.668	2527.4
555.871	2564.02
556.075	2556.46
556.279	2515
556.483	2488.26
556.686	2479.54
556.89	2501.24
557.094	2508.8
557.297	2389.65
557.501	2506.09
557.704	2379.38
557.908	2493.88
558.112	2449.32
558.315	2509.58
558.519	2433.24
558.722	2464.24
558.926	2416.96
559.129	2347.6
559.333	2310.21
559.536	2352.83
559.74	2352.64
559.943	2322.61
560.147	2313.12
560.35	2313.5
560.553	2310.98
560.757	2248.21
560.96	2384.8
561.164	2329
561.367	2454.16
561.57	2422.58
561.774	2395.07
561.977	2366.2
562.18	2326.87
562.384	2453.2
562.587	2349.93
562.79	2330.75
562.993	2355.35
563.197	2352.64
563.4	2451.65
563.603	2447.77
563.806	2445.25
564.009	2356.52
564.212	2394.3
564.416	2271.07
564.619	2344.89
564.822	2312.53
565.025	2383.83
565.228	2339.08
565.431	2381.9
565.634	2251.12
565.837	2285.99
566.04	2257.7
566.243	2239.49
566.446	2174.2
566.649	2233.49
566.852	2173.42
567.055	2248.21
567.258	2264.87
567.461	2317.38
567.664	2267.2
567.867	2221.09
568.07	2246.08
568.273	2238.52
568.475	2295.29
568.678	2185.05
568.881	2204.62
569.084	2232.71
569.287	2108.71
569.489	2122.27
569.692	2236.59
569.895	2226.12
570.098	2110.84
570.3	2144.75
570.503	2093.02
570.706	2083.91
570.909	2069.77
571.111	2000.8
571.314	2039.93
571.516	2074.23
571.719	2067.64
571.922	2029.47
572.124	2047.1
572.327	2090.89
572.529	2019.98
572.732	2042.06
572.935	2082.17
573.137	2177.49
573.34	2054.66
573.542	2127.12
573.745	2094.38
573.947	2113.56
574.15	2047.1
574.352	2057.56
574.554	2118.59
574.757	2041.68
574.959	2025.59
575.162	2059.31
575.364	1996.92
575.566	2128.47
575.769	1962.82
575.971	1975.61
576.173	1924.07
576.376	1981.23
576.578	2029.28
576.78	2020.75
576.982	1904.7
577.185	1992.08
577.387	1947.32
577.589	1931.82
577.791	1990.33
577.993	1997.89
578.196	1951.97
578.398	1966.89
578.6	1972.12
578.802	1891.72
579.004	1923.88
579.206	1906.05
579.408	1950.42
579.61	1904.89
579.812	1992.27
580.014	1917.1
580.216	1882.8
580.418	1906.83
580.62	1882.61
580.822	1879.9
581.024	1927.56
581.226	1962.82
581.428	1886.1
581.63	1982
581.832	1848.9
582.034	1977.74
582.236	1900.05
582.438	1955.85
582.64	1985.49
582.841	1984.13
583.043	2047.29
583.245	1968.63
583.447	1952.94
583.649	1961.66
583.85	1933.37
584.052	2004.09
584.254	1927.95
584.456	1920
584.657	1861.49
584.859	1924.07
585.061	1909.54
585.262	1928.33
585.464	1820.22
585.666	1952.55
585.867	1844.83
586.069	1926.01
586.27	1880.87
586.472	1918.65
586.674	1847.74
586.875	1844.83
587.077	1855.29
587.278	1886.68
587.48	1868.85
587.681	1994.98
587.883	1889.97
588.084	1802.59
588.285	1816.15
588.487	1861.49
588.688	1865.75
588.89	1761.32
589.091	1737.88
589.292	1738.27
589.494	1715.41
589.695	1657.86
589.896	1590.63
590.098	1593.34
590.299	1662.51
590.5	1597.61
590.702	1676.66
590.903	1693.51
591.104	1758.81
591.305	1759.19
591.507	1753.19
591.708	1798.52
591.909	1734.01
592.11	1813.64
592.311	1769.07
592.512	1730.52
592.714	1700.87
592.915	1719.09
593.116	1724.71
593.317	1738.46
593.518	1743.69
593.719	1747.57
593.92	1769.46
594.121	1782.25
594.322	1730.52
594.523	1746.41
594.724	1699.91
594.925	1718.89
595.126	1790.97
595.327	1728.97
595.528	1786.7
595.729	1746.41
595.929	1733.62
596.13	1747.76
596.331	1713.86
596.532	1737.49
596.733	1809.18
596.934	1789.42
597.135	1772.37
597.335	1778.18
597.536	1720.06
597.737	1720.06
597.938	1681.89
598.138	1751.06
598.339	1757.64
598.54	1747.76
598.74	1720.06
598.941	1709.01
599.142	1778.76
599.342	1739.82
599.543	1705.33
599.744	1715.79
599.944	1672.78
600.145	1728.19
600.345	1718.12
600.546	1786.9
600.746	1779.34
600.947	1793.68
601.147	1715.99
601.348	1789.42
601.548	1696.81
601.749	1759.19
601.949	1652.63
602.15	1673.94
602.35	1676.07
602.551	1757.64
602.751	1649.14
602.951	1676.27
603.152	1613.88
603.352	1753.57
603.552	1688.67
603.753	1751.44
603.953	1742.34
604.153	1720.25
604.354	1715.41
604.554	1716.18
604.754	1751.83
604.954	1642.36
605.155	1718.89
605.355	1708.82
605.555	1707.27
605.755	1768.88
605.955	1687.12
606.155	1725.29
606.356	1710.76
606.556	1733.23
606.756	1683.44
606.956	1643.33
607.156	1708.43
607.356	1660.58
607.556	1697.97
607.756	1665.23
607.956	1740.98
608.156	1680.92
608.356	1653.02
608.556	1715.21
608.756	1649.14
608.956	1647.4
609.156	1680.72
609.356	1633.84
609.556	1610.01
609.755	1654.57
609.955	1588.89
610.155	1619.31
610.355	1651.08
610.555	1647.79
610.755	1637.91
610.954	1528.63
611.154	1617.37
611.354	1619.69
611.554	1606.52
611.753	1620.08
611.953	1556.53
612.153	1629.58
612.352	1620.28
612.552	1528.25
612.752	1523.01
612.951	1579.2
613.151	1560.41
613.351	1541.23
613.55	1559.63
613.75	1575.33
613.949	1548.2
614.149	1549.75
614.348	1538.71
614.548	1503.83
614.747	1491.43
614.947	1499.18
615.146	1436.41
615.346	1587.53
615.545	1561.38
615.745	1514.3
615.944	1580.17
616.144	1541.81
616.343	1559.63
616.542	1498.6
616.742	1539.29
616.941	1524.37
617.14	1417.81
617.34	1489.88
617.539	1446.87
617.738	1469.73
617.938	1552.46
618.137	1483.49
618.336	1465.08
618.535	1501.7
618.734	1492.02
618.934	1488.14
619.133	1462.95
619.332	1537.93
619.531	1472.83
619.73	1467.8
619.929	1557.11
620.128	1542.58
620.328	1572.03
620.527	1501.7
620.726	1498.02
620.925	1513.33
621.124	1488.92
621.323	1474.38
621.522	1442.42
621.721	1443.58
621.92	1415.87
622.119	1480.58
622.318	1429.24
622.517	1449
622.715	1439.12
622.914	1359.69
623.113	1448.03
623.312	1397.47
623.511	1485.23
623.71	1407.54
623.909	1432.34
624.107	1501.7
624.306	1379.64
624.505	1403.86
624.704	1399.99
624.902	1413.93
625.101	1498.02
625.3	1436.22
625.499	1399.99
625.697	1389.52
625.896	1384.49
626.095	1425.95
626.293	1334.5
626.492	1375.38
626.69	1426.33
626.889	1369.18
627.088	1424.4
627.286	1385.84
627.485	1349.8
627.683	1349.42
627.882	1384.87
628.08	1320.74
628.279	1345.35
628.477	1426.53
628.676	1325.59
628.874	1379.25
629.073	1346.7
629.271	1311.06
629.469	1365.11
629.668	1340.89
629.866	1322.1
630.065	1304.66
630.263	1372.67
630.461	1320.16
630.66	1361.24
630.858	1352.9
631.056	1377.9
631.254	1369.18
631.453	1315.71
631.651	1369.18
631.849	1325.2
632.047	1330.43
632.245	1347.48
632.444	1331.79
632.642	1341.67
632.84	1354.07
633.038	1328.1
633.236	1301.37
633.434	1285.29
633.632	1278.51
633.83	1308.73
634.028	1380.22
634.227	1315.71
634.425	1403.47
634.623	1312.8
634.821	1323.26
635.019	1322.49
635.216	1278.7
635.414	1364.72
635.612	1334.3
635.81	1306.6
636.008	1349.42
636.206	1289.36
636.404	1311.64
636.602	1272.11
636.8	1275.21
636.997	1288.39
637.195	1332.95
637.393	1309.12
637.591	1371.7
637.789	1347.09
637.986	1276.76
638.184	1301.17
638.382	1350
638.58	1341.09
638.777	1350.58
638.975	1292.26
639.173	1315.32
639.37	1338.76
639.568	1321.32
639.765	1332.56
639.963	1270.37
640.161	1294.59
640.358	1322.68
640.556	1241.89
640.753	1249.25
640.951	1193.64
641.148	1261.46
641.346	1244.21
641.543	1228.71
641.741	1273.47
641.938	1215.15
642.136	1220.77
642.333	1207.59
642.531	1286.45
642.728	1297.11
642.925	1249.25
643.123	1228.52
643.32	1260.49
643.517	1232.39
643.715	1239.76
643.912	1226
644.109	1242.08
644.306	1226.58
644.504	1195
644.701	1256.42
644.898	1254.87
645.095	1191.9
645.293	1196.16
645.49	1247.51
645.687	1216.7
645.884	1275.41
646.081	1153.15
646.278	1179.11
646.475	1172.72
646.672	1155.09
646.87	1227.94
647.067	1179.5
647.264	1189.77
647.461	1144.82
647.658	1102.58
647.855	1183.96
648.052	1143.85
648.249	1055.89
648.446	1156.25
648.642	1130.68
648.839	1130.68
649.036	1119.05
649.233	1081.85
649.43	1081.85
649.627	1053.76
649.824	1106.65
650.021	1103.55
650.217	1082.05
650.414	1085.92
650.611	1099.29
650.808	1142.3
651.004	1109.36
651.201	1118.66
651.398	1208.76
651.595	1132.81
651.791	1081.66
651.988	1161.48
652.185	1083.01
652.381	1173.49
652.578	1063.06
652.775	1116.15
652.971	1110.91
653.168	1114.01
653.364	1165.55
653.561	1079.53
653.757	1079.14
653.954	1129.32
654.15	1057.05
654.347	1175.63
654.543	1112.08
654.74	1025.47
654.936	1083.79
655.133	1096
655.329	1131.26
655.525	1095.03
655.722	1126.61
655.918	1052.98
656.115	1063.83
656.311	963.67
656.507	949.52
656.704	893.14
656.9	977.62
657.096	954.95
657.292	930.92
657.489	1002.61
657.685	996.02
657.881	981.88
658.077	1010.55
658.273	1038.65
658.47	1115.18
658.666	1039.62
658.862	1061.51
659.058	1047.95
659.254	1105.88
659.45	1056.47
659.646	1055.12
659.842	1059.38
660.038	1098.13
660.234	1030.32
660.43	1077.4
660.626	1156.06
660.822	1118.66
661.018	1102.2
661.214	1060.15
661.41	1050.85
661.606	1094.06
661.802	1136.68
661.998	1079.14
662.194	1065.77
662.39	1099.1
662.586	1114.79
662.781	1093.86
662.977	1091.54
663.173	1105.49
663.369	1061.51
663.564	1072.55
663.76	1102.78
663.956	1062.28
664.152	1098.51
664.347	1025.86
664.543	1039.62
664.739	1038.26
664.934	990.21
665.13	991.57
665.326	1064.41
665.521	1039.03
665.717	1036.9
665.912	1006.29
666.108	974.32
666.304	1046.2
666.499	1033.8
666.695	951.27
666.89	1029.54
667.086	1055.7
667.281	1031.28
667.477	1086.11
667.672	1064.61
667.867	1036.13
668.063	1063.64
668.258	993.5
668.454	1020.63
668.649	1115.37
668.844	1040.2
669.04	1071.58
669.235	1035.74
669.43	1020.63
669.626	986.72
669.821	1041.55
670.016	1010.94
670.211	1040.39
670.407	998.15
670.602	1047.37
670.797	1024.89
670.992	1049.11
671.187	987.3
671.382	1056.47
671.578	993.7
671.773	1036.13
671.968	990.79
672.163	1009.2
672.358	1060.15
672.553	1001.83
672.748	1007.07
672.943	1046.01
673.138	1004.16
673.333	1047.95
673.528	978.2
673.723	1047.17
673.918	1002.03
674.113	972.97
674.308	1081.08
674.503	1006.1
674.698	996.6
674.892	987.3
675.087	1026.83
675.282	1013.07
675.477	981.49
675.672	995.63
675.867	972.58
676.061	940.42
676.256	954.95
676.451	961.73
676.646	994.28
676.84	972.39
677.035	944.49
677.23	962.31
677.424	1000.48
677.619	989.43
677.814	1029.15
678.008	1041.94
678.203	922.79
678.397	943.32
678.592	999.12
678.787	1030.51
678.981	955.92
679.176	974.13
679.37	953.4
679.565	928.99
679.759	945.07
679.954	959.21
680.148	1009.2
680.342	1011.72
680.537	1003.58
680.731	970.25
680.926	996.6
681.12	1035.35
681.314	956.89
681.509	945.65
681.703	993.7
681.897	1000.09
682.092	965.41
682.286	959.4
682.48	1014.82
682.674	984.78
682.869	963.47
683.063	992.34
683.257	1039.03
683.451	961.15
683.645	984.98
683.839	987.11
684.034	957.47
684.228	996.99
684.422	948.17
684.616	936.54
684.81	995.63
685.004	933.64
685.198	943.9
685.392	966.38
685.586	939.06
685.78	955.34
685.974	977.42
686.168	970.45
686.362	974.9
686.556	887.52
686.75	891.2
686.944	883.46
687.138	917.36
687.331	781.93
687.525	783.87
687.719	744.73
687.913	808.28
688.107	780.77
688.301	766.24
688.494	837.34
688.688	774.76
688.882	768.37
689.076	750.74
689.269	796.46
689.463	886.17
689.657	799.18
689.85	805.57
690.044	810.41
690.238	800.34
690.431	808.67
690.625	786.78
690.818	841.61
691.012	854.2
691.205	851.68
691.399	832.69
691.593	847.42
691.786	895.47
691.98	918.14
692.173	942.35
692.366	895.85
692.56	927.44
692.753	953.2
692.947	878.22
693.14	942.55
693.333	949.14
693.527	869.89
693.72	911.74
693.914	931.12
694.107	890.62
694.3	930.54
694.493	900.89
694.687	961.73
694.88	894.69
695.073	972
695.266	963.47
695.46	916.59
695.653	984.59
695.846	958.82
696.039	876.87
696.232	902.64
696.425	976.07
696.618	978.78
696.812	960.57
697.005	1054.34
697.198	1083.98
697.391	1056.67
697.584	1029.35
697.777	1110.72
697.97	1071.97
698.163	1074.68
698.356	1073.52
698.549	1142.5
698.742	1132.61
698.935	1082.05
699.127	1108.4
699.32	1078.17
699.513	1062.67
699.706	1092.9
699.899	1139.78
700.092	1094.25
700.285	1133.2
700.477	1085.15
700.67	1139.01
700.863	1167.88
701.056	1252.93
701.248	1214.38
701.441	1207.59
701.634	1168.65
701.826	1274.63
702.019	1179.89
702.212	1249.83
702.404	1213.21
702.597	1180.28
702.79	1234.53
702.982	1223.48
703.175	1269.4
703.367	1296.52
703.56	1314.93
703.752	1386.42
703.945	1348.84
704.137	1365.11
704.33	1355.23
704.522	1420.13
704.715	1376.35
704.907	1426.53
705.1	1457.92
705.292	1444.55
705.484	1414.13
705.677	1497.83
705.869	1475.35
706.061	1544.71
706.254	1596.25
706.446	1506.35
706.638	1515.65
706.831	1618.92
707.023	1591.99
707.215	1645.08
707.407	1622.41
707.599	1608.46
707.792	1719.28
707.984	1654.57
708.176	1727.03
708.368	1686.54
708.56	1714.44
708.752	1717.73
708.944	1709.21
709.136	1745.63
709.329	1720.25
709.521	1896.37
709.713	1801.82
709.905	1800.27
710.097	1871.76
710.289	1825.84
710.481	1852.58
710.672	1875.05
710.864	1867.3
711.056	1941.9
711.248	1905.28
711.44	1913.03
711.632	1946.74
711.824	1958.95
712.016	2032.96
712.207	2018.43
712.399	2043.61
712.591	2083.72
712.783	2067.83
712.975	2107.16
713.166	2039.54
713.358	2093.41
713.55	2147.66
713.741	2172.65
713.933	2159.09
714.125	2132.16
714.316	2110.46
714.508	2223.02
714.7	2210.62
714.891	2177.88
715.083	2305.95
715.274	2236.78
715.466	2302.07
715.657	2350.9
715.849	2220.12
716.04	2296.07
716.232	2213.14
716.423	2337.72
716.615	2260.8
716.806	2205.59
716.998	2191.83
717.189	2151.34
717.381	2069.19
717.572	2044
717.763	2096.12
717.955	2022.11
718.146	2035.67
718.337	1969.21
718.528	1980.26
718.72	1901.79
718.911	1998.86
719.102	1909.93
719.293	1991.69
719.485	1993.82
719.676	1966.7
719.867	1919.23
720.058	1944.41
720.249	1945
720.44	1969.8
720.632	2042.26
720.823	2049.81
721.014	2158.89
721.205	2168.58
721.396	2240.65
721.587	2371.82
721.778	2398.36
721.969	2418.51
722.16	2489.81
722.351	2492.91
722.542	2641.32
722.733	2631.83
722.924	2590.17
723.115	2601.41
723.305	2606.06
723.496	2602.77
723.687	2508.99
723.878	2545.61
724.069	2525.27
724.26	2552.97
724.45	2464.82
724.641	2470.83
724.832	2508.8
725.023	2531.66
725.213	2497.76
725.404	2483.42
725.595	2477.8
725.785	2488.26
725.976	2576.42
726.167	2569.06
726.357	2582.42
726.548	2662.44
726.739	2593.08
726.929	2655.27
727.12	2698.09
727.31	2734.9
727.501	2687.44
727.691	2701.39
727.882	2706.42
728.072	2743.04
728.263	2738
728.453	2818.41
728.644	2795.93
728.834	2783.92
729.024	2762.8
729.215	2761.83
729.405	2799.42
729.596	2876.92
729.786	2914.7
729.976	2902.11
730.167	2894.16
730.357	2872.27
730.547	2933.3
730.737	2907.34
730.928	2957.71
731.118	3071.25
731.308	2973.21
731.498	2965.08
731.688	3060.4
731.879	3073.38
732.069	3114.45
732.259	3160.95
732.449	3168.32
732.639	3301.81
732.829	3279.53
733.019	3293.09
733.209	3364.39
733.399	3357.22
733.589	3421.54
733.779	3474.44
733.969	3484.9
734.159	3538.18
734.349	3595.72
734.539	3627.5
734.729	3651.52
734.919	3702.09
735.109	3735.22
735.299	3641.25
735.488	3715.26
735.678	3717.98
735.868	3720.69
736.058	3691.82
736.248	3668.18
736.437	3712.75
736.627	3636.22
736.817	3811.17
737.007	3723.4
737.196	3766.03
737.386	3740.26
737.576	3707.71
737.765	3826.67
737.955	3775.33
738.144	3937.49
738.334	3856.7
738.524	3765.25
738.713	3878.4
738.903	3836.36
739.092	3894.48
739.282	3863.67
739.471	3872.39
739.661	3879.56
739.85	3939.43
740.04	3914.05
740.229	3913.47
740.419	3948.34
740.608	4006.08
740.797	3909.98
740.987	4010.15
741.176	3995.62
741.365	3933.04
741.555	3934.2
741.744	4004.14
741.933	3924.32
742.123	4001.43
742.312	4018.67
742.501	4071.95
742.69	4066.33
742.88	4001.82
743.069	4109.54
743.258	4066.53
743.447	4120.2
743.636	4111.28
743.825	4084.74
744.014	4130.85
744.204	4133.95
744.393	4075.05
744.582	4173.28
744.771	4207.19
744.96	4100.05
745.149	4154.1
745.338	4111.67
745.527	4207.58
745.716	4168.25
745.905	4123.68
746.094	4219.2
746.283	4178.9
746.471	4171.15
746.66	4229.86
746.849	4214.94
747.038	4259.89
747.227	4210.09
747.416	4221.14
747.604	4128.53
747.793	4178.51
747.982	4190.33
748.171	4244
748.359	4230.44
748.548	4229.86
748.737	4206.41
748.926	4183.36
749.114	4091.72
749.303	4158.75
749.491	4174.25
749.68	4092.49
749.869	4231.21
750.057	4140.35
750.246	4154.68
750.434	4137.44
750.623	4149.06
750.811	4109.15
751	4145
751.188	4159.72
751.377	4148.1
751.565	4116.71
751.754	4102.76
751.942	4122.71
752.131	4190.53
752.319	4065.17
752.507	4085.32
752.696	4144.22
752.884	4173.28
753.072	4106.83
753.261	4159.53
753.449	4100.82
753.637	4108.77
753.825	4185.3
754.014	4101.21
754.202	4095.59
754.39	4181.23
754.578	4127.17
754.766	4065.37
754.955	4026.23
755.143	4152.55
755.331	4126.2
755.519	4131.24
755.707	4118.26
755.895	4116.32
756.083	4144.41
756.271	4087.07
756.459	4094.23
756.647	4128.91
756.835	4104.89
757.023	4054.32
757.211	4057.23
757.399	4039.4
757.587	4008.99
757.775	3969.46
757.963	3961.9
758.151	4053.93
758.339	3984.57
758.526	3953.38
758.714	3965.97
758.902	3917.92
759.09	3890.02
759.278	3677.87
759.465	3446.73
759.653	3085.2
759.841	2824.61
760.028	2520.04
760.216	2193.19
760.404	2095.73
760.591	1804.53
760.779	1550.72
760.967	1418.97
761.154	1222.13
761.342	1260.87
761.529	1266.3
761.717	1358.14
761.905	1363.37
762.092	1494.15
762.28	1451.91
762.467	1497.63
762.655	1439.51
762.842	1473.22
763.029	1498.41
763.217	1533.86
763.404	1531.15
763.592	1568.16
763.779	1504.22
763.966	1595.67
764.154	1652.44
764.341	1691.77
764.528	1696.81
764.716	1787.67
764.903	1818.48
765.09	1870.6
765.277	1937.44
765.465	2119.95
765.652	2141.65
765.839	2209.85
766.026	2366.2
766.213	2376.08
766.4	2491.94
766.588	2646.75
766.775	2690.73
766.962	2776.75
767.149	2855.8
767.336	3016.03
767.523	2915.28
767.71	3079
767.897	3202.42
768.084	3242.72
768.271	3264.8
768.458	3370.01
768.645	3378.53
768.832	3337.07
769.019	3398.29
769.206	3446.54
769.392	3521.32
769.579	3588.55
769.766	3541.47
769.953	3540.12
770.14	3553.49
770.327	3523.84
770.513	3570.34
770.7	3666.05
770.887	3532.75
771.073	3626.53
771.26	3584.1
771.447	3555.42
771.634	3566.27
771.82	3590.88
772.007	3558.33
772.193	3610.25
772.38	3604.25
772.567	3544.96
772.753	3591.07
772.94	3630.21
773.126	3619.17
773.313	3593.4
773.499	3582.16
773.686	3592.04
773.872	3523.07
774.059	3590.3
774.245	3521.32
774.432	3541.86
774.618	3441.31
774.804	3575.19
774.991	3502.14
775.177	3540.5
775.363	3498.85
775.55	3515.12
775.736	3439.56
775.922	3490.32
776.109	3538.37
776.295	3519.39
776.481	3512.41
776.667	3529.85
776.853	3467.46
777.04	3436.66
777.226	3452.35
777.412	3528.88
777.598	3424.64
777.784	3449.06
777.97	3367.88
778.156	3437.43
778.342	3400.43
778.528	3414.76
778.715	3287.28
778.901	3360.71
779.087	3407.01
779.272	3387.44
779.458	3337.46
779.644	3364.39
779.83	3329.9
780.016	3455.64
780.202	3330.1
780.388	3338.62
780.574	3291.35
780.76	3347.14
780.946	3352.96
781.131	3334.16
781.317	3332.81
781.503	3286.11
781.689	3283.21
781.874	3401.59
782.06	3276.04
782.246	3273.91
782.432	3274.1
782.617	3296.77
782.803	3349.28
782.989	3237.29
783.174	3241.36
783.36	3220.63
783.545	3257.63
783.731	3246.01
783.916	3124.53
784.102	3253.37
784.288	3155.92
784.473	3202.42
784.659	3137.51
784.844	3232.83
785.029	3199.12
785.215	3150.1
785.4	3099.92
785.586	3180.72
785.771	3123.37
785.956	3174.52
786.142	3131.7
786.327	3120.85
786.512	3120.07
786.698	3132.28
786.883	3006.73
787.068	3072.02
787.254	3128.99
787.439	3051.87
787.624	3055.94
787.809	3082.1
787.994	3064.66
788.18	3110
788.365	2993.56
788.55	2996.07
788.735	3058.46
788.92	2992.78
789.105	2975.34
789.29	3049.36
789.475	2967.4
789.66	2960.23
789.845	2937.95
790.03	2931.17
790.215	2971.86
790.4	2965.27
790.585	3007.89
790.77	2954.81
790.955	2844.76
791.14	2915.48
791.325	3019.91
791.51	2827.32
791.695	2914.51
791.879	2884.48
792.064	2856.96
792.249	2986.58
792.434	2871.88
792.618	2886.41
792.803	2913.15
792.988	2893.78
793.173	2870.33
793.357	2907.92
793.542	2808.33
793.727	2860.84
793.911	2941.63
794.096	2896.68
794.281	2878.66
794.465	2991.62
794.65	2865.49
794.834	2958.49
795.019	2927.1
795.203	2930.39
795.388	2951.9
795.572	2996.46
795.757	2922.26
795.941	2980.77
796.126	2941.63
796.31	2870.14
796.494	2942.79
796.679	2911.6
796.863	2907.92
797.048	2959.46
797.232	2957.13
797.416	2942.79
797.601	2945.12
797.785	3024.17
797.969	3018.94
798.153	2920.51
798.338	2999.17
798.522	3037.15
798.706	3034.63
798.89	2970.11
799.074	3106.32
799.258	3024.17
799.443	2983.68
799.627	2989.87
799.811	3000.34
799.995	2938.14
800.179	2906.37
800.363	2948.99
800.547	2978.25
800.731	3027.66
800.915	2909.08
801.099	2926.71
801.283	2921.48
801.467	2937.18
801.651	2905.4
801.835	2966.63
802.019	2966.43
802.202	2993.17
802.386	2929.23
802.57	2907.73
802.754	2909.47
802.938	2880.99
803.121	2928.46
803.305	2979.03
803.489	2949.58
803.673	2985.81
803.856	2954.03
804.04	2931.56
804.224	2992.01
804.407	2899.78
804.591	2877.7
804.775	2918.19
804.958	2955.78
805.142	3026.3
805.326	2941.83
805.509	2967.59
805.693	2974.76
805.876	2962.17
806.06	2948.99
806.243	2981.16
806.427	2990.84
806.61	2983.09
806.794	2936.79
806.977	2990.07
807.16	2918.77
807.344	2944.34
807.527	2937.18
807.71	2905.01
807.894	2914.51
808.077	2983.87
808.26	2873.24
808.444	2905.79
808.627	2937.18
808.81	2867.23
808.993	2877.7
809.177	2837.4
809.36	2847.28
809.543	2907.92
809.726	2761.25
809.909	2801.36
810.092	2758.54
810.276	2780.82
810.459	2781.4
810.642	2777.14
810.825	2706.42
811.008	2780.24
811.191	2634.54
811.374	2699.06
811.557	2692.47
811.74	2794.77
811.923	2611.68
812.106	2616.14
812.289	2582.23
812.472	2654.5
812.654	2655.66
812.837	2595.99
813.02	2583.97
813.203	2508.03
813.386	2425.88
813.569	2402.82
813.751	2377.44
813.934	2449.9
814.117	2402.24
814.3	2313.89
814.482	2291.42
814.665	2217.21
814.848	2205.2
815.03	2163.74
815.213	2118.79
815.396	2104.45
815.578	2105.03
815.761	2044.19
815.943	2126.34
816.126	2031.99
816.309	2038.77
816.491	1932.6
816.674	1882.8
816.856	1926.4
817.039	1907.22
817.221	2030.83
817.403	1968.83
817.586	1924.46
817.768	1966.11
817.951	1866.92
818.133	1887.26
818.315	1967.66
818.498	1956.81
818.68	1998.86
818.862	1967.08
819.045	1997.31
819.227	2007.58
819.409	1951
819.591	1994.98
819.774	1951.2
819.956	1925.23
820.138	1973.28
820.32	1987.81
820.502	2012.61
820.684	2116.85
820.866	2090.11
821.048	2167.03
821.231	2157.92
821.413	2198.42
821.595	2123.24
821.777	2120.34
821.959	2086.63
822.141	2220.31
822.323	2058.73
822.505	2053.69
822.686	1964.56
822.868	1901.21
823.05	1785.74
823.232	1710.56
823.414	1673.36
823.596	1740.98
823.778	1760.16
823.96	1760.94
824.141	1763.45
824.323	1749.31
824.505	1862.85
824.687	1894.23
824.868	1916.52
825.05	2036.44
825.232	2052.53
825.413	2160.06
825.595	2067.64
825.777	1997.5
825.958	2073.26
826.14	2050.01
826.321	2116.07
826.503	2085.46
826.685	2095.15
826.866	2127.51
827.048	2100.77
827.229	2042.64
827.411	2059.11
827.592	1934.15
827.773	1954.88
827.955	1905.28
828.136	1906.05
828.318	1883.97
828.499	1883.97
828.68	1835.34
828.862	1868.66
829.043	1911.09
829.224	1860.52
829.406	1840.37
829.587	1846.19
829.768	1855.29
829.949	1899.08
830.131	1876.8
830.312	1922.72
830.493	1863.23
830.674	1877.96
830.855	1865.95
831.036	1882.61
831.218	1919.42
831.399	1968.63
831.58	1881.64
831.761	1905.86
831.942	1870.02
832.123	1883.38
832.304	1799.88
832.485	1840.95
832.666	1876.41
832.847	1884.55
833.028	1870.02
833.209	1870.4
833.389	1811.89
833.57	1802.01
833.751	1816.35
833.932	1901.6
834.113	1836.3
834.294	1801.43
834.475	1879.51
834.655	1910.7
834.836	1898.5
835.017	1878.93
835.198	1827.39
835.378	1864.59
835.559	1929.11
835.74	1871.57
835.92	1863.62
836.101	1834.17
836.281	1880.28
836.462	1885.13
836.643	1942.86
836.823	1924.07
837.004	1899.08
837.184	1948.87
837.365	1912.83
837.545	1953.91
837.726	1877.96
837.906	1915.93
838.087	1948.87
838.267	1893.07
838.448	1875.05
838.628	1837.85
838.808	1900.82
838.989	1929.88
839.169	1839.02
839.349	1917.48
839.53	1907.41
839.71	1927.75
839.89	1852.77
840.07	1919.23
840.251	1860.91
840.431	1936.86
840.611	1876.41
840.791	1902.95
840.971	1901.79
841.151	1859.36
841.332	1875.83
841.512	1947.71
841.692	1831.65
841.872	1858
842.052	1866.53
842.232	1895.98
842.412	1834.17
842.592	1856.26
842.772	1868.85
842.952	1861.3
843.132	1833.98
843.312	1838.24
843.492	1801.04
843.672	1870.02
843.851	1769.65
844.031	1829.52
844.211	1802.79
844.391	1801.82
844.571	1845.8
844.751	1838.44
844.93	1823.32
845.11	1793.29
845.29	1797.17
845.47	1822.94
845.649	1831.85
845.829	1835.53
846.009	1774.89
846.188	1813.44
846.368	1798.14
846.547	1808.99
846.727	1861.49
846.907	1749.51
847.086	1795.04
847.266	1800.27
847.445	1775.27
847.625	1749.89
847.804	1728.19
847.984	1786.51
848.163	1735.75
848.343	1737.49
848.522	1789.42
848.701	1752.99
848.881	1725.29
849.06	1764.42
849.239	1734.2
849.419	1725.09
849.598	1690.8
849.777	1661.54
849.957	1635.97
850.136	1618.34
850.315	1534.64
850.494	1564.67
850.674	1590.63
850.853	1642.36
851.032	1626.67
851.211	1645.66
851.39	1659.41
851.569	1576.88
851.748	1595.28
851.927	1689.44
852.107	1640.81
852.286	1601.48
852.465	1578.81
852.644	1666.78
852.823	1646.24
853.002	1622.21
853.181	1643.91
853.359	1586.56
853.538	1571.26
853.717	1631.13
853.896	1534.06
854.075	1439.51
854.254	1403.28
854.433	1386.81
854.611	1455.2
854.79	1320.16
854.969	1403.09
855.148	1458.11
855.327	1392.24
855.505	1444.35
855.684	1424.01
855.863	1472.25
856.041	1484.85
856.22	1498.8
856.399	1428.08
856.577	1556.92
856.756	1546.65
856.934	1670.46
857.113	1641.01
857.291	1552.27
857.47	1524.95
857.648	1561.57
857.827	1595.48
858.005	1592.96
858.184	1521.27
858.362	1610.01
858.541	1563.31
858.719	1501.7
858.898	1508.1
859.076	1540.06
859.254	1592.96
859.433	1492.02
859.611	1490.66
859.789	1433.89
859.967	1567.96
860.146	1570.1
860.324	1517.78
860.502	1501.9
860.68	1474.97
860.859	1471.09
861.037	1448.42
861.215	1498.99
861.393	1495.5
861.571	1467.02
861.749	1441.25
861.927	1490.47
862.105	1482.13
862.283	1455.2
862.461	1436.99
862.639	1446.29
862.817	1403.47
862.995	1485.62
863.173	1443.19
863.351	1420.72
863.529	1469.93
863.707	1480.78
863.885	1464.31
864.063	1373.64
864.241	1409.48
864.418	1475.35
864.596	1400.95
864.774	1376.93
864.952	1388.75
865.129	1436.8
865.307	1373.25
865.485	1358.14
865.663	1403.09
865.84	1318.22
866.018	1361.24
866.196	1217.09
866.373	1244.99
866.551	1227.74
866.728	1164.97
866.906	1219.99
867.084	1228.33
867.261	1290.13
867.439	1261.84
867.616	1321.32
867.794	1255.26
867.971	1294.39
868.149	1270.56
868.326	1334.3
868.503	1337.4
868.681	1331.79
868.858	1300.59
869.035	1283.54
869.213	1328.88
869.39	1309.7
869.567	1380.61
869.745	1304.66
869.922	1338.76
870.099	1338.37
870.276	1372.09
870.454	1327.72
870.631	1318.42
870.808	1286.26
870.985	1333.53
871.162	1372.47
871.339	1336.05
871.517	1256.61
871.694	1244.99
871.871	1267.46
872.048	1265.91
872.225	1291.1
872.402	1275.99
872.579	1248.86
872.756	1310.86
872.933	1225.23
873.11	1284.71
873.287	1286.26
873.463	1238.98
873.64	1278.51
873.817	1273.27
873.994	1234.14
874.171	1181.44
874.348	1237.82
874.524	1187.83
874.701	1245.57
874.878	1178.73
875.055	1245.18
875.231	1223.87
875.408	1244.79
875.585	1146.18
875.762	1219.41
875.938	1180.28
876.115	1200.81
876.291	1160.51
876.468	1190.74
876.645	1143.85
876.821	1168.65
876.998	1176.59
877.174	1192.09
877.351	1193.26
877.527	1173.69
877.704	1192.87
877.88	1159.16
878.057	1127.77
878.233	1232.39
878.409	1146.37
878.586	1181.24
878.762	1149.47
878.938	1165.16
879.115	1078.36
879.291	1133.97
879.467	1097.16
879.644	1136.68
879.82	1121.96
879.996	1108.2
880.172	1090.76
880.349	1130.29
880.525	1145.79
880.701	1081.46
880.877	1089.41
881.053	1092.9
881.229	1112.66
881.405	1137.07
881.581	1088.05
881.757	1118.28
881.933	1119.63
882.109	1153.15
882.285	1095.41
882.461	1055.12
882.637	1126.03
882.813	1075.46
882.989	1118.86
883.165	1150.05
883.341	1060.35
883.517	1167.29
883.693	1126.8
883.869	1116.53
884.044	1090.96
884.22	1151.79
884.396	1157.03
884.572	1082.63
884.747	1147.92
884.923	1073.91
885.099	1147.92
885.275	1167.49
885.45	1116.15
885.626	1107.23
885.801	1088.83
885.977	1097.74
886.153	1021.4
886.328	1108.01
886.504	1062.09
886.679	1101.42
886.855	1058.02
887.03	1115.56
887.206	1120.21
887.381	1095.8
887.557	1115.95
887.732	1091.93
887.908	1136.49
888.083	1139.4
888.258	1062.28
888.434	1108.01
888.609	1097.35
888.784	1124.67
888.96	1092.51
889.135	1082.43
889.31	1072.16
889.485	1101.61
889.661	1056.67
889.836	1125.45
890.011	1095.61
890.186	1064.61
890.361	1068.68
890.537	1111.11
890.712	1102.78
890.887	1110.91
891.062	1103.36
891.237	1152.18
891.412	1050.08
891.587	1106.26
891.762	1133.78
891.937	1138.23
892.112	1054.92
892.287	1061.12
892.462	1043.68
892.637	1018.3
892.812	1036.13
892.987	978.2
893.161	992.15
893.336	1010.75
893.511	1027.8
893.686	1047.95
893.861	1032.06
894.035	1029.35
894.21	1033.61
894.385	998.54
894.56	992.53
894.734	956.69
894.909	947
895.084	973.16
895.258	953.2
895.433	942.16
895.608	927.05
895.782	909.61
895.957	894.5
896.131	921.62
896.306	827.27
896.48	825.91
896.655	851.87
896.829	770.69
897.004	785.61
897.178	786
897.353	785.42
897.527	819.52
897.701	801.69
897.876	757.52
898.05	843.16
898.224	811.57
898.399	836.96
898.573	805.76
898.747	687.38
898.921	723.42
899.096	661.81
899.27	631.78
899.444	632.75
899.618	684.09
899.792	684.67
899.967	718.38
900.141	761.98
900.315	717.22
900.489	688.55
900.663	697.07
900.837	711.02
901.011	660.65
901.185	759.46
901.359	658.9
901.533	732.53
901.707	701.33
901.881	694.75
902.055	677.89
902.229	662.97
902.403	751.13
902.576	702.3
902.75	713.73
902.924	803.44
903.098	776.31
903.272	807.12
903.446	830.56
903.619	811.96
903.793	827.27
903.967	799.37
904.14	906.7
904.314	856.72
904.488	828.24
904.661	848.97
904.835	807.12
905.009	872.22
905.182	939.84
905.356	851.87
905.529	824.94
905.703	787.55
905.876	817.58
906.05	760.62
906.223	781.35
906.397	757.13
906.57	710.25
906.744	705.98
906.917	685.06
907.09	712.18
907.264	687
907.437	677.7
907.61	626.16
907.784	679.05
907.957	674.01
908.13	647.86
908.304	690.29
908.477	596.32
908.65	612.21
908.823	602.33
908.996	679.44
909.17	617.44
909.343	618.41
909.516	647.47
909.689	622.87
909.862	591.28
910.035	628.48
910.208	581.6
910.381	579.27
910.554	674.4
910.727	604.07
910.9	611.82
911.073	557.18
911.246	660.65
911.419	650.96
911.592	652.31
911.765	578.3
911.938	610.27
912.11	596.71
912.283	602.72
912.456	687
912.629	620.73
912.802	584.12
912.974	560.09
913.147	526.77
913.32	487.63
913.493	506.04
913.665	552.53
913.838	545.56
914.01	517.47
914.183	573.46
914.356	515.53
914.528	576.17
914.701	624.22
914.873	571.33
915.046	537.42
915.218	499.06
915.391	475.62
915.563	462.44
915.736	519.21
915.908	524.05
916.081	535.87
916.253	523.47
916.425	541.3
916.598	548.66
916.77	571.72
916.942	503.13
917.115	452.95
917.287	523.67
917.459	491.5
917.632	447.33
917.804	413.23
917.976	496.35
918.148	516.69
918.32	501.19
918.493	535.1
918.665	586.25
918.837	528.12
919.009	562.61
919.181	587.41
919.353	552.73
919.525	543.23
919.697	525.41
919.869	555.05
920.041	610.66
920.213	657.35
920.385	551.37
920.557	524.05
920.729	577.53
920.901	556.02
921.073	545.95
921.244	506.81
921.416	575.2
921.588	565.71
921.76	515.92
921.932	577.33
922.103	522.31
922.275	548.66
922.447	536.07
922.619	473.68
922.79	536.65
922.962	527.74
923.134	565.52
923.305	483.17
923.477	475.42
923.648	480.07
923.82	493.64
923.991	441.52
924.163	459.73
924.335	487.63
924.506	458.76
924.677	527.74
924.849	446.56
925.02	507
925.192	524.05
925.363	487.05
925.535	473.29
925.706	431.06
925.877	502.94
926.049	457.4
926.22	486.85
926.391	455.08
926.562	492.09
926.734	440.74
926.905	466.9
927.076	421.56
927.247	437.84
927.419	406.64
927.59	407.61
927.761	421.76
927.932	419.82
928.103	416.33
928.274	346.19
928.445	370.61
928.616	385.14
928.787	348.52
928.958	370.99
929.129	398.12
929.3	357.63
929.471	306.09
929.642	260.36
929.813	225.1
929.984	328.18
930.155	214.45
930.326	289.62
930.496	260.36
930.667	188.87
930.838	273.54
931.009	201.27
931.18	210.57
931.35	219.68
931.521	219.48
931.692	168.14
931.863	123.38
932.033	180.93
932.204	174.73
932.374	152.83
932.545	117.77
932.716	172.79
932.886	187.71
933.057	98.59
933.227	114.86
933.398	181.12
933.568	111.57
933.739	70.88
933.909	69.91
934.08	141.21
934.25	7.72
934.421	59.64
934.591	109.43
934.761	81.15
934.932	15.85
935.102	88.32
935.272	79.4
935.443	98.97
935.613	70.3
935.783	111.37
935.953	42.98
936.123	261.14
936.294	51.12
936.464	89.87
936.634	85.22
936.804	40.07
936.974	44.72
937.144	106.92
937.314	77.66
937.484	85.8
937.655	45.3
937.825	111.37
937.995	50.34
938.165	139.66
938.334	52.28
938.504	117.57
938.674	77.08
938.844	122.61
939.014	167.95
939.184	156.71
939.354	207.86
939.524	182.67
939.694	124.55
939.863	144.7
940.033	199.72
940.203	178.22
940.373	154.58
940.542	188.48
940.712	127.65
940.882	166.59
941.051	164.65
941.221	160.39
941.391	195.65
941.56	118.93
941.73	123.38
941.899	238.86
942.069	134.62
942.238	158.65
942.408	124.55
942.577	164.46
942.747	126.68
942.916	71.85
943.086	99.94
943.255	164.27
943.425	147.6
943.594	114.28
943.763	59.25
943.933	64.87
944.102	31.94
944.271	114.28
944.441	133.46
944.61	89.87
944.779	134.23
944.948	192.75
945.117	70.1
945.287	117.77
945.456	22.25
945.625	89.67
945.794	98.2
945.963	103.43
946.132	125.52
946.301	86.77
946.47	123.38
946.639	51.12
946.808	82.31
946.977	139.85
947.146	164.46
947.315	97.23
947.484	165.82
947.653	112.92
947.822	85.41
947.991	80.18
948.16	196.04
948.329	167.56
948.498	105.17
948.666	122.42
948.835	154.58
949.004	75.72
949.173	48.4
949.341	112.53
949.51	123
949.679	147.41
949.847	150.9
950.016	178.02
950.185	171.82
950.353	89.87
950.522	102.07
950.69	167.17
950.859	109.43
951.028	156.71
951.196	141.4
951.365	104.2
951.533	96.65
951.701	155.74
951.87	143.92
952.038	65.07
952.207	102.46
952.375	157.29
952.543	74.95
952.712	85.99
952.88	65.07
953.048	143.92
953.217	123.58
953.385	108.66
953.553	152.64
953.721	74.75
953.89	113.89
954.058	52.86
954.226	78.24
954.394	98.78
954.562	64.87
954.73	100.72
954.898	109.43
955.067	151.67
955.235	68.17
955.403	119.7
955.571	171.05
955.739	114.47
955.907	73.4
956.075	87.35
956.243	68.36
956.41	133.46
956.578	50.73
956.746	40.27
956.914	84.05
957.082	116.8
957.25	139.27
957.418	61.97
957.585	97.81
957.753	136.17
957.921	72.43
958.089	98.78
958.256	123.19
958.424	113.5
958.592	117.57
958.759	68.17
958.927	123.19
959.095	68.36
959.262	128.23
959.43	98.59
959.597	68.36
959.765	99.17
959.932	105.37
960.1	123.58
960.267	102.07
960.435	79.6
960.602	148.96
960.77	84.25
960.937	65.65
961.104	106.14
961.272	47.63
961.439	87.93
961.606	109.24
961.774	132.3
961.941	106.72
962.108	117.77
962.275	106.33
962.443	151.87
962.61	132.1
962.777	173.57
962.944	133.27
963.111	127.65
963.278	119.7
963.446	126.68
963.613	135.78
963.78	92
963.947	138.88
964.114	138.88
964.281	199.72
964.448	109.63
964.615	87.93
964.782	128.03
964.949	154.38
965.116	135.78
965.282	146.44
965.449	88.12
965.616	70.69
965.783	139.08
965.95	127.84
966.117	77.27
966.283	117.38
966.45	107.88
966.617	130.94
966.784	148.18
966.95	135.98
967.117	131.72
967.284	77.08
967.45	92.39
967.617	193.52
967.784	153.03
967.95	199.91
968.117	131.52
968.283	179.18
968.45	226.65
968.616	123.77
968.783	166.4
968.949	143.15
969.116	179.38
969.282	129.78
969.449	141.79
969.615	112.15
969.781	90.64
969.948	96.07
970.114	79.99
970.28	185.38
970.447	123
970.613	180.35
970.779	119.32
970.945	142.37
971.112	136.56
971.278	134.62
971.444	116.99
971.61	167.17
971.776	107.3
971.942	152.06
972.108	146.83
972.275	123.19
972.441	166.2
972.607	197.01
972.773	104.4
972.939	143.53
973.105	124.16
973.271	96.26
973.437	125.9
973.602	106.14
973.768	147.99
973.934	124.16
974.1	143.92
974.266	50.34
974.432	160.2
974.598	109.63
974.763	137.92
974.929	114.47
975.095	191.97
975.261	93.35
975.426	78.44
975.592	101.69
975.758	179.18
975.923	76.69
976.089	73.01
976.255	155.93
976.42	131.91
976.586	137.33
976.751	133.65
976.917	174.34
977.082	130.75
977.248	43.56
977.413	36.97
977.579	103.23
977.744	104.4
977.91	63.13
978.075	94.13
978.24	146.25
978.406	101.88
978.571	70.88
978.736	100.91
978.902	130.55
979.067	59.25
979.232	57.32
979.397	114.47
979.563	163.3
979.728	67
979.893	98.39
980.058	81.92
980.223	130.55
980.388	84.25
980.554	109.82
980.719	101.49
980.884	95.49
981.049	129.97
981.214	89.87
981.379	135.98
981.544	91.61
981.709	109.05
981.874	82.5
982.039	84.44
982.204	126.29
982.368	103.04
982.533	81.73
982.698	113.89
982.863	126.87
983.028	69.52
983.193	117.18
983.357	131.33
983.522	88.12
983.687	99.94
983.852	84.05
984.016	116.02
984.181	91.42
984.346	133.27
984.51	122.03
984.675	116.6
984.839	143.34
985.004	117.57
985.168	159.62
985.333	124.55
985.498	107.69
985.662	128.42
985.827	102.46
985.991	114.67
986.155	76.69
986.32	117.38
986.484	169.11
986.649	102.85
986.813	48.21
986.977	107.11
987.142	125.13
987.306	69.14
987.47	78.63
987.634	79.79
987.799	93.74
987.963	108.08
988.127	119.51
988.291	186.74
988.455	100.33
988.62	104.01
988.784	103.04
988.948	139.27
989.112	84.64
989.276	117.96
989.44	86.77
989.604	61.19
989.768	85.02
989.932	199.72
990.096	42.79
990.26	43.17
990.424	59.06
990.588	98
990.752	167.17
990.915	141.4
991.079	81.92
991.243	71.65
991.407	104.4
991.571	84.05
991.734	108.66
991.898	101.1
992.062	156.13
992.226	91.42
992.389	69.33
992.553	47.05
992.717	60.42
992.88	56.74
993.044	79.99
993.207	62.55
993.371	126.68
993.535	96.65
993.698	76.5
993.862	103.43
994.025	147.6
994.189	91.22
994.352	76.69
994.515	92
994.679	111.37
994.842	64.49
995.006	94.32
995.169	67.97
995.332	71.07
995.496	120.67
995.659	53.44
995.822	83.86
995.985	97.23
996.149	129.97
996.312	87.93
996.475	140.82
996.638	77.85
996.801	148.18
996.964	161.75
997.128	74.37
997.291	90.25
997.454	89.09
997.617	19.92
997.78	117.77
997.943	46.08
998.106	106.72
998.269	56.93
998.432	90.06
998.595	93.74
998.758	22.05
998.92	51.89
999.083	-4.68
999.246	53.25
999.409	6.56
999.572	1.71
999.735	44.72
999.897	116.02
1000.06	59.45
1000.223	45.11
1000.386	101.3
1000.548	103.82
1000.711	87.93
1000.874	78.82
1001.036	20.7
1001.199	115.63
1001.361	58.48
1001.524	68.17
1001.687	115.05
1001.849	47.24
1002.012	90.84
1002.174	91.61
1002.337	80.18
1002.499	60.22
1002.661	101.1
1002.824	38.14
1002.986	55.77
1003.149	93.16
1003.311	59.25
1003.473	114.08
1003.636	37.17
1003.798	101.1
1003.96	89.48
1004.123	81.92
1004.285	35.81
1004.447	57.32
1004.609	67.2
1004.771	110.6
1004.933	-4.49
1005.096	54.41
1005.258	-29.29
1005.42	21.28
1005.582	107.11
1005.744	65.26
1005.906	-11.27
1006.068	53.44
1006.23	15.27
1006.392	21.86
1006.554	29.61
1006.716	94.71
1006.878	88.51
1007.04	9.46
1007.202	58.67
1007.363	58.48
1007.525	43.95
1007.687	66.42
1007.849	121.06
1008.011	1.13
1008.172	22.83
1008.334	60.03
1008.496	71.85
1008.658	10.82
1008.819	33.29
1008.981	32.32
1009.143	11.98
1009.304	48.02
1009.466	52.67
1009.627	86.57
1009.789	131.72
1009.95	83.86
1010.112	33.1
1010.273	55.38
1010.435	34.07
1010.596	33.29
1010.758	13.92
1010.919	27.67
1011.081	-13.59
1011.242	13.53
1011.403	78.82
1011.565	42.4
1011.726	51.7
1011.887	-2.94
1012.049	52.86
1012.21	84.44
1012.371	118.93
1012.532	-26.38
1012.693	33.29
1012.855	15.08
1013.016	34.65
1013.177	63.71
1013.338	54.99
1013.499	111.76
1013.66	47.24
1013.821	67
1013.982	34.26
1014.143	47.82
1014.304	26.32
1014.465	59.84
1014.626	67
1014.787	55.77
1014.948	124.35
1015.109	-37.04
1015.27	79.6
1015.431	23.99
1015.592	20.89
1015.752	78.82
1015.913	55.19
1016.074	55.19
1016.235	54.99
1016.395	44.53
1016.556	20.31
1016.717	16.05
1016.877	95.68
1017.038	-5.46
1017.199	55.19
1017.359	18.57
1017.52	36.78
1017.681	41.24
1017.841	19.34
1018.002	27.09
1018.162	16.82
1018.323	83.28
1018.483	43.95
1018.644	-4.49
1018.804	-3.71
1018.964	15.85
1019.125	5.59
1019.285	30.97
1019.446	-9.91
1019.606	0.16
1019.766	-27.35
1019.926	73.01
1020.087	47.63
1020.247	-9.53
1020.407	48.79
1020.567	62.94
1020.728	20.12
1020.888	1.13
1021.048	7.33
1021.208	-13.21
1021.368	-4.68
1021.528	54.22
1021.688	87.93
1021.848	57.32
1022.008	7.52
1022.168	18.95
1022.328	9.85
1022.488	59.06
1022.648	31.35
1022.808	35.04
1022.968	50.92
1023.128	28.25
1023.288	-0.23
1023.448	11.59
1023.608	62.94
1023.767	49.57
1023.927	4.04
1024.087	25.74
1024.247	-24.64
1024.406	37.94
1024.566	-10.3
1024.726	16.63
1024.885	44.14
1025.045	44.92
1025.205	5.01
1025.364	10.43
1025.524	31.55
1025.683	24.77
1025.843	17.6
1026.003	24.38
1026.162	85.99
1026.321	57.32
1026.481	67.39
1026.64	23.99
1026.8	25.93
1026.959	22.64
1027.119	30.39
1027.278	24.96
1027.437	-19.99
1027.597	36.39
1027.756	46.66
1027.915	39.69
1028.074	27.48
1028.234	11.79
1028.393	34.07
1028.552	15.27
1028.711	-65.52
1028.87	59.25
1029.03	-3.71
1029.189	24.77
1029.348	-26.58
1029.507	9.07
1029.666	20.12
1029.825	5.97
1029.984	6.56
1030.143	35.62
1030.302	19.73
1030.461	-24.64
1030.62	33.49
1030.779	41.62
1030.938	-12.04
1031.097	-21.54
1031.255	39.1
1031.414	74.75
1031.573	37.17
1031.732	-22.12
1031.891	19.92
1032.049	79.6
1032.208	40.85
1032.367	-5.84
1032.525	2.68
1032.684	19.34
1032.843	3.26
1033.001	-39.94
1033.16	149.93
1033.319	43.37
1033.477	30.39
1033.636	-15.53
1033.794	-42.08
1033.953	74.56
1034.111	40.46
1034.27	13.34
1034.428	31.16
1034.587	-15.92
1034.745	27.67
1034.903	11.21
1035.062	27.67
1035.22	-29.09
1035.378	15.66
1035.537	-10.69
1035.695	61.39
1035.853	0.16
1036.011	28.84
1036.17	32.32
1036.328	-48.66
1036.486	21.67
1036.644	29.8
1036.802	-54.09
1036.96	-9.91
1037.119	4.23
1037.277	-5.26
1037.435	-24.44
1037.593	2.49
1037.751	-2.74
1037.909	32.13
1038.067	32.13
