Data from gum_old_FLMT105791__74__15-44-02-257.txt Node

Date: Mon Mar 20 15:44:02 GMT 2023
User: antho
Spectrometer: FLMT10579
Trigger mode: 0
Integration Time (sec): 1.000000E-1
Scans to average: 10
Electric dark correction enabled: true
Nonlinearity correction enabled: false
Boxcar width: 0
XAxis mode: Wavelengths
Number of Pixels in Spectrum: 3648
>>>>>Begin Spectral Data<<<<<
345.248	-156.22
345.464	-156.22
345.681	-156.22
345.898	-170.56
346.114	-173.47
346.331	-37.07
346.548	38.68
346.764	-26.41
346.981	-7.23
347.197	-29.51
347.414	12.92
347.631	-12.08
347.847	69.1
348.064	15.63
348.28	28.42
348.497	-32.61
348.713	-19.83
348.93	18.73
349.146	40.62
349.363	29.58
349.579	44.3
349.796	-7.43
350.012	8.46
350.229	31.52
350.445	24.54
350.661	7.1
350.878	34.81
351.094	80.92
351.311	33.07
351.527	34.42
351.743	18.73
351.96	47.02
352.176	54.96
352.392	43.72
352.609	56.51
352.825	9.82
353.041	28.61
353.257	36.36
353.474	12.72
353.69	42.75
353.906	31.13
354.122	-0.84
354.339	66.39
354.555	23.38
354.771	16.21
354.987	80.73
355.203	82.08
355.42	29.38
355.636	11.95
355.852	7.69
356.068	20.28
356.284	-6.46
356.5	88.67
356.716	45.85
356.932	10.2
357.148	71.23
357.364	12.34
357.58	52.25
357.796	76.85
358.012	81.89
358.228	56.9
358.444	-13.63
358.66	73.95
358.876	55.93
359.092	7.1
359.308	50.89
359.524	57.87
359.74	24.93
359.956	14.27
360.172	21.05
360.388	69.68
360.604	36.94
360.819	110.76
361.035	28.22
361.251	60.19
361.467	12.92
361.683	62.13
361.898	31.13
362.114	62.32
362.33	47.21
362.546	53.02
362.762	47.21
362.977	43.92
363.193	40.23
363.409	89.06
363.624	17.76
363.84	30.16
364.056	1.49
364.271	79.57
364.487	59.03
364.703	13.5
364.918	27.25
365.134	39.46
365.35	37.91
365.565	142.92
365.781	56.7
365.996	64.45
366.212	111.53
366.427	71.23
366.643	40.43
366.858	49.92
367.074	30.16
367.289	90.61
367.505	150.09
367.72	-0.45
367.936	45.85
368.151	74.53
368.367	82.47
368.582	71.04
368.798	26.48
369.013	100.3
369.228	66.58
369.444	84.6
369.659	131.88
369.874	66.2
370.09	144.66
370.305	6.91
370.52	42.17
370.736	114.25
370.951	80.34
371.166	118.9
371.381	137.69
371.597	84.99
371.812	29.58
372.027	29
372.242	89.06
372.458	147.76
372.673	60
372.888	82.28
373.103	100.88
373.318	129.55
373.533	71.82
373.749	51.67
373.964	-1.61
374.179	95.45
374.394	32.48
374.609	109.02
374.824	39.27
375.039	99.91
375.254	36.55
375.469	113.08
375.684	69.3
375.899	114.44
376.114	90.22
376.329	74.92
376.544	96.42
376.759	127.42
376.974	56.12
377.189	83.05
377.404	43.92
377.619	102.62
377.834	12.92
378.049	23.96
378.264	55.93
378.478	93.13
378.693	66.58
378.908	103.59
379.123	109.98
379.338	122
379.553	114.83
379.767	90.8
379.982	85.38
380.197	122
380.412	93.9
380.626	107.08
380.841	181.09
381.056	100.68
381.271	169.27
381.485	66.39
381.7	43.33
381.915	101.07
382.129	43.33
382.344	55.15
382.559	91.97
382.773	135.56
382.988	11.17
383.202	98.17
383.417	62.52
383.632	191.55
383.846	80.92
384.061	83.05
384.275	53.99
384.49	117.73
384.704	127.03
384.919	78.98
385.133	89.64
385.348	126.45
385.562	95.26
385.777	137.88
385.991	100.68
386.206	87.32
386.42	61.74
386.634	152.8
386.849	125.48
387.063	118.9
387.277	69.3
387.492	66.39
387.706	68.13
387.92	79.95
388.135	128.58
388.349	135.56
388.563	111.92
388.778	109.79
388.992	128.39
389.206	124.13
389.42	154.16
389.635	136.33
389.849	123.16
390.063	155.32
390.277	143.11
390.491	206.08
390.706	148.35
390.92	179.35
391.134	121.22
391.348	159.2
391.562	88.67
391.776	149.51
391.99	138.27
392.205	189.42
392.419	138.85
392.633	115.41
392.847	186.71
393.061	73.75
393.275	162.3
393.489	118.12
393.703	107.27
393.917	126.26
394.131	60
394.345	127.42
394.559	157.65
394.773	105.92
394.986	147.18
395.2	168.3
395.414	189.23
395.628	139.43
395.842	149.7
396.056	182.25
396.27	102.04
396.484	179.93
396.697	167.91
396.911	175.66
397.125	141.76
397.339	162.88
397.553	126.45
397.766	211.7
397.98	154.35
398.194	197.36
398.408	150.28
398.621	218.68
398.835	222.55
399.049	241.15
399.262	278.74
399.476	265.76
399.69	250.06
399.903	307.22
400.117	226.81
400.331	253.55
400.544	211.7
400.758	353.14
400.971	258.39
401.185	272.93
401.398	214.41
401.612	305.09
401.826	287.84
402.039	269.05
402.253	252.39
402.466	302.96
402.68	262.85
402.893	305.09
403.106	259.56
403.32	267.11
403.533	282.23
403.747	236.69
403.96	295.4
404.174	295.21
404.387	260.91
404.6	290.94
404.814	303.73
405.027	266.34
405.24	275.44
405.454	255.88
405.667	311.48
405.88	226.04
406.094	293.46
406.307	337.83
406.52	261.88
406.733	260.53
406.947	238.83
407.16	324.85
407.373	334.92
407.586	263.63
407.799	252.39
408.012	303.92
408.226	300.82
408.439	339.96
408.652	255.88
408.865	315.74
409.078	354.49
409.291	331.63
409.504	266.73
409.717	370.19
409.93	320.97
410.143	311.48
410.357	259.56
410.57	254.13
410.783	268.28
410.996	286.88
411.209	293.66
411.421	350.42
411.634	323.11
411.847	315.74
412.06	339.19
412.273	339.19
412.486	365.92
412.699	434.9
412.912	330.66
413.125	365.92
413.338	341.9
413.55	365.73
413.763	332.02
413.976	340.54
414.189	318.07
414.402	330.47
414.615	437.03
414.827	320.78
415.04	352.17
415.253	382
415.466	382
415.678	419.2
415.891	367.47
416.104	346.16
416.316	359.14
416.529	327.17
416.742	366.31
416.954	430.05
417.167	359.92
417.38	386.85
417.592	407.39
417.805	336.86
418.017	307.41
418.23	381.62
418.442	346.74
418.655	380.07
418.868	366.7
419.08	418.62
419.293	393.44
419.505	374.45
419.718	398.09
419.93	400.02
420.142	357.79
420.355	431.41
420.567	408.35
420.78	419.98
420.992	382.59
421.205	447.3
421.417	341.12
421.629	387.62
421.842	377.74
422.054	368.64
422.266	424.63
422.479	437.03
422.691	373.29
422.903	411.45
423.115	368.06
423.328	380.84
423.54	406.8
423.752	379.29
423.964	377.74
424.177	415.91
424.389	403.9
424.601	481.4
424.813	422.11
425.025	434.9
425.238	432.38
425.45	404.09
425.662	407
425.874	728.42
426.086	400.99
426.298	411.65
426.51	428.89
426.722	426.37
426.934	414.55
427.146	444.59
427.358	394.6
427.57	461.64
427.782	427.92
427.994	413.78
428.206	388.4
428.418	389.17
428.63	446.14
428.842	455.63
429.054	433.15
429.266	441.68
429.478	370.57
429.69	406.22
429.902	371.93
430.114	452.53
430.325	389.56
430.537	370.96
430.749	370.19
430.961	284.55
431.173	344.61
431.384	349.46
431.596	306.44
431.808	363.41
432.02	428.31
432.231	456.79
432.443	523.63
432.655	475
432.867	476.36
433.078	496.9
433.29	542.04
433.502	495.54
433.713	546.69
433.925	516.85
434.136	556.38
434.348	459.89
434.56	399.64
434.771	569.94
434.983	433.35
435.194	460.28
435.406	461.83
435.617	537.58
435.829	573.62
436.04	562.19
436.252	541.65
436.463	580.4
436.675	597.45
436.886	593.38
437.098	591.64
437.309	624.58
437.521	559.86
437.732	578.27
437.943	560.83
438.155	541.65
438.366	490.89
438.578	596.1
438.789	546.5
439	568.58
439.211	521.5
439.423	532.55
439.634	537.39
439.845	571.49
440.057	534.48
440.268	616.63
440.479	553.66
440.69	593
440.902	528.48
441.113	583.89
441.324	587.96
441.535	595.13
441.746	677.08
441.957	570.52
442.168	598.23
442.38	643.56
442.591	646.28
442.802	587.18
443.013	613.34
443.224	620.12
443.435	631.16
443.646	640.46
443.857	610.63
444.068	592.61
444.279	597.45
444.49	689.09
444.701	629.81
444.912	762.91
445.123	672.82
445.334	651.51
445.545	675.34
445.756	616.63
445.967	614.7
446.178	628.65
446.388	663.33
446.599	635.62
446.81	645.31
447.021	612.56
447.232	678.05
447.443	692
447.653	642.98
447.864	710.21
448.075	672.24
448.286	717.38
448.496	701.69
448.707	717.58
448.918	668.56
449.129	761.36
449.339	673.21
449.55	695.68
449.761	684.06
449.971	737.92
450.182	664.68
450.393	724.74
450.603	677.08
450.814	759.81
451.024	741.21
451.235	762.72
451.446	784.42
451.656	779.38
451.867	706.34
452.077	724.55
452.288	787.71
452.498	789.84
452.709	724.36
452.919	728.62
453.13	687.93
453.34	711.96
453.55	651.51
453.761	723.19
453.971	739.66
454.182	766.21
454.392	714.48
454.602	796.04
454.813	768.14
455.023	799.92
455.233	691.81
455.444	738.89
455.654	636.98
455.864	719.32
456.075	728.04
456.285	705.95
456.495	740.05
456.705	748.57
456.916	791.97
457.126	808.64
457.336	762.91
457.546	692.78
457.756	718.54
457.967	808.44
458.177	732.49
458.387	780.54
458.597	703.24
458.807	722.81
459.017	737.34
459.227	723
459.437	737.53
459.647	763.3
459.857	778.22
460.068	737.34
460.278	823.36
460.488	778.61
460.698	836.34
460.908	780.54
461.117	721.84
461.327	751.09
461.537	797.21
461.747	816.58
461.957	804.96
462.167	893.3
462.377	856.69
462.587	791.59
462.797	845.84
463.007	814.26
463.216	838.47
463.426	890.2
463.636	834.6
463.846	747.61
464.056	827.43
464.265	807.67
464.475	792.75
464.685	828.4
464.895	823.55
465.104	810.77
465.314	868.7
465.524	794.69
465.733	778.02
465.943	864.24
466.153	913.07
466.362	863.27
466.572	851.07
466.782	827.82
466.991	821.81
467.201	891.95
467.41	766.79
467.62	855.91
467.829	817.35
468.039	872.57
468.249	839.64
468.458	858.62
468.668	894.47
468.877	891.56
469.086	949.68
469.296	924.5
469.505	861.53
469.715	956.66
469.924	892.92
470.134	935.73
470.343	923.33
470.552	875.29
470.762	881.49
470.971	838.28
471.18	884.39
471.39	877.42
471.599	848.74
471.808	963.63
472.018	914.42
472.227	983.2
472.436	1012.07
472.645	959.18
472.855	944.07
473.064	1058.18
473.273	999.67
473.482	1006.84
473.691	1052.95
473.901	1002.38
474.11	951.23
474.319	1066.9
474.528	979.13
474.737	1064
474.946	1040.16
475.155	1059.35
475.364	1126.58
475.573	1060.51
475.783	1076.01
475.992	1101.58
476.201	1125.03
476.41	1112.04
476.619	1040.75
476.828	1075.04
477.037	1065.35
477.245	1069.03
477.454	1116.89
477.663	1084.34
477.872	1127.93
478.081	1202.91
478.29	1108.94
478.499	1218.02
478.708	1187.99
478.917	1233.52
479.125	1170.36
479.334	1176.17
479.543	1161.84
479.752	1209.11
479.961	1206.21
480.169	1250.38
480.378	1190.12
480.587	1345.32
480.796	1255.8
481.004	1239.34
481.213	1265.3
481.422	1276.92
481.63	1253.09
481.839	1313.35
482.048	1357.13
482.256	1321.49
482.465	1334.27
482.674	1311.02
482.882	1368.57
483.091	1415.45
483.299	1316.25
483.508	1353.07
483.716	1361.01
483.925	1331.37
484.134	1300.56
484.342	1338.92
484.551	1377.09
484.759	1346.09
484.967	1427.66
485.176	1419.52
485.384	1428.43
485.593	1385.42
485.801	1379.03
486.01	1336.79
486.218	1278.28
486.426	1217.64
486.635	1233.14
486.843	1182.18
487.051	1236.24
487.26	1237.01
487.468	1268.59
487.676	1325.17
487.885	1340.28
488.093	1369.92
488.301	1411.97
488.509	1372.25
488.717	1461.18
488.926	1466.02
489.134	1405.57
489.342	1448.39
489.55	1387.75
489.758	1441.41
489.967	1408.87
490.175	1592.34
490.383	1478.23
490.591	1577.43
490.799	1462.34
491.007	1573.55
491.215	1553.01
491.423	1515.62
491.631	1517.56
491.839	1533.83
492.047	1500.12
492.255	1450.71
492.463	1444.51
492.671	1434.83
492.879	1502.83
493.087	1489.85
493.295	1535.19
493.503	1537.51
493.711	1593.51
493.919	1589.63
494.127	1580.33
494.334	1575.1
494.542	1529.96
494.75	1586.92
494.958	1579.56
495.166	1636.91
495.374	1632.06
495.581	1619.08
495.789	1602.03
495.997	1698.71
496.205	1565.41
496.412	1571.61
496.62	1602.81
496.828	1618.89
497.035	1608.42
497.243	1656.09
497.451	1686.31
497.658	1683.79
497.866	1653.57
498.074	1736.69
498.281	1620.05
498.489	1713.82
498.696	1667.32
498.904	1614.24
499.112	1610.56
499.319	1683.02
499.527	1621.6
499.734	1712.08
499.942	1647.56
500.149	1650.08
500.357	1686.51
500.564	1624.89
500.771	1639.42
500.979	1606.49
501.186	1609.59
501.394	1631.87
501.601	1600.87
501.808	1661.12
502.016	1604.74
502.223	1602.61
502.43	1622.37
502.638	1612.88
502.845	1629.74
503.052	1721.96
503.26	1638.84
503.467	1769.04
503.674	1698.32
503.881	1701.81
504.089	1760.13
504.296	1732.62
504.503	1671.59
504.71	1675.85
504.917	1624.51
505.125	1692.9
505.332	1719.64
505.539	1767.69
505.746	1817.67
505.953	1749.09
506.16	1786.28
506.367	1822.13
506.574	1864.36
506.781	1849.45
506.988	1764.39
507.195	1795
507.402	1813.99
507.609	1832.98
507.816	1789.58
508.023	1768.07
508.23	1726.42
508.437	1694.45
508.644	1784.93
508.851	1810.31
509.058	1831.43
509.265	1800.23
509.472	1810.12
509.679	1913.58
509.885	1854.68
510.092	1836.27
510.299	1817.87
510.506	1800.82
510.713	1830.27
510.92	1789
511.126	1819.22
511.333	1891.88
511.54	1836.08
511.746	1899.24
511.953	1876.96
512.16	1920.55
512.367	1842.28
512.573	1847.9
512.78	1869.01
512.987	1864.17
513.193	1840.53
513.4	1778.92
513.606	1844.02
513.813	1835.88
514.02	1819.22
514.226	1908.15
514.433	1888.58
514.639	1840.15
514.846	1816.32
515.052	1787.64
515.259	1826.97
515.465	1871.53
515.672	1853.71
515.878	1952.33
516.085	1870.37
516.291	1925.78
516.497	1891.68
516.704	1853.13
516.91	1818.64
517.117	1748.89
517.323	1650.47
517.529	1701.42
517.736	1692.7
517.942	1697.94
518.148	1718.67
518.354	1793.07
518.561	1778.34
518.767	1801.4
518.973	1820.58
519.179	1829.88
519.386	1813.99
519.592	1785.51
519.798	1810.5
520.004	1929.66
520.21	1866.5
520.417	1926.56
520.623	1958.91
520.829	1991.85
521.035	1983.91
521.241	1955.23
521.447	2026.53
521.653	2093.57
521.859	2001.54
522.065	2051.33
522.271	2161.19
522.477	2055.21
522.683	2112.56
522.889	2060.82
523.095	2026.53
523.301	2024.21
523.507	1970.93
523.713	2012.78
523.919	1974.99
524.125	2101.71
524.331	2092.21
524.537	2155.95
524.742	2178.62
524.948	2197.8
525.154	2175.72
525.36	2282.67
525.566	2160.41
525.772	2255.93
525.977	2140.45
526.183	2196.84
526.389	2249.73
526.595	2128.64
526.8	2128.05
527.006	2025.37
527.212	1979.45
527.417	1973.64
527.623	1987.98
527.829	2052.69
528.034	2098.41
528.24	2093.57
528.446	2110.42
528.651	2205.17
528.857	2199.94
529.062	2234.03
529.268	2264.07
529.473	2263.68
529.679	2275.11
529.884	2364.43
530.09	2297
530.295	2294.87
530.501	2307.27
530.706	2306.11
530.912	2281.7
531.117	2324.51
531.323	2325.68
531.528	2344.08
531.733	2365.4
531.939	2353.96
532.144	2377.99
532.35	2306.11
532.555	2370.43
532.76	2337.69
532.966	2327.03
533.171	2312.5
533.376	2255.54
533.581	2213.88
533.787	2269.3
533.992	2310.56
534.197	2343.7
534.402	2330.52
534.607	2328.97
534.813	2435.53
535.018	2295.45
535.223	2384.19
535.428	2366.95
535.633	2386.51
535.838	2422.16
536.043	2415.77
536.249	2574.84
536.454	2412.28
536.659	2460.53
536.864	2402.59
537.069	2397.75
537.274	2414.22
537.479	2372.37
537.684	2390.39
537.889	2323.93
538.094	2474.28
538.299	2362.49
538.504	2409.18
538.708	2442.51
538.913	2459.17
539.118	2433.01
539.323	2444.83
539.528	2397.36
539.733	2429.91
539.938	2450.26
540.142	2446.38
540.347	2368.11
540.552	2372.37
540.757	2375.08
540.962	2388.06
541.166	2269.49
541.371	2320.25
541.576	2386.51
541.781	2284.99
541.985	2449.87
542.19	2420.42
542.395	2517.68
542.599	2492.49
542.804	2442.12
543.008	2510.71
543.213	2423.13
543.418	2410.93
543.622	2470.6
543.827	2451.42
544.031	2535.31
544.236	2520.78
544.44	2487.46
544.645	2602.74
544.849	2508.96
545.054	2549.46
545.258	2563.02
545.463	2584.52
545.667	2517.87
545.872	2557.01
546.076	2524.27
546.281	2523.49
546.485	2437.66
546.689	2552.75
546.894	2550.42
547.098	2485.91
547.302	2452.58
547.507	2486.68
547.711	2537.44
547.915	2559.34
548.119	2458.59
548.324	2468.86
548.528	2568.44
548.732	2502.37
548.936	2542.09
549.141	2529.69
549.345	2476.8
549.549	2507.22
549.753	2532.6
549.957	2589.37
550.161	2618.62
550.366	2574.06
550.57	2555.46
550.774	2552.75
550.978	2521.94
551.182	2572.51
551.386	2533.37
551.59	2517.49
551.794	2495.4
551.998	2531.44
552.202	2514.97
552.406	2519.04
552.61	2562.82
552.814	2564.57
553.018	2592.66
553.222	2510.71
553.426	2491.72
553.63	2582.78
553.833	2504.12
554.037	2450.26
554.241	2524.85
554.445	2504.31
554.649	2530.27
554.853	2527.76
555.056	2551.97
555.26	2549.84
555.464	2545.77
555.668	2549.07
555.871	2552.17
556.075	2553.52
556.279	2511.87
556.483	2497.14
556.686	2497.72
556.89	2487.84
557.094	2509.93
557.297	2431.66
557.501	2503.73
557.704	2414.8
557.908	2528.92
558.112	2423.71
558.315	2542.87
558.519	2456.07
558.722	2450.45
558.926	2467.5
559.129	2362.1
559.333	2357.84
559.536	2389.81
559.74	2375.66
559.943	2316.76
560.147	2342.34
560.35	2399.11
560.553	2390.97
560.757	2325.1
560.96	2454.52
561.164	2368.5
561.367	2493.66
561.57	2418.48
561.774	2392.71
561.977	2394.84
562.18	2363.65
562.384	2489.39
562.587	2370.63
562.79	2416.35
562.993	2316.18
563.197	2381.28
563.4	2461.69
563.603	2428.75
563.806	2493.66
564.009	2360.55
564.212	2417.32
564.416	2292.93
564.619	2367.14
564.822	2286.54
565.025	2415.96
565.228	2325.29
565.431	2342.53
565.634	2248.37
565.837	2271.62
566.04	2244.5
566.243	2253.22
566.446	2174.75
566.649	2270.27
566.852	2191.6
567.055	2254.38
567.258	2242.17
567.461	2329.36
567.664	2319.48
567.867	2193.74
568.07	2251.28
568.273	2265.42
568.475	2313.08
568.678	2209.82
568.881	2211.56
569.084	2205.75
569.287	2099.77
569.489	2148.2
569.692	2182.11
569.895	2236.17
570.098	2147.04
570.3	2190.05
570.503	2074.39
570.706	2138.9
570.909	2105
571.111	2041.26
571.314	2071.67
571.516	2102.09
571.719	2089.69
571.922	2055.59
572.124	2086.4
572.327	2137.55
572.529	2088.92
572.732	2074.19
572.935	2118.95
573.137	2190.64
573.34	2148.4
573.542	2186.37
573.745	2125.92
573.947	2126.12
574.15	2120.89
574.352	2079.04
574.554	2173.2
574.757	2081.17
574.959	2047.46
575.162	2068.57
575.364	2052.88
575.566	2163.7
575.769	2005.61
575.971	2033.12
576.173	1941.48
576.376	2040.48
576.578	2049.01
576.78	2086.98
576.982	1936.83
577.185	2005.22
577.387	1974.41
577.589	1994.76
577.791	2011.42
577.993	2065.86
578.196	2016.26
578.398	1989.33
578.6	2038.74
578.802	1921.33
579.004	1923.46
579.206	1915.32
579.408	1969.18
579.61	1934.11
579.812	1966.28
580.014	1893.81
580.216	1970.73
580.418	1910.48
580.62	1914.93
580.822	1879.86
581.024	1936.83
581.226	1942.45
581.428	1916.1
581.63	2008.9
581.832	1906.41
582.034	1990.11
582.236	1957.36
582.438	1979.84
582.64	1999.02
582.841	2015.1
583.043	2103.45
583.245	1998.44
583.447	2015.1
583.649	1945.93
583.85	1989.33
584.052	1998.63
584.254	1924.23
584.456	1974.22
584.657	1899.82
584.859	1965.89
585.061	1914.93
585.262	1948.26
585.464	1879.48
585.666	1957.75
585.867	1914.93
586.069	2002.31
586.27	1908.15
586.472	1897.69
586.674	1884.13
586.875	1905.25
587.077	1862.04
587.278	1932.18
587.48	1882.96
587.681	2005.22
587.883	1915.51
588.084	1824.26
588.285	1826.97
588.487	1852.16
588.688	1875.6
588.89	1808.95
589.091	1735.33
589.292	1779.7
589.494	1705.1
589.695	1658.61
589.896	1592.73
590.098	1636.71
590.299	1706.65
590.5	1666.74
590.702	1690.77
590.903	1738.62
591.104	1788.8
591.305	1773.11
591.507	1808.18
591.708	1790.35
591.909	1771.17
592.11	1851.38
592.311	1834.92
592.512	1761.87
592.714	1724.09
592.915	1726.61
593.116	1698.32
593.317	1740.95
593.518	1749.09
593.719	1768.85
593.92	1786.48
594.121	1771.37
594.322	1739.79
594.523	1777.37
594.724	1695.42
594.925	1732.23
595.126	1739.4
595.327	1742.5
595.528	1760.9
595.729	1745.21
595.929	1730.49
596.13	1713.24
596.331	1744.24
596.532	1749.86
596.733	1808.18
596.934	1792.29
597.135	1799.07
597.335	1761.1
597.536	1722.15
597.737	1768.85
597.938	1691.15
598.138	1718.28
598.339	1713.82
598.54	1699.1
598.74	1703.94
598.941	1721.19
599.142	1764.78
599.342	1729.32
599.543	1680.31
599.744	1690.96
599.944	1703.94
600.145	1716.34
600.345	1705.49
600.546	1795.78
600.746	1772.34
600.947	1826.39
601.147	1777.18
601.348	1765.55
601.548	1682.24
601.749	1672.75
601.949	1651.63
602.15	1693.48
602.35	1647.56
602.551	1696.19
602.751	1672.94
602.951	1671.59
603.152	1607.84
603.352	1755.87
603.552	1689.41
603.753	1705.69
603.953	1717.31
604.153	1717.7
604.354	1682.05
604.554	1675.27
604.754	1723.51
604.954	1685.73
605.155	1730.1
605.355	1726.42
605.555	1745.02
605.755	1786.28
605.955	1747.34
606.155	1753.35
606.356	1720.6
606.556	1768.27
606.756	1745.79
606.956	1658.61
607.156	1786.87
607.356	1698.9
607.556	1772.14
607.756	1706.27
607.956	1760.52
608.156	1730.1
608.356	1676.24
608.556	1743.47
608.756	1688.83
608.956	1663.06
609.156	1691.93
609.356	1634
609.556	1634.39
609.755	1664.61
609.955	1646.59
610.155	1671.78
610.355	1698.13
610.555	1640.2
610.755	1670.04
610.954	1603.19
611.154	1651.44
611.354	1688.44
611.554	1591.18
611.753	1619.47
611.953	1585.37
612.153	1648.92
612.352	1640.01
612.552	1573.55
612.752	1557.66
612.951	1580.33
613.151	1607.65
613.351	1580.33
613.55	1574.13
613.75	1616.56
613.949	1576.84
614.149	1595.25
614.348	1586.73
614.548	1554.95
614.747	1537.51
614.947	1535.96
615.146	1512.71
615.346	1613.27
615.545	1596.61
615.745	1572.78
615.944	1565.61
616.144	1566.96
616.343	1601.64
616.542	1524.92
616.742	1539.64
616.941	1537.9
617.14	1488.3
617.34	1508.26
617.539	1526.47
617.738	1482.88
617.938	1569.09
618.137	1526.47
618.336	1488.88
618.535	1544.49
618.734	1521.43
618.934	1549.53
619.133	1526.08
619.332	1553.21
619.531	1472.61
619.73	1492.95
619.929	1560.76
620.128	1522.98
620.328	1570.26
620.527	1502.64
620.726	1493.34
620.925	1553.59
621.124	1510
621.323	1539.06
621.522	1471.64
621.721	1473
621.92	1462.73
622.119	1508.65
622.318	1495.86
622.517	1468.73
622.715	1477.06
622.914	1427.85
623.113	1502.45
623.312	1400.34
623.511	1499.15
623.71	1429.6
623.909	1412.74
624.107	1503.8
624.306	1407.32
624.505	1427.66
624.704	1415.84
624.902	1425.72
625.101	1494.5
625.3	1466.41
625.499	1406.73
625.697	1395.88
625.896	1384.07
626.095	1437.93
626.293	1376.51
626.492	1404.99
626.69	1460.6
626.889	1406.93
627.088	1435.21
627.286	1389.1
627.485	1380
627.683	1415.26
627.882	1419.13
628.08	1347.45
628.279	1373.8
628.477	1461.37
628.676	1349.19
628.874	1411.58
629.073	1364.5
629.271	1334.08
629.469	1419.72
629.668	1385.62
629.866	1374.96
630.065	1362.37
630.263	1394.14
630.461	1295.72
630.66	1357.91
630.858	1375.35
631.056	1420.49
631.254	1439.48
631.453	1336.21
631.651	1412.74
631.849	1342.99
632.047	1335.24
632.245	1333.3
632.444	1362.17
632.642	1368.37
632.84	1402.08
633.038	1336.4
633.236	1304.24
633.434	1307.54
633.632	1316.06
633.83	1332.34
634.028	1394.92
634.227	1348.42
634.425	1433.47
634.623	1362.17
634.821	1336.79
635.019	1363.92
635.216	1332.53
635.414	1399.76
635.612	1367.79
635.81	1324.2
636.008	1383.48
636.206	1299.79
636.404	1326.33
636.602	1268.01
636.8	1311.99
636.997	1356.94
637.195	1353.07
637.393	1344.54
637.591	1389.49
637.789	1356.75
637.986	1295.33
638.184	1327.88
638.382	1365.08
638.58	1371.67
638.777	1387.75
638.975	1347.25
639.173	1310.25
639.37	1313.93
639.568	1330.59
639.765	1334.08
639.963	1320.32
640.161	1312.38
640.358	1362.56
640.556	1272.85
640.753	1284.87
640.951	1244.76
641.148	1302.69
641.346	1290.1
641.543	1278.28
641.741	1283.12
641.938	1250.19
642.136	1295.72
642.333	1261.04
642.531	1322.65
642.728	1353.45
642.925	1281.96
643.123	1291.07
643.32	1277.7
643.517	1272.08
643.715	1290.68
643.912	1271.11
644.109	1277.5
644.306	1264.72
644.504	1242.05
644.701	1252.32
644.898	1294.94
645.095	1235.46
645.293	1264.52
645.49	1296.3
645.687	1277.12
645.884	1307.34
646.081	1183.73
646.278	1278.86
646.475	1256.39
646.672	1244.76
646.87	1275.37
647.067	1233.14
647.264	1245.92
647.461	1208.53
647.658	1139.56
647.855	1253.09
648.052	1145.56
648.249	1129.68
648.446	1188.96
648.642	1160.29
648.839	1186.25
649.036	1191.67
649.233	1168.42
649.43	1157.96
649.627	1128.71
649.824	1170.56
650.021	1144.98
650.217	1162.03
650.414	1132.97
650.611	1183.73
650.808	1191.48
651.004	1168.62
651.201	1201.75
651.398	1274.6
651.595	1159.51
651.791	1121.34
651.988	1205.82
652.185	1132.97
652.381	1208.14
652.578	1129.09
652.775	1193.03
652.971	1159.13
653.168	1156.8
653.364	1194.39
653.561	1113.4
653.757	1192.06
653.954	1167.07
654.15	1141.11
654.347	1233.33
654.543	1178.11
654.74	1114.95
654.936	1103.33
655.133	1136.65
655.329	1157.58
655.525	1121.73
655.722	1160.09
655.918	1086.08
656.115	1124.06
656.311	1028.35
656.507	992.31
656.704	898.34
656.9	987.85
657.096	991.34
657.292	970.61
657.489	1025.25
657.685	1062.83
657.881	1040.94
658.077	1025.05
658.273	1069.81
658.47	1125.61
658.666	1064.77
658.862	1091.89
659.058	1048.11
659.254	1150.02
659.45	1111.46
659.646	1079.69
659.842	1096.54
660.038	1127.16
660.234	1040.36
660.43	1045.98
660.626	1157.19
660.822	1097.13
661.018	1141.49
661.214	1072.52
661.41	1084.53
661.606	1080.27
661.802	1117.86
661.998	1089.18
662.194	1077.17
662.39	1144.98
662.586	1113.01
662.781	1139.17
662.977	1124.44
663.173	1111.85
663.369	1113.4
663.564	1107.2
663.76	1107.39
663.956	1101.19
664.152	1138.98
664.347	1040.75
664.543	1119.02
664.739	1064.38
664.934	1024.47
665.13	1017.88
665.326	1121.73
665.521	1086.47
665.717	1042.68
665.912	1029.7
666.108	988.24
666.304	1080.46
666.499	1067.29
666.695	971.58
666.89	1010.91
667.086	1106.81
667.281	1031.25
667.477	1137.43
667.672	1025.63
667.867	1053.53
668.063	1060.12
668.258	1006.26
668.454	1056.05
668.649	1088.6
668.844	1068.45
669.04	1047.72
669.235	1020.01
669.43	992.5
669.626	988.63
669.821	1044.04
670.016	983.2
670.211	1026.02
670.407	971
670.602	1059.35
670.797	1004.51
670.992	1037.45
671.187	1000.06
671.382	1083.95
671.578	1007.23
671.773	1001.61
671.968	965.18
672.163	980.3
672.358	1051.6
672.553	990.18
672.748	984.56
672.943	1087.24
673.138	999.28
673.333	1055.08
673.528	977.78
673.723	999.48
673.918	1009.75
674.113	955.69
674.308	1094.41
674.503	1019.82
674.698	1048.11
674.892	1017.5
675.087	1037.26
675.282	1024.47
675.477	984.37
675.672	1050.63
675.867	994.05
676.061	958.02
676.256	971
676.451	981.85
676.646	968.87
676.84	993.47
677.035	956.47
677.23	975.07
677.424	1060.9
677.619	1008.78
677.814	1020.6
678.008	1031.45
678.203	956.08
678.397	972.35
678.592	974.68
678.787	1060.7
678.981	960.15
679.176	993.86
679.37	961.5
679.565	962.28
679.759	967.51
679.954	976.03
680.148	1073.68
680.342	1022.34
680.537	991.15
680.731	960.53
680.926	990.18
681.12	1010.33
681.314	936.9
681.509	960.34
681.703	942.13
681.897	1002.58
682.092	964.41
682.286	946
682.48	1030.86
682.674	1004.32
682.869	938.45
683.063	999.48
683.257	1048.11
683.451	942.32
683.645	969.25
683.839	958.6
684.034	942.9
684.228	1009.36
684.422	933.8
684.616	919.07
684.81	966.15
685.004	932.05
685.198	948.72
685.392	972.93
685.586	948.33
685.78	959.95
685.974	972.35
686.168	962.08
686.362	1007.81
686.556	886.33
686.75	889.82
686.944	865.79
687.138	890.79
687.331	782.48
687.525	806.51
687.719	711.96
687.913	806.89
688.107	769.31
688.301	808.64
688.494	862.11
688.688	763.49
688.882	736.95
689.076	743.15
689.269	778.41
689.463	868.7
689.657	797.4
689.85	806.51
690.044	831.69
690.238	780.35
690.431	816
690.625	798.56
690.818	847.97
691.012	862.89
691.205	871.02
691.399	829.17
691.593	849.52
691.786	910.74
691.98	898.92
692.173	925.08
692.366	897.57
692.56	895.44
692.753	945.81
692.947	870.83
693.14	918.88
693.333	927.79
693.527	861.34
693.72	928.57
693.914	869.28
694.107	910.16
694.3	972.16
694.493	906.87
694.687	956.27
694.88	921.78
695.073	976.03
695.266	938.25
695.46	947.17
695.653	976.42
695.846	991.15
696.039	895.05
696.232	961.12
696.425	980.1
696.618	1002.96
696.812	1001.41
697.005	1033.38
697.198	1145.18
697.391	1014.4
697.584	1066.71
697.777	1093.06
697.97	1066.13
698.163	1116.11
698.356	1082.79
698.549	1158.16
698.742	1115.73
698.935	1079.3
699.127	1114.56
699.32	1065.16
699.513	1096.16
699.706	1103.91
699.899	1122.7
700.092	1113.21
700.285	1189.93
700.477	1071.75
700.67	1144.21
700.863	1197.29
701.056	1250.57
701.248	1203.11
701.441	1216.47
701.634	1166.68
701.826	1292.42
702.019	1141.11
702.212	1245.34
702.404	1188.77
702.597	1194.19
702.79	1228.29
702.982	1243.21
703.175	1285.84
703.367	1281.38
703.56	1313.54
703.752	1394.14
703.945	1319.74
704.137	1351.13
704.33	1397.82
704.522	1396.27
704.715	1399.95
704.907	1418.36
705.1	1437.35
705.292	1486.75
705.484	1429.21
705.677	1478.61
705.869	1485.98
706.061	1509.23
706.254	1533.64
706.446	1512.13
706.638	1523.95
706.831	1559.41
707.023	1514.07
707.215	1627.8
707.407	1627.41
707.599	1615.98
707.792	1687.86
707.984	1641.75
708.176	1678.37
708.368	1639.62
708.56	1694.45
708.752	1683.6
708.944	1700.84
709.136	1703.55
709.329	1708.98
709.521	1823.29
709.713	1771.75
709.905	1814.18
710.097	1862.04
710.289	1807.21
710.481	1795.78
710.672	1852.93
710.864	1839.95
711.056	1902.53
711.248	1900.4
711.44	1917.06
711.632	1921.91
711.824	1929.46
712.016	2047.26
712.207	1992.24
712.399	2014.71
712.591	2066.44
712.783	2036.03
712.975	2087.37
713.166	2041.06
713.358	2059.86
713.55	2132.7
713.741	2135.61
713.933	2151.5
714.125	2147.82
714.316	2123.21
714.508	2204.78
714.7	2213.69
714.891	2227.64
715.083	2301.26
715.274	2216.02
715.466	2272.2
715.657	2325.1
715.849	2184.44
716.04	2254.96
716.232	2203.04
716.423	2344.28
716.615	2219.31
716.806	2221.44
716.998	2184.05
717.189	2147.04
717.381	2037.77
717.572	2030.02
717.763	2095.7
717.955	2076.32
718.146	2003.28
718.337	1956.59
718.528	1973.25
718.72	1887.03
718.911	1953.1
719.102	1904.86
719.293	1988.36
719.485	1958.91
719.676	1939.54
719.867	1876.18
720.058	1952.13
720.249	1924.62
720.44	1928.69
720.632	2013.74
720.823	2006.58
721.014	2152.08
721.205	2177.27
721.396	2218.73
721.587	2336.72
721.778	2377.6
721.969	2452
722.16	2493.07
722.351	2463.04
722.542	2606.8
722.733	2620.75
722.924	2554.49
723.115	2635.48
723.305	2598.86
723.496	2629.09
723.687	2480.87
723.878	2486.1
724.069	2497.34
724.26	2539.19
724.45	2465.95
724.641	2445.8
724.832	2482.03
725.023	2483
725.213	2486.1
725.404	2454.13
725.595	2531.05
725.785	2468.66
725.976	2580.45
726.167	2543.26
726.357	2552.75
726.548	2672.48
726.739	2557.4
726.929	2655.82
727.12	2698.25
727.31	2757.15
727.501	2654.66
727.691	2668.22
727.882	2748.63
728.072	2724.22
728.263	2751.34
728.453	2806.17
728.644	2785.83
728.834	2817.21
729.024	2767.81
729.215	2759.48
729.405	2777.69
729.596	2840.85
729.786	2874.56
729.976	2912.15
730.167	2908.28
730.357	2880.18
730.547	2921.06
730.737	2914.67
730.928	2969.69
731.118	3013.67
731.308	2980.54
731.498	2936.76
731.688	3069.86
731.879	3089.43
732.069	3123.72
732.259	3140.97
732.449	3166.93
732.639	3257.99
732.829	3277.94
733.019	3342.27
733.209	3369.01
733.399	3369.39
733.589	3433.33
733.779	3426.16
733.969	3468.98
734.159	3544.93
734.349	3597.24
734.539	3624.17
734.729	3612.35
734.919	3654.78
735.109	3701.86
735.299	3616.23
735.488	3650.71
735.678	3650.33
735.868	3653.81
736.058	3715.43
736.248	3694.7
736.437	3619.13
736.627	3601.89
736.817	3757.08
737.007	3675.71
737.196	3787.31
737.386	3727.24
737.576	3731.31
737.765	3801.84
737.955	3759.41
738.144	3880.89
738.334	3842.52
738.524	3767.54
738.713	3853.96
738.903	3834.39
739.092	3843.11
739.282	3826.06
739.471	3892.9
739.661	3840.39
739.85	3896
740.04	3908.79
740.229	3923.12
740.419	3939.59
740.608	3941.53
740.797	3928.94
740.987	3963.81
741.176	3998.3
741.365	3943.47
741.555	3920.8
741.744	4025.62
741.933	3956.64
742.123	3952.57
742.312	4042.08
742.501	4040.53
742.69	4048.67
742.88	3989.97
743.069	4106.8
743.258	4086.26
743.447	4147.09
743.636	4126.95
743.825	4060.68
744.014	4107.38
744.204	4173.83
744.393	4035.69
744.582	4154.65
744.771	4182.16
744.96	4119.97
745.149	4150.78
745.338	4135.28
745.527	4181.78
745.716	4125.78
745.905	4077.54
746.094	4181.58
746.283	4179.26
746.471	4126.36
746.66	4239.12
746.849	4204.06
747.038	4228.66
747.227	4154.07
747.416	4232.34
747.604	4196.11
747.793	4192.82
747.982	4216.07
748.171	4215.49
748.359	4221.49
748.548	4208.51
748.737	4230.41
748.926	4195.73
749.114	4100.79
749.303	4184.29
749.491	4175.77
749.68	4100.79
749.869	4235.64
750.057	4155.23
750.246	4137.99
750.434	4122.68
750.623	4114.55
750.811	4129.85
751	4209.87
751.188	4156.01
751.377	4147.29
751.565	4162.98
751.754	4112.61
751.942	4097.11
752.131	4178.87
752.319	4086.26
752.507	4103.31
752.696	4164.34
752.884	4173.25
753.072	4096.14
753.261	4150.19
753.449	4073.47
753.637	4051.58
753.825	4220.72
754.014	4081.41
754.202	4128.11
754.39	4169.96
754.578	4177.51
754.766	4093.23
754.955	4084.32
755.143	4178.09
755.331	4035.88
755.519	4104.08
755.707	4107.18
755.895	4044.02
756.083	4081.8
756.271	4023.48
756.459	4030.85
756.647	4082.77
756.835	4063.2
757.023	4065.14
757.211	4036.08
757.399	3986.87
757.587	4069.79
757.775	3989.77
757.963	3939.4
758.151	3979.12
758.339	3977.57
758.526	3996.36
758.714	3990.55
758.902	3876.24
759.09	3854.92
759.278	3665.25
759.465	3432.17
759.653	3093.5
759.841	2857.13
760.028	2464.59
760.216	2227.64
760.404	2084.85
760.591	1788.8
760.779	1572
760.967	1411.58
761.154	1241.08
761.342	1247.67
761.529	1298.24
761.717	1343.96
761.905	1408.09
762.092	1520.46
762.28	1469.12
762.467	1499.93
762.655	1416.42
762.842	1454.98
763.029	1494.11
763.217	1524.53
763.404	1540.23
763.592	1564.44
763.779	1540.03
763.966	1611.52
764.154	1641.56
764.341	1695.61
764.528	1690.77
764.716	1744.63
764.903	1839.95
765.09	1897.5
765.277	1958.33
765.465	2099.19
765.652	2173.39
765.839	2207.49
766.026	2365.4
766.213	2390.39
766.4	2491.72
766.588	2658.73
766.775	2681.4
766.962	2778.66
767.149	2826.13
767.336	2971.05
767.523	2924.16
767.71	3032.08
767.897	3200.06
768.084	3267.48
768.271	3238.42
768.458	3339.36
768.645	3332
768.832	3332.58
769.019	3393.61
769.206	3405.24
769.392	3488.55
769.579	3590.27
769.766	3537.18
769.953	3533.69
770.14	3577.48
770.327	3554.62
770.513	3547.83
770.7	3653.04
770.887	3515.09
771.073	3654.4
771.26	3586
771.447	3581.55
771.634	3519.55
771.82	3674.93
772.007	3573.6
772.193	3631.73
772.38	3642
772.567	3593.17
772.753	3581.16
772.94	3622.81
773.126	3646.06
773.313	3622.81
773.499	3608.28
773.686	3607.12
773.872	3549.38
774.059	3547.06
774.245	3529.43
774.432	3586
774.618	3464.14
774.804	3575.93
774.991	3444.18
775.177	3549.58
775.363	3504.24
775.55	3590.46
775.736	3465.88
775.922	3477.7
776.109	3504.44
776.295	3485.06
776.481	3517.03
776.667	3529.23
776.853	3475.37
777.04	3452.9
777.226	3457.55
777.412	3571.86
777.598	3413.37
777.784	3445.92
777.97	3396.71
778.156	3441.85
778.342	3431.97
778.528	3410.66
778.715	3330.26
778.901	3396.13
779.087	3419.38
779.272	3333.55
779.458	3338.78
779.644	3349.05
779.83	3346.53
780.016	3432.75
780.202	3350.79
780.388	3394.39
780.574	3285.5
780.76	3315.53
780.946	3383.34
781.131	3376.95
781.317	3286.47
781.503	3272.52
781.689	3279.49
781.874	3430.62
782.06	3271.74
782.246	3315.73
782.432	3327.16
782.617	3329.48
782.803	3339.94
782.989	3250.24
783.174	3259.15
783.36	3205.68
783.545	3210.91
783.731	3226.21
783.916	3151.43
784.102	3235.13
784.288	3179.71
784.473	3182.43
784.659	3128.76
784.844	3215.17
785.029	3154.53
785.215	3165.57
785.4	3103.18
785.586	3193.47
785.771	3075.48
785.956	3163.25
786.142	3139.61
786.327	3085.17
786.512	3064.82
786.698	3057.46
786.883	3058.43
787.068	3070.83
787.254	3091.75
787.439	3068.5
787.624	3017.35
787.809	3017.16
787.994	3055.14
788.18	3098.73
788.365	2969.5
788.55	3007.09
788.735	3012.7
788.92	3016.58
789.105	3007.47
789.29	3038.47
789.475	2975.31
789.66	3006.5
789.845	2914.28
790.03	2941.21
790.215	2976.86
790.4	2952.84
790.585	3004.37
790.77	2921.06
790.955	2899.36
791.14	2928.62
791.325	3004.18
791.51	2806.36
791.695	2875.34
791.879	2892.58
792.064	2816.25
792.249	2950.51
792.434	2869.53
792.618	2866.04
792.803	2914.86
792.988	2867.78
793.173	2885.03
793.357	2916.61
793.542	2811.6
793.727	2830.97
793.911	2911.96
794.096	2864.1
794.281	2902.66
794.465	2972.02
794.65	2894.33
794.834	2916.8
795.019	2972.6
795.203	2942.18
795.388	2950.71
795.572	2935.4
795.757	2942.18
795.941	2948.96
796.126	2911.57
796.31	2890.06
796.494	2960.39
796.679	2928.23
796.863	2898.59
797.048	2995.27
797.232	2916.02
797.416	2942.57
797.601	2954
797.785	3027.04
797.969	2983.06
798.153	2937.92
798.338	3003.99
798.522	2976.86
798.706	2999.72
798.89	2987.52
799.074	3083.62
799.258	3065.4
799.443	3002.63
799.627	2982.29
799.811	3036.54
799.995	2952.26
800.179	2962.33
800.363	2927.84
800.547	2982.48
800.731	3013.29
800.915	2891.23
801.099	2942.37
801.283	2945.28
801.467	2963.49
801.651	2934.43
801.835	2963.88
802.019	2973.18
802.202	2966.59
802.386	2869.33
802.57	2882.7
802.754	2949.93
802.938	2883.28
803.121	2894.13
803.305	2960.01
803.489	2923
803.673	2983.26
803.856	2967.37
804.04	2928.04
804.224	2920.48
804.407	2907.31
804.591	2935.01
804.775	2921.26
804.958	2933.66
805.142	3011.93
805.326	2922.03
805.509	2931.72
805.693	2965.82
805.876	2910.99
806.06	2962.52
806.243	2976.47
806.427	2995.46
806.61	3030.53
806.794	2933.07
806.977	3008.25
807.16	2958.84
807.344	2927.26
807.527	2944.89
807.71	2900.14
807.894	2913.7
808.077	2949.74
808.26	2874.18
808.444	2880.76
808.627	2969.5
808.81	2883.48
808.993	2877.28
809.177	2801.91
809.36	2843.18
809.543	2860.61
809.726	2768.39
809.909	2802.3
810.092	2743.4
810.276	2755.8
810.459	2779.24
810.642	2737.58
810.825	2704.07
811.008	2737.39
811.191	2660.67
811.374	2653.69
811.557	2662.02
811.74	2740.68
811.923	2635.87
812.106	2648.85
812.289	2609.13
812.472	2642.84
812.654	2619.98
812.837	2533.96
813.02	2557.21
813.203	2563.99
813.386	2415.77
813.569	2390.19
813.751	2341.95
813.934	2408.6
814.117	2339.63
814.3	2316.76
814.482	2272.59
814.665	2225.12
814.848	2205.17
815.03	2153.44
815.213	2178.04
815.396	2098.41
815.578	2076.13
815.761	2061.02
815.943	2108.87
816.126	2071.29
816.309	2019.56
816.491	1958.14
816.674	1916.1
816.856	1940.31
817.039	1921.71
817.221	1996.31
817.403	1960.85
817.586	1937.6
817.768	1938.38
817.951	1909.12
818.133	1888.97
818.315	1872.89
818.498	1934.5
818.68	2007.93
818.862	1978.68
819.045	2022.66
819.227	1968.79
819.409	1959.49
819.591	1967.63
819.774	1958.53
819.956	1917.45
820.138	2016.46
820.32	1942.64
820.502	2020.91
820.684	2114.49
820.866	2074.19
821.048	2152.27
821.231	2156.54
821.413	2168.94
821.595	2097.64
821.777	2109.46
821.959	2117.21
822.141	2180.37
822.323	2080.2
822.505	1992.43
822.686	1977.9
822.868	1894.59
823.05	1796.75
823.232	1748.12
823.414	1660.35
823.596	1746.18
823.778	1705.69
823.96	1751.02
824.141	1793.07
824.323	1798.1
824.505	1850.03
824.687	1890.33
824.868	1945.55
825.05	2048.81
825.232	2097.06
825.413	2172.23
825.595	2137.55
825.777	2004.83
825.958	2052.88
826.14	2036.99
826.321	2096.28
826.503	2069.35
826.685	2072.64
826.866	2106.94
827.048	2080.2
827.229	2047.26
827.411	2019.94
827.592	1955.23
827.773	1990.11
827.955	1907.38
828.136	1870.56
828.318	1872.31
828.499	1929.66
828.68	1858.94
828.862	1847.12
829.043	1937.99
829.224	1892.07
829.406	1855.07
829.587	1838.79
829.768	1836.85
829.949	1883.35
830.131	1859.91
830.312	1936.83
830.493	1888.2
830.674	1918.23
830.855	1854.1
831.036	1877.15
831.218	1928.88
831.399	1945.93
831.58	1897.5
831.761	1873.08
831.942	1899.43
832.123	1873.47
832.304	1820.97
832.485	1827.75
832.666	1835.3
832.847	1883.74
833.028	1823.87
833.209	1871.53
833.389	1830.46
833.57	1799.65
833.751	1812.25
833.932	1913.19
834.113	1839.76
834.294	1795.39
834.475	1856.81
834.655	1854.87
834.836	1885.1
835.017	1871.53
835.198	1838.21
835.378	1868.63
835.559	1926.95
835.74	1832.98
835.92	1863.2
836.101	1799.65
836.281	1898.66
836.462	1867.08
836.643	1898.27
836.823	1915.13
837.004	1900.4
837.184	1961.82
837.365	1905.63
837.545	1964.53
837.726	1906.21
837.906	1959.88
838.087	1887.03
838.267	1914.16
838.448	1869.6
838.628	1913.58
838.808	1900.98
838.989	1969.76
839.169	1810.12
839.349	1891.68
839.53	1934.5
839.71	1942.45
839.89	1880.25
840.07	1940.9
840.251	1853.32
840.431	1931.4
840.611	1892.07
840.791	1844.41
840.971	1865.91
841.151	1884.51
841.332	1861.85
841.512	1931.6
841.692	1829.68
841.872	1884.13
842.052	1899.24
842.232	1902.92
842.412	1846.15
842.592	1846.35
842.772	1863.98
842.952	1869.6
843.132	1821.74
843.312	1818.64
843.492	1816.7
843.672	1892.07
843.851	1771.95
844.031	1797.13
844.211	1811.28
844.391	1798.49
844.571	1843.05
844.751	1815.54
844.93	1808.95
845.11	1818.06
845.29	1817.48
845.47	1856.42
845.649	1832.78
845.829	1835.5
846.009	1810.31
846.188	1838.79
846.368	1813.6
846.547	1809.92
846.727	1844.02
846.907	1765.36
847.086	1807.6
847.266	1794.23
847.445	1762.65
847.625	1789.38
847.804	1746.37
847.984	1759.94
848.163	1772.34
848.343	1707.62
848.522	1785.51
848.701	1776.02
848.881	1726.42
849.06	1726.61
849.239	1740.75
849.419	1782.02
849.598	1685.73
849.777	1659.96
849.957	1649.69
850.136	1586.73
850.315	1584.4
850.494	1579.94
850.674	1572.78
850.853	1652.99
851.032	1587.69
851.211	1674.3
851.39	1634.97
851.569	1552.04
851.748	1566.58
851.927	1637.29
852.107	1644.27
852.286	1600.09
852.465	1582.27
852.644	1663.84
852.823	1645.24
853.002	1649.31
853.181	1630.32
853.359	1635.16
853.538	1534.41
853.717	1624.31
853.896	1545.26
854.075	1461.18
854.254	1426.11
854.433	1366.82
854.611	1400.15
854.79	1308.31
854.969	1380.38
855.148	1442.77
855.327	1384.84
855.505	1456.72
855.684	1448.58
855.863	1457.5
856.041	1445.48
856.22	1504.58
856.399	1462.53
856.577	1541.78
856.756	1556.5
856.934	1649.69
857.113	1636.71
857.291	1553.21
857.47	1510.39
857.648	1563.09
857.827	1551.27
858.005	1602.81
858.184	1489.46
858.362	1606.87
858.541	1524.34
858.719	1537.71
858.898	1525.69
859.076	1516.01
859.254	1600.68
859.433	1540.81
859.611	1537.32
859.789	1492.56
859.967	1570.26
860.146	1617.72
860.324	1479.2
860.502	1473.96
860.68	1444.71
860.859	1455.17
861.037	1490.82
861.215	1500.31
861.393	1506.51
861.571	1472.61
861.749	1439.67
861.927	1494.11
862.105	1468.73
862.283	1481.71
862.461	1451.88
862.639	1428.24
862.817	1457.69
862.995	1446.45
863.173	1432.11
863.351	1430.37
863.529	1474.55
863.707	1477.65
863.885	1464.86
864.063	1370.5
864.241	1396.47
864.418	1481.33
864.596	1411.58
864.774	1365.27
864.952	1399.95
865.129	1457.69
865.307	1381.35
865.485	1365.66
865.663	1437.93
865.84	1327.69
866.018	1364.11
866.196	1211.24
866.373	1245.54
866.551	1187.22
866.728	1144.01
866.906	1187.02
867.084	1226.16
867.261	1257.35
867.439	1258.52
867.616	1309.28
867.794	1299.79
867.971	1270.53
868.149	1269.75
868.326	1390.27
868.503	1329.24
868.681	1315.09
868.858	1319.16
869.035	1264.14
869.213	1317.42
869.39	1298.82
869.567	1395.11
869.745	1305.79
869.922	1292.81
870.099	1365.27
870.276	1358.3
870.454	1298.04
870.631	1306.57
870.808	1314.51
870.985	1314.32
871.162	1394.92
871.339	1310.05
871.517	1283.7
871.694	1266.27
871.871	1276.92
872.048	1261.42
872.225	1286.42
872.402	1308.89
872.579	1275.37
872.756	1303.08
872.933	1224.61
873.11	1276.15
873.287	1298.43
873.463	1251.35
873.64	1219.57
873.817	1283.7
873.994	1252.9
874.171	1208.92
874.348	1262.39
874.524	1188.38
874.701	1243.6
874.878	1152.54
875.055	1269.17
875.231	1198.84
875.408	1248.64
875.585	1139.75
875.762	1200.01
875.938	1178.31
876.115	1200.2
876.291	1172.11
876.468	1200.97
876.645	1144.79
876.821	1156.22
876.998	1189.74
877.174	1156.41
877.351	1145.56
877.527	1167.26
877.704	1168.42
877.88	1183.54
878.057	1149.24
878.233	1202.14
878.409	1144.21
878.586	1178.69
878.762	1155.83
878.938	1146.92
879.115	1064.77
879.291	1136.65
879.467	1074.26
879.644	1137.81
879.82	1144.98
879.996	1123.86
880.172	1091.31
880.349	1139.94
880.525	1141.69
880.701	1072.33
880.877	1081.24
881.053	1141.3
881.229	1101.97
881.405	1128.13
881.581	1066.9
881.757	1079.69
881.933	1122.12
882.109	1139.36
882.285	1120.96
882.461	1045.98
882.637	1131.03
882.813	1059.93
882.989	1087.05
883.165	1166.68
883.341	1047.72
883.517	1125.61
883.693	1118.63
883.869	1129.29
884.044	1092.86
884.22	1136.26
884.396	1158.35
884.572	1120.38
884.747	1144.59
884.923	1121.15
885.099	1106.23
885.275	1141.3
885.45	1107.2
885.626	1090.73
885.801	1080.27
885.977	1067.68
886.153	1014.4
886.328	1094.61
886.504	1062.06
886.679	1111.27
886.855	1082.79
887.03	1123.86
887.206	1140.33
887.381	1089.96
887.557	1101.39
887.732	1118.24
887.908	1096.93
888.083	1122.51
888.258	1085.11
888.434	1061.09
888.609	1085.31
888.784	1156.03
888.96	1045.78
889.135	1079.49
889.31	1057.6
889.485	1087.44
889.661	1077.56
889.836	1116.5
890.011	1102.94
890.186	1079.3
890.361	1051.98
890.537	1087.44
890.712	1082.21
890.887	1103.52
891.062	1128.13
891.237	1143.43
891.412	1065.35
891.587	1108.36
891.762	1108.36
891.937	1140.72
892.112	1024.08
892.287	1061.67
892.462	1045.2
892.637	1009.16
892.812	1024.86
892.987	1018.85
893.161	1008.78
893.336	991.92
893.511	1008
893.686	1026.99
893.861	1018.46
894.035	1041.91
894.21	1027.18
894.385	964.99
894.56	1022.53
894.734	946.78
894.909	946.78
895.084	966.93
895.258	939.22
895.433	946.78
895.608	894.66
895.782	859.01
895.957	888.46
896.131	880.71
896.306	790.81
896.48	841.96
896.655	854.55
896.829	768.14
897.004	787.91
897.178	781.71
897.353	787.91
897.527	833.24
897.701	802.05
897.876	722.23
898.05	840.41
898.224	834.79
898.399	852.23
898.573	752.84
898.747	708.47
898.921	747.8
899.096	657.13
899.27	661.97
899.444	633.88
899.618	701.11
899.792	683.48
899.967	710.02
900.141	745.28
900.315	669.72
900.489	721.45
900.663	721.06
900.837	683.48
901.011	636.4
901.185	759.62
901.359	699.17
901.533	707.89
901.707	742.76
901.881	692.39
902.055	632.71
902.229	661.39
902.403	763.11
902.576	703.82
902.75	702.46
902.924	800.31
903.098	749.54
903.272	788.29
903.446	814.84
903.619	802.44
903.793	797.4
903.967	824.72
904.14	850.87
904.314	878.77
904.488	833.44
904.661	853.97
904.835	825.69
905.009	870.64
905.182	925.27
905.356	878.77
905.529	863.66
905.703	815.22
905.876	813.87
906.05	810.77
906.223	774.15
906.397	748.96
906.57	728.23
906.744	694.52
906.917	693.36
907.09	703.24
907.264	683.09
907.437	678.44
907.61	624.19
907.784	665.26
907.957	655.38
908.13	627.87
908.304	669.14
908.477	623.61
908.65	656.16
908.823	579.43
908.996	673.98
909.17	614.31
909.343	603.07
909.516	629.03
909.689	616.05
909.862	597.06
910.035	614.7
910.208	609.85
910.381	565.48
910.554	685.03
910.727	617.99
910.9	629.23
911.073	595.51
911.246	663.33
911.419	657.32
911.592	642.21
911.765	607.91
911.938	622.64
912.11	616.63
912.283	603.85
912.456	672.82
912.629	618.38
912.802	577.5
912.974	527.9
913.147	532.93
913.32	478.3
913.493	497.87
913.665	530.8
913.838	564.71
914.01	519.76
914.183	558.31
914.356	519.95
914.528	599.97
914.701	616.83
914.873	589.51
915.046	538.36
915.218	528.87
915.391	467.25
915.563	474.42
915.736	516.47
915.908	537.97
916.081	549.4
916.253	528.48
916.425	535.84
916.598	544.56
916.77	539.13
916.942	516.08
917.115	455.44
917.287	524.6
917.459	493.99
917.632	471.32
917.804	450.59
917.976	491.08
918.148	495.93
918.32	524.41
918.493	520.92
918.665	579.24
918.837	538.36
919.009	621.67
919.181	603.26
919.353	555.41
919.525	551.15
919.697	547.47
919.869	512.98
920.041	580.21
920.213	650.93
920.385	580.79
920.557	540.1
920.729	544.56
920.901	563.93
921.073	523.05
921.244	527.51
921.416	584.86
921.588	562.38
921.76	524.6
921.932	595.51
922.103	531.19
922.275	545.72
922.447	547.66
922.619	476.36
922.79	527.9
922.962	508.91
923.134	544.95
923.305	484.11
923.477	496.9
923.648	495.93
923.82	510.85
923.991	442.26
924.163	421.34
924.335	473.07
924.506	440.9
924.677	541.27
924.849	444.2
925.02	485.66
925.192	529.83
925.363	494.77
925.535	478.88
925.706	452.92
925.877	531.97
926.049	447.88
926.22	486.63
926.391	506.39
926.562	506.58
926.734	464.35
926.905	508.91
927.076	442.65
927.247	446.91
927.419	416.88
927.59	361.27
927.761	401.57
927.932	410.29
928.103	406.42
928.274	371.93
928.445	367.67
928.616	383.55
928.787	344.81
928.958	419.2
929.129	377.36
929.3	342.48
929.471	313.03
929.642	254.33
929.813	241.15
929.984	345
930.155	225.65
930.326	290.56
930.496	247.54
930.667	206.86
930.838	239.21
931.009	190.39
931.18	213.83
931.35	243.09
931.521	233.4
931.692	199.3
931.863	120.83
932.033	174.7
932.204	170.24
932.374	193.88
932.545	134.2
932.716	204.73
932.886	183.8
933.057	84.99
933.227	87.7
933.398	211.51
933.568	103.78
933.739	75.5
933.909	76.08
934.08	127.81
934.25	53.41
934.421	56.12
934.591	121.22
934.761	88.28
934.932	36.94
935.102	117.93
935.272	99.72
935.443	77.05
935.613	98.75
935.783	114.25
935.953	60.19
936.123	226.23
936.294	42.56
936.464	62.9
936.634	81.12
936.804	64.07
936.974	16.02
937.144	103.4
937.314	83.63
937.484	63.87
937.655	68.52
937.825	105.14
937.995	54.38
938.165	140.6
938.334	66
938.504	87.32
938.674	75.11
938.844	112.31
939.014	174.7
939.184	167.33
939.354	201.82
939.524	174.7
939.694	147.96
939.863	119.09
940.033	191.94
940.203	198.91
940.373	154.93
940.542	192.52
940.712	143.89
940.882	164.62
941.051	202.6
941.221	178.18
941.391	171.01
941.56	122
941.73	112.7
941.899	243.86
942.069	137.69
942.238	174.89
942.408	124.13
942.577	164.62
942.747	127.81
942.916	77.24
943.086	121.41
943.255	145.83
943.425	121.03
943.594	107.66
943.763	55.73
943.933	63.48
944.102	20.86
944.271	117.35
944.441	131.88
944.61	77.63
944.779	116.76
944.948	186.71
945.117	93.71
945.287	91.97
945.456	41.98
945.625	80.34
945.794	129.36
945.963	73.56
946.132	123.74
946.301	99.13
946.47	141.76
946.639	43.53
946.808	85.18
946.977	136.72
947.146	143.5
947.315	92.16
947.484	132.07
947.653	109.98
947.822	67.94
947.991	67.55
948.16	177.02
948.329	135.56
948.498	96.03
948.666	106.88
948.835	142.15
949.004	68.33
949.173	114.25
949.341	121.22
949.51	120.45
949.679	143.31
949.847	110.95
950.016	186.51
950.185	178.76
950.353	79.18
950.522	115.22
950.69	178.76
950.859	83.05
951.028	137.3
951.196	130.71
951.365	73.56
951.533	91.38
951.701	175.86
951.87	156.29
952.038	60.38
952.207	96.81
952.375	188.06
952.543	90.8
952.712	125.87
952.88	81.12
953.048	128.78
953.217	107.27
953.385	114.05
953.553	176.63
953.721	77.05
953.89	95.65
954.058	43.92
954.226	64.07
954.394	110.95
954.562	37.72
954.73	94.29
954.898	107.08
955.067	144.08
955.235	85.96
955.403	124.32
955.571	160.36
955.739	113.28
955.907	90.42
956.075	87.32
956.243	83.63
956.41	106.69
956.578	66
956.746	66.39
956.914	76.85
957.082	126.06
957.25	149.12
957.418	62.13
957.585	116.57
957.753	143.7
957.921	72.01
958.089	122.38
958.256	109.02
958.424	129.55
958.592	107.47
958.759	84.8
958.927	96.42
959.095	80.53
959.262	88.09
959.43	113.86
959.597	76.27
959.765	129.36
959.932	79.76
960.1	143.5
960.267	115.6
960.435	117.73
960.602	134.59
960.77	105.53
960.937	76.27
961.104	103.2
961.272	28.22
961.439	75.69
961.606	114.25
961.774	144.28
961.941	58.06
962.108	116.57
962.275	123.16
962.443	157.26
962.61	114.25
962.777	193.68
962.944	139.05
963.111	127.23
963.278	143.89
963.446	121.22
963.613	112.12
963.78	109.21
963.947	129.75
964.114	119.09
964.281	184.96
964.448	148.54
964.615	103.98
964.782	136.14
964.949	144.86
965.116	125.48
965.282	181.67
965.449	110.37
965.616	96.81
965.783	143.5
965.95	118.9
966.117	90.8
966.283	122.58
966.45	126.45
966.617	104.37
966.784	158.42
966.95	184.38
967.117	160.55
967.284	76.47
967.45	65.03
967.617	167.53
967.784	142.73
967.95	174.31
968.117	123.16
968.283	200.46
968.45	225.65
968.616	148.35
968.783	192.52
968.949	154.16
969.116	156.29
969.282	134.2
969.449	157.26
969.615	150.86
969.781	100.3
969.948	101.65
970.114	109.6
970.28	187.68
970.447	134.4
970.613	169.66
970.779	143.11
970.945	171.6
971.112	124.9
971.278	119.48
971.444	100.88
971.61	155.9
971.776	104.95
971.942	142.34
972.108	150.28
972.275	125.29
972.441	135.56
972.607	211.89
972.773	119.67
972.939	153.77
973.105	125.68
973.271	84.22
973.437	120.45
973.602	111.15
973.768	128.2
973.934	119.67
974.1	150.67
974.266	10.98
974.432	138.08
974.598	77.24
974.763	144.08
974.929	125.68
975.095	201.05
975.261	103.59
975.426	74.33
975.592	143.89
975.758	191.75
975.923	43.33
976.089	96.81
976.255	131.88
976.42	127.81
976.586	135.75
976.751	130.13
976.917	207.24
977.082	117.54
977.248	78.6
977.413	66.58
977.579	92.35
977.744	91.97
977.91	56.12
978.075	73.56
978.24	115.8
978.406	93.32
978.571	98.94
978.736	80.15
978.902	133.23
979.067	54.57
979.232	58.83
979.397	132.85
979.563	164.04
979.728	79.76
979.893	91.38
980.058	73.37
980.223	155.32
980.388	124.71
980.554	107.85
980.719	82.67
980.884	108.63
981.049	163.65
981.214	104.75
981.379	112.31
981.544	79.95
981.709	99.13
981.874	107.27
982.039	99.72
982.204	120.45
982.368	130.71
982.533	89.25
982.698	113.47
982.863	161.33
983.028	79.57
983.193	132.46
983.357	121.41
983.522	101.65
983.687	99.33
983.852	104.37
984.016	110.95
984.181	111.73
984.346	121.61
984.51	147.18
984.675	111.73
984.839	130.33
985.004	114.25
985.168	136.14
985.333	116.57
985.498	98.17
985.662	122.96
985.827	114.83
985.991	82.86
986.155	84.6
986.32	125.68
986.484	140.4
986.649	124.13
986.813	61.35
986.977	137.3
987.142	100.49
987.306	56.9
987.47	90.8
987.634	95.84
987.799	114.83
987.963	104.56
988.127	128.2
988.291	169.85
988.455	117.73
988.62	73.75
988.784	111.73
988.948	118.12
989.112	66.97
989.276	114.05
989.44	115.41
989.604	88.28
989.768	71.04
989.932	172.56
990.096	71.62
990.26	67.55
990.424	43.92
990.588	87.32
990.752	195.04
990.915	122.38
991.079	82.28
991.243	57.09
991.407	107.66
991.571	98.36
991.734	120.45
991.898	131.49
992.062	200.46
992.226	85.96
992.389	66
992.553	75.3
992.717	62.71
992.88	103.59
993.044	78.02
993.207	78.79
993.371	114.44
993.535	74.33
993.698	87.32
993.862	129.55
994.025	116.76
994.189	106.11
994.352	96.62
994.515	105.33
994.679	124.13
994.842	71.43
995.006	122.96
995.169	35.2
995.332	54.57
995.496	89.06
995.659	69.68
995.822	83.44
995.985	91.97
996.149	146.99
996.312	87.7
996.475	144.28
996.638	57.87
996.801	143.31
996.964	160.16
997.128	79.37
997.291	75.69
997.454	94.29
997.617	28.22
997.78	121.22
997.943	81.5
998.106	104.17
998.269	79.76
998.432	59.8
998.595	94.1
998.758	37.91
998.92	36.75
999.083	30.55
999.246	70.65
999.409	36.75
999.572	6.52
999.735	39.07
999.897	93.9
1000.06	41.98
1000.223	59.42
1000.386	108.82
1000.548	79.57
1000.711	111.92
1000.874	110.76
1001.036	26.09
1001.199	84.6
1001.361	60
1001.524	70.27
1001.687	98.55
1001.849	35.78
1002.012	76.85
1002.174	76.47
1002.337	81.89
1002.499	55.35
1002.661	107.08
1002.824	44.11
1002.986	46.24
1003.149	77.24
1003.311	40.62
1003.473	126.65
1003.636	40.23
1003.798	96.42
1003.96	75.5
1004.123	53.99
1004.285	48.76
1004.447	45.08
1004.609	78.79
1004.771	115.41
1004.933	31.52
1005.096	31.52
1005.258	10.98
1005.42	59.22
1005.582	84.99
1005.744	87.32
1005.906	10.2
1006.068	41.4
1006.23	10.2
1006.392	-19.83
1006.554	22.41
1006.716	109.4
1006.878	55.15
1007.04	25.51
1007.202	25.12
1007.363	81.89
1007.525	69.49
1007.687	89.06
1007.849	101.65
1008.011	20.47
1008.172	30.35
1008.334	64.45
1008.496	71.04
1008.658	19.12
1008.819	51.08
1008.981	14.27
1009.143	32.68
1009.304	39.65
1009.466	81.7
1009.627	132.85
1009.789	145.44
1009.95	72.4
1010.112	46.24
1010.273	68.33
1010.435	42.17
1010.596	29.97
1010.758	17.37
1010.919	35.39
1011.081	0.71
1011.242	16.4
1011.403	74.92
1011.565	64.65
1011.726	86.35
1011.887	16.02
1012.049	18.92
1012.21	84.22
1012.371	108.82
1012.532	6.91
1012.693	33.07
1012.855	47.6
1013.016	50.12
1013.177	79.37
1013.338	36.94
1013.499	100.1
1013.66	58.83
1013.821	66.39
1013.982	40.82
1014.143	44.69
1014.304	31.32
1014.465	60.38
1014.626	88.67
1014.787	27.84
1014.948	110.95
1015.109	-20.02
1015.27	97.58
1015.431	35.78
1015.592	-17.31
1015.752	102.23
1015.913	66.97
1016.074	73.37
1016.235	30.74
1016.395	39.65
1016.556	41.78
1016.717	15.05
1016.877	109.21
1017.038	8.27
1017.199	73.37
1017.359	50.5
1017.52	50.12
1017.681	21.64
1017.841	31.32
1018.002	25.12
1018.162	-10.91
1018.323	87.32
1018.483	48.76
1018.644	19.7
1018.804	4.39
1018.964	17.95
1019.125	35.78
1019.285	64.84
1019.446	7.3
1019.606	19.89
1019.766	-13.24
1019.926	56.12
1020.087	55.73
1020.247	0.71
1020.407	39.07
1020.567	62.71
1020.728	20.09
1020.888	11.17
1021.048	1.29
1021.208	30.55
1021.368	-0.06
1021.528	60.38
1021.688	67.17
1021.848	58.45
1022.008	55.15
1022.168	10.2
1022.328	16.79
1022.488	48.76
1022.648	5.36
1022.808	29.58
1022.968	59.22
1023.128	4.39
1023.288	3.42
1023.448	37.33
1023.608	61.93
1023.767	47.4
1023.927	-10.33
1024.087	7.88
1024.247	-32.03
1024.406	42.37
1024.566	-4.71
1024.726	8.27
1024.885	12.14
1025.045	47.6
1025.205	29.77
1025.364	23.38
1025.524	54.18
1025.683	26.48
1025.843	38.68
1026.003	30.16
1026.162	87.12
1026.321	76.47
1026.481	42.75
1026.64	-7.81
1026.8	23.19
1026.959	18.92
1027.119	25.9
1027.278	21.25
1027.437	16.4
1027.597	27.06
1027.756	33.45
1027.915	31.13
1028.074	36.75
1028.234	17.18
1028.393	29.19
1028.552	-8.01
1028.711	-33
1028.87	81.5
1029.03	-6.85
1029.189	12.72
1029.348	-67.49
1029.507	6.72
1029.666	7.3
1029.825	-8.2
1029.984	-0.45
1030.143	45.47
1030.302	6.14
1030.461	-30.68
1030.62	-5.3
1030.779	42.37
1030.938	-29.9
1031.097	-22.35
1031.255	35.2
1031.414	83.44
1031.573	67.94
1031.732	-30.1
1031.891	33.84
1032.049	42.95
1032.208	27.84
1032.367	-1.81
1032.525	17.95
1032.684	11.75
1032.843	-13.24
1033.001	-21.18
1033.16	167.14
1033.319	46.63
1033.477	15.82
1033.636	8.46
1033.794	-39.78
1033.953	53.6
1034.111	42.37
1034.27	1.87
1034.428	24.15
1034.587	-20.41
1034.745	6.91
1034.903	3.81
1035.062	38.49
1035.22	-18.28
1035.378	51.67
1035.537	1.49
1035.695	33.65
1035.853	-13.05
1036.011	49.92
1036.17	40.62
1036.328	-57.03
1036.486	28.42
1036.644	39.27
1036.802	-70.59
1036.96	0.71
1037.119	8.85
1037.277	-12.66
1037.435	-17.89
1037.593	-14.4
1037.751	9.24
1037.909	21.05
1038.067	21.05
