Data from gum_old_FLMT105791__9__15-42-31-259.txt Node

Date: Mon Mar 20 15:42:31 GMT 2023
User: antho
Spectrometer: FLMT10579
Trigger mode: 0
Integration Time (sec): 1.000000E-1
Scans to average: 10
Electric dark correction enabled: true
Nonlinearity correction enabled: false
Boxcar width: 0
XAxis mode: Wavelengths
Number of Pixels in Spectrum: 3648
>>>>>Begin Spectral Data<<<<<
345.248	-195.09
345.464	-195.09
345.681	-195.09
345.898	-179.59
346.114	-177.07
346.331	-6.77
346.548	-0.95
346.764	-5.99
346.981	-52.1
347.197	13.38
347.414	41.67
347.631	-15.29
347.847	62.6
348.064	-13.93
348.28	14.55
348.497	-53.65
348.713	16.48
348.93	35.86
349.146	44.97
349.363	10.28
349.579	26.75
349.796	0.4
350.012	31.79
350.229	41.48
350.445	56.59
350.661	12.22
350.878	21.52
351.094	44.58
351.311	32.95
351.527	50.2
351.743	22.1
351.96	60.08
352.176	61.63
352.392	49.62
352.609	47.29
352.825	28.11
353.041	38.38
353.257	8.15
353.474	29.27
353.69	29.47
353.906	35.86
354.122	3.89
354.339	68.41
354.555	45.74
354.771	24.62
354.987	104.25
355.203	84.49
355.42	28.5
355.636	17.26
355.852	31.79
356.068	45.55
356.284	1.57
356.5	82.94
356.716	29.85
356.932	26.17
357.148	55.04
357.364	15.13
357.58	67.25
357.796	101.93
358.012	78.68
358.228	44.19
358.444	-47.65
358.66	64.92
358.876	37.02
359.092	-23.04
359.308	36.63
359.524	36.63
359.74	11.83
359.956	13.58
360.172	51.94
360.388	74.22
360.604	39.93
360.819	128.66
361.035	61.43
361.251	72.48
361.467	5.63
361.683	62.98
361.898	71.7
362.114	68.6
362.33	31.79
362.546	82.94
362.762	41.09
362.977	44
363.193	50.39
363.409	74.61
363.624	49.42
363.84	29.66
364.056	48.45
364.271	84.1
364.487	67.44
364.703	57.56
364.918	46.32
365.134	32.18
365.35	44.19
365.565	155.01
365.781	77.13
365.996	60.47
366.212	149.4
366.427	79.45
366.643	31.79
366.858	44
367.074	40.12
367.289	125.18
367.505	170.51
367.72	19.2
367.936	62.79
368.151	116.07
368.367	95.34
368.582	57.95
368.798	46.32
369.013	111.81
369.228	96.7
369.444	96.31
369.659	126.15
369.874	78.29
370.09	149.78
370.305	31.98
370.52	74.8
370.736	143.39
370.951	67.63
371.166	123.24
371.381	134.09
371.597	79.84
371.812	78.1
372.027	73.64
372.242	64.53
372.458	159.28
372.673	77.9
372.888	71.9
373.103	94.76
373.318	189.69
373.533	105.8
373.749	85.85
373.964	17.84
374.179	113.94
374.394	46.9
374.609	114.91
374.824	50.78
375.039	134.09
375.254	59.3
375.469	141.65
375.684	84.49
375.899	144.55
376.114	67.44
376.329	68.41
376.544	130.02
376.759	142.61
376.974	73.06
377.189	84.68
377.404	80.61
377.619	146.49
377.834	37.02
378.049	72.67
378.264	81.2
378.478	115.1
378.693	106.38
378.908	110.45
379.123	99.8
379.338	156.37
379.553	112.39
379.767	107.74
379.982	114.91
380.197	125.37
380.412	89.14
380.626	119.75
380.841	195.51
381.056	145.91
381.271	188.53
381.485	101.54
381.7	87.2
381.915	109.29
382.129	99.6
382.344	95.92
382.559	107.35
382.773	99.8
382.988	43.61
383.202	98.25
383.417	69.77
383.632	155.21
383.846	90.88
384.061	108.9
384.275	74.42
384.49	108.71
384.704	110.45
384.919	116.07
385.133	127.11
385.348	155.21
385.562	79.45
385.777	174.97
385.991	101.35
386.206	106
386.42	95.92
386.634	163.73
386.849	123.24
387.063	128.08
387.277	102.7
387.492	109.1
387.706	79.07
387.92	103.67
388.135	133.12
388.349	124.79
388.563	140.68
388.778	119.75
388.992	169.54
389.206	154.63
389.42	222.05
389.635	145.52
389.849	169.16
390.063	192.02
390.277	185.82
390.491	201.32
390.706	186.79
390.92	197.83
391.134	152.3
391.348	192.99
391.562	134.28
391.776	173.61
391.99	176.13
392.205	183.49
392.419	179.62
392.633	167.61
392.847	201.51
393.061	151.91
393.275	177.29
393.489	119.56
393.703	123.43
393.917	144.94
394.131	94.95
394.345	133.31
394.559	158.7
394.773	145.13
394.986	143.78
395.2	172.06
395.414	237.36
395.628	158.11
395.842	204.42
396.056	220.5
396.27	127.11
396.484	220.11
396.697	197.83
396.911	195.31
397.125	153.66
397.339	153.08
397.553	155.6
397.766	199.38
397.98	221.28
398.194	231.54
398.408	193.57
398.621	249.37
398.835	278.82
399.049	245.49
399.262	285.41
399.476	296.64
399.69	294.51
399.903	348.57
400.117	288.7
400.331	303.04
400.544	285.79
400.758	402.43
400.971	294.9
401.185	329.58
401.398	288.12
401.612	342.56
401.826	348.95
402.039	357.87
402.253	285.41
402.466	343.34
402.68	298.77
402.893	388.67
403.106	365.04
403.32	306.33
403.533	358.84
403.747	342.17
403.96	349.54
404.174	360.77
404.387	283.47
404.6	325.9
404.814	380.34
405.027	330.16
405.24	326.29
405.454	322.22
405.667	392.55
405.88	288.31
406.094	357.67
406.307	380.15
406.52	367.36
406.733	308.07
406.947	307.49
407.16	403.98
407.373	381.89
407.586	324.54
407.799	323.96
408.012	371.82
408.226	374.72
408.439	412.7
408.652	335.39
408.865	384.02
409.078	447.38
409.291	405.72
409.504	383.44
409.717	409.79
409.93	426.26
410.143	390.61
410.357	292.57
410.57	315.44
410.783	355.93
410.996	352.25
411.209	361.55
411.421	434.01
411.634	407.47
411.847	376.47
412.06	401.65
412.273	423.94
412.486	419.48
412.699	478.18
412.912	404.75
413.125	466.56
413.338	402.24
413.55	441.37
413.763	415.22
413.976	432.65
414.189	390.42
414.402	404.17
414.615	478.18
414.827	420.64
415.04	453.97
415.253	467.33
415.466	486.9
415.678	500.27
415.891	425.49
416.104	426.07
416.316	435.75
416.529	418.32
416.742	477.99
416.954	493.49
417.167	454.93
417.38	439.24
417.592	490
417.805	422.97
418.017	431.68
418.23	458.62
418.442	450.48
418.655	471.4
418.868	452.42
419.08	479.93
419.293	503.18
419.505	468.11
419.718	483.42
419.93	492.13
420.142	434.78
420.355	486.13
420.567	501.82
420.78	473.92
420.992	458.62
421.205	533.79
421.417	439.43
421.629	501.43
421.842	456.68
422.054	452.22
422.266	519.65
422.479	517.13
422.691	454.35
422.903	490.58
423.115	451.06
423.328	461.72
423.54	465.01
423.752	478.18
423.964	475.47
424.177	496.2
424.389	473.92
424.601	592.69
424.813	512.28
425.025	511.12
425.238	535.53
425.45	494.46
425.662	486.71
425.874	789.92
426.086	495.23
426.298	539.21
426.51	506.08
426.722	514.22
426.934	492.52
427.146	531.27
427.358	483.8
427.57	541.73
427.782	471.02
427.994	529.72
428.206	452.61
428.418	434.01
428.63	549.68
428.842	554.33
429.054	536.7
429.266	530.69
429.478	463.27
429.69	501.82
429.902	462.1
430.114	515.77
430.325	466.95
430.537	438.47
430.749	451.83
430.961	378.79
431.173	404.75
431.384	400.69
431.596	356.32
431.808	444.08
432.02	527.59
432.231	580.1
432.443	614.78
432.655	586.88
432.867	567.31
433.078	594.24
433.29	611.29
433.502	613.23
433.713	629.31
433.925	613.42
434.136	635.51
434.348	542.9
434.56	508.41
434.771	634.54
434.983	515.77
435.194	579.32
435.406	625.04
435.617	658.95
435.829	720.76
436.04	633.96
436.252	661.86
436.463	714.75
436.675	705.84
436.886	677.55
437.098	708.16
437.309	733.16
437.521	686.66
437.732	662.63
437.943	673.09
438.155	658.95
438.366	576.41
438.578	713.2
438.789	665.54
439	637.44
439.211	609.93
439.423	644.23
439.634	657.98
439.845	679.29
440.057	701.96
440.268	744.97
440.479	691.69
440.69	719.21
440.902	677.55
441.113	635.31
441.324	684.14
441.535	744.97
441.746	797.87
441.957	714.75
442.168	744.59
442.38	779.46
442.591	742.07
442.802	714.75
443.013	736.84
443.224	831
443.435	736.64
443.646	749.62
443.857	750.79
444.068	745.94
444.279	717.27
444.49	860.25
444.701	755.63
444.912	858.51
445.123	835.45
445.334	813.95
445.545	800.58
445.756	777.14
445.967	744.97
446.178	802.9
446.388	778.69
446.599	787.4
446.81	781.98
447.021	724.05
447.232	805.81
447.443	843.98
447.653	780.43
447.864	875.56
448.075	824.02
448.286	869.94
448.496	823.83
448.707	876.53
448.918	844.17
449.129	929.03
449.339	811.04
449.55	836.42
449.761	831.19
449.971	864.32
450.182	827.9
450.393	892.61
450.603	848.24
450.814	893.58
451.024	885.44
451.235	930.2
451.446	968.36
451.656	994.33
451.867	899.58
452.077	888.93
452.288	910.43
452.498	938.92
452.709	864.71
452.919	867.23
453.13	818.6
453.34	909.66
453.55	812.4
453.761	855.02
453.971	864.9
454.182	866.84
454.392	898.03
454.602	982.12
454.813	926.13
455.023	905.78
455.233	844.95
455.444	872.85
455.654	808.52
455.864	888.73
456.075	887.38
456.285	871.88
456.495	871.88
456.705	910.24
456.916	951.12
457.126	976.7
457.336	925.55
457.546	862.77
457.756	877.11
457.967	966.43
458.177	915.08
458.387	916.44
458.597	874.4
458.807	917.8
459.017	901.33
459.227	889.9
459.437	916.83
459.647	963.33
459.857	922.25
460.068	924.38
460.278	962.94
460.488	971.08
460.698	999.95
460.908	963.52
461.117	920.12
461.327	925.35
461.537	995.68
461.747	958.87
461.957	988.32
462.167	1048.19
462.377	1009.44
462.587	994.52
462.797	1034.24
463.007	989.48
463.216	1058.84
463.426	1076.09
463.636	1028.04
463.846	955.96
464.056	958.48
464.265	990.06
464.475	956.55
464.685	1009.25
464.895	1005.56
465.104	966.81
465.314	1023.78
465.524	979.41
465.733	946.86
465.943	1075.89
466.153	1102.05
466.362	1068.73
466.572	1064.27
466.782	1034.82
466.991	1045.67
467.201	1068.34
467.41	935.43
467.62	1037.53
467.829	1056.71
468.039	1013.31
468.249	1052.26
468.458	1070.47
468.668	1077.06
468.877	1076.86
469.086	1139.83
469.296	1131.5
469.505	1069.11
469.715	1151.84
469.924	1089.84
470.134	1154.94
470.343	1099.53
470.552	1051.48
470.762	1091.39
470.971	1052.64
471.18	1091.98
471.39	1075.51
471.599	1068.53
471.808	1146.81
472.018	1123.17
472.227	1174.12
472.436	1214.42
472.645	1190.79
472.855	1154.36
473.064	1272.35
473.273	1236.7
473.482	1191.37
473.691	1235.35
473.901	1232.44
474.11	1186.52
474.319	1317.5
474.528	1218.1
474.737	1323.12
474.946	1298.9
475.155	1309.75
475.364	1337.65
475.573	1308.2
475.783	1314.2
475.992	1321.37
476.201	1348.5
476.41	1295.22
476.619	1256.66
476.828	1282.43
477.037	1312.27
477.245	1291.73
477.454	1359.73
477.663	1314.2
477.872	1377.75
478.081	1480.83
478.29	1364.58
478.499	1487.22
478.708	1436.26
478.917	1488.77
479.125	1396.55
479.334	1411.08
479.543	1414.76
479.752	1476.95
479.961	1480.05
480.169	1509.31
480.378	1469.2
480.587	1588.36
480.796	1579.06
481.004	1506.59
481.213	1529.07
481.422	1569.17
481.63	1550.38
481.839	1577.31
482.048	1644.74
482.256	1606.57
482.465	1612.77
482.674	1632.72
482.882	1628.27
483.091	1709.06
483.299	1613.16
483.508	1665.27
483.716	1630.21
483.925	1686
484.134	1593.78
484.342	1615.67
484.551	1677.48
484.759	1658.49
484.967	1709.64
485.176	1701.7
485.384	1669.34
485.593	1722.24
485.801	1672.83
486.01	1620.32
486.218	1560.46
486.426	1473.08
486.635	1462.81
486.843	1440.33
487.051	1492.45
487.26	1486.44
487.468	1523.26
487.676	1609.09
487.885	1585.06
488.093	1651.71
488.301	1698.99
488.509	1694.53
488.717	1731.54
488.926	1740.45
489.134	1742.58
489.342	1741.8
489.55	1692.4
489.758	1757.5
489.967	1776.29
490.175	1878.4
490.383	1828.02
490.591	1942.33
490.799	1831.9
491.007	1901.65
491.215	1879.17
491.423	1826.67
491.631	1857.66
491.839	1853.79
492.047	1868.9
492.255	1786.37
492.463	1757.88
492.671	1731.54
492.879	1841
493.087	1805.93
493.295	1835.19
493.503	1892.15
493.711	1934
493.919	1941.94
494.127	1921.21
494.334	1941.94
494.542	1827.83
494.75	1925.09
494.958	1935.55
495.166	2010.14
495.374	2022.35
495.581	2020.8
495.789	2014.21
495.997	2027.97
496.205	1939.62
496.412	1971.39
496.62	1960.35
496.828	1986.7
497.035	1970.23
497.243	2091.13
497.451	2040.56
497.658	2032.81
497.866	2026.42
498.074	2085.9
498.281	1980.69
498.489	2065.94
498.696	1993.68
498.904	1930.32
499.112	1963.26
499.319	2040.17
499.527	1999.68
499.734	2072.14
499.942	1997.16
500.149	2053.35
500.357	2028.36
500.564	1977.59
500.771	2032.23
500.979	1931.48
501.186	1924.89
501.394	2004.72
501.601	1957.64
501.808	1986.12
502.016	1965.78
502.223	1972.56
502.43	1989.03
502.638	1930.9
502.845	1974.88
503.052	2108.76
503.26	2001.04
503.467	2119.61
503.674	2098.3
503.881	2075.82
504.089	2097.91
504.296	2106.05
504.503	1994.45
504.71	2013.24
504.917	2020.41
505.125	2071.37
505.332	2074.08
505.539	2076.21
505.746	2144.41
505.953	2174.64
506.16	2167.47
506.367	2208.73
506.574	2225.59
506.781	2184.52
506.988	2143.83
507.195	2175.8
507.402	2174.25
507.609	2200.6
507.816	2140.15
508.023	2128.72
508.23	2090.94
508.437	2063.81
508.644	2141.31
508.851	2157.97
509.058	2202.92
509.265	2182.58
509.472	2199.43
509.679	2258.92
509.885	2188.97
510.092	2218.81
510.299	2162.82
510.506	2178.7
510.713	2140.34
510.92	2181.22
511.126	2195.37
511.333	2234.31
511.54	2250.39
511.746	2273.25
511.953	2301.54
512.16	2312.78
512.367	2256.78
512.573	2239.15
512.78	2267.25
512.987	2200.21
513.193	2201.95
513.4	2137.05
513.606	2204.86
513.813	2230.63
514.02	2192.07
514.226	2250
514.433	2215.9
514.639	2157.59
514.846	2231.21
515.052	2159.33
515.259	2226.75
515.465	2202.34
515.672	2228.88
515.878	2290.3
516.085	2256.2
516.291	2281.2
516.497	2258.92
516.704	2172.31
516.91	2122.13
517.117	2021.96
517.323	1967.52
517.529	1978.56
517.736	2002.2
517.942	1994.84
518.148	2073.11
518.354	2140.92
518.561	2109.54
518.767	2068.66
518.973	2127.36
519.179	2140.15
519.386	2158.94
519.592	2154.87
519.798	2136.08
520.004	2299.6
520.21	2227.14
520.417	2291.66
520.623	2372.26
520.829	2323.43
521.035	2338.55
521.241	2301.93
521.447	2385.63
521.653	2468.94
521.859	2365.09
522.065	2374
522.271	2473.01
522.477	2462.35
522.683	2453.24
522.889	2392.02
523.095	2428.06
523.301	2400.35
523.507	2342.81
523.713	2376.13
523.919	2361.02
524.125	2473.01
524.331	2431.35
524.537	2533.45
524.742	2545.27
524.948	2568.14
525.154	2574.34
525.36	2628.58
525.566	2514.08
525.772	2597.97
525.977	2504.97
526.183	2581.7
526.389	2612.12
526.595	2508.66
526.8	2467.39
527.006	2375.74
527.212	2343.78
527.417	2330.41
527.623	2323.24
527.829	2394.93
528.034	2428.44
528.24	2418.37
528.446	2493.74
528.651	2589.25
528.857	2563.87
529.062	2619.48
529.268	2665.01
529.473	2664.82
529.679	2651.06
529.884	2769.05
530.09	2705.31
530.295	2684.19
530.501	2712.86
530.706	2703.76
530.912	2650.67
531.117	2709.18
531.323	2677.22
531.528	2765.95
531.733	2794.82
531.939	2729.33
532.144	2758.01
532.35	2730.69
532.555	2764.01
532.76	2700.27
532.966	2732.24
533.171	2681.87
533.376	2627.81
533.581	2604.56
533.787	2691.75
533.992	2737.08
534.197	2694.85
534.402	2708.41
534.607	2750.65
534.813	2828.53
535.018	2761.3
535.223	2745.03
535.428	2758.78
535.633	2814.97
535.838	2835.89
536.043	2867.28
536.249	2942.26
536.454	2820.01
536.659	2848.29
536.864	2854.88
537.069	2775.06
537.274	2823.3
537.479	2808.96
537.684	2783.39
537.889	2715.58
538.094	2893.24
538.299	2827.76
538.504	2804.7
538.708	2844.61
538.913	2886.85
539.118	2839.96
539.323	2877.16
539.528	2792.49
539.733	2821.94
539.938	2824.85
540.142	2827.76
540.347	2779.71
540.552	2748.13
540.757	2773.12
540.962	2757.81
541.166	2676.44
541.371	2679.35
541.576	2770.99
541.781	2662.3
541.985	2849.07
542.19	2797.92
542.395	2883.75
542.599	2888.59
542.804	2856.82
543.008	2917.46
543.213	2790.94
543.418	2800.24
543.622	2890.72
543.827	2751.23
544.031	2882.78
544.236	2881.62
544.44	2922.89
544.645	2952.34
544.849	2855.85
545.054	2926.76
545.258	2990.7
545.463	2922.31
545.667	2860.89
545.872	2927.92
546.076	2876
546.281	2906.81
546.485	2865.93
546.689	2901.38
546.894	2933.54
547.098	2894.6
547.302	2866.31
547.507	2886.46
547.711	2878.71
547.915	2963.96
548.119	2826.79
548.324	2833.96
548.528	2907.77
548.732	2863.79
548.936	2932.19
549.141	2912.62
549.345	2863.79
549.549	2929.09
549.753	2901.57
549.957	2998.25
550.161	3003.87
550.366	2914.36
550.57	2849.07
550.774	2951.76
550.978	2908.94
551.182	2928.51
551.386	2844.23
551.59	2887.62
551.794	2897.89
551.998	2904.87
552.202	2869.41
552.406	2885.3
552.61	2934.9
552.814	2926.18
553.018	2952.72
553.222	2886.66
553.426	2881.62
553.63	2927.73
553.833	2932.57
554.037	2829.89
554.241	2921.14
554.445	2916.3
554.649	2916.3
554.853	2878.32
555.056	2956.6
555.26	2961.83
555.464	2959.31
555.668	2918.62
555.871	2945.17
556.075	2935.29
556.279	2902.74
556.483	2885.88
556.686	2884.14
556.89	2904.48
557.094	2897.51
557.297	2812.26
557.501	2889.17
557.704	2793.27
557.908	2857.01
558.112	2767.7
558.315	2900.22
558.519	2824.27
558.722	2785.71
558.926	2832.6
559.129	2698.92
559.333	2733.98
559.536	2719.45
559.74	2726.23
559.943	2707.44
560.147	2671.4
560.35	2722.55
560.553	2747.74
560.757	2670.24
560.96	2756.65
561.164	2715.96
561.367	2817.29
561.57	2754.33
561.774	2746.77
561.977	2740.96
562.18	2708.6
562.384	2809.16
562.587	2699.11
562.79	2732.63
562.993	2699.5
563.197	2764.98
563.4	2809.93
563.603	2792.11
563.806	2778.55
564.009	2693.88
564.212	2747.55
564.416	2624.71
564.619	2739.21
564.822	2613.09
565.025	2749.68
565.228	2685.35
565.431	2716.35
565.634	2546.63
565.837	2624.32
566.04	2589.64
566.243	2589.84
566.446	2525.32
566.649	2604.75
566.852	2526.09
567.055	2553.6
567.258	2617.54
567.461	2629.94
567.664	2625.68
567.867	2559.22
568.07	2612.12
568.273	2592.35
568.475	2628.2
568.678	2584.22
568.881	2542.75
569.084	2514.86
569.287	2439.29
569.489	2471.26
569.692	2539.65
569.895	2527.45
570.098	2501.29
570.3	2447.24
570.503	2412.94
570.706	2424.76
570.909	2419.73
571.111	2386.21
571.314	2348.43
571.516	2357.14
571.719	2400.16
571.922	2378.07
572.124	2343.58
572.327	2419.34
572.529	2391.63
572.732	2402.87
572.935	2447.43
573.137	2516.79
573.34	2449.76
573.542	2481.34
573.745	2458.67
573.947	2466.22
574.15	2426.89
574.352	2369.74
574.554	2489.09
574.757	2404.61
574.959	2342.23
575.162	2380.59
575.364	2379.62
575.566	2435.81
575.769	2349.4
575.971	2344.16
576.173	2224.62
576.376	2335.64
576.578	2374.58
576.78	2377.49
576.982	2252.52
577.185	2322.66
577.387	2246.13
577.589	2321.88
577.791	2322.27
577.993	2327.89
578.196	2271.12
578.398	2286.04
578.6	2305.8
578.802	2230.24
579.004	2216.87
579.206	2232.18
579.408	2282.75
579.61	2257.56
579.812	2310.84
580.014	2238.77
580.216	2232.57
580.418	2253.1
580.62	2216.87
580.822	2224.82
581.024	2229.08
581.226	2265.5
581.428	2238.77
581.63	2354.82
581.832	2210.28
582.034	2302.12
582.236	2252.13
582.438	2312.58
582.64	2315.68
582.841	2334.48
583.043	2347.07
583.245	2268.99
583.447	2272.09
583.649	2275
583.85	2291.08
584.052	2285.46
584.254	2224.23
584.456	2310.84
584.657	2221.72
584.859	2233.53
585.061	2256.98
585.262	2206.41
585.464	2183.93
585.666	2251.17
585.867	2190.52
586.069	2246.13
586.27	2194.2
586.472	2167.47
586.674	2165.72
586.875	2168.82
587.077	2152.16
587.278	2205.05
587.48	2167.66
587.681	2263.57
587.883	2182.77
588.084	2102.56
588.285	2143.64
588.487	2171.73
588.688	2151
588.89	2037.07
589.091	1993.87
589.292	1980.89
589.494	1954.15
589.695	1933.42
589.896	1847.59
590.098	1849.91
590.299	1909.59
590.5	1904.75
590.702	1928.19
590.903	1972.56
591.104	2048.51
591.305	2033.01
591.507	2055.87
591.708	2074.08
591.909	2085.51
592.11	2117.48
592.311	2053.54
592.512	2010.72
592.714	1972.94
592.915	2003.94
593.116	1995.23
593.317	2007.24
593.518	2002.97
593.719	2035.52
593.92	2063.42
594.121	2099.85
594.322	2037.85
594.523	2007.62
594.724	2012.08
594.925	2052.77
595.126	2021.19
595.327	2006.66
595.528	2056.45
595.729	2031.07
595.929	2027
596.13	2026.22
596.331	2026.42
596.532	2043.66
596.733	2075.05
596.934	2078.15
597.135	2082.41
597.335	2065.75
597.536	2026.61
597.737	2036.11
597.938	2038.04
598.138	2051.8
598.339	2001.04
598.54	2018.47
598.74	1992.13
598.941	2016.54
599.142	2091.52
599.342	2028.74
599.543	1962.68
599.744	1996.39
599.944	2012.47
600.145	1984.96
600.345	2012.86
600.546	2052.19
600.746	2057.61
600.947	2062.26
601.147	2004.52
601.348	2051.61
601.548	1973.14
601.749	1988.64
601.949	1929.35
602.15	1936.52
602.35	1957.44
602.551	1990.19
602.751	1965.58
602.951	1927.22
603.152	1878.59
603.352	2019.25
603.552	1963.64
603.753	1968.68
603.953	2022.74
604.153	1996.97
604.354	1997.94
604.554	1986.89
604.754	2012.08
604.954	1943.49
605.155	2007.04
605.355	1959.77
605.555	2026.61
605.755	2043.47
605.955	1977.79
606.155	2018.86
606.356	1968.68
606.556	1988.83
606.756	1991.16
606.956	1936.71
607.156	2033.2
607.356	1954.54
607.556	1966.55
607.756	1987.28
607.956	2051.02
608.156	1981.08
608.356	1937.1
608.556	2006.85
608.756	1942.33
608.956	1940.78
609.156	1947.95
609.356	1945.43
609.556	1940.98
609.755	1951.05
609.955	1913.66
610.155	1929.35
610.355	1943.88
610.555	1873.94
610.755	1908.04
610.954	1863.28
611.154	1921.79
611.354	1960.16
611.554	1886.15
611.753	1927.99
611.953	1906.49
612.153	1924.51
612.352	1945.24
612.552	1844.3
612.752	1765.25
612.951	1864.25
613.151	1890.21
613.351	1852.82
613.55	1907.65
613.75	1890.99
613.949	1860.96
614.149	1864.64
614.348	1840.61
614.548	1830.93
614.747	1743.55
614.947	1816.78
615.146	1727.47
615.346	1863.86
615.545	1837.71
615.745	1836.93
615.944	1847.59
616.144	1833.25
616.343	1850.5
616.542	1820.08
616.742	1786.95
616.941	1784.62
617.14	1719.72
617.34	1803.42
617.539	1766.02
617.738	1747.62
617.938	1841.39
618.137	1774.74
618.336	1747.23
618.535	1803.8
618.734	1778.23
618.934	1800.9
619.133	1809.42
619.332	1811.75
619.531	1743.74
619.73	1822.98
619.929	1837.51
620.128	1785.4
620.328	1848.75
620.527	1764.47
620.726	1793.73
620.925	1806.9
621.124	1808.65
621.323	1798.38
621.522	1749.94
621.721	1711
621.92	1702.28
622.119	1781.72
622.318	1748.78
622.517	1751.68
622.715	1758.47
622.914	1703.44
623.113	1734.44
623.312	1670.31
623.511	1764.86
623.71	1714.49
623.909	1671.86
624.107	1777.45
624.306	1636.21
624.505	1691.24
624.704	1670.7
624.902	1679.22
625.101	1755.95
625.3	1663.53
625.499	1680.58
625.697	1665.85
625.896	1629.82
626.095	1729.79
626.293	1634.86
626.492	1598.04
626.69	1652.87
626.889	1651.71
627.088	1703.83
627.286	1624.78
627.485	1642.8
627.683	1597.07
627.882	1664.89
628.08	1579.64
628.279	1617.03
628.477	1662.17
628.676	1580.22
628.874	1636.02
629.073	1595.14
629.271	1566.27
629.469	1605.41
629.668	1624.59
629.866	1565.3
630.065	1570.34
630.263	1594.94
630.461	1574.02
630.66	1582.54
630.858	1619.36
631.056	1622.65
631.254	1653.26
631.453	1564.72
631.651	1632.34
631.849	1552.32
632.047	1580.02
632.245	1571.11
632.444	1599.59
632.642	1614.12
632.84	1640.67
633.038	1583.9
633.236	1570.53
633.434	1574.02
633.632	1546.89
633.83	1582.54
634.028	1615.09
634.227	1590.49
634.425	1662.17
634.623	1569.95
634.821	1601.72
635.019	1625.36
635.216	1580.61
635.414	1604.05
635.612	1591.26
635.81	1598.04
636.008	1636.79
636.206	1548.25
636.404	1602.5
636.602	1552.32
636.8	1544.57
636.997	1579.44
637.195	1602.89
637.393	1589.32
637.591	1645.51
637.789	1611.99
637.986	1575.37
638.184	1594.94
638.382	1614.71
638.58	1607.15
638.777	1636.6
638.975	1582.35
639.173	1591.07
639.37	1607.34
639.568	1614.51
639.765	1592.23
639.963	1546.51
640.161	1580.61
640.358	1574.6
640.556	1510.08
640.753	1505.63
640.951	1514.73
641.148	1537.4
641.346	1530.43
641.543	1505.63
641.741	1559.88
641.938	1486.25
642.136	1546.31
642.333	1475.6
642.531	1563.75
642.728	1548.83
642.925	1539.92
643.123	1484.7
643.32	1526.55
643.517	1489.74
643.715	1523.06
643.912	1498.07
644.109	1519.38
644.306	1541.08
644.504	1455.25
644.701	1529.26
644.898	1523.64
645.095	1468.81
645.293	1508.34
645.49	1503.69
645.687	1537.59
645.884	1511.05
646.081	1429.48
646.278	1456.22
646.475	1442.27
646.672	1426.96
646.87	1487.22
647.067	1457.58
647.264	1432.2
647.461	1370.58
647.658	1365.35
647.855	1440.91
648.052	1403.52
648.249	1354.5
648.446	1399.45
648.642	1406.81
648.839	1380.47
649.036	1401.78
649.233	1386.47
649.43	1345.78
649.627	1324.08
649.824	1371.55
650.021	1356.83
650.217	1348.5
650.414	1377.37
650.611	1401.58
650.808	1403.33
651.004	1404.1
651.201	1398.87
651.398	1461.45
651.595	1383.57
651.791	1338.81
651.988	1434.52
652.185	1367.29
652.381	1392.28
652.578	1310.52
652.775	1387.25
652.971	1370
653.168	1372.13
653.364	1403.13
653.561	1325.83
653.757	1371.17
653.954	1404.88
654.15	1366.9
654.347	1418.83
654.543	1370.97
654.74	1318.66
654.936	1296.77
655.133	1345.2
655.329	1355.47
655.525	1333
655.722	1334.93
655.918	1295.41
656.115	1289.21
656.311	1213.84
656.507	1186.91
656.704	1140.02
656.9	1128.4
657.096	1187.49
657.292	1183.62
657.489	1231.47
657.685	1231.09
657.881	1223.72
658.077	1235.54
658.273	1273.13
658.47	1314.4
658.666	1230.7
658.862	1344.04
659.058	1276.62
659.254	1331.83
659.45	1303.35
659.646	1319.82
659.842	1268.87
660.038	1368.84
660.234	1282.24
660.43	1309.36
660.626	1380.85
660.822	1384.15
661.018	1368.26
661.214	1311.1
661.41	1262.67
661.606	1376.98
661.802	1371.36
661.998	1323.5
662.194	1306.84
662.39	1333.58
662.586	1320.02
662.781	1365.16
662.977	1351.79
663.173	1352.76
663.369	1302.97
663.564	1338.03
663.76	1342.3
663.956	1322.73
664.152	1346.75
664.347	1267.9
664.543	1324.08
664.739	1288.24
664.934	1252.01
665.13	1265.96
665.326	1343.07
665.521	1305.87
665.717	1276.62
665.912	1282.82
666.108	1188.27
666.304	1279.91
666.499	1291.92
666.695	1193.31
666.89	1267.9
667.086	1321.57
667.281	1294.25
667.477	1339.39
667.672	1311.49
667.867	1252.98
668.063	1326.02
668.258	1238.06
668.454	1302.58
668.649	1347.33
668.844	1282.43
669.04	1293.86
669.235	1297.35
669.43	1284.17
669.626	1208.81
669.821	1262.47
670.016	1234.77
670.211	1269.25
670.407	1215.01
670.602	1306.07
670.797	1257.63
670.992	1305.1
671.187	1230.7
671.382	1282.04
671.578	1266.15
671.773	1289.02
671.968	1214.04
672.163	1248.72
672.358	1268.09
672.553	1204.16
672.748	1222.56
672.943	1290.76
673.138	1266.15
673.333	1249.88
673.528	1217.52
673.723	1268.48
673.918	1214.23
674.113	1205.12
674.308	1290.57
674.503	1220.62
674.698	1257.63
674.892	1237.29
675.087	1270.61
675.282	1241.35
675.477	1184.01
675.672	1263.64
675.867	1200.28
676.061	1177.81
676.256	1174.71
676.451	1211.32
676.646	1204.74
676.84	1197.18
677.035	1212.68
677.23	1178.97
677.424	1251.24
677.619	1221.2
677.814	1253.95
678.008	1269.45
678.203	1172.19
678.397	1174.9
678.592	1213.26
678.787	1252.2
678.981	1187.88
679.176	1213.07
679.37	1209
679.565	1183.04
679.759	1175.09
679.954	1230.7
680.148	1230.7
680.342	1291.54
680.537	1211.91
680.731	1161.53
680.926	1226.63
681.12	1209.39
681.314	1179.36
681.509	1160.76
681.703	1210.74
681.897	1200.86
682.092	1187.88
682.286	1180.32
682.48	1258.79
682.674	1208.22
682.869	1171.41
683.063	1209.97
683.257	1246.78
683.451	1177.81
683.645	1206.48
683.839	1180.91
684.034	1180.32
684.228	1210.55
684.422	1139.25
684.616	1166.96
684.81	1186.72
685.004	1143.71
685.198	1166.18
685.392	1201.06
685.586	1160.56
685.78	1144.67
685.974	1170.44
686.168	1147.97
686.362	1198.15
686.556	1109.61
686.75	1062.33
686.944	1083.64
687.138	1054.78
687.331	955.19
687.525	972.82
687.719	895.32
687.913	985.41
688.107	964.88
688.301	937.17
688.494	982.9
688.688	936.01
688.882	913.53
689.076	940.27
689.269	953.45
689.463	1018.74
689.657	959.84
689.85	957.71
690.044	985.22
690.238	951.7
690.431	969.72
690.625	943.18
690.818	1004.79
691.012	1024.55
691.205	1039.47
691.399	972.05
691.593	1033.27
691.786	1068.34
691.98	1075.12
692.173	1096.24
692.366	1057.29
692.56	1100.89
692.753	1105.73
692.947	1034.82
693.14	1130.34
693.333	1093.91
693.527	1062.91
693.72	1095.27
693.914	1049.16
694.107	1086.55
694.3	1070.86
694.493	1038.11
694.687	1099.34
694.88	1051.09
695.073	1132.27
695.266	1098.76
695.46	1101.08
695.653	1121.23
695.846	1103.02
696.039	1065.82
696.232	1065.24
696.425	1149.91
696.618	1156.88
696.812	1163.08
697.005	1196.02
697.198	1282.24
697.391	1207.45
697.584	1221.59
697.777	1280.49
697.97	1226.24
698.163	1237.09
698.356	1239.61
698.549	1339.2
698.742	1292.5
698.935	1233.02
699.127	1249.3
699.32	1246.2
699.513	1248.72
699.706	1276.81
699.899	1308
700.092	1274.1
700.285	1327.18
700.477	1220.43
700.67	1322.92
700.863	1330.28
701.056	1408.75
701.248	1373.3
701.441	1397.9
701.634	1344.43
701.826	1432.97
702.019	1337.84
702.212	1391.31
702.404	1356.25
702.597	1330.48
702.79	1398.29
702.982	1398.1
703.175	1466.68
703.367	1476.37
703.56	1471.91
703.752	1549.8
703.945	1522.48
704.137	1535.08
704.33	1549.8
704.522	1543.79
704.715	1572.86
704.907	1617.42
705.1	1627.88
705.292	1612.77
705.484	1630.21
705.677	1665.66
705.869	1707.32
706.061	1728.24
706.254	1749.17
706.446	1713.52
706.638	1708.87
706.831	1793.34
707.023	1765.44
707.215	1856.89
707.407	1856.31
707.599	1820.27
707.792	1902.03
707.984	1896.22
708.176	1959.19
708.368	1889.44
708.56	1935.55
708.752	1901.45
708.944	1924.89
709.136	1980.69
709.329	1937.49
709.521	2091.71
709.713	2037.85
709.905	2050.44
710.097	2094.81
710.289	2052.96
710.481	2119.8
710.672	2112.64
710.864	2077.37
711.056	2205.63
711.248	2132.79
711.44	2132.79
711.632	2180.64
711.824	2237.22
712.016	2281.39
712.207	2237.02
712.399	2254.65
712.591	2322.08
712.783	2333.31
712.975	2332.35
713.166	2320.91
713.358	2343.39
713.55	2380.39
713.741	2401.9
713.933	2417.4
714.125	2400.74
714.316	2349.78
714.508	2503.62
714.7	2484.63
714.891	2460.61
715.083	2526.87
715.274	2478.62
715.466	2510.98
715.657	2569.1
715.849	2478.24
716.04	2544.11
716.232	2513.11
716.423	2535.59
716.615	2488.89
716.806	2472.62
716.998	2444.52
717.189	2374.39
717.381	2316.07
717.572	2305.22
717.763	2330.41
717.955	2293.98
718.146	2276.93
718.337	2228.69
718.528	2226.75
718.72	2134.14
718.911	2173.67
719.102	2111.47
719.293	2205.25
719.485	2184.13
719.676	2156.81
719.867	2155.26
720.058	2170.37
720.249	2159.72
720.44	2211.64
720.632	2263.76
720.823	2278.68
721.014	2419.73
721.205	2448.21
721.396	2518.15
721.587	2626.45
721.778	2637.5
721.969	2746
722.16	2731.46
722.351	2810.13
722.542	2944.78
722.733	2970.35
722.924	2868.83
723.115	2938
723.305	2889.76
723.496	2957.18
723.687	2784.55
723.878	2795.79
724.069	2836.09
724.26	2829.31
724.45	2770.02
724.641	2791.72
724.832	2806.64
725.023	2792.69
725.213	2796.56
725.404	2781.45
725.595	2797.34
725.785	2761.5
725.976	2894.79
726.167	2881.42
726.357	2924.82
726.548	2981.2
726.739	2901.19
726.929	3013.37
727.12	3017.63
727.31	3071.1
727.501	2959.7
727.691	3001.94
727.882	3040.69
728.072	3038.94
728.263	3114.12
728.453	3112.57
728.644	3152.09
728.834	3140.08
729.024	3088.93
729.215	3095.13
729.405	3126.9
729.596	3204.98
729.786	3199.95
729.976	3263.69
730.167	3279.58
730.357	3235.59
730.547	3260.59
730.737	3298.76
730.928	3340.61
731.118	3417.91
731.308	3357.66
731.498	3337.31
731.688	3469.84
731.879	3498.51
732.069	3497.35
732.259	3532.22
732.449	3610.88
732.639	3673.66
732.829	3734.69
733.019	3736.63
733.209	3819.55
733.399	3812.19
733.589	3867.21
733.779	3899.57
733.969	3922.82
734.159	3999.73
734.349	4028.21
734.539	4062.51
734.729	4067.55
734.919	4067.35
735.109	4172.17
735.299	4101.26
735.488	4105.13
735.678	4121.99
735.868	4105.52
736.058	4122.38
736.248	4147.76
736.437	4119.86
736.627	4094.67
736.817	4201.23
737.007	4168.88
737.196	4256.06
737.386	4221.19
737.576	4195.42
737.765	4267.11
737.955	4210.34
738.144	4388.2
738.334	4263.62
738.524	4240.37
738.713	4352.16
738.903	4288.03
739.092	4329.1
739.282	4361.27
739.471	4374.05
739.661	4353.71
739.85	4390.13
740.04	4390.72
740.229	4411.06
740.419	4448.26
740.608	4483.71
740.797	4450.97
740.987	4509.68
741.176	4507.93
741.365	4460.27
741.555	4422.3
741.744	4584.27
741.933	4516.85
742.123	4558.5
742.312	4569.93
742.501	4623.21
742.69	4583.88
742.88	4510.84
743.069	4674.36
743.258	4615.46
743.447	4631.54
743.636	4650.72
743.825	4589.69
744.014	4643.56
744.204	4680.17
744.393	4582.91
744.582	4724.35
744.771	4692.57
744.96	4664.29
745.149	4692.38
745.338	4658.67
745.527	4715.05
745.716	4657.51
745.905	4715.82
746.094	4750.31
746.283	4760.97
746.471	4711.17
746.66	4730.35
746.849	4775.69
747.038	4741.59
747.227	4730.94
747.416	4797.78
747.604	4723.77
747.793	4741.4
747.982	4711.37
748.171	4771.62
748.359	4813.86
748.548	4736.17
748.737	4767.17
748.926	4749.54
749.114	4651.11
749.303	4752.83
749.491	4766.39
749.68	4673.2
749.869	4763.1
750.057	4698.97
750.246	4662.74
750.434	4706.14
750.623	4672.81
750.811	4642.78
751	4740.24
751.188	4676.49
751.377	4716.02
751.565	4676.69
751.754	4684.44
751.942	4622.83
752.131	4691.41
752.319	4606.36
752.507	4639.1
752.696	4688.7
752.884	4711.37
753.072	4624.37
753.261	4648.98
753.449	4652.27
753.637	4655.57
753.825	4728.22
754.014	4654.02
754.202	4657.7
754.39	4713.5
754.578	4705.36
754.766	4597.83
754.955	4607.52
755.143	4714.66
755.331	4662.54
755.519	4661.96
755.707	4655.37
755.895	4602.48
756.083	4595.89
756.271	4560.83
756.459	4614.11
756.647	4638.32
756.835	4568.19
757.023	4539.51
757.211	4577.49
757.399	4540.09
757.587	4532.73
757.775	4512.58
757.963	4515.68
758.151	4563.34
758.339	4429.66
758.526	4462.4
758.714	4529.25
758.902	4405.63
759.09	4312.64
759.278	4127.99
759.465	3886.97
759.653	3493.47
759.841	3186.77
760.028	2831.44
760.216	2473.2
760.404	2355.21
760.591	1962.29
760.779	1755.95
760.967	1616.26
761.154	1413.4
761.342	1463.58
761.529	1454.86
761.717	1567.62
761.905	1563.36
762.092	1690.65
762.28	1670.5
762.467	1705.38
762.655	1647.06
762.842	1667.02
763.029	1707.7
763.217	1731.92
763.404	1762.15
763.592	1795.86
763.779	1746.84
763.966	1840.23
764.154	1869.29
764.341	1941.75
764.528	1930.13
764.716	2009.56
764.903	2054.12
765.09	2154.1
765.277	2205.05
765.465	2345.71
765.652	2449.17
765.839	2502.07
766.026	2637.11
766.213	2677.8
766.4	2773.9
766.588	2994.38
766.775	3042.82
766.962	3161.97
767.149	3185.61
767.336	3338.67
767.523	3326.46
767.71	3423.72
767.897	3600.81
768.084	3636.07
768.271	3698.84
768.458	3726.94
768.645	3825.36
768.832	3819.94
769.019	3826.52
769.206	3858.3
769.392	3924.37
769.579	3961.18
769.766	3997.22
769.953	3963.12
770.14	4036.16
770.327	4001.67
770.513	4075.1
770.7	4074.91
770.887	3994.31
771.073	4059.6
771.26	4113.85
771.447	4005.74
771.634	3968.93
771.82	4133.23
772.007	3980.17
772.193	4046.23
772.38	4040.42
772.567	4037.51
772.753	4037.13
772.94	4096.41
773.126	4059.02
773.313	4105.52
773.499	4039.45
773.686	4103
773.872	4019.69
774.059	4033.45
774.245	3970.87
774.432	3991.79
774.618	3892.79
774.804	4026.47
774.991	3921.46
775.177	3986.56
775.363	3963.5
775.55	4023.56
775.736	3876.9
775.922	3935.8
776.109	3912.16
776.295	3958.85
776.481	3981.33
776.667	3942
776.853	3897.63
777.04	3879.8
777.226	3896.47
777.412	3927.47
777.598	3864.5
777.784	3845.7
777.97	3892.98
778.156	3895.3
778.342	3854.42
778.528	3879.61
778.715	3773.05
778.901	3803.47
779.087	3859.65
779.272	3804.05
779.458	3826.33
779.644	3781.77
779.83	3767.62
780.016	3865.47
780.202	3751.93
780.388	3758.13
780.574	3673.27
780.76	3750.57
780.946	3813.35
781.131	3736.24
781.317	3767.43
781.503	3709.89
781.689	3720.93
781.874	3851.32
782.06	3664.94
782.246	3695.74
782.432	3677.92
782.617	3710.08
782.803	3730.23
782.989	3620.57
783.174	3653.51
783.36	3579.3
783.545	3663.39
783.731	3635.49
783.916	3507.62
784.102	3590.93
784.288	3585.5
784.473	3600.03
784.659	3521.95
784.844	3579.5
785.029	3600.81
785.215	3497.35
785.4	3506.65
785.586	3602.16
785.771	3502.77
785.956	3590.35
786.142	3498.7
786.327	3546.37
786.512	3500.45
786.698	3491.15
786.883	3405.32
787.068	3458.79
787.254	3485.92
787.439	3441.16
787.624	3439.22
787.809	3443.1
787.994	3403.38
788.18	3483.98
788.365	3365.41
788.55	3364.82
788.735	3426.24
788.92	3367.92
789.105	3360.76
789.29	3364.05
789.475	3303.02
789.66	3348.94
789.845	3289.84
790.03	3270.86
790.215	3352.62
790.4	3335.76
790.585	3356.11
790.77	3295.85
790.955	3230.56
791.14	3264.85
791.325	3352.04
791.51	3186.19
791.695	3283.06
791.879	3249.74
792.064	3229.98
792.249	3301.66
792.434	3235.79
792.618	3243.15
792.803	3280.16
792.988	3236.95
793.173	3238.5
793.357	3326.46
793.542	3206.73
793.727	3243.93
793.911	3292.75
794.096	3232.11
794.281	3302.83
794.465	3316.77
794.65	3257.68
794.834	3305.15
795.019	3303.6
795.203	3291.2
795.388	3311.93
795.572	3361.34
795.757	3315.03
795.941	3353.78
796.126	3284.42
796.31	3229.01
796.494	3265.82
796.679	3241.41
796.863	3283.06
797.048	3344.48
797.232	3269.31
797.416	3314.84
797.601	3303.41
797.785	3344.09
797.969	3384.39
798.153	3324.14
798.338	3328.21
798.522	3358.04
798.706	3396.41
798.89	3360.76
799.074	3427.79
799.258	3441.55
799.443	3345.45
799.627	3351.84
799.811	3402.8
799.995	3371.61
800.179	3321.81
800.363	3323.56
800.547	3335.96
800.731	3341.77
800.915	3324.14
801.099	3260.78
801.283	3290.62
801.467	3313.87
801.651	3274.73
801.835	3384.01
802.019	3292.75
802.202	3364.44
802.386	3304.18
802.57	3238.69
802.754	3268.73
802.938	3261.17
803.121	3291.39
803.305	3331.11
803.489	3304.76
803.673	3345.26
803.856	3296.82
804.04	3269.5
804.224	3300.11
804.407	3303.21
804.591	3261.56
804.775	3288.1
804.958	3304.76
805.142	3397.18
805.326	3244.12
805.509	3293.53
805.693	3328.21
805.876	3322.39
806.06	3315.22
806.243	3341.19
806.427	3314.26
806.61	3359.01
806.794	3314.64
806.977	3316.19
807.16	3297.59
807.344	3292.56
807.527	3298.18
807.71	3254.58
807.894	3284.61
808.077	3309.61
808.26	3243.15
808.444	3229.2
808.627	3316.77
808.81	3227.84
808.993	3203.05
809.177	3178.63
809.36	3212.93
809.543	3208.86
809.726	3118.57
809.909	3122.45
810.092	3097.65
810.276	3097.45
810.459	3087.57
810.642	3105.4
810.825	3058.32
811.008	3140.66
811.191	2962.61
811.374	3020.54
811.557	2993.99
811.74	3036.42
811.923	2982.37
812.106	2944.01
812.289	2915.72
812.472	2924.82
812.654	2937.03
812.837	2903.32
813.02	2799.86
813.203	2818.46
813.386	2724.68
813.569	2709.38
813.751	2640.4
813.934	2669.27
814.117	2644.28
814.3	2587.12
814.482	2528.42
814.665	2454.41
814.848	2438.13
815.03	2393.96
815.213	2392.99
815.396	2404.23
815.578	2370.13
815.761	2322.08
815.943	2410.43
816.126	2253.68
816.309	2251.17
816.491	2222.88
816.674	2120
816.856	2167.27
817.039	2113.99
817.221	2233.92
817.403	2190.52
817.586	2215.13
817.768	2197.3
817.951	2128.52
818.133	2124.26
818.315	2135.3
818.498	2139.18
818.68	2230.05
818.862	2171.34
819.045	2224.23
819.227	2206.22
819.409	2199.63
819.591	2210.48
819.774	2173.86
819.956	2160.3
820.138	2225.2
820.32	2199.82
820.502	2284.3
820.684	2366.83
820.866	2329.83
821.048	2402.87
821.231	2380.78
821.413	2413.72
821.595	2393.57
821.777	2374.78
821.959	2348.23
822.141	2455.76
822.323	2319.17
822.505	2259.69
822.686	2186.26
822.868	2138.21
823.05	1960.16
823.232	1952.79
823.414	1884.4
823.596	1953.18
823.778	1937.68
823.96	1990.77
824.141	2021.57
824.323	2028.55
824.505	2077.76
824.687	2150.42
824.868	2196.14
825.05	2304.06
825.232	2320.33
825.413	2385.24
825.595	2348.23
825.777	2261.63
825.958	2298.63
826.14	2292.24
826.321	2368.58
826.503	2305.8
826.685	2342.23
826.866	2375.74
827.048	2343.2
827.229	2261.63
827.411	2210.67
827.592	2233.53
827.773	2181.22
827.955	2155.45
828.136	2145.77
828.318	2101.59
828.499	2164.37
828.68	2102.37
828.862	2106.24
829.043	2166.89
829.224	2112.44
829.406	2045.99
829.587	2079.31
829.768	2128.33
829.949	2102.75
830.131	2091.9
830.312	2129.69
830.493	2097.33
830.674	2097.14
830.855	2093.84
831.036	2094.23
831.218	2158.36
831.399	2173.47
831.58	2103.34
831.761	2101.59
831.942	2099.27
832.123	2079.89
832.304	2038.43
832.485	2054.12
832.666	2071.95
832.847	2070.01
833.028	2112.05
833.209	2087.06
833.389	2085.71
833.57	2009.95
833.751	2046.76
833.932	2064.01
834.113	2022.54
834.294	2055.09
834.475	2082.41
834.655	2130.27
834.836	2131.04
835.017	2152.94
835.198	2077.37
835.378	2111.67
835.559	2155.07
835.74	2092.68
835.92	2076.02
836.101	2081.06
836.281	2144.02
836.462	2098.88
836.643	2161.27
836.823	2166.3
837.004	2163.59
837.184	2180.83
837.365	2150.03
837.545	2136.85
837.726	2118.84
837.906	2182
838.087	2142.28
838.267	2155.84
838.448	2093.07
838.628	2133.95
838.808	2130.85
838.989	2211.83
839.169	2096.94
839.349	2087.45
839.53	2166.3
839.71	2147.7
839.89	2131.24
840.07	2156.04
840.251	2049.28
840.431	2172.7
840.611	2102.56
840.791	2112.05
840.971	2097.14
841.151	2126
841.332	2143.25
841.512	2156.04
841.692	2003.36
841.872	2124.84
842.052	2080.47
842.232	2103.92
842.412	2027.58
842.592	2074.47
842.772	2127.17
842.952	2074.47
843.132	2052.38
843.312	2008.79
843.492	2014.41
843.672	2121.16
843.851	1999.1
844.031	2066.33
844.211	2006.46
844.391	2030.49
844.571	2017.31
844.751	2029.32
844.93	2047.92
845.11	2015.96
845.29	2014.02
845.47	2085.51
845.649	2022.16
845.829	2033.39
846.009	2000.26
846.188	2076.79
846.368	2019.64
846.547	2014.41
846.727	2051.8
846.907	1958.03
847.086	2016.15
847.266	2004.72
847.445	1998.71
847.625	1978.37
847.804	1972.75
847.984	2003.36
848.163	1967.71
848.343	1958.8
848.522	1986.12
848.701	1969.26
848.881	1922.76
849.06	1996.19
849.239	1968.68
849.419	1985.15
849.598	1861.93
849.777	1850.69
849.957	1863.48
850.136	1796.44
850.315	1788.11
850.494	1796.25
850.674	1810.58
850.853	1844.1
851.032	1840.81
851.211	1840.81
851.39	1858.83
851.569	1801.28
851.748	1780.75
851.927	1854.56
852.107	1804.38
852.286	1799.54
852.465	1794.7
852.644	1838.29
852.823	1849.53
853.002	1799.54
853.181	1845.07
853.359	1837.51
853.538	1757.88
853.717	1819.11
853.896	1728.24
854.075	1656.94
854.254	1590.49
854.433	1554.45
854.611	1554.45
854.79	1492.84
854.969	1586.42
855.148	1632.92
855.327	1566.66
855.505	1637.96
855.684	1612.38
855.863	1668.95
856.041	1630.59
856.22	1654.81
856.399	1644.35
856.577	1724.56
856.756	1773.58
856.934	1837.71
857.113	1821.05
857.291	1766.6
857.47	1711.77
857.648	1748.39
857.827	1745.29
858.005	1759.05
858.184	1721.27
858.362	1801.67
858.541	1734.64
858.719	1748.78
858.898	1735.02
859.076	1685.04
859.254	1778.03
859.433	1707.7
859.611	1697.63
859.789	1648.81
859.967	1722.04
860.146	1771.06
860.324	1648.61
860.502	1664.89
860.68	1610.25
860.859	1635.24
861.037	1667.79
861.215	1662.37
861.393	1651.91
861.571	1642.02
861.749	1623.62
861.927	1673.22
862.105	1665.47
862.283	1653.26
862.461	1596.11
862.639	1607.73
862.817	1636.02
862.995	1656.94
863.173	1607.54
863.351	1612.19
863.529	1659.07
863.707	1642.02
863.885	1627.49
864.063	1566.46
864.241	1580.02
864.418	1645.51
864.596	1619.74
864.774	1568.4
864.952	1583.12
865.129	1617.22
865.307	1553.09
865.485	1485.86
865.663	1573.24
865.84	1471.33
866.018	1518.03
866.196	1380.47
866.373	1417.08
866.551	1335.32
866.728	1325.44
866.906	1343.46
867.084	1364.58
867.261	1419.6
867.439	1449.44
867.616	1463.2
867.794	1445.95
867.971	1442.27
868.149	1461.65
868.326	1511.83
868.503	1524.23
868.681	1491.48
868.858	1470.17
869.035	1453.31
869.213	1502.14
869.39	1450.41
869.567	1531.59
869.745	1427.16
869.922	1467.07
870.099	1476.95
870.276	1481.79
870.454	1500.2
870.631	1486.06
870.808	1438.78
870.985	1459.9
871.162	1521.32
871.339	1468.81
871.517	1424.64
871.694	1391.12
871.871	1455.25
872.048	1420.57
872.225	1434.52
872.402	1438.59
872.579	1404.3
872.756	1425.03
872.933	1395
873.11	1444.4
873.287	1407.78
873.463	1385.7
873.64	1375.82
873.817	1422.12
873.994	1390.35
874.171	1372.52
874.348	1392.48
874.524	1326.6
874.701	1385.7
874.878	1313.23
875.055	1381.05
875.231	1403.33
875.408	1400.03
875.585	1303.16
875.762	1368.26
875.938	1301.03
876.115	1314.78
876.291	1353.53
876.468	1310.13
876.645	1271.58
876.821	1307.23
876.998	1286.69
877.174	1318.85
877.351	1315.56
877.527	1278.36
877.704	1318.66
877.88	1289.99
878.057	1323.5
878.233	1345.59
878.409	1273.9
878.586	1348.88
878.762	1301.03
878.938	1272.74
879.115	1196.41
879.291	1269.84
879.467	1223.34
879.644	1247.94
879.82	1291.73
879.996	1265.19
880.172	1203.19
880.349	1247.55
880.525	1284.37
880.701	1205.32
880.877	1196.79
881.053	1231.86
881.229	1239.42
881.405	1276.62
881.581	1194.47
881.757	1245.81
881.933	1252.2
882.109	1255.69
882.285	1270.03
882.461	1168.12
882.637	1240.39
882.813	1179.55
882.989	1230.5
883.165	1260.73
883.341	1210.36
883.517	1284.17
883.693	1268.48
883.869	1265.57
884.044	1166.57
884.22	1265.96
884.396	1258.79
884.572	1235.93
884.747	1243.49
884.923	1233.6
885.099	1265.96
885.275	1250.85
885.45	1210.36
885.626	1243.29
885.801	1242.32
885.977	1185.75
886.153	1171.22
886.328	1234.57
886.504	1230.5
886.679	1232.05
886.855	1187.3
887.03	1238.64
887.206	1253.37
887.381	1210.74
887.557	1217.91
887.732	1227.4
887.908	1254.92
888.083	1289.02
888.258	1226.63
888.434	1214.42
888.609	1191.56
888.784	1259.76
888.96	1233.22
889.135	1176.45
889.31	1193.5
889.485	1220.82
889.661	1204.74
889.836	1261.5
890.011	1243.1
890.186	1213.65
890.361	1188.66
890.537	1194.27
890.712	1238.06
890.887	1198.54
891.062	1236.9
891.237	1261.5
891.412	1187.88
891.587	1245.42
891.762	1244.65
891.937	1252.2
892.112	1178
892.287	1178.58
892.462	1150.29
892.637	1160.76
892.812	1114.26
892.987	1154.75
893.161	1145.84
893.336	1147.39
893.511	1126.46
893.686	1145.26
893.861	1127.04
894.035	1145.84
894.21	1134.21
894.385	1030.75
894.56	1120.26
894.734	1068.14
894.909	1053.61
895.084	1045.28
895.258	1023.97
895.433	1064.85
895.608	1032.11
895.782	975.73
895.957	1024.55
896.131	978.63
896.306	942.79
896.48	933.68
896.655	937.37
896.829	901.13
897.004	889.12
897.178	886.02
897.353	847.85
897.527	911.21
897.701	894.16
897.876	843.2
898.05	945.31
898.224	912.76
898.399	949.38
898.573	886.02
898.747	795.93
898.921	840.69
899.096	715.33
899.27	738.19
899.444	721.14
899.618	763.57
899.792	794.38
899.967	794.77
900.141	827.7
900.315	761.64
900.489	760.09
900.663	797.67
900.837	799.03
901.011	739.94
901.185	844.56
901.359	781.98
901.533	780.43
901.707	796.32
901.881	779.27
902.055	740.91
902.229	780.04
902.403	809.49
902.576	787.99
902.75	810.46
902.924	880.21
903.098	833.13
903.272	911.21
903.446	911.6
903.619	907.53
903.793	934.27
903.967	892.61
904.14	944.53
904.314	974.76
904.488	920.12
904.661	984.45
904.835	930
905.009	980.38
905.182	1002.46
905.356	965.07
905.529	941.82
905.703	904.43
905.876	900.17
906.05	888.54
906.223	868.39
906.397	824.8
906.57	785.66
906.744	791.47
906.917	808.14
907.09	811.43
907.264	757.96
907.437	750.21
907.61	697.31
907.784	705.26
907.957	758.15
908.13	675.61
908.304	730.44
908.477	706.42
908.65	708.55
908.823	698.86
908.996	739.55
909.17	683.36
909.343	684.53
909.516	683.94
909.689	690.34
909.862	646.16
910.035	705.26
910.208	630.28
910.381	650.43
910.554	748.46
910.727	677.36
910.9	667.09
911.073	680.26
911.246	708.94
911.419	748.85
911.592	737.03
911.765	685.3
911.938	658.37
912.11	703.32
912.283	681.04
912.456	735.48
912.629	717.07
912.802	680.65
912.974	613.81
913.147	579.32
913.32	544.64
913.493	575.06
913.665	588.23
913.838	626.21
914.01	609.93
914.183	611.48
914.356	616.33
914.528	652.36
914.701	705.64
914.873	660.31
915.046	600.05
915.218	597.15
915.391	510.15
915.563	540.18
915.736	577.96
915.908	618.07
916.081	608.38
916.253	607.99
916.425	638.8
916.598	623.11
916.77	605.67
916.942	556.26
917.115	514.61
917.287	561.5
917.459	566.53
917.632	541.93
917.804	484
917.976	572.35
918.148	566.73
918.32	581.45
918.493	590.56
918.665	635.7
918.837	588.62
919.009	655.27
919.181	636.09
919.353	639.58
919.525	611.68
919.697	603.93
919.869	621.56
920.041	665.93
920.213	720.56
920.385	662.24
920.557	621.17
920.729	662.63
920.901	652.94
921.073	596.76
921.244	595.4
921.416	638.41
921.588	604.51
921.76	623.88
921.932	638.22
922.103	586.1
922.275	608.38
922.447	600.25
922.619	552
922.79	600.63
922.962	590.17
923.134	635.31
923.305	542.31
923.477	505.31
923.648	549.68
923.82	550.26
923.991	494.85
924.163	491.36
924.335	524.88
924.506	490.78
924.677	585.52
924.849	515.38
925.02	554.33
925.192	555.1
925.363	548.71
925.535	526.04
925.706	498.14
925.877	574.48
926.049	549.1
926.22	554.91
926.391	530.88
926.562	563.05
926.734	497.95
926.905	561.88
927.076	467.14
927.247	493.3
927.419	491.75
927.59	452.03
927.761	465.4
927.932	442.34
928.103	471.79
928.274	392.35
928.445	392.94
928.616	426.07
928.787	414.25
928.958	414.05
929.129	423.94
929.3	408.44
929.471	376.27
929.642	316.79
929.813	262.93
929.984	366
930.155	269.52
930.326	335.97
930.496	289.47
930.667	199.19
930.838	269.91
931.009	244.91
931.18	237.16
931.35	223.21
931.521	234.45
931.692	191.24
931.863	135.64
932.033	180.01
932.204	197.06
932.374	200.74
932.545	129.25
932.716	213.33
932.886	185.04
933.057	118.98
933.227	117.23
933.398	212.94
933.568	107.93
933.739	66.08
933.909	113.55
934.08	125.37
934.25	50.2
934.421	49.42
934.591	107.55
934.761	90.69
934.932	83.33
935.102	109.87
935.272	74.8
935.443	111.03
935.613	94.56
935.783	128.86
935.953	68.6
936.123	223.99
936.294	91.08
936.464	81.78
936.634	94.37
936.804	57.56
936.974	51.55
937.144	89.91
937.314	89.72
937.484	58.53
937.655	71.51
937.825	130.99
937.995	48.07
938.165	147.07
938.334	104.25
938.504	114.13
938.674	121.11
938.844	111.23
939.014	180.2
939.184	171.87
939.354	233.09
939.524	207.52
939.694	164.12
939.863	156.18
940.033	227.67
940.203	216.24
940.373	188.14
940.542	187.76
940.712	174
940.882	208.68
941.051	197.25
941.221	173.61
941.391	210.62
941.56	152.5
941.73	160.44
941.899	251.5
942.069	145.33
942.238	195.12
942.408	137.19
942.577	181.36
942.747	153.27
942.916	113.55
943.086	118.01
943.255	191.63
943.425	155.4
943.594	102.12
943.763	77.9
943.933	93.98
944.102	62.6
944.271	101.15
944.441	145.33
944.61	96.5
944.779	107.93
944.948	210.04
945.117	71.32
945.287	114.52
945.456	57.37
945.625	66.86
945.794	123.82
945.963	90.11
946.132	118.98
946.301	94.18
946.47	147.26
946.639	61.24
946.808	100.18
946.977	126.73
947.146	165.09
947.315	120.14
947.484	151.72
947.653	98.25
947.822	121.69
947.991	90.69
948.16	193.96
948.329	138.93
948.498	117.62
948.666	131.76
948.835	136.41
949.004	94.95
949.173	63.57
949.341	114.91
949.51	140.29
949.679	154.82
949.847	133.51
950.016	191.24
950.185	175.74
950.353	75.19
950.522	114.52
950.69	170.9
950.859	90.69
951.028	176.91
951.196	136.61
951.365	110.26
951.533	118.59
951.701	158.7
951.87	142.61
952.038	75.77
952.207	88.17
952.375	171.48
952.543	87.4
952.712	115.3
952.88	81.39
953.048	187.76
953.217	131.76
953.385	113.75
953.553	160.05
953.721	85.07
953.89	114.33
954.058	55.23
954.226	74.03
954.394	126.92
954.562	75.58
954.73	125.18
954.898	99.8
955.067	152.88
955.235	71.12
955.403	155.4
955.571	173.81
955.739	121.11
955.907	67.05
956.075	81.2
956.243	91.08
956.41	139.13
956.578	85.46
956.746	81.78
956.914	107.93
957.082	129.25
957.25	132.73
957.418	66.86
957.585	127.7
957.753	151.72
957.921	90.88
958.089	131.18
958.256	128.47
958.424	152.69
958.592	141.45
958.759	87.01
958.927	150.17
959.095	87.01
959.262	122.08
959.43	117.43
959.597	79.45
959.765	117.04
959.932	75.77
960.1	150.75
960.267	122.08
960.435	137.19
960.602	146.3
960.77	96.89
960.937	97.86
961.104	142.23
961.272	71.7
961.439	116.65
961.606	144.16
961.774	127.89
961.941	100.76
962.108	134.28
962.275	124.98
962.443	146.49
962.61	155.6
962.777	196.67
962.944	146.3
963.111	158.31
963.278	150.56
963.446	130.99
963.613	127.31
963.78	144.16
963.947	140.68
964.114	131.96
964.281	224.18
964.448	149.2
964.615	120.72
964.782	132.35
964.949	160.44
965.116	154.05
965.282	171.29
965.449	139.51
965.616	99.99
965.783	155.6
965.95	148.23
966.117	97.28
966.283	143.39
966.45	144.94
966.617	152.11
966.784	182.91
966.95	160.05
967.117	150.56
967.284	123.24
967.45	108.71
967.617	170.51
967.784	180.2
967.95	190.47
968.117	141.06
968.283	178.26
968.45	244.53
968.616	125.95
968.783	183.69
968.949	160.25
969.116	210.43
969.282	150.17
969.449	129.25
969.615	166.06
969.781	124.01
969.948	129.25
970.114	102.12
970.28	211.39
970.447	127.89
970.613	215.08
970.779	149.98
970.945	146.88
971.112	168.77
971.278	158.31
971.444	161.6
971.61	185.63
971.776	155.4
971.942	176.33
972.108	177.68
972.275	137.19
972.441	163.54
972.607	220.31
972.773	140.29
972.939	177.68
973.105	165.48
973.271	116.07
973.437	133.12
973.602	105.03
973.768	151.14
973.934	143.58
974.1	164.51
974.266	75.38
974.432	142.03
974.598	136.03
974.763	166.45
974.929	104.83
975.095	180.2
975.261	89.33
975.426	120.72
975.592	127.5
975.758	204.42
975.923	88.36
976.089	116.65
976.255	155.4
976.42	151.91
976.586	164.12
976.751	143.58
976.917	222.63
977.082	155.01
977.248	98.44
977.413	79.26
977.579	135.25
977.744	138.93
977.91	69.57
978.075	86.81
978.24	168.38
978.406	115.88
978.571	123.24
978.736	83.33
978.902	155.79
979.067	103.09
979.232	71.7
979.397	112
979.563	171.48
979.728	95.34
979.893	117.62
980.058	93.79
980.223	170.71
980.388	143.97
980.554	130.8
980.719	107.93
980.884	122.27
981.049	125.56
981.214	110.84
981.379	116.07
981.544	119.36
981.709	107.35
981.874	115.88
982.039	112.97
982.204	121.69
982.368	135.45
982.533	95.34
982.698	139.13
982.863	143.78
983.028	112
983.193	103.28
983.357	132.54
983.522	118.78
983.687	101.35
983.852	115.3
984.016	113.55
984.181	131.18
984.346	138.35
984.51	125.95
984.675	119.56
984.839	156.37
985.004	120.14
985.168	152.3
985.333	141.84
985.498	101.35
985.662	157.92
985.827	132.93
985.991	120.33
986.155	102.9
986.32	141.84
986.484	179.23
986.649	143
986.813	76.93
986.977	107.35
987.142	139.32
987.306	67.83
987.47	85.46
987.634	98.63
987.799	118.2
987.963	119.95
988.127	131.38
988.291	196.48
988.455	124.21
988.62	98.05
988.784	162.96
988.948	121.11
989.112	73.06
989.276	122.66
989.44	146.1
989.604	61.63
989.768	123.63
989.932	188.73
990.096	93.4
990.26	119.17
990.424	59.11
990.588	129.25
990.752	168.77
990.915	133.51
991.079	97.47
991.243	91.46
991.407	124.79
991.571	109.29
991.734	118.78
991.898	120.53
992.062	188.73
992.226	105.8
992.389	87.4
992.553	34.12
992.717	69.18
992.88	83.33
993.044	98.63
993.207	73.83
993.371	108.71
993.535	113.94
993.698	100.38
993.862	104.45
994.025	122.27
994.189	84.3
994.352	109.29
994.515	118.59
994.679	145.33
994.842	68.02
995.006	138.93
995.169	96.31
995.332	64.15
995.496	106.96
995.659	45.35
995.822	81.97
995.985	77.71
996.149	179.43
996.312	91.66
996.475	150.56
996.638	61.82
996.801	147.65
996.964	162.96
997.128	97.47
997.291	96.7
997.454	77.9
997.617	54.46
997.78	111.81
997.943	89.33
998.106	112.2
998.269	72.67
998.432	75
998.595	112.97
998.758	52.13
998.92	76.74
999.083	44.77
999.246	73.83
999.409	41.87
999.572	18.42
999.735	68.22
999.897	82.94
1000.06	75.58
1000.223	84.3
1000.386	95.15
1000.548	102.31
1000.711	98.44
1000.874	96.7
1001.036	24.23
1001.199	103.48
1001.361	48.84
1001.524	78.1
1001.687	105.8
1001.849	37.6
1002.012	90.69
1002.174	87.98
1002.337	130.99
1002.499	82.75
1002.661	105.03
1002.824	22.49
1002.986	56.59
1003.149	80.61
1003.311	31.98
1003.473	124.79
1003.636	53.68
1003.798	85.07
1003.96	96.7
1004.123	88.75
1004.285	57.95
1004.447	62.79
1004.609	52.91
1004.771	139.13
1004.933	18.42
1005.096	42.25
1005.258	2.34
1005.42	44.97
1005.582	120.72
1005.744	83.33
1005.906	37.99
1006.068	66.47
1006.23	34.12
1006.392	8.15
1006.554	48.26
1006.716	90.3
1006.878	100.96
1007.04	37.22
1007.202	31.6
1007.363	82.16
1007.525	87.78
1007.687	76.16
1007.849	127.11
1008.011	7.57
1008.172	45.55
1008.334	42.83
1008.496	54.46
1008.658	-7.93
1008.819	32.18
1008.981	13
1009.143	26.95
1009.304	45.35
1009.466	75.19
1009.627	108.13
1009.789	169.35
1009.95	66.67
1010.112	50
1010.273	43.42
1010.435	2.53
1010.596	28.5
1010.758	43.22
1010.919	47.1
1011.081	38.18
1011.242	65.12
1011.403	74.42
1011.565	39.15
1011.726	69.38
1011.887	10.28
1012.049	30.63
1012.21	84.49
1012.371	127.7
1012.532	-12.77
1012.693	56.59
1012.855	55.82
1013.016	48.26
1013.177	85.85
1013.338	47.68
1013.499	105.03
1013.66	53.88
1013.821	67.44
1013.982	67.25
1014.143	61.82
1014.304	40.12
1014.465	89.14
1014.626	71.7
1014.787	40.51
1014.948	145.91
1015.109	-21.88
1015.27	84.88
1015.431	18.42
1015.592	10.09
1015.752	92.24
1015.913	34.12
1016.074	40.7
1016.235	81
1016.395	42.45
1016.556	36.63
1016.717	59.5
1016.877	93.79
1017.038	11.45
1017.199	63.76
1017.359	40.7
1017.52	62.6
1017.681	11.83
1017.841	16.48
1018.002	28.88
1018.162	28.5
1018.323	136.8
1018.483	50.2
1018.644	45.16
1018.804	17.26
1018.964	8.93
1019.125	-7.93
1019.285	73.25
1019.446	0.98
1019.606	12.8
1019.766	-11.22
1019.926	84.3
1020.087	55.23
1020.247	20.75
1020.407	46.71
1020.567	72.09
1020.728	34.5
1020.888	8.54
1021.048	28.3
1021.208	-4.25
1021.368	10.67
1021.528	81
1021.688	44.19
1021.848	61.05
1022.008	64.34
1022.168	27.14
1022.328	56.01
1022.488	51.36
1022.648	14.35
1022.808	38.96
1022.968	46.71
1023.128	7.18
1023.288	27.53
1023.448	27.92
1023.608	53.68
1023.767	38.96
1023.927	12.42
1024.087	-6.38
1024.247	-25.75
1024.406	7.18
1024.566	-10.83
1024.726	-13.93
1024.885	28.88
1025.045	50.78
1025.205	37.6
1025.364	11.25
1025.524	20.94
1025.683	15.9
1025.843	41.09
1026.003	11.45
1026.162	84.88
1026.321	53.88
1026.481	40.7
1026.64	30.82
1026.8	43.22
1026.959	16.87
1027.119	25.2
1027.278	21.13
1027.437	-12.38
1027.597	43.42
1027.756	43.03
1027.915	69.18
1028.074	43.22
1028.234	12.22
1028.393	25.2
1028.552	13.97
1028.711	-46.1
1028.87	49.03
1029.03	-5.02
1029.189	46.13
1029.348	-54.23
1029.507	28.88
1029.666	0.4
1029.825	-11.22
1029.984	35.86
1030.143	38.18
1030.302	-3.28
1030.461	-19.94
1030.62	10.28
1030.779	50.39
1030.938	-12.58
1031.097	-7.73
1031.255	59.5
1031.414	65.31
1031.573	26.56
1031.732	-33.5
1031.891	13.77
1032.049	61.43
1032.208	31.21
1032.367	15.71
1032.525	-18.97
1032.684	24.43
1032.843	10.67
1033.001	-57.91
1033.16	174.39
1033.319	60.85
1033.477	27.53
1033.636	0.6
1033.794	-35.44
1033.953	38.77
1034.111	37.22
1034.27	-0.95
1034.428	42.25
1034.587	-4.44
1034.745	26.95
1034.903	36.44
1035.062	22.3
1035.22	-33.31
1035.378	52.33
1035.537	-15.1
1035.695	59.69
1035.853	13.19
1036.011	46.32
1036.17	6.02
1036.328	-37.96
1036.486	24.23
1036.644	17.07
1036.802	-80.39
1036.96	2.15
1037.119	4.47
1037.277	-15.68
1037.435	-25.95
1037.593	-31.18
1037.751	28.3
1037.909	41.87
1038.067	41.87
