Data from gum_old_FLMT105791__159__15-47-46-250.txt Node

Date: Mon Mar 20 15:47:46 GMT 2023
User: antho
Spectrometer: FLMT10579
Trigger mode: 0
Integration Time (sec): 1.000000E-1
Scans to average: 10
Electric dark correction enabled: true
Nonlinearity correction enabled: false
Boxcar width: 0
XAxis mode: Wavelengths
Number of Pixels in Spectrum: 3648
>>>>>Begin Spectral Data<<<<<
345.248	-187.97
345.464	-187.97
345.681	-187.97
345.898	-168.4
346.114	-189.13
346.331	-28.32
346.548	26.12
346.764	-17.86
346.981	5.39
347.197	-7.59
347.414	15.08
347.631	-14.37
347.847	40.85
348.064	1.91
348.28	35.04
348.497	-45.95
348.713	-10.3
348.93	36
349.146	45.3
349.363	20.89
349.579	-4.49
349.796	19.73
350.012	1.13
350.229	53.83
350.445	16.05
350.661	-7.2
350.878	21.47
351.094	60.22
351.311	30.39
351.527	51.7
351.743	14.89
351.96	48.21
352.176	58.67
352.392	39.69
352.609	58.67
352.825	19.15
353.041	14.31
353.257	9.46
353.474	13.92
353.69	51.5
353.906	18.95
354.122	-38.01
354.339	67.39
354.555	36.59
354.771	36.2
354.987	80.95
355.203	107.69
355.42	-1.58
355.636	11.21
355.852	-2.55
356.068	35.04
356.284	-25.8
356.5	82.7
356.716	75.72
356.932	46.27
357.148	65.26
357.364	14.5
357.58	66.81
357.796	75.53
358.012	80.76
358.228	65.07
358.444	-19.99
358.66	83.67
358.876	60.61
359.092	5.2
359.308	57.32
359.524	56.15
359.74	24.96
359.956	22.44
360.172	20.12
360.388	62.94
360.604	20.89
360.819	124.74
361.035	34.45
361.251	63.32
361.467	9.85
361.683	73.79
361.898	58.29
362.114	89.67
362.33	48.6
362.546	76.69
362.762	54.8
362.977	38.72
363.193	10.04
363.409	82.12
363.624	19.73
363.84	16.05
364.056	23.8
364.271	58.87
364.487	85.8
364.703	35.81
364.918	10.24
365.134	7.91
365.35	49.37
365.565	143.92
365.781	69.72
365.996	60.03
366.212	117.38
366.427	79.02
366.643	24.19
366.858	37.75
367.074	50.15
367.289	99.94
367.505	179.18
367.72	34.84
367.936	64.49
368.151	86.77
368.367	82.31
368.582	58.48
368.798	47.63
369.013	112.15
369.228	68.75
369.444	54.02
369.659	130.17
369.874	80.76
370.09	128.42
370.305	19.92
370.52	33.68
370.736	107.69
370.951	68.94
371.166	121.06
371.381	121.25
371.597	96.07
371.812	43.75
372.027	24.38
372.242	64.1
372.458	135.2
372.673	34.45
372.888	64.29
373.103	80.57
373.318	152.25
373.533	78.44
373.749	95.87
373.964	7.72
374.179	88.7
374.394	44.53
374.609	123.77
374.824	27.29
375.039	108.08
375.254	25.93
375.469	129
375.684	91.03
375.899	122.03
376.114	74.17
376.329	82.7
376.544	104.59
376.759	94.32
376.974	43.75
377.189	55.96
377.404	54.8
377.619	115.05
377.834	42.4
378.049	31.16
378.264	60.42
378.478	95.29
378.693	54.02
378.908	73.98
379.123	63.52
379.338	101.49
379.553	101.1
379.767	65.65
379.982	118.54
380.197	105.37
380.412	92
380.626	128.42
380.841	173.57
381.056	106.53
381.271	159.03
381.485	84.25
381.7	46.85
381.915	85.6
382.129	96.65
382.344	69.52
382.559	60.22
382.773	114.47
382.988	-2.55
383.202	83.67
383.417	49.37
383.632	183.06
383.846	55.57
384.061	68.94
384.275	50.54
384.49	91.03
384.704	120.28
384.919	88.51
385.133	80.76
385.348	133.27
385.562	45.89
385.777	132.1
385.991	85.8
386.206	82.5
386.42	73.79
386.634	142.18
386.849	104.4
387.063	115.05
387.277	54.99
387.492	70.3
387.706	82.31
387.92	61.58
388.135	132.3
388.349	96.26
388.563	114.67
388.778	110.4
388.992	105.95
389.206	111.95
389.42	184.42
389.635	105.17
389.849	151.09
390.063	142.57
390.277	128.03
390.491	176.28
390.706	135.98
390.92	139.08
391.134	137.53
391.348	146.44
391.562	70.49
391.776	115.05
391.99	100.52
392.205	158.26
392.419	116.22
392.633	103.23
392.847	173.37
393.061	98.97
393.275	146.25
393.489	113.5
393.703	84.25
393.917	145.08
394.131	71.07
394.345	117.57
394.559	135.01
394.773	110.21
394.986	156.32
395.2	123.38
395.414	168.72
395.628	113.89
395.842	153.61
396.056	141.98
396.27	85.8
396.484	151.28
396.697	130.17
396.911	166.59
397.125	130.75
397.339	178.41
397.553	128.42
397.766	190.23
397.98	172.21
398.194	168.14
398.408	157.48
398.621	206.31
398.835	197.98
399.049	175.31
399.262	231.5
399.476	234.21
399.69	259.01
399.903	268.31
400.117	210.96
400.331	215.03
400.544	196.23
400.758	323.72
400.971	241.76
401.185	279.16
401.398	198.75
401.612	259.98
401.826	259.78
402.039	254.16
402.253	220.84
402.466	254.16
402.68	215.61
402.893	244.48
403.106	280.51
403.32	232.66
403.533	269.47
403.747	252.42
403.96	242.73
404.174	263.08
404.387	183.83
404.6	251.65
404.814	283.42
405.027	254.16
405.24	257.85
405.454	245.06
405.667	301.24
405.88	223.75
406.094	283.61
406.307	314.42
406.52	264.82
406.733	215.61
406.947	199.33
407.16	301.05
407.373	308.41
407.586	251.65
407.799	233.43
408.012	323.72
408.226	307.64
408.439	338.25
408.652	267.15
408.865	287.88
409.078	320.23
409.291	309.38
409.504	246.8
409.717	353.75
409.93	295.04
410.143	284.97
410.357	231.69
410.57	242.35
410.783	247.19
410.996	285.36
411.209	281.48
411.421	316.55
411.634	310.93
411.847	275.09
412.06	280.13
412.273	329.53
412.486	309.19
412.699	420.79
412.912	298.73
413.125	339.8
413.338	336.89
413.55	320.62
413.763	318.1
413.976	349.29
414.189	303.57
414.402	300.66
414.615	385.72
414.827	307.64
415.04	362.08
415.253	348.52
415.466	390.56
415.678	414.97
415.891	352.39
416.104	313.26
416.316	310.16
416.529	300.66
416.742	370.99
416.954	383.39
417.167	347.36
417.38	317.91
417.592	405.67
417.805	307.06
418.017	280.13
418.23	363.83
418.442	326.43
418.655	334.57
418.868	368.28
419.08	396.18
419.293	381.46
419.505	362.28
419.718	396.37
419.93	405.87
420.142	331.86
420.355	393.27
420.567	395.02
420.78	379.32
420.992	353.36
421.205	443.65
421.417	321.78
421.629	374.87
421.842	351.81
422.054	328.37
422.266	400.25
422.479	446.17
422.691	355.69
422.903	408.19
423.115	353.94
423.328	358.79
423.54	379.32
423.752	359.37
423.964	353.17
424.177	392.5
424.389	371.19
424.601	514.37
424.813	408.77
425.025	428.73
425.238	424.47
425.45	425.82
425.662	367.51
425.874	703.27
426.086	409.16
426.298	442.1
426.51	401.61
426.722	399.67
426.934	381.65
427.146	442.49
427.358	363.05
427.57	436.67
427.782	373.71
427.994	392.69
428.206	369.64
428.418	373.32
428.63	432.41
428.842	439.19
429.054	406.84
429.266	469.03
429.478	349.68
429.69	433.19
429.902	329.14
430.114	410.91
430.325	401.61
430.537	358.4
430.749	338.44
430.961	289.04
431.173	327.4
431.384	344.45
431.596	288.84
431.808	344.84
432.02	387.85
432.231	476.39
432.443	490.92
432.655	498.67
432.867	458.95
433.078	476
433.29	516.89
433.502	497.51
433.713	495.19
433.925	506.81
434.136	510.49
434.348	400.83
434.56	419.82
434.771	522.89
434.983	397.15
435.194	462.25
435.406	470.19
435.617	529.29
435.829	561.25
436.04	533.16
436.252	530.84
436.463	585.28
436.675	581.02
436.886	550.02
437.098	582.95
437.309	631.39
437.521	534.9
437.732	550.6
437.943	547.69
438.155	548.27
438.366	464.19
438.578	556.22
438.789	520.76
439	534.32
439.211	495.57
439.423	522.89
439.634	533.16
439.845	545.17
440.057	594.19
440.268	598.84
440.479	569.97
440.69	560.67
440.902	536.84
441.113	527.15
441.324	538.97
441.535	583.92
441.746	645.34
441.957	567.84
442.168	584.89
442.38	615.31
442.591	645.34
442.802	559.9
443.013	606.98
443.224	637.98
443.435	581.79
443.646	584.89
443.857	597.87
444.068	593.61
444.279	558.54
444.49	695.33
444.701	620.15
444.912	735.82
445.123	682.54
445.334	632.36
445.545	651.54
445.756	599.42
445.967	617.05
446.178	630.03
446.388	655.8
446.599	646.31
446.81	666.46
447.021	598.65
447.232	670.53
447.443	697.07
447.653	618.8
447.864	713.93
448.075	664.13
448.286	708.5
448.496	668.78
448.707	702.5
448.918	673.63
449.129	767.21
449.339	630.42
449.55	730.39
449.761	697.26
449.971	739.31
450.182	689.71
450.393	723.03
450.603	694.75
450.814	756.74
451.024	726.91
451.235	768.76
451.446	786
451.656	786.97
451.867	707.15
452.077	741.05
452.288	784.45
452.498	810.8
452.709	701.91
452.919	743.18
453.13	689.32
453.34	730.59
453.55	671.3
453.761	733.69
453.971	715.48
454.182	737.37
454.392	740.08
454.602	822.42
454.813	775.54
455.023	770.31
455.233	674.79
455.444	741.44
455.654	642.24
455.864	732.53
456.075	756.74
456.285	680.6
456.495	719.74
456.705	765.46
456.916	784.26
457.126	823.39
457.336	785.23
457.546	665.3
457.756	739.31
457.967	812.74
458.177	774.57
458.387	756.74
458.597	722.84
458.807	721.09
459.017	736.98
459.227	758.1
459.437	744.73
459.647	783.68
459.857	780.96
460.068	736.79
460.278	807.89
460.488	791.43
460.698	851.68
460.908	757.33
461.117	724.78
461.327	755.19
461.537	800.14
461.747	808.67
461.957	792.98
462.167	906.51
462.377	870.47
462.587	828.24
462.797	850.32
463.007	819.32
463.216	839.09
463.426	879.39
463.636	859.24
463.846	776.7
464.056	806.15
464.265	832.69
464.475	784.84
464.685	819.13
464.895	835.41
465.104	808.47
465.314	837.34
465.524	817.97
465.733	788.71
465.943	872.02
466.153	892.75
466.362	891.59
466.572	872.99
466.782	827.27
466.991	821.46
467.201	922.79
467.41	760.43
467.62	823.59
467.829	835.21
468.039	867.37
468.249	845.67
468.458	846.45
468.668	911.16
468.877	881.91
469.086	908.06
469.296	933.05
469.505	892.95
469.715	973.16
469.924	928.6
470.134	923.56
470.343	941.77
470.552	875.71
470.762	892.17
470.971	879.19
471.18	903.22
471.39	947.59
471.599	871.25
471.808	910.97
472.018	925.3
472.227	991.95
472.436	1033.22
472.645	966.19
472.855	965.41
473.064	1046.78
473.273	1017.72
473.482	1026.05
473.691	1051.05
473.901	992.73
474.11	997.38
474.319	1066.93
474.528	1002.42
474.737	1084.37
474.946	1052.21
475.155	1052.79
475.364	1101.81
475.573	1074.49
475.783	1118.86
475.992	1106.07
476.201	1124.86
476.41	1090.96
476.619	1038.45
476.828	1071.78
477.037	1079.91
477.245	1055.5
477.454	1154.31
477.663	1102.58
477.872	1134.75
478.081	1193.06
478.29	1156.44
478.499	1236.46
478.708	1155.28
478.917	1245.96
479.125	1173.88
479.334	1188.03
479.543	1207.21
479.752	1221.54
479.961	1206.82
480.169	1269.79
480.378	1253.51
480.587	1363.75
480.796	1243.24
481.004	1252.93
481.213	1268.24
481.422	1284.71
481.63	1274.44
481.839	1330.43
482.048	1382.35
482.256	1322.49
482.465	1329.46
482.674	1324.62
482.882	1376.54
483.091	1422.07
483.299	1340.31
483.508	1397.47
483.716	1384.1
483.925	1399.6
484.134	1297.88
484.342	1343.6
484.551	1397.27
484.759	1368.6
484.967	1421.68
485.176	1404.05
485.384	1410.45
485.593	1449.2
485.801	1389.14
486.01	1340.89
486.218	1266.3
486.426	1190.74
486.635	1202.56
486.843	1179.69
487.051	1242.66
487.26	1226.19
487.468	1295.36
487.676	1364.14
487.885	1333.72
488.093	1395.92
488.301	1435.83
488.509	1423.43
488.717	1485.43
488.926	1451.13
489.134	1421.1
489.342	1445.71
489.55	1380.22
489.758	1422.85
489.967	1442.03
490.175	1586.18
490.383	1505.77
490.591	1610.78
490.799	1503.64
491.007	1585.01
491.215	1571.06
491.423	1520.11
491.631	1556.34
491.839	1551.3
492.047	1554.6
492.255	1509.65
492.463	1437.57
492.671	1476.71
492.879	1583.08
493.087	1532.12
493.295	1559.44
493.503	1576.3
493.711	1604.78
493.919	1675.11
494.127	1662.9
494.334	1626.67
494.542	1587.92
494.75	1637.91
494.958	1568.35
495.166	1730.52
495.374	1662.51
495.581	1675.49
495.789	1709.21
495.997	1742.14
496.205	1619.5
496.412	1664.84
496.62	1660.19
496.828	1677.43
497.035	1673.17
497.243	1743.5
497.451	1702.23
497.658	1688.09
497.866	1701.84
498.074	1775.08
498.281	1673.56
498.489	1765
498.696	1661.16
498.904	1622.79
499.112	1632.29
499.319	1734.78
499.527	1710.37
499.734	1738.85
499.942	1667.74
500.149	1704.94
500.357	1748.92
500.564	1654.96
500.771	1694.87
500.979	1704.56
501.186	1637.91
501.394	1695.64
501.601	1648.37
501.808	1709.01
502.016	1683.82
502.223	1677.43
502.43	1687.12
502.638	1680.34
502.845	1657.67
503.052	1776.44
503.26	1713.66
503.467	1794.65
503.674	1761.13
503.881	1797.75
504.089	1860.52
504.296	1783.41
504.503	1679.95
504.71	1709.01
504.917	1679.56
505.125	1781.86
505.332	1751.25
505.539	1766.55
505.746	1862.07
505.953	1852
506.16	1844.64
506.367	1935.12
506.574	1919.23
506.781	1910.51
506.988	1830.88
507.195	1899.66
507.402	1849.29
507.609	1886.29
507.816	1830.3
508.023	1813.83
508.23	1792.13
508.437	1801.24
508.644	1860.13
508.851	1874.28
509.058	1860.91
509.265	1872.15
509.472	1902.37
509.679	1973.28
509.885	1891.13
510.092	1896.75
510.299	1915.93
510.506	1864.78
510.713	1899.47
510.92	1921.17
511.126	1887.45
511.333	1927.17
511.54	1942.67
511.746	1956.81
511.953	1994.6
512.16	2053.88
512.367	1978.71
512.573	1978.9
512.78	1982.2
512.987	1914.38
513.193	1958.75
513.4	1815.57
513.606	1926.4
513.813	1949.65
514.02	1929.69
514.226	1972.51
514.433	1969.02
514.639	1889
514.846	1942.28
515.052	1906.25
515.259	1922.52
515.465	1946.35
515.672	1995.18
515.878	2046.71
516.085	1994.79
516.291	2008.93
516.497	1963.98
516.704	1959.33
516.91	1928.92
517.117	1871.95
517.323	1717.15
517.529	1812.86
517.736	1763.26
517.942	1787.67
518.148	1824.1
518.354	1885.13
518.561	1844.44
518.767	1881.83
518.973	1927.17
519.179	1922.91
519.386	1912.06
519.592	1888.03
519.798	1944.03
520.004	2044
520.21	1999.44
520.417	2074.23
520.623	2124.41
520.829	2118.79
521.035	2111.43
521.241	2127.31
521.447	2152.5
521.653	2272.62
521.859	2106.58
522.065	2145.91
522.271	2246.66
522.477	2234.07
522.683	2276.3
522.889	2181.56
523.095	2217.21
523.301	2177.88
523.507	2165.67
523.713	2201.32
523.919	2180.21
524.125	2263.52
524.331	2245.11
524.537	2343.53
524.742	2264.1
524.948	2314.28
525.154	2341.21
525.36	2458.43
525.566	2319.7
525.772	2397.01
525.977	2256.15
526.183	2384.8
526.389	2398.56
526.595	2313.12
526.8	2268.94
527.006	2171.68
527.212	2132.35
527.417	2081.78
527.623	2084.69
527.829	2191.06
528.034	2252.67
528.24	2225.54
528.446	2267
528.651	2413.28
528.857	2388.29
529.062	2428.78
529.268	2408.25
529.473	2430.72
529.679	2454.55
529.884	2569.83
530.09	2512.29
530.295	2489.04
530.501	2502.99
530.706	2502.6
530.912	2429.36
531.117	2471.99
531.323	2505.31
531.528	2538.83
531.733	2564.79
531.939	2526.63
532.144	2553.94
532.35	2547.74
532.555	2572.35
532.76	2506.67
532.966	2502.21
533.171	2482.64
533.376	2408.05
533.581	2373.37
533.787	2467.34
533.992	2514.81
534.197	2539.99
534.402	2546
534.607	2576.42
534.813	2628.54
535.018	2536.89
535.223	2526.63
535.428	2528.95
535.633	2575.84
535.838	2599.86
536.043	2618.66
536.249	2742.27
536.454	2652.17
536.659	2660.31
536.864	2606.06
537.069	2586.69
537.274	2634.74
537.479	2624.47
537.684	2589.21
537.889	2549.29
538.094	2701.97
538.299	2586.49
538.504	2612.84
538.708	2660.7
538.913	2692.86
539.118	2642.1
539.323	2678.33
539.528	2623.69
539.733	2621.76
539.938	2619.62
540.142	2628.34
540.347	2580.1
540.552	2534.18
540.757	2556.27
540.962	2576.61
541.166	2523.33
541.371	2503.96
541.576	2551.04
541.781	2480.51
541.985	2613.23
542.19	2578.74
542.395	2689.95
542.599	2731.61
542.804	2645.97
543.008	2730.06
543.213	2593.47
543.418	2591.92
543.622	2683.75
543.827	2589.98
544.031	2700.42
544.236	2722.12
544.44	2682.98
544.645	2787.02
544.849	2656.24
545.054	2703.13
545.258	2773.46
545.463	2800.97
545.667	2632.41
545.872	2721.15
546.076	2714.17
546.281	2691.89
546.485	2724.25
546.689	2692.67
546.894	2719.4
547.098	2727.54
547.302	2661.28
547.507	2698.09
547.711	2767.45
547.915	2743.82
548.119	2667.09
548.324	2650.62
548.528	2697.51
548.732	2647.91
548.936	2719.6
549.141	2734.9
549.345	2697.51
549.549	2689.76
549.753	2686.27
549.957	2801.17
550.161	2793.03
550.366	2760.67
550.57	2720.76
550.774	2721.73
550.978	2700.61
551.182	2790.7
551.386	2711.85
551.59	2693.83
551.794	2682.4
551.998	2756.8
552.202	2726.96
552.406	2709.91
552.61	2741.3
552.814	2786.05
553.018	2824.8
553.222	2732.19
553.426	2675.42
553.63	2830.61
553.833	2710.3
554.037	2652.95
554.241	2702.35
554.445	2810.47
554.649	2783.34
554.853	2669.61
555.056	2789.54
555.26	2783.92
555.464	2773.07
555.668	2741.1
555.871	2797.29
556.075	2812.4
556.279	2729.87
556.483	2662.25
556.686	2702.35
556.89	2700.22
557.094	2754.08
557.297	2624.47
557.501	2737.62
557.704	2619.04
557.908	2688.02
558.112	2618.46
558.315	2731.8
558.519	2645.2
558.722	2672.32
558.926	2643.45
559.129	2559.76
559.333	2538.06
559.536	2571.57
559.74	2524.88
559.943	2533.99
560.147	2530.89
560.35	2558.98
560.553	2566.73
560.757	2506.86
560.96	2640.74
561.164	2599.86
561.367	2717.47
561.57	2593.27
561.774	2630.09
561.977	2601.99
562.18	2566.34
562.384	2649.85
562.587	2563.63
562.79	2571.96
562.993	2539.99
563.197	2545.61
563.4	2624.66
563.603	2627.18
563.806	2643.07
564.009	2548.52
564.212	2566.15
564.416	2472.18
564.619	2571.57
564.822	2476.25
565.025	2620.59
565.228	2502.21
565.431	2534.76
565.634	2469.08
565.837	2477.22
566.04	2431.11
566.243	2487.1
566.446	2330.94
566.649	2502.79
566.852	2346.05
567.055	2403.79
567.258	2498.53
567.461	2505.12
567.664	2520.62
567.867	2430.91
568.07	2452.61
568.273	2447.38
568.475	2476.83
568.678	2391.97
568.881	2429.75
569.084	2422.97
569.287	2282.89
569.489	2323.97
569.692	2409.99
569.895	2407.66
570.098	2328.62
570.3	2309.82
570.503	2252.09
570.706	2262.16
570.909	2260.61
571.111	2248.79
571.314	2209.65
571.516	2220.12
571.719	2270.1
571.922	2215.27
572.124	2234.65
572.327	2243.17
572.529	2187.37
572.732	2199.97
572.935	2302.07
573.137	2359.81
573.34	2261
573.542	2330.55
573.745	2285.02
573.947	2277.47
574.15	2278.82
574.352	2208.88
574.554	2335.59
574.757	2211.4
574.959	2161.8
575.162	2234.26
575.364	2204.23
575.566	2328.42
575.769	2169.55
575.971	2198.61
576.173	2060.08
576.376	2147.85
576.578	2240.07
576.78	2252.47
576.982	2084.49
577.185	2143.97
577.387	2133.32
577.589	2146.49
577.791	2221.86
577.993	2206.75
578.196	2130.99
578.398	2164.51
578.6	2179.62
578.802	2103.68
579.004	2079.84
579.206	2092.63
579.408	2159.09
579.61	2096.31
579.812	2163.35
580.014	2070.93
580.216	2085.27
580.418	2124.6
580.62	2110.65
580.822	2034.89
581.024	2140.29
581.226	2099.41
581.428	2091.28
581.63	2198.81
581.832	2104.06
582.034	2124.79
582.236	2106.97
582.438	2150.95
582.64	2145.72
582.841	2169.74
583.043	2223.22
583.245	2131.96
583.447	2157.54
583.649	2114.52
583.85	2113.56
584.052	2189.7
584.254	2086.24
584.456	2108.33
584.657	2054.08
584.859	2097.28
585.061	2100.58
585.262	2088.76
585.464	2024.63
585.666	2094.18
585.867	2034.7
586.069	2132.93
586.27	2041.09
586.472	2054.08
586.674	1993.43
586.875	2017.07
587.077	2011.26
587.278	2034.51
587.48	2035.48
587.681	2154.44
587.883	2054.85
588.084	1958.75
588.285	2022.69
588.487	1982.2
588.688	2036.06
588.89	1892.88
589.091	1867.5
589.292	1891.33
589.494	1815.96
589.695	1825.07
589.896	1751.44
590.098	1715.79
590.299	1786.32
590.5	1761.13
590.702	1795.81
590.903	1834.17
591.104	1910.51
591.305	1873.31
591.507	1951.78
591.708	1943.83
591.909	1905.28
592.11	1940.15
592.311	1904.5
592.512	1862.07
592.714	1857.42
592.915	1863.82
593.116	1883.97
593.317	1905.08
593.518	1899.66
593.719	1885.52
593.92	1927.37
594.121	1952.16
594.322	1895.4
594.523	1920.39
594.724	1865.95
594.925	1870.98
595.126	1874.28
595.327	1913.8
595.528	1891.72
595.729	1854.71
595.929	1859.17
596.13	1884.55
596.331	1923.49
596.532	1885.32
596.733	1931.63
596.934	1940.93
597.135	1929.69
597.335	1916.71
597.536	1845.6
597.737	1907.41
597.938	1835.14
598.138	1912.83
598.339	1860.33
598.54	1851.03
598.74	1880.87
598.941	1877.96
599.142	1913.42
599.342	1870.21
599.543	1851.61
599.744	1832.82
599.944	1820.42
600.145	1845.99
600.345	1891.91
600.546	1930.08
600.746	1909.93
600.947	1938.21
601.147	1870.4
601.348	1910.12
601.548	1804.92
601.749	1873.12
601.949	1782.64
602.15	1810.34
602.35	1828.55
602.551	1856.07
602.751	1777.79
602.951	1813.64
603.152	1727.81
603.352	1829.72
603.552	1815.19
603.753	1887.45
603.953	1860.91
604.153	1857.81
604.354	1854.9
604.554	1837.47
604.754	1846.38
604.954	1795.42
605.155	1831.07
605.355	1833.2
605.555	1840.37
605.755	1893.65
605.955	1818.67
606.155	1867.11
606.356	1785.74
606.556	1836.11
606.756	1826.81
606.956	1808.4
607.156	1906.63
607.356	1765
607.556	1824.1
607.756	1817.12
607.956	1850.06
608.156	1831.46
608.356	1769.65
608.556	1841.92
608.756	1795.42
608.956	1794.45
609.156	1809.18
609.356	1738.27
609.556	1737.11
609.755	1785.35
609.955	1748.54
610.155	1774.69
610.355	1751.83
610.555	1713.27
610.755	1774.3
610.954	1648.95
611.154	1731.87
611.354	1801.82
611.554	1726.84
611.753	1729.74
611.953	1672.01
612.153	1759.39
612.352	1720.83
612.552	1678.4
612.752	1613.88
612.951	1699.32
613.151	1697.77
613.351	1673.36
613.55	1676.27
613.75	1740.21
613.949	1669.88
614.149	1673.17
614.348	1661.54
614.548	1613.69
614.747	1602.64
614.947	1602.84
615.146	1609.81
615.346	1676.66
615.545	1659.41
615.745	1682.27
615.944	1677.62
616.144	1637.52
616.343	1667.16
616.542	1638.1
616.742	1622.6
616.941	1604.97
617.14	1560.8
617.34	1583.27
617.539	1607.88
617.738	1593.73
617.938	1654.57
618.137	1589.47
618.336	1542.78
618.535	1659.03
618.734	1595.09
618.934	1629.58
619.133	1592.38
619.332	1654.57
619.531	1589.66
619.73	1604.78
619.929	1632.68
620.128	1633.06
620.328	1648.37
620.527	1553.05
620.726	1599.35
620.925	1596.64
621.124	1591.79
621.323	1604.97
621.522	1537.16
621.721	1559.25
621.92	1544.91
622.119	1614.08
622.318	1554.79
622.517	1577.85
622.715	1555.76
622.914	1537.16
623.113	1550.72
623.312	1483.88
623.511	1571.45
623.71	1532.12
623.909	1511
624.107	1618.73
624.306	1475.55
624.505	1503.25
624.704	1516.23
624.902	1523.21
625.101	1576.1
625.3	1527.47
625.499	1480.78
625.697	1483.3
625.896	1460.05
626.095	1513.71
626.293	1446.68
626.492	1476.32
626.69	1504.22
626.889	1467.22
627.088	1520.88
627.286	1457.72
627.485	1487.75
627.683	1446.48
627.882	1507.71
628.08	1398.63
628.279	1459.85
628.477	1547.81
628.676	1398.63
628.874	1442.8
629.073	1426.33
629.271	1376.15
629.469	1473.42
629.668	1421.49
629.866	1411.22
630.065	1425.95
630.263	1486.59
630.461	1424.2
630.66	1438.73
630.858	1437.38
631.056	1468.18
631.254	1492.02
631.453	1403.28
631.651	1478.45
631.849	1449.39
632.047	1441.64
632.245	1466.44
632.444	1441.64
632.642	1444.16
632.84	1463.15
633.038	1407.54
633.236	1359.88
633.434	1395.72
633.632	1388.55
633.83	1407.15
634.028	1439.9
634.227	1398.82
634.425	1501.51
634.623	1402.89
634.821	1427.5
635.019	1423.43
635.216	1401.34
635.414	1446.1
635.612	1430.21
635.81	1407.54
636.008	1475.16
636.206	1419.55
636.404	1450.94
636.602	1385.45
636.8	1409.87
636.997	1424.78
637.195	1417.42
637.393	1400.95
637.591	1461.21
637.789	1461.79
637.986	1402.89
638.184	1406.38
638.382	1472.64
638.58	1450.36
638.777	1471.67
638.975	1395.72
639.173	1421.49
639.37	1424.78
639.568	1416.84
639.765	1433.89
639.963	1382.94
640.161	1430.79
640.358	1425.75
640.556	1341.47
640.753	1330.82
640.951	1303.89
641.148	1348.25
641.346	1334.89
641.543	1318.61
641.741	1380.03
641.938	1329.65
642.136	1330.62
642.333	1310.28
642.531	1417.81
642.728	1402.5
642.925	1351.16
643.123	1360.85
643.32	1381.77
643.517	1333.72
643.715	1362.2
643.912	1352.71
644.109	1356.39
644.306	1323.07
644.504	1294.01
644.701	1290.52
644.898	1361.04
645.095	1307.57
645.293	1304.66
645.49	1331.01
645.687	1312.8
645.884	1379.25
646.081	1266.11
646.278	1286.45
646.475	1296.72
646.672	1265.72
646.87	1307.37
647.067	1308.54
647.264	1291.87
647.461	1248.28
647.658	1202.75
647.855	1292.07
648.052	1237.63
648.249	1146.76
648.446	1250.8
648.642	1217.67
648.839	1195.39
649.036	1215.34
649.233	1164.58
649.43	1176.59
649.627	1157.41
649.824	1156.64
650.021	1170.2
650.217	1198.49
650.414	1182.6
650.611	1214.18
650.808	1235.49
651.004	1208.37
651.201	1256.81
651.398	1305.44
651.595	1224.06
651.791	1182.21
651.988	1264.56
652.185	1177.95
652.381	1215.93
652.578	1160.9
652.775	1190.35
652.971	1182.21
653.168	1200.81
653.364	1224.84
653.561	1162.26
653.757	1205.08
653.954	1191.9
654.15	1176.79
654.347	1279.86
654.543	1229.68
654.74	1102.97
654.936	1168.65
655.133	1210.89
655.329	1199.26
655.525	1163.42
655.722	1204.3
655.918	1101.61
656.115	1157.41
656.311	1039.23
656.507	1012.68
656.704	966.19
656.9	1000.09
657.096	1001.45
657.292	994.08
657.489	1096
657.685	1081.27
657.881	1074.1
658.077	1069.26
658.273	1078.95
658.47	1154.31
658.666	1079.33
658.862	1134.16
659.058	1072.94
659.254	1173.49
659.45	1099.29
659.646	1135.33
659.842	1096.96
660.038	1177.37
660.234	1094.06
660.43	1115.18
660.626	1180.08
660.822	1175.24
661.018	1171.36
661.214	1105.68
661.41	1087.47
661.606	1177.76
661.802	1174.46
661.998	1153.34
662.194	1072.94
662.39	1142.5
662.586	1133.2
662.781	1154.12
662.977	1142.88
663.173	1164.39
663.369	1120.02
663.564	1129.71
663.76	1163.03
663.956	1085.53
664.152	1154.7
664.347	1057.44
664.543	1088.83
664.739	1112.66
664.934	1050.66
665.13	1042.33
665.326	1150.63
665.521	1121.18
665.717	1045.82
665.912	1045.04
666.108	1026.05
666.304	1089.02
666.499	1074.88
666.695	970.25
666.89	1068.48
667.086	1110.14
667.281	1065.38
667.477	1134.55
667.672	1063.45
667.867	1099.48
668.063	1079.91
668.258	1005.32
668.454	1070.23
668.649	1139.59
668.844	1071.78
669.04	1099.68
669.235	1065.58
669.43	1059.18
669.626	989.43
669.821	1065
670.016	1021.21
670.211	1076.81
670.407	1027.6
670.602	1096.96
670.797	1062.67
670.992	1108.4
671.187	995.25
671.382	1100.26
671.578	993.5
671.773	1056.67
671.968	992.73
672.163	1017.72
672.358	1067.32
672.553	996.8
672.748	1014.82
672.943	1110.72
673.138	1032.64
673.333	1053.37
673.528	969.29
673.723	1048.92
673.918	1023.34
674.113	974.13
674.308	1099.48
674.503	1057.83
674.698	1072.55
674.892	1022.95
675.087	1039.62
675.282	1041.17
675.477	969.48
675.672	1013.46
675.867	1003.97
676.061	955.53
676.256	971.8
676.451	1003.19
676.646	1010.94
676.84	995.44
677.035	944.68
677.23	979.36
677.424	1026.05
677.619	1070.23
677.814	1052.6
678.008	1052.21
678.203	934.99
678.397	957.08
678.592	1028.77
678.787	1060.35
678.981	989.05
679.176	993.89
679.37	1010.36
679.565	972
679.759	962.31
679.954	990.79
680.148	1039.03
680.342	1023.92
680.537	1013.27
680.731	972.77
680.926	1025.86
681.12	1003
681.314	984.4
681.509	979.55
681.703	998.35
681.897	997.96
682.092	1000.28
682.286	994.28
682.48	1046.78
682.674	1009.39
682.869	965.99
683.063	988.08
683.257	1033.42
683.451	985.17
683.645	974.71
683.839	981.3
684.034	970.25
684.228	991.95
684.422	925.5
684.616	940.22
684.81	995.25
685.004	962.31
685.198	971.61
685.392	1003.19
685.586	934.41
685.78	998.15
685.974	989.05
686.168	989.05
686.362	1017.92
686.556	914.84
686.75	899.92
686.944	891.59
687.138	901.47
687.331	806.73
687.525	835.99
687.719	748.22
687.913	848.97
688.107	783.87
688.301	809.06
688.494	857.11
688.688	785.61
688.882	773.79
689.076	777.28
689.269	829.01
689.463	904.57
689.657	822.23
689.85	820.87
690.044	846.26
690.238	846.26
690.431	837.92
690.625	832.11
690.818	873.77
691.012	893.72
691.205	907.67
691.399	857.49
691.593	882.68
691.786	922.98
691.98	953.98
692.173	975.1
692.366	936.93
692.56	977.42
692.753	994.86
692.947	880.74
693.14	974.71
693.333	990.21
693.527	894.5
693.72	941.19
693.914	930.92
694.107	927.82
694.3	928.79
694.493	958.44
694.687	980.13
694.88	963.67
695.073	1020.05
695.266	982.07
695.46	965.41
695.653	1013.07
695.846	1011.72
696.039	931.12
696.232	957.27
696.425	987.69
696.618	1016.95
696.812	1015.98
697.005	1094.06
697.198	1166.91
697.391	1056.08
697.584	1112.66
697.777	1158.19
697.97	1129.13
698.163	1135.91
698.356	1133.97
698.549	1190.16
698.742	1166.52
698.935	1128.16
699.127	1154.89
699.32	1104.13
699.513	1129.32
699.706	1145.4
699.899	1190.93
700.092	1155.48
700.285	1219.41
700.477	1149.47
700.67	1196.36
700.863	1205.08
701.056	1303.5
701.248	1270.17
701.441	1268.82
701.634	1212.83
701.826	1354.84
702.019	1231.81
702.212	1321.71
702.404	1257.19
702.597	1240.34
702.79	1286.45
702.982	1291.68
703.175	1343.6
703.367	1361.04
703.56	1376.54
703.752	1449.78
703.945	1426.72
704.137	1402.5
704.33	1476.32
704.522	1448.62
704.715	1469.15
704.907	1487.56
705.1	1540.45
705.292	1521.66
705.484	1518.95
705.677	1576.3
705.869	1550.14
706.061	1611.17
706.254	1665.03
706.446	1579.59
706.638	1584.63
706.831	1681.5
707.023	1626.86
707.215	1738.07
707.407	1687.51
707.599	1710.37
707.792	1743.5
707.984	1753.96
708.176	1778.57
708.368	1764.81
708.56	1798.72
708.752	1785.54
708.944	1779.54
709.136	1868.27
709.329	1803.95
709.521	1973.09
709.713	1885.71
709.905	1912.25
710.097	1971.15
710.289	1886.48
710.481	1945
710.672	1971.73
710.864	1969.6
711.056	2052.14
711.248	2026.76
711.44	2046.52
711.632	2046.33
711.824	2073.06
712.016	2133.32
712.207	2117.62
712.399	2085.27
712.591	2211.98
712.783	2171.1
712.975	2198.42
713.166	2176.33
713.358	2185.82
713.55	2262.94
713.741	2274.95
713.933	2263.9
714.125	2269.14
714.316	2212.75
714.508	2397.98
714.7	2370.66
714.891	2347.8
715.083	2441.96
715.274	2372.6
715.466	2411.15
715.657	2462.88
715.849	2317.77
716.04	2440.02
716.232	2373.18
716.423	2443.7
716.615	2374.92
716.806	2360.39
716.998	2319.32
717.189	2268.94
717.381	2197.26
717.572	2199.19
717.763	2230
717.955	2209.07
718.146	2172.26
718.337	2105.03
718.528	2081.98
718.72	2032.18
718.911	2118.59
719.102	2068.41
719.293	2096.31
719.485	2087.98
719.676	2076.55
719.867	2042.26
720.058	2055.24
720.249	2043.23
720.44	2114.52
720.632	2173.62
720.823	2201.9
721.014	2296.84
721.205	2354.58
721.396	2419.1
721.587	2532.83
721.778	2563.05
721.969	2620.98
722.16	2710.1
722.351	2688.79
722.542	2876.34
722.733	2867.23
722.924	2757.38
723.115	2830.81
723.305	2820.73
723.496	2853.48
723.687	2723.86
723.878	2715.34
724.069	2744.98
724.26	2770.55
724.45	2672.71
724.641	2680.65
724.832	2723.67
725.023	2696.15
725.213	2748.08
725.404	2684.72
725.595	2707
725.785	2671.94
725.976	2813.37
726.167	2792.45
726.357	2800
726.548	2927.1
726.739	2811.43
726.929	2920.9
727.12	2938.92
727.31	2956.55
727.501	2919.54
727.691	2946.67
727.882	2966.04
728.072	2997.82
728.263	3015.26
728.453	3029.79
728.644	3048.58
728.834	3043.16
729.024	3040.83
729.215	3022.42
729.405	3062.14
729.596	3125.89
729.786	3153.2
729.976	3148.36
730.167	3195.44
730.357	3159.21
730.547	3181.68
730.737	3209.58
730.928	3286.5
731.118	3348.89
731.308	3250.66
731.498	3258.02
731.688	3370.39
731.879	3389.96
732.069	3448.67
732.259	3465.52
732.449	3488
732.639	3587.78
732.829	3591.07
733.019	3642.61
733.209	3738.13
733.399	3742.78
733.589	3810.78
733.779	3823.76
733.969	3851.28
734.159	3929.16
734.349	3915.6
734.539	4008.21
734.729	3981.67
734.919	4051.22
735.109	4087.65
735.299	3986.51
735.488	4096.75
735.678	4052.38
735.868	4027.97
736.058	4067.11
736.248	4070.4
736.437	4026.04
736.627	4014.99
736.817	4156.04
737.007	4086.68
737.196	4134.34
737.386	4157.2
737.576	4055.48
737.765	4163.4
737.955	4178.51
738.144	4303.67
738.334	4254.27
738.524	4194.4
738.713	4218.43
738.903	4191.88
739.092	4276.16
739.282	4254.46
739.471	4317.82
739.661	4270.16
739.85	4344.75
740.04	4355.99
740.229	4347.66
740.419	4363.54
740.608	4393.57
740.797	4361.99
740.987	4449.76
741.176	4419.73
741.365	4369.55
741.555	4335.06
741.744	4475.14
741.933	4404.42
742.123	4450.54
742.312	4452.67
742.501	4509.24
742.69	4532.3
742.88	4416.44
743.069	4586.55
743.258	4499.75
743.447	4549.35
743.636	4532.68
743.825	4467.39
744.014	4521.45
744.204	4554.97
744.393	4507.11
744.582	4622
744.771	4643.12
744.96	4585.38
745.149	4596.43
745.338	4553.03
745.527	4674.31
745.716	4620.26
745.905	4571.82
746.094	4654.36
746.283	4639.25
746.471	4640.8
746.66	4718.88
746.849	4669.08
747.038	4746
747.227	4663.46
747.416	4676.06
747.604	4644.67
747.793	4657.07
747.982	4672.38
748.171	4684.58
748.359	4692.53
748.548	4696.4
748.737	4661.91
748.926	4691.75
749.114	4569.11
749.303	4726.43
749.491	4673.15
749.68	4593.33
749.869	4674.31
750.057	4632.08
750.246	4606.11
750.434	4626.46
750.623	4642.35
750.811	4580.15
751	4674.89
751.188	4632.08
751.377	4582.67
751.565	4583.83
751.754	4559.23
751.942	4533.65
752.131	4649.51
752.319	4567.56
752.507	4573.18
752.696	4610.96
752.884	4595.65
753.072	4624.52
753.261	4601.85
753.449	4581.31
753.637	4563.3
753.825	4670.44
754.014	4573.95
754.202	4579.96
754.39	4629.56
754.578	4609.6
754.766	4546.05
754.955	4529.58
755.143	4610.57
755.331	4575.11
755.519	4589.84
755.707	4583.83
755.895	4523.38
756.083	4536.37
756.271	4467.39
756.459	4540.24
756.647	4552.83
756.835	4488.32
757.023	4455.38
757.211	4484.83
757.399	4489.48
757.587	4478.43
757.775	4442.4
757.963	4410.62
758.151	4452.09
758.339	4414.5
758.526	4436.78
758.714	4450.15
758.902	4343.39
759.09	4276.55
759.278	4091.91
759.465	3849.92
759.653	3453.71
759.841	3166.38
760.028	2753.89
760.216	2455.71
760.404	2326.48
760.591	1999.83
760.779	1716.57
760.967	1563.7
761.154	1368.4
761.342	1423.23
761.529	1395.53
761.717	1511.97
761.905	1528.63
762.092	1644.11
762.28	1632.29
762.467	1682.27
762.655	1585.21
762.842	1622.99
763.029	1668.52
763.217	1699.52
763.404	1684.41
763.592	1709.21
763.779	1671.62
763.966	1773.92
764.154	1800.65
764.341	1918.07
764.528	1859.94
764.716	1945.38
764.903	2016.49
765.09	2097.48
765.277	2148.62
765.465	2333.65
765.652	2372.02
765.839	2467.53
766.026	2624.66
766.213	2628.34
766.4	2784.5
766.588	3000.34
766.775	2994.72
766.962	3094.69
767.149	3178.2
767.336	3339.98
767.523	3282.43
767.71	3435.69
767.897	3493.04
768.084	3620.13
768.271	3627.11
768.458	3715.46
768.645	3773.97
768.832	3716.43
769.019	3783.27
769.206	3832.87
769.392	3881.5
769.579	3963.26
769.766	3953.57
769.953	3882.86
770.14	3979.73
770.327	3945.44
770.513	4016.15
770.7	4072.53
770.887	3962.87
771.073	4021.77
771.26	4017.7
771.447	3972.75
771.634	3975.27
771.82	4066.72
772.007	3955.7
772.193	3990
772.38	4012.28
772.567	3970.43
772.753	3964.62
772.94	4071.37
773.126	4017.7
773.313	4072.73
773.499	4027
773.686	4045.8
773.872	3976.82
774.059	3997.36
774.245	3946.6
774.432	3991.35
774.618	3870.07
774.804	3950.09
774.991	3900.68
775.177	3928.39
775.363	3876.46
775.55	3990.77
775.736	3856.12
775.922	3929.16
776.109	3897.58
776.295	3860.38
776.481	3939.24
776.667	3943.31
776.853	3862.51
777.04	3836.55
777.226	3882.47
777.412	3915.02
777.598	3800.9
777.784	3836.16
777.97	3783.85
778.156	3849.34
778.342	3815.04
778.528	3815.24
778.715	3726.89
778.901	3806.52
779.087	3859.99
779.272	3800.9
779.458	3739.48
779.644	3789.28
779.83	3731.54
780.016	3864.64
780.202	3726.5
780.388	3735.22
780.574	3684.85
780.76	3668.96
780.946	3742.39
781.131	3723.21
781.317	3693.76
781.503	3632.73
781.689	3679.81
781.874	3811.36
782.06	3660.24
782.246	3651.91
782.432	3666.44
782.617	3668.18
782.803	3736
782.989	3601.15
783.174	3643.97
783.36	3560.85
783.545	3594.17
783.731	3606.77
783.916	3506.21
784.102	3615.1
784.288	3526.75
784.473	3552.13
784.659	3506.6
784.844	3588.55
785.029	3528.49
785.215	3546.12
785.4	3488.77
785.586	3575.57
785.771	3427.55
785.956	3544.38
786.142	3447.7
786.327	3459.32
786.512	3472.89
786.698	3456.42
786.883	3404.3
787.068	3414.57
787.254	3458.36
787.439	3392.68
787.624	3394.61
787.809	3388.03
787.994	3364
788.18	3446.15
788.365	3336.29
788.55	3370.01
788.735	3395
788.92	3379.31
789.105	3354.7
789.29	3381.44
789.475	3264.22
789.66	3320.8
789.845	3247.75
790.03	3254.53
790.215	3335.71
790.4	3333
790.585	3358.77
790.77	3298.32
790.955	3193.12
791.14	3238.65
791.325	3337.26
791.51	3171.42
791.695	3235.93
791.879	3224.7
792.064	3172.58
792.249	3303.16
792.434	3206.1
792.618	3256.86
792.803	3244.27
792.988	3225.67
793.173	3270.03
793.357	3277.98
793.542	3165.99
793.727	3220.82
793.911	3240.39
794.096	3241.55
794.281	3301.42
794.465	3320.6
794.65	3216.37
794.834	3263.06
795.019	3290.38
795.203	3301.61
795.388	3314.21
795.572	3363.61
795.757	3309.75
795.941	3298.71
796.126	3299.29
796.31	3246.01
796.494	3253.18
796.679	3259.96
796.863	3231.09
797.048	3370.01
797.232	3292.31
797.416	3281.08
797.601	3286.11
797.785	3382.21
797.969	3388.8
798.153	3256.28
798.338	3319.44
798.522	3346.56
798.706	3326.8
798.89	3312.85
799.074	3471.34
799.258	3429.87
799.443	3300.84
799.627	3366.33
799.811	3413.21
799.995	3305.1
800.179	3283.01
800.363	3285.92
800.547	3323.51
800.731	3389.77
800.915	3239.42
801.099	3283.98
801.283	3290.96
801.467	3303.55
801.651	3296
801.835	3413.6
802.019	3313.63
802.202	3314.01
802.386	3250.08
802.57	3259.38
802.754	3246.59
802.938	3285.73
803.121	3258.99
803.305	3356.25
803.489	3285.34
803.673	3300.06
803.856	3288.44
804.04	3246.98
804.224	3307.43
804.407	3278.56
804.591	3267.71
804.775	3267.32
804.958	3300.06
805.142	3403.53
805.326	3267.13
805.509	3292.9
805.693	3325.25
805.876	3326.61
806.06	3308.59
806.243	3338.23
806.427	3339.2
806.61	3368.26
806.794	3274.1
806.977	3351.99
807.16	3314.01
807.344	3335.33
807.527	3289.6
807.71	3274.1
807.894	3310.91
808.077	3285.73
808.26	3281.46
808.444	3219.66
808.627	3346.37
808.81	3239.42
808.993	3190.98
809.177	3177.03
809.36	3218.88
809.543	3199.9
809.726	3080.35
809.909	3125.5
810.092	3094.11
810.276	3123.17
810.459	3097.6
810.642	3091.2
810.825	3064.27
811.008	3104.38
811.191	2972.24
811.374	3009.83
811.557	2993.94
811.74	3104.77
811.923	2986.58
812.106	2939.69
812.289	2908.31
812.472	2953.45
812.654	2970.89
812.837	2930.98
813.02	2847.86
813.203	2818.02
813.386	2713.79
813.569	2682.79
813.751	2621.37
813.934	2695.96
814.117	2629.31
814.3	2622.92
814.482	2525.85
814.665	2510.54
814.848	2477.8
815.03	2431.11
815.213	2405.73
815.396	2397.78
815.578	2376.28
815.761	2279.4
815.943	2392.55
816.126	2267.78
816.309	2267
816.491	2175.75
816.674	2111.43
816.856	2137
817.039	2166.45
817.221	2226.12
817.403	2182.72
817.586	2206.55
817.768	2219.54
817.951	2121.31
818.133	2120.53
818.315	2131.77
818.498	2184.86
818.68	2229.22
818.862	2209.07
819.045	2225.35
819.227	2209.46
819.409	2217.99
819.591	2217.99
819.774	2188.34
819.956	2137.77
820.138	2272.43
820.32	2215.08
820.502	2311.76
820.684	2329.97
820.866	2302.07
821.048	2418.13
821.231	2394.88
821.413	2427.81
821.595	2356.32
821.777	2427.81
821.959	2375.7
822.141	2464.24
822.323	2333.07
822.505	2245.69
822.686	2224.96
822.868	2102.51
823.05	1997.5
823.232	1976
823.414	1914.38
823.596	1977.93
823.778	1964.56
823.96	1984.13
824.141	2004.09
824.323	2006.61
824.505	2095.34
824.687	2147.85
824.868	2191.25
825.05	2281.92
825.232	2303.23
825.413	2424.52
825.595	2343.53
825.777	2260.8
825.958	2299.75
826.14	2306.33
826.321	2355.93
826.503	2285.02
826.685	2342.37
826.866	2366.59
827.048	2374.92
827.229	2286.19
827.411	2239.3
827.592	2240.85
827.773	2215.27
827.955	2133.32
828.136	2136.22
828.318	2143.59
828.499	2137.19
828.68	2098.44
828.862	2112.2
829.043	2158.7
829.224	2128.67
829.406	2087.59
829.587	2106.58
829.768	2128.09
829.949	2122.08
830.131	2105.42
830.312	2137.39
830.493	2087.59
830.674	2095.34
830.855	2105.61
831.036	2089.92
831.218	2143.01
831.399	2201.32
831.58	2131.77
831.761	2134.87
831.942	2124.21
832.123	2096.51
832.304	2026.76
832.485	2052.33
832.666	2069.58
832.847	2096.51
833.028	2104.06
833.209	2065.51
833.389	2078.49
833.57	1997.11
833.751	2030.83
833.932	2124.41
834.113	2090.69
834.294	2051.17
834.475	2095.34
834.655	2159.67
834.836	2143.78
835.017	2122.86
835.198	2052.72
835.378	2151.92
835.559	2158.51
835.74	2106.97
835.92	2075.97
836.101	2070.16
836.281	2124.41
836.462	2118.01
836.643	2168.77
836.823	2136.42
837.004	2189.7
837.184	2178.07
837.365	2150.17
837.545	2156.57
837.726	2134.29
837.906	2235.42
838.087	2144.75
838.267	2152.11
838.448	2100.38
838.628	2120.92
838.808	2138.74
838.989	2201.52
839.169	2053.88
839.349	2128.28
839.53	2177.88
839.71	2149.59
839.89	2071.32
840.07	2194.93
840.251	2089.53
840.431	2179.24
840.611	2138.55
840.791	2092.24
840.971	2130.22
841.151	2115.11
841.332	2071.9
841.512	2171.1
841.692	2045.36
841.872	2118.59
842.052	2064.93
842.232	2148.82
842.412	2042.84
842.592	2057.18
842.772	2106.78
842.952	2106.97
843.132	2054.66
843.312	2068.99
843.492	2030.24
843.672	2061.24
843.851	2004.28
844.031	2064.34
844.211	2037.61
844.391	2025.4
844.571	2065.31
844.751	2049.62
844.93	2052.53
845.11	1994.01
845.29	2040.13
845.47	2050.98
845.649	2036.44
845.829	2065.31
846.009	2007.38
846.188	2072.87
846.368	2023.46
846.547	2036.44
846.727	2048.26
846.907	1956.81
847.086	1986.26
847.266	2005.25
847.445	2027.14
847.625	2029.47
847.804	1958.56
847.984	1989.95
848.163	1964.76
848.343	1944.03
848.522	2004.48
848.701	1979.48
848.881	1940.73
849.06	2011.65
849.239	2005.64
849.419	1965.92
849.598	1931.24
849.777	1891.91
849.957	1902.57
850.136	1781.09
850.315	1788.84
850.494	1862.85
850.674	1772.37
850.853	1884.16
851.032	1834.75
851.211	1930.27
851.39	1839.4
851.569	1800.27
851.748	1792.13
851.927	1846.96
852.107	1855.48
852.286	1806.85
852.465	1790.19
852.644	1855.1
852.823	1876.22
853.002	1826.23
853.181	1806.85
853.359	1841.15
853.538	1774.69
853.717	1849.48
853.896	1729.36
854.075	1642.94
854.254	1616.79
854.433	1540.65
854.611	1609.62
854.79	1524.56
854.969	1616.59
855.148	1619.31
855.327	1587.92
855.505	1635
855.684	1631.32
855.863	1655.73
856.041	1627.83
856.22	1690.02
856.399	1635.97
856.577	1769.07
856.756	1748.54
856.934	1841.92
857.113	1852.58
857.291	1759.97
857.47	1743.11
857.648	1756.29
857.827	1760.36
858.005	1833.4
858.184	1695.26
858.362	1858.2
858.541	1744.66
858.719	1741.95
858.898	1717.15
859.076	1689.64
859.254	1795.62
859.433	1770.43
859.611	1734.97
859.789	1649.34
859.967	1734.01
860.146	1786.32
860.324	1644.69
860.502	1700.68
860.68	1614.46
860.859	1647.98
861.037	1675.49
861.215	1687.89
861.393	1688.47
861.571	1646.04
861.749	1643.91
861.927	1670.65
862.105	1680.53
862.283	1643.72
862.461	1626.09
862.639	1608.84
862.817	1624.54
862.995	1677.24
863.173	1638.29
863.351	1627.06
863.529	1646.63
863.707	1716.18
863.885	1663.29
864.063	1565.83
864.241	1589.66
864.418	1686.92
864.596	1592.96
864.774	1512.36
864.952	1598.19
865.129	1612.33
865.307	1537.55
865.485	1533.48
865.663	1612.33
865.84	1507.9
866.018	1523.4
866.196	1406.19
866.373	1436.22
866.551	1369.18
866.728	1336.82
866.906	1391.65
867.084	1395.14
867.261	1441.45
867.439	1450.17
867.616	1495.89
867.794	1445.71
867.971	1474.77
868.149	1487.56
868.326	1532.31
868.503	1492.79
868.681	1495.31
868.858	1478.45
869.035	1461.79
869.213	1517.59
869.39	1425.37
869.567	1562.15
869.745	1450.75
869.922	1473.8
870.099	1473.03
870.276	1521.08
870.454	1502.09
870.631	1503.25
870.808	1474.58
870.985	1559.83
871.162	1548.98
871.339	1508.68
871.517	1449.78
871.694	1433.12
871.871	1462.76
872.048	1439.12
872.225	1430.6
872.402	1484.46
872.579	1370.34
872.756	1475.74
872.933	1409.87
873.11	1443.77
873.287	1482.33
873.463	1414.52
873.64	1385.65
873.817	1445.13
873.994	1442.42
874.171	1346.51
874.348	1445.9
874.524	1322.68
874.701	1424.98
874.878	1334.3
875.055	1396.3
875.231	1385.45
875.408	1426.53
875.585	1313.38
875.762	1379.45
875.938	1350.39
876.115	1375.19
876.291	1372.28
876.468	1343.8
876.645	1274.82
876.821	1329.85
876.998	1361.24
877.174	1377.32
877.351	1312.61
877.527	1306.02
877.704	1327.33
877.88	1347.87
878.057	1323.84
878.233	1380.42
878.409	1289.74
878.586	1336.82
878.762	1326.94
878.938	1309.89
879.115	1242.86
879.291	1292.07
879.467	1218.83
879.644	1261.26
879.82	1302.72
879.996	1234.53
880.172	1224.84
880.349	1287.03
880.525	1323.46
880.701	1231.81
880.877	1214.57
881.053	1275.21
881.229	1248.86
881.405	1296.14
881.581	1216.12
881.757	1262.23
881.933	1292.46
882.109	1314.16
882.285	1256.42
882.461	1181.44
882.637	1256.03
882.813	1213.79
882.989	1259.71
883.165	1289.74
883.341	1215.73
883.517	1295.75
883.693	1288.77
883.869	1282.19
884.044	1210.69
884.22	1281.8
884.396	1279.47
884.572	1247.12
884.747	1287.03
884.923	1241.11
885.099	1255.64
885.275	1324.81
885.45	1223.68
885.626	1251.19
885.801	1236.85
885.977	1194.42
886.153	1211.47
886.328	1270.17
886.504	1186.67
886.679	1261.07
886.855	1206.82
887.03	1247.89
887.206	1260.29
887.381	1229.68
887.557	1244.21
887.732	1249.64
887.908	1270.17
888.083	1280.44
888.258	1255.64
888.434	1223.09
888.609	1249.25
888.784	1248.67
888.96	1240.53
889.135	1237.63
889.31	1214.18
889.485	1247.7
889.661	1232.39
889.836	1291.87
890.011	1268.24
890.186	1250.61
890.361	1219.22
890.537	1237.82
890.712	1250.02
890.887	1237.04
891.062	1209.53
891.237	1264.94
891.412	1198.49
891.587	1235.3
891.762	1270.95
891.937	1301.17
892.112	1217.48
892.287	1206.24
892.462	1178.73
892.637	1170.78
892.812	1164.58
892.987	1140.56
893.161	1155.67
893.336	1179.5
893.511	1175.24
893.686	1165.16
893.861	1148.7
894.035	1143.27
894.21	1138.04
894.385	1111.69
894.56	1145.01
894.734	1049.5
894.909	1076.23
895.084	1094.64
895.258	1068.29
895.433	1108.59
895.608	1041.94
895.782	1001.45
895.957	1039.42
896.131	1019.66
896.306	964.64
896.48	931.5
896.655	970.64
896.829	890.43
897.004	868.92
897.178	905.54
897.353	892.75
897.527	933.44
897.701	921.43
897.876	865.24
898.05	930.92
898.224	920.27
898.399	946.23
898.573	910.19
898.747	791.62
898.921	827.46
899.096	738.92
899.27	763.72
899.444	761.98
899.618	794.33
899.792	801.69
899.967	800.14
900.141	851.87
900.315	793.56
900.489	778.44
900.663	818.36
900.837	821.46
901.011	737.95
901.185	878.22
901.359	833.86
901.533	786.78
901.707	813.51
901.881	787.36
902.055	764.69
902.229	786.78
902.403	845.48
902.576	805.76
902.75	838.89
902.924	925.11
903.098	854.2
903.272	896.05
903.446	937.12
903.619	903.8
903.793	948.94
903.967	894.3
904.14	973.16
904.314	972
904.488	960.18
904.661	968.12
904.835	930.34
905.009	1007.45
905.182	1047.56
905.356	964.64
905.529	972.77
905.703	914.26
905.876	908.06
906.05	915.81
906.223	881.32
906.397	831.34
906.57	798.98
906.744	814.87
906.917	775.15
907.09	776.89
907.264	792.2
907.437	760.04
907.61	728.07
907.784	753.26
907.957	754.23
908.13	709.86
908.304	728.65
908.477	699.2
908.65	711.8
908.823	715.86
908.996	760.81
909.17	725.36
909.343	694.36
909.516	706.18
909.689	695.71
909.862	671.69
910.035	714.7
910.208	672.85
910.381	668.78
910.554	727.68
910.727	686.03
910.9	673.24
911.073	690.48
911.246	745.31
911.419	755
911.592	742.79
911.765	668.59
911.938	695.71
912.11	714.12
912.283	699.98
912.456	734.46
912.629	703.85
912.802	637.98
912.974	679.44
913.147	586.63
913.32	561.25
913.493	601.75
913.665	621.9
913.838	626.35
914.01	617.05
914.183	612.98
914.356	628.48
914.528	662
914.701	702.88
914.873	680.6
915.046	641.46
915.218	591.87
915.391	513.98
915.563	516.69
915.736	584.12
915.908	626.74
916.081	589.54
916.253	630.23
916.425	604.46
916.598	637.2
916.77	598.84
916.942	548.66
917.115	513.98
917.287	616.08
917.459	560.87
917.632	541.1
917.804	488.21
917.976	562.42
918.148	588.96
918.32	563.97
918.493	618.6
918.665	664.13
918.837	588.38
919.009	676.15
919.181	684.86
919.353	638.36
919.525	643.01
919.697	626.74
919.869	629.84
920.041	682.15
920.213	721.09
920.385	652.31
920.557	639.53
920.729	633.33
920.901	670.91
921.073	626.55
921.244	633.52
921.416	640.3
921.588	646.89
921.76	605.04
921.932	681.18
922.103	604.07
922.275	633.33
922.447	624.8
922.619	543.04
922.79	606.01
922.962	598.26
923.134	641.85
923.305	572.3
923.477	543.43
923.648	543.43
923.82	586.83
923.991	509.14
924.163	505.45
924.335	556.6
924.506	507.97
924.677	627.9
924.849	494.02
925.02	552.92
925.192	587.22
925.363	559.9
925.535	541.68
925.706	517.27
925.877	585.47
926.049	517.85
926.22	557.18
926.391	562.22
926.562	557.18
926.734	519.99
926.905	577.14
927.076	488.79
927.247	522.31
927.419	473.29
927.59	450.62
927.761	495.57
927.932	453.14
928.103	463.6
928.274	427.96
928.445	419.82
928.616	436.67
928.787	400.83
928.958	439.58
929.129	419.82
929.3	417.11
929.471	348.71
929.642	312.09
929.813	266.95
929.984	381.84
930.155	266.76
930.326	332.83
930.496	263.27
930.667	216.19
930.838	275.48
931.009	218.71
931.18	239.25
931.35	237.5
931.521	264.43
931.692	192.36
931.863	151.87
932.033	195.65
932.204	219.48
932.374	191.39
932.545	136.56
932.716	245.45
932.886	205.34
933.057	110.98
933.227	141.02
933.398	237.31
933.568	107.69
933.739	82.5
933.909	93.55
934.08	151.67
934.25	63.71
934.421	81.73
934.591	109.43
934.761	87.74
934.932	64.68
935.102	96.26
935.272	109.43
935.443	109.43
935.613	98.2
935.783	107.3
935.953	88.12
936.123	253.2
936.294	67.39
936.464	72.62
936.634	85.02
936.804	62.16
936.974	46.47
937.144	107.69
937.314	88.32
937.484	88.9
937.655	64.87
937.825	136.37
937.995	63.9
938.165	140.63
938.334	85.41
938.504	135.01
938.674	102.46
938.844	104.4
939.014	194.3
939.184	187.13
939.354	231.88
939.524	204.56
939.694	170.66
939.863	171.43
940.033	198.95
940.203	207.47
940.373	194.3
940.542	208.83
940.712	173.18
940.882	201.85
941.051	221.61
941.221	194.88
941.391	225.88
941.56	177.25
941.73	134.82
941.899	259.98
942.069	173.95
942.238	186.74
942.408	145.28
942.577	194.68
942.747	167.95
942.916	86.38
943.086	138.88
943.255	204.95
943.425	154.58
943.594	155.16
943.763	56.15
943.933	85.02
944.102	66.42
944.271	114.67
944.441	101.1
944.61	99.17
944.779	116.8
944.948	216.38
945.117	92
945.287	106.92
945.456	78.44
945.625	89.29
945.794	150.7
945.963	112.15
946.132	164.85
946.301	108.47
946.47	143.73
946.639	72.24
946.808	121.45
946.977	153.42
947.146	172.6
947.315	93.55
947.484	166.78
947.653	102.65
947.822	111.76
947.991	93.55
948.16	212.7
948.329	203.01
948.498	111.95
948.666	135.2
948.835	170.08
949.004	94.9
949.173	90.45
949.341	133.85
949.51	129.2
949.679	191.58
949.847	153.22
950.016	198.17
950.185	207.66
950.353	99.75
950.522	128.23
950.69	175.7
950.859	126.48
951.028	161.75
951.196	146.05
951.365	102.65
951.533	122.22
951.701	164.85
951.87	151.67
952.038	73.98
952.207	136.37
952.375	204.37
952.543	102.46
952.712	114.86
952.88	97.62
953.048	161.94
953.217	165.43
953.385	100.14
953.553	195.07
953.721	83.86
953.89	137.14
954.058	63.71
954.226	89.09
954.394	140.24
954.562	67.2
954.73	116.99
954.898	144.12
955.067	141.79
955.235	102.46
955.403	167.75
955.571	192.55
955.739	153.8
955.907	97.62
956.075	110.6
956.243	82.12
956.41	141.79
956.578	81.73
956.746	74.75
956.914	71.27
957.082	167.37
957.25	138.69
957.418	88.32
957.585	147.99
957.753	175.7
957.921	94.9
958.089	116.02
958.256	157.48
958.424	147.41
958.592	109.43
958.759	115.83
958.927	147.6
959.095	81.92
959.262	119.12
959.43	106.14
959.597	84.64
959.765	120.09
959.932	81.15
960.1	168.72
960.267	111.95
960.435	133.85
960.602	144.7
960.77	118.73
960.937	63.32
961.104	139.66
961.272	74.95
961.439	119.32
961.606	141.21
961.774	154.58
961.941	119.51
962.108	125.9
962.275	114.86
962.443	176.28
962.61	160
962.777	201.66
962.944	129
963.111	160.2
963.278	162.52
963.446	156.9
963.613	134.43
963.78	165.62
963.947	150.9
964.114	133.07
964.281	234.98
964.448	152.64
964.615	94.32
964.782	135.01
964.949	140.82
965.116	162.72
965.282	206.31
965.449	123.19
965.616	83.67
965.783	167.75
965.95	130.17
966.117	117.77
966.283	144.31
966.45	123.38
966.617	145.86
966.784	188.68
966.95	160.97
967.117	172.21
967.284	106.14
967.45	135.78
967.617	204.18
967.784	174.34
967.95	211.35
968.117	129.78
968.283	219.48
968.45	272.18
968.616	158.45
968.783	204.18
968.949	161.75
969.116	196.04
969.282	162.13
969.449	182.87
969.615	145.08
969.781	123.77
969.948	141.79
970.114	112.34
970.28	216.19
970.447	151.87
970.613	228.01
970.779	149.73
970.945	174.53
971.112	191.97
971.278	154.58
971.444	175.31
971.61	202.05
971.776	143.92
971.942	167.37
972.108	195.07
972.275	148.96
972.441	135.59
972.607	230.72
972.773	120.28
972.939	170.08
973.105	120.09
973.271	95.68
973.437	133.85
973.602	135.78
973.768	150.32
973.934	123.19
974.1	158.65
974.266	81.34
974.432	135.98
974.598	129.39
974.763	152.83
974.929	133.27
975.095	203.98
975.261	101.3
975.426	114.67
975.592	117.77
975.758	195.85
975.923	71.07
976.089	119.12
976.255	158.65
976.42	147.02
976.586	148.18
976.751	143.73
976.917	243.7
977.082	132.1
977.248	90.25
977.413	52.09
977.579	116.6
977.744	146.25
977.91	111.76
978.075	100.52
978.24	163.1
978.406	125.52
978.571	118.35
978.736	92.97
978.902	144.7
979.067	73.79
979.232	68.17
979.397	134.62
979.563	187.13
979.728	106.53
979.893	114.47
980.058	80.76
980.223	180.73
980.388	107.69
980.554	112.73
980.719	91.03
980.884	116.8
981.049	174.73
981.214	137.72
981.379	113.5
981.544	100.14
981.709	143.73
981.874	89.48
982.039	121.25
982.204	150.51
982.368	122.22
982.533	95.29
982.698	177.63
982.863	171.43
983.028	102.07
983.193	153.03
983.357	115.63
983.522	121.83
983.687	131.33
983.852	103.82
984.016	104.98
984.181	146.05
984.346	141.79
984.51	139.08
984.675	111.37
984.839	156.52
985.004	118.15
985.168	154.19
985.333	145.67
985.498	107.5
985.662	157.29
985.827	145.28
985.991	107.69
986.155	100.52
986.32	145.86
986.484	169.88
986.649	147.6
986.813	69.33
986.977	121.06
987.142	166.01
987.306	81.15
987.47	77.08
987.634	133.27
987.799	117.18
987.963	156.32
988.127	154.38
988.291	194.88
988.455	138.88
988.62	105.56
988.784	137.92
988.948	153.61
989.112	72.04
989.276	122.61
989.44	109.82
989.604	73.2
989.768	91.8
989.932	166.2
990.096	78.24
990.26	76.3
990.424	73.59
990.588	111.76
990.752	172.4
990.915	141.4
991.079	103.82
991.243	77.47
991.407	141.6
991.571	110.79
991.734	138.3
991.898	153.8
992.062	205.53
992.226	117.96
992.389	67.59
992.553	47.82
992.717	79.4
992.88	113.5
993.044	113.7
993.207	82.31
993.371	145.67
993.535	129.39
993.698	116.8
993.862	145.47
994.025	152.45
994.189	153.8
994.352	107.5
994.515	98.59
994.679	141.4
994.842	79.99
995.006	146.44
995.169	66.04
995.332	71.07
995.496	123.19
995.659	61.97
995.822	84.05
995.985	66.23
996.149	119.51
996.312	84.83
996.475	177.83
996.638	81.92
996.801	146.44
996.964	165.23
997.128	82.89
997.291	93.55
997.454	78.24
997.617	60.42
997.78	134.43
997.943	55.57
998.106	139.27
998.269	52.47
998.432	91.22
998.595	76.69
998.758	70.49
998.92	52.09
999.083	28.84
999.246	69.72
999.409	47.24
999.572	20.7
999.735	102.27
999.897	106.33
1000.06	65.26
1000.223	61.77
1000.386	116.8
1000.548	123.19
1000.711	79.4
1000.874	118.54
1001.036	36
1001.199	135.78
1001.361	46.85
1001.524	102.65
1001.687	120.09
1001.849	40.27
1002.012	100.14
1002.174	76.69
1002.337	122.03
1002.499	70.3
1002.661	150.7
1002.824	51.31
1002.986	42.59
1003.149	83.47
1003.311	46.66
1003.473	151.48
1003.636	69.14
1003.798	82.5
1003.96	90.06
1004.123	79.79
1004.285	42.98
1004.447	77.85
1004.609	82.31
1004.771	153.8
1004.933	28.45
1005.096	50.15
1005.258	12.37
1005.42	68.75
1005.582	98.39
1005.744	85.02
1005.906	23.41
1006.068	74.95
1006.23	31.94
1006.392	-8.56
1006.554	38.72
1006.716	110.4
1006.878	97.81
1007.04	22.25
1007.202	61.77
1007.363	67.39
1007.525	86.38
1007.687	70.88
1007.849	99.75
1008.011	9.66
1008.172	13.53
1008.334	57.12
1008.496	92.58
1008.658	6.36
1008.819	42.01
1008.981	23.02
1009.143	26.7
1009.304	39.49
1009.466	90.45
1009.627	107.3
1009.789	151.67
1009.95	86.38
1010.112	55.38
1010.273	47.63
1010.435	32.9
1010.596	33.29
1010.758	48.79
1010.919	49.18
1011.081	0.74
1011.242	60.42
1011.403	89.87
1011.565	63.32
1011.726	76.89
1011.887	22.64
1012.049	53.25
1012.21	92.58
1012.371	117.18
1012.532	-20.57
1012.693	58.87
1012.855	41.82
1013.016	49.76
1013.177	80.37
1013.338	46.47
1013.499	103.04
1013.66	76.11
1013.821	67.39
1013.982	35.04
1014.143	50.15
1014.304	42.4
1014.465	60.61
1014.626	85.02
1014.787	50.15
1014.948	152.06
1015.109	-17.08
1015.27	65.84
1015.431	28.25
1015.592	17.6
1015.752	78.24
1015.913	57.51
1016.074	77.85
1016.235	69.91
1016.395	38.72
1016.556	23.99
1016.717	47.63
1016.877	86.96
1017.038	18.18
1017.199	55.57
1017.359	48.99
1017.52	75.92
1017.681	30.39
1017.841	28.25
1018.002	31.55
1018.162	2.87
1018.323	99.75
1018.483	46.66
1018.644	13.92
1018.804	9.66
1018.964	7.33
1019.125	3.07
1019.285	47.05
1019.446	9.27
1019.606	-5.84
1019.766	-28.71
1019.926	80.95
1020.087	45.89
1020.247	-12.82
1020.407	65.07
1020.567	75.34
1020.728	25.54
1020.888	9.85
1021.048	21.86
1021.208	14.5
1021.368	3.84
1021.528	73.98
1021.688	81.54
1021.848	62.35
1022.008	36.59
1022.168	27.09
1022.328	13.92
1022.488	61.58
1022.648	53.25
1022.808	55.38
1022.968	61.39
1023.128	2.87
1023.288	-3.91
1023.448	22.64
1023.608	52.28
1023.767	76.11
1023.927	0.94
1024.087	-7.98
1024.247	-6.81
1024.406	-2.74
1024.566	2.1
1024.726	-9.33
1024.885	13.14
1025.045	53.83
1025.205	42.79
1025.364	36.97
1025.524	44.14
1025.683	24.77
1025.843	43.56
1026.003	37.55
1026.162	69.72
1026.321	66.42
1026.481	28.64
1026.64	21.86
1026.8	67.2
1026.959	38.52
1027.119	35.23
1027.278	28.25
1027.437	21.09
1027.597	3.84
1027.756	44.34
1027.915	41.43
1028.074	33.87
1028.234	5.78
1028.393	42.4
1028.552	22.44
1028.711	-35.29
1028.87	72.82
1029.03	-18.83
1029.189	29.03
1029.348	-58.35
1029.507	9.46
1029.666	17.99
1029.825	-19.99
1029.984	9.85
1030.143	44.92
1030.302	16.05
1030.461	-31.03
1030.62	18.57
1030.779	48.79
1030.938	-18.83
1031.097	-25.03
1031.255	56.54
1031.414	108.08
1031.573	84.44
1031.732	-34.91
1031.891	22.05
1032.049	74.75
1032.208	42.4
1032.367	-4.68
1032.525	18.18
1032.684	24.57
1032.843	48.4
1033.001	-31.23
1033.16	172.4
1033.319	59.84
1033.477	49.37
1033.636	3.46
1033.794	-2.94
1033.953	67
1034.111	33.87
1034.27	-5.46
1034.428	46.47
1034.587	-18.63
1034.745	38.91
1034.903	29.42
1035.062	36.78
1035.22	-45.95
1035.378	48.21
1035.537	-19.21
1035.695	69.33
1035.853	20.31
1036.011	34.65
1036.17	31.16
1036.328	-29.68
1036.486	32.9
1036.644	40.65
1036.802	-56.22
1036.96	12.95
1037.119	17.99
1037.277	4.04
1037.435	-31.42
1037.593	-24.06
1037.751	20.12
1037.909	45.11
1038.067	45.11
