Data from gum_old_FLMT105791__51__15-43-39-257.txt Node

Date: Mon Mar 20 15:43:39 GMT 2023
User: antho
Spectrometer: FLMT10579
Trigger mode: 0
Integration Time (sec): 1.000000E-1
Scans to average: 10
Electric dark correction enabled: true
Nonlinearity correction enabled: false
Boxcar width: 0
XAxis mode: Wavelengths
Number of Pixels in Spectrum: 3648
>>>>>Begin Spectral Data<<<<<
345.248	-166.85
345.464	-166.85
345.681	-166.85
345.898	-183.9
346.114	-162
346.331	-36.84
346.548	31.74
346.764	5.39
346.981	-7.39
347.197	0.55
347.414	21.28
347.631	-24.06
347.847	50.92
348.064	-6.43
348.28	42.79
348.497	-60.87
348.713	-17.08
348.93	49.95
349.146	44.92
349.363	24.96
349.579	20.31
349.796	15.66
350.012	9.85
350.229	33.1
350.445	42.79
350.661	-2.36
350.878	24.77
351.094	28.06
351.311	31.94
351.527	73.59
351.743	3.46
351.96	64.49
352.176	65.07
352.392	19.73
352.609	52.67
352.825	13.34
353.041	31.94
353.257	36.59
353.474	26.9
353.69	51.31
353.906	51.5
354.122	13.72
354.339	61.39
354.555	43.17
354.771	15.85
354.987	75.92
355.203	74.37
355.42	14.89
355.636	55.96
355.852	-2.36
356.068	26.12
356.284	-1.19
356.5	72.62
356.716	77.85
356.932	46.85
357.148	69.72
357.364	37.36
357.58	74.17
357.796	59.06
358.012	65.26
358.228	55.38
358.444	-25.61
358.66	67.97
358.876	71.27
359.092	7.33
359.308	55.96
359.524	52.09
359.74	44.72
359.956	23.8
360.172	54.8
360.388	92.39
360.604	23.6
360.819	100.33
361.035	69.52
361.251	65.26
361.467	11.01
361.683	82.12
361.898	42.79
362.114	94.71
362.33	59.06
362.546	95.1
362.762	65.45
362.977	64.1
363.193	22.25
363.409	83.67
363.624	36
363.84	19.34
364.056	25.15
364.271	75.72
364.487	72.24
364.703	22.83
364.918	41.43
365.134	37.94
365.35	20.7
365.565	151.28
365.781	76.69
365.996	103.23
366.212	133.07
366.427	85.41
366.643	46.47
366.858	51.12
367.074	21.47
367.289	110.02
367.505	169.11
367.72	27.09
367.936	32.52
368.151	84.44
368.367	71.46
368.582	65.26
368.798	46.08
369.013	107.88
369.228	59.45
369.444	86.38
369.659	108.66
369.874	107.5
370.09	123
370.305	1.32
370.52	42.59
370.736	106.92
370.951	60.03
371.166	111.37
371.381	133.46
371.597	98.59
371.812	37.55
372.027	32.52
372.242	51.31
372.458	150.51
372.673	74.37
372.888	60.61
373.103	106.72
373.318	154
373.533	75.14
373.749	111.57
373.964	22.83
374.179	99.17
374.394	29.42
374.609	110.02
374.824	25.35
375.039	108.85
375.254	66.04
375.469	98.59
375.684	83.47
375.899	111.37
376.114	76.11
376.329	89.67
376.544	111.37
376.759	102.07
376.974	61.97
377.189	91.61
377.404	72.82
377.619	131.72
377.834	13.53
378.049	33.87
378.264	39.69
378.478	101.69
378.693	74.56
378.908	116.6
379.123	96.07
379.338	129.39
379.553	104.78
379.767	85.22
379.982	92.39
380.197	108.47
380.412	90.84
380.626	111.18
380.841	173.57
381.056	108.85
381.271	166.98
381.485	92.19
381.7	76.11
381.915	124.74
382.129	109.05
382.344	111.95
382.559	70.69
382.773	111.76
382.988	36.59
383.202	88.51
383.417	29.8
383.632	166.78
383.846	83.09
384.061	70.69
384.275	66.04
384.49	103.43
384.704	95.49
384.919	91.61
385.133	110.21
385.348	136.95
385.562	72.43
385.777	140.82
385.991	107.3
386.206	87.15
386.42	95.1
386.634	146.83
386.849	112.53
387.063	132.68
387.277	77.66
387.492	88.7
387.706	81.54
387.92	72.04
388.135	149.73
388.349	112.34
388.563	118.93
388.778	138.5
388.992	135.2
389.206	129.97
389.42	185.58
389.635	116.22
389.849	154.77
390.063	150.7
390.277	157.48
390.491	171.63
390.706	150.51
390.92	145.28
391.134	143.34
391.348	180.15
391.562	120.28
391.776	144.89
391.99	129.97
392.205	189.65
392.419	125.52
392.633	143.15
392.847	179.96
393.061	80.76
393.275	177.05
393.489	84.44
393.703	91.8
393.917	150.12
394.131	83.09
394.345	122.42
394.559	189.84
394.773	142.95
394.986	148.57
395.2	156.71
395.414	210.57
395.628	110.6
395.842	200.3
396.056	178.41
396.27	120.28
396.484	174.73
396.697	147.8
396.911	181.32
397.125	145.28
397.339	166.2
397.553	130.94
397.766	185.38
397.98	197.01
398.194	209.8
398.408	155.55
398.621	230.33
398.835	241.18
399.049	201.08
399.262	285.74
399.476	259.01
399.69	280.32
399.903	320.62
400.117	252.81
400.331	278.19
400.544	224.13
400.758	380.1
400.971	263.85
401.185	301.83
401.398	240.6
401.612	314.42
401.826	297.95
402.039	296.98
402.253	257.65
402.466	329.92
402.68	294.27
402.893	281.87
403.106	295.63
403.32	297.56
403.533	296.01
403.747	284.97
403.96	311.9
404.174	328.95
404.387	290.39
404.6	314.61
404.814	321.98
405.027	299.69
405.24	288.65
405.454	269.08
405.667	311.51
405.88	240.8
406.094	335.93
406.307	347.36
406.52	319.65
406.733	275.67
406.947	241.96
407.16	381.84
407.373	355.3
407.586	313.64
407.799	274.9
408.012	349.68
408.226	317.91
408.439	351.23
408.652	300.66
408.865	361.11
409.078	368.47
409.291	364.99
409.504	286.33
409.717	364.99
409.93	359.56
410.143	373.71
410.357	247.38
410.57	276.83
410.783	303.18
410.996	322.94
411.209	324.49
411.421	370.99
411.634	367.7
411.847	339.22
412.06	395.02
412.273	349.88
412.486	367.31
412.699	440.36
412.912	366.15
413.125	394.82
413.338	395.02
413.55	361.31
413.763	395.41
413.976	401.41
414.189	352.2
414.402	345.23
414.615	438.22
414.827	355.49
415.04	436.48
415.253	399.67
415.466	416.14
415.678	457.99
415.891	365.37
416.104	379.71
416.316	391.14
416.529	380.87
416.742	433.96
416.954	467.29
417.167	401.22
417.38	403.74
417.592	439
417.805	346
418.017	347.16
418.23	414.01
418.442	345.42
418.655	373.71
418.868	422.92
419.08	439.97
419.293	450.62
419.505	455.47
419.718	449.66
419.93	462.05
420.142	405.48
420.355	436.09
420.567	442.68
420.78	407.61
420.992	411.68
421.205	472.32
421.417	370.41
421.629	410.52
421.842	413.23
422.054	383.97
422.266	475.81
422.479	490.34
422.691	376.61
422.903	450.04
423.115	394.24
423.328	402.38
423.54	441.71
423.752	412.26
423.964	418.27
424.177	435.9
424.389	450.62
424.601	550.79
424.813	434.35
425.025	472.32
425.238	446.75
425.45	444.62
425.662	430.09
425.874	733.69
426.086	450.62
426.298	470
426.51	463.22
426.722	451.01
426.934	432.99
427.146	483.56
427.358	431.25
427.57	488.02
427.782	412.26
427.994	467.48
428.206	434.93
428.418	407.42
428.63	479.69
428.842	518.82
429.054	457.6
429.266	478.14
429.478	438.22
429.69	439
429.902	388.43
430.114	482.98
430.325	442.1
430.537	401.22
430.749	360.53
430.961	333.99
431.173	346.78
431.384	371.19
431.596	308.22
431.808	396.96
432.02	457.21
432.231	513.01
432.443	563.77
432.655	496.93
432.867	475.81
433.078	534.52
433.29	555.05
433.502	549.63
433.713	537.62
433.925	568.03
434.136	581.6
434.348	491.7
434.56	451.59
434.771	597.68
434.983	455.27
435.194	494.8
435.406	559.51
435.617	570.75
435.829	627.13
436.04	594.19
436.252	591.09
436.463	620.54
436.675	618.41
436.886	606.98
437.098	604.27
437.309	626.35
437.521	617.25
437.732	606.2
437.943	559.51
438.155	608.14
438.366	530.84
438.578	634.88
438.789	557.38
439	593.42
439.211	566.68
439.423	565.13
439.634	604.07
439.845	602.72
440.057	621.7
440.268	651.73
440.479	583.73
440.69	638.36
440.902	620.93
441.113	596.71
441.324	632.55
441.535	649.8
441.746	685.83
441.957	629.06
442.168	640.69
442.38	712.96
442.591	718.19
442.802	649.99
443.013	667.81
443.224	679.44
443.435	665.68
443.646	669.75
443.857	666.07
444.068	646.7
444.279	648.05
444.49	769.14
444.701	698.62
444.912	781.16
445.123	742.41
445.334	706.37
445.545	710.05
445.756	703.46
445.967	641.66
446.178	683.7
446.388	711.41
446.599	724.19
446.81	693.78
447.021	678.08
447.232	727.29
447.443	766.04
447.653	697.26
447.864	754.81
448.075	710.44
448.286	744.34
448.496	755
448.707	755.97
448.918	722.26
449.129	839.28
449.339	711.02
449.55	762.36
449.761	751.71
449.971	776.89
450.182	739.11
450.393	760.81
450.603	753.26
450.814	805.57
451.024	795.69
451.235	835.02
451.446	873.38
451.656	840.06
451.867	746.67
452.077	777.86
452.288	852.65
452.498	815.26
452.709	768.56
452.919	798.01
453.13	721.68
453.34	819.71
453.55	704.43
453.761	789.1
453.971	779.22
454.182	788.71
454.392	797.43
454.602	835.41
454.813	789.29
455.023	817.39
455.233	717.61
455.444	794.53
455.654	697.85
455.864	772.24
456.075	796.66
456.285	759.65
456.495	771.86
456.705	789.1
456.916	884.04
457.126	872.22
457.336	815.64
457.546	745.89
457.756	785.61
457.967	868.34
458.177	793.75
458.387	834.63
458.597	760.81
458.807	816.22
459.017	781.74
459.227	773.79
459.437	748.8
459.647	829.4
459.857	817.19
460.068	810.8
460.278	866.21
460.488	806.34
460.698	854.2
460.908	830.95
461.117	779.61
461.327	834.05
461.537	858.66
461.747	860.21
461.957	856.91
462.167	964.64
462.377	888.3
462.587	841.99
462.797	917.36
463.007	863.11
463.216	904.96
463.426	938.87
463.636	913.87
463.846	831.34
464.056	873.77
464.265	899.34
464.475	826.11
464.685	894.3
464.895	916.78
465.104	860.21
465.314	918.72
465.524	848.97
465.733	819.13
465.943	951.65
466.153	1001.45
466.362	960.57
466.572	896.63
466.782	898.37
466.991	903.8
467.201	966.19
467.41	805.18
467.62	902.44
467.829	903.8
468.039	917.75
468.249	916.78
468.458	965.22
468.668	963.67
468.877	975.1
469.086	959.99
469.296	1000.87
469.505	967.54
469.715	1019.85
469.924	961.34
470.134	989.24
470.343	1022.95
470.552	978
470.762	974.71
470.971	886.17
471.18	965.6
471.39	978.39
471.599	954.56
471.808	987.5
472.018	970.84
472.227	1071.97
472.436	1063.64
472.645	1026.63
472.855	1011.33
473.064	1113.82
473.273	1076.62
473.482	1072.75
473.691	1127.38
473.901	1070.23
474.11	1073.13
474.319	1175.82
474.528	1070.23
474.737	1165.55
474.946	1118.66
475.155	1131.06
475.364	1188.61
475.573	1116.73
475.783	1181.83
475.992	1164.58
476.201	1180.08
476.41	1138.23
476.619	1101.42
476.828	1174.85
477.037	1139.4
477.245	1143.85
477.454	1190.93
477.663	1170.39
477.872	1209.73
478.081	1277.34
478.29	1176.01
478.499	1312.22
478.708	1276.37
478.917	1350.77
479.125	1240.72
479.334	1278.51
479.543	1269.98
479.752	1276.37
479.961	1328.1
480.169	1344.19
480.378	1347.29
480.587	1482.13
480.796	1368.4
481.004	1309.89
481.213	1337.99
481.422	1360.65
481.63	1385.26
481.839	1388.94
482.048	1482.33
482.256	1427.11
482.465	1452.3
482.674	1456.17
482.882	1455.98
483.091	1547.04
483.299	1437.38
483.508	1475.16
483.716	1468.38
483.925	1476.52
484.134	1395.14
484.342	1451.91
484.551	1502.67
484.759	1469.15
484.967	1517.01
485.176	1496.67
485.384	1544.33
485.593	1532.7
485.801	1474.77
486.01	1490.27
486.218	1374.99
486.426	1274.63
486.635	1280.64
486.843	1253.9
487.051	1297.11
487.26	1295.17
487.468	1385.45
487.676	1445.9
487.885	1416.84
488.093	1457.92
488.301	1506.55
488.509	1535.61
488.717	1603.61
488.926	1570.29
489.134	1550.53
489.342	1513.91
489.55	1502.28
489.758	1540.45
489.967	1545.3
490.175	1672.2
490.383	1598.96
490.591	1699.32
490.799	1645.66
491.007	1684.21
491.215	1665.03
491.423	1645.85
491.631	1663.87
491.839	1640.43
492.047	1661.74
492.255	1552.27
492.463	1541.42
492.671	1551.88
492.879	1645.08
493.087	1625.7
493.295	1679.76
493.503	1695.84
493.711	1709.01
493.919	1757.06
494.127	1719.09
494.334	1734.01
494.542	1674.72
494.75	1710.17
494.958	1709.21
495.166	1803.95
495.374	1755.9
495.581	1784.77
495.789	1766.36
495.997	1845.02
496.205	1758.22
496.412	1771.01
496.62	1770.43
496.828	1792.52
497.035	1791.55
497.243	1816.74
497.451	1800.46
497.658	1802.79
497.866	1755.71
498.074	1840.18
498.281	1783.22
498.489	1854.32
498.696	1794.84
498.904	1746.21
499.112	1738.07
499.319	1847.93
499.527	1825.45
499.734	1852.38
499.942	1767.72
500.149	1788.25
500.357	1828.55
500.564	1780.89
500.771	1763.26
500.979	1740.59
501.186	1745.44
501.394	1783.8
501.601	1735.17
501.808	1796.97
502.016	1741.56
502.223	1756.09
502.43	1746.21
502.638	1740.4
502.845	1783.8
503.052	1854.71
503.26	1778.57
503.467	1840.76
503.674	1831.65
503.881	1824.68
504.089	1893.46
504.296	1863.04
504.503	1778.57
504.71	1792.9
504.917	1751.25
505.125	1811.89
505.332	1820.22
505.539	1856.45
505.746	1952.36
505.953	1924.65
506.16	1920.39
506.367	1944.41
506.574	1986.26
506.781	1928.53
506.988	1904.12
507.195	1944.8
507.402	1910.51
507.609	1943.25
507.816	1898.5
508.023	1863.82
508.23	1883.77
508.437	1835.53
508.644	1900.24
508.851	1945.19
509.058	1957.98
509.265	1901.98
509.472	1960.11
509.679	2014.94
509.885	1948.1
510.092	1941.51
510.299	1938.8
510.506	1915.16
510.713	1937.05
510.92	1929.11
511.126	1932.02
511.333	1978.9
511.54	1978.13
511.746	2014.55
511.953	2022.5
512.16	2070.74
512.367	1991.88
512.573	2004.67
512.78	1976
512.987	2004.28
513.193	1958.75
513.4	1872.15
513.606	1968.44
513.813	1989.56
514.02	1980.65
514.226	2034.7
514.433	2017.26
514.639	1927.37
514.846	1967.08
515.052	1925.04
515.259	1966.31
515.465	1973.48
515.672	1983.36
515.878	2076.94
516.085	2001.18
516.291	2056.4
516.497	2010.48
516.704	1994.01
516.91	1905.47
517.117	1833.98
517.323	1765.97
517.529	1829.72
517.736	1810.92
517.942	1805.3
518.148	1820.61
518.354	1855.48
518.561	1886.68
518.767	1868.47
518.973	1923.68
519.179	1936.47
519.386	1909.35
519.592	1958.75
519.798	1919.42
520.004	2032.57
520.21	1995.76
520.417	2063.96
520.623	2092.24
520.829	2147.27
521.035	2130.22
521.241	2129.44
521.447	2086.04
521.653	2212.75
521.859	2121.31
522.065	2140.29
522.271	2217.02
522.477	2164.32
522.683	2192.22
522.889	2195.51
523.095	2188.54
523.301	2132.54
523.507	2138.16
523.713	2120.53
523.919	2096.51
524.125	2216.63
524.331	2178.46
524.537	2277.27
524.742	2277.08
524.948	2272.24
525.154	2328.81
525.36	2374.92
525.566	2242.79
525.772	2349.73
525.977	2228.06
526.183	2289.28
526.389	2351.67
526.595	2235.81
526.8	2269.14
527.006	2136.61
527.212	2089.73
527.417	2056.59
527.623	2066.67
527.829	2163.35
528.034	2207.52
528.24	2204.62
528.446	2216.44
528.651	2329
528.857	2330.55
529.062	2414.25
529.268	2338.11
529.473	2391.97
529.679	2379.57
529.884	2465.01
530.09	2438.08
530.295	2439.25
530.501	2424.52
530.706	2433.82
530.912	2398.56
531.117	2428.78
531.323	2425.68
531.528	2511.32
531.733	2521.78
531.939	2429.36
532.144	2451.45
532.35	2455.52
532.555	2525.08
532.76	2434.21
532.966	2464.43
533.171	2406.11
533.376	2349.35
533.581	2332.49
533.787	2382.48
533.992	2424.33
534.197	2460.36
534.402	2442.93
534.607	2476.83
534.813	2524.88
535.018	2440.21
535.223	2478.77
535.428	2495.82
535.633	2562.47
535.838	2531.47
536.043	2521.39
536.249	2648.88
536.454	2560.72
536.659	2590.17
536.864	2521.01
537.069	2509.77
537.274	2520.43
537.479	2498.92
537.684	2511.32
537.889	2450.87
538.094	2582.81
538.299	2520.62
538.504	2523.14
538.708	2530.31
538.913	2581.84
539.118	2526.24
539.323	2565.37
539.528	2549.68
539.733	2526.82
539.938	2588.43
540.142	2544.45
540.347	2495.04
540.552	2502.41
540.757	2448.16
540.962	2506.09
541.166	2422.39
541.371	2434.21
541.576	2498.34
541.781	2368.72
541.985	2529.53
542.19	2503.57
542.395	2564.99
542.599	2618.46
542.804	2561.69
543.008	2606.06
543.213	2532.83
543.418	2527.59
543.622	2603.54
543.827	2466.18
544.031	2593.47
544.236	2617.3
544.44	2622.72
544.645	2652.56
544.849	2587.66
545.054	2600.83
545.258	2689.37
545.463	2647.91
545.667	2567.7
545.872	2599.67
546.076	2622.92
546.281	2649.46
546.485	2563.24
546.689	2621.17
546.894	2627.76
547.098	2619.24
547.302	2568.67
547.507	2574.48
547.711	2619.82
547.915	2648.88
548.119	2481.68
548.324	2534.57
548.528	2653.14
548.732	2585.52
548.936	2598.89
549.141	2643.65
549.345	2604.51
549.549	2601.8
549.753	2630.28
549.957	2698.29
550.161	2684.34
550.366	2669.22
550.57	2606.45
550.774	2603.93
550.978	2624.47
551.182	2644.42
551.386	2574.09
551.59	2623.89
551.794	2579.71
551.998	2673.1
552.202	2652.17
552.406	2614.39
552.61	2639.77
552.814	2646.94
553.018	2704.68
553.222	2629.51
553.426	2581.07
553.63	2679.69
553.833	2627.57
554.037	2568.09
554.241	2643.26
554.445	2668.25
554.649	2579.91
554.853	2622.34
555.056	2691.5
555.26	2685.11
555.464	2636.67
555.668	2645.39
555.871	2663.99
556.075	2707.2
556.279	2601.99
556.483	2568.86
556.686	2588.82
556.89	2584.75
557.094	2609.36
557.297	2545.61
557.501	2576.42
557.704	2509.96
557.908	2608.97
558.112	2536.31
558.315	2658.95
558.519	2566.15
558.722	2506.67
558.926	2531.47
559.129	2467.34
559.333	2437.31
559.536	2464.04
559.74	2430.14
559.943	2431.5
560.147	2434.98
560.35	2442.54
560.553	2425.68
560.757	2420.65
560.96	2506.86
561.164	2461.53
561.367	2553.36
561.57	2485.94
561.774	2475.86
561.977	2458.81
562.18	2434.79
562.384	2531.66
562.587	2445.64
562.79	2427.43
562.993	2422.78
563.197	2485.94
563.4	2519.46
563.603	2528.76
563.806	2600.44
564.009	2423.75
564.212	2467.92
564.416	2379.18
564.619	2460.17
564.822	2376.08
565.025	2474.12
565.228	2431.5
565.431	2401.27
565.634	2316.22
565.837	2365.82
566.04	2353.61
566.243	2374.53
566.446	2279.21
566.649	2360.2
566.852	2298.2
567.055	2331.13
567.258	2335.01
567.461	2426.85
567.664	2424.13
567.867	2330.17
568.07	2389.45
568.273	2389.06
568.475	2414.06
568.678	2332.3
568.881	2316.02
569.084	2341.98
569.287	2234.65
569.489	2266.42
569.692	2317.96
569.895	2331.52
570.098	2213.53
570.3	2201.13
570.503	2167.22
570.706	2199.58
570.909	2210.04
571.111	2137.77
571.314	2158.31
571.516	2209.46
571.719	2194.35
571.922	2127.31
572.124	2133.9
572.327	2199.19
572.529	2118.98
572.732	2165.48
572.935	2184.08
573.137	2282.12
573.34	2219.73
573.542	2221.09
573.745	2218.37
573.947	2229.61
574.15	2184.66
574.352	2160.25
574.554	2251.12
574.757	2160.06
574.959	2162.96
575.162	2118.01
575.364	2100.96
575.566	2236.97
575.769	2097.67
575.971	2151.53
576.173	2011.84
576.376	2120.72
576.578	2121.5
576.78	2198.03
576.982	2054.27
577.185	2106.19
577.387	2059.89
577.589	2084.69
577.791	2120.34
577.993	2083.33
578.196	2098.83
578.398	2104.26
578.6	2088.95
578.802	2014.55
579.004	1960.11
579.206	2025.59
579.408	2055.24
579.61	2007.38
579.812	2083.72
580.014	2042.84
580.216	2012.81
580.418	2016.3
580.62	2001.38
580.822	1976.38
581.024	2047.29
581.226	2077.52
581.428	2050.39
581.63	2121.31
581.832	2009.32
582.034	2081.78
582.236	2034.89
582.438	2081.01
582.64	2126.34
582.841	2098.06
583.043	2116.27
583.245	2057.76
583.447	2092.05
583.649	2057.37
583.85	2061.83
584.052	2124.21
584.254	2026.95
584.456	2091.28
584.657	1994.79
584.859	2098.64
585.061	2028.5
585.262	2005.64
585.464	1972.31
585.666	2053.88
585.867	1978.13
586.069	2056.4
586.27	1978.51
586.472	1988.98
586.674	1976.19
586.875	2009.13
587.077	1966.89
587.278	1993.63
587.48	2003.31
587.681	2078.49
587.883	2010.48
588.084	1920.78
588.285	1962.05
588.487	1953.71
588.688	1935.7
588.89	1877.77
589.091	1819.64
589.292	1863.43
589.494	1768.49
589.695	1784.38
589.896	1680.53
590.098	1705.52
590.299	1794.45
590.5	1723.54
590.702	1775.27
590.903	1809.57
591.104	1863.04
591.305	1840.57
591.507	1888.62
591.708	1892.1
591.909	1880.48
592.11	1927.37
592.311	1860.91
592.512	1816.93
592.714	1803.56
592.915	1821
593.116	1837.66
593.317	1862.07
593.518	1862.65
593.719	1821.77
593.92	1875.44
594.121	1900.63
594.322	1900.63
594.523	1856.65
594.724	1788.64
594.925	1833.59
595.126	1843.67
595.327	1830.1
595.528	1836.69
595.729	1863.23
595.929	1801.82
596.13	1808.79
596.331	1867.69
596.532	1836.3
596.733	1925.23
596.934	1878.15
597.135	1895.4
597.335	1902.57
597.536	1846.19
597.737	1857.23
597.938	1845.8
598.138	1823.13
598.339	1877.96
598.54	1853.35
598.74	1831.85
598.941	1814.8
599.142	1872.34
599.342	1878.15
599.543	1809.37
599.744	1847.15
599.944	1821.19
600.145	1818.29
600.345	1841.73
600.546	1888.23
600.746	1893.85
600.947	1888.62
601.147	1809.37
601.348	1882.42
601.548	1809.37
601.749	1819.45
601.949	1776.44
602.15	1765.2
602.35	1778.37
602.551	1837.66
602.751	1764.81
602.951	1789.22
603.152	1704.36
603.352	1813.44
603.552	1792.13
603.753	1858.2
603.953	1859.17
604.153	1828.17
604.354	1809.18
604.554	1798.72
604.754	1806.85
604.954	1790.58
605.155	1844.83
605.355	1807.24
605.555	1853.93
605.755	1857.03
605.955	1827.2
606.155	1845.22
606.356	1783.8
606.556	1809.95
606.756	1798.72
606.956	1744.47
607.156	1798.72
607.356	1755.71
607.556	1808.79
607.756	1785.35
607.956	1853.55
608.156	1804.53
608.356	1776.24
608.556	1842.5
608.756	1754.74
608.956	1762.68
609.156	1792.52
609.356	1733.23
609.556	1706.49
609.755	1735.94
609.955	1720.64
610.155	1704.75
610.355	1759.77
610.555	1731.1
610.755	1721.99
610.954	1696.22
611.154	1717.34
611.354	1733.04
611.554	1746.79
611.753	1711.53
611.953	1685.96
612.153	1739.24
612.352	1722.19
612.552	1665.81
612.752	1637.33
612.951	1668.33
613.151	1704.36
613.351	1665.81
613.55	1690.61
613.75	1702.04
613.949	1651.08
614.149	1677.43
614.348	1690.02
614.548	1600.9
614.747	1579.2
614.947	1627.83
615.146	1586.18
615.346	1684.79
615.545	1684.21
615.745	1680.34
615.944	1704.75
616.144	1611.17
616.343	1674.14
616.542	1612.91
616.742	1652.05
616.941	1589.08
617.14	1548.01
617.34	1589.86
617.539	1645.46
617.738	1571.84
617.938	1669.49
618.137	1623.18
618.336	1560.8
618.535	1628.99
618.734	1618.14
618.934	1633.06
619.133	1625.31
619.332	1652.44
619.531	1568.16
619.73	1626.86
619.929	1645.08
620.128	1660.77
620.328	1728.39
620.527	1605.94
620.726	1633.64
620.925	1646.82
621.124	1620.28
621.323	1619.89
621.522	1545.1
621.721	1569.9
621.92	1569.13
622.119	1624.93
622.318	1581.14
622.517	1579.59
622.715	1552.46
622.914	1507.51
623.113	1598.77
623.312	1512.94
623.511	1595.09
623.71	1528.44
623.909	1524.95
624.107	1609.23
624.306	1525.92
624.505	1497.63
624.704	1530.57
624.902	1532.9
625.101	1594.51
625.3	1517.2
625.499	1497.25
625.697	1503.64
625.896	1476.52
626.095	1518.95
626.293	1469.35
626.492	1477.87
626.69	1530.57
626.889	1472.83
627.088	1581.72
627.286	1476.71
627.485	1472.64
627.683	1458.88
627.882	1486.01
628.08	1441.64
628.279	1462.37
628.477	1486.2
628.676	1468.77
628.874	1497.44
629.073	1458.5
629.271	1412
629.469	1465.08
629.668	1439.7
629.866	1409.29
630.065	1464.5
630.263	1474.38
630.461	1424.78
630.66	1452.49
630.858	1433.12
631.056	1451.91
631.254	1491.43
631.453	1408.12
631.651	1460.05
631.849	1434.28
632.047	1457.33
632.245	1410.45
632.444	1413.93
632.642	1465.86
632.84	1483.88
633.038	1422.07
633.236	1372.28
633.434	1409.09
633.632	1393.98
633.83	1381.19
634.028	1468.38
634.227	1415.48
634.425	1475.35
634.623	1383.52
634.821	1439.12
635.019	1418.58
635.216	1415.29
635.414	1476.32
635.612	1416.45
635.81	1385.45
636.008	1496.08
636.206	1424.59
636.404	1445.32
636.602	1405.8
636.8	1384.29
636.997	1439.9
637.195	1433.5
637.393	1384.49
637.591	1480
637.789	1451.91
637.986	1416.07
638.184	1412.77
638.382	1456.95
638.58	1450.17
638.777	1503.06
638.975	1433.31
639.173	1441.45
639.37	1450.55
639.568	1429.82
639.765	1446.1
639.963	1401.73
640.161	1441.83
640.358	1438.73
640.556	1407.74
640.753	1359.49
640.951	1371.7
641.148	1408.9
641.346	1363.17
641.543	1394.75
641.741	1414.13
641.938	1337.02
642.136	1338.18
642.333	1309.12
642.531	1385.84
642.728	1409.29
642.925	1368.99
643.123	1354.65
643.32	1344.96
643.517	1348.64
643.715	1364.14
643.912	1346.51
644.109	1348.45
644.306	1369.37
644.504	1320.16
644.701	1368.99
644.898	1385.84
645.095	1312.99
645.293	1364.34
645.49	1367.05
645.687	1366.85
645.884	1385.45
646.081	1289.36
646.278	1315.32
646.475	1291.1
646.672	1289.16
646.87	1309.7
647.067	1318.81
647.264	1311.44
647.461	1275.79
647.658	1264.75
647.855	1292.46
648.052	1254.87
648.249	1188.41
648.446	1245.96
648.642	1232.78
648.839	1246.54
649.036	1251.19
649.233	1221.54
649.43	1195.97
649.627	1184.93
649.824	1223.09
650.021	1216.31
650.217	1224.64
650.414	1219.99
650.611	1238.79
650.808	1271.53
651.004	1252.16
651.201	1241.31
651.398	1336.63
651.595	1265.33
651.791	1233.94
651.988	1264.17
652.185	1177.95
652.381	1271.34
652.578	1210.11
652.775	1275.6
652.971	1225.23
653.168	1241.89
653.364	1260.29
653.561	1167.49
653.757	1204.11
653.954	1250.02
654.15	1198.49
654.347	1278.51
654.543	1204.11
654.74	1189.96
654.936	1208.56
655.133	1209.34
655.329	1208.95
655.525	1156.06
655.722	1226
655.918	1157.8
656.115	1164.78
656.311	1088.83
656.507	1063.06
656.704	992.53
656.9	1046.4
657.096	1019.85
657.292	1058.6
657.489	1132.23
657.685	1137.85
657.881	1103.94
658.077	1110.72
658.273	1113.82
658.47	1180.66
658.666	1107.04
658.862	1201.39
659.058	1157.03
659.254	1191.32
659.45	1184.73
659.646	1169.04
659.842	1158.77
660.038	1209.73
660.234	1166.71
660.43	1162.26
660.626	1271.34
660.822	1211.47
661.018	1221.93
661.214	1163.81
661.41	1156.44
661.606	1221.16
661.802	1227.36
661.998	1202.56
662.194	1171.75
662.39	1206.04
662.586	1194.61
662.781	1217.09
662.977	1214.57
663.173	1208.56
663.369	1187.25
663.564	1195.58
663.76	1191.9
663.956	1167.88
664.152	1194.23
664.347	1123.12
664.543	1185.31
664.739	1209.34
664.934	1110.53
665.13	1123.51
665.326	1191.51
665.521	1169.23
665.717	1131.06
665.912	1119.83
666.108	1076.04
666.304	1162.84
666.499	1121.96
666.695	1060.54
666.89	1114.98
667.086	1153.15
667.281	1172.53
667.477	1247.7
667.672	1154.31
667.867	1143.85
668.063	1172.53
668.258	1085.73
668.454	1137.46
668.649	1214.96
668.844	1151.99
669.04	1175.63
669.235	1123.12
669.43	1111.11
669.626	1074.88
669.821	1116.53
670.016	1109.17
670.211	1120.21
670.407	1094.83
670.602	1164.39
670.797	1126.22
670.992	1162.06
671.187	1063.83
671.382	1136.3
671.578	1117.11
671.773	1111.88
671.968	1076.04
672.163	1106.26
672.358	1126.41
672.553	1064.8
672.748	1062.67
672.943	1163.81
673.138	1102.78
673.333	1096.77
673.528	1080.3
673.723	1079.33
673.918	1084.18
674.113	1067.51
674.308	1154.31
674.503	1105.88
674.698	1110.53
674.892	1086.7
675.087	1112.27
675.282	1106.46
675.477	1070.42
675.672	1090.38
675.867	1080.3
676.061	1027.99
676.256	1025.08
676.451	1065.58
676.646	1087.86
676.84	1044.27
677.035	1033.22
677.23	1079.33
677.424	1138.43
677.619	1106.65
677.814	1106.46
678.008	1115.37
678.203	994.08
678.397	1029.93
678.592	1067.71
678.787	1118.66
678.981	1050.47
679.176	1061.9
679.37	1071.97
679.565	1042.13
679.759	1068.68
679.954	1080.5
680.148	1111.88
680.342	1104.13
680.537	1103.75
680.731	1060.93
680.926	1091.35
681.12	1097.93
681.314	1018.11
681.509	1066.35
681.703	1048.14
681.897	1087.08
682.092	1058.99
682.286	1013.07
682.48	1109.95
682.674	1082.82
682.869	1039.23
683.063	1071.97
683.257	1120.21
683.451	1019.47
683.645	1039.42
683.839	1067.32
684.034	1056.08
684.228	1083.01
684.422	1001.25
684.616	1002.22
684.81	977.23
685.004	1011.13
685.198	1026.05
685.392	1033.42
685.586	1005.32
685.78	1029.35
685.974	1063.06
686.168	1032.64
686.362	1049.69
686.556	980.52
686.75	954.75
686.944	942.55
687.138	941.77
687.331	842.77
687.525	834.44
687.719	805.96
687.913	853.62
688.107	832.11
688.301	848
688.494	894.11
688.688	822.04
688.882	819.52
689.076	785.81
689.269	831.34
689.463	941.77
689.657	863.31
689.85	857.88
690.044	902.64
690.238	861.56
690.431	887.14
690.625	844.12
690.818	912.9
691.012	915.62
691.205	922.4
691.399	859.82
691.593	934.6
691.786	969.87
691.98	961.54
692.173	969.48
692.366	935.38
692.56	993.7
692.753	1008.81
692.947	905.15
693.14	995.25
693.333	962.31
693.527	897.02
693.72	976.65
693.914	940.42
694.107	932.09
694.3	974.13
694.493	933.25
694.687	993.31
694.88	918.72
695.073	1002.61
695.266	1006.87
695.46	938.48
695.653	1023.73
695.846	1044.27
696.039	946.04
696.232	986.72
696.425	1025.67
696.618	1016.75
696.812	1018.69
697.005	1075.07
697.198	1166.33
697.391	1052.4
697.584	1073.71
697.777	1131.45
697.97	1108.98
698.163	1102.2
698.356	1092.12
698.549	1164.58
698.742	1152.57
698.935	1118.28
699.127	1124.09
699.32	1083.79
699.513	1108.59
699.706	1129.9
699.899	1140.95
700.092	1093.67
700.285	1154.51
700.477	1082.43
700.67	1147.73
700.863	1175.43
701.056	1250.22
701.248	1240.53
701.441	1251.96
701.634	1176.79
701.826	1277.34
702.019	1155.48
702.212	1232.59
702.404	1185.51
702.597	1194.81
702.79	1268.04
702.982	1258.55
703.175	1295.94
703.367	1293.23
703.56	1302.53
703.752	1388.36
703.945	1329.07
704.137	1387
704.33	1386.62
704.522	1377.32
704.715	1388.75
704.907	1431.57
705.1	1439.51
705.292	1456.17
705.484	1453.27
705.677	1452.49
705.869	1484.27
706.061	1526.31
706.254	1569.32
706.446	1516.23
706.638	1493.37
706.831	1584.24
707.023	1538.13
707.215	1647.4
707.407	1613.49
707.599	1613.88
707.792	1655.15
707.984	1605.16
708.176	1681.11
708.368	1648.37
708.56	1673.36
708.752	1689.64
708.944	1648.56
709.136	1689.83
709.329	1674.14
709.521	1790.19
709.713	1820.42
709.905	1805.89
710.097	1869.82
710.289	1771.79
710.481	1820.22
710.672	1823.32
710.864	1849.09
711.056	1898.5
711.248	1896.95
711.44	1897.33
711.632	1895.78
711.824	1951.58
712.016	1986.65
712.207	1960.11
712.399	1953.52
712.591	2020.95
712.783	2026.95
712.975	2086.24
713.166	1995.76
713.358	2013.2
713.55	2154.82
713.741	2106.58
713.933	2152.11
714.125	2098.64
714.316	2091.08
714.508	2178.27
714.7	2152.89
714.891	2161.02
715.083	2236
715.274	2166.45
715.466	2207.91
715.657	2283.67
715.849	2173.04
716.04	2206.75
716.232	2204.23
716.423	2229.61
716.615	2194.74
716.806	2134.09
716.998	2118.98
717.189	2069.38
717.381	2022.3
717.572	1990.72
717.763	2054.46
717.955	2002.54
718.146	2017.07
718.337	1932.79
718.528	1924.27
718.72	1877.18
718.911	1918.45
719.102	1875.25
719.293	1931.24
719.485	1936.28
719.676	1915.74
719.867	1832.82
720.058	1915.74
720.249	1889
720.44	1920.78
720.632	1990.53
720.823	2003.7
721.014	2133.12
721.205	2137.97
721.396	2217.79
721.587	2296.07
721.778	2364.85
721.969	2376.28
722.16	2455.13
722.351	2466.37
722.542	2554.33
722.733	2599.28
722.924	2473.34
723.115	2586.11
723.305	2555.69
723.496	2579.32
723.687	2431.88
723.878	2528.56
724.069	2485.36
724.26	2509.38
724.45	2455.52
724.641	2437.7
724.832	2484.58
725.023	2470.63
725.213	2459.01
725.404	2456.1
725.595	2494.08
725.785	2473.54
725.976	2544.84
726.167	2596.57
726.357	2532.05
726.548	2656.63
726.739	2548.33
726.929	2637.25
727.12	2635.32
727.31	2728.32
727.501	2611.1
727.691	2719.21
727.882	2687.24
728.072	2716.69
728.263	2705.26
728.453	2791.87
728.644	2746.33
728.834	2727.54
729.024	2755.05
729.215	2760.87
729.405	2737.23
729.596	2870.72
729.786	2855.22
729.976	2888.93
730.167	2887.58
730.357	2893.2
730.547	2923.61
730.737	2937.76
730.928	3014.09
731.118	3008.28
731.308	2982.9
731.498	2967.98
731.688	3060.98
731.879	3080.35
732.069	3118.91
732.259	3156.3
732.449	3161.15
732.639	3227.41
732.829	3276.81
733.019	3300.45
733.209	3388.22
733.399	3377.56
733.589	3434.33
733.779	3438.4
733.969	3468.24
734.159	3541.09
734.349	3543.41
734.539	3605.99
734.729	3618.2
734.919	3653.07
735.109	3657.53
735.299	3632.15
735.488	3686.78
735.678	3700.54
735.868	3667.6
736.058	3697.25
736.248	3696.08
736.437	3682.33
736.627	3597.66
736.817	3760.21
737.007	3708.29
737.196	3755.76
737.386	3733.48
737.576	3698.99
737.765	3839.07
737.955	3733.28
738.144	3876.46
738.334	3853.02
738.524	3759.05
738.713	3848.76
738.903	3812.14
739.092	3824.93
739.282	3884.6
739.471	3861.74
739.661	3871.04
739.85	3944.27
740.04	3890.61
740.229	3924.12
740.419	3961.13
740.608	3940.79
740.797	3950.47
740.987	4042.12
741.176	4028.75
741.365	3968.69
741.555	3923.74
741.744	4066.72
741.933	3980.7
742.123	4030.1
742.312	4037.27
742.501	4043.08
742.69	4121.17
742.88	4028.55
743.069	4156.81
743.258	4055.48
743.447	4127.36
743.636	4142.28
743.825	4088.42
744.014	4162.43
744.204	4164.95
744.393	4050.83
744.582	4205.64
744.771	4250.59
744.96	4116.71
745.149	4191.5
745.338	4140.73
745.527	4207
745.716	4200.99
745.905	4188.4
746.094	4193.43
746.283	4230.83
746.471	4199.63
746.66	4256.21
746.849	4282.56
747.038	4266.86
747.227	4189.75
747.416	4306.77
747.604	4154.68
747.793	4257.95
747.982	4257.37
748.171	4272.29
748.359	4235.86
748.548	4245.36
748.737	4231.21
748.926	4253.11
749.114	4120.58
749.303	4219.59
749.491	4206.41
749.68	4146.16
749.869	4256.4
750.057	4152.75
750.246	4206.22
750.434	4188.01
750.623	4186.85
750.811	4146.93
751	4254.85
751.188	4176.96
751.377	4182.78
751.565	4159.53
751.754	4129.3
751.942	4144.22
752.131	4178.13
752.319	4159.14
752.507	4068.66
752.696	4173.67
752.884	4222.11
753.072	4150.61
753.261	4165.15
753.449	4155.46
753.637	4134.34
753.825	4253.49
754.014	4206.61
754.202	4148.68
754.39	4239.54
754.578	4181.23
754.766	4095.78
754.955	4093.46
755.143	4181.61
755.331	4140.15
755.519	4139.76
755.707	4139.18
755.895	4073.31
756.083	4137.44
756.271	4076.8
756.459	4055.48
756.647	4162.43
756.835	4023.13
757.023	4102.57
757.211	4095.2
757.399	4106.25
757.587	4060.52
757.775	4022.94
757.963	4062.85
758.151	4023.32
758.339	3995.04
758.526	3976.82
758.714	4030.1
758.902	3920.83
759.09	3883.05
759.278	3709.45
759.465	3481.41
759.653	3124.92
759.841	2877.31
760.028	2503.38
760.216	2218.37
760.404	2099.8
760.591	1787.48
760.779	1546.26
760.967	1431.95
761.154	1229.68
761.342	1259.52
761.529	1280.83
761.717	1356.39
761.905	1384.68
762.092	1513.91
762.28	1485.62
762.467	1522.43
762.655	1452.68
762.842	1504.03
763.029	1517.59
763.217	1533.28
763.404	1508.29
763.592	1595.28
763.779	1535.41
763.966	1595.86
764.154	1653.41
764.341	1724.51
764.528	1719.47
764.716	1787.67
764.903	1869.82
765.09	1932.6
765.277	1943.83
765.465	2123.44
765.652	2160.64
765.839	2225.35
766.026	2378.41
766.213	2427.43
766.4	2506.48
766.588	2715.72
766.775	2725.99
766.962	2806.78
767.149	2887
767.336	3025.91
767.523	2963.53
767.71	3097.79
767.897	3210.94
768.084	3293.28
768.271	3285.92
768.458	3375.04
768.645	3400.62
768.832	3365.16
769.019	3376.59
769.206	3475.41
769.392	3535.08
769.579	3627.5
769.766	3562.01
769.953	3553.1
770.14	3596.3
770.327	3554.65
770.513	3631.76
770.7	3689.88
770.887	3608.51
771.073	3647.45
771.26	3602.12
771.447	3596.3
771.634	3567.82
771.82	3715.26
772.007	3552.71
772.193	3662.18
772.38	3627.5
772.567	3633.31
772.753	3605.6
772.94	3682.91
773.126	3637.77
773.313	3676.9
773.499	3633.31
773.686	3654.23
773.872	3581.39
774.059	3656.56
774.245	3600.76
774.432	3566.08
774.618	3504.86
774.804	3534.89
774.991	3532.75
775.177	3584.87
775.363	3546.9
775.55	3602.31
775.736	3475.21
775.922	3545.54
776.109	3570.15
776.295	3534.11
776.481	3520.16
776.667	3550.97
776.853	3502.92
777.04	3523.45
777.226	3496.52
777.412	3564.53
777.598	3480.83
777.784	3443.82
777.97	3447.7
778.156	3485.87
778.342	3451.38
778.528	3419.41
778.715	3315.18
778.901	3407.98
779.087	3467.66
779.272	3413.99
779.458	3361.48
779.644	3398.1
779.83	3354.51
780.016	3505.82
780.202	3362.26
780.388	3406.04
780.574	3293.48
780.76	3365.94
780.946	3365.16
781.131	3316.34
781.317	3352.76
781.503	3302.58
781.689	3325.45
781.874	3457.97
782.06	3300.06
782.246	3320.41
782.432	3301.61
782.617	3309.17
782.803	3357.03
782.989	3240.2
783.174	3268.29
783.36	3227.41
783.545	3256.86
783.731	3245.04
783.916	3153.98
784.102	3216.37
784.288	3222.95
784.473	3219.66
784.659	3202.61
784.844	3211.33
785.029	3232.25
785.215	3156.5
785.4	3129.37
785.586	3225.67
785.771	3124.53
785.956	3214.82
786.142	3143.9
786.327	3137.9
786.512	3153.98
786.698	3152.82
786.883	3070.28
787.068	3103.22
787.254	3138.48
787.439	3079.97
787.624	3060.01
787.809	3041.8
787.994	3017.19
788.18	3120.27
788.365	2991.42
788.55	2999.37
788.735	3053.23
788.92	2970.11
789.105	2983.87
789.29	3047.22
789.475	2989.68
789.66	3002.27
789.845	2933.49
790.03	2965.66
790.215	2954.23
790.4	3037.34
790.585	3010.02
790.77	2959.65
790.955	2879.63
791.14	2930.2
791.325	2992.2
791.51	2864.33
791.695	2929.62
791.879	2935.04
792.064	2824.41
792.249	2952.09
792.434	2908.5
792.618	2913.15
792.803	2946.09
792.988	2889.13
793.173	2914.7
793.357	2951.71
793.542	2866.46
793.727	2929.62
793.911	2948.22
794.096	2875.18
794.281	2940.66
794.465	3007.31
794.65	2920.32
794.834	2933.3
795.019	2910.44
795.203	2994.14
795.388	2987.16
795.572	3000.92
795.757	2949.38
795.941	2950.93
796.126	2938.34
796.31	2911.6
796.494	2943.57
796.679	2929.43
796.863	2926.13
797.048	2971.28
797.232	2942.99
797.416	2962.94
797.601	2963.33
797.785	3013.32
797.969	3013.51
798.153	2954.81
798.338	3029.98
798.522	3042.38
798.706	2998.98
798.89	3073.57
799.074	3109.61
799.258	3048.58
799.443	3003.05
799.627	2990.07
799.811	3081.13
799.995	2987.74
800.179	2939.69
800.363	2974.57
800.547	2991.04
800.731	3039.47
800.915	2955.19
801.099	2941.63
801.283	3003.82
801.467	2957.71
801.651	2943.96
801.835	3003.63
802.019	3005.96
802.202	2999.95
802.386	2926.33
802.57	2933.49
802.754	2994.14
802.938	2934.66
803.121	2909.47
803.305	3017
803.489	2958.88
803.673	2947.83
803.856	3025.91
804.04	2952.48
804.224	2981.74
804.407	2948.03
804.591	2950.54
804.775	2926.91
804.958	2953.45
805.142	3043.54
805.326	2943.38
805.509	2962.17
805.693	2984.84
805.876	2994.72
806.06	2977.28
806.243	2993.56
806.427	3014.87
806.61	3003.44
806.794	2984.06
806.977	3002.47
807.16	2979.8
807.344	2995.69
807.527	2969.14
807.71	2967.4
807.894	2938.73
808.077	2954.81
808.26	2911.79
808.444	2897.65
808.627	2971.28
808.81	2933.49
808.993	2868.98
809.177	2837.98
809.36	2879.63
809.543	2871.11
809.726	2788.96
809.909	2826.93
810.092	2814.34
810.276	2806.01
810.459	2777.14
810.642	2784.7
810.825	2763.38
811.008	2781.79
811.191	2723.28
811.374	2692.67
811.557	2744.2
811.74	2788.77
811.923	2644.23
812.106	2680.65
812.289	2617.3
812.472	2636.09
812.654	2647.52
812.837	2614.01
813.02	2560.53
813.203	2539.99
813.386	2411.35
813.569	2416.19
813.751	2373.57
813.934	2441.57
814.117	2372.79
814.3	2351.28
814.482	2292.19
814.665	2245.3
814.848	2204.81
815.03	2159.47
815.213	2188.34
815.396	2165.09
815.578	2112.59
815.761	2112.2
815.943	2170.32
816.126	2028.5
816.309	2036.83
816.491	1932.02
816.674	1914.77
816.856	1970.57
817.039	1913.03
817.221	2033.73
817.403	1937.83
817.586	1986.85
817.768	1976
817.951	1897.14
818.133	1901.79
818.315	1941.12
818.498	1950.81
818.68	2009.13
818.862	2015.71
819.045	2001.57
819.227	2022.3
819.409	1967.86
819.591	1991.69
819.774	1938.41
819.956	1931.05
820.138	1990.14
820.32	1991.88
820.502	2054.08
820.684	2129.44
820.866	2087.4
821.048	2173.81
821.231	2142.04
821.413	2165.09
821.595	2132.16
821.777	2146.3
821.959	2138.16
822.141	2195.71
822.323	2113.36
822.505	2017.07
822.686	1971.15
822.868	1862.85
823.05	1808.02
823.232	1743.69
823.414	1679.95
823.596	1754.74
823.778	1732.26
823.96	1776.63
824.141	1773.53
824.323	1793.68
824.505	1892.3
824.687	1916.71
824.868	1936.47
825.05	2063.38
825.232	2079.07
825.413	2135.64
825.595	2103.48
825.777	2037.8
825.958	2111.62
826.14	2094.38
826.321	2121.89
826.503	2046.13
826.685	2099.61
826.866	2115.49
827.048	2108.13
827.229	2065.31
827.411	2033.54
827.592	2004.28
827.773	1972.9
827.955	1885.32
828.136	1919.03
828.318	1866.72
828.499	1918.65
828.68	1865.95
828.862	1879.51
829.043	1922.52
829.224	1915.35
829.406	1853.35
829.587	1859.36
829.768	1882.22
829.949	1901.02
830.131	1857.81
830.312	1933.95
830.493	1894.04
830.674	1925.23
830.855	1863.62
831.036	1854.9
831.218	1888.81
831.399	1924.46
831.58	1916.9
831.761	1882.22
831.942	1882.61
832.123	1855.68
832.304	1839.4
832.485	1870.4
832.666	1881.64
832.847	1894.04
833.028	1902.18
833.209	1843.09
833.389	1841.15
833.57	1824.29
833.751	1795.81
833.932	1896.37
834.113	1886.29
834.294	1829.91
834.475	1914.58
834.655	1937.83
834.836	1931.43
835.017	1918.07
835.198	1842.12
835.378	1866.53
835.559	1922.72
835.74	1870.4
835.92	1874.67
836.101	1884.74
836.281	1919.42
836.462	1915.16
836.643	1955.65
836.823	1916.9
837.004	1929.69
837.184	1947.71
837.365	1904.31
837.545	1994.79
837.726	1922.33
837.906	1942.67
838.087	1921.17
838.267	1909.15
838.448	1889.39
838.628	1885.13
838.808	1944.03
838.989	1953.33
839.169	1844.05
839.349	1930.27
839.53	1920.78
839.71	1925.82
839.89	1869.63
840.07	1962.63
840.251	1882.22
840.431	1948.87
840.611	1874.28
840.791	1901.6
840.971	1902.76
841.151	1882.61
841.332	1865.56
841.512	1926.2
841.692	1821
841.872	1885.52
842.052	1873.89
842.232	1900.24
842.412	1795.04
842.592	1856.45
842.772	1877.38
842.952	1874.28
843.132	1852.97
843.312	1824.87
843.492	1814.99
843.672	1875.05
843.851	1760.55
844.031	1817.7
844.211	1790
844.391	1822.16
844.571	1843.28
844.751	1814.99
844.93	1842.89
845.11	1771.01
845.29	1845.99
845.47	1857.03
845.649	1834.75
845.829	1826.42
846.009	1763.45
846.188	1848.9
846.368	1793.87
846.547	1829.33
846.727	1842.12
846.907	1800.07
847.086	1799.49
847.266	1826.42
847.445	1785.54
847.625	1762.29
847.804	1769.65
847.984	1801.04
848.163	1765.2
848.343	1749.51
848.522	1758.03
848.701	1774.5
848.881	1753.19
849.06	1748.92
849.239	1766.17
849.419	1784.96
849.598	1699.71
849.777	1674.14
849.957	1706.69
850.136	1616.01
850.315	1583.66
850.494	1605.36
850.674	1604.39
850.853	1673.94
851.032	1646.04
851.211	1705.14
851.39	1648.56
851.569	1616.59
851.748	1577.26
851.927	1656.51
852.107	1663.29
852.286	1598.38
852.465	1654.57
852.644	1637.52
852.823	1647.01
853.002	1622.6
853.181	1611.75
853.359	1666.19
853.538	1591.79
853.717	1650.11
853.896	1585.21
854.075	1472.45
854.254	1470.32
854.433	1399.02
854.611	1423.62
854.79	1315.9
854.969	1417.42
855.148	1455.4
855.327	1421.49
855.505	1492.6
855.684	1424.4
855.863	1441.64
856.041	1480.39
856.22	1504.41
856.399	1484.46
856.577	1582.3
856.756	1559.05
856.934	1663.68
857.113	1686.15
857.291	1566.03
857.47	1551.3
857.648	1571.26
857.827	1542.58
858.005	1592.96
858.184	1527.86
858.362	1628.8
858.541	1585.21
858.719	1531.93
858.898	1515.65
859.076	1527.47
859.254	1580.75
859.433	1526.31
859.611	1502.28
859.789	1477.48
859.967	1565.25
860.146	1553.63
860.324	1480.39
860.502	1493.37
860.68	1470.9
860.859	1480
861.037	1496.47
861.215	1517.4
861.393	1502.28
861.571	1480.78
861.749	1480.78
861.927	1496.67
862.105	1493.37
862.283	1491.24
862.461	1475.55
862.639	1438.54
862.817	1477.1
862.995	1488.72
863.173	1448.42
863.351	1459.08
863.529	1477.48
863.707	1514.88
863.885	1490.47
864.063	1394.75
864.241	1430.79
864.418	1500.93
864.596	1413.35
864.774	1393.4
864.952	1405.8
865.129	1470.12
865.307	1395.92
865.485	1359.49
865.663	1429.63
865.84	1333.53
866.018	1357.55
866.196	1222.9
866.373	1249.06
866.551	1204.88
866.728	1196.36
866.906	1197.71
867.084	1263.01
867.261	1286.64
867.439	1277.92
867.616	1314.16
867.794	1301.56
867.971	1279.28
868.149	1311.25
868.326	1385.26
868.503	1347.29
868.681	1345.54
868.858	1292.46
869.035	1300.21
869.213	1328.88
869.39	1290.91
869.567	1395.53
869.745	1288
869.922	1337.6
870.099	1335.47
870.276	1334.89
870.454	1325.2
870.631	1342.05
870.808	1332.75
870.985	1328.69
871.162	1365.89
871.339	1314.74
871.517	1284.51
871.694	1259.52
871.871	1262.23
872.048	1260.29
872.225	1277.92
872.402	1306.02
872.579	1262.23
872.756	1275.41
872.933	1239.37
873.11	1224.45
873.287	1270.95
873.463	1253.51
873.64	1201.39
873.817	1273.08
873.994	1248.47
874.171	1236.85
874.348	1232.2
874.524	1201.59
874.701	1268.04
874.878	1164
875.055	1251.38
875.231	1237.82
875.408	1246.15
875.585	1150.63
875.762	1221.54
875.938	1176.59
876.115	1194.42
876.291	1219.8
876.468	1200.81
876.645	1168.07
876.821	1150.44
876.998	1185.89
877.174	1199.07
877.351	1187.44
877.527	1135.13
877.704	1168.84
877.88	1177.95
878.057	1168.07
878.233	1222.71
878.409	1171.36
878.586	1187.44
878.762	1145.4
878.938	1154.12
879.115	1080.3
879.291	1178.34
879.467	1089.6
879.644	1117.5
879.82	1170.01
879.996	1136.49
880.172	1120.41
880.349	1131.65
880.525	1150.05
880.701	1077.98
880.877	1102.58
881.053	1105.1
881.229	1096.77
881.405	1159.35
881.581	1066.74
881.757	1120.41
881.933	1103.94
882.109	1125.25
882.285	1106.26
882.461	1055.89
882.637	1143.27
882.813	1106.85
882.989	1121.96
883.165	1157.03
883.341	1075.85
883.517	1125.25
883.693	1140.95
883.869	1129.9
884.044	1087.08
884.22	1124.09
884.396	1141.14
884.572	1136.3
884.747	1158.58
884.923	1126.03
885.099	1132.42
885.275	1129.32
885.45	1103.94
885.626	1095.41
885.801	1065.96
885.977	1111.69
886.153	1041.36
886.328	1115.95
886.504	1064.61
886.679	1123.12
886.855	1068.48
887.03	1130.1
887.206	1104.71
887.381	1115.37
887.557	1088.63
887.732	1124.67
887.908	1129.32
888.083	1146.37
888.258	1088.05
888.434	1072.55
888.609	1117.11
888.784	1128.74
888.96	1072.94
889.135	1054.15
889.31	1093.09
889.485	1083.6
889.661	1075.07
889.836	1131.84
890.011	1118.47
890.186	1077.98
890.361	1099.48
890.537	1088.83
890.712	1090.18
890.887	1108.98
891.062	1106.85
891.237	1173.3
891.412	1090.38
891.587	1096.38
891.762	1144.24
891.937	1139.98
892.112	1063.83
892.287	1076.62
892.462	1043.68
892.637	1000.87
892.812	998.15
892.987	1034.77
893.161	1005.13
893.336	1016.17
893.511	1012.1
893.686	1040.39
893.861	1001.64
894.035	1017.33
894.21	1044.07
894.385	944.1
894.56	1037.1
894.734	977.03
894.909	968.12
895.084	934.8
895.258	928.02
895.433	957.47
895.608	928.02
895.782	869.89
895.957	882.29
896.131	873.57
896.306	829.01
896.48	833.66
896.655	883.26
896.829	794.72
897.004	798.98
897.178	811.96
897.353	768.18
897.527	841.61
897.701	813.12
897.876	758.88
898.05	846.45
898.224	807.7
898.399	850.91
898.573	809.83
898.747	717.99
898.921	768.37
899.096	649.99
899.27	662.39
899.444	623.64
899.618	680.8
899.792	699.01
899.967	706.95
900.141	768.95
900.315	661.61
900.489	693.97
900.663	702.69
900.837	707.34
901.011	637.4
901.185	768.56
901.359	704.05
901.533	716.44
901.707	720.32
901.881	723.61
902.055	672.27
902.229	672.46
902.403	773.21
902.576	708.11
902.75	715.28
902.924	791.81
903.098	775.54
903.272	787.55
903.446	835.99
903.619	794.91
903.793	817.19
903.967	809.25
904.14	874.74
904.314	862.34
904.488	817.97
904.661	842.38
904.835	841.99
905.009	931.12
905.182	905.74
905.356	859.43
905.529	856.52
905.703	827.07
905.876	815.26
906.05	798.4
906.223	761.39
906.397	736.01
906.57	712.38
906.744	714.12
906.917	710.63
907.09	721.29
907.264	699.4
907.437	677.31
907.61	643.4
907.784	645.92
907.957	656.77
908.13	624.42
908.304	683.31
908.477	626.74
908.65	667.81
908.823	620.35
908.996	690.68
909.17	596.32
909.343	620.93
909.516	628.1
909.689	613.76
909.862	568.42
910.035	650.76
910.208	568.23
910.381	586.25
910.554	699.78
910.727	609.69
910.9	589.35
911.073	594.77
911.246	675.76
911.419	671.88
911.592	644.76
911.765	584.7
911.938	590.9
912.11	626.74
912.283	603.49
912.456	657.16
912.629	635.26
912.802	616.08
912.974	582.18
913.147	536.07
913.32	478.72
913.493	510.3
913.665	518.63
913.838	557.38
914.01	508.55
914.183	548.27
914.356	514.75
914.528	609.11
914.701	616.86
914.873	594.77
915.046	522.5
915.218	522.7
915.391	468.84
915.563	457.99
915.736	507.59
915.908	544.98
916.081	521.73
916.253	518.44
916.425	549.82
916.598	574.04
916.77	540.72
916.942	507.59
917.115	483.37
917.287	535.68
917.459	504.1
917.632	479.3
917.804	426.02
917.976	488.4
918.148	483.17
918.32	513.98
918.493	544.4
918.665	622.09
918.837	548.47
919.009	590.12
919.181	596.71
919.353	536.84
919.525	564.55
919.697	549.63
919.869	546.53
920.041	590.12
920.213	659.68
920.385	579.27
920.557	557.77
920.729	611.05
920.901	577.72
921.073	556.41
921.244	556.41
921.416	593.03
921.588	540.52
921.76	518.63
921.932	590.51
922.103	525.41
922.275	517.08
922.447	569
922.619	482.4
922.79	509.91
922.962	495.77
923.134	553.7
923.305	501
923.477	452.75
923.648	478.52
923.82	533.16
923.991	449.46
924.163	454.69
924.335	495.77
924.506	460.5
924.677	510.3
924.849	441.91
925.02	477.75
925.192	527.54
925.363	466.51
925.535	485.69
925.706	432.22
925.877	519.6
926.049	467.29
926.22	492.28
926.391	504.49
926.562	496.15
926.734	424.27
926.905	488.21
927.076	420.01
927.247	470.77
927.419	383.97
927.59	401.41
927.761	416.33
927.932	404.32
928.103	419.82
928.274	366.34
928.445	360.92
928.616	365.37
928.787	360.14
928.958	369.06
929.129	377.58
929.3	341.54
929.471	318.1
929.642	288.26
929.813	243.9
929.984	349.88
930.155	249.51
930.326	313.64
930.496	267.15
930.667	196.43
930.838	240.8
931.009	217.35
931.18	204.18
931.35	232.85
931.521	215.61
931.692	171.82
931.863	126.1
932.033	178.99
932.204	155.35
932.374	187.32
932.545	126.68
932.716	204.56
932.886	174.15
933.057	118.54
933.227	127.26
933.398	198.56
933.568	110.4
933.739	58.48
933.909	70.49
934.08	125.13
934.25	52.47
934.421	61.58
934.591	103.82
934.761	77.66
934.932	36
935.102	100.91
935.272	57.12
935.443	85.8
935.613	106.72
935.783	121.83
935.953	52.09
936.123	214.64
936.294	71.27
936.464	77.08
936.634	109.63
936.804	14.31
936.974	40.07
937.144	82.5
937.314	82.89
937.484	55.57
937.655	46.27
937.825	115.83
937.995	69.52
938.165	139.08
938.334	82.5
938.504	97.23
938.674	85.99
938.844	107.88
939.014	129
939.184	157.48
939.354	213.86
939.524	173.95
939.694	123.58
939.863	149.35
940.033	188.48
940.203	207.47
940.373	172.02
940.542	182.48
940.712	145.86
940.882	170.47
941.051	179.38
941.221	170.08
941.391	168.33
941.56	132.49
941.73	120.48
941.899	253.58
942.069	116.22
942.238	176.08
942.408	140.24
942.577	167.56
942.747	132.49
942.916	83.09
943.086	88.12
943.255	176.28
943.425	160.58
943.594	88.51
943.763	61.39
943.933	76.5
944.102	62.94
944.271	94.71
944.441	133.27
944.61	97.62
944.779	96.45
944.948	182.67
945.117	96.65
945.287	87.15
945.456	54.22
945.625	84.05
945.794	123.58
945.963	51.31
946.132	132.68
946.301	100.91
946.47	145.86
946.639	62.16
946.808	80.18
946.977	138.3
947.146	173.18
947.315	116.22
947.484	121.06
947.653	115.44
947.822	95.68
947.991	96.07
948.16	180.35
948.329	149.73
948.498	99.36
948.666	105.56
948.835	135.4
949.004	72.82
949.173	69.52
949.341	105.56
949.51	144.12
949.679	169.11
949.847	117.96
950.016	173.37
950.185	159.62
950.353	77.47
950.522	101.69
950.69	140.82
950.859	94.71
951.028	158.07
951.196	112.15
951.365	106.92
951.533	100.33
951.701	128.42
951.87	152.06
952.038	75.72
952.207	103.23
952.375	164.27
952.543	89.87
952.712	97.42
952.88	94.9
953.048	179.38
953.217	121.25
953.385	86.77
953.553	146.44
953.721	62.16
953.89	102.46
954.058	70.69
954.226	63.13
954.394	102.07
954.562	61
954.73	103.62
954.898	78.63
955.067	131.52
955.235	93.35
955.403	132.88
955.571	166.01
955.739	123.38
955.907	68.55
956.075	109.43
956.243	66.81
956.41	120.09
956.578	61.19
956.746	68.94
956.914	83.86
957.082	102.27
957.25	108.85
957.418	94.71
957.585	131.52
957.753	161.36
957.921	86.19
958.089	84.05
958.256	129.78
958.424	127.26
958.592	104.4
958.759	103.43
958.927	107.5
959.095	81.34
959.262	104.98
959.43	96.26
959.597	82.89
959.765	106.92
959.932	86.77
960.1	140.24
960.267	138.11
960.435	115.63
960.602	128.03
960.77	67.39
960.937	82.12
961.104	123.97
961.272	73.4
961.439	92.77
961.606	137.53
961.774	128.42
961.941	108.27
962.108	123.58
962.275	121.06
962.443	131.33
962.61	135.2
962.777	194.3
962.944	104.59
963.111	129.78
963.278	130.94
963.446	127.84
963.613	113.7
963.78	120.09
963.947	160.2
964.114	121.45
964.281	212.9
964.448	133.07
964.615	105.95
964.782	129.2
964.949	160.97
965.116	132.3
965.282	169.69
965.449	130.17
965.616	86.38
965.783	135.98
965.95	120.48
966.117	75.72
966.283	129.39
966.45	113.5
966.617	153.42
966.784	157.29
966.95	154.77
967.117	134.82
967.284	106.72
967.45	106.92
967.617	185.38
967.784	130.94
967.95	185
968.117	89.09
968.283	168.14
968.45	220.06
968.616	137.14
968.783	166.2
968.949	134.62
969.116	172.21
969.282	136.17
969.449	160.78
969.615	123.58
969.781	95.87
969.948	116.22
970.114	100.72
970.28	198.95
970.447	126.68
970.613	195.46
970.779	122.03
970.945	152.45
971.112	154.38
971.278	129.97
971.444	135.78
971.61	170.66
971.776	121.06
971.942	174.34
972.108	149.73
972.275	128.62
972.441	131.72
972.607	217.55
972.773	135.78
972.939	164.85
973.105	124.93
973.271	110.98
973.437	89.09
973.602	120.48
973.768	158.45
973.934	128.23
974.1	158.84
974.266	41.62
974.432	126.87
974.598	98.97
974.763	145.67
974.929	100.14
975.095	175.89
975.261	83.67
975.426	67.78
975.592	125.71
975.758	179.38
975.923	45.11
976.089	98.39
976.255	150.32
976.42	105.95
976.586	140.05
976.751	125.9
976.917	185.97
977.082	147.8
977.248	102.46
977.413	54.41
977.579	110.02
977.744	118.15
977.91	85.8
978.075	98.2
978.24	143.15
978.406	125.32
978.571	101.88
978.736	68.36
978.902	128.23
979.067	87.74
979.232	45.89
979.397	105.75
979.563	177.63
979.728	86.57
979.893	110.79
980.058	86.38
980.223	136.17
980.388	137.53
980.554	122.22
980.719	88.7
980.884	92
981.049	134.23
981.214	87.35
981.379	138.5
981.544	106.14
981.709	87.35
981.874	106.72
982.039	104.98
982.204	130.36
982.368	107.69
982.533	93.16
982.698	122.61
982.863	149.15
983.028	69.33
983.193	91.42
983.357	134.82
983.522	94.9
983.687	70.69
983.852	82.89
984.016	69.72
984.181	123
984.346	98.97
984.51	126.48
984.675	103.04
984.839	125.32
985.004	109.24
985.168	134.23
985.333	108.85
985.498	104.59
985.662	102.65
985.827	116.99
985.991	122.61
986.155	85.02
986.32	142.95
986.484	155.35
986.649	109.43
986.813	70.3
986.977	124.74
987.142	105.37
987.306	66.42
987.47	83.28
987.634	92.58
987.799	144.5
987.963	118.35
988.127	135.01
988.291	162.91
988.455	113.5
988.62	56.35
988.784	130.75
988.948	120.67
989.112	89.09
989.276	95.49
989.44	88.32
989.604	72.24
989.768	99.36
989.932	173.18
990.096	58.29
990.26	52.28
990.424	67.97
990.588	84.05
990.752	172.21
990.915	142.18
991.079	56.15
991.243	60.8
991.407	134.23
991.571	86.57
991.734	121.45
991.898	97.81
992.062	193.52
992.226	91.8
992.389	76.69
992.553	3.26
992.717	43.56
992.88	75.92
993.044	99.36
993.207	76.11
993.371	116.22
993.535	93.74
993.698	108.47
993.862	112.92
994.025	120.28
994.189	116.41
994.352	79.21
994.515	128.42
994.679	127.45
994.842	59.45
995.006	143.15
995.169	57.12
995.332	63.71
995.496	106.53
995.659	65.84
995.822	77.27
995.985	86.19
996.149	120.48
996.312	70.69
996.475	170.08
996.638	74.37
996.801	130.55
996.964	133.65
997.128	70.3
997.291	77.27
997.454	93.55
997.617	24.19
997.78	112.53
997.943	59.25
998.106	121.64
998.269	52.09
998.432	82.5
998.595	82.89
998.758	51.31
998.92	30.97
999.083	17.6
999.246	73.01
999.409	40.65
999.572	-4.1
999.735	29.42
999.897	88.32
1000.06	54.02
1000.223	63.52
1000.386	105.95
1000.548	115.05
1000.711	89.29
1000.874	92
1001.036	26.12
1001.199	68.55
1001.361	40.27
1001.524	97.81
1001.687	102.46
1001.849	27.09
1002.012	71.27
1002.174	77.85
1002.337	108.08
1002.499	61.19
1002.661	122.61
1002.824	37.94
1002.986	41.82
1003.149	63.9
1003.311	35.04
1003.473	111.18
1003.636	63.13
1003.798	96.07
1003.96	66.42
1004.123	74.95
1004.285	52.86
1004.447	63.52
1004.609	57.51
1004.771	133.07
1004.933	4.42
1005.096	65.45
1005.258	7.52
1005.42	58.48
1005.582	112.15
1005.744	64.87
1005.906	-2.36
1006.068	48.4
1006.23	37.36
1006.392	11.98
1006.554	24.38
1006.716	83.47
1006.878	73.79
1007.04	5.78
1007.202	36
1007.363	55.96
1007.525	62.55
1007.687	56.35
1007.849	104.78
1008.011	11.01
1008.172	18.95
1008.334	54.22
1008.496	71.46
1008.658	0.94
1008.819	50.34
1008.981	21.09
1009.143	25.74
1009.304	25.93
1009.466	69.33
1009.627	96.65
1009.789	160.78
1009.95	68.17
1010.112	30.58
1010.273	58.09
1010.435	8.69
1010.596	51.12
1010.758	38.91
1010.919	36.78
1011.081	8.3
1011.242	53.64
1011.403	71.27
1011.565	42.2
1011.726	69.52
1011.887	30.77
1012.049	46.47
1012.21	87.35
1012.371	135.2
1012.532	-29.87
1012.693	53.05
1012.855	30.58
1013.016	61.39
1013.177	87.54
1013.338	61.58
1013.499	115.05
1013.66	68.36
1013.821	48.4
1013.982	70.69
1014.143	59.25
1014.304	38.52
1014.465	61.77
1014.626	57.9
1014.787	28.25
1014.948	111.18
1015.109	-7.98
1015.27	60.8
1015.431	17.99
1015.592	39.49
1015.752	80.18
1015.913	47.44
1016.074	54.99
1016.235	59.45
1016.395	52.67
1016.556	27.29
1016.717	58.09
1016.877	78.24
1017.038	12.95
1017.199	52.47
1017.359	44.14
1017.52	54.02
1017.681	1.71
1017.841	57.12
1018.002	-1.19
1018.162	16.05
1018.323	97.04
1018.483	37.75
1018.644	29.42
1018.804	-34.52
1018.964	15.66
1019.125	16.82
1019.285	68.17
1019.446	4.23
1019.606	-8.56
1019.766	-13.01
1019.926	53.25
1020.087	74.56
1020.247	10.24
1020.407	63.13
1020.567	56.54
1020.728	7.91
1020.888	-6.62
1021.048	20.12
1021.208	-8.94
1021.368	-4.1
1021.528	84.25
1021.688	80.57
1021.848	58.87
1022.008	55.57
1022.168	-9.14
1022.328	40.46
1022.488	67
1022.648	7.52
1022.808	42.2
1022.968	48.99
1023.128	-2.55
1023.288	1.32
1023.448	52.09
1023.608	45.89
1023.767	46.47
1023.927	4.81
1024.087	-4.1
1024.247	-23.28
1024.406	9.27
1024.566	4.23
1024.726	-5.65
1024.885	22.25
1025.045	75.34
1025.205	26.32
1025.364	24.19
1025.524	21.28
1025.683	28.45
1025.843	11.4
1026.003	42.4
1026.162	91.03
1026.321	56.74
1026.481	57.51
1026.64	-20.18
1026.8	31.94
1026.959	33.29
1027.119	45.3
1027.278	12.56
1027.437	-25.61
1027.597	47.24
1027.756	31.74
1027.915	38.91
1028.074	41.62
1028.234	16.44
1028.393	43.17
1028.552	22.64
1028.711	-52.93
1028.87	33.68
1029.03	-30.84
1029.189	19.54
1029.348	-25.61
1029.507	-0.61
1029.666	3.65
1029.825	14.31
1029.984	-19.02
1030.143	32.13
1030.302	41.43
1030.461	-51.76
1030.62	27.48
1030.779	51.89
1030.938	-18.63
1031.097	-4.29
1031.255	43.56
1031.414	66.04
1031.573	65.65
1031.732	-26.19
1031.891	23.99
1032.049	43.37
1032.208	45.69
1032.367	-0.23
1032.525	25.54
1032.684	16.24
1032.843	22.05
1033.001	-19.41
1033.16	163.49
1033.319	95.29
1033.477	78.05
1033.636	-17.28
1033.794	-38.39
1033.953	34.26
1034.111	51.89
1034.27	4.23
1034.428	13.34
1034.587	-20.96
1034.745	39.3
1034.903	5.2
1035.062	43.56
1035.22	-37.23
1035.378	46.27
1035.537	-10.3
1035.695	38.91
1035.853	9.07
1036.011	26.7
1036.17	43.75
1036.328	-54.09
1036.486	16.63
1036.644	20.89
1036.802	-75.21
1036.96	-5.26
1037.119	22.64
1037.277	-22.12
1037.435	-20.96
1037.593	-11.08
1037.751	1.91
1037.909	48.4
1038.067	48.4
