Data from gum_old_FLMT105791__184__15-48-11-249.txt Node

Date: Mon Mar 20 15:48:11 GMT 2023
User: antho
Spectrometer: FLMT10579
Trigger mode: 0
Integration Time (sec): 1.000000E-1
Scans to average: 10
Electric dark correction enabled: true
Nonlinearity correction enabled: false
Boxcar width: 0
XAxis mode: Wavelengths
Number of Pixels in Spectrum: 3648
>>>>>Begin Spectral Data<<<<<
345.248	-165.25
345.464	-165.25
345.681	-165.25
345.898	-184.82
346.114	-178.04
346.331	-33.31
346.548	19.39
346.764	9.9
346.981	-21.88
347.197	-9.48
347.414	33.92
347.631	-19.94
347.847	68.8
348.064	10.87
348.28	20.17
348.497	-57.53
348.713	-20.91
348.93	43.42
349.146	30.82
349.363	37.41
349.579	19.97
349.796	26.56
350.012	22.68
350.229	45.93
350.445	37.02
350.661	5.83
350.878	7.96
351.094	68.99
351.311	27.33
351.527	45.55
351.743	13.58
351.96	63.18
352.176	61.43
352.392	46.71
352.609	44.38
352.825	3.12
353.041	15.9
353.257	-3.67
353.474	18.81
353.69	45.16
353.906	33.15
354.122	17.84
354.339	92.63
354.555	48.26
354.771	31.21
354.987	93.21
355.203	117.23
355.42	29.85
355.636	21.91
355.852	17.45
356.068	33.73
356.284	-7.93
356.5	91.27
356.716	55.04
356.932	33.92
357.148	46.52
357.364	22.1
357.58	70.54
357.796	70.15
358.012	87.78
358.228	50.78
358.444	-25.95
358.66	86.62
358.876	66.28
359.092	2.34
359.308	36.63
359.524	54.65
359.74	45.74
359.956	18.03
360.172	34.89
360.388	68.41
360.604	32.95
360.819	138.93
361.035	51.36
361.251	94.56
361.467	17.26
361.683	80.03
361.898	47.29
362.114	90.5
362.33	39.54
362.546	81.97
362.762	56.98
362.977	55.23
363.193	-8.7
363.409	64.53
363.624	22.68
363.84	-0.57
364.056	37.02
364.271	83.13
364.487	30.43
364.703	38.18
364.918	12.61
365.134	37.6
365.35	34.12
365.565	170.13
365.781	73.45
365.996	92.05
366.212	124.98
366.427	50.97
366.643	50.2
366.858	45.55
367.074	33.73
367.289	101.93
367.505	159.28
367.72	13.97
367.936	40.12
368.151	94.18
368.367	73.06
368.582	64.15
368.798	33.53
369.013	119.95
369.228	59.88
369.444	90.5
369.659	98.25
369.874	69.38
370.09	105.03
370.305	3.12
370.52	43.8
370.736	115.1
370.951	80.61
371.166	108.71
371.381	116.46
371.597	91.27
371.812	34.12
372.027	44.97
372.242	73.25
372.458	151.33
372.673	55.04
372.888	42.06
373.103	103.86
373.318	157.53
373.533	84.88
373.749	83.52
373.964	-7.15
374.179	130.02
374.394	45.16
374.609	121.3
374.824	-3.86
375.039	103.48
375.254	28.5
375.469	110.65
375.684	93.21
375.899	143
376.114	95.73
376.329	106.96
376.544	126.73
376.759	104.64
376.974	45.35
377.189	68.99
377.404	56.01
377.619	99.99
377.834	22.88
378.049	35.67
378.264	63.57
378.478	78.68
378.693	75.77
378.908	129.83
379.123	74.61
379.338	116.65
379.553	97.28
379.767	107.35
379.982	117.81
380.197	130.99
380.412	50
380.626	108.13
380.841	176.71
381.056	107.74
381.271	172.64
381.485	57.56
381.7	75
381.915	83.13
382.129	66.28
382.344	90.11
382.559	81.97
382.773	99.21
382.988	0.21
383.202	87.78
383.417	28.69
383.632	172.26
383.846	75.97
384.061	102.7
384.275	52.52
384.49	87.2
384.704	99.41
384.919	82.75
385.133	89.72
385.348	154.05
385.562	72.67
385.777	161.8
385.991	76.74
386.206	62.4
386.42	95.73
386.634	137
386.849	122.85
387.063	120.72
387.277	87.4
387.492	80.03
387.706	40.51
387.92	94.37
388.135	139.32
388.349	104.45
388.563	105.41
388.778	126.92
388.992	119.95
389.206	124.98
389.42	210.43
389.635	137
389.849	152.3
390.063	168.38
390.277	122.66
390.491	180.78
390.706	128.28
390.92	168.58
391.134	137.58
391.348	183.3
391.562	88.95
391.776	125.56
391.99	120.72
392.205	168.19
392.419	125.37
392.633	126.15
392.847	174.58
393.061	115.3
393.275	181.36
393.489	94.76
393.703	124.21
393.917	132.15
394.131	77.13
394.345	121.5
394.559	165.86
394.773	96.11
394.986	174.19
395.2	109.29
395.414	172.84
395.628	117.43
395.842	170.9
396.056	136.61
396.27	81.78
396.484	149.4
396.697	146.1
396.911	179.81
397.125	139.9
397.339	157.92
397.553	134.86
397.766	188.92
397.98	160.44
398.194	173.42
398.408	150.56
398.621	214.49
398.835	217.4
399.049	207.52
399.262	253.63
399.476	245.11
399.69	219.53
399.903	273.39
400.117	198.61
400.331	219.73
400.544	192.02
400.758	334.81
400.971	214.88
401.185	243.36
401.398	217.01
401.612	288.89
401.826	257.7
402.039	272.81
402.253	238.52
402.466	270.87
402.68	268.55
402.893	272.42
403.106	280.76
403.32	239.1
403.533	267.77
403.747	243.17
403.96	269.52
404.174	283.27
404.387	195.89
404.6	238.52
404.814	312.53
405.027	246.08
405.24	240.46
405.454	254.21
405.667	313.5
405.88	215.46
406.094	277.66
406.307	282.31
406.52	260.22
406.733	226.51
406.947	212.56
407.16	338.88
407.373	314.47
407.586	242.2
407.799	228.25
408.012	296.64
408.226	249.76
408.439	330.36
408.652	218.56
408.865	329.97
409.078	376.08
409.291	310.98
409.504	258.86
409.717	310.4
409.93	307.49
410.143	311.56
410.357	232.32
410.57	195.31
410.783	261.96
410.996	301.49
411.209	284.44
411.421	334.23
411.634	329.97
411.847	293.93
412.06	314.08
412.273	339.46
412.486	334.04
412.699	419.09
412.912	329
413.125	345.27
413.338	343.72
413.55	367.17
413.763	308.27
413.976	330.55
414.189	303.04
414.402	316.99
414.615	397
414.827	294.32
415.04	376.27
415.253	345.66
415.466	358.25
415.678	416.96
415.891	353.99
416.104	356.51
416.316	360
416.529	327.84
416.742	378.79
416.954	443.7
417.167	374.72
417.38	377.24
417.592	369.88
417.805	343.14
418.017	305.36
418.23	377.05
418.442	319.7
418.655	356.7
418.868	379.76
419.08	402.62
419.293	404.56
419.505	395.65
419.718	392.74
419.93	411.54
420.142	362.52
420.355	417.15
420.567	390.22
420.78	381.31
420.992	385.77
421.205	422.77
421.417	318.54
421.629	391.19
421.842	348.18
422.054	331.13
422.266	440.6
422.479	445.25
422.691	388.29
422.903	407.66
423.115	375.5
423.328	374.72
423.54	401.27
423.752	386.54
423.964	383.64
424.177	381.12
424.389	362.32
424.601	536.5
424.813	427.42
425.025	437.3
425.238	414.05
425.45	386.74
425.662	381.5
425.874	756.99
426.086	424.13
426.298	431.1
426.51	411.15
426.722	409.21
426.934	374.72
427.146	442.92
427.358	378.21
427.57	471.79
427.782	414.05
427.994	402.43
428.206	368.14
428.418	369.69
428.63	446.6
428.842	493.49
429.054	410.37
429.266	437.5
429.478	393.32
429.69	432.85
429.902	347.02
430.114	418.7
430.325	400.49
430.537	356.32
430.749	347.6
430.961	288.51
431.173	363.87
431.384	390.22
431.596	289.47
431.808	366.39
432.02	418.32
432.231	483.22
432.443	525.07
432.655	462.68
432.867	413.47
433.078	481.67
433.29	555.1
433.502	496.01
433.713	519.84
433.925	508.8
434.136	543.67
434.348	432.65
434.56	405.72
434.771	551.42
434.983	394.49
435.194	451.25
435.406	466.56
435.617	546.96
435.829	591.33
436.04	539.99
436.252	561.5
436.463	557.62
436.675	573.51
436.886	564.79
437.098	568.08
437.309	649.07
437.521	557.43
437.732	572.54
437.943	568.86
438.155	539.6
438.366	492.52
438.578	628.14
438.789	562.85
439	540.38
439.211	531.85
439.423	564.01
439.634	558.01
439.845	609.93
440.057	586.88
440.268	611.48
440.479	548.32
440.69	597.15
440.902	578.16
441.113	575.25
441.324	566.53
441.535	606.83
441.746	694.99
441.957	560.91
442.168	603.93
442.38	637.44
442.591	644.61
442.802	589.2
443.013	625.82
443.224	655.85
443.435	611.29
443.646	603.73
443.857	624.27
444.068	607.8
444.279	618.07
444.49	715.72
444.701	655.85
444.912	776.75
445.123	684.53
445.334	685.88
445.545	693.05
445.756	642.87
445.967	632.21
446.178	655.46
446.388	646.55
446.599	645.19
446.81	683.17
447.021	671.54
447.232	674.45
447.443	696.92
447.653	663.21
447.864	732.19
448.075	691.89
448.286	739.55
448.496	693.24
448.707	763.96
448.918	653.91
449.129	801.16
449.339	677.16
449.55	727.73
449.761	668.83
449.971	749.43
450.182	705.45
450.393	745.94
450.603	693.63
450.814	769
451.024	756.79
451.235	774.23
451.446	854.83
451.656	825.77
451.867	705.64
452.077	711.07
452.288	826.15
452.498	799.61
452.709	732.19
452.919	770.16
453.13	715.33
453.34	755.44
453.55	679.49
453.761	725.79
453.971	737.22
454.182	789.34
454.392	769.97
454.602	849.4
454.813	771.52
455.023	761.64
455.233	729.09
455.444	748.46
455.654	710.87
455.864	719.01
456.075	773.07
456.285	743.04
456.495	754.27
456.705	768.61
456.916	820.15
457.126	858.7
457.336	778.49
457.546	725.79
457.756	731.61
457.967	821.31
458.177	755.44
458.387	808.91
458.597	719.79
458.807	771.13
459.017	731.41
459.227	752.53
459.437	750.79
459.647	793.6
459.857	800.58
460.068	750.21
460.278	802.32
460.488	803.87
460.698	845.92
460.908	781.79
461.117	759.31
461.327	803.68
461.537	851.15
461.747	825.38
461.957	830.03
462.167	940.08
462.377	858.12
462.587	851.73
462.797	875.75
463.007	832.74
463.216	885.25
463.426	920.7
463.636	890.28
463.846	811.82
464.056	790.12
464.265	853.67
464.475	801.16
464.685	868.39
464.895	826.54
465.104	812.2
465.314	864.32
465.524	825.57
465.733	815.5
465.943	910.43
466.153	916.63
466.362	905.59
466.572	878.66
466.782	852.5
466.991	869.55
467.201	925.16
467.41	773.26
467.62	855.6
467.829	854.05
468.039	900.36
468.249	886.6
468.458	901.33
468.668	934.07
468.877	931.17
469.086	967.59
469.296	947.25
469.505	910.05
469.715	988.13
469.924	958.29
470.134	988.13
470.343	961.39
470.552	922.06
470.762	913.92
470.971	930
471.18	949.57
471.39	931.55
471.599	908.88
471.808	987.55
472.018	913.73
472.227	1035.21
472.436	1024.16
472.645	1003.82
472.855	988.32
473.064	1035.98
473.273	1039.86
473.482	1049.93
473.691	1102.63
473.901	1075.51
474.11	998.59
474.319	1139.44
474.528	1035.01
474.737	1124.91
474.946	1062.72
475.155	1088.1
475.364	1144.29
475.573	1119.29
475.783	1082.48
475.992	1126.85
476.201	1137.7
476.41	1076.67
476.619	1096.82
476.828	1107.67
477.037	1103.21
477.245	1115.61
477.454	1146.42
477.663	1158.62
477.872	1142.54
478.081	1237.09
478.29	1177.42
478.499	1268.48
478.708	1230.7
478.917	1256.85
479.125	1212.49
479.334	1206.09
479.543	1211.91
479.752	1249.49
479.961	1263.44
480.169	1337.45
480.378	1269.45
480.587	1410.3
480.796	1293.47
481.004	1272.35
481.213	1352.37
481.422	1292.7
481.63	1338.03
481.839	1337.26
482.048	1390.93
482.256	1353.73
482.465	1380.66
482.674	1381.63
482.882	1413.98
483.091	1461.45
483.299	1369.81
483.508	1426.58
483.716	1408.56
483.925	1461.26
484.134	1375.82
484.342	1408.56
484.551	1453.31
484.759	1406.04
484.967	1434.91
485.176	1440.91
485.384	1457.77
485.593	1467.46
485.801	1420.96
486.01	1367.68
486.218	1308.2
486.426	1218.49
486.635	1241.55
486.843	1235.74
487.051	1278.17
487.26	1297.15
487.468	1331.83
487.676	1396.55
487.885	1344.62
488.093	1404.68
488.301	1443.82
488.509	1442.85
488.717	1487.41
488.926	1463
489.134	1482.57
489.342	1473.85
489.55	1466.1
489.758	1502.53
489.967	1483.34
490.175	1629.62
490.383	1562.39
490.591	1650.36
490.799	1575.37
491.007	1629.04
491.215	1593.01
491.423	1584.29
491.631	1599.01
491.839	1549.61
492.047	1610.64
492.255	1528.68
492.463	1502.33
492.671	1513.38
492.879	1571.5
493.087	1568.98
493.295	1631.37
493.503	1616.26
493.711	1692.59
493.919	1673.02
494.127	1698.6
494.334	1679.03
494.542	1598.04
494.75	1659.07
494.958	1662.37
495.166	1731.15
495.374	1710.61
495.581	1703.25
495.789	1733.09
495.997	1750.91
496.205	1651.91
496.412	1708.29
496.62	1700.15
496.828	1672.44
497.035	1705.57
497.243	1709.06
497.451	1746.07
497.658	1755.56
497.866	1744.9
498.074	1816.59
498.281	1731.15
498.489	1816.2
498.696	1742.58
498.904	1673.8
499.112	1703.44
499.319	1769.51
499.527	1710.22
499.734	1803.8
499.942	1749.36
500.149	1746.45
500.357	1778.03
500.564	1721.85
500.771	1718.55
500.979	1697.82
501.186	1707.12
501.394	1761.37
501.601	1703.64
501.808	1733.86
502.016	1698.99
502.223	1698.6
502.43	1733.67
502.638	1729.21
502.845	1714.49
503.052	1857.47
503.26	1745.48
503.467	1864.06
503.674	1808.65
503.881	1821.63
504.089	1905.91
504.296	1825.7
504.503	1714.49
504.71	1749.94
504.917	1761.18
505.125	1797.02
505.332	1815.62
505.539	1819.88
505.746	1921.79
505.953	1874.71
506.16	1922.57
506.367	1936.13
506.574	1988.06
506.781	1967.91
506.988	1881.69
507.195	1918.69
507.402	1896.22
507.609	1947.95
507.816	1828.41
508.023	1866.38
508.23	1876.07
508.437	1824.34
508.644	1887.7
508.851	1943.11
509.058	1914.63
509.265	1924.31
509.472	1950.28
509.679	2044.24
509.885	1966.94
510.092	1977.4
510.299	1957.44
510.506	1923.93
510.713	1948.92
510.92	1967.52
511.126	1964.23
511.333	2032.62
511.54	2015.76
511.746	2047.34
511.953	2057.03
512.16	2076.79
512.367	1998.91
512.573	1999.29
512.78	2015.37
512.987	1996.78
513.193	2007.04
513.4	1890.02
513.606	1989.99
513.813	2043.27
514.02	1994.84
514.226	2019.25
514.433	2016.34
514.639	1975.27
514.846	2011.69
515.052	1974.88
515.259	1974.3
515.465	1979.92
515.672	1990.38
515.878	2113.22
516.085	2058.39
516.291	2075.05
516.497	2060.91
516.704	1999.1
516.91	1958.22
517.117	1892.73
517.323	1806.52
517.529	1840.61
517.736	1817.95
517.942	1836.74
518.148	1877.04
518.354	1909.2
518.561	1920.44
518.767	1937.88
518.973	2011.5
519.179	1996.39
519.386	1982.44
519.592	1964.03
519.798	2027.77
520.004	2115.15
520.21	2053.16
520.417	2135.11
520.623	2176.57
520.829	2182.38
521.035	2193.04
521.241	2155.45
521.447	2226.56
521.653	2296.5
521.859	2198.47
522.065	2250.58
522.271	2336.8
522.477	2279.06
522.683	2308.13
522.889	2289.72
523.095	2262.4
523.301	2244.97
523.507	2208.93
523.713	2258.92
523.919	2222.88
524.125	2311.81
524.331	2324.79
524.537	2429.99
524.742	2415.85
524.948	2415.85
525.154	2413.33
525.36	2484.63
525.566	2397.83
525.772	2476.11
525.977	2366.25
526.183	2398.8
526.389	2480.17
526.595	2384.85
526.8	2368.96
527.006	2284.88
527.212	2206.41
527.417	2169.21
527.623	2176.77
527.829	2262.4
528.034	2301.73
528.24	2315.1
528.446	2339.9
528.651	2429.61
528.857	2487.15
529.062	2499.36
529.268	2523.77
529.473	2534.04
529.679	2539.07
529.884	2612.89
530.09	2599.33
530.295	2564.65
530.501	2569.88
530.706	2572.98
530.912	2513.31
531.117	2569.69
531.323	2580.92
531.528	2623.55
531.733	2654.74
531.939	2646.22
532.144	2643.31
532.35	2636.92
532.555	2639.05
532.76	2620.45
532.966	2633.62
533.171	2560.39
533.376	2495.29
533.581	2474.17
533.787	2537.91
533.992	2598.36
534.197	2593.52
534.402	2595.26
534.607	2638.85
534.813	2733.6
535.018	2644.47
535.223	2655.71
535.428	2646.22
535.633	2702.4
535.838	2703.18
536.043	2712.09
536.249	2826.79
536.454	2734.95
536.659	2751.03
536.864	2726.62
537.069	2700.08
537.274	2680.51
537.479	2683.42
537.684	2647.18
537.889	2618.9
538.094	2811.29
538.299	2691.36
538.504	2717.32
538.708	2744.83
538.913	2757.62
539.118	2779.9
539.323	2750.06
539.528	2675.08
539.733	2748.51
539.938	2738.44
540.142	2727.59
540.347	2680.32
540.552	2652.22
540.757	2638.66
540.962	2664.62
541.166	2571.82
541.371	2593.9
541.576	2636.72
541.781	2575.11
541.985	2700.47
542.19	2675.28
542.395	2787.07
542.599	2792.88
542.804	2755.3
543.008	2820.39
543.213	2724.49
543.418	2697.17
543.622	2755.49
543.827	2682.25
544.031	2775.06
544.236	2792.88
544.44	2801.79
544.645	2887.62
544.849	2777
545.054	2855.85
545.258	2919.4
545.463	2877.94
545.667	2763.63
545.872	2850.04
546.076	2821.17
546.281	2835.31
546.485	2789.78
546.689	2891.11
546.894	2846.36
547.098	2820.98
547.302	2722.16
547.507	2833.57
547.711	2850.81
547.915	2877.36
548.119	2788.04
548.324	2809.16
548.528	2890.92
548.732	2771.38
548.936	2850.81
549.141	2845.78
549.345	2805.28
549.549	2858.18
549.753	2862.63
549.957	2896.15
550.161	2904.09
550.366	2897.51
550.57	2849.26
550.774	2844.03
550.978	2841.13
551.182	2874.06
551.386	2808.58
551.59	2834.54
551.794	2801.41
551.998	2896.73
552.202	2823.11
552.406	2808.96
552.61	2843.84
552.814	2926.76
553.018	2925.79
553.222	2792.88
553.426	2814.39
553.63	2939.16
553.833	2828.73
554.037	2804.89
554.241	2853.91
554.445	2850.81
554.649	2838.03
554.853	2818.84
555.056	2894.02
555.26	2900.22
555.464	2893.82
555.668	2906.81
555.871	2855.46
556.075	2893.24
556.279	2869.03
556.483	2793.08
556.686	2786.88
556.89	2830.66
557.094	2810.51
557.297	2734.95
557.501	2808.19
557.704	2691.55
557.908	2794.04
558.112	2749.68
558.315	2833.38
558.519	2785.71
558.722	2756.85
558.926	2713.83
559.129	2689.23
559.333	2682.64
559.536	2647.38
559.74	2640.4
559.943	2640.79
560.147	2635.95
560.35	2644.67
560.553	2659
560.757	2614.44
560.96	2718.48
561.164	2699.69
561.367	2758.01
561.57	2719.65
561.774	2703.76
561.977	2656.87
562.18	2653.38
562.384	2729.14
562.587	2639.05
562.79	2634.4
562.993	2651.25
563.197	2666.37
563.4	2734.18
563.603	2717.71
563.806	2769.05
564.009	2671.79
564.212	2649.12
564.416	2580.92
564.619	2644.67
564.822	2563.87
565.025	2651.83
565.228	2574.53
565.431	2603.59
565.634	2551.86
565.837	2590.03
566.04	2521.25
566.243	2520.28
566.446	2422.44
566.649	2556.51
566.852	2435.03
567.055	2516.99
567.258	2530.55
567.461	2605.34
567.664	2597.39
567.867	2504.01
568.07	2564.45
568.273	2547.99
568.475	2566.97
568.678	2498
568.881	2488.51
569.084	2473.2
569.287	2383.69
569.489	2437.55
569.692	2482.89
569.895	2489.67
570.098	2363.93
570.3	2398.8
570.503	2329.63
570.706	2353.27
570.909	2371.87
571.111	2318.59
571.314	2272.09
571.516	2320.53
571.719	2363.15
571.922	2298.63
572.124	2352.11
572.327	2318.4
572.529	2288.17
572.732	2283.91
572.935	2346.3
573.137	2407.91
573.34	2338.16
573.542	2439.87
573.745	2385.24
573.947	2351.72
574.15	2361.6
574.352	2319.95
574.554	2413.14
574.757	2303.48
574.959	2283.71
575.162	2281.58
575.364	2261.82
575.566	2366.06
575.769	2229.66
575.971	2313.36
576.173	2140.73
576.376	2233.92
576.578	2279.26
576.78	2331.96
576.982	2130.65
577.185	2232.57
577.387	2175.99
577.589	2189.94
577.791	2255.43
577.993	2240.12
578.196	2219.58
578.398	2229.47
578.6	2229.85
578.802	2153.32
579.004	2164.17
579.206	2158.55
579.408	2186.65
579.61	2132.01
579.812	2207.57
580.014	2175.8
580.216	2167.85
580.418	2150.03
580.62	2170.76
580.822	2107.02
581.024	2145.38
581.226	2193.23
581.428	2131.24
581.63	2272.28
581.832	2133.17
582.034	2255.82
582.236	2112.44
582.438	2197.11
582.64	2188.2
582.841	2265.89
583.043	2282.75
583.245	2190.33
583.447	2223.46
583.649	2226.75
583.85	2169.79
584.052	2164.37
584.254	2136.66
584.456	2221.72
584.657	2109.92
584.859	2191.68
585.061	2142.67
585.262	2158.94
585.464	2073.31
585.666	2161.65
585.867	2101.4
586.069	2139.37
586.27	2100.82
586.472	2133.95
586.674	2058.77
586.875	2093.07
587.077	2063.42
587.278	2124.84
587.48	2103.92
587.681	2192.85
587.883	2106.05
588.084	2038.24
588.285	2061.29
588.487	2011.89
588.688	2088.61
588.89	1976.04
589.091	1956.09
589.292	1942.72
589.494	1891.96
589.695	1831.31
589.896	1762.34
590.098	1776.48
590.299	1832.48
590.5	1800.7
590.702	1853.98
590.903	1877.62
591.104	1975.66
591.305	1958.61
591.507	2012.08
591.708	1954.93
591.909	1922.18
592.11	1997.36
592.311	2008.01
592.512	1920.83
592.714	1885.18
592.915	1904.36
593.116	1907.07
593.317	1952.41
593.518	1955.12
593.719	1943.69
593.92	1962.87
594.121	1960.93
594.322	1965.39
594.523	1932.26
594.724	1884.21
594.925	1937.68
595.126	1933.03
595.327	1933.23
595.528	1914.63
595.729	1947.37
595.929	1927.22
596.13	1938.65
596.331	1919.08
596.532	1939.62
596.733	2005.11
596.934	1980.89
597.135	1986.31
597.335	1956.48
597.536	1892.93
597.737	1949.5
597.938	1871.81
598.138	1925.48
598.339	1913.66
598.54	1931.87
598.74	1893.51
598.941	1949.69
599.142	1969.46
599.342	1943.3
599.543	1882.27
599.744	1904.16
599.944	1917.73
600.145	1907.07
600.345	1897.58
600.546	1948.14
600.746	1994.64
600.947	1996.97
601.147	1891.38
601.348	1930.9
601.548	1903.78
601.749	1910.36
601.949	1824.92
602.15	1874.91
602.35	1830.15
602.551	1936.52
602.751	1830.54
602.951	1854.76
603.152	1786.75
603.352	1900.48
603.552	1878.01
603.753	1930.51
603.953	1908.62
604.153	1899.13
604.354	1894.28
604.554	1869.1
604.754	1902.42
604.954	1866.58
605.155	1864.06
605.355	1884.01
605.555	1922.76
605.755	1944.46
605.955	1881.3
606.155	1923.73
606.356	1865.03
606.556	1912.69
606.756	1867.55
606.956	1820.27
607.156	1921.99
607.356	1824.73
607.556	1864.25
607.756	1866.19
607.956	1934.19
608.156	1889.63
608.356	1815.23
608.556	1866.58
608.756	1833.64
608.956	1800.9
609.156	1848.36
609.356	1798.38
609.556	1774.93
609.755	1841.39
609.955	1771.06
610.155	1822.4
610.355	1866.38
610.555	1776.29
610.755	1810.2
610.954	1744.71
611.154	1776.48
611.354	1839.84
611.554	1717.2
611.753	1742.58
611.953	1733.67
612.153	1783.46
612.352	1780.55
612.552	1723.98
612.752	1679.42
612.951	1726.3
613.151	1755.37
613.351	1689.3
613.55	1732.7
613.75	1782.68
613.949	1718.36
614.149	1748.97
614.348	1738.32
614.548	1696.85
614.747	1650.36
614.947	1673.6
615.146	1621.68
615.346	1719.52
615.545	1698.79
615.745	1729.79
615.944	1748.58
616.144	1684.84
616.343	1696.66
616.542	1687.75
616.742	1642.41
616.941	1641.25
617.14	1582.93
617.34	1678.45
617.539	1652.87
617.738	1642.61
617.938	1728.24
618.137	1655.78
618.336	1604.82
618.535	1655.59
618.734	1641.83
618.934	1704.6
619.133	1653.07
619.332	1687.75
619.531	1609.86
619.73	1673.22
619.929	1695.89
620.128	1661.4
620.328	1695.5
620.527	1623.42
620.726	1630.21
620.925	1677.29
621.124	1645.71
621.323	1639.31
621.522	1602.31
621.721	1601.34
621.92	1567.24
622.119	1630.4
622.318	1568.59
622.517	1595.33
622.715	1596.11
622.914	1542.63
623.113	1575.76
623.312	1517.06
623.511	1581.77
623.71	1546.12
623.909	1575.57
624.107	1628.46
624.306	1534.69
624.505	1520.74
624.704	1551.16
624.902	1502.14
625.101	1624.78
625.3	1557.55
625.499	1498.07
625.697	1535.66
625.896	1488.38
626.095	1515.89
626.293	1460.29
626.492	1499.23
626.69	1571.69
626.889	1518.22
627.088	1539.53
627.286	1491.29
627.485	1470.56
627.683	1476.18
627.882	1526.55
628.08	1427.16
628.279	1494
628.477	1576.73
628.676	1472.5
628.874	1529.07
629.073	1448.86
629.271	1451.38
629.469	1487.22
629.668	1462.81
629.866	1463.97
630.065	1436.26
630.263	1519.38
630.461	1429.68
630.66	1447.7
630.858	1480.83
631.056	1521.51
631.254	1517.83
631.453	1412.63
631.651	1478.31
631.849	1460.29
632.047	1460.1
632.245	1436.26
632.444	1476.56
632.642	1484.7
632.84	1479.47
633.038	1445.18
633.236	1410.5
633.434	1456.8
633.632	1388.8
633.83	1422.7
634.028	1482.38
634.227	1438.4
634.425	1553.48
634.623	1433.16
634.821	1451.96
635.019	1481.41
635.216	1406.23
635.414	1502.53
635.612	1440.91
635.81	1451.76
636.008	1481.79
636.206	1423.67
636.404	1439.95
636.602	1382.98
636.8	1465.71
636.997	1474.82
637.195	1439.95
637.393	1441.69
637.591	1498.84
637.789	1449.25
637.986	1420.96
638.184	1437.62
638.382	1504.46
638.58	1478.89
638.777	1529.07
638.975	1425.8
639.173	1458.74
639.37	1457.96
639.568	1440.72
639.765	1474.05
639.963	1403.91
640.161	1482.57
640.358	1473.27
640.556	1373.3
640.753	1379.88
640.951	1384.34
641.148	1401.58
641.346	1378.14
641.543	1397.9
641.741	1412.24
641.938	1353.34
642.136	1357.6
642.333	1340.75
642.531	1385.12
642.728	1436.85
642.925	1386.86
643.123	1359.54
643.32	1374.27
643.517	1361.87
643.715	1352.37
643.912	1363.22
644.109	1358.18
644.306	1378.72
644.504	1349.08
644.701	1342.88
644.898	1395.96
645.095	1325.05
645.293	1341.13
645.49	1357.99
645.687	1351.21
645.884	1374.65
646.081	1288.44
646.278	1302.58
646.475	1330.09
646.672	1309.36
646.87	1342.88
647.067	1332.61
647.264	1327.38
647.461	1264.99
647.658	1256.66
647.855	1283.4
648.052	1269.84
648.249	1207.84
648.446	1260.92
648.642	1265.38
648.839	1221.4
649.036	1231.09
649.233	1244.26
649.43	1185.94
649.627	1202.02
649.824	1213.07
650.021	1219.85
650.217	1206.29
650.414	1225.27
650.611	1226.44
650.808	1249.49
651.004	1235.93
651.201	1277.39
651.398	1312.85
651.595	1232.25
651.791	1205.71
651.988	1274.29
652.185	1175.67
652.381	1264.41
652.578	1197.18
652.775	1233.99
652.971	1244.65
653.168	1221.59
653.364	1231.28
653.561	1183.04
653.757	1224.89
653.954	1202.61
654.15	1200.47
654.347	1298.51
654.543	1225.85
654.74	1145.06
654.936	1137.51
655.133	1217.91
655.329	1210.94
655.525	1184.97
655.722	1215.97
655.918	1126.46
656.115	1157.27
656.311	1060.59
656.507	1052.64
656.704	995.1
656.9	1015.45
657.096	1017.96
657.292	1024.36
657.489	1082.48
657.685	1089.07
657.881	1100.31
658.077	1062.14
658.273	1114.26
658.47	1206.48
658.666	1146.42
658.862	1175.09
659.058	1104.96
659.254	1173.74
659.45	1124.53
659.646	1143.32
659.842	1149.32
660.038	1215.39
660.234	1123.17
660.43	1156.3
660.626	1205.32
660.822	1196.6
661.018	1181.49
661.214	1151.65
661.41	1101.66
661.606	1157.85
661.802	1173.16
661.998	1163.27
662.194	1135.57
662.39	1161.34
662.586	1163.08
662.781	1176.64
662.977	1185.36
663.173	1170.83
663.369	1140.99
663.564	1165.99
663.76	1181.1
663.956	1153.01
664.152	1187.11
664.347	1081.9
664.543	1115.81
664.739	1124.72
664.934	1056.13
665.13	1067.56
665.326	1155.72
665.521	1143.51
665.717	1071.63
665.912	1082.09
666.108	1017.58
666.304	1077.06
666.499	1096.63
666.695	997.81
666.89	1052.45
667.086	1123.17
667.281	1114.64
667.477	1172.38
667.672	1118.91
667.867	1101.47
668.063	1088.49
668.258	1018.93
668.454	1072.99
668.649	1135.57
668.844	1082.48
669.04	1114.64
669.235	1100.5
669.43	1076.86
669.626	1013.51
669.821	1043.93
670.016	1052.06
670.211	1092.56
670.407	1019.32
670.602	1084.03
670.797	1035.79
670.992	1070.08
671.187	1000.53
671.382	1075.31
671.578	1014.09
671.773	1044.31
671.968	985.22
672.163	1025.91
672.358	1036.56
672.553	997.23
672.748	1033.46
672.943	1141.96
673.138	1047.61
673.333	1090.43
673.528	1011.38
673.723	1076.09
673.918	1029.78
674.113	1011.96
674.308	1102.63
674.503	1056.13
674.698	1070.28
674.892	1026.1
675.087	1016.03
675.282	1051.48
675.477	999.36
675.672	1043.73
675.867	986.58
676.061	972.82
676.256	976.11
676.451	983.09
676.646	1020.1
676.84	962.36
677.035	985.41
677.23	973.6
677.424	1018.55
677.619	1042.18
677.814	1071.24
678.008	1048.19
678.203	956.74
678.397	982.7
678.592	997.04
678.787	1119.29
678.981	986.58
679.176	1022.23
679.37	1023.39
679.565	973.4
679.759	1014.28
679.954	1011.38
680.148	1093.91
680.342	1048.96
680.537	1027.26
680.731	975.92
680.926	1014.67
681.12	1004.4
681.314	965.46
681.509	980.96
681.703	1018.16
681.897	1027.26
682.092	1019.32
682.286	985.41
682.48	1092.36
682.674	1012.93
682.869	981.73
683.063	989.68
683.257	1057.29
683.451	958.48
683.645	1004.01
683.839	1010.41
684.034	992.78
684.228	1033.27
684.422	947.63
684.616	924.97
684.81	1008.08
685.004	962.16
685.198	979.99
685.392	1018.55
685.586	954.61
685.78	984.83
685.974	1012.54
686.168	1033.85
686.362	1026.3
686.556	955.19
686.75	901.13
686.944	874.2
687.138	953.64
687.331	794.19
687.525	846.69
687.719	770.16
687.913	849.21
688.107	845.72
688.301	793.22
688.494	830.8
688.688	813.95
688.882	788.76
689.076	758.92
689.269	835.84
689.463	940.66
689.657	856.57
689.85	849.4
690.044	837.78
690.238	847.47
690.431	857.93
690.625	849.99
690.818	886.41
691.012	888.54
691.205	903.65
691.399	846.89
691.593	910.43
691.786	958.48
691.98	947.83
692.173	967.01
692.366	951.32
692.56	941.63
692.753	985.8
692.947	910.05
693.14	973.4
693.333	999.75
693.527	882.73
693.72	971.66
693.914	955.77
694.107	953.45
694.3	977.66
694.493	975.34
694.687	1029.78
694.88	970.69
695.073	1023.39
695.266	1013.51
695.46	958.68
695.653	1051.87
695.846	1037.73
696.039	948.99
696.232	1024.16
696.425	1066.98
696.618	1057.49
696.812	1066.59
697.005	1107.86
697.198	1204.35
697.391	1099.14
697.584	1136.73
697.777	1224.5
697.97	1166.76
698.163	1212.49
698.356	1132.27
698.549	1269.06
698.742	1225.66
698.935	1154.17
699.127	1186.72
699.32	1120.84
699.513	1145.26
699.706	1222.75
699.899	1228.76
700.092	1219.07
700.285	1222.75
700.477	1181.49
700.67	1223.34
700.863	1255.3
701.056	1320.98
701.248	1326.02
701.441	1318.47
701.634	1239.8
701.826	1397.71
702.019	1241.74
702.212	1358.96
702.404	1286.89
702.597	1290.57
702.79	1304.9
702.982	1353.34
703.175	1390.73
703.367	1438.78
703.56	1436.85
703.752	1516.48
703.945	1449.05
704.137	1436.85
704.33	1481.79
704.522	1495.94
704.715	1536.63
704.907	1548.25
705.1	1554.06
705.292	1589.71
705.484	1592.04
705.677	1586.61
705.869	1615.48
706.061	1686.59
706.254	1684.65
706.446	1652.68
706.638	1698.21
706.831	1728.44
707.023	1668.18
707.215	1811.17
707.407	1753.82
707.599	1765.44
707.792	1801.87
707.984	1814.27
708.176	1834.8
708.368	1819.88
708.56	1870.84
708.752	1871.03
708.944	1847.59
709.136	1887.5
709.329	1892.35
709.521	2018.67
709.713	1958.99
709.905	2017.12
710.097	2049.86
710.289	1993.87
710.481	2001.23
710.672	2049.28
710.864	2089.97
711.056	2136.85
711.248	2127.94
711.44	2138.6
711.632	2118.84
711.824	2165.53
712.016	2189.94
712.207	2237.6
712.399	2242.25
712.591	2278.48
712.783	2257.75
712.975	2273.06
713.166	2253.3
713.358	2286.04
713.55	2349.98
713.741	2377.29
713.933	2378.46
714.125	2364.31
714.316	2321.88
714.508	2468.94
714.7	2428.64
714.891	2464.09
715.083	2540.62
715.274	2476.69
715.466	2483.27
715.657	2539.65
715.849	2427.67
716.04	2476.69
716.232	2491.61
716.423	2510.21
716.615	2454.99
716.806	2429.22
716.998	2394.93
717.189	2353.27
717.381	2272.86
717.572	2248.84
717.763	2305.22
717.955	2256.59
718.146	2217.65
718.337	2196.53
718.528	2169.02
718.72	2074.27
718.911	2201.57
719.102	2100.43
719.293	2160.49
719.485	2166.3
719.676	2147.51
719.867	2123.1
720.058	2114.57
720.249	2136.08
720.44	2197.3
720.632	2241.87
720.823	2282.55
721.014	2365.48
721.205	2430.77
721.396	2498.19
721.587	2590.03
721.778	2663.85
721.969	2663.46
722.16	2771.57
722.351	2748.51
722.542	2937.61
722.733	2914.17
722.924	2854.88
723.115	2947.11
723.305	2884.33
723.496	2908.94
723.687	2763.05
723.878	2822.14
724.069	2788.04
724.26	2814.39
724.45	2736.11
724.641	2707.44
724.832	2779.51
725.023	2752.97
725.213	2782.81
725.404	2762.85
725.595	2758.2
725.785	2755.88
725.976	2853.14
726.167	2842.29
726.357	2853.53
726.548	2996.12
726.739	2888.79
726.929	2980.04
727.12	3004.65
727.31	3083.31
727.501	2998.25
727.691	3012.4
727.882	2982.37
728.072	3091.45
728.263	3031.97
728.453	3136.01
728.644	3122.64
728.834	3104.43
729.024	3084.67
729.215	3088.35
729.405	3082.15
729.596	3178.83
729.786	3224.75
729.976	3232.88
730.167	3267.95
730.357	3212.93
730.547	3250.13
730.737	3257.49
730.928	3302.83
731.118	3380.91
731.308	3352.42
731.498	3347
731.688	3402.02
731.879	3451.24
732.069	3494.44
732.259	3545.98
732.449	3531.25
732.639	3675.4
732.829	3678.89
733.019	3723.26
733.209	3811.41
733.399	3767.24
733.589	3856.75
733.779	3880.19
733.969	3852.29
734.159	3966.99
734.349	3984.82
734.539	4022.21
734.729	4064.06
734.919	4060.76
735.109	4078.2
735.299	4119.08
735.488	4087.11
735.678	4135.94
735.868	4097.38
736.058	4098.35
736.248	4121.79
736.437	4040.81
736.627	4036.55
736.817	4171.59
737.007	4104.16
737.196	4194.26
737.386	4175.46
737.576	4163.84
737.765	4205.11
737.955	4114.82
738.144	4298.1
738.334	4244.24
738.524	4173.91
738.713	4249.28
738.903	4226.81
739.092	4265.75
739.282	4284.54
739.471	4298.3
739.661	4266.14
739.85	4349.84
740.04	4363.4
740.229	4297.52
740.419	4394.59
740.608	4400.6
740.797	4326.39
740.987	4411.64
741.176	4432.57
741.365	4389.75
741.555	4335.89
741.744	4471.51
741.933	4393.62
742.123	4440.32
742.312	4499.6
742.501	4516.46
742.69	4544.16
742.88	4399.05
743.069	4621.86
743.258	4479.65
743.447	4577.68
743.636	4573.23
743.825	4538.54
744.014	4556.18
744.204	4547.46
744.393	4525.76
744.582	4639.87
744.771	4605.19
744.96	4562.76
745.149	4591.24
745.338	4584.85
745.527	4661.96
745.716	4611.98
745.905	4590.66
746.094	4657.12
746.283	4647.24
746.471	4596.86
746.66	4688.12
746.849	4648.98
747.038	4712.72
747.227	4616.43
747.416	4669.32
747.604	4642.39
747.793	4628.64
747.982	4647.04
748.171	4642.59
748.359	4659.25
748.548	4667.19
748.737	4653.24
748.926	4634.26
749.114	4529.83
749.303	4653.44
749.491	4616.24
749.68	4525.37
749.869	4630.19
750.057	4570.71
750.246	4570.13
750.434	4605.97
750.623	4590.86
750.811	4571.09
751	4645.3
751.188	4547.46
751.377	4585.04
751.565	4558.89
751.754	4550.75
751.942	4534.09
752.131	4620.89
752.319	4507.74
752.507	4506
752.696	4550.17
752.884	4580.98
753.072	4482.55
753.261	4567.8
753.449	4516.65
753.637	4515.49
753.825	4577.88
754.014	4538.16
754.202	4561.21
754.39	4609.65
754.578	4581.75
754.766	4513.36
754.955	4450
755.143	4616.63
755.331	4531.18
755.519	4542.42
755.707	4502.12
755.895	4462.01
756.083	4510.84
756.271	4468.02
756.459	4431.6
756.647	4514.33
756.835	4472.86
757.023	4449.03
757.211	4390.33
757.399	4408.15
757.587	4429.66
757.775	4375.02
757.963	4407.18
758.151	4400.02
758.339	4374.25
758.526	4324.26
758.714	4412.03
758.902	4303.14
759.09	4241.72
759.278	4031.31
759.465	3819.36
759.653	3365.79
759.841	3107.33
760.028	2749.68
760.216	2436.97
760.404	2287.59
760.591	1934.78
760.779	1717.59
760.967	1522.09
761.154	1330.48
761.342	1388.22
761.529	1430.84
761.717	1509.11
761.905	1487.22
762.092	1583.71
762.28	1580.99
762.467	1630.01
762.655	1557.55
762.842	1613.74
763.029	1611.61
763.217	1687.75
763.404	1643.77
763.592	1703.83
763.779	1646.87
763.966	1722.04
764.154	1772.8
764.341	1855.92
764.528	1842.55
764.716	1953.18
764.903	1988.64
765.09	2055.67
765.277	2106.44
765.465	2295.34
765.652	2337
765.839	2464.67
766.026	2583.83
766.213	2628.39
766.4	2701.24
766.588	2890.72
766.775	2934.12
766.962	3098.81
767.149	3108.5
767.336	3284.61
767.523	3253.81
767.71	3376.84
767.897	3534.74
768.084	3549.27
768.271	3593.83
768.458	3647.11
768.645	3744.57
768.832	3694.39
769.019	3716.86
769.206	3707.37
769.392	3830.79
769.579	3964.86
769.766	3871.67
769.953	3786.61
770.14	3890.85
770.327	3865.08
770.513	3949.75
770.7	4020.08
770.887	3866.63
771.073	3929.4
771.26	3948
771.447	3884.26
771.634	3898.4
771.82	4027.63
772.007	3859.07
772.193	3945.87
772.38	3960.02
772.567	3919.33
772.753	3939.87
772.94	3995.47
773.126	3946.84
773.313	3975.52
773.499	3911.97
773.686	3949.17
773.872	3875.54
774.059	3977.07
774.245	3827.88
774.432	3877.48
774.618	3810.44
774.804	3864.11
774.991	3880.97
775.177	3871.09
775.363	3809.28
775.55	3901.7
775.736	3776.73
775.922	3805.21
776.109	3784.87
776.295	3806.37
776.481	3845.9
776.667	3843.96
776.853	3826.14
777.04	3771.5
777.226	3784.09
777.412	3898.02
777.598	3780.8
777.784	3767.82
777.97	3727.52
778.156	3796.11
778.342	3743.41
778.528	3732.56
778.715	3678.69
778.901	3689.35
779.087	3772.47
779.272	3681.99
779.458	3645.95
779.644	3719.96
779.83	3649.83
780.016	3750.96
780.202	3712.99
780.388	3689.35
780.574	3538.81
780.76	3684.31
780.946	3669.01
781.131	3704.27
781.317	3619.21
781.503	3600.23
781.689	3617.86
781.874	3743.41
782.06	3591.9
782.246	3621.54
782.432	3612.82
782.617	3613.98
782.803	3687.22
782.989	3555.67
783.174	3520.21
783.36	3474.68
783.545	3530.67
783.731	3544.43
783.916	3429.54
784.102	3531.06
784.288	3463.25
784.473	3480.69
784.659	3438.64
784.844	3553.53
785.029	3503.35
785.215	3427.99
785.4	3380.32
785.586	3491.73
785.771	3381.49
785.956	3481.27
786.142	3447.55
786.327	3429.34
786.512	3421.4
786.698	3410.16
786.883	3324.33
787.068	3381.68
787.254	3350.1
787.439	3337.89
787.624	3350.29
787.809	3356.49
787.994	3309.22
788.18	3382.65
788.365	3290.23
788.55	3281.13
788.735	3308.83
788.92	3310.19
789.105	3240.63
789.29	3319.68
789.475	3232.69
789.66	3231.53
789.845	3218.35
790.03	3229.39
790.215	3278.8
790.4	3307.28
790.585	3304.96
790.77	3198.4
790.955	3168.36
791.14	3187.55
791.325	3245.09
791.51	3088.93
791.695	3190.45
791.879	3182.12
792.064	3085.44
792.249	3277.44
792.434	3169.14
792.618	3190.26
792.803	3219.32
792.988	3163.52
793.173	3191.42
793.357	3199.36
793.542	3108.69
793.727	3139.11
793.911	3157.32
794.096	3182.9
794.281	3194.33
794.465	3235.98
794.65	3191.23
794.834	3201.5
795.019	3196.46
795.203	3231.91
795.388	3215.45
795.572	3255.55
795.757	3221.26
795.941	3214.67
796.126	3207.89
796.31	3180.18
796.494	3228.62
796.679	3182.12
796.863	3164.1
797.048	3296.82
797.232	3210.99
797.416	3253.81
797.601	3223.2
797.785	3279.96
797.969	3292.17
798.153	3194.13
798.338	3225.91
798.522	3295.46
798.706	3316.19
798.89	3320.84
799.074	3411.71
799.258	3317.94
799.443	3269.5
799.627	3266.98
799.811	3290.62
799.995	3252.45
800.179	3266.79
800.363	3224.94
800.547	3298.56
800.731	3313.48
800.915	3186.77
801.099	3215.25
801.283	3180.57
801.467	3267.37
801.651	3239.66
801.835	3277.25
802.019	3274.15
802.202	3295.08
802.386	3222.81
802.57	3179.8
802.754	3198.98
802.938	3155.19
803.121	3150.93
803.305	3294.11
803.489	3206.92
803.673	3244.12
803.856	3237.14
804.04	3207.89
804.224	3266.98
804.407	3223.58
804.591	3187.74
804.775	3199.56
804.958	3179.02
805.142	3311.35
805.326	3249.35
805.509	3216.8
805.693	3297.4
805.876	3241.41
806.06	3227.07
806.243	3279.19
806.427	3283.26
806.61	3284.42
806.794	3216.41
806.977	3272.79
807.16	3265.04
807.344	3277.06
807.527	3253.03
807.71	3182.12
807.894	3254.78
808.077	3250.71
808.26	3193.55
808.444	3152.86
808.627	3260.2
808.81	3179.6
808.993	3092.42
809.177	3102.49
809.36	3149.57
809.543	3153.06
809.726	3054.83
809.909	3068.58
810.092	3026.35
810.276	3053.28
810.459	3097.84
810.642	3040.88
810.825	2985.47
811.008	2990.5
811.191	2903.71
811.374	2947.3
811.557	2947.49
811.74	3049.4
811.923	2906.61
812.106	2882.39
812.289	2862.05
812.472	2902.93
812.654	2894.21
812.837	2795.59
813.02	2785.13
813.203	2783.97
813.386	2676.05
813.569	2636.53
813.751	2580.92
813.934	2656.87
814.117	2585.57
814.3	2567.75
814.482	2507.11
814.665	2463.32
814.848	2422.44
815.03	2353.85
815.213	2360.44
815.396	2349.01
815.578	2299.6
815.761	2286.43
815.943	2353.08
816.126	2197.3
816.309	2241.28
816.491	2145.57
816.674	2074.66
816.856	2125.81
817.039	2139.57
817.221	2202.15
817.403	2126.2
817.586	2157.97
817.768	2178.32
817.951	2093.65
818.133	2064.2
818.315	2065.17
818.498	2156.42
818.68	2221.13
818.862	2145.77
819.045	2173.47
819.227	2206.02
819.409	2135.89
819.591	2177.15
819.774	2148.87
819.956	2095.97
820.138	2194.98
820.32	2195.56
820.502	2240.9
820.684	2323.05
820.866	2286.81
821.048	2373.81
821.231	2347.65
821.413	2341.84
821.595	2363.73
821.777	2350.56
821.959	2346.88
822.141	2426.7
822.323	2265.5
822.505	2241.09
822.686	2157.39
822.868	2107.02
823.05	1972.56
823.232	1945.82
823.414	1822.79
823.596	1962.68
823.778	1910.75
823.96	1908.23
824.141	1949.31
824.323	1969.26
824.505	2058.58
824.687	2104.11
824.868	2162.62
825.05	2231.4
825.232	2287.01
825.413	2317.04
825.595	2294.95
825.777	2223.85
825.958	2292.63
826.14	2272.67
826.321	2295.92
826.503	2281
826.685	2271.31
826.866	2306.58
827.048	2331.38
827.229	2253.88
827.411	2187.03
827.592	2150.61
827.773	2165.72
827.955	2087.06
828.136	2129.69
828.318	2074.86
828.499	2129.1
828.68	2046.37
828.862	2080.67
829.043	2084.16
829.224	2067.11
829.406	2025.45
829.587	2054.71
829.768	2035.33
829.949	2060.91
830.131	2033.59
830.312	2130.65
830.493	2035.72
830.674	2078.15
830.855	2020.8
831.036	2032.62
831.218	2110.5
831.399	2114.96
831.58	2076.99
831.761	2077.37
831.942	2096.17
832.123	2083.77
832.304	2008.4
832.485	1995.61
832.666	2033.39
832.847	2112.83
833.028	2051.22
833.209	2077.76
833.389	2057.22
833.57	2006.27
833.751	1985.34
833.932	2092.49
834.113	2025.45
834.294	2024.09
834.475	2053.54
834.655	2082.22
834.836	2095.97
835.017	2058.97
835.198	2040.95
835.378	2057.42
835.559	2131.24
835.74	2079.7
835.92	2087.45
836.101	2023.12
836.281	2100.82
836.462	2056.06
836.643	2122.52
836.823	2116.51
837.004	2107.6
837.184	2124.65
837.365	2133.95
837.545	2131.04
837.726	2106.82
837.906	2153.52
838.087	2088.61
838.267	2138.4
838.448	2056.06
838.628	2090.16
838.808	2063.04
838.989	2155.07
839.169	2040.17
839.349	2130.07
839.53	2135.11
839.71	2129.1
839.89	2076.21
840.07	2134.53
840.251	2078.15
840.431	2147.32
840.611	2077.37
840.791	2051.41
840.971	2094.23
841.151	2030.1
841.332	2060.91
841.512	2121.55
841.692	2026.03
841.872	2120
842.052	2045.21
842.232	2080.47
842.412	2007.24
842.592	2043.08
842.772	2062.65
842.952	2027.39
843.132	2009.76
843.312	2042.69
843.492	1973.53
843.672	2054.9
843.851	1953.18
844.031	2001.04
844.211	2018.47
844.391	2004.52
844.571	2005.69
844.751	2039.59
844.93	2042.31
845.11	1962.09
845.29	2004.91
845.47	2041.34
845.649	2008.4
845.829	2020.02
846.009	1947.37
846.188	2004.91
846.368	2003.94
846.547	1990.58
846.727	2032.23
846.907	1912.88
847.086	1964.42
847.266	1991.35
847.445	1971.39
847.625	1942.91
847.804	1921.41
847.984	1950.08
848.163	1886.15
848.343	1949.89
848.522	1936.52
848.701	1961.9
848.881	1926.64
849.06	1946.01
849.239	1963.84
849.419	1960.35
849.598	1840.23
849.777	1866
849.957	1831.31
850.136	1787.72
850.315	1789.08
850.494	1762.73
850.674	1764.67
850.853	1856.7
851.032	1798.77
851.211	1848.75
851.39	1866.77
851.569	1771.64
851.748	1766.99
851.927	1845.85
852.107	1774.74
852.286	1735.22
852.465	1755.17
852.644	1832.09
852.823	1831.9
853.002	1787.14
853.181	1794.31
853.359	1809.42
853.538	1731.54
853.717	1814.65
853.896	1691.62
854.075	1594.17
854.254	1604.63
854.433	1546.7
854.611	1580.22
854.79	1493.81
854.969	1592.42
855.148	1612.19
855.327	1544.38
855.505	1623.04
855.684	1597.07
855.863	1615.29
856.041	1570.72
856.22	1644.35
856.399	1612.57
856.577	1710.22
856.756	1703.44
856.934	1812.72
857.113	1815.04
857.291	1734.64
857.47	1680.58
857.648	1724.37
857.827	1723.79
858.005	1763.5
858.184	1685.04
858.362	1823.76
858.541	1701.31
858.719	1687.36
858.898	1701.31
859.076	1666.63
859.254	1771.64
859.433	1695.11
859.611	1674.19
859.789	1604.44
859.967	1731.92
860.146	1744.32
860.324	1631.17
860.502	1623.04
860.68	1598.82
860.859	1625.17
861.037	1639.89
861.215	1646.48
861.393	1698.21
861.571	1657.14
861.749	1616.84
861.927	1646.67
862.105	1622.84
862.283	1611.41
862.461	1593.78
862.639	1572.27
862.817	1614.9
862.995	1610.83
863.173	1599.98
863.351	1595.91
863.529	1608.89
863.707	1665.08
863.885	1586.61
864.063	1553.29
864.241	1563.75
864.418	1635.82
864.596	1544.96
864.774	1539.92
864.952	1564.72
865.129	1584.29
865.307	1524.42
865.485	1475.21
865.663	1570.53
865.84	1462.61
866.018	1527.52
866.196	1342.49
866.373	1398.1
866.551	1367.1
866.728	1283.98
866.906	1328.54
867.084	1366.71
867.261	1436.26
867.439	1425.41
867.616	1468.04
867.794	1429.29
867.971	1433.75
868.149	1454.28
868.326	1504.46
868.503	1479.08
868.681	1451.18
868.858	1443.43
869.035	1401.2
869.213	1506.4
869.39	1487.41
869.567	1484.51
869.745	1479.47
869.922	1465.71
870.099	1473.27
870.276	1498.46
870.454	1473.85
870.631	1491.68
870.808	1483.34
870.985	1481.99
871.162	1509.89
871.339	1472.69
871.517	1436.85
871.694	1401.39
871.871	1419.41
872.048	1403.52
872.225	1414.18
872.402	1449.05
872.579	1355.67
872.756	1430.26
872.933	1349.85
873.11	1403.91
873.287	1399.26
873.463	1378.53
873.64	1342.68
873.817	1402.16
873.994	1346.37
874.171	1341.33
874.348	1390.93
874.524	1302.39
874.701	1371.17
874.878	1291.34
875.055	1363.8
875.231	1374.85
875.408	1412.43
875.585	1291.34
875.762	1336.48
875.938	1350.63
876.115	1304.9
876.291	1290.76
876.468	1333
876.645	1278.75
876.821	1259.95
876.998	1329.51
877.174	1334.35
877.351	1329.32
877.527	1274.68
877.704	1303.93
877.88	1321.95
878.057	1253.56
878.233	1328.93
878.409	1307.03
878.586	1280.88
878.762	1280.1
878.938	1275.26
879.115	1200.86
879.291	1243.1
879.467	1224.3
879.644	1226.24
879.82	1273.71
879.996	1238.25
880.172	1212.29
880.349	1255.89
880.525	1248.91
880.701	1205.9
880.877	1183.23
881.053	1254.34
881.229	1206.09
881.405	1253.17
881.581	1205.9
881.757	1215.01
881.933	1207.84
882.109	1231.86
882.285	1222.95
882.461	1165.99
882.637	1263.83
882.813	1196.41
882.989	1224.5
883.165	1279.52
883.341	1198.92
883.517	1265.96
883.693	1225.85
883.869	1246.39
884.044	1211.13
884.22	1252.59
884.396	1287.27
884.572	1245.81
884.747	1248.14
884.923	1273.9
885.099	1265.19
885.275	1283.01
885.45	1184.01
885.626	1204.54
885.801	1202.99
885.977	1210.36
886.153	1142.35
886.328	1198.73
886.504	1181.87
886.679	1189.62
886.855	1163.47
887.03	1221.79
887.206	1229.54
887.381	1210.36
887.557	1233.41
887.732	1226.44
887.908	1262.09
888.083	1246
888.258	1184.2
888.434	1167.54
888.609	1193.11
888.784	1252.79
888.96	1200.67
889.135	1203.38
889.31	1183.23
889.485	1225.27
889.661	1220.24
889.836	1247.94
890.011	1245.04
890.186	1218.49
890.361	1199.31
890.537	1267.7
890.712	1188.27
890.887	1220.82
891.062	1238.64
891.237	1282.04
891.412	1170.06
891.587	1200.67
891.762	1261.31
891.937	1265.96
892.112	1158.43
892.287	1208.42
892.462	1162.5
892.637	1137.51
892.812	1141.19
892.987	1161.72
893.161	1122.98
893.336	1142.35
893.511	1171.8
893.686	1110.38
893.861	1151.84
894.035	1131.5
894.21	1147.77
894.385	1078.8
894.56	1148.36
894.734	1052.45
894.909	1036.76
895.084	1060.78
895.258	1058.07
895.433	1080.54
895.608	1045.09
895.782	978.05
895.957	1000.72
896.131	975.34
896.306	920.9
896.48	933.3
896.655	944.34
896.829	840.3
897.004	863.35
897.178	892.61
897.353	884.08
897.527	913.34
897.701	880.4
897.876	820.54
898.05	934.27
898.224	911.79
898.399	923.8
898.573	861.22
898.747	758.34
898.921	843.01
899.096	721.92
899.27	736.45
899.444	729.28
899.618	773.07
899.792	788.37
899.967	841.85
900.141	837.78
900.315	764.74
900.489	754.27
900.663	791.47
900.837	772.29
901.011	711.07
901.185	867.81
901.359	791.86
901.533	794.77
901.707	770.94
901.881	767.45
902.055	740.32
902.229	765.32
902.403	840.88
902.576	788.76
902.75	814.53
902.924	903.65
903.098	840.1
903.272	893.58
903.446	929.81
903.619	896.48
903.793	948.22
903.967	888.73
904.14	964.3
904.314	950.35
904.488	920.32
904.661	955.96
904.835	959.06
905.009	969.33
905.182	1014.48
905.356	981.35
905.529	929.81
905.703	942.21
905.876	911.02
906.05	850.95
906.223	828.48
906.397	830.22
906.57	808.14
906.744	755.05
906.917	764.93
907.09	795.74
907.264	783.53
907.437	750.21
907.61	736.45
907.784	749.62
907.957	769.39
908.13	694.02
908.304	750.98
908.477	663.79
908.65	690.14
908.823	663.41
908.996	779.46
909.17	690.14
909.343	687.24
909.516	714.94
909.689	682.78
909.862	668.44
910.035	701.77
910.208	648.29
910.381	670.77
910.554	744.78
910.727	674.26
910.9	646.94
911.073	686.66
911.246	760.47
911.419	720.95
911.592	741.68
911.765	656.04
911.938	657.98
912.11	693.24
912.283	673.09
912.456	731.8
912.629	692.27
912.802	669.99
912.974	649.26
913.147	582.03
913.32	516.16
913.493	570.6
913.665	613.42
913.838	628.34
914.01	599.66
914.183	623.3
914.356	597.34
914.528	639.58
914.701	684.72
914.873	672.51
915.046	600.25
915.218	599.66
915.391	514.8
915.563	546
915.736	584.75
915.908	622.91
916.081	578.74
916.253	601.02
916.425	606.44
916.598	601.6
916.77	588.81
916.942	585.91
917.115	517.9
917.287	599.28
917.459	594.63
917.632	518.1
917.804	473.73
917.976	555.68
918.148	575.64
918.32	557.43
918.493	605.67
918.665	634.15
918.837	610.71
919.009	663.41
919.181	655.85
919.353	625.63
919.525	599.47
919.697	571.76
919.869	589.4
920.041	662.05
920.213	725.02
920.385	651.98
920.557	606.06
920.729	639.19
920.901	603.54
921.073	609.74
921.244	615.36
921.416	643.26
921.588	613.23
921.76	595.6
921.932	704.87
922.103	585.71
922.275	585.71
922.447	622.91
922.619	540.57
922.79	599.66
922.962	562.46
923.134	619.23
923.305	544.64
923.477	514.8
923.648	540.96
923.82	553.75
923.991	489.42
924.163	498.72
924.335	563.43
924.506	508.02
924.677	601.99
924.849	525.85
925.02	526.62
925.192	572.35
925.363	544.25
925.535	534.95
925.706	531.08
925.877	560.53
926.049	495.62
926.22	537.08
926.391	545.61
926.562	557.81
926.734	482.25
926.905	536.89
927.076	473.73
927.247	489.23
927.419	454.74
927.59	442.53
927.761	444.86
927.932	470.63
928.103	486.52
928.274	397.78
928.445	413.86
928.616	431.49
928.787	405.14
928.958	459.97
929.129	432.07
929.3	363.1
929.471	363.1
929.642	291.61
929.813	256.92
929.984	350.7
930.155	254.21
930.326	355.74
930.496	295.67
930.667	220.89
930.838	302.07
931.009	240.07
931.18	248.21
931.35	249.56
931.521	259.64
931.692	169.16
931.863	153.85
932.033	189.89
932.204	200.74
932.374	195.51
932.545	129.25
932.716	197.83
932.886	191.05
933.057	105.03
933.227	126.92
933.398	196.86
933.568	122.27
933.739	32.76
933.909	84.88
934.08	132.73
934.25	71.51
934.421	76.55
934.591	120.14
934.761	112.39
934.932	59.3
935.102	129.83
935.272	89.91
935.443	92.05
935.613	95.92
935.783	133.51
935.953	62.4
936.123	235.23
936.294	77.52
936.464	74.42
936.634	84.88
936.804	58.92
936.974	31.6
937.144	128.08
937.314	103.09
937.484	78.48
937.655	48.65
937.825	125.37
937.995	52.52
938.165	144.16
938.334	82.55
938.504	139.51
938.674	97.66
938.844	106
939.014	174.97
939.184	165.48
939.354	226.31
939.524	203.84
939.694	149.59
939.863	137.19
940.033	234.84
940.203	231.16
940.373	173.03
940.542	204.03
940.712	138.35
940.882	215.46
941.051	211.39
941.221	196.67
941.391	186.21
941.56	155.79
941.73	139.32
941.899	259.64
942.069	149.2
942.238	178.26
942.408	141.65
942.577	194.93
942.747	165.09
942.916	79.65
943.086	112.78
943.255	204.23
943.425	152.88
943.594	126.15
943.763	65.7
943.933	74.42
944.102	68.99
944.271	98.05
944.441	153.85
944.61	103.48
944.779	119.95
944.948	229.03
945.117	100.38
945.287	110.84
945.456	51.36
945.625	76.35
945.794	148.23
945.963	72.87
946.132	160.05
946.301	93.98
946.47	134.28
946.639	61.82
946.808	105.22
946.977	149.4
947.146	192.79
947.315	115.88
947.484	139.51
947.653	110.45
947.822	94.95
947.991	89.53
948.16	202.87
948.329	180.01
948.498	142.61
948.666	163.73
948.835	167.99
949.004	49.62
949.173	78.29
949.341	131.18
949.51	132.15
949.679	178.65
949.847	121.88
950.016	194.34
950.185	208.88
950.353	90.3
950.522	115.68
950.69	176.52
950.859	108.32
951.028	203.45
951.196	132.93
951.365	119.75
951.533	133.9
951.701	145.52
951.87	146.49
952.038	72.87
952.207	126.92
952.375	197.83
952.543	101.73
952.712	116.85
952.88	91.08
953.048	193.18
953.217	128.86
953.385	137
953.553	176.13
953.721	84.88
953.89	114.91
954.058	54.27
954.226	116.46
954.394	134.48
954.562	73.64
954.73	108.9
954.898	106.19
955.067	139.51
955.235	99.99
955.403	152.3
955.571	194.73
955.739	119.36
955.907	109.48
956.075	95.73
956.243	102.7
956.41	148.62
956.578	82.55
956.746	69.18
956.914	92.82
957.082	163.93
957.25	131.18
957.418	111.23
957.585	140.48
957.753	148.81
957.921	89.14
958.089	126.73
958.256	143.97
958.424	155.4
958.592	143.97
958.759	80.42
958.927	151.72
959.095	75.77
959.262	109.68
959.43	121.11
959.597	90.3
959.765	131.76
959.932	67.63
960.1	156.76
960.267	104.45
960.435	111.61
960.602	155.98
960.77	145.52
960.937	81.97
961.104	149.2
961.272	58.92
961.439	93.4
961.606	131.57
961.774	160.44
961.941	104.25
962.108	147.07
962.275	133.7
962.443	178.46
962.61	151.53
962.777	181.17
962.944	148.04
963.111	129.63
963.278	186.01
963.446	128.08
963.613	140.48
963.78	163.54
963.947	169.35
964.114	109.29
964.281	214.11
964.448	182.33
964.615	144.16
964.782	148.04
964.949	158.5
965.116	157.34
965.282	194.93
965.449	148.62
965.616	109.1
965.783	172.64
965.95	148.23
966.117	63.18
966.283	118.98
966.45	154.63
966.617	131.76
966.784	180.98
966.95	181.75
967.117	173.61
967.284	113.75
967.45	105.61
967.617	185.24
967.784	166.25
967.95	206.16
968.117	137.96
968.283	202.87
968.45	254.21
968.616	159.66
968.783	178.46
968.949	164.9
969.116	191.05
969.282	157.73
969.449	161.6
969.615	125.76
969.781	98.83
969.948	156.95
970.114	124.79
970.28	209.46
970.447	172.26
970.613	196.67
970.779	154.82
970.945	176.71
971.112	164.31
971.278	156.76
971.444	168.96
971.61	203.06
971.776	159.47
971.942	167.41
972.108	165.67
972.275	150.95
972.441	181.56
972.607	211.2
972.773	118.78
972.939	182.91
973.105	164.7
973.271	130.6
973.437	118.4
973.602	112.58
973.768	178.26
973.934	143
974.1	171.29
974.266	73.25
974.432	166.83
974.598	120.14
974.763	178.65
974.929	114.52
975.095	203.64
975.261	107.93
975.426	112.58
975.592	126.15
975.758	180.2
975.923	99.8
976.089	105.41
976.255	172.84
976.42	144.36
976.586	178.26
976.751	154.05
976.917	196.86
977.082	155.79
977.248	75.19
977.413	67.63
977.579	115.49
977.744	129.05
977.91	70.35
978.075	108.13
978.24	154.82
978.406	130.41
978.571	109.87
978.736	93.79
978.902	149.2
979.067	97.47
979.232	51.75
979.397	123.63
979.563	185.43
979.728	114.33
979.893	119.95
980.058	104.06
980.223	145.52
980.388	141.06
980.554	155.01
980.719	100.57
980.884	134.09
981.049	157.34
981.214	108.71
981.379	142.03
981.544	139.32
981.709	131.57
981.874	129.05
982.039	97.08
982.204	129.44
982.368	119.36
982.533	110.45
982.698	169.93
982.863	174.39
983.028	105.61
983.193	121.88
983.357	127.89
983.522	134.09
983.687	104.83
983.852	109.29
984.016	101.54
984.181	117.43
984.346	158.7
984.51	126.53
984.675	128.86
984.839	132.35
985.004	151.14
985.168	160.44
985.333	119.17
985.498	117.04
985.662	144.36
985.827	126.34
985.991	114.13
986.155	108.51
986.32	167.41
986.484	202.87
986.649	136.41
986.813	78.87
986.977	116.85
987.142	148.81
987.306	74.22
987.47	97.08
987.634	109.87
987.799	114.33
987.963	131.76
988.127	156.95
988.291	186.4
988.455	142.42
988.62	96.89
988.784	150.36
988.948	129.63
989.112	112.2
989.276	137.96
989.44	132.93
989.604	88.75
989.768	64.73
989.932	210.23
990.096	68.8
990.26	66.86
990.424	68.6
990.588	129.63
990.752	208.68
990.915	166.45
991.079	65.7
991.243	97.66
991.407	145.33
991.571	108.51
991.734	131.76
991.898	130.41
992.062	192.21
992.226	103.67
992.389	79.26
992.553	71.12
992.717	65.5
992.88	91.27
993.044	93.79
993.207	104.64
993.371	138.55
993.535	123.63
993.698	115.1
993.862	141.84
994.025	143.78
994.189	125.37
994.352	136.61
994.515	89.53
994.679	155.98
994.842	109.68
995.006	134.09
995.169	67.44
995.332	108.32
995.496	125.56
995.659	23.46
995.822	51.55
995.985	95.92
996.149	151.53
996.312	103.86
996.475	145.13
996.638	82.94
996.801	155.98
996.964	159.86
997.128	76.55
997.291	86.62
997.454	110.84
997.617	44.77
997.78	131.38
997.943	54.27
998.106	113.75
998.269	73.45
998.432	84.1
998.595	98.25
998.758	71.32
998.92	49.62
999.083	34.7
999.246	99.99
999.409	39.15
999.572	52.33
999.735	71.7
999.897	87.78
1000.06	75.38
1000.223	87.01
1000.386	99.21
1000.548	118.78
1000.711	99.99
1000.874	118.4
1001.036	32.57
1001.199	113.36
1001.361	62.4
1001.524	84.3
1001.687	105.61
1001.849	63.95
1002.012	113.36
1002.174	112.58
1002.337	122.46
1002.499	64.53
1002.661	114.52
1002.824	65.31
1002.986	54.46
1003.149	86.04
1003.311	68.8
1003.473	142.61
1003.636	37.99
1003.798	96.5
1003.96	99.21
1004.123	81.2
1004.285	52.33
1004.447	76.74
1004.609	82.55
1004.771	132.15
1004.933	12.42
1005.096	48.07
1005.258	20.36
1005.42	56.4
1005.582	92.82
1005.744	81.58
1005.906	16.87
1006.068	79.65
1006.23	36.63
1006.392	4.28
1006.554	37.02
1006.716	118.59
1006.878	70.35
1007.04	18.62
1007.202	38.57
1007.363	84.1
1007.525	68.41
1007.687	106.96
1007.849	100.18
1008.011	6.8
1008.172	16.29
1008.334	80.42
1008.496	57.17
1008.658	-2.12
1008.819	28.69
1008.981	16.68
1009.143	12.03
1009.304	45.55
1009.466	72.28
1009.627	136.61
1009.789	188.92
1009.95	77.13
1010.112	36.25
1010.273	72.48
1010.435	50.78
1010.596	32.95
1010.758	51.55
1010.919	32.57
1011.081	25.59
1011.242	61.24
1011.403	74.42
1011.565	32.37
1011.726	42.83
1011.887	33.92
1012.049	44.77
1012.21	63.95
1012.371	105.03
1012.532	-41.83
1012.693	62.79
1012.855	34.12
1013.016	57.37
1013.177	106.19
1013.338	61.43
1013.499	104.25
1013.66	115.3
1013.821	81.39
1013.982	66.08
1014.143	65.12
1014.304	23.46
1014.465	72.28
1014.626	65.7
1014.787	45.55
1014.948	130.8
1015.109	-36.02
1015.27	105.03
1015.431	22.1
1015.592	15.32
1015.752	98.83
1015.913	60.85
1016.074	74.03
1016.235	59.11
1016.395	44
1016.556	27.33
1016.717	44.77
1016.877	90.3
1017.038	37.02
1017.199	36.44
1017.359	53.1
1017.52	65.12
1017.681	32.57
1017.841	58.92
1018.002	59.11
1018.162	23.65
1018.323	85.46
1018.483	36.25
1018.644	48.45
1018.804	3.12
1018.964	-1.15
1019.125	24.04
1019.285	46.71
1019.446	12.61
1019.606	29.47
1019.766	-47.65
1019.926	70.93
1020.087	53.49
1020.247	3.7
1020.407	81.78
1020.567	97.47
1020.728	16.68
1020.888	-1.34
1021.048	0.4
1021.208	-11.41
1021.368	30.43
1021.528	81
1021.688	57.95
1021.848	79.84
1022.008	56.78
1022.168	11.83
1022.328	49.62
1022.488	64.73
1022.648	16.48
1022.808	76.74
1022.968	51.55
1023.128	7.96
1023.288	11.25
1023.448	53.1
1023.608	84.3
1023.767	41.48
1023.927	-0.57
1024.087	2.73
1024.247	-16.26
1024.406	7.77
1024.566	3.89
1024.726	19.39
1024.885	61.82
1025.045	69.96
1025.205	32.76
1025.364	6.22
1025.524	63.18
1025.683	12.22
1025.843	38.57
1026.003	32.95
1026.162	99.02
1026.321	82.36
1026.481	49.42
1026.64	47.1
1026.8	61.05
1026.959	49.81
1027.119	58.72
1027.278	19.58
1027.437	11.64
1027.597	39.93
1027.756	54.85
1027.915	66.67
1028.074	49.42
1028.234	9.9
1028.393	50.39
1028.552	11.25
1028.711	-52.68
1028.87	63.18
1029.03	9.7
1029.189	30.82
1029.348	-26.33
1029.507	10.28
1029.666	20.75
1029.825	0.98
1029.984	-1.92
1030.143	53.3
1030.302	18.81
1030.461	-27.3
1030.62	36.63
1030.779	43.22
1030.938	-3.86
1031.097	-8.51
1031.255	41.67
1031.414	80.81
1031.573	60.08
1031.732	-21.88
1031.891	31.98
1032.049	84.1
1032.208	46.52
1032.367	7.57
1032.525	17.65
1032.684	14.74
1032.843	16.1
1033.001	-30.21
1033.16	166.06
1033.319	54.27
1033.477	44.97
1033.636	-7.54
1033.794	-25.75
1033.953	65.12
1034.111	60.27
1034.27	-0.18
1034.428	37.22
1034.587	7.38
1034.745	30.05
1034.903	18.62
1035.062	37.41
1035.22	-30.79
1035.378	59.11
1035.537	-5.99
1035.695	26.75
1035.853	43.22
1036.011	25.98
1036.17	57.56
1036.328	-42.41
1036.486	40.7
1036.644	34.89
1036.802	-48.03
1036.96	-1.73
1037.119	19.58
1037.277	0.02
1037.435	-38.15
1037.593	-4.44
1037.751	27.72
1037.909	62.21
1038.067	62.21
