Data from gum_old_FLMT105791__69__15-43-57-257.txt Node

Date: Mon Mar 20 15:43:57 GMT 2023
User: antho
Spectrometer: FLMT10579
Trigger mode: 0
Integration Time (sec): 1.000000E-1
Scans to average: 10
Electric dark correction enabled: true
Nonlinearity correction enabled: false
Boxcar width: 0
XAxis mode: Wavelengths
Number of Pixels in Spectrum: 3648
>>>>>Begin Spectral Data<<<<<
345.248	-159.89
345.464	-159.89
345.681	-159.89
345.898	-175.78
346.114	-178.1
346.331	-45.39
346.548	29.79
346.764	-6.44
346.981	-6.83
347.197	-15.16
347.414	33.08
347.631	-19.04
347.847	51.88
348.064	-4.5
348.28	11.96
348.497	-23.3
348.713	-6.05
348.93	27.27
349.146	32.31
349.363	-4.31
349.579	24.94
349.796	19.91
350.012	-1.79
350.229	30.56
350.445	4.21
350.661	-17.49
350.878	-4.7
351.094	42.58
351.311	16.61
351.527	44.32
351.743	4.99
351.96	22.23
352.176	55.17
352.392	47.61
352.609	58.27
352.825	-20.39
353.041	9.45
353.257	18.36
353.474	19.13
353.69	24.75
353.906	40.25
354.122	-11.67
354.339	87.72
354.555	12.55
354.771	19.71
354.987	66.99
355.203	70.86
355.42	5.38
355.636	14.87
355.852	5.96
356.068	30.37
356.284	-26.4
356.5	71.83
356.716	60.4
356.932	19.91
357.148	42.38
357.364	16.03
357.58	75.71
357.796	70.09
358.012	74.93
358.228	36.18
358.444	-40.35
358.66	75.13
358.876	50.33
359.092	-1.99
359.308	28.63
359.524	46.64
359.74	13.9
359.956	1.5
360.172	43.54
360.388	79.78
360.604	21.65
360.819	115.81
361.035	46.45
361.251	55.94
361.467	15.84
361.683	84.81
361.898	74.16
362.114	72.03
362.33	48.19
362.546	72.8
362.762	39.28
362.977	43.16
363.193	5.18
363.409	79.39
363.624	5.38
363.84	23.39
364.056	47.81
364.271	68.93
364.487	61.37
364.703	13.71
364.918	20.68
365.134	53.23
365.35	49.36
365.565	137.51
365.781	54.01
365.996	56.91
366.212	114.07
366.427	67.96
366.643	43.16
366.858	34.63
367.074	25.53
367.289	98.38
367.505	149.91
367.72	23.39
367.936	35.21
368.151	87.53
368.367	72.8
368.582	42.77
368.798	62.73
369.013	92.76
369.228	66.02
369.444	62.92
369.659	128.6
369.874	87.33
370.09	120.66
370.305	6.93
370.52	40.44
370.736	91.79
370.951	76.29
371.166	124.92
371.381	115.81
371.597	77.26
371.812	27.08
372.027	23.2
372.242	66.21
372.458	140.61
372.673	27.27
372.888	77.26
373.103	86.75
373.318	157.66
373.533	79.58
373.749	73.96
373.964	-16.9
374.179	104.58
374.394	53.04
374.609	106.71
374.824	29.59
375.039	111.74
375.254	32.31
375.469	116.59
375.684	64.08
375.899	125.31
376.114	76.87
376.329	80.94
376.544	114.65
376.759	101.28
376.974	32.5
377.189	57.11
377.404	64.66
377.619	135.19
377.834	61.37
378.049	45.29
378.264	46.26
378.478	85.78
378.693	77.45
378.908	110
379.123	70.28
379.338	133.44
379.553	89.08
379.767	85.98
379.982	91.98
380.197	89.46
380.412	59.82
380.626	98.18
380.841	167.35
381.056	141.39
381.271	159.6
381.485	57.88
381.7	47.81
381.915	110.77
382.129	72.41
382.344	97.79
382.559	73.38
382.773	95.08
382.988	28.24
383.202	80.74
383.417	35.41
383.632	173.94
383.846	74.54
384.061	65.83
384.275	63.69
384.49	99.54
384.704	120.66
384.919	92.76
385.133	72.03
385.348	104.77
385.562	51.68
385.777	143.32
385.991	87.14
386.206	79.78
386.42	88.3
386.634	158.24
386.849	104.19
387.063	98.96
387.277	96.05
387.492	75.51
387.706	59.24
387.92	62.92
388.135	148.56
388.349	101.28
388.563	107.48
388.778	122.01
388.992	110.39
389.206	130.54
389.42	162.31
389.635	103.99
389.849	132.67
390.063	167.16
390.277	136.54
390.491	170.64
390.706	163.86
390.92	148.75
391.134	139.26
391.348	163.09
391.562	71.83
391.776	151.85
391.99	134.8
392.205	159.79
392.419	127.05
392.633	138.67
392.847	181.69
393.061	115.04
393.275	174.13
393.489	82.88
393.703	105.74
393.917	107.29
394.131	71.83
394.345	132.47
394.559	135.19
394.773	99.15
394.986	132.67
395.2	121.43
395.414	177.81
395.628	126.27
395.842	164.06
396.056	140.81
396.27	116.97
396.484	166.19
396.697	138.87
396.911	183.04
397.125	82.68
397.339	155.53
397.553	99.15
397.766	179.94
397.98	187.11
398.194	183.82
398.408	186.14
398.621	223.92
398.835	202.61
399.049	198.15
399.262	237.29
399.476	243.69
399.69	246.01
399.903	303.36
400.117	219.47
400.331	255.7
400.544	196.6
400.758	332.42
400.971	245.43
401.185	262.67
401.398	215.59
401.612	307.23
401.826	266.55
402.039	269.84
402.253	257.25
402.466	294.25
402.68	274.69
402.893	287.86
403.106	263.25
403.32	258.22
403.533	279.34
403.747	237.29
403.96	266.55
404.174	264.42
404.387	227.02
404.6	246.4
404.814	316.53
405.027	268.68
405.24	266.55
405.454	259.19
405.667	314.21
405.88	239.81
406.094	298.71
406.307	332.03
406.52	291.15
406.733	232.25
406.947	224.12
407.16	329.71
407.373	330.1
407.586	233.03
407.799	257.44
408.012	316.15
408.226	303.94
408.439	331.07
408.652	258.41
408.865	329.71
409.078	335.52
409.291	330.68
409.504	264.61
409.717	322.73
409.93	346.57
410.143	318.28
410.357	264.22
410.57	251.63
410.783	274.49
410.996	311.69
411.209	281.66
411.421	358
411.634	359.16
411.847	283.6
412.06	339.01
412.273	350.44
412.486	332.03
412.699	446.93
412.912	337.27
413.125	377.18
413.338	361.68
413.55	347.92
413.763	336.3
413.976	380.08
414.189	301.23
414.402	330.68
414.615	379.89
414.827	313.43
415.04	391.51
415.253	369.04
415.466	401.2
415.678	398.3
415.891	337.07
416.104	338.62
416.316	363.03
416.529	326.8
416.742	398.1
416.954	419.61
417.167	370.59
417.38	365.75
417.592	374.08
417.805	362.26
418.017	298.52
418.23	372.72
418.442	359.93
418.655	328.93
418.868	363.81
419.08	395.58
419.293	426.2
419.505	401.78
419.718	387.25
419.93	423.29
420.142	384.73
420.355	404.5
420.567	416.51
420.78	381.63
420.992	372.91
421.205	444.02
421.417	349.47
421.629	384.15
421.842	367.49
422.054	357.61
422.266	428.13
422.479	438.21
422.691	360.71
422.903	392.48
423.115	362.07
423.328	385.51
423.54	413.6
423.752	389.58
423.964	379.11
424.177	416.31
424.389	398.3
424.601	496.72
424.813	414.38
425.025	450.61
425.238	425.81
425.45	401.59
425.662	378.53
425.874	705
426.086	411.28
426.298	445.38
426.51	420.38
426.722	400.43
426.934	405.27
427.146	468.04
427.358	376.4
427.57	443.05
427.782	400.23
427.994	397.33
428.206	393.65
428.418	398.1
428.63	454.87
428.842	485.68
429.054	456.03
429.266	461.84
429.478	401.2
429.69	420.58
429.902	354.32
430.114	438.01
430.325	395.39
430.537	378.53
430.749	348.5
430.961	260.74
431.173	347.15
431.384	374.08
431.596	296.38
431.808	378.34
432.02	407.01
432.231	487.81
432.443	498.46
432.655	472.5
432.867	442.86
433.078	463.01
433.29	519.97
433.502	489.36
433.713	509.51
433.925	512.03
434.136	502.34
434.348	386.28
434.56	413.02
434.771	550.39
434.983	383.76
435.194	454.48
435.406	480.25
435.617	543.22
435.829	581.39
436.04	532.95
436.252	570.54
436.463	586.62
436.675	574.41
436.886	535.66
437.098	565.5
437.309	602.31
437.521	547.29
437.732	579.64
437.943	555.23
438.155	532.56
438.366	482.58
438.578	588.94
438.789	515.32
439	536.83
439.211	499.82
439.423	506.21
439.634	549.42
439.845	558.52
440.057	536.83
440.268	573.83
440.479	573.06
440.69	562.01
440.902	545.16
441.113	528.88
441.324	534.11
441.535	601.54
441.746	637.77
441.957	564.72
442.168	569.37
442.38	642.03
442.591	655.2
442.802	569.76
443.013	611.42
443.224	623.62
443.435	623.04
443.646	615.1
443.857	600.76
444.068	571.12
444.279	596.31
444.49	713.72
444.701	604.25
444.912	766.61
445.123	671.48
445.334	634.47
445.545	656.56
445.756	631.37
445.967	604.64
446.178	639.7
446.388	625.56
446.599	632.92
446.81	661.21
447.021	613.16
447.232	677.29
447.443	667.41
447.653	619.75
447.864	688.14
448.075	665.28
448.286	716.82
448.496	687.56
448.707	720.88
448.918	662.57
449.129	742.39
449.339	647.84
449.55	735.03
449.761	666.64
449.971	732.12
450.182	704.61
450.393	703.64
450.603	665.47
450.814	716.82
451.024	740.65
451.235	767.77
451.446	825.7
451.656	791.02
451.867	697.83
452.077	704.61
452.288	779.01
452.498	754.98
452.709	730.77
452.919	729.99
453.13	679.23
453.34	727.67
453.55	657.34
453.761	718.37
453.971	704.8
454.182	706.94
454.392	715.65
454.602	764.87
454.813	735.03
455.023	737.74
455.233	661.6
455.444	734.25
455.654	619.94
455.864	692.99
456.075	696.09
456.285	697.25
456.495	700.15
456.705	705.19
456.916	767
457.126	815.63
457.336	756.34
457.546	671.48
457.756	771.07
457.967	801.1
458.177	728.05
458.387	738.71
458.597	702.67
458.807	735.22
459.017	715.85
459.227	714.3
459.437	692.79
459.647	756.15
459.857	785.02
460.068	736
460.278	803.42
460.488	770.1
460.698	835
460.908	742.39
461.117	758.28
461.327	788.5
461.537	768.93
461.747	811.56
461.957	792.57
462.167	905.53
462.377	827.83
462.587	781.53
462.797	838.3
463.007	793.54
463.216	841.78
463.426	842.75
463.636	858.06
463.846	738.71
464.056	765.64
464.265	830.55
464.475	787.73
464.685	817.56
464.895	834.42
465.104	829.58
465.314	878.79
465.524	805.55
465.733	766.42
465.943	893.32
466.153	890.03
466.362	898.94
466.572	869.49
466.782	834.61
466.991	853.41
467.201	874.91
467.41	760.6
467.62	851.28
467.829	841.59
468.039	878.01
468.249	851.66
468.458	847.98
468.668	882.47
468.877	894.87
469.086	924.9
469.296	911.14
469.505	872.4
469.715	952.99
469.924	893.32
470.134	943.89
470.343	932.46
470.552	871.81
470.762	850.31
470.971	831.32
471.18	909.79
471.39	911.14
471.599	852.44
471.808	932.07
472.018	890.22
472.227	967.91
472.436	966.17
472.645	959.58
472.855	914.63
473.064	1014.02
473.273	993.49
473.482	980.31
473.691	1026.81
473.901	1008.79
474.11	979.73
474.319	1099.27
474.528	971.59
474.737	1069.44
474.946	1044.44
475.155	1045.41
475.364	1115.94
475.573	1042.89
475.783	1077.77
475.992	1054.91
476.201	1098.89
476.41	1044.25
476.619	1027.78
476.828	1077.77
477.037	1036.69
477.245	1045.99
477.454	1105.09
477.663	1080.29
477.872	1082.61
478.081	1164.76
478.29	1091.72
478.499	1216.68
478.708	1177.55
478.917	1209.9
479.125	1128.53
479.334	1147.32
479.543	1134.92
479.752	1177.16
479.961	1175.03
480.169	1220.75
480.378	1167.86
480.587	1307.36
480.796	1233.73
481.004	1203.9
481.213	1216.88
481.422	1236.45
481.63	1277.91
481.839	1292.44
482.048	1328.28
482.256	1262.8
482.465	1317.82
482.674	1357.93
482.882	1300.77
483.091	1358.31
483.299	1323.44
483.508	1324.21
483.716	1321.7
483.925	1346.3
484.134	1299.22
484.342	1327.9
484.551	1368.19
484.759	1371.68
484.967	1388.54
485.176	1392.22
485.384	1385.63
485.593	1378.46
485.801	1399.58
486.01	1322.28
486.218	1261.44
486.426	1180.84
486.635	1175.8
486.843	1186.27
487.051	1194.21
487.26	1205.06
487.468	1271.9
487.676	1318.98
487.885	1275.78
488.093	1348.82
488.301	1373.23
488.509	1381.56
488.717	1424.77
488.926	1424.19
489.134	1418.57
489.342	1424.57
489.55	1363.54
489.758	1381.18
489.967	1432.71
490.175	1518.35
490.383	1452.09
490.591	1584.03
490.799	1458.67
491.007	1533.65
491.215	1509.82
491.423	1467.97
491.631	1527.07
491.839	1495.29
492.047	1528.42
492.255	1444.72
492.463	1417.02
492.671	1472.82
492.879	1524.55
493.087	1493.55
493.295	1543.92
493.503	1552.64
493.711	1551.48
493.919	1567.75
494.127	1588.29
494.334	1575.12
494.542	1520.67
494.75	1523.97
494.958	1545.86
495.166	1623.17
495.374	1655.91
495.581	1650.29
495.789	1630.14
495.997	1663.66
496.205	1585.77
496.412	1565.82
496.62	1614.45
496.828	1618.9
497.035	1638.08
497.243	1678.97
497.451	1643.51
497.658	1630.14
497.866	1631.3
498.074	1731.66
498.281	1642.54
498.489	1699.5
498.696	1619.1
498.904	1597.78
499.112	1592.17
499.319	1656.68
499.527	1637.5
499.734	1678.58
499.942	1611.93
500.149	1632.85
500.357	1676.06
500.564	1609.8
500.771	1637.5
500.979	1595.07
501.186	1588.49
501.394	1642.15
501.601	1567.75
501.808	1655.72
502.016	1589.45
502.223	1596.04
502.43	1581.51
502.638	1609.22
502.845	1566.79
503.052	1694.27
503.26	1615.8
503.467	1744.45
503.674	1669.86
503.881	1683.81
504.089	1744.45
504.296	1688.85
504.503	1641.77
504.71	1657.85
504.917	1602.24
505.125	1652.62
505.332	1700.08
505.539	1712.48
505.746	1760.53
505.953	1762.08
506.16	1726.24
506.367	1831.64
506.574	1833.77
506.781	1850.82
506.988	1764.21
507.195	1771.38
507.402	1741.35
507.609	1836.87
507.816	1736.9
508.023	1769.25
508.23	1679.55
508.437	1708.41
508.644	1724.88
508.851	1761.31
509.058	1775.06
509.265	1769.64
509.472	1803.74
509.679	1868.26
509.885	1767.12
510.092	1794.83
510.299	1824.28
510.506	1798.51
510.713	1763.83
510.92	1776.61
511.126	1818.27
511.333	1835.51
511.54	1814.01
511.746	1907.39
511.953	1871.94
512.16	1881.24
512.367	1846.56
512.573	1818.27
512.78	1843.84
512.987	1857.21
513.193	1826.99
513.4	1752.4
513.606	1814.01
513.813	1833.96
514.02	1823.89
514.226	1909.91
514.433	1873.49
514.639	1775.64
514.846	1819.24
515.052	1799.28
515.259	1839.97
515.465	1814.01
515.672	1872.52
515.878	1923.28
516.085	1853.34
516.291	1919.41
516.497	1862.83
516.704	1823.11
516.91	1788.43
517.117	1724.69
517.323	1659.2
517.529	1681.29
517.736	1658.04
517.942	1669.47
518.148	1691.75
518.354	1751.62
518.561	1742.9
518.767	1748.33
518.973	1810.52
519.179	1813.81
519.386	1778.36
519.592	1796.76
519.798	1807.81
520.004	1920.76
520.21	1873.29
520.417	1913.21
520.623	1937.42
520.829	1947.69
521.035	1977.53
521.241	1932.19
521.447	2000.39
521.653	2102.11
521.859	1986.44
522.065	2028.1
522.271	2058.52
522.477	2060.65
522.683	2111.6
522.889	2019.57
523.095	2027.71
523.301	2003.49
523.507	2001.55
523.713	2027.13
523.919	2014.15
524.125	2078.86
524.331	2078.08
524.537	2164.5
524.742	2173.41
524.948	2178.64
525.154	2180.96
525.36	2265.83
525.566	2161.2
525.772	2240.06
525.977	2135.63
526.183	2138.92
526.389	2208.09
526.595	2110.63
526.8	2103.66
527.006	2045.92
527.212	1957.19
527.417	1950.99
527.623	1961.25
527.829	2032.17
528.034	2076.53
528.24	2069.95
528.446	2094.75
528.651	2190.46
528.857	2161.78
529.062	2234.05
529.268	2240.25
529.473	2202.86
529.679	2266.41
529.884	2345.07
530.09	2334.41
530.295	2272.61
530.501	2320.85
530.706	2285.39
530.912	2247.81
531.117	2283.84
531.323	2327.82
531.528	2368.71
531.733	2349.52
531.939	2325.89
532.144	2361.73
532.35	2318.72
532.555	2329.37
532.76	2323.37
532.966	2297.79
533.171	2284.81
533.376	2198.79
533.581	2216.42
533.787	2280.74
533.992	2330.92
534.197	2308.64
534.402	2324.53
534.607	2356.31
534.813	2387.89
535.018	2336.54
535.223	2383.04
535.428	2361.54
535.633	2443.1
535.838	2413.65
536.043	2385.95
536.249	2521.77
536.454	2409.97
536.659	2418.89
536.864	2414.82
537.069	2381.3
537.274	2392.15
537.479	2389.05
537.684	2346.81
537.889	2305.54
538.094	2491.35
538.299	2397.38
538.504	2390.21
538.708	2415.4
538.913	2433.61
539.118	2432.25
539.323	2440.39
539.528	2386.72
539.733	2373.55
539.938	2423.54
540.142	2372
540.347	2363.47
540.552	2343.32
540.757	2323.17
540.962	2351.27
541.166	2273.96
541.371	2250.71
541.576	2308.45
541.781	2253.43
541.985	2407.84
542.19	2396.02
542.395	2460.54
542.599	2470.81
542.804	2460.54
543.008	2502
543.213	2406.49
543.418	2381.49
543.622	2420.63
543.827	2371.42
544.031	2465.39
544.236	2453.57
544.44	2467.13
544.645	2565.75
544.849	2491.35
545.054	2523.51
545.258	2551.02
545.463	2525.25
545.667	2423.54
545.872	2468.48
546.076	2501.23
546.281	2499.1
546.485	2462.09
546.689	2511.5
546.894	2514.02
547.098	2527.58
547.302	2424.12
547.507	2466.55
547.711	2490.18
547.915	2521.96
548.119	2428.57
548.324	2401.64
548.528	2501.62
548.732	2455.31
548.936	2504.13
549.141	2523.51
549.345	2462.48
549.549	2494.64
549.753	2496
549.957	2582.21
550.161	2568.85
550.366	2522.35
550.57	2475.07
550.774	2527
550.978	2508.2
551.182	2527.97
551.386	2499.29
551.59	2505.68
551.794	2491.93
551.998	2541.92
552.202	2477.59
552.406	2465.58
552.61	2542.5
552.814	2494.25
553.018	2541.92
553.222	2497.55
553.426	2504.33
553.63	2543.47
553.833	2498.13
554.037	2415.59
554.241	2490.96
554.445	2511.11
554.649	2468.29
554.853	2458.02
555.056	2573.69
555.26	2506.46
555.464	2540.75
555.668	2504.33
555.871	2549.67
556.075	2589.58
556.279	2471.97
556.483	2437.1
556.686	2482.63
556.89	2511.88
557.094	2533.39
557.297	2399.9
557.501	2505.3
557.704	2403.39
557.908	2465
558.112	2392.15
558.315	2512.85
558.519	2427.41
558.722	2438.45
558.926	2421.4
559.129	2336.74
559.333	2341
559.536	2360.18
559.74	2327.63
559.943	2305.16
560.147	2287.14
560.35	2351.66
560.553	2355.72
560.757	2278.03
560.96	2418.3
561.164	2330.54
561.367	2442.52
561.57	2419.08
561.774	2393.5
561.977	2351.46
562.18	2305.16
562.384	2463.84
562.587	2338.29
562.79	2322.21
562.993	2330.15
563.197	2362.12
563.4	2454.54
563.603	2405.32
563.806	2449.69
564.009	2337.9
564.212	2354.76
564.416	2297.02
564.619	2329.57
564.822	2272.8
565.025	2361.34
565.228	2323.37
565.431	2357.27
565.634	2210.03
565.837	2241.61
566.04	2210.41
566.243	2269.12
566.446	2125.16
566.649	2286.75
566.852	2210.99
567.055	2201.5
567.258	2207.31
567.461	2295.66
567.664	2293.53
567.867	2206.73
568.07	2237.54
568.273	2258.46
568.475	2329.37
568.678	2203.25
568.881	2209.64
569.084	2193.17
569.287	2123.42
569.489	2143.76
569.692	2199.56
569.895	2225.91
570.098	2144.35
570.3	2123.23
570.503	2094.55
570.706	2110.25
570.909	2098.62
571.111	2043.02
571.314	2038.75
571.516	2016.28
571.719	2073.24
571.922	2054.45
572.124	2068.78
572.327	2083.9
572.529	2025.58
572.732	2028.1
572.935	2080.41
573.137	2166.82
573.34	2094.94
573.542	2104.05
573.745	2108.89
573.947	2087.58
574.15	2090.1
574.352	2069.95
574.554	2155.2
574.757	2049.6
574.959	2033.72
575.162	2005.04
575.364	1990.51
575.566	2153.45
575.769	2035.85
575.971	2049.8
576.173	1896.93
576.376	1989.74
576.578	2054.45
576.78	2085.45
576.982	1935.1
577.185	1983.73
577.387	1928.71
577.589	1964.16
577.791	2015.31
577.993	2027.13
578.196	1961.45
578.398	1991.87
578.6	1991.09
578.802	1946.34
579.004	1891.7
579.206	1906.42
579.408	1994.39
579.61	1906.04
579.812	1976.17
580.014	1882.21
580.216	1914.95
580.418	1927.54
580.62	1888.02
580.822	1869.81
581.024	1938.39
581.226	1976.17
581.428	1934.52
581.63	2016.47
581.832	1935.87
582.034	2000.39
582.236	1939.36
582.438	1967.84
582.64	2010.47
582.841	2028.1
583.043	2028.29
583.245	1950.79
583.447	1997.1
583.649	1947.11
583.85	1979.85
584.052	1987.22
584.254	1893.83
584.456	1997.49
584.657	1919.41
584.859	1922.7
585.061	1902.74
585.262	1908.36
585.464	1878.72
585.666	1938.97
585.867	1891.12
586.069	1937.04
586.27	1905.07
586.472	1893.83
586.674	1858.57
586.875	1875.04
587.077	1884.14
587.278	1892.28
587.48	1892.28
587.681	1990.32
587.883	1915.92
588.084	1829.31
588.285	1870.97
588.487	1875.42
588.688	1830.48
588.89	1769.64
589.091	1752.01
589.292	1752.2
589.494	1731.28
589.695	1674.7
589.896	1589.45
590.098	1622
590.299	1696.79
590.5	1623.94
590.702	1690.59
590.903	1704.35
591.104	1777.39
591.305	1761.11
591.507	1809.36
591.708	1790.37
591.909	1736.7
592.11	1807.81
592.311	1811.68
592.512	1731.28
592.714	1721.78
592.915	1710.74
593.116	1720.62
593.317	1754.91
593.518	1737.48
593.719	1744.65
593.92	1781.84
594.121	1814.98
594.322	1742.32
594.523	1801.22
594.724	1680.71
594.925	1731.47
595.126	1734.96
595.327	1764.6
595.528	1764.41
595.729	1733.8
595.929	1734.18
596.13	1740.96
596.331	1750.85
596.532	1747.36
596.733	1808.97
596.934	1793.86
597.135	1771.77
597.335	1788.24
597.536	1742.9
597.737	1750.65
597.938	1707.83
598.138	1759.37
598.339	1721.98
598.54	1736.9
598.74	1710.16
598.941	1757.43
599.142	1791.34
599.342	1715.97
599.543	1684.58
599.744	1697.56
599.944	1688.85
600.145	1746.2
600.345	1723.14
600.546	1801.03
600.746	1755.5
600.947	1805.48
601.147	1741.35
601.348	1745.42
601.548	1657.85
601.749	1738.64
601.949	1657.65
602.15	1677.42
602.35	1701.05
602.551	1737.09
602.751	1668.31
602.951	1680.71
603.152	1620.26
603.352	1729.73
603.552	1689.04
603.753	1734.57
603.953	1719.07
604.153	1703.18
604.354	1721.78
604.554	1710.16
604.754	1699.7
604.954	1650.68
605.155	1755.11
605.355	1680.9
605.555	1756.66
605.755	1757.05
605.955	1716.36
606.155	1764.02
606.356	1673.15
606.556	1702.6
606.756	1730.31
606.956	1653.2
607.156	1754.14
607.356	1658.43
607.556	1704.15
607.756	1697.18
607.956	1736.7
608.156	1686.52
608.356	1649.13
608.556	1695.63
608.756	1683.42
608.956	1652.42
609.156	1647
609.356	1643.32
609.556	1611.73
609.755	1671.22
609.955	1618.13
610.155	1666.76
610.355	1664.63
610.555	1604.37
610.755	1637.12
610.954	1547.22
611.154	1645.06
611.354	1642.93
611.554	1622.97
611.753	1579.77
611.953	1563.88
612.153	1619.87
612.352	1615.22
612.552	1571.63
612.752	1535.79
612.951	1614.45
613.151	1610.18
613.351	1545.28
613.55	1598.75
613.75	1609.99
613.949	1578.41
614.149	1551.87
614.348	1569.5
614.548	1542.37
614.747	1491.22
614.947	1554.19
615.146	1470.11
615.346	1587.71
615.545	1586.94
615.745	1552.06
615.944	1590.62
616.144	1556.9
616.343	1564.07
616.542	1517.96
616.742	1511.18
616.941	1500.52
617.14	1436.59
617.34	1494.32
617.539	1480.57
617.738	1459.64
617.938	1589.45
618.137	1501.88
618.336	1489.48
618.535	1535.4
618.734	1523.19
618.934	1505.95
619.133	1497.62
619.332	1540.63
619.531	1488.71
619.73	1507.5
619.929	1518.93
620.128	1539.47
620.328	1574.34
620.527	1494.52
620.726	1457.9
620.925	1507.3
621.124	1509.05
621.323	1509.44
621.522	1426.51
621.721	1477.86
621.92	1439.88
622.119	1494.91
622.318	1436.39
622.517	1487.35
622.715	1472.24
622.914	1397.64
623.113	1455.96
623.312	1399.97
623.511	1452.67
623.71	1439.3
623.909	1440.27
624.107	1512.34
624.306	1392.8
624.505	1404.43
624.704	1415.86
624.902	1396.29
625.101	1451.51
625.3	1414.5
625.499	1420.12
625.697	1434.65
625.896	1401.91
626.095	1455.38
626.293	1377.49
626.492	1376.33
626.69	1426.12
626.889	1401.13
627.088	1439.11
627.286	1395.51
627.485	1368.78
627.683	1391.06
627.882	1424.57
628.08	1325.76
628.279	1374.2
628.477	1430.77
628.676	1333.13
628.874	1417.79
629.073	1326.54
629.271	1328.48
629.469	1362.77
629.668	1348.04
629.866	1343.01
630.065	1330.61
630.263	1391.44
630.461	1309.88
630.66	1359.28
630.858	1378.85
631.056	1405.78
631.254	1408.69
631.453	1325.76
631.651	1372.26
631.849	1359.67
632.047	1354.44
632.245	1337.78
632.444	1359.48
632.642	1370.91
632.84	1405.59
633.038	1311.43
633.236	1287.98
633.434	1306
633.632	1312.2
633.83	1315.3
634.028	1357.73
634.227	1307.75
634.425	1395.9
634.623	1327.31
634.821	1337.58
635.019	1335.45
635.216	1316.66
635.414	1374.78
635.612	1308.91
635.81	1336.61
636.008	1372.07
636.206	1302.32
636.404	1368.39
636.602	1256.79
636.8	1295.35
636.997	1355.41
637.195	1359.09
637.393	1323.83
637.591	1374.98
637.789	1342.04
637.986	1347.08
638.184	1304.65
638.382	1390.28
638.58	1386.79
638.777	1400.55
638.975	1361.61
639.173	1352.11
639.37	1309.49
639.568	1344.94
639.765	1375.36
639.963	1328.67
640.161	1340.29
640.358	1341.26
640.556	1270.74
640.753	1292.05
640.951	1269.38
641.148	1294.76
641.346	1286.82
641.543	1287.01
641.741	1328.67
641.938	1255.43
642.136	1293.21
642.333	1234.32
642.531	1311.62
642.728	1330.22
642.925	1308.52
643.123	1241.48
643.32	1264.54
643.517	1262.02
643.715	1282.36
643.912	1229.28
644.109	1309.1
644.306	1262.8
644.504	1243.62
644.701	1272.68
644.898	1248.07
645.095	1247.3
645.293	1225.21
645.49	1267.25
645.687	1269.77
645.884	1298.83
646.081	1205.45
646.278	1238.19
646.475	1175.42
646.672	1213.2
646.87	1233.54
647.067	1226.37
647.264	1245.36
647.461	1170.77
647.658	1111.29
647.855	1242.45
648.052	1203.9
648.249	1094.82
648.446	1177.93
648.642	1138.8
648.839	1140.54
649.036	1155.27
649.233	1104.89
649.43	1099.66
649.627	1105.09
649.824	1081.45
650.021	1104.12
650.217	1101.4
650.414	1103.92
650.611	1185.3
650.808	1159.33
651.004	1148.68
651.201	1154.49
651.398	1197.31
651.595	1138.22
651.791	1104.5
651.988	1171.93
652.185	1097.72
652.381	1177.93
652.578	1068.27
652.775	1147.71
652.971	1112.64
653.168	1133.95
653.364	1183.75
653.561	1105.47
653.757	1114.39
653.954	1110.9
654.15	1079.12
654.347	1202.35
654.543	1150.42
654.74	1095.98
654.936	1067.5
655.133	1108.19
655.329	1112.06
655.525	1086.49
655.722	1113.8
655.918	1064.59
656.115	1088.23
656.311	973.73
656.507	963.26
656.704	927.61
656.9	945.83
657.096	951.06
657.292	921.8
657.489	1009.37
657.685	1057.62
657.881	985.74
658.077	997.75
658.273	1019.26
658.47	1095.98
658.666	1049.87
658.862	1088.23
659.058	1036.89
659.254	1092.88
659.45	1048.32
659.646	1082.22
659.842	1066.53
660.038	1112.06
660.234	1044.64
660.43	1076.8
660.626	1165.15
660.822	1096.95
661.018	1082.61
661.214	1104.89
661.41	1052
661.606	1152.55
661.802	1130.85
661.998	1102.57
662.194	1080.48
662.39	1090.94
662.586	1080.48
662.781	1116.71
662.977	1122.14
663.173	1135.12
663.369	1070.21
663.564	1121.55
663.76	1132.02
663.956	1076.22
664.152	1122.33
664.347	1025.26
664.543	1085.9
664.739	1069.44
664.934	1026.62
665.13	999.88
665.326	1104.5
665.521	1083
665.717	1006.08
665.912	1051.22
666.108	982.83
666.304	1076.41
666.499	1043.67
666.695	955.32
666.89	1051.42
667.086	1110.51
667.281	1090.36
667.477	1136.28
667.672	1048.32
667.867	1077.96
668.063	1049.87
668.258	1010.54
668.454	1046.38
668.649	1133.37
668.844	1076.22
669.04	1077.57
669.235	1036.11
669.43	1047.93
669.626	1012.86
669.821	1017.51
670.016	1000.27
670.211	1017.51
670.407	992.32
670.602	1056.65
670.797	1021.39
670.992	1061.49
671.187	990
671.382	1055.1
671.578	1003.56
671.773	1030.49
671.968	985.74
672.163	1040.57
672.358	1051.42
672.553	976.05
672.748	963.65
672.943	1087.65
673.138	1027.97
673.333	1069.05
673.528	977.41
673.723	1008.79
673.918	993.68
674.113	944.86
674.308	1090.17
674.503	1035.53
674.698	1046.38
674.892	986.51
675.087	1016.54
675.282	1028.36
675.477	986.32
675.672	1023.13
675.867	968.3
676.061	952.41
676.256	944.08
676.451	960.16
676.646	1009.57
676.84	947.96
677.035	934.2
677.23	962.49
677.424	997.94
677.619	1003.76
677.814	1019.06
678.008	1025.65
678.203	891.96
678.397	944.86
678.592	988.26
678.787	1014.61
678.981	946.02
679.176	972.18
679.37	984.77
679.565	910.18
679.759	965.98
679.954	975.47
680.148	1045.99
680.342	1034.56
680.537	999.88
680.731	959.19
680.926	989.22
681.12	1015.38
681.314	959.19
681.509	952.03
681.703	980.89
681.897	996.97
682.092	958.42
682.286	957.06
682.48	1024.1
682.674	1022.94
682.869	930.33
683.063	981.48
683.257	1056.07
683.451	937.69
683.645	976.24
683.839	971.4
684.034	962.68
684.228	995.62
684.422	922.19
684.616	908.82
684.81	981.28
685.004	933.23
685.198	923.16
685.392	952.61
685.586	915.41
685.78	924.32
685.974	956.09
686.168	995.04
686.362	996.59
686.556	928
686.75	878.6
686.944	895.06
687.138	896.81
687.331	790.63
687.525	792.38
687.719	763.9
687.913	792.77
688.107	779.2
688.301	776.49
688.494	827.45
688.688	760.8
688.882	760.41
689.076	738.71
689.269	783.85
689.463	905.33
689.657	794.51
689.85	815.05
690.044	833.26
690.238	819.7
690.431	798.97
690.625	807.49
690.818	874.53
691.012	827.25
691.205	867.36
691.399	800.13
691.593	881.7
691.786	904.94
691.98	890.61
692.173	964.81
692.366	904.56
692.56	949.7
692.753	967.14
692.947	875.69
693.14	973.34
693.333	978.18
693.527	871.81
693.72	941.76
693.914	935.17
694.107	927.61
694.3	925.87
694.493	887.51
694.687	972.56
694.88	923.74
695.073	1007.05
695.266	949.89
695.46	934.98
695.653	1015.38
695.846	993.1
696.039	925.09
696.232	952.8
696.425	964.81
696.618	996.01
696.812	1017.51
697.005	1070.02
697.198	1113.22
697.391	1042.12
697.584	1073.31
697.777	1140.54
697.97	1099.27
698.163	1113.8
698.356	1088.23
698.549	1173.87
698.742	1168.83
698.935	1101.02
699.127	1135.7
699.32	1115.55
699.513	1105.86
699.706	1155.27
699.899	1144.22
700.092	1150.42
700.285	1199.63
700.477	1103.15
700.67	1176.58
700.863	1190.92
701.056	1260.66
701.248	1217.85
701.441	1255.43
701.634	1207.77
701.826	1334.09
702.019	1209.71
702.212	1324.8
702.404	1233.73
702.597	1241.29
702.79	1296.51
702.982	1308.33
703.175	1337.78
703.367	1354.24
703.56	1364.32
703.752	1430.19
703.945	1395.32
704.137	1398.61
704.33	1440.85
704.522	1434.46
704.715	1440.85
704.907	1483.28
705.1	1486.38
705.292	1482.51
705.484	1496.07
705.677	1542.95
705.869	1557.29
706.061	1562.52
706.254	1623.75
706.446	1594.3
706.638	1560.59
706.831	1620.84
707.023	1603.98
707.215	1699.89
707.407	1659.4
707.599	1685.36
707.792	1728.18
707.984	1711.13
708.176	1748.52
708.368	1726.24
708.56	1742.13
708.752	1742.32
708.944	1741.16
709.136	1766.15
709.329	1771.38
709.521	1907.59
709.713	1838.42
709.905	1871.74
710.097	1898.87
710.289	1873.49
710.481	1853.34
710.672	1897.51
710.864	1964.74
711.056	1998.65
711.248	1931.42
711.44	2002.91
711.632	1970.36
711.824	1980.63
712.016	2048.83
712.207	2104.05
712.399	2051.15
712.591	2165.46
712.783	2090.29
712.975	2130.59
713.166	2094.36
713.358	2140.66
713.55	2162.75
713.741	2189.68
713.933	2182.71
714.125	2198.4
714.316	2200.15
714.508	2242.38
714.7	2262.53
714.891	2220.68
715.083	2276.87
715.274	2229.01
715.466	2287.33
715.657	2336.54
715.849	2244.13
716.04	2303.02
716.232	2250.52
716.423	2341.77
716.615	2281.33
716.806	2203.83
716.998	2193.95
717.189	2146.86
717.381	2087
717.572	2078.28
717.763	2115.87
717.955	2073.24
718.146	2058.71
718.337	2000.39
718.528	1954.67
718.72	1921.34
718.911	1992.84
719.102	1929.09
719.293	1951.18
719.485	1980.44
719.676	1953.89
719.867	1915.14
720.058	1925.61
720.249	1968.04
720.44	1932.97
720.632	2044.57
720.823	2023.25
721.014	2157.52
721.205	2200.53
721.396	2251.1
721.587	2347.01
721.778	2391.95
721.969	2385.56
722.16	2450.08
722.351	2471.39
722.542	2611.47
722.733	2648.28
722.924	2530.29
723.115	2622.13
723.305	2583.57
723.496	2616.51
723.687	2480.11
723.878	2477.78
724.069	2517.7
724.26	2511.69
724.45	2468.68
724.641	2484.37
724.832	2488.25
725.023	2472.94
725.213	2509.37
725.404	2450.47
725.595	2467.32
725.785	2463.84
725.976	2561.1
726.167	2520.8
726.357	2556.83
726.548	2678.51
726.739	2554.51
726.929	2645.76
727.12	2685.48
727.31	2721.71
727.501	2657.97
727.691	2635.3
727.882	2675.99
728.072	2759.49
728.263	2712.99
728.453	2774.8
728.644	2776.74
728.834	2742.83
729.024	2784.49
729.215	2720.74
729.405	2762.4
729.596	2861.6
729.786	2830.6
729.976	2886.4
730.167	2862.76
730.357	2864.5
730.547	2817.62
730.737	2904.8
730.928	2945.49
731.118	2970.48
731.308	2943.17
731.498	2956.53
731.688	3053.02
731.879	3035.97
732.069	3090.41
732.259	3116.76
732.449	3154.93
732.639	3211.7
732.829	3265.75
733.019	3313.61
733.209	3337.64
733.399	3353.72
733.589	3426.18
733.779	3420.95
733.969	3393.63
734.159	3484.11
734.349	3520.53
734.539	3595.51
734.729	3563.74
734.919	3620.7
735.109	3662.74
735.299	3586.6
735.488	3577.88
735.678	3579.24
735.868	3649.57
736.058	3635.42
736.248	3611.01
736.437	3594.74
736.627	3561.99
736.817	3704.98
737.007	3660.61
737.196	3687.74
737.386	3718.54
737.576	3677.47
737.765	3744.31
737.955	3683.67
738.144	3834.79
738.334	3788.48
738.524	3734.43
738.713	3777.44
738.903	3731.91
739.092	3797.4
739.282	3834.98
739.471	3775.5
739.661	3819.1
739.85	3802.43
740.04	3812.51
740.229	3889.23
740.419	3874.31
740.608	3901.63
740.797	3881.48
740.987	3986.11
741.176	3941.35
741.365	3876.83
741.555	3841.38
741.744	3949.68
741.933	3895.63
742.123	3939.41
742.312	3945.61
742.501	3998.7
742.69	4004.51
742.88	3923.14
743.069	4015.36
743.258	4005.87
743.447	4076.01
743.636	4041.13
743.825	4023.11
744.014	4016.14
744.204	4038.42
744.393	4025.83
744.582	4098.87
744.771	4126.57
744.96	4045.2
745.149	4069.81
745.338	4027.96
745.527	4157.96
745.716	4043.07
745.905	4050.04
746.094	4122.51
746.283	4151.37
746.471	4073.68
746.66	4176.95
746.849	4145.95
747.038	4190.9
747.227	4094.8
747.416	4125.99
747.604	4068.64
747.793	4131.42
747.982	4152.73
748.171	4128.7
748.359	4143.24
748.548	4124.25
748.737	4146.53
748.926	4120.57
749.114	3999.86
749.303	4102.16
749.491	4140.72
749.68	4023.11
749.869	4148.66
750.057	4084.72
750.246	4068.26
750.434	4076.01
750.623	4065.74
750.811	4054.69
751	4122.31
751.188	4081.04
751.377	4067.29
751.565	4040.74
751.754	4036.87
751.942	4025.63
752.131	4082.4
752.319	4068.84
752.507	3981.84
752.696	4053.92
752.884	4086.27
753.072	4035.71
753.261	4070.77
753.449	4095.38
753.637	4006.45
753.825	4087.82
754.014	4061.86
754.202	4042.29
754.39	4112.43
754.578	4094.99
754.766	4004.13
754.955	4037.84
755.143	4121.73
755.331	4012.84
755.519	4037.64
755.707	4013.23
755.895	3997.54
756.083	4041.13
756.271	3955.11
756.459	3988.43
756.647	4052.56
756.835	3963.24
757.023	3977.39
757.211	3923.91
757.399	3921.4
757.587	3948.52
757.775	3939.22
757.963	3906.86
758.151	3966.34
758.339	3899.7
758.526	3945.42
758.714	3935.35
758.902	3848.55
759.09	3805.53
759.278	3610.04
759.465	3431.21
759.653	3070.85
759.841	2805.99
760.028	2456.67
760.216	2179.03
760.404	2032.55
760.591	1729.34
760.779	1545.28
760.967	1386.6
761.154	1213.97
761.342	1262.21
761.529	1257.18
761.717	1339.91
761.905	1353.86
762.092	1422.06
762.28	1433.1
762.467	1470.69
762.655	1394.93
762.842	1440.85
763.029	1457.9
763.217	1494.32
763.404	1481.34
763.592	1526.49
763.779	1492.77
763.966	1536.56
764.154	1585.39
764.341	1653
764.528	1642.73
764.716	1738.83
764.903	1810.71
765.09	1848.88
765.277	1905.46
765.465	2058.71
765.652	2106.95
765.839	2215.84
766.026	2314.84
766.213	2356.31
766.4	2451.24
766.588	2607.01
766.775	2608.76
766.962	2733.53
767.149	2718.03
767.336	2944.91
767.523	2866.25
767.71	2993.15
767.897	3081.11
768.084	3191.74
768.271	3204.72
768.458	3253.74
768.645	3315.16
768.832	3301.99
769.019	3294.24
769.206	3367.47
769.392	3434.51
769.579	3509.3
769.766	3442.65
769.953	3428.31
770.14	3500.38
770.327	3467.64
770.513	3496.31
770.7	3559.67
770.887	3498.25
771.073	3531.19
771.26	3510.65
771.447	3489.34
771.634	3485.85
771.82	3605.39
772.007	3450.59
772.193	3519.37
772.38	3502.32
772.567	3471.13
772.753	3497.86
772.94	3599.97
773.126	3519.95
773.313	3550.76
773.499	3507.36
773.686	3557.73
773.872	3461.25
774.059	3532.16
774.245	3438.38
774.432	3471.51
774.618	3384.72
774.804	3472.48
774.991	3434.12
775.177	3465.51
775.363	3443.61
775.55	3463.96
775.736	3412.03
775.922	3419.2
776.109	3464.73
776.295	3435.86
776.481	3456.98
776.667	3465.9
776.853	3390.14
777.04	3353.91
777.226	3398.47
777.412	3499.41
777.598	3346.55
777.784	3338.99
777.97	3356.23
778.156	3381.42
778.342	3396.92
778.528	3333.95
778.715	3327.75
778.901	3292.69
779.087	3378.52
779.272	3285.9
779.458	3314.97
779.644	3296.17
779.83	3280.29
780.016	3375.61
780.202	3277.57
780.388	3335.89
780.574	3218.09
780.76	3260.52
780.946	3267.11
781.131	3239.21
781.317	3260.52
781.503	3205.89
781.689	3228.36
781.874	3338.22
782.06	3222.74
782.246	3217.12
782.432	3228.17
782.617	3226.62
782.803	3290.17
782.989	3152.03
783.174	3162.88
783.36	3150.86
783.545	3143.31
783.731	3159.58
783.916	3076.27
784.102	3166.17
784.288	3113.28
784.473	3126.64
784.659	3106.49
784.844	3184.96
785.029	3090.61
785.215	3058.83
785.4	3059.03
785.586	3162.49
785.771	3067.55
785.956	3110.76
786.142	3070.85
786.327	3053.6
786.512	3068.71
786.698	3011.36
786.883	2940.26
787.068	3006.91
787.254	3033.26
787.439	2980.17
787.624	3008.46
787.809	2991.41
787.994	2999.16
788.18	3045.85
788.365	2903.06
788.55	2926.12
788.735	2941.23
788.92	2967.97
789.105	2970.29
789.29	2978.82
789.475	2913.33
789.66	2922.43
789.845	2910.81
790.03	2877.87
790.215	2958.08
790.4	2937.35
790.585	2918.17
790.77	2889.89
790.955	2781.39
791.14	2899.96
791.325	2951.5
791.51	2756.01
791.695	2878.45
791.879	2839.7
792.064	2787.78
792.249	2903.84
792.434	2836.99
792.618	2849.97
792.803	2852.1
792.988	2819.36
793.173	2849.78
793.357	2864.12
793.542	2813.36
793.727	2814.32
793.911	2843
794.096	2811.22
794.281	2861.79
794.465	2919.33
794.65	2799.41
794.834	2892.79
795.019	2878.65
795.203	2948.59
795.388	2911
795.572	2930.18
795.757	2880.59
795.941	2911.2
796.126	2867.99
796.31	2820.91
796.494	2899.38
796.679	2867.02
796.863	2894.92
797.048	2904.61
797.232	2880.97
797.416	2902.87
797.601	2915.85
797.785	2957.7
797.969	2963.9
798.153	2882.14
798.338	2878.26
798.522	2918.75
798.706	2966.22
798.89	2921.47
799.074	3028.03
799.258	2970.68
799.443	2901.7
799.627	2932.7
799.811	2987.53
799.995	2917.4
800.179	2895.31
800.363	2878.07
800.547	2904.22
800.731	2915.46
800.915	2859.47
801.099	2869.35
801.283	2893.57
801.467	2880.97
801.651	2890.08
801.835	2970.68
802.019	2893.37
802.202	2908.29
802.386	2868.77
802.57	2829.05
802.754	2859.47
802.938	2867.02
803.121	2876.13
803.305	2918.17
803.489	2892.4
803.673	2896.28
803.856	2873.22
804.04	2855.01
804.224	2890.66
804.407	2877.1
804.591	2899.38
804.775	2871.09
804.958	2888.92
805.142	3001.68
805.326	2874.39
805.509	2925.15
805.693	2935.22
805.876	2896.28
806.06	2885.43
806.243	2933.48
806.427	2933.09
806.61	2938.13
806.794	2885.82
806.977	2977.46
807.16	2868.19
807.344	2898.8
807.527	2874.39
807.71	2872.25
807.894	2872.64
808.077	2914.3
808.26	2851.91
808.444	2817.23
808.627	2916.23
808.81	2832.92
808.993	2790.3
809.177	2785.07
809.36	2825.56
809.543	2857.34
809.726	2736.44
809.909	2768.6
810.092	2721.33
810.276	2738.37
810.459	2749.03
810.642	2742.06
810.825	2686.26
811.008	2700.01
811.191	2615.54
811.374	2617.86
811.557	2665.33
811.74	2705.83
811.923	2589.19
812.106	2616.9
812.289	2540.37
812.472	2572.33
812.654	2578.92
812.837	2561.87
813.02	2495.03
813.203	2479.53
813.386	2425.09
813.569	2355.34
813.751	2274.16
813.934	2360.37
814.117	2331.7
814.3	2241.03
814.482	2247.42
814.665	2184.65
814.848	2182.71
815.03	2111.41
815.213	2110.63
815.396	2073.82
815.578	2066.46
815.761	2011.63
815.943	2095.72
816.126	1972.49
816.309	1957.77
816.491	1926.96
816.674	1834.93
816.856	1894.41
817.039	1856.05
817.221	1938.97
817.403	1882.98
817.586	1918.05
817.768	1993.8
817.951	1846.94
818.133	1855.86
818.315	1885.89
818.498	1898.29
818.68	1990.12
818.862	1939.75
819.045	1963.19
819.227	1948.85
819.409	1974.43
819.591	1979.08
819.774	1922.7
819.956	1867.29
820.138	1946.72
820.32	1935.68
820.502	1975.01
820.684	2072.08
820.866	2035.85
821.048	2086.8
821.231	2141.63
821.413	2102.88
821.595	2087.19
821.777	2054.45
821.959	2088.35
822.141	2175.73
822.323	2036.23
822.505	1992.84
822.686	1929.67
822.868	1852.37
823.05	1729.73
823.232	1715.39
823.414	1635.57
823.596	1710.93
823.778	1693.3
823.96	1730.89
824.141	1760.73
824.323	1716.16
824.505	1815.56
824.687	1874.26
824.868	1922.31
825.05	1997.49
825.232	2004.46
825.413	2111.22
825.595	2064.72
825.777	1975.98
825.958	2037.4
826.14	1975.79
826.321	2049.6
826.503	2007.95
826.685	2063.55
826.866	2043.98
827.048	2016.67
827.229	2011.24
827.411	1968.04
827.592	1918.05
827.773	1927.93
827.955	1901.19
828.136	1873.87
828.318	1862.44
828.499	1923.09
828.68	1798.12
828.862	1890.73
829.043	1879.69
829.224	1856.24
829.406	1778.55
829.587	1805.29
829.768	1802.19
829.949	1854.5
830.131	1797.54
830.312	1865.16
830.493	1827.96
830.674	1863.41
830.855	1796.76
831.036	1829.31
831.218	1898.87
831.399	1927.93
831.58	1869.22
831.761	1825.63
831.942	1874.26
832.123	1848.49
832.304	1785.33
832.485	1772.74
832.666	1809.94
832.847	1861.67
833.028	1827.18
833.209	1824.86
833.389	1804.13
833.57	1714.03
833.751	1768.86
833.932	1891.89
834.113	1812.46
834.294	1793.28
834.475	1832.03
834.655	1847.72
834.836	1894.41
835.017	1847.53
835.198	1792.89
835.378	1826.6
835.559	1898.87
835.74	1801.22
835.92	1804.13
836.101	1778.16
836.281	1876.01
836.462	1842.68
836.643	1873.1
836.823	1849.27
837.004	1875.42
837.184	1938.2
837.365	1897.9
837.545	1874.46
837.726	1837.45
837.906	1936.65
838.087	1869.03
838.267	1852.37
838.448	1812.65
838.628	1867.87
838.808	1857.79
838.989	1938.78
839.169	1797.15
839.349	1877.56
839.53	1889.76
839.71	1849.08
839.89	1824.08
840.07	1915.72
840.251	1821.76
840.431	1888.6
840.611	1832.22
840.791	1824.86
840.971	1863.8
841.151	1830.28
841.332	1804.51
841.512	1872.71
841.692	1764.8
841.872	1873.29
842.052	1844.62
842.232	1836.68
842.412	1769.44
842.592	1792.69
842.772	1811.68
842.952	1831.64
843.132	1785.14
843.312	1786.11
843.492	1744.84
843.672	1833.38
843.851	1740.38
844.031	1778.74
844.211	1790.18
844.391	1775.84
844.571	1768.86
844.751	1812.46
844.93	1801.61
845.11	1724.5
845.29	1793.28
845.47	1802.77
845.649	1750.85
845.829	1788.63
846.009	1732.83
846.188	1769.25
846.368	1755.88
846.547	1746.97
846.727	1794.83
846.907	1702.6
847.086	1773.9
847.266	1802.77
847.445	1756.66
847.625	1711.13
847.804	1736.51
847.984	1727.4
848.163	1724.69
848.343	1721.2
848.522	1734.38
848.701	1766.93
848.881	1694.46
849.06	1700.66
849.239	1714.61
849.419	1693.88
849.598	1657.07
849.777	1665.6
849.957	1634.4
850.136	1591
850.315	1547.99
850.494	1565.04
850.674	1604.37
850.853	1635.18
851.032	1585.97
851.211	1686.33
851.39	1611.15
851.569	1564.46
851.748	1577.64
851.927	1623.55
852.107	1588.1
852.286	1532.1
852.465	1566.4
852.644	1640.02
852.823	1608.25
853.002	1585.77
853.181	1579.19
853.359	1616.97
853.538	1535.2
853.717	1564.65
853.896	1482.51
854.075	1449.57
854.254	1384.86
854.433	1386.6
854.611	1385.24
854.79	1327.31
854.969	1387.38
855.148	1395.71
855.327	1374.2
855.505	1427.48
855.684	1420.51
855.863	1464.49
856.041	1399.78
856.22	1465.46
856.399	1447.63
856.577	1527.65
856.756	1519.32
856.934	1667.92
857.113	1616
857.291	1540.24
857.47	1515.44
857.648	1542.18
857.827	1536.56
858.005	1589.26
858.184	1509.44
858.362	1597.59
858.541	1533.07
858.719	1520.48
858.898	1497.81
859.076	1483.86
859.254	1565.24
859.433	1495.29
859.611	1493.16
859.789	1466.42
859.967	1514.67
860.146	1528.42
860.324	1425.16
860.502	1476.89
860.68	1448.6
860.859	1446.08
861.037	1456.74
861.215	1476.11
861.393	1469.33
861.571	1443.76
861.749	1453.44
861.927	1453.06
862.105	1456.54
862.283	1411.59
862.461	1418.76
862.639	1402.29
862.817	1426.32
862.995	1422.64
863.173	1416.24
863.351	1437.94
863.529	1453.25
863.707	1487.74
863.885	1441.24
864.063	1369.94
864.241	1351.92
864.418	1471.66
864.596	1411.01
864.774	1348.63
864.952	1392.8
865.129	1451.31
865.307	1402.88
865.485	1294.18
865.663	1406.17
865.84	1308.33
866.018	1355.21
866.196	1185.49
866.373	1236.83
866.551	1183.94
866.728	1131.63
866.906	1187.82
867.084	1213.39
867.261	1240.13
867.439	1240.9
867.616	1294.18
867.794	1286.43
867.971	1273.45
868.149	1267.06
868.326	1291.08
868.503	1311.81
868.681	1308.91
868.858	1270.55
869.035	1257.18
869.213	1329.64
869.39	1255.05
869.567	1351.14
869.745	1266.48
869.922	1313.56
870.099	1324.41
870.276	1325.18
870.454	1330.8
870.631	1307.16
870.808	1285.27
870.985	1325.38
871.162	1357.15
871.339	1306
871.517	1221.72
871.694	1229.47
871.871	1259.11
872.048	1254.85
872.225	1255.63
872.402	1278.88
872.579	1211.45
872.756	1257.18
872.933	1196.34
873.11	1255.05
873.287	1249.43
873.463	1227.15
873.64	1166.89
873.817	1241.29
873.994	1246.33
874.171	1202.35
874.348	1225.6
874.524	1162.43
874.701	1192.85
874.878	1149.07
875.055	1200.6
875.231	1194.6
875.408	1198.08
875.585	1120.59
875.762	1174.25
875.938	1161.27
876.115	1160.11
876.291	1164.57
876.468	1187.04
876.645	1111.48
876.821	1151.39
876.998	1136.47
877.174	1149.45
877.351	1141.9
877.527	1136.86
877.704	1180.07
877.88	1158.17
878.057	1117.49
878.233	1192.66
878.409	1139.19
878.586	1176
878.762	1122.14
878.938	1122.52
879.115	1036.89
879.291	1105.86
879.467	1065.95
879.644	1077.19
879.82	1145.19
879.996	1107.99
880.172	1039.02
880.349	1119.81
880.525	1122.14
880.701	1043.28
880.877	1069.82
881.053	1088.23
881.229	1081.45
881.405	1089
881.581	1040.57
881.757	1063.82
881.933	1091.33
882.109	1122.14
882.285	1094.04
882.461	1057.23
882.637	1091.33
882.813	1036.69
882.989	1083.97
883.165	1123.1
883.341	1063.04
883.517	1108.38
883.693	1071.37
883.869	1105.47
884.044	1042.31
884.22	1099.66
884.396	1174.45
884.572	1103.73
884.747	1118.84
884.923	1105.86
885.099	1115.16
885.275	1114.39
885.45	1076.6
885.626	1057.81
885.801	1048.32
885.977	1076.02
886.153	986.71
886.328	1075.44
886.504	1046.96
886.679	1070.02
886.855	1047.93
887.03	1078.15
887.206	1091.33
887.381	1056.84
887.557	1095.01
887.732	1076.02
887.908	1100.44
888.083	1092.49
888.258	1051.03
888.434	1055.87
888.609	1057.81
888.784	1110.32
888.96	1072.15
889.135	1009.76
889.31	1018.67
889.485	1069.24
889.661	1062.85
889.836	1100.44
890.011	1076.02
890.186	1059.94
890.361	1038.63
890.537	1080.87
890.712	1087.45
890.887	1051.22
891.062	1083.58
891.237	1135.12
891.412	1005.5
891.587	1060.14
891.762	1103.15
891.937	1114.39
892.112	1016.35
892.287	1021.19
892.462	1021.39
892.637	980.89
892.812	977.41
892.987	1023.91
893.161	981.86
893.336	1000.46
893.511	1002.59
893.686	1016.93
893.861	1002.4
894.035	983.03
894.21	978.38
894.385	938.46
894.56	1021.97
894.734	919.48
894.909	921.99
895.084	949.12
895.258	890.61
895.433	922.96
895.608	902.04
895.782	830.93
895.957	852.25
896.131	871.43
896.306	799.55
896.48	816.4
896.655	849.53
896.829	749.75
897.004	785.79
897.178	770.29
897.353	773.2
897.527	794.32
897.701	789.08
897.876	726.89
898.05	798.58
898.224	796.06
898.399	812.53
898.573	772.81
898.747	683.49
898.921	732.51
899.096	658.69
899.27	643.19
899.444	643.19
899.618	675.16
899.792	685.82
899.967	692.21
900.141	748.01
900.315	652.88
900.489	663.73
900.663	716.04
900.837	687.95
901.011	637.38
901.185	747.43
901.359	671.29
901.533	687.75
901.707	672.25
901.881	680.2
902.055	642.22
902.229	665.86
902.403	752.85
902.576	681.17
902.75	674.58
902.924	788.12
903.098	713.14
903.272	781.53
903.446	819.89
903.619	793.73
903.793	802.07
903.967	781.72
904.14	845.66
904.314	832.29
904.488	830.35
904.661	831.9
904.835	829
905.009	853.02
905.182	889.83
905.356	863.1
905.529	806.13
905.703	820.47
905.876	760.6
906.05	778.04
906.223	748.98
906.397	691.24
906.57	730.38
906.744	684.07
906.917	692.79
907.09	680.59
907.264	686.79
907.437	632.92
907.61	592.62
907.784	654.82
907.957	636.8
908.13	613.16
908.304	676.9
908.477	598.63
908.65	612.58
908.823	588.94
908.996	681.17
909.17	625.56
909.343	580.22
909.516	617.04
909.689	608.71
909.862	587.01
910.035	602.51
910.208	569.37
910.381	567.82
910.554	666.05
910.727	574.41
910.9	552.13
911.073	547.67
911.246	628.86
911.419	654.24
911.592	616.07
911.765	560.85
911.938	607.35
912.11	598.44
912.283	615.29
912.456	635.05
912.629	615.49
912.802	583.32
912.974	520.36
913.147	489.74
913.32	482.77
913.493	485.87
913.665	561.82
913.838	530.43
914.01	492.84
914.183	532.37
914.356	547.67
914.528	552.32
914.701	632.73
914.873	596.31
915.046	493.62
915.218	501.76
915.391	441.31
915.563	441.31
915.736	523.26
915.908	513.38
916.081	518.03
916.253	510.67
916.425	529.08
916.598	540.89
916.77	521.33
916.942	517.64
917.115	417.28
917.287	535.28
917.459	430.65
917.632	481.03
917.804	415.15
917.976	491.49
918.148	509.12
918.32	474.63
918.493	541.86
918.665	565.69
918.837	498.66
919.009	577.12
919.181	554.26
919.353	515.51
919.525	522.29
919.697	526.75
919.869	518.23
920.041	587.39
920.213	625.37
920.385	555.42
920.557	538.18
920.729	577.71
920.901	518.23
921.073	544.58
921.244	525.39
921.416	587.78
921.588	525.98
921.76	518.61
921.932	578.48
922.103	531.59
922.275	529.08
922.447	527.14
922.619	462.81
922.79	491.1
922.962	486.64
923.134	554.07
923.305	472.31
923.477	445.38
923.648	446.15
923.82	504.28
923.991	438.21
924.163	420.96
924.335	475.99
924.506	431.81
924.677	527.14
924.849	457.2
925.02	455.84
925.192	466.49
925.363	438.4
925.535	437.82
925.706	455.06
925.877	502.53
926.049	434.91
926.22	459.91
926.391	449.45
926.562	481.8
926.734	416.9
926.905	497.49
927.076	432.01
927.247	411.86
927.419	395.58
927.59	401.4
927.761	430.85
927.932	388.03
928.103	415.54
928.274	343.27
928.445	352.38
928.616	351.41
928.787	361.68
928.958	382.02
929.129	374.66
929.3	333.58
929.471	306.07
929.642	247.56
929.813	200.29
929.984	322.73
930.155	238.45
930.326	283.79
930.496	253.57
930.667	186.53
930.838	229.74
931.009	190.41
931.18	227.99
931.35	217.14
931.521	220.24
931.692	154.17
931.863	128.99
932.033	185.76
932.204	188.47
932.374	153.01
932.545	111.16
932.716	170.45
932.886	178.01
933.057	83.26
933.227	95.08
933.398	196.22
933.568	95.47
933.739	56.72
933.909	49.16
934.08	130.15
934.25	-0.82
934.421	78.03
934.591	101.09
934.761	72.99
934.932	36.18
935.102	91.01
935.272	102.83
935.443	108.84
935.613	75.13
935.783	74.54
935.953	35.6
936.123	226.83
936.294	56.91
936.464	77.84
936.634	77.06
936.804	48.19
936.974	34.05
937.144	92.76
937.314	53.04
937.484	59.82
937.655	59.63
937.825	133.25
937.995	56.14
938.165	116.97
938.334	54.78
938.504	108.45
938.674	87.72
938.844	96.24
939.014	156.31
939.184	133.64
939.354	181.11
939.524	149.33
939.694	131.51
939.863	114.65
940.033	178.2
940.203	184.98
940.373	164.25
940.542	174.32
940.712	139.64
940.882	172.77
941.051	159.6
941.221	166.57
941.391	177.42
941.56	117.94
941.73	135.96
941.899	223.73
942.069	129.37
942.238	145.07
942.408	122.79
942.577	162.51
942.747	94.5
942.916	79.78
943.086	82.29
943.255	147.78
943.425	136.35
943.594	99.93
943.763	46.45
943.933	83.46
944.102	38.12
944.271	88.88
944.441	129.57
944.61	91.21
944.779	95.47
944.948	187.89
945.117	82.29
945.287	98.76
945.456	41.61
945.625	67.38
945.794	134.8
945.963	70.86
946.132	110.39
946.301	82.88
946.47	151.07
946.639	21.07
946.808	93.14
946.977	103.03
947.146	158.63
947.315	89.85
947.484	136.74
947.653	91.79
947.822	55.75
947.991	88.3
948.16	157.08
948.329	135.77
948.498	90.43
948.666	92.95
948.835	143.52
949.004	50.33
949.173	60.79
949.341	126.27
949.51	131.12
949.679	122.79
949.847	131.89
950.016	175.29
950.185	158.63
950.353	93.34
950.522	80.55
950.69	164.44
950.859	76.09
951.028	163.09
951.196	126.08
951.365	69.7
951.533	98.96
951.701	117.17
951.87	127.44
952.038	47.61
952.207	97.99
952.375	158.44
952.543	78.81
952.712	105.35
952.88	78.42
953.048	165.41
953.217	104.96
953.385	104.77
953.553	133.25
953.721	47.42
953.89	114.65
954.058	30.56
954.226	75.13
954.394	103.61
954.562	46.45
954.73	82.29
954.898	100.12
955.067	128.6
955.235	63.11
955.403	129.96
955.571	159.79
955.739	123.56
955.907	72.8
956.075	78.42
956.243	94.89
956.41	116.78
956.578	55.36
956.746	48
956.914	83.46
957.082	130.73
957.25	108.26
957.418	89.46
957.585	95.66
957.753	139.64
957.921	94.5
958.089	96.05
958.256	85.78
958.424	114.65
958.592	108.26
958.759	60.98
958.927	134.02
959.095	73.77
959.262	112.71
959.43	108.64
959.597	79.78
959.765	105.54
959.932	58.27
960.1	154.56
960.267	68.15
960.435	99.34
960.602	141.19
960.77	96.83
960.937	35.6
961.104	123.56
961.272	48.78
961.439	83.07
961.606	100.89
961.774	133.83
961.941	85.78
962.108	92.37
962.275	89.85
962.443	148.56
962.61	128.41
962.777	182.27
962.944	137.9
963.111	92.18
963.278	111.55
963.446	91.4
963.613	107.09
963.78	128.41
963.947	130.15
964.114	96.63
964.281	169.29
964.448	134.99
964.615	77.06
964.782	101.09
964.949	156.69
965.116	135.96
965.282	148.36
965.449	92.95
965.616	80.74
965.783	121.43
965.95	130.92
966.117	50.91
966.283	99.34
966.45	116.59
966.617	113.49
966.784	118.52
966.95	122.01
967.117	118.72
967.284	94.5
967.45	84.81
967.617	185.37
967.784	133.44
967.95	158.44
968.117	132.47
968.283	168.9
968.45	216.75
968.616	139.26
968.783	187.69
968.949	160.57
969.116	174.71
969.282	114.26
969.449	140.61
969.615	130.73
969.781	107.09
969.948	74.93
970.114	68.34
970.28	172.39
970.447	114.26
970.613	188.47
970.779	115.04
970.945	141.58
971.112	119.49
971.278	146.23
971.444	135.57
971.61	145.46
971.776	95.28
971.942	136.74
972.108	164.25
972.275	108.45
972.441	137.12
972.607	183.43
972.773	86.36
972.939	168.9
973.105	106.51
973.271	76.68
973.437	129.76
973.602	120.07
973.768	112.91
973.934	105.74
974.1	118.14
974.266	30.76
974.432	120.66
974.598	110
974.763	130.34
974.929	88.3
975.095	151.46
975.261	58.66
975.426	72.8
975.592	110.97
975.758	172
975.923	38.51
976.089	55.94
976.255	128.21
976.42	111.74
976.586	140.03
976.751	144.49
976.917	190.41
977.082	144.29
977.248	60.59
977.413	44.9
977.579	94.69
977.744	108.64
977.91	65.63
978.075	96.44
978.24	126.86
978.406	105.93
978.571	96.44
978.736	59.04
978.902	177.62
979.067	74.93
979.232	49.55
979.397	94.11
979.563	149.14
979.728	71.44
979.893	101.67
980.058	77.26
980.223	140.42
980.388	120.27
980.554	141.19
980.719	77.26
980.884	89.08
981.049	116.2
981.214	81.52
981.379	71.44
981.544	85.2
981.709	99.15
981.874	81.13
982.039	99.34
982.204	135.38
982.368	91.98
982.533	98.57
982.698	102.25
982.863	128.21
983.028	95.66
983.193	101.48
983.357	113.87
983.522	108.84
983.687	108.45
983.852	65.63
984.016	96.24
984.181	111.36
984.346	115.23
984.51	116.97
984.675	87.53
984.839	112.52
985.004	98.38
985.168	137.32
985.333	120.07
985.498	82.29
985.662	117.36
985.827	115.42
985.991	102.06
986.155	95.86
986.32	120.46
986.484	163.09
986.649	101.86
986.813	39.67
986.977	121.04
987.142	108.64
987.306	42.38
987.47	73.96
987.634	81.71
987.799	88.69
987.963	97.02
988.127	132.86
988.291	174.71
988.455	100.89
988.62	76.87
988.784	140.22
988.948	128.21
989.112	54.98
989.276	93.34
989.44	114.84
989.604	74.54
989.768	99.54
989.932	176.07
990.096	54.59
990.26	37.93
990.424	39.48
990.588	69.31
990.752	151.07
990.915	147.78
991.079	90.63
991.243	55.36
991.407	108.45
991.571	77.06
991.734	105.54
991.898	109.42
992.062	187.31
992.226	79
992.389	47.03
992.553	37.15
992.717	48
992.88	68.73
993.044	91.4
993.207	73.19
993.371	122.21
993.535	79.97
993.698	93.34
993.862	119.49
994.025	112.32
994.189	74.93
994.352	83.46
994.515	140.22
994.679	117.17
994.842	45.48
995.006	123.95
995.169	57.88
995.332	69.31
995.496	120.85
995.659	30.18
995.822	73.96
995.985	42.38
996.149	164.64
996.312	71.06
996.475	154.37
996.638	52.46
996.801	112.91
996.964	126.47
997.128	85.59
997.291	60.98
997.454	90.82
997.617	41.41
997.78	104.58
997.943	40.06
998.106	133.83
998.269	64.47
998.432	84.62
998.595	65.24
998.758	36.96
998.92	58.08
999.083	7.51
999.246	59.63
999.409	35.02
999.572	1.89
999.735	50.13
999.897	92.56
1000.06	50.13
1000.223	76.29
1000.386	116.39
1000.548	105.93
1000.711	71.64
1000.874	86.17
1001.036	6.73
1001.199	109.81
1001.361	63.11
1001.524	50.13
1001.687	95.28
1001.849	40.25
1002.012	67.18
1002.174	62.92
1002.337	86.17
1002.499	62.34
1002.661	106.32
1002.824	15.06
1002.986	46.84
1003.149	68.93
1003.311	49.94
1003.473	135.19
1003.636	20.49
1003.798	86.75
1003.96	86.36
1004.123	54.78
1004.285	34.24
1004.447	68.34
1004.609	42.38
1004.771	134.41
1004.933	27.85
1005.096	16.03
1005.258	-8.57
1005.42	9.45
1005.582	85.78
1005.744	73.19
1005.906	16.61
1006.068	53.43
1006.23	26.11
1006.392	-10.12
1006.554	22.23
1006.716	74.35
1006.878	60.98
1007.04	7.51
1007.202	36.96
1007.363	52.46
1007.525	42.77
1007.687	59.24
1007.849	103.41
1008.011	7.31
1008.172	-3.73
1008.334	65.83
1008.496	71.25
1008.658	14.48
1008.819	24.56
1008.981	0.73
1009.143	19.13
1009.304	37.34
1009.466	66.99
1009.627	117.75
1009.789	154.17
1009.95	79.97
1010.112	0.34
1010.273	57.69
1010.435	6.54
1010.596	38.51
1010.758	16.23
1010.919	15.26
1011.081	22.23
1011.242	45.29
1011.403	61.56
1011.565	42.19
1011.726	71.64
1011.887	-10.32
1012.049	39.28
1012.21	96.24
1012.371	96.05
1012.532	-31.63
1012.693	51.29
1012.855	4.41
1013.016	15.65
1013.177	81.71
1013.338	17
1013.499	108.06
1013.66	69.12
1013.821	90.43
1013.982	41.03
1014.143	30.56
1014.304	18.75
1014.465	59.63
1014.626	60.98
1014.787	11
1014.948	107.68
1015.109	-36.86
1015.27	71.44
1015.431	-9.35
1015.592	14.68
1015.752	62.34
1015.913	36.38
1016.074	45.87
1016.235	31.14
1016.395	21.65
1016.556	10.61
1016.717	37.54
1016.877	91.4
1017.038	8.09
1017.199	37.54
1017.359	53.81
1017.52	41.22
1017.681	-1.99
1017.841	50.52
1018.002	15.26
1018.162	27.46
1018.323	66.41
1018.483	-2.57
1018.644	25.14
1018.804	-4.89
1018.964	7.9
1019.125	1.31
1019.285	18.16
1019.446	2.08
1019.606	-3.92
1019.766	-31.44
1019.926	59.82
1020.087	51.29
1020.247	-2.37
1020.407	64.47
1020.567	63.89
1020.728	28.04
1020.888	9.06
1021.048	5.76
1021.208	-11.48
1021.368	15.06
1021.528	54.01
1021.688	57.88
1021.848	40.06
1022.008	40.44
1022.168	25.33
1022.328	25.72
1022.488	33.86
1022.648	16.23
1022.808	13.9
1022.968	52.07
1023.128	-7.02
1023.288	-2.18
1023.448	38.51
1023.608	41.8
1023.767	53.62
1023.927	-18.84
1024.087	-3.15
1024.247	-3.15
1024.406	-9.54
1024.566	-14.19
1024.726	-19.23
1024.885	40.64
1025.045	27.46
1025.205	10.22
1025.364	-4.31
1025.524	30.76
1025.683	25.33
1025.843	22.23
1026.003	17.97
1026.162	88.69
1026.321	57.69
1026.481	17.97
1026.64	-14.97
1026.8	37.15
1026.959	14.1
1027.119	28.43
1027.278	19.52
1027.437	14.1
1027.597	25.72
1027.756	11.96
1027.915	42.38
1028.074	25.14
1028.234	-10.51
1028.393	22.43
1028.552	-17.1
1028.711	-40.54
1028.87	50.91
1029.03	-21.36
1029.189	29.59
1029.348	-95.37
1029.507	1.31
1029.666	-24.46
1029.825	-15.55
1029.984	-7.22
1030.143	29.4
1030.302	-9.15
1030.461	-23.49
1030.62	20.3
1030.779	30.95
1030.938	-18.45
1031.097	-6.83
1031.255	24.75
1031.414	67.57
1031.573	54.2
1031.732	-26.2
1031.891	18.16
1032.049	45.87
1032.208	46.06
1032.367	9.25
1032.525	-21.17
1032.684	3.63
1032.843	30.56
1033.001	-53.91
1033.16	172.39
1033.319	72.22
1033.477	44.32
1033.636	-27.37
1033.794	-32.21
1033.953	58.66
1034.111	34.44
1034.27	-18.65
1034.428	35.79
1034.587	-37.05
1034.745	15.65
1034.903	7.51
1035.062	29.79
1035.22	-52.36
1035.378	29.01
1035.537	-32.6
1035.695	23.2
1035.853	5.57
1036.011	45.48
1036.17	34.05
1036.328	-51.78
1036.486	25.53
1036.644	10.03
1036.802	-94.98
1036.96	-8.57
1037.119	10.41
1037.277	-11.67
1037.435	-37.44
1037.593	-21.36
1037.751	14.87
1037.909	26.88
1038.067	26.88
