Data from gum_old_FLMT105791__145__15-46-34-252.txt Node

Date: Mon Mar 20 15:46:34 GMT 2023
User: antho
Spectrometer: FLMT10579
Trigger mode: 0
Integration Time (sec): 1.000000E-1
Scans to average: 10
Electric dark correction enabled: true
Nonlinearity correction enabled: false
Boxcar width: 0
XAxis mode: Wavelengths
Number of Pixels in Spectrum: 3648
>>>>>Begin Spectral Data<<<<<
345.248	-168.69
345.464	-168.69
345.681	-168.69
345.898	-167.14
346.114	-182.64
346.331	-30.93
346.548	47.92
346.764	-16.79
346.981	-14.66
347.197	-23.77
347.414	16.92
347.631	-31.9
347.847	70.39
348.064	-2.45
348.28	31.45
348.497	-51.28
348.713	5.1
348.93	11.69
349.146	29.71
349.363	11.88
349.579	0.26
349.796	2.78
350.012	19.63
350.229	51.41
350.445	5.49
350.661	-16.79
350.878	27.96
351.094	18.86
351.311	16.34
351.527	45.79
351.743	16.73
351.96	62.06
352.176	80.66
352.392	43.27
352.609	59.35
352.825	20.99
353.041	42.11
353.257	2
353.474	38.23
353.69	40.75
353.906	24.48
354.122	-11.37
354.339	85.89
354.555	14.21
354.771	2
354.987	94.23
355.203	63.23
355.42	-6.91
355.636	4.91
355.852	-21.05
356.068	25.06
356.284	-9.62
356.5	69.62
356.716	31.45
356.932	17.11
357.148	50.25
357.364	17.89
357.58	51.21
357.796	81.44
358.012	68.65
358.228	61.87
358.444	-46.24
358.66	66.71
358.876	54.31
359.092	-12.14
359.308	45.21
359.524	42.5
359.74	13.82
359.956	30.48
360.172	33.78
360.388	71.17
360.604	15.37
360.819	94.42
361.035	20.41
361.251	57.8
361.467	-6.72
361.683	73.3
361.898	28.35
362.114	72.14
362.33	27.96
362.546	49.08
362.762	26.41
362.977	35.91
363.193	-1.68
363.409	67.49
363.624	-0.52
363.84	11.69
364.056	14.98
364.271	52.57
364.487	48.89
364.703	26.41
364.918	-0.13
365.134	51.21
365.35	41.14
365.565	129.68
365.781	52.38
365.996	30.1
366.212	116.31
366.427	40.17
366.643	8.2
366.858	5.68
367.074	17.11
367.289	107.21
367.505	160.87
367.72	-2.45
367.936	13.24
368.151	71.36
368.367	46.18
368.582	60.32
368.798	6.07
369.013	91.9
369.228	28.74
369.444	52.57
369.659	86.86
369.874	45.01
370.09	91.13
370.305	-14.27
370.52	21.38
370.736	97.13
370.951	48.7
371.166	112.63
371.381	108.37
371.597	82.41
371.812	13.43
372.027	-6.33
372.242	35.52
372.458	128.52
372.673	46.76
372.888	30.68
373.103	73.11
373.318	99.07
373.533	60.32
373.749	77.56
373.964	-24.93
374.179	53.54
374.394	9.75
374.609	82.6
374.824	-3.23
375.039	98.1
375.254	33
375.469	113.02
375.684	58.77
375.899	91.32
376.114	32.23
376.329	76.79
376.544	110.5
376.759	79.5
376.974	5.88
377.189	34.16
377.404	25.25
377.619	93.64
377.834	2.39
378.049	15.95
378.264	19.63
378.478	88.61
378.693	35.71
378.908	81.24
379.123	70.2
379.338	107.21
379.553	66.13
379.767	81.05
379.982	88.41
380.197	75.63
380.412	24.28
380.626	58
380.841	118.83
381.056	88.99
381.271	156.03
381.485	37.26
381.7	25.25
381.915	41.53
382.129	26.8
382.344	94.03
382.559	87.64
382.773	102.36
382.988	-20.09
383.202	54.51
383.417	22.15
383.632	153.12
383.846	54.12
384.061	50.63
384.275	34.94
384.49	59.74
384.704	57.22
384.919	88.99
385.133	65.74
385.348	76.98
385.562	42.5
385.777	114.38
385.991	62.84
386.206	30.48
386.42	65.36
386.634	90.93
386.849	90.74
387.063	107.59
387.277	55.48
387.492	37.26
387.706	42.88
387.92	25.45
388.135	94.61
388.349	95
388.563	65.55
388.778	81.24
388.992	87.64
389.206	86.28
389.42	168.24
389.635	72.33
389.849	127.74
390.063	113.21
390.277	103.53
390.491	152.16
390.706	100.62
390.92	153.9
391.134	109.92
391.348	130.07
391.562	39.78
391.776	97.33
391.99	73.88
392.205	129.1
392.419	56.64
392.633	110.31
392.847	152.35
393.061	46.37
393.275	159.52
393.489	80.47
393.703	79.11
393.917	102.17
394.131	58
394.345	70.01
394.559	113.21
394.773	70.59
394.986	124.64
395.2	79.89
395.414	156.81
395.628	71.36
395.842	131.04
396.056	113.21
396.27	37.85
396.484	120.38
396.697	114.76
396.911	157.97
397.125	101.59
397.339	127.16
397.553	131.43
397.766	160.29
397.98	104.69
398.194	144.41
398.408	110.31
398.621	163.2
398.835	165.14
399.049	137.43
399.262	190.52
399.476	166.88
399.69	167.46
399.903	220.16
400.117	137.43
400.331	138.98
400.544	122.9
400.758	267.24
400.971	176.96
401.185	174.24
401.398	118.64
401.612	221.32
401.826	191.29
402.039	191.1
402.253	154.87
402.466	213.77
402.68	160.87
402.893	181.22
403.106	169.79
403.32	186.06
403.533	194.01
403.747	187.22
403.96	180.83
404.174	202.92
404.387	140.53
404.6	175.02
404.814	243.8
405.027	173.08
405.24	188.77
405.454	178.7
405.667	222.49
405.88	130.84
406.094	191.29
406.307	220.74
406.52	208.92
406.733	158.55
406.947	154.87
407.16	239.54
407.373	235.66
407.586	167.46
407.799	129.68
408.012	232.56
408.226	216.67
408.439	264.34
408.652	148.67
408.865	210.09
409.078	252.13
409.291	238.37
409.504	182.38
409.717	224.81
409.93	214.93
410.143	218.61
410.357	147.51
410.57	142.08
410.783	185.48
410.996	194.39
411.209	189.74
411.421	264.14
411.634	224.81
411.847	175.21
412.06	255.81
412.273	212.22
412.486	217.26
412.699	303.86
412.912	221.71
413.125	256
413.338	237.79
413.55	248.84
413.763	225.01
413.976	239.73
414.189	224.62
414.402	233.92
414.615	310.64
414.827	188.19
415.04	251.35
415.253	238.76
415.466	278.09
415.678	323.23
415.891	224.42
416.104	210.47
416.316	203.69
416.529	221.13
416.742	276.54
416.954	285.84
417.167	231.98
417.38	229.46
417.592	285.84
417.805	206.21
418.017	196.72
418.23	278.67
418.442	193.04
418.655	221.32
418.868	261.43
419.08	277.51
419.293	282.94
419.505	250
419.718	275.57
419.93	306.38
420.142	222.1
420.355	273.44
420.567	290.3
420.78	259.49
420.992	247.09
421.205	311.8
421.417	205.63
421.629	244.57
421.842	215.51
422.054	225.78
422.266	286.42
422.479	294.75
422.691	219.19
422.903	306.38
423.115	212.02
423.328	238.18
423.54	257.55
423.752	259.69
423.964	227.14
424.177	268.4
424.389	285.26
424.601	395.12
424.813	295.72
425.025	306.77
425.238	283.52
425.45	262.98
425.662	256.97
425.874	602.04
426.086	275.96
426.298	299.79
426.51	297.85
426.722	291.46
426.934	271.7
427.146	290.49
427.358	247.29
427.57	285.84
427.782	277.32
427.994	261.62
428.206	229.07
428.418	206.21
428.63	301.73
428.842	304.25
429.054	274.8
429.266	287.78
429.478	247.48
429.69	288.17
429.902	203.11
430.114	301.73
430.325	280.42
430.537	251.55
430.749	245.54
430.961	137.82
431.173	220.16
431.384	244.57
431.596	167.66
431.808	241.09
432.02	264.34
432.231	327.3
432.443	338.35
432.655	297.27
432.867	292.43
433.078	343.97
433.29	357.53
433.502	315.49
433.713	362.37
433.925	340.67
434.136	371.87
434.348	257.17
434.56	242.83
434.771	404.22
434.983	247.29
435.194	293.01
435.406	315.87
435.617	350.36
435.829	380.97
436.04	361.02
436.252	372.45
436.463	368.96
436.675	369.35
436.886	358.88
437.098	380.58
437.309	425.92
437.521	361.98
437.732	363.73
437.943	389.69
438.155	366.05
438.366	297.08
438.578	391.24
438.789	318
439	359.08
439.211	336.22
439.423	352.49
439.634	366.05
439.845	361.02
440.057	389.5
440.268	382.52
440.479	348.81
440.69	373.03
440.902	356.56
441.113	356.17
441.324	342.8
441.535	347.65
441.746	440.65
441.957	334.08
442.168	368.96
442.38	417.98
442.591	431.15
442.802	379.23
443.013	391.43
443.224	404.22
443.435	384.85
443.646	390.66
443.857	393.76
444.068	375.16
444.279	365.86
444.49	470.87
444.701	411.39
444.912	503.61
445.123	456.34
445.334	411.39
445.545	429.8
445.756	410.81
445.967	397.25
446.178	430.18
446.388	441.81
446.599	421.85
446.81	415.85
447.021	365.67
447.232	430.38
447.443	434.25
447.653	358.69
447.864	503.61
448.075	424.56
448.286	469.71
448.496	457.7
448.707	468.93
448.918	415.85
449.129	491.02
449.339	427.28
449.55	485.01
449.761	418.36
449.971	484.82
450.182	413.71
450.393	505.16
450.603	418.36
450.814	503.42
451.024	488.31
451.235	484.63
451.446	511.94
451.656	539.65
451.867	442.97
452.077	459.05
452.288	519.69
452.498	510.78
452.709	464.28
452.919	488.5
453.13	454.79
453.34	494.31
453.55	434.83
453.761	477.85
453.971	467.19
454.182	503.23
454.392	483.08
454.602	529.96
454.813	488.7
455.023	526.28
455.233	422.63
455.444	491.99
455.654	410.23
455.864	472.03
456.075	468.55
456.285	441.23
456.495	480.36
456.705	467.19
456.916	535
457.126	532.87
457.336	489.66
457.546	416.43
457.756	479.98
457.967	537.71
458.177	475.33
458.387	503.23
458.597	421.27
458.807	465.25
459.017	470.29
459.227	484.43
459.437	488.11
459.647	517.18
459.857	522.02
460.068	486.18
460.278	545.08
460.488	510.59
460.698	565.23
460.908	500.71
461.117	423.4
461.327	462.93
461.537	505.36
461.747	479.2
461.957	517.76
462.167	630.13
462.377	547.01
462.587	548.37
462.797	544.11
463.007	511.17
463.216	551.28
463.426	576.66
463.636	576.27
463.846	455.37
464.056	504.97
464.265	580.14
464.475	479.01
464.685	535.97
464.895	558.44
465.104	504.39
465.314	541.01
465.524	517.18
465.733	476.68
465.943	595.26
466.153	610.76
466.362	563.87
466.572	561.35
466.782	541.78
466.991	561.16
467.201	601.46
467.41	462.73
467.62	540.43
467.829	511.36
468.039	568.91
468.249	538.68
468.458	557.09
468.668	607.66
468.877	574.33
469.086	616.57
469.296	594.09
469.505	530.16
469.715	636.52
469.924	588.67
470.134	635.36
470.343	621.41
470.552	567.36
470.762	578.01
470.971	554.96
471.18	568.71
471.39	549.92
471.599	527.44
471.808	609.01
472.018	559.61
472.227	635.75
472.436	628.39
472.645	616.96
472.855	574.91
473.064	665.01
473.273	637.88
473.482	635.94
473.691	680.31
473.901	683.6
474.11	627.81
474.319	725.65
474.528	623.54
474.737	671.79
474.946	668.88
475.155	646.79
475.364	730.1
475.573	685.35
475.783	687.29
475.992	679.54
476.201	725.84
476.41	682.83
476.619	639.04
476.828	681.86
477.037	662.29
477.245	672.75
477.454	710.73
477.663	683.41
477.872	685.93
478.081	760.13
478.29	674.89
478.499	807.6
478.708	783.58
478.917	808.77
479.125	740.18
479.334	738.05
479.543	762.85
479.752	764.98
479.961	767.5
480.169	780.67
480.378	747.35
480.587	909.71
480.796	795.4
481.004	755.1
481.213	821.36
481.422	805.86
481.63	786.29
481.839	829.3
482.048	882.2
482.256	815.16
482.465	842.48
482.674	867.47
482.882	870.76
483.091	916.49
483.299	870.96
483.508	850.03
483.716	861.85
483.925	853.91
484.134	825.62
484.342	832.02
484.551	897.5
484.759	873.09
484.967	910.87
485.176	911.45
485.384	923.85
485.593	904.09
485.801	903.31
486.01	866.89
486.218	840.73
486.426	755.49
486.635	764.98
486.843	752.39
487.051	798.3
487.26	776.6
487.468	846.93
487.676	849.06
487.885	810.32
488.093	853.52
488.301	887.81
488.509	870.76
488.717	926.18
488.926	885.49
489.134	865.15
489.342	910.48
489.55	859.33
489.758	899.05
489.967	895.56
490.175	1022.86
490.383	906.03
490.591	988.56
490.799	934.89
491.007	1011.62
491.215	980.43
491.423	969.19
491.631	994.96
491.839	954.08
492.047	1000.96
492.255	902.15
492.463	898.66
492.671	952.53
492.879	1016.46
493.087	962.21
493.295	971.71
493.503	996.31
493.711	1009.29
493.919	1035.26
494.127	1035.26
494.334	1036.03
494.542	987.98
494.75	1014.91
494.958	999.03
495.166	1050.95
495.374	1062.19
495.581	1052.31
495.789	1080.4
495.997	1070.13
496.205	1032.74
496.412	1035.84
496.62	1043.2
496.828	1048.04
497.035	1059.86
497.243	1065.67
497.451	1045.91
497.658	1082.72
497.866	1063.93
498.074	1142.01
498.281	1042.62
498.489	1138.91
498.696	1069.74
498.904	1034.29
499.112	1020.72
499.319	1129.8
499.527	1070.13
499.734	1091.06
499.942	1012.2
500.149	1041.84
500.357	1074.2
500.564	1015.88
500.771	1094.54
500.979	1049.4
501.186	996.12
501.394	1057.73
501.601	1050.17
501.808	1050.95
502.016	1054.24
502.223	1045.14
502.43	1067.42
502.638	1059.47
502.845	1032.54
503.052	1134.84
503.26	1068.58
503.467	1151.89
503.674	1126.9
503.881	1072.65
504.089	1197.62
504.296	1096.48
504.503	1053.86
504.71	1068
504.917	1045.72
505.125	1098.03
505.332	1068
505.539	1112.95
505.746	1207.5
505.953	1163.71
506.16	1156.74
506.367	1182.89
506.574	1231.13
506.781	1200.91
506.988	1131.35
507.195	1142.59
507.402	1176.69
507.609	1182.31
507.816	1124.38
508.023	1145.5
508.23	1124.38
508.437	1080.21
508.644	1154.02
508.851	1213.89
509.058	1184.83
509.265	1159.64
509.472	1172.24
509.679	1275.7
509.885	1163.32
510.092	1219.32
510.299	1193.35
510.506	1184.64
510.713	1185.02
510.92	1194.9
511.126	1193.55
511.333	1224.93
511.54	1247.8
511.746	1276.28
511.953	1280.54
512.16	1280.93
512.367	1223
512.573	1210.4
512.78	1275.12
512.987	1223.38
513.193	1244.31
513.4	1145.11
513.606	1208.66
513.813	1246.05
514.02	1223.19
514.226	1329.36
514.433	1275.89
514.639	1168.17
514.846	1244.5
515.052	1206.72
515.259	1233.65
515.465	1222.61
515.672	1226.87
515.878	1334.6
516.085	1241.4
516.291	1305.34
516.497	1211.95
516.704	1282.09
516.91	1194.9
517.117	1180.76
517.323	1121.09
517.529	1161.39
517.736	1124.38
517.942	1149.95
518.148	1163.32
518.354	1209.63
518.561	1219.32
518.767	1196.45
518.973	1241.98
519.179	1264.46
519.386	1211.37
519.592	1235.98
519.798	1229.58
520.004	1322
520.21	1269.11
520.417	1358.81
520.623	1380.13
520.829	1414.61
521.035	1370.44
521.241	1364.05
521.447	1407.44
521.653	1514.59
521.859	1336.34
522.065	1416.94
522.271	1509.94
522.477	1479.32
522.683	1485.72
522.889	1430.69
523.095	1476.42
523.301	1437.48
523.507	1378.58
523.713	1452.2
523.919	1389.81
524.125	1492.89
524.331	1457.43
524.537	1551.79
524.742	1535.12
524.948	1561.47
525.154	1559.73
525.36	1660.67
525.566	1577.55
525.772	1632.77
525.977	1519.24
526.183	1594.99
526.389	1610.3
526.595	1575.81
526.8	1526.79
527.006	1490.37
527.212	1417.33
527.417	1408.41
527.623	1403.76
527.829	1506.45
528.034	1530.09
528.24	1558.37
528.446	1561.67
528.651	1627.15
528.857	1609.91
529.062	1703.49
529.268	1622.5
529.473	1689.73
529.679	1689.35
529.884	1760.45
530.09	1726.16
530.295	1738.17
530.501	1712.02
530.706	1694.97
530.912	1656.99
531.117	1677.14
531.323	1686.44
531.528	1751.35
531.733	1772.08
531.939	1718.8
532.144	1781.57
532.35	1751.54
532.555	1758.13
532.76	1764.33
532.966	1757.16
533.171	1712.6
533.376	1670.94
533.581	1661.25
533.787	1700.78
533.992	1727.9
534.197	1736.62
534.402	1727.9
534.607	1741.08
534.813	1855.39
535.018	1731
535.223	1781.57
535.428	1763.75
535.633	1806.18
535.838	1820.13
536.043	1831.17
536.249	1935.99
536.454	1810.24
536.659	1848.41
536.864	1804.24
537.069	1822.64
537.274	1864.11
537.479	1805.98
537.684	1812.57
537.889	1775.18
538.094	1898.98
538.299	1804.43
538.504	1856.94
538.708	1873.41
538.913	1864.69
539.118	1823.61
539.323	1871.86
539.528	1833.69
539.733	1822.64
539.938	1862.56
540.142	1863.53
540.347	1838.53
540.552	1776.34
540.757	1803.85
540.962	1776.92
541.166	1725
541.371	1750.76
541.576	1808.5
541.781	1742.43
541.985	1835.04
542.19	1836.4
542.395	1901.31
542.599	1914.29
542.804	1887.16
543.008	1934.82
543.213	1853.84
543.418	1826.52
543.622	1851.9
543.827	1830.2
544.031	1919.71
544.236	1903.63
544.44	1883.29
544.645	1955.36
544.849	1931.34
545.054	1909.06
545.258	2013.49
545.463	1952.26
545.667	1873.02
545.872	1884.84
546.076	1943.93
546.281	1906.15
546.485	1888.13
546.689	1915.84
546.894	1944.12
547.098	1899.37
547.302	1855.78
547.507	1896.27
547.711	1921.65
547.915	2000.5
548.119	1922.04
548.324	1873.99
548.528	1945.48
548.732	1907.12
548.936	1937.54
549.141	1951.1
549.345	1915.26
549.549	1894.72
549.753	1930.56
549.957	1997.21
550.161	1994.11
550.366	1908.86
550.57	1924.94
550.774	1962.92
550.978	1935.02
551.182	1960.59
551.386	1948.77
551.59	1918.16
551.794	1932.89
551.998	1954.01
552.202	1899.37
552.406	1907.12
552.61	2004.38
552.814	1946.06
553.018	1995.27
553.222	1895.88
553.426	1918.16
553.63	2043.13
553.833	1939.86
554.037	1865.66
554.241	1999.54
554.445	1906.73
554.649	1888.13
554.853	1901.11
555.056	1961.37
555.26	1971.83
555.464	1951.68
555.668	1965.44
555.871	1979.58
556.075	1976.09
556.279	1913.71
556.483	1899.76
556.686	1903.24
556.89	1893.17
557.094	1916.22
557.297	1867.59
557.501	1940.83
557.704	1844.54
557.908	1938.31
558.112	1842.79
558.315	1998.18
558.519	1885.03
558.722	1891.23
558.926	1872.63
559.129	1806.56
559.333	1805.4
559.536	1813.15
559.74	1787.19
559.943	1773.43
560.147	1779.63
560.35	1789.51
560.553	1805.01
560.757	1753.28
560.96	1836.79
561.164	1808.89
561.367	1913.51
561.57	1835.04
561.774	1837.18
561.977	1778.66
562.18	1780.6
562.384	1884.26
562.587	1780.21
562.79	1783.12
562.993	1755.22
563.197	1798.81
563.4	1851.51
563.603	1845.51
563.806	1895.11
564.009	1784.28
564.212	1805.01
564.416	1734.68
564.619	1762.58
564.822	1724.41
565.025	1814.51
565.228	1748.44
565.431	1746.5
565.634	1668.62
565.837	1741.27
566.04	1682.76
566.243	1682.18
566.446	1584.92
566.649	1715.7
566.852	1604.1
567.055	1658.54
567.258	1685.47
567.461	1767.04
567.664	1737.59
567.867	1653.31
568.07	1693.8
568.273	1684.31
568.475	1738.17
568.678	1681.21
568.881	1630.25
569.084	1672.1
569.287	1562.83
569.489	1621.73
569.692	1627.35
569.895	1646.53
570.098	1568.06
570.3	1587.44
570.503	1532.41
570.706	1546.94
570.909	1553.34
571.111	1516.33
571.314	1513.04
571.516	1488.82
571.719	1524.08
571.922	1504.12
572.124	1514.01
572.327	1519.04
572.529	1462.08
572.732	1507.22
572.935	1557.02
573.137	1604.49
573.34	1481.65
573.542	1567.29
573.745	1595.57
573.947	1541.91
574.15	1513.42
574.352	1494.63
574.554	1598.67
574.757	1452.01
574.959	1483.2
575.162	1459.17
575.364	1461.69
575.566	1570.39
575.769	1428.18
575.971	1436.7
576.173	1352.42
576.376	1437.28
576.578	1490.37
576.78	1520.98
576.982	1347.58
577.185	1406.86
577.387	1426.82
577.589	1387.1
577.791	1464.79
577.993	1444.06
578.196	1421.01
578.398	1457.24
578.6	1464.02
578.802	1368.5
579.004	1356.88
579.206	1380.9
579.408	1410.35
579.61	1370.24
579.812	1415.97
580.014	1381.87
580.216	1350.87
580.418	1369.28
580.62	1369.66
580.822	1287.51
581.024	1404.93
581.226	1418.29
581.428	1368.11
581.63	1478.94
581.832	1329.17
582.034	1416.74
582.236	1367.73
582.438	1369.28
582.64	1419.26
582.841	1453.36
583.043	1466.54
583.245	1380.51
583.447	1418.68
583.649	1350.29
583.85	1378.38
584.052	1424.3
584.254	1346.03
584.456	1392.14
584.657	1295.07
584.859	1388.26
585.061	1334.01
585.262	1337.5
585.464	1292.75
585.666	1370.05
585.867	1307.47
586.069	1385.74
586.27	1334.98
586.472	1324.71
586.674	1327.62
586.875	1300.3
587.077	1275.89
587.278	1323.75
587.48	1270.27
587.681	1405.12
587.883	1366.18
588.084	1252.83
588.285	1295.65
588.487	1302.24
588.688	1324.52
588.89	1228.23
589.091	1207.3
589.292	1228.03
589.494	1216.8
589.695	1156.54
589.896	1105.01
590.098	1081.56
590.299	1201.1
590.5	1123.8
590.702	1145.3
590.903	1195.68
591.104	1245.08
591.305	1247.22
591.507	1293.52
591.708	1247.02
591.909	1210.02
592.11	1261.55
592.311	1260
592.512	1235.01
592.714	1158.09
592.915	1194.32
593.116	1175.34
593.317	1213.31
593.518	1189.29
593.719	1215.63
593.92	1209.24
594.121	1242.37
594.322	1210.79
594.523	1213.7
594.724	1155.57
594.925	1174.75
595.126	1212.73
595.327	1215.63
595.528	1165.65
595.729	1219.51
595.929	1179.4
596.13	1207.5
596.331	1176.11
596.532	1185.22
596.733	1248.38
596.934	1253.42
597.135	1229.97
597.335	1225.13
597.536	1189.29
597.737	1208.85
597.938	1176.5
598.138	1212.92
598.339	1187.93
598.54	1192.39
598.74	1149.18
598.941	1207.69
599.142	1241.21
599.342	1178.82
599.543	1170.88
599.744	1150.54
599.944	1165.84
600.145	1142.98
600.345	1182.5
600.546	1232.3
600.746	1250.51
600.947	1281.51
601.147	1179.79
601.348	1234.43
601.548	1129.03
601.749	1175.34
601.949	1130.19
602.15	1161.19
602.35	1150.73
602.551	1219.12
602.751	1123.02
602.951	1129.22
603.152	1094.93
603.352	1214.86
603.552	1177.66
603.753	1192.58
603.953	1183.86
604.153	1178.05
604.354	1149.57
604.554	1149.76
604.754	1155.77
604.954	1105.01
605.155	1175.14
605.355	1154.99
605.555	1192.19
605.755	1194.9
605.955	1124.77
606.155	1160.8
606.356	1153.64
606.556	1155.96
606.756	1175.92
606.956	1100.74
607.156	1174.37
607.356	1117.02
607.556	1146.08
607.756	1147.44
607.956	1185.8
608.156	1167.59
608.356	1135.42
608.556	1157.9
608.756	1139.69
608.956	1078.46
609.156	1174.37
609.356	1088.15
609.556	1067.81
609.755	1128.45
609.955	1103.65
610.155	1095.51
610.355	1138.52
610.555	1065.67
610.755	1074.39
610.954	1049.98
611.154	1084.27
611.354	1115.08
611.554	1051.92
611.753	1051.72
611.953	1031.57
612.153	1105.01
612.352	1099.19
612.552	1048.82
612.752	984.69
612.951	1081.17
613.151	1077.3
613.351	1031.57
613.55	1039.91
613.75	1064.9
613.949	1067.03
614.149	1053.47
614.348	1043.59
614.548	1036.42
614.747	960.28
614.947	1019.95
615.146	960.47
615.346	1061.99
615.545	1034.67
615.745	1049.79
615.944	1064.51
616.144	1007.94
616.343	1085.24
616.542	1014.91
616.742	1020.92
616.941	1037.97
617.14	966.67
617.34	1030.61
617.539	996.89
617.738	973.06
617.938	1092.99
618.137	963.76
618.336	945.74
618.535	1029.64
618.734	1007.55
618.934	1028.86
619.133	1032.54
619.332	1024.21
619.531	952.91
619.73	970.54
619.929	1032.35
620.128	1017.04
620.328	1035.26
620.527	972.29
620.726	978.68
620.925	1005.23
621.124	987.21
621.323	1007.55
621.522	946.13
621.721	954.46
621.92	987.4
622.119	1015.49
622.318	944.39
622.517	972.09
622.715	1007.74
622.914	919.78
623.113	945.16
623.312	900.8
623.511	980.23
623.71	946.71
623.909	907.58
624.107	985.08
624.306	892.85
624.505	914.36
624.704	949.04
624.902	934.7
625.101	983.14
625.3	946.13
625.499	861.66
625.697	915.13
625.896	898.86
626.095	939.93
626.293	865.34
626.492	876.19
626.69	928.5
626.889	881.42
627.088	968.41
627.286	890.33
627.485	884.91
627.683	910.29
627.882	955.24
628.08	840.54
628.279	891.88
628.477	963.57
628.676	853.33
628.874	917.85
629.073	876.58
629.271	890.91
629.469	935.28
629.668	878.32
629.866	879.87
630.065	872.12
630.263	943.61
630.461	861.85
630.66	891.11
630.858	918.23
631.056	923.66
631.254	947.29
631.453	855.26
631.651	918.62
631.849	892.46
632.047	894.79
632.245	916.3
632.444	893.43
632.642	909.71
632.84	902.35
633.038	873.86
633.236	855.26
633.434	841.51
633.632	846.74
633.83	855.26
634.028	911.65
634.227	838.41
634.425	963.38
634.623	855.07
634.821	893.82
635.019	825.04
635.216	850.42
635.414	922.5
635.612	900.21
635.81	826.78
636.008	913
636.206	869.8
636.404	911.06
636.602	848.29
636.8	857.4
636.997	884.52
637.195	907.96
637.393	887.62
637.591	875.61
637.789	880.84
637.986	863.4
638.184	828.53
638.382	910.68
638.58	920.17
638.777	943.23
638.975	845.96
639.173	857.59
639.37	870.76
639.568	863.4
639.765	869.6
639.963	821.55
640.161	883.55
640.358	886.46
640.556	794.62
640.753	804.7
640.951	789
641.148	837.05
641.346	803.15
641.543	843.25
641.741	861.46
641.938	804.12
642.136	820.39
642.333	790.75
642.531	868.25
642.728	880.06
642.925	834.15
643.123	835.5
643.32	840.54
643.517	807.41
643.715	827.37
643.912	793.65
644.109	834.34
644.306	805.67
644.504	794.43
644.701	805.08
644.898	825.23
645.095	764.78
645.293	806.63
645.49	827.17
645.687	823.88
645.884	843.64
646.081	756.84
646.278	784.93
646.475	750.25
646.672	781.45
646.87	821.36
647.067	813.8
647.264	802.57
647.461	730.3
647.658	719.64
647.855	766.92
648.052	744.05
648.249	644.47
648.446	750.06
648.642	701.43
648.839	714.99
649.036	709.76
649.233	690.77
649.43	682.25
649.627	635.56
649.824	721.58
650.021	675.66
650.217	687.67
650.414	697.75
650.611	769.43
650.808	748.7
651.004	724.49
651.201	738.63
651.398	789.78
651.595	736.5
651.791	697.17
651.988	759.17
652.185	694.07
652.381	764.4
652.578	673.92
652.775	745.41
652.971	694.45
653.168	715.77
653.364	758
653.561	659.77
653.757	724.87
653.954	718.29
654.15	698.52
654.347	759.17
654.543	744.25
654.74	684.96
654.936	659.97
655.133	705.11
655.329	713.83
655.525	685.35
655.722	732.82
655.918	661.13
656.115	705.69
656.311	625.87
656.507	585.37
656.704	580.73
656.9	607.66
657.096	560.96
657.292	602.04
657.489	660.74
657.685	648.15
657.881	631.1
658.077	649.31
658.273	686.12
658.47	714.99
658.666	657.06
658.862	710.34
659.058	679.34
659.254	716.54
659.45	659.19
659.646	651.25
659.842	682.64
660.038	729.52
660.234	661.91
660.43	694.26
660.626	740.57
660.822	736.11
661.018	759.36
661.214	704.92
661.41	644.47
661.606	725.45
661.802	726.62
661.998	704.14
662.194	644.47
662.39	686.9
662.586	692.9
662.781	699.69
662.977	721.97
663.173	728.75
663.369	689.03
663.564	680.7
663.76	714.6
663.956	676.44
664.152	728.75
664.347	643.5
664.543	685.74
664.739	654.16
664.934	633.42
665.13	628.77
665.326	728.17
665.521	661.52
665.717	641.95
665.912	655.12
666.108	587.89
666.304	656.48
666.499	683.22
666.695	588.47
666.89	651.44
667.086	707.82
667.281	684.96
667.477	745.02
667.672	690.77
667.867	691.16
668.063	692.32
668.258	615.21
668.454	663.07
668.649	724.1
668.844	697.55
669.04	703.56
669.235	632.07
669.43	627.81
669.626	639.43
669.821	640.01
670.016	609.98
670.211	632.26
670.407	619.67
670.602	684.19
670.797	651.25
670.992	657.06
671.187	620.83
671.382	680.31
671.578	619.67
671.773	646.6
671.968	613.86
672.163	653.38
672.358	640.21
672.553	656.87
672.748	620.25
672.943	709.18
673.138	655.9
673.333	684.96
673.528	597.77
673.723	646.02
673.918	654.35
674.113	582.28
674.308	696.39
674.503	651.25
674.698	664.04
674.892	667.91
675.087	680.89
675.282	659.39
675.477	617.92
675.672	645.63
675.867	638.46
676.061	623.35
676.256	599.71
676.451	618.51
676.646	630.71
676.84	593.32
677.035	588.86
677.23	587.89
677.424	625.67
677.619	657.64
677.814	641.95
678.008	688.06
678.203	575.49
678.397	627.81
678.592	607.27
678.787	682.44
678.981	635.94
679.176	635.36
679.37	639.62
679.565	572.39
679.759	595.64
679.954	634.78
680.148	680.12
680.342	691.35
680.537	651.25
680.731	621.8
680.926	641.37
681.12	679.15
681.314	601.65
681.509	634.2
681.703	612.89
681.897	661.71
682.092	644.66
682.286	604.17
682.48	687.09
682.674	696.59
682.869	655.51
683.063	612.69
683.257	711.5
683.451	604.36
683.645	632.65
683.839	652.99
684.034	618.7
684.228	656.29
684.422	600.68
684.616	594.87
684.81	657.84
685.004	604.36
685.198	630.52
685.392	652.99
685.586	572.78
685.78	629.16
685.974	655.32
686.168	642.14
686.362	686.7
686.556	581.5
686.75	550.5
686.944	582.86
687.138	591.57
687.331	534.81
687.525	531.9
687.719	484.82
687.913	552.44
688.107	566.58
688.301	536.36
688.494	580.14
688.688	482.11
688.882	481.14
689.076	506.52
689.269	548.18
689.463	630.13
689.657	523.38
689.85	523.76
690.044	549.73
690.238	535.97
690.431	539.84
690.625	546.24
690.818	563.68
691.012	552.05
691.205	582.86
691.399	540.62
691.593	588.47
691.786	609.01
691.98	625.29
692.173	628.77
692.366	608.24
692.56	597.58
692.753	694.65
692.947	588.28
693.14	655.51
693.333	682.83
693.527	586.15
693.72	620.64
693.914	602.81
694.107	596.03
694.3	647.76
694.493	640.01
694.687	669.85
694.88	592.93
695.073	699.3
695.266	670.24
695.46	645.82
695.653	707.82
695.846	702.98
696.039	624.9
696.232	652.8
696.425	732.82
696.618	718.09
696.812	727.2
697.005	762.65
697.198	817.48
697.391	783
697.584	790.36
697.777	848.1
697.97	819.23
698.163	813.22
698.356	774.47
698.549	909.9
698.742	875.8
698.935	831.82
699.127	841.9
699.32	812.64
699.513	836.28
699.706	879.87
699.899	866.11
700.092	874.06
700.285	888.59
700.477	869.21
700.67	909.13
700.863	952.33
701.056	1013.75
701.248	990.5
701.441	991.08
701.634	959.5
701.826	1072.46
702.019	932.38
702.212	1065.09
702.404	951.75
702.597	977.33
702.79	1010.65
702.982	1062.38
703.175	1089.31
703.367	1095.32
703.56	1109.85
703.752	1206.92
703.945	1148.6
704.137	1198.2
704.33	1200.72
704.522	1158.48
704.715	1192.77
704.907	1228.23
705.1	1277.83
705.292	1286.93
705.484	1253.61
705.677	1305.53
705.869	1307.08
706.061	1358.04
706.254	1378.58
706.446	1343.31
706.638	1328.2
706.831	1448.52
707.023	1365.79
707.215	1487.46
707.407	1492.31
707.599	1461.11
707.792	1520.4
707.984	1484.75
708.176	1545.59
708.368	1490.37
708.56	1570.58
708.752	1568.84
708.944	1541.52
709.136	1597.7
709.329	1563.22
709.521	1706.2
709.713	1684.7
709.905	1639.75
710.097	1718.99
710.289	1660.67
710.481	1678.11
710.672	1723.06
710.864	1733.33
711.056	1781.18
711.248	1801.91
711.44	1793
711.632	1754.25
711.824	1884.06
712.016	1862.75
712.207	1871.86
712.399	1907.7
712.591	1963.69
712.783	1918.74
712.975	1957.69
713.166	1927.07
713.358	1942.19
713.55	1993.92
713.741	2021.62
713.933	2032.28
714.125	2033.83
714.316	1993.34
714.508	2086.72
714.7	2104.55
714.891	2129.93
715.083	2128.38
715.274	2109.2
715.466	2121.79
715.657	2208.01
715.849	2062.12
716.04	2136.71
716.232	2110.36
716.423	2208.59
716.615	2124.31
716.806	2119.85
716.998	2097.96
717.189	2034.41
717.381	1990.04
717.572	1936.57
717.763	1997.4
717.955	1987.14
718.146	1930.76
718.337	1916.61
718.528	1854.61
718.72	1817.22
718.911	1887.36
719.102	1857.52
719.293	1891.23
719.485	1877.48
719.676	1871.28
719.867	1837.37
720.058	1847.44
720.249	1879.22
720.44	1892.59
720.632	1972.8
720.823	1973.57
721.014	2102.03
721.205	2077.23
721.396	2190.96
721.587	2251.41
721.778	2298.49
721.969	2335.3
722.16	2394.59
722.351	2392.84
722.542	2539.12
722.733	2546.68
722.924	2464.53
723.115	2539.51
723.305	2545.32
723.496	2547.84
723.687	2421.71
723.878	2421.71
724.069	2471.89
724.26	2458.91
724.45	2386.45
724.641	2384.12
724.832	2460.07
725.023	2407.76
725.213	2389.55
725.404	2418.22
725.595	2425.39
725.785	2400.79
725.976	2523.43
726.167	2479.84
726.357	2487.2
726.548	2589.5
726.739	2531.18
726.929	2598.02
727.12	2633.09
727.31	2681.14
727.501	2607.32
727.691	2623.79
727.882	2636.96
728.072	2705.16
728.263	2666.41
728.453	2732.29
728.644	2715.24
728.834	2713.49
729.024	2700.9
729.215	2700.51
729.405	2702.84
729.596	2815.99
729.786	2819.28
729.976	2853.96
730.167	2874.3
730.357	2818.12
730.547	2806.3
730.737	2869.65
730.928	2915.77
731.118	2985.71
731.308	2884.77
731.498	2901.24
731.688	3014.77
731.879	3011.67
732.069	3055.46
732.259	3091.69
732.449	3138.77
732.639	3187.21
732.829	3212.78
733.019	3223.82
733.209	3308.49
733.399	3316.24
733.589	3333.87
733.779	3406.53
733.969	3397.81
734.159	3506.5
734.349	3499.33
734.539	3563.46
734.729	3515.03
734.919	3592.53
735.109	3676.22
735.299	3561.91
735.488	3606.86
735.678	3607.06
735.868	3589.81
736.058	3593.88
736.248	3632.83
736.437	3546.61
736.627	3575.09
736.817	3694.44
737.007	3633.79
737.196	3685.72
737.386	3667.31
737.576	3627.79
737.765	3715.36
737.955	3707.22
738.144	3793.05
738.334	3755.47
738.524	3719.04
738.713	3755.85
738.903	3723.89
739.092	3779.88
739.282	3783.95
739.471	3783.56
739.661	3757.21
739.85	3858.54
740.04	3797.9
740.229	3841.1
740.419	3852.73
740.608	3872.1
740.797	3876.37
740.987	3906.78
741.176	3931.58
741.365	3858.15
741.555	3835.1
741.744	3930.23
741.933	3913.18
742.123	3908.33
742.312	3958.13
742.501	4011.21
742.69	3994.16
742.88	3898.26
743.069	4002.3
743.258	3962.97
743.447	4063.14
743.636	4002.11
743.825	3953.86
744.014	4029.81
744.204	4030.39
744.393	3978.66
744.582	4148.97
744.771	4042.21
744.96	4035.04
745.149	4080.19
745.338	4050.74
745.527	4081.93
745.716	4085.42
745.905	4050.35
746.094	4106.73
746.283	4141.61
746.471	4091.23
746.66	4210.19
746.849	4166.21
747.038	4162.34
747.227	4100.53
747.416	4159.62
747.604	4104.21
747.793	4086.39
747.982	4128.24
748.171	4150.13
748.359	4134.63
748.548	4169.12
748.737	4161.56
748.926	4081.74
749.114	3996.88
749.303	4161.56
749.491	4064.49
749.68	4035.82
749.869	4110.41
750.057	4056.74
750.246	4042.41
750.434	4097.43
750.623	4113.51
750.811	4041.63
751	4109.25
751.188	4089.1
751.377	4097.43
751.565	4050.54
751.754	4031.17
751.942	4053.45
752.131	4100.92
752.319	4053.06
752.507	3960.45
752.696	4075.15
752.884	4079.41
753.072	4052.29
753.261	4090.65
753.449	4069.53
753.637	3971.69
753.825	4137.92
754.014	4026.13
754.202	4068.37
754.39	4132.31
754.578	4102.27
754.766	4004.24
754.955	3998.23
755.143	4122.81
755.331	4003.66
755.519	4004.43
755.707	3992.61
755.895	3961.61
756.083	4044.54
756.271	3948.25
756.459	3975.95
756.647	4007.53
756.835	3994.16
757.023	3963.36
757.211	3928.48
757.399	3981.57
757.587	3972.85
757.775	3950.57
757.963	3921.51
758.151	3942.05
758.339	3889.93
758.526	3860.87
758.714	3936.81
758.902	3817.85
759.09	3775.42
759.278	3582.45
759.465	3408.27
759.653	3008.57
759.841	2821.02
760.028	2428.69
760.216	2166.74
760.404	2047.39
760.591	1775.18
760.779	1497.54
760.967	1382.84
761.154	1211.57
761.342	1250.9
761.529	1267.75
761.717	1349.9
761.905	1345.06
762.092	1439.22
762.28	1430.89
762.467	1497.54
762.655	1401.44
762.842	1440.58
763.029	1489.59
763.217	1483.97
763.404	1488.62
763.592	1536.09
763.779	1491.53
763.966	1533.77
764.154	1591.5
764.341	1664.93
764.528	1661.06
764.716	1747.08
764.903	1774.01
765.09	1875.15
765.277	1904.79
765.465	2050.49
765.652	2138.26
765.839	2183.6
766.026	2311.86
766.213	2331.81
766.4	2437.79
766.588	2623.98
766.775	2673.2
766.962	2747.4
767.149	2813.08
767.336	2959.75
767.523	2886.9
767.71	3021.36
767.897	3143.61
768.084	3192.05
768.271	3234.87
768.458	3248.24
768.645	3373.79
768.832	3309.85
769.019	3293.57
769.206	3306.75
769.392	3409.63
769.579	3499.72
769.766	3411.18
769.953	3452.45
770.14	3509.02
770.327	3483.06
770.513	3542.93
770.7	3623.72
770.887	3496.81
771.073	3557.65
771.26	3550.29
771.447	3459.42
771.634	3460
771.82	3611.32
772.007	3460.58
772.193	3555.52
772.38	3559.98
772.567	3499.14
772.753	3521.23
772.94	3582.64
773.126	3563.85
773.313	3562.3
773.499	3492.36
773.686	3552.23
773.872	3510.96
774.059	3531.11
774.245	3468.91
774.432	3475.7
774.618	3350.54
774.804	3478.6
774.991	3393.16
775.177	3433.27
775.363	3423
775.55	3465.23
775.736	3398.39
775.922	3402.46
776.109	3448.77
776.295	3421.45
776.481	3459.81
776.667	3486.16
776.853	3453.22
777.04	3401.3
777.226	3404.98
777.412	3497.59
777.598	3370.49
777.784	3380.18
777.97	3403.23
778.156	3354.6
778.342	3359.64
778.528	3385.22
778.715	3330.97
778.901	3304.23
779.087	3356.54
779.272	3276.14
779.458	3331.16
779.644	3326.32
779.83	3261.22
780.016	3378.24
780.202	3305.97
780.388	3252.5
780.574	3185.66
780.76	3216.46
780.946	3333.68
781.131	3258.51
781.317	3266.45
781.503	3201.35
781.689	3238.55
781.874	3367.78
782.06	3202.51
782.246	3253.86
782.432	3204.26
782.617	3258.31
782.803	3255.02
782.989	3161.24
783.174	3198.06
783.36	3131.6
783.545	3215.69
783.731	3175.58
783.916	3074.25
784.102	3181.98
784.288	3122.3
784.473	3149.81
784.659	3099.63
784.844	3199.22
785.029	3076.19
785.215	3082.2
785.4	3006.63
785.586	3154.46
785.771	3023.88
785.956	3130.05
786.142	3045.38
786.327	3046.35
786.512	3052.36
786.698	3058.56
786.883	2964.78
787.068	3051.97
787.254	3029.3
787.439	2992.88
787.624	2990.94
787.809	2988.03
787.994	2943.86
788.18	3064.37
788.365	2935.14
788.55	2974.08
788.735	3004.5
788.92	2970.02
789.105	2929.52
789.29	2974.47
789.475	2921
789.66	2888.84
789.845	2878.18
790.03	2837.49
790.215	2944.05
790.4	2953.55
790.585	2942.89
790.77	2926.04
790.955	2827.42
791.14	2853.57
791.325	2899.49
791.51	2758.44
791.695	2869.65
791.879	2849.12
792.064	2758.83
792.249	2915.77
792.434	2845.63
792.618	2831.87
792.803	2870.82
792.988	2810.95
793.173	2852.02
793.357	2881.67
793.542	2810.76
793.727	2819.09
793.911	2867.33
794.096	2832.07
794.281	2877.4
794.465	2947.93
794.65	2837.69
794.834	2877.79
795.019	2909.57
795.203	2880.89
795.388	2930.1
795.572	2924.87
795.757	2913.05
795.941	2917.9
796.126	2903.95
796.31	2802.42
796.494	2907.44
796.679	2849.12
796.863	2822.96
797.048	2902.2
797.232	2865.97
797.416	2944.25
797.601	2846.41
797.785	2956.65
797.969	2958.2
798.153	2863.26
798.338	2892.52
798.522	2973.7
798.706	2961.49
798.89	2962.46
799.074	3046.16
799.258	2963.04
799.443	2946.57
799.627	2937.47
799.811	2966.33
799.995	2887.09
800.179	2876.82
800.363	2895.62
800.547	2951.61
800.731	2982.03
800.915	2859.77
801.099	2875.47
801.283	2904.53
801.467	2875.66
801.651	2859
801.835	2951.22
802.019	2969.05
802.202	2899.1
802.386	2867.33
802.57	2886.12
802.754	2899.1
802.938	2812.31
803.121	2886.9
803.305	2934.95
803.489	2902.01
803.673	2908.79
803.856	2931.27
804.04	2871.59
804.224	2937.85
804.407	2890.97
804.591	2860.35
804.775	2820.06
804.958	2896.39
805.142	3005.28
805.326	2878.37
805.509	2894.26
805.693	2954.13
805.876	2926.62
806.06	2928.36
806.243	2917.7
806.427	2931.65
806.61	2956.26
806.794	2888.45
806.977	2912.47
807.16	2924.49
807.344	2939.79
807.527	2951.42
807.71	2861.52
807.894	2946.38
808.077	2904.92
808.26	2884.57
808.444	2890.77
808.627	2913.25
808.81	2834.59
808.993	2803.59
809.177	2740.81
809.36	2844.08
809.543	2821.61
809.726	2737.33
809.909	2743.72
810.092	2729.96
810.276	2745.46
810.459	2779.56
810.642	2710.98
810.825	2679.78
811.008	2713.11
811.191	2629.99
811.374	2617.78
811.557	2646.85
811.74	2720.47
811.923	2646.26
812.106	2597.05
812.289	2580.97
812.472	2578.26
812.654	2591.82
812.837	2589.3
813.02	2522.65
813.203	2501.34
813.386	2343.44
813.569	2395.75
813.751	2312.24
813.934	2375.02
814.117	2332.97
814.3	2284.73
814.482	2237.26
814.665	2160.35
814.848	2181.46
815.03	2145.82
815.213	2115.01
815.396	2128.96
815.578	2090.21
815.761	2062.89
815.943	2135.74
816.126	1970.67
816.309	1969.31
816.491	1921.07
816.674	1881.16
816.856	1910.22
817.039	1878.06
817.221	1976.48
817.403	1900.53
817.586	1939.28
817.768	1972.8
817.951	1858.29
818.133	1866.63
818.315	1887.94
818.498	1910.99
818.68	1974.93
818.862	1925.72
819.045	1958.85
819.227	1969.31
819.409	1926.11
819.591	1950.52
819.774	1928.04
819.956	1876.51
820.138	1974.54
820.32	1967.57
820.502	2020.46
820.684	2061.54
820.866	2067.54
821.048	2112.68
821.231	2122.76
821.413	2085.17
821.595	2068.9
821.777	2121.4
821.959	2085.95
822.141	2171
822.323	2032.47
822.505	2035.19
822.686	1972.99
822.868	1914.87
823.05	1740.11
823.232	1729.65
823.414	1617.47
823.596	1714.53
823.778	1724.61
823.96	1749.6
824.141	1727.13
824.323	1758.13
824.505	1829.23
824.687	1872.24
824.868	1930.56
825.05	2015.42
825.232	2022.01
825.413	2100.87
825.595	2081.68
825.777	1987.33
825.958	2003.02
826.14	2004.77
826.321	2060.18
826.503	1989.46
826.685	2034.8
826.866	2078.39
827.048	2076.84
827.229	2015.81
827.411	1962.14
827.592	1949.55
827.773	1916.61
827.955	1894.52
828.136	1888.13
828.318	1845.51
828.499	1869.92
828.68	1800.56
828.862	1834.08
829.043	1908.28
829.224	1848.99
829.406	1805.6
829.587	1836.01
829.768	1825.36
829.949	1845.89
830.131	1871.47
830.312	1884.06
830.493	1847.64
830.674	1846.28
830.855	1837.95
831.036	1828.84
831.218	1898.4
831.399	1928.24
831.58	1845.51
831.761	1869.73
831.942	1843.96
832.123	1859.46
832.304	1801.72
832.485	1833.11
832.666	1830.2
832.847	1842.41
833.028	1848.8
833.209	1835.24
833.389	1807.53
833.57	1792.81
833.751	1798.81
833.932	1894.52
834.113	1833.88
834.294	1763.36
834.475	1864.88
834.655	1854.61
834.836	1887.94
835.017	1877.67
835.198	1756.38
835.378	1851.13
835.559	1864.3
835.74	1839.89
835.92	1781.57
836.101	1832.14
836.281	1863.72
836.462	1871.66
836.643	1920.29
836.823	1910.8
837.004	1890.46
837.184	1903.44
837.365	1954.97
837.545	1886.19
837.726	1862.75
837.906	1933.08
838.087	1901.5
838.267	1874.57
838.448	1836.59
838.628	1870.31
838.808	1857.91
838.989	1946.06
839.169	1811.41
839.349	1900.34
839.53	1919.13
839.71	1885.03
839.89	1833.11
840.07	1906.15
840.251	1834.66
840.431	1934.24
840.611	1872.63
840.791	1836.59
840.971	1910.99
841.151	1814.51
841.332	1809.28
841.512	1898.4
841.692	1775.95
841.872	1848.22
842.052	1823.42
842.232	1888.52
842.412	1766.26
842.592	1840.08
842.772	1864.69
842.952	1869.53
843.132	1793
843.312	1825.36
843.492	1816.44
843.672	1830.98
843.851	1729.65
844.031	1816.83
844.211	1806.95
844.391	1774.79
844.571	1806.37
844.751	1822.06
844.93	1806.95
845.11	1775.56
845.29	1794.36
845.47	1807.53
845.649	1801.72
845.829	1801.33
846.009	1757.16
846.188	1788.93
846.368	1743.6
846.547	1760.06
846.727	1814.12
846.907	1731.58
847.086	1743.6
847.266	1792.42
847.445	1795.71
847.625	1729.06
847.804	1708.92
847.984	1737.98
848.163	1729.06
848.343	1720.73
848.522	1741.85
848.701	1741.85
848.881	1689.15
849.06	1715.7
849.239	1733.91
849.419	1770.33
849.598	1637.03
849.777	1655.44
849.957	1668.62
850.136	1583.37
850.315	1571.35
850.494	1551.01
850.674	1568.25
850.853	1669.78
851.032	1613.01
851.211	1650.4
851.39	1625.02
851.569	1561.47
851.748	1565.74
851.927	1614.75
852.107	1632.19
852.286	1571.94
852.465	1537.26
852.644	1642.27
852.823	1629.29
853.002	1633.55
853.181	1616.89
853.359	1608.75
853.538	1537.64
853.717	1643.62
853.896	1522.34
854.075	1446
854.254	1402.02
854.433	1322.78
854.611	1408.61
854.79	1324.52
854.969	1375.28
855.148	1436.12
855.327	1396.4
855.505	1427.21
855.684	1425.46
855.863	1455.3
856.041	1430.11
856.22	1448.52
856.399	1427.98
856.577	1568.64
856.756	1523.31
856.934	1618.44
857.113	1630.45
857.291	1544.23
857.47	1490.95
857.648	1579.1
857.827	1536.09
858.005	1556.05
858.184	1514.2
858.362	1627.93
858.541	1579.69
858.719	1520.98
858.898	1523.11
859.076	1488.43
859.254	1615.72
859.433	1500.06
859.611	1454.14
859.789	1500.44
859.967	1533.96
860.146	1551.79
860.324	1435.15
860.502	1445.23
860.68	1427.21
860.859	1461.5
861.037	1480.87
861.215	1463.24
861.393	1474.09
861.571	1464.6
861.749	1449.29
861.927	1481.07
862.105	1493.66
862.283	1457.43
862.461	1429.14
862.639	1438.64
862.817	1418.88
862.995	1419.65
863.173	1422.75
863.351	1418.49
863.529	1470.41
863.707	1459.56
863.885	1439.8
864.063	1377.61
864.241	1377.41
864.418	1485.33
864.596	1395.63
864.774	1369.86
864.952	1389.62
865.129	1437.67
865.307	1363.46
865.485	1301.66
865.663	1424.88
865.84	1290.81
866.018	1344.67
866.196	1227.65
866.373	1220.28
866.551	1203.62
866.728	1160.42
866.906	1185.99
867.084	1227.65
867.261	1257.87
867.439	1276.08
867.616	1295.46
867.794	1298.95
867.971	1288.29
868.149	1306.7
868.326	1340.21
868.503	1322.78
868.681	1281.32
868.858	1273.76
869.035	1272.4
869.213	1311.15
869.39	1299.72
869.567	1350.87
869.745	1287.13
869.922	1302.05
870.099	1350.1
870.276	1339.63
870.454	1311.73
870.631	1302.63
870.808	1312.31
870.985	1316.38
871.162	1383.61
871.339	1328.59
871.517	1226.48
871.694	1250.12
871.871	1273.18
872.048	1252.83
872.225	1299.53
872.402	1285.77
872.579	1195.29
872.756	1261.55
872.933	1231.52
873.11	1230.36
873.287	1259.03
873.463	1220.48
873.64	1204.4
873.817	1287.71
873.994	1190.45
874.171	1185.22
874.348	1268.33
874.524	1163.13
874.701	1231.72
874.878	1126.9
875.055	1223
875.231	1203.62
875.408	1214.47
875.585	1134.07
875.762	1182.31
875.938	1161
876.115	1194.9
876.291	1167.39
876.468	1179.02
876.645	1114.11
876.821	1164.87
876.998	1174.75
877.174	1165.07
877.351	1163.9
877.527	1136.59
877.704	1174.95
877.88	1154.99
878.057	1123.6
878.233	1185.02
878.409	1148.02
878.586	1177.27
878.762	1128.84
878.938	1118.57
879.115	1064.32
879.291	1135.81
879.467	1080.59
879.644	1102.1
879.82	1126.12
879.996	1073.81
880.172	1083.69
880.349	1161.58
880.525	1127.87
880.701	1074.01
880.877	1066.06
881.053	1101.52
881.229	1082.53
881.405	1109.65
881.581	1067.42
881.757	1070.32
881.933	1096.09
882.109	1138.91
882.285	1095.12
882.461	1042.23
882.637	1085.05
882.813	1037.39
882.989	1060.06
883.165	1163.32
883.341	1076.52
883.517	1132.13
883.693	1114.5
883.869	1130.19
884.044	1063.54
884.22	1115.85
884.396	1149.95
884.572	1109.85
884.747	1109.65
884.923	1124.19
885.099	1118.76
885.275	1145.3
885.45	1052.89
885.626	1080.21
885.801	1041.65
885.977	1069.74
886.153	1022.27
886.328	1076.14
886.504	1079.24
886.679	1083.89
886.855	1072.26
887.03	1095.9
887.206	1124.96
887.381	1082.34
887.557	1110.62
887.732	1098.81
887.908	1121.09
888.083	1129.8
888.258	1055.99
888.434	1098.81
888.609	1033.51
888.784	1143.37
888.96	1081.17
889.135	1035.06
889.31	1059.47
889.485	1106.94
889.661	1067.81
889.836	1088.73
890.011	1096.48
890.186	1091.25
890.361	1061.22
890.537	1095.9
890.712	1071.87
890.887	1077.69
891.062	1091.25
891.237	1133.1
891.412	1054.05
891.587	1093.77
891.762	1098.61
891.937	1110.82
892.112	1023.63
892.287	1079.43
892.462	1024.02
892.637	995.34
892.812	982.56
892.987	969.19
893.161	996.89
893.336	997.67
893.511	991.08
893.686	1014.33
893.861	992.44
894.035	968.99
894.21	1009.49
894.385	981.39
894.56	1018.4
894.734	954.66
894.909	946.33
895.084	942.06
895.258	932.38
895.433	948.07
895.608	918.04
895.782	857.4
895.957	881.23
896.131	903.12
896.306	816.13
896.48	836.28
896.655	824.27
896.829	761.3
897.004	775.05
897.178	744.83
897.353	780.67
897.527	840.93
897.701	762.85
897.876	734.75
898.05	865.15
898.224	814.77
898.399	838.8
898.573	802.76
898.747	673.72
898.921	730.1
899.096	629.94
899.27	648.54
899.444	660.74
899.618	674.11
899.792	698.91
899.967	700.07
900.141	730.3
900.315	666.94
900.489	680.31
900.663	691.55
900.837	722.35
901.011	621.99
901.185	764.98
901.359	724.29
901.533	700.85
901.707	713.25
901.881	728.75
902.055	630.91
902.229	711.7
902.403	723.52
902.576	720.42
902.75	698.91
902.924	820
903.098	761.88
903.272	774.28
903.446	866.11
903.619	775.05
903.793	853.13
903.967	831.24
904.14	869.8
904.314	855.26
904.488	827.75
904.661	835.12
904.835	817.87
905.009	866.31
905.182	903.7
905.356	849.65
905.529	853.91
905.703	819.81
905.876	814.38
906.05	791.72
906.223	764.78
906.397	703.75
906.57	700.27
906.744	697.17
906.917	714.99
907.09	711.7
907.264	675.08
907.437	655.32
907.61	648.92
907.784	677.79
907.957	653.57
908.13	625.29
908.304	641.37
908.477	604.75
908.65	626.45
908.823	612.5
908.996	706.47
909.17	627.81
909.343	590.22
909.516	652.02
909.689	628.97
909.862	573.75
910.035	599.13
910.208	601.26
910.381	572.78
910.554	676.05
910.727	618.89
910.9	572.59
911.073	596.81
911.246	634.01
911.419	658.03
911.592	616.96
911.765	576.46
911.938	610.37
912.11	635.56
912.283	592.16
912.456	647.57
912.629	619.47
912.802	572.59
912.974	574.53
913.147	536.94
913.32	459.44
913.493	507.68
913.665	528.03
913.838	516.01
914.01	543.53
914.183	528.8
914.356	531.13
914.528	574.53
914.701	646.99
914.873	605.91
915.046	547.21
915.218	503.23
915.391	456.92
915.563	467.96
915.736	521.24
915.908	516.21
916.081	542.75
916.253	502.26
916.425	522.6
916.598	566
916.77	539.26
916.942	502.26
917.115	463.12
917.287	524.93
917.459	503.81
917.632	451.11
917.804	407.52
917.976	507.68
918.148	490.63
918.32	503.03
918.493	534.81
918.665	579.37
918.837	532.29
919.009	588.28
919.181	572.98
919.353	548.95
919.525	514.46
919.697	529.77
919.869	534.42
920.041	590.22
920.213	646.99
920.385	603.78
920.557	535.78
920.729	570.26
920.901	575.3
921.073	516.21
921.244	535.58
921.416	563.09
921.588	533.26
921.76	520.86
921.932	591.77
922.103	533.84
922.275	547.59
922.447	527.83
922.619	465.64
922.79	499.54
922.962	509.43
923.134	533.64
923.305	475.33
923.477	445.1
923.648	472.61
923.82	496.64
923.991	437.35
924.163	406.16
924.335	467.96
924.506	434.45
924.677	503.23
924.849	427.28
925.02	462.93
925.192	513.69
925.363	476.68
925.535	484.82
925.706	444.13
925.877	517.18
926.049	442.2
926.22	470.48
926.391	497.61
926.562	480.95
926.734	440.06
926.905	521.05
927.076	435.03
927.247	470.48
927.419	377.68
927.59	406.93
927.761	391.43
927.932	399.38
928.103	400.73
928.274	327.69
928.445	369.54
928.616	346.87
928.787	356.75
928.958	399.18
929.129	368.77
929.3	352.88
929.471	302.89
929.642	254.45
929.813	204.66
929.984	318.97
930.155	214.16
930.326	298.82
930.496	258.72
930.667	172.31
930.838	248.25
931.009	210.67
931.18	237.99
931.35	212.22
931.521	214.74
931.692	150.41
931.863	141.11
932.033	187.42
932.204	179.86
932.374	160.49
932.545	148.47
932.716	206.41
932.886	178.12
933.057	103.14
933.227	126.97
933.398	203.11
933.568	78.92
933.739	64.58
933.909	86.09
934.08	118.25
934.25	48.7
934.421	75.24
934.591	107.98
934.761	66.33
934.932	48.7
935.102	110.5
935.272	69.23
935.443	100.04
935.613	64.58
935.783	112.63
935.953	42.3
936.123	253.87
936.294	57.61
936.464	60.71
936.634	69.62
936.804	43.46
936.974	39.2
937.144	81.24
937.314	97.52
937.484	63.23
937.655	62.06
937.825	114.57
937.995	69.43
938.165	126.39
938.334	63.42
938.504	113.02
938.674	59.93
938.844	121.54
939.014	160.68
939.184	137.43
939.354	191.68
939.524	160.1
939.694	128.71
939.863	152.16
940.033	193.42
940.203	200.98
940.373	175.79
940.542	187.03
940.712	131.62
940.882	155.06
941.051	176.96
941.221	187.61
941.391	172.31
941.56	107.79
941.73	101.2
941.899	247.67
942.069	136.08
942.238	164.94
942.408	132.39
942.577	165.52
942.747	175.99
942.916	65.94
943.086	82.6
943.255	143.24
943.425	132.78
943.594	107.79
943.763	33.39
943.933	80.47
944.102	40.36
944.271	87.06
944.441	118.25
944.61	72.33
944.779	104.3
944.948	214.93
945.117	75.82
945.287	93.26
945.456	82.6
945.625	71.56
945.794	138.79
945.963	68.46
946.132	119.22
946.301	83.38
946.47	129.29
946.639	44.05
946.808	100.04
946.977	128.13
947.146	174.63
947.315	74.85
947.484	150.61
947.653	76.79
947.822	66.33
947.991	88.61
948.16	202.53
948.329	140.14
948.498	113.02
948.666	81.24
948.835	133.36
949.004	67.29
949.173	73.11
949.341	115.15
949.51	118.06
949.679	138.21
949.847	120.96
950.016	174.05
950.185	145.76
950.353	55.86
950.522	104.3
950.69	155.84
950.859	78.73
951.028	168.62
951.196	120.58
951.365	88.99
951.533	92.29
951.701	143.05
951.87	141.31
952.038	60.71
952.207	109.34
952.375	164.75
952.543	80.86
952.712	92.29
952.88	75.63
953.048	153.12
953.217	110.11
953.385	105.46
953.553	174.05
953.721	64.58
953.89	89.38
954.058	41.53
954.226	76.4
954.394	108.18
954.562	30.29
954.73	108.18
954.898	89.96
955.067	130.07
955.235	88.03
955.403	136.08
955.571	149.25
955.739	103.72
955.907	60.9
956.075	71.17
956.243	71.36
956.41	119.41
956.578	59.35
956.746	44.05
956.914	72.91
957.082	134.14
957.25	108.18
957.418	67.68
957.585	99.07
957.753	133.36
957.921	75.43
958.089	94.42
958.256	115.93
958.424	104.69
958.592	85.7
958.759	85.51
958.927	117.48
959.095	74.08
959.262	90.54
959.43	104.49
959.597	66.71
959.765	81.63
959.932	88.99
960.1	115.93
960.267	78.92
960.435	100.62
960.602	107.79
960.77	106.24
960.937	55.67
961.104	84.73
961.272	53.73
961.439	96.55
961.606	144.99
961.774	136.85
961.941	84.15
962.108	126.19
962.275	109.14
962.443	133.17
962.61	118.64
962.777	181.41
962.944	137.24
963.111	121.93
963.278	128.33
963.446	100.04
963.613	100.04
963.78	127.94
963.947	160.49
964.114	133.75
964.281	202.34
964.448	140.14
964.615	77.95
964.782	109.14
964.949	157.19
965.116	160.68
965.282	148.67
965.449	119.99
965.616	45.4
965.783	149.83
965.95	100.62
966.117	69.62
966.283	147.51
966.45	118.06
966.617	130.46
966.784	170.37
966.95	151.96
967.117	154.29
967.284	102.56
967.45	71.75
967.617	198.46
967.784	157.77
967.95	177.92
968.117	122.32
968.283	159.32
968.45	234.3
968.616	136.08
968.783	155.64
968.949	151.96
969.116	185.29
969.282	116.12
969.449	129.1
969.615	127.94
969.781	99.46
969.948	121.74
970.114	86.86
970.28	197.3
970.447	128.33
970.613	194.01
970.779	95.58
970.945	173.66
971.112	132.59
971.278	105.85
971.444	119.22
971.61	139.18
971.776	115.34
971.942	137.24
972.108	147.51
972.275	134.72
972.441	156.42
972.607	197.49
972.773	115.54
972.939	153.9
973.105	139.95
973.271	71.36
973.437	83.76
973.602	115.15
973.768	110.89
973.934	118.44
974.1	116.31
974.266	40.95
974.432	127.74
974.598	105.08
974.763	150.22
974.929	123.48
975.095	167.66
975.261	74.85
975.426	88.22
975.592	101.39
975.758	178.12
975.923	64.78
976.089	80.08
976.255	143.83
976.42	129.68
976.586	121.54
976.751	132.01
976.917	196.91
977.082	119.8
977.248	77.95
977.413	50.44
977.579	82.79
977.744	117.86
977.91	51.8
978.075	82.6
978.24	142.66
978.406	103.91
978.571	105.46
978.736	95.58
978.902	137.04
979.067	62.84
979.232	41.91
979.397	100.62
979.563	176.96
979.728	75.63
979.893	76.21
980.058	70.39
980.223	142.28
980.388	101.01
980.554	102.17
980.719	86.28
980.884	102.94
981.049	132.2
981.214	81.63
981.379	93.45
981.544	97.52
981.709	112.24
981.874	99.65
982.039	68.07
982.204	113.99
982.368	116.89
982.533	71.94
982.698	127.55
982.863	134.72
983.028	88.03
983.193	109.53
983.357	117.09
983.522	99.26
983.687	99.65
983.852	101.59
984.016	62.45
984.181	120.19
984.346	135.88
984.51	125.23
984.675	108.37
984.839	129.1
985.004	111.08
985.168	135.11
985.333	88.8
985.498	102.36
985.662	117.86
985.827	139.76
985.991	112.24
986.155	91.51
986.32	133.75
986.484	169.01
986.649	137.82
986.813	41.72
986.977	92.87
987.142	98.88
987.306	64.58
987.47	69.43
987.634	82.21
987.799	105.85
987.963	92.87
988.127	139.56
988.291	154.48
988.455	92.87
988.62	86.67
988.784	120.19
988.948	117.86
989.112	73.88
989.276	82.41
989.44	109.92
989.604	87.83
989.768	81.83
989.932	178.89
990.096	58
990.26	45.21
990.424	68.07
990.588	94.03
990.752	166.49
990.915	109.73
991.079	59.54
991.243	89.58
991.407	120.77
991.571	71.56
991.734	86.86
991.898	127.36
992.062	202.34
992.226	62.26
992.389	68.07
992.553	27.77
992.717	68.26
992.88	61.87
993.044	88.99
993.207	77.18
993.371	131.62
993.535	101.2
993.698	100.04
993.862	88.99
994.025	137.63
994.189	78.34
994.352	103.14
994.515	76.21
994.679	129.1
994.842	45.21
995.006	121.16
995.169	53.15
995.332	52.38
995.496	110.89
995.659	25.06
995.822	58.38
995.985	77.95
996.149	112.24
996.312	75.82
996.475	143.83
996.638	65.16
996.801	115.93
996.964	161.26
997.128	57.61
997.291	66.33
997.454	97.71
997.617	56.64
997.78	107.79
997.943	52.57
998.106	117.28
998.269	63.61
998.432	76.98
998.595	63.61
998.758	10.53
998.92	40.95
999.083	8.78
999.246	67.68
999.409	33.2
999.572	20.6
999.735	23.7
999.897	95.39
1000.06	70.2
1000.223	72.72
1000.386	101.39
1000.548	114.38
1000.711	81.63
1000.874	84.54
1001.036	32.23
1001.199	101.78
1001.361	51.21
1001.524	71.56
1001.687	104.11
1001.849	72.53
1002.012	51.99
1002.174	71.94
1002.337	66.33
1002.499	71.75
1002.661	122.71
1002.824	44.82
1002.986	27.58
1003.149	66.13
1003.311	24.28
1003.473	149.83
1003.636	22.54
1003.798	67.29
1003.96	80.08
1004.123	70.59
1004.285	94.61
1004.447	47.15
1004.609	71.75
1004.771	129.49
1004.933	-2.65
1005.096	22.35
1005.258	15.95
1005.42	53.15
1005.582	98.68
1005.744	60.51
1005.906	-6.91
1006.068	26.8
1006.23	13.63
1006.392	-11.75
1006.554	26.41
1006.716	92.29
1006.878	71.36
1007.04	3.75
1007.202	28.93
1007.363	41.53
1007.525	60.9
1007.687	76.4
1007.849	100.23
1008.011	1.23
1008.172	-0.32
1008.334	34.55
1008.496	49.47
1008.658	-1.68
1008.819	0.84
1008.981	0.06
1009.143	27.96
1009.304	49.28
1009.466	81.44
1009.627	105.66
1009.789	161.26
1009.95	78.53
1010.112	50.83
1010.273	53.93
1010.435	26.22
1010.596	49.86
1010.758	36.68
1010.919	26.03
1011.081	27.38
1011.242	54.12
1011.403	79.69
1011.565	22.93
1011.726	67.1
1011.887	-5.17
1012.049	47.15
1012.21	63.42
1012.371	105.08
1012.532	-24.93
1012.693	37.46
1012.855	10.53
1013.016	53.93
1013.177	76.98
1013.338	43.85
1013.499	127.74
1013.66	66.52
1013.821	61.29
1013.982	39.98
1014.143	54.12
1014.304	11.88
1014.465	75.43
1014.626	62.45
1014.787	33.39
1014.948	110.31
1015.109	-35
1015.27	102.94
1015.431	16.34
1015.592	33.97
1015.752	90.54
1015.913	45.21
1016.074	36.1
1016.235	48.89
1016.395	36.1
1016.556	23.12
1016.717	25.64
1016.877	66.33
1017.038	24.67
1017.199	69.43
1017.359	43.85
1017.52	47.92
1017.681	14.01
1017.841	52.18
1018.002	36.68
1018.162	17.31
1018.323	108.37
1018.483	11.3
1018.644	39.01
1018.804	15.76
1018.964	1.42
1019.125	14.79
1019.285	40.36
1019.446	7.62
1019.606	-14.08
1019.766	-28.42
1019.926	70.39
1020.087	59.16
1020.247	-36.36
1020.407	34.94
1020.567	84.54
1020.728	20.6
1020.888	10.53
1021.048	7.43
1021.208	14.4
1021.368	11.11
1021.528	69.04
1021.688	47.53
1021.848	51.21
1022.008	36.3
1022.168	6.65
1022.328	15.95
1022.488	54.9
1022.648	28.16
1022.808	35.13
1022.968	32.61
1023.128	8.01
1023.288	10.33
1023.448	36.49
1023.608	28.74
1023.767	38.23
1023.927	-7.88
1024.087	-21.83
1024.247	-12.72
1024.406	3.55
1024.566	-16.99
1024.726	-18.92
1024.885	40.56
1025.045	48.89
1025.205	23.9
1025.364	40.17
1025.524	33.97
1025.683	12.27
1025.843	24.48
1026.003	25.64
1026.162	97.52
1026.321	73.88
1026.481	21.18
1026.64	30.29
1026.8	26.41
1026.959	50.83
1027.119	47.15
1027.278	-8.85
1027.437	9.17
1027.597	28.93
1027.756	11.11
1027.915	48.31
1028.074	33.97
1028.234	-11.17
1028.393	22.35
1028.552	15.18
1028.711	-68.72
1028.87	37.65
1029.03	-28.03
1029.189	46.56
1029.348	-51.28
1029.507	11.5
1029.666	1.23
1029.825	-24.93
1029.984	2.2
1030.143	39.4
1030.302	4.91
1030.461	-48.95
1030.62	28.55
1030.779	64.78
1030.938	-17.57
1031.097	2.39
1031.255	61.09
1031.414	88.8
1031.573	70.2
1031.732	-28.8
1031.891	-16.6
1032.049	95.58
1032.208	58.38
1032.367	2.97
1032.525	-8.27
1032.684	-28.03
1032.843	37.46
1033.001	-23.19
1033.16	189.55
1033.319	67.1
1033.477	29.9
1033.636	12.27
1033.794	-23.19
1033.953	45.01
1034.111	22.15
1034.27	10.33
1034.428	46.95
1034.587	-35.39
1034.745	19.63
1034.903	27.77
1035.062	29.9
1035.22	-36.75
1035.378	49.28
1035.537	-12.14
1035.695	69.04
1035.853	23.9
1036.011	58.19
1036.17	24.86
1036.328	-64.26
1036.486	37.07
1036.644	21.18
1036.802	-66
1036.96	14.4
1037.119	3.36
1037.277	-3.42
1037.435	-10.79
1037.593	-18.73
1037.751	12.66
1037.909	42.69
1038.067	42.69
