Data from gum_old_FLMT105791__172__15-47-59-249.txt Node

Date: Mon Mar 20 15:47:59 GMT 2023
User: antho
Spectrometer: FLMT10579
Trigger mode: 0
Integration Time (sec): 1.000000E-1
Scans to average: 10
Electric dark correction enabled: true
Nonlinearity correction enabled: false
Boxcar width: 0
XAxis mode: Wavelengths
Number of Pixels in Spectrum: 3648
>>>>>Begin Spectral Data<<<<<
345.248	-178.86
345.464	-178.86
345.681	-178.86
345.898	-178.67
346.114	-175.76
346.331	-33.36
346.548	32.9
346.764	2.1
346.981	-32.78
347.197	-36.46
347.414	32.52
347.631	-4.29
347.847	67.97
348.064	9.27
348.28	24.19
348.497	-54.09
348.713	-7.98
348.93	30
349.146	60.03
349.363	31.94
349.579	46.85
349.796	9.66
350.012	4.62
350.229	59.06
350.445	37.36
350.661	7.72
350.878	13.72
351.094	28.84
351.311	36
351.527	27.09
351.743	0.16
351.96	28.25
352.176	44.34
352.392	40.46
352.609	62.94
352.825	18.57
353.041	43.95
353.257	9.27
353.474	11.4
353.69	56.54
353.906	34.65
354.122	0.36
354.339	84.64
354.555	24.77
354.771	21.47
354.987	84.25
355.203	76.11
355.42	16.63
355.636	2.68
355.852	19.34
356.068	37.94
356.284	-3.71
356.5	81.73
356.716	36.78
356.932	16.82
357.148	61.97
357.364	2.87
357.58	61
357.796	84.44
358.012	74.17
358.228	38.91
358.444	-49.05
358.66	52.47
358.876	52.86
359.092	24.19
359.308	57.51
359.524	58.67
359.74	29.8
359.956	-13.4
360.172	50.92
360.388	76.5
360.604	23.8
360.819	125.13
361.035	57.51
361.251	62.74
361.467	11.21
361.683	43.75
361.898	32.13
362.114	76.89
362.33	53.05
362.546	68.17
362.762	40.27
362.977	41.43
363.193	15.27
363.409	70.88
363.624	24.77
363.84	17.79
364.056	22.05
364.271	64.29
364.487	75.72
364.703	23.99
364.918	22.83
365.134	42.79
365.35	40.65
365.565	141.21
365.781	72.04
365.996	54.02
366.212	109.63
366.427	56.74
366.643	20.89
366.858	33.49
367.074	33.29
367.289	125.52
367.505	162.13
367.72	6.94
367.936	33.49
368.151	65.45
368.367	77.85
368.582	62.16
368.798	39.1
369.013	126.68
369.228	48.6
369.444	53.05
369.659	113.12
369.874	73.2
370.09	122.03
370.305	-22.7
370.52	12.17
370.736	121.45
370.951	60.22
371.166	100.14
371.381	125.71
371.597	90.84
371.812	16.05
372.027	18.57
372.242	51.5
372.458	154.97
372.673	36.59
372.888	61.77
373.103	94.9
373.318	154.58
373.533	75.92
373.749	65.84
373.964	-10.11
374.179	114.67
374.394	39.49
374.609	96.26
374.824	13.92
375.039	88.9
375.254	16.44
375.469	88.12
375.684	51.5
375.899	87.15
376.114	54.99
376.329	80.18
376.544	92.58
376.759	106.72
376.974	54.02
377.189	40.85
377.404	43.95
377.619	108.27
377.834	14.31
378.049	40.85
378.264	48.6
378.478	71.65
378.693	35.62
378.908	91.42
379.123	72.82
379.338	101.3
379.553	87.15
379.767	69.14
379.982	99.94
380.197	97.81
380.412	81.92
380.626	86.57
380.841	159.42
381.056	103.43
381.271	150.32
381.485	57.51
381.7	28.84
381.915	93.55
382.129	54.22
382.344	68.55
382.559	62.16
382.773	77.85
382.988	14.31
383.202	76.69
383.417	55.57
383.632	171.05
383.846	50.73
384.061	83.47
384.275	53.83
384.49	83.47
384.704	114.86
384.919	80.76
385.133	62.74
385.348	78.44
385.562	48.4
385.777	128.03
385.991	78.05
386.206	71.65
386.42	50.15
386.634	157.1
386.849	112.53
387.063	100.14
387.277	68.17
387.492	76.69
387.706	74.75
387.92	36.59
388.135	119.9
388.349	112.92
388.563	101.1
388.778	113.12
388.992	115.63
389.206	123
389.42	184.03
389.635	109.43
389.849	141.21
390.063	158.45
390.277	129.58
390.491	181.51
390.706	153.42
390.92	147.22
391.134	122.42
391.348	137.92
391.562	65.65
391.776	117.77
391.99	104.78
392.205	156.32
392.419	109.82
392.633	107.11
392.847	167.95
393.061	85.8
393.275	150.12
393.489	87.35
393.703	89.87
393.917	134.23
394.131	72.43
394.345	135.59
394.559	114.28
394.773	106.92
394.986	123.19
395.2	105.75
395.414	159.23
395.628	105.56
395.842	145.08
396.056	142.18
396.27	69.91
396.484	139.47
396.697	137.33
396.911	165.04
397.125	138.88
397.339	139.08
397.553	116.22
397.766	172.02
397.98	151.09
398.194	187.52
398.408	124.55
398.621	178.6
398.835	195.85
399.049	182.09
399.262	246.61
399.476	229.36
399.69	224.71
399.903	273.93
400.117	185.19
400.331	210.96
400.544	187.71
400.758	313.06
400.971	239.05
401.185	222.58
401.398	170.66
401.612	277.22
401.826	244.67
402.039	218.71
402.253	199.14
402.466	274.9
402.68	231.69
402.893	263.46
403.106	231.88
403.32	201.08
403.533	257.07
403.747	243.12
403.96	234.21
404.174	252.03
404.387	220.06
404.6	278.77
404.814	265.01
405.027	238.47
405.24	238.86
405.454	203.4
405.667	274.51
405.88	156.52
406.094	272.18
406.307	286.91
406.52	265.4
406.733	200.69
406.947	192.75
407.16	331.28
407.373	269.86
407.586	234.79
407.799	235.56
408.012	267.73
408.226	257.85
408.439	312.68
408.652	225.3
408.865	275.09
409.078	319.07
409.291	306.48
409.504	232.27
409.717	307.06
409.93	320.43
410.143	282.84
410.357	206.89
410.57	233.05
410.783	229.56
410.996	268.5
411.209	254.16
411.421	338.44
411.634	301.05
411.847	267.73
412.06	287.29
412.273	313.26
412.486	291.36
412.699	393.08
412.912	300.08
413.125	324.3
413.338	308.22
413.55	323.72
413.763	303.57
413.976	302.41
414.189	257.46
414.402	296.01
414.615	384.36
414.827	276.45
415.04	348.52
415.253	334.57
415.466	354.72
415.678	378.94
415.891	344.64
416.104	312.68
416.316	311.13
416.529	304.93
416.742	344.06
416.954	389.59
417.167	323.14
417.38	326.24
417.592	345.61
417.805	274.31
418.017	295.24
418.23	330.89
418.442	290.78
418.655	333.6
418.868	322.75
419.08	374.09
419.293	369.06
419.505	340.19
419.718	330.31
419.93	379.91
420.142	330.5
420.355	391.14
420.567	360.34
420.78	339.22
420.992	349.1
421.205	404.32
421.417	339.41
421.629	346.19
421.842	322.36
422.054	332.44
422.266	394.24
422.479	402.96
422.691	323.91
422.903	385.14
423.115	330.69
423.328	357.63
423.54	338.25
423.752	363.83
423.964	346.58
424.177	374.29
424.389	352.59
424.601	487.44
424.813	409.16
425.025	410.71
425.238	392.31
425.45	373.32
425.662	366.34
425.874	679.83
426.086	400.06
426.298	396.57
426.51	361.31
426.722	368.09
426.934	366.15
427.146	402.19
427.358	347.16
427.57	382.62
427.782	371.77
427.994	352.59
428.206	352.59
428.418	316.36
428.63	418.66
428.842	447.91
429.054	426.99
429.266	453.14
429.478	359.56
429.69	375.06
429.902	324.88
430.114	387.66
430.325	375.64
430.537	352.98
430.749	330.89
430.961	247.58
431.173	275.86
431.384	350.07
431.596	231.5
431.808	326.82
432.02	408.77
432.231	447.33
432.443	484.92
432.655	440.94
432.867	391.14
433.078	423.5
433.29	523.67
433.502	444.42
433.713	492.67
433.925	449.85
434.136	501
434.348	374.67
434.56	358.01
434.771	528.32
434.983	343.87
435.194	417.88
435.406	460.5
435.617	486.47
435.829	557.57
436.04	493.83
436.252	488.4
436.463	500.42
436.675	535.29
436.886	519.99
437.098	520.37
437.309	559.9
437.521	515.72
437.732	508.94
437.943	492.67
438.155	491.89
438.366	443.46
438.578	551.18
438.789	474.65
439	489.18
439.211	457.21
439.423	480.65
439.634	537.62
439.845	532.97
440.057	540.13
440.268	564.93
440.479	504.29
440.69	517.66
440.902	504.49
441.113	484.14
441.324	527.35
441.535	562.03
441.746	593.8
441.957	530.25
442.168	567.65
442.38	590.7
442.591	600
442.802	538
443.013	559.51
443.224	613.76
443.435	548.47
443.646	568.42
443.857	574.04
444.068	556.6
444.279	537.04
444.49	646.89
444.701	601.55
444.912	696.88
445.123	656
445.334	606.01
445.545	607.17
445.756	600.58
445.967	537.81
446.178	589.54
446.388	612.98
446.599	639.91
446.81	624.8
447.021	591.28
447.232	641.66
447.443	650.38
447.653	589.54
447.864	676.73
448.075	647.86
448.286	627.32
448.496	679.83
448.707	642.43
448.918	596.32
449.129	731.56
449.339	616.86
449.55	661.23
449.761	648.44
449.971	688.35
450.182	637.98
450.393	674.21
450.603	634.3
450.814	721.29
451.024	735.04
451.235	732.14
451.446	748.99
451.656	773.02
451.867	686.03
452.077	707.92
452.288	747.64
452.498	767.79
452.709	682.15
452.919	688.74
453.13	630.42
453.34	686.61
453.55	646.31
453.761	677.5
453.971	664.52
454.182	727.1
454.392	702.69
454.602	760.04
454.813	712.57
455.023	708.89
455.233	655.8
455.444	688.55
455.654	606.4
455.864	689.13
456.075	689.51
456.285	693.97
456.495	677.7
456.705	717.61
456.916	744.93
457.126	782.71
457.336	717.8
457.546	654.45
457.756	678.66
457.967	749.19
458.177	729.43
458.387	719.35
458.597	661.03
458.807	694.16
459.017	674.98
459.227	704.63
459.437	700.36
459.647	764.88
459.857	725.74
460.068	705.6
460.278	768.18
460.488	765.27
460.698	797.63
460.908	728.46
461.117	683.7
461.327	693.39
461.537	754.23
461.747	767.59
461.957	717.03
462.167	846.84
462.377	810.8
462.587	783.48
462.797	797.63
463.007	785.81
463.216	796.85
463.426	840.06
463.636	794.53
463.846	714.7
464.056	736.59
464.265	801.69
464.475	735.24
464.685	789.1
464.895	794.91
465.104	747.44
465.314	803.44
465.524	748.8
465.733	729.43
465.943	865.63
466.153	841.02
466.362	798.4
466.572	833.86
466.782	787.36
466.991	809.64
467.201	846.06
467.41	735.82
467.62	809.25
467.829	746.09
468.039	830.95
468.249	837.54
468.458	815.64
468.668	845.48
468.877	859.62
469.086	867.18
469.296	889.85
469.505	845.29
469.715	911.55
469.924	878.81
470.134	899.34
470.343	870.09
470.552	831.34
470.762	833.86
470.971	826.88
471.18	861.76
471.39	885.97
471.599	834.24
471.808	864.66
472.018	845.87
472.227	937.32
472.436	952.43
472.645	906.12
472.855	890.04
473.064	994.86
473.273	947.97
473.482	942.35
473.691	993.5
473.901	966.57
474.11	930.34
474.319	1030.51
474.528	913.87
474.737	1051.82
474.946	1014.82
475.155	1003.38
475.364	1053.57
475.573	1019.66
475.783	1022.37
475.992	1033.22
476.201	1081.08
476.41	1010.75
476.619	982.07
476.828	1000.48
477.037	997.18
477.245	1020.05
477.454	1048.14
477.663	1040.58
477.872	1048.53
478.081	1153.15
478.29	1070.03
478.499	1189.96
478.708	1122.15
478.917	1194.03
479.125	1106.65
479.334	1135.13
479.543	1123.12
479.752	1131.06
479.961	1120.02
480.169	1152.96
480.378	1160.9
480.587	1273.08
480.796	1188.22
481.004	1185.7
481.213	1192.29
481.422	1191.9
481.63	1201.2
481.839	1235.69
482.048	1269.79
482.256	1247.7
482.465	1267.66
482.674	1274.44
482.882	1269.79
483.091	1353.49
483.299	1269.79
483.508	1293.04
483.716	1258.55
483.925	1291.29
484.134	1254.67
484.342	1275.21
484.551	1302.72
484.759	1306.99
484.967	1309.31
485.176	1353.49
485.384	1342.25
485.593	1336.82
485.801	1335.85
486.01	1256.81
486.218	1224.06
486.426	1167.49
486.635	1111.3
486.843	1100.45
487.051	1165.74
487.26	1174.08
487.468	1235.3
487.676	1243.63
487.885	1236.08
488.093	1271.34
488.301	1345.74
488.509	1357.55
488.717	1386.81
488.926	1392.62
489.134	1358.33
489.342	1375.96
489.55	1336.05
489.758	1340.31
489.967	1377.12
490.175	1511.2
490.383	1423.82
490.591	1504.8
490.799	1433.7
491.007	1475.74
491.215	1459.47
491.423	1460.43
491.631	1447.07
491.839	1456.56
492.047	1495.7
492.255	1389.52
492.463	1373.25
492.671	1409.67
492.879	1449
493.087	1412.19
493.295	1489.88
493.503	1465.86
493.711	1528.63
493.919	1530.96
494.127	1544.13
494.334	1536.96
494.542	1469.35
494.75	1519.72
494.958	1515.26
495.166	1607.1
495.374	1564.67
495.581	1581.33
495.789	1555.76
495.997	1618.53
496.205	1545.3
496.412	1566.41
496.62	1571.26
496.828	1603.23
497.035	1550.72
497.243	1622.79
497.451	1591.6
497.658	1602.84
497.866	1620.47
498.074	1661.35
498.281	1581.53
498.489	1703.01
498.696	1592.96
498.904	1563.31
499.112	1576.68
499.319	1677.04
499.527	1594.89
499.734	1667.55
499.942	1612.72
500.149	1600.13
500.357	1606.71
500.564	1545.3
500.771	1619.31
500.979	1554.01
501.186	1537.16
501.394	1607.49
501.601	1564.09
501.808	1597.61
502.016	1580.95
502.223	1542
502.43	1573.58
502.638	1558.47
502.845	1563.12
503.052	1652.63
503.26	1560.99
503.467	1699.52
503.674	1665.03
503.881	1659.99
504.089	1727.61
504.296	1665.23
504.503	1567
504.71	1635
504.917	1592.57
505.125	1665.03
505.332	1660.58
505.539	1678.59
505.746	1754.54
505.953	1771.79
506.16	1753.77
506.367	1787.48
506.574	1742.34
506.781	1804.92
506.988	1714.63
507.195	1745.24
507.402	1721.02
507.609	1785.93
507.816	1701.65
508.023	1695.64
508.23	1660.77
508.437	1643.91
508.644	1720.64
508.851	1756.29
509.058	1768.1
509.265	1727.03
509.472	1807.44
509.679	1859.17
509.885	1766.17
510.092	1827
510.299	1794.07
510.506	1765
510.713	1787.09
510.92	1833.59
511.126	1801.82
511.333	1825.45
511.54	1812.67
511.746	1884.93
511.953	1883.77
512.16	1921.17
512.367	1851.22
512.573	1853.93
512.78	1866.53
512.987	1845.99
513.193	1829.91
513.4	1746.21
513.606	1811.7
513.813	1842.31
514.02	1864.98
514.226	1890.94
514.433	1879.7
514.639	1764.81
514.846	1833.59
515.052	1797.17
515.259	1855.68
515.465	1852.97
515.672	1835.14
515.878	1953.71
516.085	1858
516.291	1927.17
516.497	1893.85
516.704	1837.08
516.91	1779.34
517.117	1750.28
517.323	1677.82
517.529	1681.89
517.736	1687.51
517.942	1671.04
518.148	1729.55
518.354	1781.67
518.561	1758.22
518.767	1768.69
518.973	1789.22
519.179	1825.65
519.386	1775.85
519.592	1783.22
519.798	1812.09
520.004	1891.72
520.21	1896.75
520.417	1935.89
520.623	1967.28
520.829	1970.57
521.035	2002.73
521.241	1983.16
521.447	2039.54
521.653	2095.73
521.859	1983.55
522.065	2029.47
522.271	2160.64
522.477	2071.71
522.683	2144.75
522.889	2082.75
523.095	2085.08
523.301	2056.01
523.507	2002.73
523.713	2055.24
523.919	2026.37
524.125	2077.13
524.331	2095.15
524.537	2175.36
524.742	2198.61
524.948	2224.38
525.154	2226.12
525.36	2327.84
525.566	2212.75
525.772	2279.21
525.977	2157.92
526.183	2200.55
526.389	2241.62
526.595	2121.5
526.8	2152.31
527.006	2051.94
527.212	1958.17
527.417	1975.41
527.623	1982.97
527.829	2075.78
528.034	2094.57
528.24	2114.14
528.446	2111.23
528.651	2226.51
528.857	2204.42
529.062	2284.83
529.268	2253.44
529.473	2301.1
529.679	2275.34
529.884	2372.4
530.09	2379.96
530.295	2368.72
530.501	2347.22
530.706	2307.3
530.912	2274.95
531.117	2300.52
531.323	2375.5
531.528	2402.24
531.733	2421.23
531.939	2366.2
532.144	2368.72
532.35	2389.45
532.555	2406.89
532.76	2361.94
532.966	2376.66
533.171	2357.68
533.376	2317.57
533.581	2227.67
533.787	2311.57
533.992	2370.85
534.197	2384.41
534.402	2357.1
534.607	2386.35
534.813	2450.87
535.018	2382.28
535.223	2421.61
535.428	2379.96
535.633	2480.9
535.838	2483.81
536.043	2465.4
536.249	2546.39
536.454	2468.31
536.659	2473.15
536.864	2438.08
537.069	2453.97
537.274	2412.7
537.479	2452.81
537.684	2422.97
537.889	2381.31
538.094	2514.23
538.299	2458.62
538.504	2457.26
538.708	2485.55
538.913	2535.93
539.118	2465.21
539.323	2510.35
539.528	2424.13
539.733	2408.25
539.938	2481.87
540.142	2466.95
540.347	2433.63
540.552	2437.11
540.757	2407.86
540.962	2407.86
541.166	2357.48
541.371	2343.73
541.576	2373.76
541.781	2327.26
541.985	2463.66
542.19	2424.52
542.395	2518.29
542.599	2563.82
542.804	2449.71
543.008	2528.37
543.213	2431.11
543.418	2411.15
543.622	2503.38
543.827	2431.88
544.031	2557.62
544.236	2478.77
544.44	2552.97
544.645	2621.95
544.849	2552.2
545.054	2571.19
545.258	2657.6
545.463	2620.01
545.667	2505.7
545.872	2576.61
546.076	2555.49
546.281	2570.99
546.485	2539.8
546.689	2600.44
546.894	2622.53
547.098	2540.58
547.302	2537.28
547.507	2547.74
547.711	2561.11
547.915	2591.72
548.119	2528.18
548.324	2526.04
548.528	2635.71
548.732	2577.39
548.936	2563.05
549.141	2595.79
549.345	2520.04
549.549	2564.02
549.753	2583.39
549.957	2662.05
550.161	2704.29
550.366	2573.71
550.57	2572.74
550.774	2577.77
550.978	2589.98
551.182	2631.06
551.386	2519.46
551.59	2551.62
551.794	2578.36
551.998	2607.81
552.202	2572.16
552.406	2533.6
552.61	2592.5
552.814	2652.17
553.018	2687.05
553.222	2570.61
553.426	2572.74
553.63	2669.03
553.833	2564.02
554.037	2534.38
554.241	2596.18
554.445	2588.62
554.649	2567.89
554.853	2588.82
555.056	2631.64
555.26	2639.77
555.464	2605.87
555.668	2597.92
555.871	2608.39
556.075	2667.09
556.279	2584.94
556.483	2548.52
556.686	2593.86
556.89	2509.58
557.094	2561.89
557.297	2504.93
557.501	2570.22
557.704	2481.68
557.908	2564.79
558.112	2492.14
558.315	2594.24
558.519	2521.39
558.722	2522.94
558.926	2456.88
559.129	2415.41
559.333	2403.98
559.536	2421.42
559.74	2360
559.943	2374.92
560.147	2381.12
560.35	2419.48
560.553	2387.32
560.757	2371.63
560.96	2497.18
561.164	2465.98
561.367	2518.88
561.57	2471.6
561.774	2488.26
561.977	2393.33
562.18	2433.05
562.384	2506.86
562.587	2384.8
562.79	2434.01
562.993	2393.52
563.197	2434.01
563.4	2470.44
563.603	2468.5
563.806	2505.51
564.009	2414.64
564.212	2455.52
564.416	2375.7
564.619	2409.41
564.822	2318.93
565.025	2408.63
565.228	2375.11
565.431	2372.02
565.634	2313.7
565.837	2334.23
566.04	2315.25
566.243	2341.4
566.446	2190.86
566.649	2298.78
566.852	2244.72
567.055	2319.9
567.258	2320.87
567.461	2391
567.664	2402.05
567.867	2283.09
568.07	2329.39
568.273	2317.38
568.475	2350.51
568.678	2296.45
568.881	2265.26
569.084	2262.35
569.287	2136.03
569.489	2208.69
569.692	2274.75
569.895	2284.64
570.098	2184.27
570.3	2155.02
570.503	2142.23
570.706	2169.36
570.909	2167.61
571.111	2154.24
571.314	2082.94
571.516	2113.75
571.719	2114.52
571.922	2084.49
572.124	2134.67
572.327	2123.24
572.529	2090.11
572.732	2086.04
572.935	2151.72
573.137	2228.06
573.34	2136.42
573.542	2190.67
573.745	2150.17
573.947	2140.49
574.15	2110.65
574.352	2119.76
574.554	2189.31
574.757	2076.55
574.959	2069.38
575.162	2078.29
575.364	2036.44
575.566	2191.25
575.769	2076.55
575.971	2055.24
576.173	1945.38
576.376	2073.84
576.578	2072.29
576.78	2137.58
576.982	2003.9
577.185	2034.12
577.387	1955.07
577.589	1992.85
577.791	2054.08
577.993	2067.06
578.196	2004.86
578.398	2041.09
578.6	2058.92
578.802	1924.07
579.004	1922.33
579.206	1978.51
579.408	2033.93
579.61	1931.05
579.812	2007.77
580.014	1934.92
580.216	1938.8
580.418	1984.52
580.62	1964.76
580.822	1911.48
581.024	1961.46
581.226	1996.34
581.428	1973.28
581.63	2072.09
581.832	1956.81
582.034	1985.3
582.236	1953.52
582.438	2002.15
582.64	2030.44
582.841	2062.02
583.043	2050.2
583.245	1988.01
583.447	2032.18
583.649	2000.8
583.85	1996.53
584.052	2049.23
584.254	1974.06
584.456	2023.27
584.657	1951.78
584.859	1992.46
585.061	1925.43
585.262	1930.27
585.464	1926.78
585.666	1993.43
585.867	1893.07
586.069	2009.32
586.27	1922.33
586.472	1903.34
586.674	1896.75
586.875	1889.78
587.077	1896.56
587.278	1945.96
587.48	1915.35
587.681	2025.59
587.883	1929.3
588.084	1858.58
588.285	1870.02
588.487	1871.18
588.688	1935.5
588.89	1785.93
589.091	1776.44
589.292	1776.82
589.494	1730.71
589.695	1699.32
589.896	1609.04
590.098	1662.51
590.299	1696.81
590.5	1661.16
590.702	1713.27
590.903	1739.62
591.104	1801.62
591.305	1795.23
591.507	1830.69
591.708	1799.49
591.909	1757.26
592.11	1834.37
592.311	1801.04
592.512	1772.56
592.714	1750.86
592.915	1766.55
593.116	1761.71
593.317	1813.05
593.518	1783.41
593.719	1757.45
593.92	1822.94
594.121	1849.87
594.322	1809.57
594.523	1778.57
594.724	1760.16
594.925	1767.14
595.126	1776.63
595.327	1765.97
595.528	1758.61
595.729	1802.4
595.929	1745.24
596.13	1778.76
596.331	1767.33
596.532	1774.89
596.733	1854.52
596.934	1796.2
597.135	1821.39
597.335	1795.23
597.536	1754.54
597.737	1802.79
597.938	1752.41
598.138	1759.58
598.339	1806.27
598.54	1782.25
598.74	1771.79
598.941	1761.71
599.142	1811.31
599.342	1760.55
599.543	1766.55
599.744	1732.84
599.944	1775.08
600.145	1723.74
600.345	1765.59
600.546	1830.1
600.746	1802.4
600.947	1834.95
601.147	1771.4
601.348	1806.27
601.548	1730.91
601.749	1760.36
601.949	1713.66
602.15	1716.57
602.35	1746.99
602.551	1763.84
602.751	1670.07
602.951	1701.46
603.152	1657.48
603.352	1767.72
603.552	1730.52
603.753	1779.34
603.953	1783.41
604.153	1751.25
604.354	1700.1
604.554	1709.01
604.754	1723.74
604.954	1726.26
605.155	1742.14
605.355	1702.62
605.555	1764.81
605.755	1754.16
605.955	1735.75
606.155	1748.92
606.356	1706.49
606.556	1762.29
606.756	1734.97
606.956	1671.81
607.156	1782.44
607.356	1691.19
607.556	1759.39
607.756	1725.87
607.956	1754.16
608.156	1758.22
608.356	1660.19
608.556	1755.12
608.756	1702.04
608.956	1665.81
609.156	1698.74
609.356	1652.44
609.556	1668.33
609.755	1650.5
609.955	1668.33
610.155	1648.37
610.355	1683.44
610.555	1594.89
610.755	1656.51
610.954	1580.36
611.154	1671.62
611.354	1722.19
611.554	1610.01
611.753	1623.96
611.953	1543.36
612.153	1630.93
612.352	1651.66
612.552	1561.18
612.752	1526.5
612.951	1624.15
613.151	1607.68
613.351	1579.59
613.55	1584.24
613.75	1623.57
613.949	1571.84
614.149	1601.68
614.348	1593.73
614.548	1533.86
614.747	1514.68
614.947	1548.59
615.146	1474.38
615.346	1599.54
615.545	1554.98
615.745	1588.11
615.944	1591.6
616.144	1567.77
616.343	1596.25
616.542	1503.45
616.742	1533.48
616.941	1523.21
617.14	1462.57
617.34	1523.6
617.539	1518.95
617.738	1489.11
617.938	1561.96
618.137	1485.23
618.336	1461.6
618.535	1537.16
618.734	1514.68
618.934	1545.68
619.133	1514.49
619.332	1562.93
619.531	1492.02
619.73	1499.96
619.929	1532.7
620.128	1531.93
620.328	1588.5
620.527	1513.52
620.726	1510.81
620.925	1517.98
621.124	1498.6
621.323	1488.14
621.522	1467.99
621.721	1481.55
621.92	1443.77
622.119	1524.95
622.318	1463.53
622.517	1469.35
622.715	1455.01
622.914	1382.94
623.113	1454.23
623.312	1389.91
623.511	1492.79
623.71	1449.78
623.909	1443.19
624.107	1510.61
624.306	1371.31
624.505	1406.57
624.704	1404.05
624.902	1418.78
625.101	1475.35
625.3	1396.11
625.499	1402.5
625.697	1397.08
625.896	1388.36
626.095	1430.21
626.293	1343.6
626.492	1381.77
626.69	1419.94
626.889	1370.92
627.088	1454.43
627.286	1380.22
627.485	1390.3
627.683	1356.59
627.882	1428.85
628.08	1311.06
628.279	1337.02
628.477	1404.25
628.676	1319.58
628.874	1425.75
629.073	1322.87
629.271	1338.95
629.469	1367.24
629.668	1351.35
629.866	1324.42
630.065	1339.92
630.263	1362.01
630.461	1300.59
630.66	1371.31
630.858	1383.71
631.056	1390.49
631.254	1397.08
631.453	1324.62
631.651	1381.58
631.849	1326.75
632.047	1373.83
632.245	1334.69
632.444	1367.63
632.642	1340.12
632.84	1383.13
633.038	1318.61
633.236	1308.92
633.434	1341.47
633.632	1301.56
633.83	1305.05
634.028	1370.34
634.227	1319.58
634.425	1415.68
634.623	1333.14
634.821	1350.19
635.019	1324.04
635.216	1312.02
635.414	1352.71
635.612	1355.23
635.81	1324.23
636.008	1388.75
636.206	1325.78
636.404	1315.12
636.602	1284.12
636.8	1307.96
636.997	1344.19
637.195	1358.52
637.393	1336.24
637.591	1371.89
637.789	1349.03
637.986	1319.77
638.184	1312.02
638.382	1380.03
638.58	1323.84
638.777	1417.62
638.975	1343.02
639.173	1308.92
639.37	1316.48
639.568	1346.32
639.765	1363.75
639.963	1319.58
640.161	1328.49
640.358	1348.45
640.556	1270.17
640.753	1254.48
640.951	1248.09
641.148	1298.46
641.346	1272.5
641.543	1297.69
641.741	1316.29
641.938	1229.29
642.136	1268.43
642.333	1220.38
642.531	1307.96
642.728	1346.9
642.925	1263.39
643.123	1266.88
643.32	1238.59
643.517	1244.41
643.715	1262.42
643.912	1266.11
644.109	1253.71
644.306	1265.91
644.504	1222.51
644.701	1244.79
644.898	1315.71
645.095	1223.68
645.293	1244.21
645.49	1258.16
645.687	1256.81
645.884	1291.87
646.081	1172.91
646.278	1212.24
646.475	1192.87
646.672	1189.77
646.87	1237.24
647.067	1220.38
647.264	1219.41
647.461	1182.21
647.658	1125.83
647.855	1209.73
648.052	1157.22
648.249	1088.44
648.446	1152.76
648.642	1161.29
648.839	1128.93
649.036	1146.18
649.233	1132.81
649.43	1098.13
649.627	1114.6
649.824	1136.68
650.021	1089.8
650.217	1105.1
650.414	1108.59
650.611	1153.93
650.808	1176.21
651.004	1151.41
651.201	1182.02
651.398	1205.85
651.595	1123.9
651.791	1118.66
651.988	1173.3
652.185	1122.15
652.381	1156.44
652.578	1091.73
652.775	1150.83
652.971	1147.15
653.168	1121.18
653.364	1153.93
653.561	1085.15
653.757	1110.33
653.954	1123.9
654.15	1102.39
654.347	1202.17
654.543	1129.71
654.74	1095.22
654.936	1091.73
655.133	1113.82
655.329	1110.33
655.525	1092.12
655.722	1140.95
655.918	1059.77
656.115	1064.61
656.311	974.9
656.507	936.74
656.704	921.62
656.9	924.34
657.096	960.18
657.292	928.79
657.489	1018.69
657.685	1006.68
657.881	991.18
658.077	998.15
658.273	1021.98
658.47	1116.92
658.666	1062.09
658.862	1056.28
659.058	1051.05
659.254	1066.35
659.45	1055.12
659.646	1096.96
659.842	1030.32
660.038	1110.53
660.234	1012.68
660.43	1064.41
660.626	1157.22
660.822	1113.43
661.018	1128.74
661.214	1089.02
661.41	992.53
661.606	1092.12
661.802	1123.12
661.998	1087.66
662.194	1044.65
662.39	1110.91
662.586	1078.56
662.781	1106.07
662.977	1094.25
663.173	1101.81
663.369	1063.25
663.564	1059.38
663.76	1104.33
663.956	1040.97
664.152	1066.35
664.347	999.7
664.543	1018.5
664.739	1024.5
664.934	986.72
665.13	984.2
665.326	1060.93
665.521	1038.84
665.717	962.89
665.912	993.7
666.108	961.73
666.304	1028.57
666.499	1001.83
666.695	918.91
666.89	1004.55
667.086	1057.25
667.281	1033.8
667.477	1098.51
667.672	1030.12
667.867	1020.24
668.063	1029.35
668.258	982.85
668.454	991.95
668.649	1074.49
668.844	1016.75
669.04	1048.14
669.235	992.15
669.43	963.86
669.626	934.99
669.821	985.17
670.016	941.97
670.211	1006.1
670.407	962.12
670.602	1009.2
670.797	969.09
670.992	1027.02
671.187	979.94
671.382	1053.18
671.578	952.62
671.773	995.63
671.968	944.68
672.163	972.58
672.358	1005.32
672.553	956.3
672.748	949.33
672.943	1056.86
673.138	954.95
673.333	1027.99
673.528	948.75
673.723	973.55
673.918	969.87
674.113	941.97
674.308	1054.92
674.503	982.07
674.698	994.08
674.892	984.78
675.087	1012.3
675.282	995.63
675.477	938.67
675.672	994.67
675.867	935.38
676.061	930.54
676.256	899.73
676.451	933.25
676.646	952.43
676.84	895.08
677.035	877.26
677.23	907.87
677.424	972
677.619	974.13
677.814	988.08
678.008	993.12
678.203	884.23
678.397	930.92
678.592	924.92
678.787	997.96
678.981	925.89
679.176	940.42
679.37	948.17
679.565	921.82
679.759	913.29
679.954	966.57
680.148	1021.6
680.342	1012.88
680.537	950.88
680.731	940.61
680.926	952.24
681.12	969.87
681.314	910
681.509	917.94
681.703	930.15
681.897	931.5
682.092	907.48
682.286	926.66
682.48	972.97
682.674	954.17
682.869	923.37
683.063	940.61
683.257	996.99
683.451	898.18
683.645	943.32
683.839	923.56
684.034	908.64
684.228	967.35
684.422	873.19
684.616	886.17
684.81	911.94
685.004	917.17
685.198	906.12
685.392	955.92
685.586	896.63
685.78	947.59
685.974	949.91
686.168	939.06
686.362	971.8
686.556	859.82
686.75	844.71
686.944	844.9
687.138	871.25
687.331	789.1
687.525	771.28
687.719	705.21
687.913	786.97
688.107	781.74
688.301	734.27
688.494	802.47
688.688	767.21
688.882	745.51
689.076	727.68
689.269	772.05
689.463	861.17
689.657	778.25
689.85	793.17
690.044	796.27
690.238	812.74
690.431	817.77
690.625	791.43
690.818	818.55
691.012	831.72
691.205	854.59
691.399	816.22
691.593	856.14
691.786	894.3
691.98	908.06
692.173	923.17
692.366	898.57
692.56	911.74
692.753	959.02
692.947	863.11
693.14	947.78
693.333	926.47
693.527	851.1
693.72	937.9
693.914	900.31
694.107	878.61
694.3	889.46
694.493	889.65
694.687	950.3
694.88	863.5
695.073	947
695.266	925.3
695.46	935.38
695.653	977.62
695.846	965.6
696.039	876.67
696.232	940.42
696.425	986.14
696.618	995.05
696.812	1006.1
697.005	1061.51
697.198	1134.75
697.391	1045.04
697.584	1048.14
697.777	1102.78
697.97	1098.32
698.163	1077.01
698.356	1074.88
698.549	1152.76
698.742	1137.85
698.935	1072.55
699.127	1130.68
699.32	1098.51
699.513	1089.8
699.706	1116.92
699.899	1166.33
700.092	1084.18
700.285	1166.13
700.477	1100.45
700.67	1157.03
700.863	1197.52
701.056	1225.03
701.248	1205.27
701.441	1243.24
701.634	1193.26
701.826	1310.28
702.019	1181.63
702.212	1234.33
702.404	1202.94
702.597	1226.78
702.79	1246.34
702.982	1258.16
703.175	1320.16
703.367	1312.41
703.56	1320.36
703.752	1409.87
703.945	1374.22
704.137	1407.74
704.33	1402.12
704.522	1412.77
704.715	1413.16
704.907	1441.45
705.1	1512.36
705.292	1480.78
705.484	1478.07
705.677	1520.5
705.869	1516.62
706.061	1565.06
706.254	1561.96
706.446	1545.3
706.638	1531.35
706.831	1652.44
707.023	1580.56
707.215	1710.95
707.407	1685.96
707.599	1681.11
707.792	1718.31
707.984	1696.22
708.176	1722.57
708.368	1684.6
708.56	1776.24
708.752	1733.42
708.944	1790.97
709.136	1786.51
709.329	1772.75
709.521	1901.21
709.713	1848.12
709.905	1898.69
710.097	1924.85
710.289	1869.82
710.481	1926.98
710.672	1923.49
710.864	1969.21
711.056	2019.01
711.248	1987.04
711.44	2017.07
711.632	2000.41
711.824	2058.14
712.016	2107.55
712.207	2101.93
712.399	2095.54
712.591	2193.57
712.783	2154.63
712.975	2129.64
713.166	2126.34
713.358	2172.07
713.55	2236.78
713.741	2249.18
713.933	2227.67
714.125	2251.31
714.316	2206.36
714.508	2328.42
714.7	2343.15
714.891	2317.38
715.083	2379.38
715.274	2329.39
715.466	2351.67
715.657	2385.19
715.849	2284.64
716.04	2418.51
716.232	2341.4
716.423	2410.96
716.615	2322.03
716.806	2323.38
716.998	2330.36
717.189	2252.47
717.381	2153.08
717.572	2154.05
717.763	2194.16
717.955	2193.19
718.146	2146.88
718.337	2103.09
718.528	2078.29
718.72	1977.74
718.911	2076.94
719.102	1999.63
719.293	2133.32
719.485	2039.93
719.676	2041.48
719.867	2019.98
720.058	2041.48
720.249	2062.79
720.44	2126.92
720.632	2145.14
720.823	2195.51
721.014	2315.83
721.205	2310.6
721.396	2362.33
721.587	2503.38
721.778	2530.69
721.969	2576.61
722.16	2642.49
722.351	2636.29
722.542	2819.76
722.733	2781.21
722.924	2685.5
723.115	2838.56
723.305	2761.64
723.496	2812.98
723.687	2652.56
723.878	2704.68
724.069	2690.54
724.26	2673.29
724.45	2617.88
724.641	2650.82
724.832	2680.85
725.023	2643.26
725.213	2636.29
725.404	2682.2
725.595	2668.06
725.785	2655.47
725.976	2695.77
726.167	2740.72
726.357	2731.42
726.548	2891.26
726.739	2794
726.929	2873.24
727.12	2881.38
727.31	2915.67
727.501	2849.8
727.691	2868.59
727.882	2867.04
728.072	2936.01
728.263	2913.54
728.453	3003.24
728.644	2999.95
728.834	2984.64
729.024	2962.94
729.215	2954.81
729.405	3024.17
729.596	3089.65
729.786	3123.17
729.976	3106.32
730.167	3175.1
730.357	3118.72
730.547	3099.92
730.737	3150.49
730.928	3205.52
731.118	3301.42
731.308	3176.84
731.498	3195.25
731.688	3296.58
731.879	3334.75
732.069	3346.56
732.259	3393.06
732.449	3404.88
732.639	3535.66
732.829	3537.4
733.019	3568.21
733.209	3623.43
733.399	3652.3
733.589	3724.95
733.779	3725.34
733.969	3746.46
734.159	3774.55
734.349	3851.86
734.539	3904.17
734.729	3898.74
734.919	3932.46
735.109	3960.55
735.299	3941.17
735.488	4005.5
735.678	3944.47
735.868	3947.18
736.058	3971.2
736.248	3949.12
736.437	3921.41
736.627	3955.12
736.817	4059.75
737.007	4001.82
737.196	4045.22
737.386	3995.62
737.576	3996.39
737.765	4120.39
737.955	4080.67
738.144	4176.38
738.334	4176.38
738.524	4081.25
738.713	4093.85
738.903	4104.12
739.092	4160.11
739.282	4128.53
739.471	4143.64
739.661	4130.85
739.85	4183.16
740.04	4177.74
740.229	4238.19
740.419	4278.68
740.608	4243.61
740.797	4198.66
740.987	4345.91
741.176	4285.85
741.365	4275.78
741.555	4231.21
741.744	4370.13
741.933	4233.73
742.123	4248.26
742.312	4286.24
742.501	4355.21
742.69	4426.12
742.88	4270.93
743.069	4399.39
743.258	4390.47
743.447	4465.65
743.636	4451.5
743.825	4400.16
744.014	4413.92
744.204	4508.08
744.393	4367.42
744.582	4438.91
744.771	4506.53
744.96	4442.59
745.149	4455.19
745.338	4410.43
745.527	4481.34
745.716	4475.53
745.905	4430.77
746.094	4469.52
746.283	4549.15
746.471	4513.7
746.66	4524.55
746.849	4492.97
747.038	4567.95
747.227	4518.93
747.416	4585.19
747.604	4504.78
747.793	4464.87
747.982	4533.27
748.171	4590.81
748.359	4545.67
748.548	4539.66
748.737	4511.76
748.926	4538.3
749.114	4377.49
749.303	4531.33
749.491	4464.68
749.68	4440.27
749.869	4499.75
750.057	4464.1
750.246	4419.54
750.434	4461.58
750.623	4504.2
750.811	4437.94
751	4473.59
751.188	4504.2
751.377	4485.02
751.565	4405.78
751.754	4415.08
751.942	4412.17
752.131	4528.23
752.319	4397.64
752.507	4383.11
752.696	4463.71
752.884	4480.95
753.072	4424.77
753.261	4465.26
753.449	4401.71
753.637	4348.04
753.825	4519.7
754.014	4405.97
754.202	4401.32
754.39	4443.95
754.578	4490.45
754.766	4371.49
754.955	4367.22
755.143	4472.43
755.331	4389.89
755.519	4378.85
755.707	4357.73
755.895	4406.17
756.083	4410.04
756.271	4334.09
756.459	4371.29
756.647	4396.48
756.835	4349.4
757.023	4311.62
757.211	4312.97
757.399	4324.79
757.587	4344.75
757.775	4229.08
757.963	4235.86
758.151	4326.73
758.339	4191.3
758.526	4212.61
758.714	4277.13
758.902	4201.18
759.09	4145
759.278	3880.53
759.465	3697.25
759.653	3279.33
759.841	2989.49
760.028	2681.82
760.216	2403.01
760.404	2234.26
760.591	1860.72
760.779	1620.47
760.967	1485.04
761.154	1294.2
761.342	1378.48
761.529	1349.8
761.717	1455.98
761.905	1463.73
762.092	1627.25
762.28	1542.39
762.467	1602.06
762.655	1509.26
762.842	1545.3
763.029	1588.89
763.217	1603.23
763.404	1632.68
763.592	1679.17
763.779	1626.28
763.966	1689.25
764.154	1762.1
764.341	1772.56
764.528	1765
764.716	1873.89
764.903	1926.4
765.09	2026.76
765.277	2059.11
765.465	2236.39
765.652	2267.97
765.839	2397.59
766.026	2529.92
766.213	2548.13
766.4	2633.77
766.588	2847.28
766.775	2869.95
766.962	2946.67
767.149	3019.71
767.336	3202.8
767.523	3172.58
767.71	3266.93
767.897	3410.89
768.084	3452.16
768.271	3480.44
768.458	3508.54
768.645	3634.08
768.832	3573.64
769.019	3615.68
769.206	3653.85
769.392	3714.49
769.579	3817.18
769.766	3782.88
769.953	3711.97
770.14	3820.86
770.327	3737.74
770.513	3785.59
770.7	3880.34
770.887	3804.97
771.073	3832.87
771.26	3804.39
771.447	3753.24
771.634	3833.45
771.82	3878.4
772.007	3783.08
772.193	3835.58
772.38	3871.81
772.567	3797.41
772.753	3778.62
772.94	3871.62
773.126	3841.01
773.313	3845.85
773.499	3835.97
773.686	3872.97
773.872	3779.98
774.059	3817.76
774.245	3739.48
774.432	3779.78
774.618	3722.24
774.804	3792.57
774.991	3717.01
775.177	3810.2
775.363	3758.28
775.55	3777.07
775.736	3735.61
775.922	3743.55
776.109	3706.35
776.295	3747.23
776.481	3743.16
776.667	3718.36
776.853	3714.49
777.04	3668.18
777.226	3734.06
777.412	3761.18
777.598	3652.88
777.784	3682.91
777.97	3650.55
778.156	3683.88
778.342	3676.32
778.528	3665.47
778.715	3566.27
778.901	3585.07
779.087	3654.43
779.272	3596.3
779.458	3547.29
779.644	3605.6
779.83	3637.96
780.016	3687.75
780.202	3613.16
780.388	3544.38
780.574	3523.45
780.76	3537.79
780.946	3579.84
781.131	3563.95
781.317	3546.9
781.503	3460.87
781.689	3512.02
781.874	3663.73
782.06	3472.5
782.246	3552.9
782.432	3473.47
782.617	3537.21
782.803	3567.82
782.989	3434.14
783.174	3422.9
783.36	3398.1
783.545	3422.51
783.731	3449.44
783.916	3336.1
784.102	3435.69
784.288	3358.19
784.473	3386.09
784.659	3392.87
784.844	3419.03
785.029	3365.55
785.215	3387.64
785.4	3302.39
785.586	3417.28
785.771	3277.4
785.956	3356.64
786.142	3359.93
786.327	3314.01
786.512	3372.33
786.698	3288.63
786.883	3241.55
787.068	3276.43
787.254	3273.91
787.439	3250.27
787.624	3237.87
787.809	3220.63
787.994	3227.02
788.18	3311.5
788.365	3206.29
788.55	3227.41
788.735	3209.39
788.92	3190.6
789.105	3204.16
789.29	3181.88
789.475	3179.75
789.66	3152.43
789.845	3124.53
790.03	3132.86
790.215	3181.3
790.4	3183.04
790.585	3232.25
790.77	3108.84
790.955	3063.89
791.14	3092.37
791.325	3202.22
791.51	3031.53
791.695	3063.31
791.879	3090.82
792.064	3029.01
792.249	3167.73
792.434	3065.82
792.618	3065.82
792.803	3108.25
792.988	3046.64
793.173	3070.47
793.357	3127.82
793.542	3049.55
793.727	3047.42
793.911	3144.1
794.096	3075.51
794.281	3097.02
794.465	3174.71
794.65	3093.53
794.834	3118.91
795.019	3138.87
795.203	3145.65
795.388	3159.6
795.572	3203.58
795.757	3130.15
795.941	3176.45
796.126	3152.82
796.31	3081.13
796.494	3101.28
796.679	3118.14
796.863	3081.52
797.048	3181.49
797.232	3131.31
797.416	3157.85
797.601	3094.3
797.785	3157.47
797.969	3192.53
798.153	3121.24
798.338	3163.47
798.522	3211.91
798.706	3159.02
798.89	3162.12
799.074	3306.65
799.258	3272.16
799.443	3170.83
799.627	3184.4
799.811	3262.28
799.995	3181.49
800.179	3146.42
800.363	3143.13
800.547	3197.96
800.731	3187.3
800.915	3082.49
801.099	3127.82
801.283	3094.89
801.467	3179.36
801.651	3134.8
801.835	3174.52
802.019	3179.94
802.202	3139.64
802.386	3165.99
802.57	3111.94
802.754	3135.38
802.938	3097.4
803.121	3100.89
803.305	3167.73
803.489	3119.1
803.673	3157.08
803.856	3193.89
804.04	3100.5
804.224	3167.73
804.407	3112.9
804.591	3088.88
804.775	3107.87
804.958	3148.17
805.142	3278.56
805.326	3129.95
805.509	3123.17
805.693	3173.93
805.876	3152.43
806.06	3152.04
806.243	3202.8
806.427	3190.6
806.61	3238.07
806.794	3121.62
806.977	3172.38
807.16	3176.07
807.344	3175.29
807.527	3175.1
807.71	3093.72
807.894	3171.8
808.077	3170.06
808.26	3093.14
808.444	3053.42
808.627	3159.21
808.81	3092.37
808.993	3024.36
809.177	3031.53
809.36	3048
809.543	3106.32
809.726	2982.13
809.909	2975.15
810.092	2949.38
810.276	2933.88
810.459	2986.97
810.642	2941.05
810.825	2910.24
811.008	2904.24
811.191	2832.55
811.374	2891.26
811.557	2884.86
811.74	2926.52
811.923	2817.44
812.106	2822.86
812.289	2768.03
812.472	2783.15
812.654	2803.88
812.837	2770.94
813.02	2739.17
813.203	2732.77
813.386	2578.16
813.569	2544.84
813.751	2525.85
813.934	2582.23
814.117	2534.57
814.3	2465.4
814.482	2447.19
814.665	2369.3
814.848	2347.8
815.03	2314.67
815.213	2323.38
815.396	2291.61
815.578	2261
815.761	2229.42
815.943	2267
816.126	2152.5
816.309	2124.99
816.491	2068.61
816.674	2044.39
816.856	2057.37
817.039	2068.61
817.221	2161.61
817.403	2129.44
817.586	2104.26
817.768	2145.14
817.951	2027.53
818.133	2003.9
818.315	2062.21
818.498	2122.86
818.68	2140.29
818.862	2090.31
819.045	2143.59
819.227	2173.62
819.409	2075.78
819.591	2151.92
819.774	2116.27
819.956	2056.98
820.138	2141.26
820.32	2120.14
820.502	2161.02
820.684	2230
820.866	2254.99
821.048	2286.96
821.231	2287.93
821.413	2298.58
821.595	2202.87
821.777	2310.4
821.959	2254.02
822.141	2369.88
822.323	2215.66
822.505	2140.1
822.686	2143.2
822.868	2011.26
823.05	1915.55
823.232	1873.89
823.414	1818.67
823.596	1859.36
823.778	1848.32
823.96	1882.61
824.141	1889.2
824.323	1887.07
824.505	1988.4
824.687	2046.33
824.868	2098.64
825.05	2188.15
825.232	2224.77
825.413	2289.48
825.595	2194.74
825.777	2140.1
825.958	2206.36
826.14	2193.57
826.321	2202.29
826.503	2197.45
826.685	2227.29
826.866	2260.42
827.048	2255.38
827.229	2194.35
827.411	2161.8
827.592	2132.74
827.773	2103.68
827.955	2056.4
828.136	2049.81
828.318	2032.38
828.499	2038.96
828.68	1988.4
828.862	2028.11
829.043	2067.83
829.224	2013.97
829.406	1970.18
829.587	1982.39
829.768	1964.37
829.949	1972.9
830.131	1995.95
830.312	2056.98
830.493	1990.14
830.674	2011.45
830.855	1977.35
831.036	2001.96
831.218	2038.96
831.399	2105.42
831.58	2021.33
831.761	2000.99
831.942	2050.59
832.123	1994.01
832.304	1966.89
832.485	1974.25
832.666	2003.9
832.847	2012.61
833.028	2001.18
833.209	2047.49
833.389	2005.06
833.57	1918.26
833.751	1947.9
833.932	1990.14
834.113	1958.36
834.294	1966.89
834.475	1989.95
834.655	2044.78
834.836	2034.51
835.017	2005.45
835.198	1973.09
835.378	1976.77
835.559	2064.93
835.74	2002.93
835.92	2037.61
836.101	1987.62
836.281	2025.79
836.462	2014.16
836.643	2092.63
836.823	2041.29
837.004	2013.97
837.184	2077.52
837.365	2066.28
837.545	2096.7
837.726	2052.14
837.906	2102.71
838.087	2049.23
838.267	2026.95
838.448	2014.75
838.628	2052.14
838.808	2013.58
838.989	2075
839.169	2011.84
839.349	2035.09
839.53	2061.24
839.71	2057.95
839.89	2011.84
840.07	2114.72
840.251	1994.79
840.431	2099.61
840.611	2025.4
840.791	1971.93
840.971	2014.36
841.151	2007.58
841.332	1997.31
841.512	2048.46
841.692	1934.53
841.872	2039.74
842.052	1986.46
842.232	2037.41
842.412	1945.58
842.592	1978.71
842.772	2006.22
842.952	2006.61
843.132	2002.93
843.312	1983.75
843.492	1907.8
843.672	2011.06
843.851	1944.41
844.031	1961.85
844.211	1972.7
844.391	1905.47
844.571	1941.51
844.751	1978.51
844.93	1965.34
845.11	1913.8
845.29	1950.03
845.47	1988.59
845.649	1936.08
845.829	1963.21
846.009	1900.63
846.188	1969.8
846.368	1938.21
846.547	1945.19
846.727	1950.42
846.907	1862.46
847.086	1922.52
847.266	1973.48
847.445	1893.65
847.625	1866.14
847.804	1886.1
847.984	1894.23
848.163	1853.74
848.343	1862.46
848.522	1883.77
848.701	1895.59
848.881	1861.68
849.06	1865.17
849.239	1878.35
849.419	1913.03
849.598	1791.16
849.777	1799.1
849.957	1778.57
850.136	1706.88
850.315	1707.07
850.494	1715.02
850.674	1752.61
850.853	1824.49
851.032	1759.77
851.211	1815.57
851.39	1795.04
851.569	1711.72
851.748	1723.74
851.927	1836.5
852.107	1741.76
852.286	1718.51
852.465	1711.14
852.644	1776.63
852.823	1764.23
853.002	1732.84
853.181	1769.46
853.359	1752.8
853.538	1678.21
853.717	1767.52
853.896	1642.17
854.075	1571.84
854.254	1541.23
854.433	1485.23
854.611	1519.33
854.79	1492.6
854.969	1524.56
855.148	1558.28
855.327	1490.66
855.505	1625.12
855.684	1533.28
855.863	1553.05
856.041	1542.39
856.22	1584.24
856.399	1586.56
856.577	1671.23
856.756	1655.73
856.934	1808.02
857.113	1789.61
857.291	1710.95
857.47	1631.71
857.648	1698.74
857.827	1637.71
858.005	1701.65
858.184	1615.82
858.362	1750.28
858.541	1653.99
858.719	1686.92
858.898	1648.18
859.076	1626.09
859.254	1709.59
859.433	1629.96
859.611	1621.05
859.789	1578.62
859.967	1651.28
860.146	1714.82
860.324	1576.1
860.502	1594.7
860.68	1533.48
860.859	1598.58
861.037	1598.19
861.215	1640.04
861.393	1648.37
861.571	1577.26
861.749	1574.36
861.927	1601.68
862.105	1627.44
862.283	1583.46
862.461	1571.26
862.639	1517.2
862.817	1575.33
862.995	1566.22
863.173	1574.55
863.351	1578.62
863.529	1581.33
863.707	1609.23
863.885	1563.12
864.063	1448.81
864.241	1507.9
864.418	1580.95
864.596	1517.4
864.774	1484.46
864.952	1485.62
865.129	1532.51
865.307	1498.99
865.485	1438.35
865.663	1533.09
865.84	1436.99
866.018	1440.48
866.196	1330.43
866.373	1375.77
866.551	1304.86
866.728	1275.21
866.906	1324.81
867.084	1339.54
867.261	1353.68
867.439	1365.89
867.616	1439.32
867.794	1408.9
867.971	1434.08
868.149	1385.45
868.326	1477.87
868.503	1451.52
868.681	1404.05
868.858	1368.99
869.035	1378.67
869.213	1459.47
869.39	1443
869.567	1482.33
869.745	1429.05
869.922	1396.69
870.099	1432.53
870.276	1446.48
870.454	1442.22
870.631	1418.39
870.808	1409.48
870.985	1443.58
871.162	1499.38
871.339	1430.21
871.517	1353.29
871.694	1356.78
871.871	1389.14
872.048	1378.67
872.225	1384.49
872.402	1397.27
872.579	1301.17
872.756	1391.46
872.933	1343.02
873.11	1365.5
873.287	1375.96
873.463	1325.39
873.64	1314.54
873.817	1367.24
873.994	1368.4
874.171	1322.49
874.348	1384.68
874.524	1269.98
874.701	1349.03
874.878	1275.79
875.055	1366.27
875.231	1298.66
875.408	1339.54
875.585	1259.32
875.762	1320.16
875.938	1304.08
876.115	1287.42
876.291	1262.04
876.468	1281.02
876.645	1257.39
876.821	1254.67
876.998	1262.42
877.174	1282.96
877.351	1251.38
877.527	1244.02
877.704	1286.26
877.88	1255.06
878.057	1221.54
878.233	1291.49
878.409	1199.26
878.586	1267.27
878.762	1242.27
878.938	1228.52
879.115	1165.94
879.291	1253.71
879.467	1172.53
879.644	1219.99
879.82	1261.07
879.996	1238.21
880.172	1164
880.349	1242.08
880.525	1244.41
880.701	1151.99
880.877	1129.9
881.053	1225.23
881.229	1176.98
881.405	1231.62
881.581	1152.18
881.757	1170.01
881.933	1184.54
882.109	1210.31
882.285	1192.29
882.461	1161.68
882.637	1211.66
882.813	1146.76
882.989	1189.77
883.165	1209.14
883.341	1164.97
883.517	1207.98
883.693	1211.28
883.869	1218.83
884.044	1195.19
884.22	1212.83
884.396	1257.77
884.572	1197.33
884.747	1242.08
884.923	1206.04
885.099	1219.22
885.275	1236.66
885.45	1137.07
885.626	1145.79
885.801	1162.64
885.977	1196.55
886.153	1103.75
886.328	1199.26
886.504	1184.34
886.679	1210.31
886.855	1151.41
887.03	1185.12
887.206	1200.43
887.381	1208.18
887.557	1185.12
887.732	1207.01
887.908	1206.63
888.083	1182.6
888.258	1191.71
888.434	1161.48
888.609	1190.16
888.784	1229.68
888.96	1164.58
889.135	1172.14
889.31	1146.95
889.485	1198.68
889.661	1157.41
889.836	1216.12
890.011	1171.56
890.186	1161.48
890.361	1153.34
890.537	1179.11
890.712	1189.77
890.887	1185.7
891.062	1180.86
891.237	1238.59
891.412	1159.74
891.587	1196.94
891.762	1205.08
891.937	1240.53
892.112	1127.38
892.287	1207.21
892.462	1138.23
892.637	1085.34
892.812	1092.7
892.987	1103.75
893.161	1096.38
893.336	1081.08
893.511	1149.66
893.686	1118.86
893.861	1088.83
894.035	1138.23
894.21	1108.98
894.385	1038.26
894.56	1099.68
894.734	1033.22
894.909	1019.27
895.084	1013.65
895.258	1012.88
895.433	1051.05
895.608	982.85
895.782	938.67
895.957	970.06
896.131	951.07
896.306	871.83
896.48	933.64
896.655	906.51
896.829	851.29
897.004	880.16
897.178	871.06
897.353	823.59
897.527	896.24
897.701	853.23
897.876	821.26
898.05	926.66
898.224	894.5
898.399	929.76
898.573	873.57
898.747	733.49
898.921	818.36
899.096	685.25
899.27	690.48
899.444	696.88
899.618	733.69
899.792	760.23
899.967	746.28
900.141	806.92
900.315	742.41
900.489	726.13
900.663	784.26
900.837	742.02
901.011	698.81
901.185	807.31
901.359	758.1
901.533	779.99
901.707	776.12
901.881	750.35
902.055	694.55
902.229	758.29
902.403	849.36
902.576	755.78
902.75	765.08
902.924	885.39
903.098	820.68
903.272	872.41
903.446	894.3
903.619	852.46
903.793	909.61
903.967	863.69
904.14	929.18
904.314	928.4
904.488	897.99
904.661	914.84
904.835	897.99
905.009	946.42
905.182	983.23
905.356	933.25
905.529	942.94
905.703	891.2
905.876	896.44
906.05	847.42
906.223	817
906.397	767.21
906.57	737.56
906.744	773.41
906.917	754.61
907.09	755.19
907.264	761.01
907.437	717.22
907.61	641.66
907.784	707.53
907.957	705.98
908.13	702.3
908.304	742.21
908.477	649.8
908.65	686.41
908.823	635.46
908.996	751.9
909.17	680.8
909.343	673.43
909.516	661.23
909.689	682.35
909.862	649.21
910.035	651.93
910.208	618.6
910.381	614.73
910.554	745.7
910.727	650.76
910.9	633.71
911.073	669.17
911.246	689.13
911.419	716.83
911.592	697.46
911.765	635.85
911.938	643.79
912.11	660.45
912.283	669.56
912.456	692.03
912.629	687.96
912.802	639.14
912.974	626.35
913.147	542.85
913.32	518.82
913.493	538.97
913.665	590.32
913.838	594.38
914.01	573.27
914.183	629.65
914.356	585.08
914.528	633.91
914.701	693.2
914.873	652.31
915.046	575.4
915.218	553.89
915.391	505.26
915.563	510.49
915.736	575.98
915.908	601.55
916.081	599.81
916.253	566.29
916.425	599.03
916.598	597.29
916.77	592.25
916.942	560.09
917.115	483.37
917.287	569.78
917.459	545.75
917.632	503.71
917.804	465.93
917.976	529.48
918.148	547.88
918.32	538.78
918.493	632.36
918.665	631.39
918.837	603.68
919.009	668.98
919.181	617.83
919.353	587.6
919.525	572.3
919.697	590.32
919.869	589.54
920.041	635.46
920.213	727.88
920.385	637.2
920.557	612.98
920.729	627.13
920.901	595.55
921.073	599.81
921.244	592.45
921.416	595.74
921.588	598.26
921.76	553.7
921.932	637.4
922.103	627.71
922.275	561.25
922.447	593.42
922.619	527.54
922.79	568.62
922.962	533.55
923.134	616.28
923.305	546.14
923.477	485.89
923.648	513.79
923.82	544.4
923.991	475.81
924.163	477.75
924.335	528.9
924.506	471.94
924.677	552.34
924.849	505.65
925.02	530.25
925.192	542.27
925.363	513.79
925.535	516.11
925.706	472.9
925.877	570.36
926.049	477.17
926.22	538.78
926.391	535.68
926.562	518.05
926.734	476
926.905	542.85
927.076	455.66
927.247	471.16
927.419	442.68
927.59	441.13
927.761	415.75
927.932	411.1
928.103	449.46
928.274	368.86
928.445	359.37
928.616	395.6
928.787	392.69
928.958	408.39
929.129	403.35
929.3	353.56
929.471	330.11
929.642	300.28
929.813	249.32
929.984	346
930.155	229.95
930.326	331.08
930.496	257.26
930.667	229.56
930.838	263.08
931.009	207.47
931.18	243.51
931.35	204.37
931.521	241.38
931.692	181.51
931.863	148.57
932.033	198.75
932.204	193.52
932.374	201.46
932.545	131.91
932.716	188.48
932.886	216.19
933.057	103.04
933.227	125.9
933.398	212.31
933.568	122.8
933.739	72.04
933.909	71.07
934.08	147.22
934.25	57.7
934.421	61.19
934.591	116.02
934.761	74.56
934.932	48.4
935.102	90.06
935.272	98.59
935.443	70.49
935.613	87.93
935.783	93.35
935.953	83.67
936.123	228.4
936.294	43.56
936.464	67
936.634	90.64
936.804	45.5
936.974	30.77
937.144	94.52
937.314	90.25
937.484	76.69
937.655	98.59
937.825	133.65
937.995	77.08
938.165	116.8
938.334	94.32
938.504	117.18
938.674	86.77
938.844	104.2
939.014	160.78
939.184	154.97
939.354	203.21
939.524	202.43
939.694	155.74
939.863	148.96
940.033	224.91
940.203	203.4
940.373	173.37
940.542	207.28
940.712	136.56
940.882	177.05
941.051	219.1
941.221	191.58
941.391	199.33
941.56	132.1
941.73	139.47
941.899	287.1
942.069	156.32
942.238	146.25
942.408	122.61
942.577	162.91
942.747	145.86
942.916	80.18
943.086	117.18
943.255	203.98
943.425	153.8
943.594	127.84
943.763	56.54
943.933	81.73
944.102	57.32
944.271	125.32
944.441	133.07
944.61	109.82
944.779	142.37
944.948	218.9
945.117	98.97
945.287	125.71
945.456	72.62
945.625	66.04
945.794	159.42
945.963	105.95
946.132	137.33
946.301	92.58
946.47	151.48
946.639	61
946.808	92.97
946.977	129.78
947.146	167.37
947.315	104.78
947.484	145.08
947.653	115.83
947.822	87.54
947.991	75.72
948.16	197.78
948.329	172.21
948.498	125.13
948.666	123
948.835	157.29
949.004	94.13
949.173	78.44
949.341	110.02
949.51	124.35
949.679	149.93
949.847	157.29
950.016	201.66
950.185	174.92
950.353	83.28
950.522	116.22
950.69	182.87
950.859	101.3
951.028	160.2
951.196	152.83
951.365	97.23
951.533	112.53
951.701	129.39
951.87	126.87
952.038	51.31
952.207	104.78
952.375	215.8
952.543	90.45
952.712	122.03
952.88	93.35
953.048	183.25
953.217	112.34
953.385	119.51
953.553	149.15
953.721	78.82
953.89	115.25
954.058	82.89
954.226	86.57
954.394	98.97
954.562	65.65
954.73	102.46
954.898	127.65
955.067	160.2
955.235	99.94
955.403	140.43
955.571	181.51
955.739	180.93
955.907	86.96
956.075	97.42
956.243	97.62
956.41	129.58
956.578	61.97
956.746	57.12
956.914	84.05
957.082	153.61
957.25	120.48
957.418	91.22
957.585	127.84
957.753	170.85
957.921	81.34
958.089	122.03
958.256	121.45
958.424	124.35
958.592	134.04
958.759	91.03
958.927	133.46
959.095	90.25
959.262	103.82
959.43	124.35
959.597	88.32
959.765	114.67
959.932	63.13
960.1	123.58
960.267	114.08
960.435	95.1
960.602	134.62
960.77	102.85
960.937	78.05
961.104	138.5
961.272	51.31
961.439	97.62
961.606	115.63
961.774	160
961.941	129.58
962.108	116.22
962.275	116.99
962.443	166.01
962.61	128.03
962.777	196.04
962.944	152.25
963.111	130.36
963.278	133.27
963.446	116.22
963.613	107.3
963.78	145.67
963.947	163.68
964.114	109.43
964.281	229.56
964.448	134.82
964.615	123.19
964.782	129.39
964.949	136.75
965.116	156.32
965.282	190.23
965.449	115.25
965.616	100.14
965.783	152.83
965.95	122.03
966.117	115.05
966.283	114.47
966.45	118.93
966.617	140.05
966.784	151.09
966.95	164.65
967.117	144.89
967.284	111.37
967.45	104.59
967.617	186.93
967.784	135.78
967.95	209.41
968.117	123
968.283	185
968.45	230.72
968.616	167.75
968.783	192.75
968.949	171.63
969.116	197.4
969.282	132.49
969.449	162.91
969.615	178.41
969.781	96.65
969.948	131.33
970.114	79.4
970.28	201.27
970.447	155.93
970.613	215.41
970.779	142.76
970.945	157.87
971.112	160.39
971.278	153.22
971.444	168.53
971.61	178.02
971.776	128.62
971.942	173.57
972.108	197.2
972.275	143.15
972.441	173.95
972.607	201.66
972.773	120.67
972.939	135.01
973.105	120.67
973.271	122.42
973.437	141.98
973.602	104.78
973.768	135.78
973.934	111.57
974.1	162.13
974.266	52.67
974.432	149.15
974.598	122.42
974.763	163.1
974.929	118.54
975.095	200.11
975.261	81.92
975.426	83.09
975.592	153.03
975.758	204.37
975.923	88.12
976.089	103.04
976.255	154
976.42	146.44
976.586	148.18
976.751	157.29
976.917	208.63
977.082	126.29
977.248	79.4
977.413	67.59
977.579	111.76
977.744	136.75
977.91	112.53
978.075	94.13
978.24	152.45
978.406	126.68
978.571	106.53
978.736	69.52
978.902	149.35
979.067	84.25
979.232	56.35
979.397	128.23
979.563	165.43
979.728	97.23
979.893	99.94
980.058	89.67
980.223	178.8
980.388	129.58
980.554	122.22
980.719	94.32
980.884	136.75
981.049	180.54
981.214	113.7
981.379	113.89
981.544	103.82
981.709	124.55
981.874	117.96
982.039	83.47
982.204	138.3
982.368	104.2
982.533	105.95
982.698	161.75
982.863	192.94
983.028	86.19
983.193	124.16
983.357	126.1
983.522	130.17
983.687	100.52
983.852	117.18
984.016	136.56
984.181	130.17
984.346	147.22
984.51	132.68
984.675	114.86
984.839	124.74
985.004	128.62
985.168	153.8
985.333	126.68
985.498	129.2
985.662	125.71
985.827	133.46
985.991	117.57
986.155	94.52
986.32	155.55
986.484	166.98
986.649	134.04
986.813	51.89
986.977	140.43
987.142	117.57
987.306	55.77
987.47	118.15
987.634	115.25
987.799	94.32
987.963	117.18
988.127	136.37
988.291	173.37
988.455	129.78
988.62	97.81
988.784	142.76
988.948	151.48
989.112	79.99
989.276	130.36
989.44	105.95
989.604	98.39
989.768	82.7
989.932	182.09
990.096	84.25
990.26	89.09
990.424	59.06
990.588	91.22
990.752	185.38
990.915	148.38
991.079	96.65
991.243	86.38
991.407	132.3
991.571	90.45
991.734	116.02
991.898	121.64
992.062	197.4
992.226	124.16
992.389	58.48
992.553	38.33
992.717	69.72
992.88	79.4
993.044	84.25
993.207	80.37
993.371	120.09
993.535	124.55
993.698	114.08
993.862	128.81
994.025	115.63
994.189	97.23
994.352	90.84
994.515	95.87
994.679	142.57
994.842	90.06
995.006	133.07
995.169	57.7
995.332	69.52
995.496	96.65
995.659	39.49
995.822	85.99
995.985	82.5
996.149	145.08
996.312	93.94
996.475	188.68
996.638	76.11
996.801	128.03
996.964	170.47
997.128	86.38
997.291	82.12
997.454	71.85
997.617	41.82
997.78	100.52
997.943	59.64
998.106	116.6
998.269	77.08
998.432	60.03
998.595	90.64
998.758	20.89
998.92	68.17
999.083	45.3
999.246	77.85
999.409	17.99
999.572	4.42
999.735	86.19
999.897	109.82
1000.06	57.7
1000.223	80.18
1000.386	110.4
1000.548	89.48
1000.711	89.29
1000.874	91.61
1001.036	23.8
1001.199	120.09
1001.361	56.35
1001.524	96.65
1001.687	106.92
1001.849	40.85
1002.012	85.22
1002.174	97.62
1002.337	97.62
1002.499	79.4
1002.661	105.75
1002.824	34.07
1002.986	60.22
1003.149	120.28
1003.311	42.4
1003.473	113.5
1003.636	51.7
1003.798	119.51
1003.96	96.65
1004.123	92.19
1004.285	68.75
1004.447	57.51
1004.609	75.72
1004.771	131.13
1004.933	6.56
1005.096	36
1005.258	27.48
1005.42	44.53
1005.582	59.45
1005.744	70.1
1005.906	-5.65
1006.068	68.17
1006.23	18.57
1006.392	11.98
1006.554	9.85
1006.716	97.04
1006.878	73.79
1007.04	-4.1
1007.202	54.6
1007.363	60.42
1007.525	42.4
1007.687	109.43
1007.849	105.37
1008.011	25.15
1008.172	6.75
1008.334	56.15
1008.496	79.6
1008.658	15.27
1008.819	29.61
1008.981	9.27
1009.143	43.17
1009.304	58.87
1009.466	68.36
1009.627	108.27
1009.789	148.38
1009.95	64.87
1010.112	36.59
1010.273	90.45
1010.435	45.5
1010.596	55.38
1010.758	31.16
1010.919	54.02
1011.081	-5.84
1011.242	51.31
1011.403	72.04
1011.565	30.77
1011.726	60.8
1011.887	12.76
1012.049	35.04
1012.21	81.73
1012.371	133.07
1012.532	-34.71
1012.693	32.52
1012.855	33.87
1013.016	59.84
1013.177	71.65
1013.338	36
1013.499	123.97
1013.66	65.45
1013.821	67.97
1013.982	57.32
1014.143	50.54
1014.304	29.03
1014.465	55.38
1014.626	49.18
1014.787	34.07
1014.948	111.37
1015.109	-36.26
1015.27	62.16
1015.431	18.18
1015.592	31.74
1015.752	102.27
1015.913	52.86
1016.074	60.42
1016.235	76.3
1016.395	59.64
1016.556	25.54
1016.717	10.82
1016.877	92
1017.038	34.26
1017.199	56.15
1017.359	64.87
1017.52	41.43
1017.681	14.89
1017.841	33.1
1018.002	16.63
1018.162	21.86
1018.323	112.34
1018.483	40.46
1018.644	44.34
1018.804	-8.75
1018.964	-0.23
1019.125	22.64
1019.285	46.66
1019.446	0.55
1019.606	15.85
1019.766	-36.46
1019.926	40.85
1020.087	55.38
1020.247	3.07
1020.407	52.47
1020.567	108.66
1020.728	26.7
1020.888	-10.49
1021.048	14.5
1021.208	8.69
1021.368	-10.11
1021.528	105.37
1021.688	58.87
1021.848	60.61
1022.008	28.45
1022.168	27.87
1022.328	41.24
1022.488	80.57
1022.648	-5.46
1022.808	43.75
1022.968	44.14
1023.128	2.49
1023.288	-15.73
1023.448	30.97
1023.608	44.53
1023.767	53.83
1023.927	-4.68
1024.087	-18.83
1024.247	-33.36
1024.406	14.89
1024.566	7.72
1024.726	8.69
1024.885	47.63
1025.045	52.47
1025.205	18.37
1025.364	16.44
1025.524	59.45
1025.683	23.99
1025.843	64.68
1026.003	44.72
1026.162	70.49
1026.321	70.3
1026.481	39.88
1026.64	-7.2
1026.8	48.6
1026.959	56.93
1027.119	39.69
1027.278	4.42
1027.437	-17.47
1027.597	40.07
1027.756	32.13
1027.915	40.85
1028.074	36.2
1028.234	-11.46
1028.393	41.24
1028.552	4.04
1028.711	-70.56
1028.87	56.35
1029.03	-3.52
1029.189	10.24
1029.348	-38.98
1029.507	15.85
1029.666	25.93
1029.825	-3.33
1029.984	-8.75
1030.143	42.01
1030.302	-2.74
1030.461	-10.49
1030.62	24.38
1030.779	32.13
1030.938	-10.88
1031.097	-14.37
1031.255	26.51
1031.414	78.44
1031.573	80.57
1031.732	-21.15
1031.891	31.74
1032.049	84.44
1032.208	45.11
1032.367	9.66
1032.525	3.26
1032.684	-6.43
1032.843	11.98
1033.001	-39.17
1033.16	176.47
1033.319	70.88
1033.477	43.56
1033.636	-27.74
1033.794	-51.38
1033.953	54.8
1034.111	34.65
1034.27	-7.01
1034.428	36.78
1034.587	-2.36
1034.745	31.55
1034.903	19.15
1035.062	33.68
1035.22	-40.72
1035.378	59.45
1035.537	-2.74
1035.695	51.12
1035.853	8.88
1036.011	21.09
1036.17	43.37
1036.328	-82.18
1036.486	23.41
1036.644	60.03
1036.802	-72.49
1036.96	25.35
1037.119	1.13
1037.277	-17.28
1037.435	-25.61
1037.593	-8.56
1037.751	5.2
1037.909	48.99
1038.067	48.99
