Data from gum_old_FLMT105791__142__15-46-31-252.txt Node

Date: Mon Mar 20 15:46:31 GMT 2023
User: antho
Spectrometer: FLMT10579
Trigger mode: 0
Integration Time (sec): 1.000000E-1
Scans to average: 10
Electric dark correction enabled: true
Nonlinearity correction enabled: false
Boxcar width: 0
XAxis mode: Wavelengths
Number of Pixels in Spectrum: 3648
>>>>>Begin Spectral Data<<<<<
345.248	-208.52
345.464	-208.52
345.681	-208.52
345.898	-200.38
346.114	-175.39
346.331	-33.37
346.548	14.1
346.764	6.54
346.981	-24.85
347.197	-22.33
347.414	35.79
347.631	-10.51
347.847	63.69
348.064	4.41
348.28	12.93
348.497	-40.35
348.713	-6.05
348.93	50.91
349.146	41.41
349.363	-6.83
349.579	31.53
349.796	17
350.012	7.12
350.229	26.88
350.445	5.96
350.661	-19.62
350.878	14.29
351.094	19.91
351.311	37.15
351.527	24.36
351.743	-10.7
351.96	26.49
352.176	41.03
352.392	45.87
352.609	52.07
352.825	2.08
353.041	30.18
353.257	14.29
353.474	2.47
353.69	39.28
353.906	17.58
354.122	-15.74
354.339	65.24
354.555	19.52
354.771	-11.09
354.987	93.14
355.203	57.69
355.42	4.02
355.636	-10.12
355.852	14.1
356.068	6.93
356.284	-20
356.5	88.49
356.716	34.44
356.932	8.67
357.148	23.78
357.364	17.97
357.58	66.21
357.796	63.11
358.012	66.21
358.228	17.97
358.444	-29.5
358.66	63.5
358.876	55.56
359.092	10.61
359.308	14.1
359.524	31.92
359.74	15.26
359.956	-3.15
360.172	42.38
360.388	68.15
360.604	32.11
360.819	111.55
361.035	16.23
361.251	59.82
361.467	-28.53
361.683	53.23
361.898	63.69
362.114	55.75
362.33	41.03
362.546	46.84
362.762	27.46
362.977	15.84
363.193	14.48
363.409	56.72
363.624	8.67
363.84	1.5
364.056	11.58
364.271	45.87
364.487	40.06
364.703	1.89
364.918	17.58
365.134	13.51
365.35	18.75
365.565	122.79
365.781	44.32
365.996	27.46
366.212	102.64
366.427	63.11
366.643	21.07
366.858	14.29
367.074	18.55
367.289	80.55
367.505	164.44
367.72	-1.79
367.936	16.61
368.151	80.55
368.367	60.4
368.582	57.69
368.798	14.68
369.013	75.32
369.228	25.53
369.444	50.13
369.659	100.12
369.874	41.41
370.09	94.5
370.305	-37.25
370.52	37.54
370.736	74.74
370.951	35.02
371.166	66.99
371.381	123.17
371.597	96.63
371.812	-11.09
372.027	39.48
372.242	44.51
372.458	112.32
372.673	59.43
372.888	52.65
373.103	60.79
373.318	137.32
373.533	69.12
373.749	44.51
373.964	-10.32
374.179	113.49
374.394	22.62
374.609	83.46
374.824	12.35
375.039	94.11
375.254	18.75
375.469	80.74
375.684	40.64
375.899	66.41
376.114	43.16
376.329	67.57
376.544	91.01
376.759	69.89
376.974	25.91
377.189	45.68
377.404	38.31
377.619	78.03
377.834	-27.75
378.049	11.77
378.264	23.59
378.478	59.82
378.693	33.47
378.908	90.24
379.123	65.83
379.338	100.51
379.553	57.49
379.767	57.3
379.982	70.67
380.197	71.64
380.412	40.83
380.626	53.62
380.841	155.14
381.056	81.33
381.271	123.56
381.485	11
381.7	19.71
381.915	55.56
382.129	9.25
382.344	44.13
382.559	50.71
382.773	77.45
382.988	-13.22
383.202	48.19
383.417	24.94
383.632	150.11
383.846	73.19
384.061	21.84
384.275	41.03
384.49	67.18
384.704	81.52
384.919	51.1
385.133	48
385.348	95.08
385.562	20.88
385.777	72.03
385.991	54.98
386.206	31.92
386.42	33.08
386.634	106.51
386.849	102.64
387.063	69.51
387.277	41.8
387.492	54.39
387.706	40.44
387.92	47.61
388.135	105.74
388.349	81.71
388.563	75.13
388.778	71.06
388.992	81.33
389.206	102.64
389.42	145.46
389.635	64.47
389.849	99.15
390.063	114.07
390.277	111.74
390.491	141.19
390.706	129.76
390.92	100.31
391.134	75.13
391.348	124.14
391.562	43.74
391.776	98.57
391.99	68.73
392.205	127.05
392.419	82.68
392.633	65.63
392.847	127.82
393.061	56.91
393.275	141.19
393.489	82.49
393.703	82.29
393.917	122.59
394.131	26.88
394.345	82.88
394.559	100.89
394.773	60.98
394.986	107.87
395.2	95.28
395.414	128.21
395.628	87.53
395.842	103.41
396.056	85.2
396.27	32.31
396.484	116.97
396.697	127.63
396.911	127.24
397.125	102.06
397.339	102.83
397.553	117.56
397.766	147.2
397.98	140.81
398.194	152.82
398.408	94.11
398.621	142.36
398.835	142.94
399.049	138.67
399.262	161.73
399.476	193.89
399.69	161.54
399.903	214.62
400.117	157.27
400.331	176.65
400.544	126.47
400.758	225.28
400.971	166.96
401.185	175.68
401.398	125.11
401.612	214.82
401.826	192.92
402.039	187.31
402.253	113.29
402.466	213.07
402.68	145.46
402.893	179.56
403.106	173.36
403.32	147.78
403.533	180.91
403.747	164.83
403.96	171.42
404.174	191.37
404.387	146.62
404.6	172.77
404.814	223.54
405.027	176.84
405.24	165.8
405.454	188.27
405.667	202.42
405.88	105.16
406.094	193.31
406.307	228.96
406.52	178.59
406.733	162.7
406.947	137.71
407.16	228.77
407.373	213.27
407.586	219.08
407.799	145.26
408.012	218.3
408.226	200.67
408.439	252.79
408.652	136.54
408.865	179.94
409.078	268.29
409.291	227.02
409.504	172.19
409.717	230.7
409.93	233.8
410.143	205.9
410.357	171.03
410.57	151.46
410.783	164.06
410.996	170.06
411.209	197.19
411.421	231.09
411.634	214.24
411.847	184.4
412.06	200.29
412.273	233.42
412.486	245.62
412.699	310.53
412.912	178.59
413.125	252.99
413.338	227.99
413.55	253.37
413.763	196.6
413.976	250.27
414.189	219.08
414.402	224.12
414.615	274.3
414.827	197.38
415.04	261.7
415.253	223.54
415.466	260.54
415.678	278.17
415.891	229.93
416.104	213.65
416.316	201.64
416.529	209.39
416.742	250.27
416.954	294.45
417.167	236.9
417.38	221.6
417.592	277.4
417.805	179.17
418.017	190.41
418.23	258.99
418.442	205.32
418.655	207.65
418.868	232.06
419.08	264.8
419.293	282.63
419.505	238.45
419.718	238.07
419.93	274.49
420.142	244.27
420.355	304.52
420.567	285.92
420.78	277.59
420.992	231.29
421.205	313.24
421.417	208.04
421.629	246.79
421.842	243.1
422.054	202.42
422.266	305.1
422.479	282.63
422.691	238.65
422.903	281.66
423.115	240.2
423.328	230.9
423.54	261.51
423.752	230.12
423.964	225.47
424.177	259.96
424.389	236.13
424.601	363.23
424.813	272.94
425.025	300.26
425.238	283.21
425.45	276.82
425.662	250.47
425.874	559.49
426.086	273.52
426.298	250.85
426.51	292.7
426.722	275.46
426.934	256.09
427.146	305.49
427.358	230.51
427.57	280.5
427.782	259.96
427.994	240
428.206	226.83
428.418	213.27
428.63	308.2
428.842	317.89
429.054	284.37
429.266	316.53
429.478	261.12
429.69	282.82
429.902	215.01
430.114	294.25
430.325	273.91
430.537	226.05
430.749	224.7
430.961	174.91
431.173	192.54
431.384	257.83
431.596	139.45
431.808	226.83
432.02	276.82
432.231	313.63
432.443	339.4
432.655	296.77
432.867	264.61
433.078	304.13
433.29	350.05
433.502	345.02
433.713	347.53
433.925	314.6
434.136	348.7
434.348	273.72
434.56	237.68
434.771	389.77
434.983	217.14
435.194	294.45
435.406	303.36
435.617	359.93
435.829	392.1
436.04	364.2
436.252	354.12
436.463	382.8
436.675	384.93
436.886	335.52
437.098	352.18
437.309	423.87
437.521	357.61
437.732	363.62
437.943	354.9
438.155	339.01
438.366	287.28
438.578	396.36
438.789	325.06
439	362.65
439.211	306.85
439.423	333.39
439.634	334.94
439.845	373.88
440.057	357.42
440.268	400.62
440.479	356.25
440.69	347.34
440.902	347.73
441.113	371.36
441.324	328.16
441.535	388.8
441.746	428.33
441.957	327.38
442.168	340.75
442.38	416.12
442.591	422.13
442.802	353.15
443.013	379.5
443.224	419.8
443.435	358.19
443.646	371.95
443.857	374.85
444.068	354.12
444.279	361.48
444.49	460.1
444.701	350.44
444.912	494.39
445.123	441.31
445.334	426.39
445.545	411.86
445.756	401.2
445.967	363.81
446.178	405.46
446.388	424.06
446.599	430.65
446.81	442.66
447.021	413.8
447.232	442.08
447.443	462.43
447.653	404.5
447.864	476.76
448.075	419.41
448.286	430.46
448.496	439.18
448.707	509.51
448.918	386.09
449.129	494.59
449.339	407.6
449.55	441.11
449.761	405.66
449.971	460.1
450.182	414.38
450.393	478.51
450.603	421.93
450.814	472.31
451.024	443.83
451.235	504.08
451.446	517.06
451.656	525.39
451.867	416.51
452.077	450.03
452.288	497.69
452.498	526.17
452.709	433.36
452.919	486.06
453.13	404.69
453.34	489.36
453.55	421.93
453.761	472.89
453.971	453.9
454.182	457
454.392	458.36
454.602	559.88
454.813	479.86
455.023	501.56
455.233	402.56
455.444	461.07
455.654	387.06
455.864	459.71
456.075	454.87
456.285	445.57
456.495	447.31
456.705	474.05
456.916	519.97
457.126	514.74
457.336	467.85
457.546	397.33
457.756	435.5
457.967	526.56
458.177	461.84
458.387	498.08
458.597	432.4
458.807	449.83
459.017	448.67
459.227	477.34
459.437	429.1
459.647	493.62
459.857	496.91
460.068	456.42
460.278	540.89
460.488	465.72
460.698	544.96
460.908	494.98
461.117	429.1
461.327	450.22
461.537	492.65
461.747	476.38
461.957	501.18
462.167	595.53
462.377	550.19
462.587	478.89
462.797	540.12
463.007	518.81
463.216	517.45
463.426	552.32
463.636	521.52
463.846	450.41
464.056	487.42
464.265	529.85
464.475	468.43
464.685	505.24
464.895	528.69
465.104	493.23
465.314	552.91
465.524	514.54
465.733	485.09
465.943	620.72
466.153	574.41
466.362	551.94
466.572	548.26
466.782	525.39
466.991	513.77
467.201	590.88
467.41	480.64
467.62	515.51
467.829	514.54
468.039	523.07
468.249	533.34
468.458	536.44
468.668	566.47
468.877	569.96
469.086	602.89
469.296	570.15
469.505	521.33
469.715	624.79
469.924	588.36
470.134	626.92
470.343	632.54
470.552	575.57
470.762	520.74
470.971	514.54
471.18	541.86
471.39	577.32
471.599	547.09
471.808	598.82
472.018	526.17
472.227	623.82
472.436	626.72
472.645	594.76
472.855	543.8
473.064	653.27
473.273	622.46
473.482	616.84
473.691	655.59
473.901	635.05
474.11	616.46
474.319	723.79
474.528	637.96
474.737	685.43
474.946	675.55
475.155	670.51
475.364	700.35
475.573	667.22
475.783	689.5
475.992	674.39
476.201	717.79
476.41	640.29
476.619	650.36
476.828	661.99
477.037	676.32
477.245	701.12
477.454	687.37
477.663	657.53
477.872	683.1
478.081	756.73
478.29	678.26
478.499	787.34
478.708	703.84
478.917	790.25
479.125	731.15
479.334	747.62
479.543	695.12
479.752	740.65
479.961	749.37
480.169	796.64
480.378	725.15
480.587	882.47
480.796	774.17
481.004	779.4
481.213	765.83
481.422	793.35
481.63	807.3
481.839	794.9
482.048	859.8
482.256	809.81
482.465	822.6
482.674	799.16
482.882	814.85
483.091	877.82
483.299	828.41
483.508	861.16
483.716	846.43
483.925	841.4
484.134	822.99
484.342	829.96
484.551	875.3
484.759	868.91
484.967	882.86
485.176	906.3
485.384	872.78
485.593	915.41
485.801	858.83
486.01	886.54
486.218	798
486.426	736
486.635	753.24
486.843	735.42
487.051	776.49
487.26	775.72
487.468	811.95
487.676	855.15
487.885	805.55
488.093	881.5
488.301	901.46
488.509	887.7
488.717	889.25
488.926	898.16
489.134	893.13
489.342	929.55
489.55	844.69
489.758	894.48
489.967	868.13
490.175	985.93
490.383	919.09
490.591	986.9
490.799	916.96
491.007	999.11
491.215	953.77
491.423	939.63
491.631	954.74
491.839	935.17
492.047	979.54
492.255	890.22
492.463	899.52
492.671	903.2
492.879	981.86
493.087	945.63
493.295	1006.08
493.503	993.1
493.711	1006.47
493.919	1020.03
494.127	1029.33
494.334	1008.6
494.542	953.58
494.75	1003.56
494.958	950.09
495.166	1034.56
495.374	997.56
495.581	1008.6
495.789	1006.66
495.997	1095.01
496.205	978.38
496.412	981.28
496.62	1011.89
496.828	1059.75
497.035	1009.96
497.243	1066.14
497.451	1025.26
497.658	1046.77
497.866	1045.02
498.074	1099.47
498.281	987.09
498.489	1131.63
498.696	1051.61
498.904	1022.16
499.112	977.6
499.319	1111.67
499.527	1045.61
499.734	1054.52
499.942	1006.66
500.149	1035.92
500.357	1047.16
500.564	1027.59
500.771	1038.63
500.979	1038.82
501.186	1012.47
501.394	1020.03
501.601	1041.34
501.808	1067.31
502.016	1023.13
502.223	1021.58
502.43	1018.67
502.638	1024.87
502.845	998.33
503.052	1098.5
503.26	1053.55
503.467	1143.84
503.674	1063.62
503.881	1077.38
504.089	1150.04
504.296	1083
504.503	1030.88
504.71	1042.12
504.917	1032.04
505.125	1066.53
505.332	1060.33
505.539	1108.19
505.746	1146.35
505.953	1163.79
506.16	1140.35
506.367	1167.86
506.574	1188.98
506.781	1156.43
506.988	1115.16
507.195	1125.62
507.402	1097.14
507.609	1151
507.816	1129.3
508.023	1119.04
508.23	1111.48
508.437	1050.06
508.644	1119.23
508.851	1171.93
509.058	1164.57
509.265	1122.14
509.472	1179.87
509.679	1211.84
509.885	1175.8
510.092	1181.81
510.299	1137.83
510.506	1172.32
510.713	1180.45
510.92	1130.27
511.126	1156.82
511.333	1181.03
511.54	1181.62
511.746	1225.6
511.953	1221.14
512.16	1238.38
512.367	1185.68
512.573	1210.48
512.78	1178.52
512.987	1179.48
513.193	1193.82
513.4	1116.9
513.606	1161.27
513.813	1194.6
514.02	1179.87
514.226	1230.44
514.433	1245.75
514.639	1177.74
514.846	1188.98
515.052	1170.77
515.259	1204.67
515.465	1192.27
515.672	1198.28
515.878	1296.51
516.085	1208.93
516.291	1248.07
516.497	1224.05
516.704	1232.57
516.91	1160.69
517.117	1147.71
517.323	1081.06
517.529	1150.62
517.736	1092.49
517.942	1118.45
518.148	1127.37
518.354	1185.88
518.561	1169.41
518.767	1162.05
518.973	1228.12
519.179	1213.97
519.386	1157.98
519.592	1198.86
519.798	1163.98
520.004	1306.97
520.21	1237.03
520.417	1344.75
520.623	1338.55
520.829	1339.91
521.035	1322.66
521.241	1352.5
521.447	1341.84
521.653	1479.99
521.859	1336.23
522.065	1380.79
522.271	1492.19
522.477	1395.32
522.683	1469.52
522.889	1414.89
523.095	1397.64
523.301	1375.94
523.507	1380.79
523.713	1407.53
523.919	1361.22
524.125	1477.86
524.331	1422.25
524.537	1543.34
524.742	1524.35
524.948	1517.38
525.154	1511.95
525.36	1616.97
525.566	1517.96
525.772	1593.14
525.977	1464.49
526.183	1544.31
526.389	1588.87
526.595	1493.74
526.8	1507.69
527.006	1455.77
527.212	1399
527.417	1382.53
527.623	1399.39
527.829	1499.17
528.034	1478.44
528.24	1492.97
528.446	1492
528.651	1576.67
528.857	1563.69
529.062	1603.98
529.268	1587.32
529.473	1637.89
529.679	1621.03
529.884	1701.63
530.09	1660.37
530.295	1689.04
530.501	1669.28
530.706	1657.07
530.912	1600.88
531.117	1637.89
531.323	1653.78
531.528	1714.61
531.733	1719.26
531.939	1678
532.144	1717.71
532.35	1705.31
532.555	1775.84
532.76	1734.38
532.966	1710.74
533.171	1694.46
533.376	1663.85
533.581	1612.51
533.787	1651.45
533.992	1715
534.197	1712.48
534.402	1717.13
534.607	1725.66
534.813	1789.01
535.018	1725.85
535.223	1703.76
535.428	1743.29
535.633	1776.42
535.838	1774.29
536.043	1750.65
536.249	1841.52
536.454	1798.31
536.659	1832.22
536.864	1797.34
537.069	1770.03
537.274	1776.42
537.479	1772.54
537.684	1767.51
537.889	1715.58
538.094	1831.25
538.299	1769.44
538.504	1794.63
538.708	1815.94
538.913	1832.41
539.118	1804.51
539.323	1828.54
539.528	1773.9
539.733	1786.69
539.938	1803.54
540.142	1833.96
540.347	1786.49
540.552	1709
540.757	1751.23
540.962	1756.66
541.166	1723.91
541.371	1702.41
541.576	1764.02
541.781	1669.86
541.985	1793.08
542.19	1808.78
542.395	1871.36
542.599	1868.06
542.804	1834.16
543.008	1879.49
543.213	1790.56
543.418	1779.71
543.622	1809.16
543.827	1755.3
544.031	1875.23
544.236	1869.03
544.44	1862.64
544.645	1950.02
544.849	1829.7
545.054	1900.03
545.258	1927.35
545.463	1893.44
545.667	1843.65
545.872	1877.94
546.076	1889.57
546.281	1873.87
546.485	1831.83
546.689	1869.22
546.894	1907.01
547.098	1853.73
547.302	1822.34
547.507	1869.81
547.711	1895.77
547.915	1934.32
548.119	1803.74
548.324	1843.46
548.528	1893.64
548.732	1854.89
548.936	1909.33
549.141	1876.39
549.345	1879.3
549.549	1904.1
549.753	1881.62
549.957	1988.57
550.161	1993.61
550.366	1865.35
550.57	1853.53
550.774	1906.62
550.978	1905.84
551.182	1928.51
551.386	1856.44
551.59	1878.52
551.794	1894.99
551.998	1925.61
552.202	1861.86
552.406	1833.77
552.61	1909.14
552.814	1901.58
553.018	1952.73
553.222	1879.49
553.426	1896.16
553.63	1964.94
553.833	1850.04
554.037	1841.33
554.241	1906.04
554.445	1895.38
554.649	1890.34
554.853	1860.12
555.056	1929.29
555.26	1957.96
555.464	1880.85
555.668	1897.9
555.871	1911.07
556.075	1932
556.279	1866.12
556.483	1816.53
556.686	1868.64
556.89	1887.24
557.094	1910.3
557.297	1819.63
557.501	1891.51
557.704	1746.39
557.908	1863.99
558.112	1803.74
558.315	1916.69
558.519	1804.13
558.722	1843.46
558.926	1786.49
559.129	1785.14
559.333	1766.54
559.536	1780.49
559.74	1739.03
559.943	1727.4
560.147	1751.62
560.35	1767.51
560.553	1766.35
560.757	1698.53
560.96	1824.86
561.164	1757.63
561.367	1875.42
561.57	1770.99
561.774	1794.83
561.977	1747.75
562.18	1752.01
562.384	1830.48
562.587	1732.44
562.79	1757.24
562.993	1749.1
563.197	1744.45
563.4	1785.72
563.603	1821.76
563.806	1820.79
564.009	1701.44
564.212	1751.23
564.416	1675.67
564.619	1744.84
564.822	1680.13
565.025	1742.13
565.228	1715.97
565.431	1718.3
565.634	1627.04
565.837	1651.84
566.04	1661.33
566.243	1649.71
566.446	1553.42
566.649	1684.58
566.852	1588.49
567.055	1611.54
567.258	1684
567.461	1703.18
567.664	1736.9
567.867	1614.64
568.07	1649.52
568.273	1661.72
568.475	1703.38
568.678	1624.52
568.881	1600.69
569.084	1640.8
569.287	1501.11
569.489	1568.92
569.692	1631.3
569.895	1633.24
570.098	1527.26
570.3	1526.29
570.503	1480.76
570.706	1531.33
570.909	1495.87
571.111	1460.22
571.314	1491.61
571.516	1478.44
571.719	1544.12
571.922	1474.56
572.124	1465.84
572.327	1473.79
572.529	1410.04
572.732	1457.12
572.935	1488.51
573.137	1531.33
573.34	1468.94
573.542	1521.25
573.745	1514.28
573.947	1521.06
574.15	1454.22
574.352	1459.84
574.554	1542.95
574.757	1480.76
574.959	1410.04
575.162	1430.58
575.364	1454.99
575.566	1501.3
575.769	1380.98
575.971	1457.51
576.173	1332.54
576.376	1372.65
576.578	1406.56
576.78	1489.48
576.982	1349.59
577.185	1411.59
577.387	1369.16
577.589	1377.69
577.791	1415.86
577.993	1393.77
578.196	1375.36
578.398	1380.21
578.6	1409.85
578.802	1319.76
579.004	1335.64
579.206	1320.92
579.408	1382.14
579.61	1319.18
579.812	1379.04
580.014	1317.82
580.216	1324.6
580.418	1363.54
580.62	1313.95
580.822	1278.3
581.024	1334.87
581.226	1404.43
581.428	1316.66
581.63	1406.36
581.832	1325.57
582.034	1376.72
582.236	1335.45
582.438	1351.14
582.64	1395.51
582.841	1405.59
583.043	1444.92
583.245	1383.31
583.447	1345.53
583.649	1328.67
583.85	1349.79
584.052	1418.57
584.254	1281.2
584.456	1372.26
584.657	1307.16
584.859	1341.65
585.061	1325.38
585.262	1324.02
585.464	1256.4
585.666	1331
585.867	1290.11
586.069	1361.99
586.27	1293.02
586.472	1257.95
586.674	1297.09
586.875	1261.05
587.077	1232.18
587.278	1275.39
587.48	1276.55
587.681	1374.78
587.883	1266.09
588.084	1255.63
588.285	1258.92
588.487	1251.17
588.688	1279.07
588.89	1239.35
589.091	1196.92
589.292	1186.27
589.494	1156.43
589.695	1153.91
589.896	1079.7
590.098	1060.14
590.299	1134.92
590.5	1092.3
590.702	1137.44
590.903	1155.27
591.104	1227.15
591.305	1163.98
591.507	1260.08
591.708	1184.72
591.909	1188.98
592.11	1253.69
592.311	1224.24
592.512	1164.18
592.714	1123.1
592.915	1144.22
593.116	1148.1
593.317	1162.05
593.518	1167.67
593.719	1153.14
593.92	1201.38
594.121	1229.67
594.322	1184.33
594.523	1162.82
594.724	1163.4
594.925	1187.23
595.126	1172.9
595.327	1183.36
595.528	1185.88
595.729	1198.47
595.929	1191.88
596.13	1165.53
596.331	1171.35
596.532	1165.53
596.733	1224.24
596.934	1208.35
597.135	1249.81
597.335	1186.07
597.536	1152.75
597.737	1163.21
597.938	1134.54
598.138	1175.42
598.339	1157.01
598.54	1174.25
598.74	1185.68
598.941	1197.7
599.142	1233.54
599.342	1167.86
599.543	1129.69
599.744	1160.5
599.944	1180.26
600.145	1101.02
600.345	1154.1
600.546	1237.61
600.746	1229.28
600.947	1255.24
601.147	1169.41
601.348	1178.71
601.548	1099.66
601.749	1145
601.949	1114
602.15	1083
602.35	1120.39
602.551	1198.08
602.751	1113.8
602.951	1117.49
603.152	1021
603.352	1178.52
603.552	1144.42
603.753	1166.12
603.953	1142.67
604.153	1150.81
604.354	1145.58
604.554	1174.25
604.754	1128.34
604.954	1106.83
605.155	1133.95
605.355	1101.02
605.555	1163.4
605.755	1169.8
605.955	1136.47
606.155	1176.97
606.356	1125.43
606.556	1140.93
606.756	1166.7
606.956	1073.89
607.156	1183.75
607.356	1104.7
607.556	1147.52
607.756	1130.08
607.956	1146.55
608.156	1123.69
608.356	1086.1
608.556	1145
608.756	1101.4
608.956	1089.97
609.156	1109.54
609.356	1046.77
609.556	1076.99
609.755	1091.52
609.955	1070.02
610.155	1101.99
610.355	1081.45
610.555	1042.51
610.755	1057.04
610.954	1017.9
611.154	1085.71
611.354	1104.89
611.554	1073.7
611.753	1048.32
611.953	1009.57
612.153	1084.16
612.352	1059.94
612.552	1014.8
612.752	961.33
612.951	1048.71
613.151	1031.46
613.351	985.54
613.55	1031.46
613.75	1070.79
613.949	1028.75
614.149	1055.87
614.348	1047.54
614.548	988.06
614.747	965.39
614.947	982.83
615.146	958.03
615.346	1031.66
615.545	982.64
615.745	1003.95
615.944	1006.86
616.144	1043.47
616.343	1045.99
616.542	991.36
616.742	988.64
616.941	989.22
617.14	927.03
617.34	963.07
617.539	977.41
617.738	962.1
617.938	1053.94
618.137	983.8
618.336	972.56
618.535	989.42
618.734	957.64
618.934	1023.13
619.133	1005.11
619.332	1001.82
619.531	952.8
619.73	959.97
619.929	1022.55
620.128	993.87
620.328	1018.48
620.527	938.27
620.726	992.32
620.925	993.68
621.124	993.87
621.323	981.09
621.522	938.27
621.721	923.16
621.92	895.84
622.119	989.22
622.318	941.56
622.517	952.03
622.715	962.29
622.914	885.38
623.113	955.51
623.312	900.88
623.511	967.91
623.71	917.73
623.909	915.21
624.107	980.31
624.306	881.11
624.505	891.38
624.704	907.27
624.902	890.03
625.101	954.93
625.3	925.09
625.499	883.44
625.697	905.33
625.896	907.66
626.095	931.1
626.293	851.08
626.492	886.15
626.69	953.96
626.889	884.41
627.088	953.19
627.286	875.5
627.485	885.18
627.683	877.24
627.882	940.59
628.08	828.41
628.279	884.02
628.477	959.19
628.676	854.76
628.874	902.04
629.073	848.95
629.271	840.62
629.469	923.93
629.668	882.47
629.866	889.06
630.065	831.71
630.263	909.21
630.461	848.37
630.66	866.58
630.858	903.2
631.056	914.63
631.254	923.16
631.453	845.27
631.651	914.05
631.849	854.57
632.047	874.33
632.245	863.87
632.444	856.31
632.642	893.51
632.84	900.29
633.038	863.1
633.236	820.28
633.434	808.26
633.632	810.2
633.83	845.46
634.028	877.63
634.227	836.75
634.425	910.37
634.623	868.91
634.821	864.65
635.019	829.77
635.216	808.26
635.414	916.96
635.612	842.56
635.81	826.48
636.008	915.99
636.206	845.66
636.404	842.95
636.602	826.48
636.8	842.75
636.997	868.71
637.195	856.51
637.393	847.4
637.591	888.28
637.789	855.54
637.986	825.7
638.184	833.65
638.382	873.56
638.58	872.98
638.777	900.88
638.975	827.64
639.173	863.48
639.37	835.97
639.568	843.14
639.765	872.4
639.963	834.03
640.161	859.61
640.358	849.34
640.556	804.97
640.753	783.08
640.951	819.7
641.148	823.38
641.346	791.99
641.543	817.18
641.741	856.12
641.938	746.27
642.136	840.04
642.333	768.93
642.531	848.37
642.728	868.71
642.925	810.4
643.123	795.48
643.32	830.74
643.517	777.27
643.715	790.83
643.912	762.73
644.109	775.13
644.306	780.56
644.504	780.37
644.701	824.93
644.898	843.33
645.095	753.63
645.293	816.4
645.49	803.23
645.687	796.06
645.884	815.24
646.081	708.68
646.278	741.03
646.475	696.09
646.672	737.93
646.87	810.98
647.067	780.56
647.264	787.92
647.461	723.79
647.658	709.65
647.855	796.64
648.052	765.45
648.249	634.28
648.446	741.23
648.642	744.33
648.839	725.34
649.036	703.64
649.233	686.4
649.43	667.41
649.627	663.15
649.824	710.62
650.021	689.3
650.217	658.11
650.414	680.2
650.611	718.95
650.808	731.15
651.004	711
651.201	735.42
651.398	772.42
651.595	726.7
651.791	674
651.988	758.08
652.185	676.9
652.381	720.3
652.578	659.08
652.775	699.19
652.971	697.05
653.168	697.64
653.364	746.46
653.561	638.15
653.757	686.59
653.954	691.24
654.15	669.15
654.347	786.18
654.543	690.66
654.74	639.7
654.936	644.74
655.133	702.09
655.329	717.98
655.525	669.15
655.722	722.63
655.918	638.54
656.115	695.89
656.311	601.54
656.507	601.73
656.704	518.03
656.9	623.43
657.096	588.56
657.292	573.64
657.489	641.64
657.685	678.65
657.881	611.22
658.077	607.93
658.273	625.37
658.47	734.06
658.666	627.11
658.862	693.18
659.058	636.41
659.254	700.74
659.45	613.36
659.646	694.15
659.842	651.14
660.038	711.97
660.234	631.37
660.43	658.11
660.626	720.3
660.822	699.96
661.018	720.5
661.214	685.04
661.41	634.09
661.606	709.84
661.802	705.77
661.998	640.09
662.194	623.62
662.39	713.14
662.586	680.78
662.781	694.54
662.977	683.1
663.173	703.45
663.369	686.79
663.564	698.8
663.76	709.26
663.956	671.29
664.152	724.37
664.347	611.03
664.543	680.59
664.739	646.87
664.934	615.29
665.13	625.17
665.326	678.26
665.521	677.87
665.717	627.5
665.912	630.41
666.108	599.02
666.304	621.11
666.499	650.55
666.695	601.54
666.89	628.66
667.086	669.35
667.281	644.74
667.477	721.47
667.672	655.4
667.867	647.45
668.063	632.92
668.258	615.1
668.454	631.76
668.649	735.03
668.844	634.09
669.04	696.47
669.235	646.1
669.43	614.71
669.626	598.82
669.821	635.05
670.016	600.37
670.211	640.87
670.407	586.62
670.602	645.9
670.797	653.85
670.992	650.17
671.187	614.13
671.382	662.18
671.578	617.62
671.773	631.96
671.968	592.62
672.163	625.56
672.358	634.67
672.553	615.49
672.748	615.29
672.943	692.4
673.138	619.36
673.333	653.85
673.528	599.41
673.723	630.6
673.918	612.77
674.113	585.84
674.308	719.34
674.503	654.43
674.698	665.47
674.892	634.28
675.087	649.78
675.282	656.56
675.477	607.35
675.672	649
675.867	624.01
676.061	586.42
676.256	569.18
676.451	589.72
676.646	599.99
676.84	561.24
677.035	614.13
677.23	584.1
677.424	622.46
677.619	659.85
677.814	663.54
678.008	677.87
678.203	547.67
678.397	575.19
678.592	627.5
678.787	682.33
678.981	606.38
679.176	612.19
679.37	598.44
679.565	615.49
679.759	604.06
679.954	619.36
680.148	662.37
680.342	695.7
680.537	653.85
680.731	605.99
680.926	630.21
681.12	653.65
681.314	584.1
681.509	608.12
681.703	636.41
681.897	639.9
682.092	622.07
682.286	575.19
682.48	716.43
682.674	658.11
682.869	632.92
683.063	628.47
683.257	695.5
683.451	599.41
683.645	634.28
683.839	624.98
684.034	612
684.228	649.97
684.422	537.99
684.616	574.99
684.81	620.14
685.004	597.47
685.198	613.55
685.392	631.18
685.586	578.87
685.78	623.62
685.974	623.82
686.168	617.42
686.362	652.69
686.556	573.64
686.75	545.54
686.944	575.57
687.138	624.4
687.331	508.54
687.525	542.83
687.719	440.53
687.913	551.16
688.107	544.58
688.301	514.93
688.494	574.99
688.688	497.49
688.882	494.78
689.076	477.54
689.269	522.29
689.463	616.07
689.657	507.96
689.85	507.76
690.044	552.71
690.238	552.32
690.431	526.56
690.625	525.59
690.818	578.09
691.012	549.03
691.205	590.69
691.399	504.66
691.593	589.72
691.786	624.98
691.98	626.14
692.173	634.09
692.366	575.77
692.56	593.4
692.753	677.29
692.947	588.94
693.14	661.6
693.333	659.47
693.527	573.64
693.72	616.65
693.914	596.31
694.107	604.06
694.3	632.73
694.493	613.74
694.687	671.48
694.88	610.06
695.073	685.04
695.266	679.04
695.46	621.69
695.653	706.35
695.846	692.6
696.039	628.47
696.232	666.83
696.425	696.67
696.618	693.76
696.812	667.22
697.005	760.99
697.198	826.67
697.391	741.81
697.584	782.11
697.777	800.52
697.97	794.9
698.163	796.83
698.356	788.12
698.549	890.41
698.742	867.75
698.935	800.32
699.127	881.89
699.32	826.67
699.513	810.2
699.706	816.21
699.899	891.38
700.092	829.38
700.285	899.71
700.477	839.46
700.67	906.69
700.863	921.41
701.056	1010.34
701.248	958.03
701.441	989.42
701.634	955.51
701.826	1058.2
702.019	930.71
702.212	1000.66
702.404	980.89
702.597	966.94
702.79	1000.46
702.982	1049.09
703.175	1084.94
703.367	1088.62
703.56	1087.45
703.752	1159.33
703.945	1160.88
704.137	1145.97
704.33	1174.06
704.522	1177.16
704.715	1169.99
704.907	1209.32
705.1	1254.46
705.292	1241.68
705.484	1229.47
705.677	1260.47
705.869	1302.71
706.061	1315.11
706.254	1339.91
706.446	1307.75
706.638	1327.12
706.831	1426.71
707.023	1346.11
707.215	1491.61
707.407	1440.27
707.599	1417.02
707.792	1493.55
707.984	1472.24
708.176	1525.13
708.368	1478.44
708.56	1514.47
708.752	1521.06
708.944	1500.14
709.136	1604.76
709.329	1529.39
709.521	1715.97
709.713	1618.71
709.905	1641.77
710.097	1654.55
710.289	1666.76
710.481	1690.01
710.672	1716.36
710.864	1705.51
711.056	1780.29
711.248	1757.82
711.44	1778.16
711.632	1777.19
711.824	1810.52
712.016	1844.62
712.207	1863.41
712.399	1867.87
712.591	1932.97
712.783	1922.89
712.975	1938.97
713.166	1912.82
713.358	1918.24
713.55	1982.76
713.741	1987.22
713.933	1986.44
714.125	2005.04
714.316	1989.35
714.508	2089.9
714.7	2068.4
714.891	2064.52
715.083	2135.63
715.274	2110.44
715.466	2095.33
715.657	2167.98
715.849	2051.93
716.04	2137.56
716.232	2068.01
716.423	2153.26
716.615	2086.42
716.806	2111.99
716.998	2089.71
717.189	2017.64
717.381	1957.38
717.572	1927.93
717.763	1954.67
717.955	1939.17
718.146	1906.62
718.337	1867.67
718.528	1844.81
718.72	1757.43
718.911	1880.85
719.102	1820.21
719.293	1896.16
719.485	1871.55
719.676	1866.12
719.867	1847.53
720.058	1832.61
720.249	1880.27
720.44	1894.22
720.632	1917.66
720.823	1976.37
721.014	2046.7
721.205	2080.99
721.396	2167.98
721.587	2261.18
721.778	2271.83
721.969	2298.96
722.16	2354.17
722.351	2397.19
722.542	2508.98
722.733	2527.97
722.924	2422.76
723.115	2523.12
723.305	2477.59
723.496	2508.01
723.687	2367.35
723.878	2414.04
724.069	2410.94
724.26	2431.87
724.45	2361.34
724.641	2379.94
724.832	2481.08
725.023	2379.75
725.213	2387.69
725.404	2407.84
725.595	2393.5
725.785	2396.6
725.976	2493.09
726.167	2440.97
726.357	2451.05
726.548	2588.41
726.739	2461.51
726.929	2589.19
727.12	2614.18
727.31	2633.75
727.501	2537.46
727.691	2585.9
727.882	2613.02
728.072	2671.92
728.263	2653.51
728.453	2686.06
728.644	2717.26
728.834	2695.17
729.024	2675.02
729.215	2686.84
729.405	2695.94
729.596	2781.58
729.786	2773.64
729.976	2804.83
730.167	2763.37
730.357	2784.1
730.547	2798.05
730.737	2841.64
730.928	2863.34
731.118	2942.97
731.308	2856.56
731.498	2922.43
731.688	2994.12
731.879	2967.97
732.069	3009.62
732.259	3029.58
732.449	3081.69
732.639	3163.46
732.829	3170.24
733.019	3206.47
733.209	3300.63
733.399	3316.9
733.589	3350.42
733.779	3343.06
733.969	3320.59
734.159	3434.12
734.349	3485.66
734.539	3568.97
734.729	3499.8
734.919	3513.17
735.109	3632.71
735.299	3524.79
735.488	3552.89
735.678	3524.21
735.868	3586.41
736.058	3555.6
736.248	3514.33
736.437	3510.26
736.627	3495.54
736.817	3667.78
737.007	3621.67
737.196	3625.93
737.386	3609.66
737.576	3630.77
737.765	3683.86
737.955	3649.37
738.144	3811.35
738.334	3716.22
738.524	3687.16
738.713	3722.42
738.903	3684.25
739.092	3761.17
739.282	3757.87
739.471	3750.12
739.661	3738.89
739.85	3757.29
740.04	3794.1
740.229	3822
740.419	3828.01
740.608	3844.67
740.797	3839.83
740.987	3866.56
741.176	3878.77
741.365	3833.43
741.555	3787.13
741.744	3884.58
741.933	3835.76
742.123	3912.1
742.312	3909.58
742.501	3937.67
742.69	3977.58
742.88	3870.63
743.069	4007.42
743.258	3927.01
743.447	3983.01
743.636	4009.55
743.825	3983.78
744.014	4047.33
744.204	4053.14
744.393	3935.73
744.582	4072.13
744.771	4108.17
744.96	4030.86
745.149	4091.89
745.338	4013.43
745.527	4071.74
745.716	4043.26
745.905	4013.81
746.094	4085.11
746.283	4110.49
746.471	4035.71
746.66	4110.69
746.849	4152.15
747.038	4134.52
747.227	4116.5
747.416	4098.09
747.604	4049.85
747.793	4035.32
747.982	4079.11
748.171	4099.84
748.359	4111.27
748.548	4079.69
748.737	4135.1
748.926	4117.66
749.114	4005.48
749.303	4121.92
749.491	4063.99
749.68	4017.11
749.869	4100.42
750.057	4020.01
750.246	4077.56
750.434	4065.93
750.623	4008.58
750.811	3980.88
751	4107.78
751.188	4057.99
751.377	4019.24
751.565	4022.14
751.754	4001.22
751.942	3973.32
752.131	4076.59
752.319	4006.06
752.507	3982.81
752.696	3990.76
752.884	4065.35
753.072	4027.18
753.261	4014.39
753.449	4033.58
753.637	3950.85
753.825	4087.44
754.014	4014.01
754.202	3995.79
754.39	4064.19
754.578	4072.71
754.766	3973.71
754.955	3933.8
755.143	4061.86
755.331	3977.58
755.519	4008
755.707	4002.96
755.895	4013.23
756.083	4006.64
756.271	3890.78
756.459	3965.18
756.647	3980.29
756.835	3893.11
757.023	3925.46
757.211	3955.49
757.399	3947.94
757.587	3912.29
757.775	3887.88
757.963	3927.98
758.151	3923.72
758.339	3872.76
758.526	3865.4
758.714	3902.8
758.902	3800.3
759.09	3767.95
759.278	3598.03
759.465	3347.71
759.653	3036.36
759.841	2753.29
760.028	2438.26
760.216	2139.7
760.404	2054.06
760.591	1765.18
760.779	1521.06
760.967	1340.1
761.154	1192.66
761.342	1226.18
761.529	1260.08
761.717	1307.94
761.905	1323.63
762.092	1451.12
762.28	1425.93
762.467	1471.85
762.655	1408.49
762.842	1428.45
763.029	1454.8
763.217	1477.47
763.404	1507.69
763.592	1537.72
763.779	1467.59
763.966	1541.6
764.154	1550.9
764.341	1631.88
764.528	1656.88
764.716	1740.77
764.903	1778.16
765.09	1865.35
765.277	1867.67
765.465	2037.59
765.652	2080.8
765.839	2157.91
766.026	2249.36
766.213	2356.5
766.4	2460.54
766.588	2598.88
766.775	2625.81
766.962	2678.31
767.149	2740.12
767.336	2916.43
767.523	2850.36
767.71	2967.97
767.897	3127.03
768.084	3140.59
768.271	3114.05
768.458	3212.47
768.645	3301.02
768.832	3314.39
769.019	3260.33
769.206	3331.44
769.392	3376.19
769.579	3463.38
769.766	3410.87
769.953	3395.76
770.14	3483.14
770.327	3463.76
770.513	3537.58
770.7	3579.43
770.887	3461.25
771.073	3513.56
771.26	3497.48
771.447	3443.81
771.634	3438.38
771.82	3604.23
772.007	3495.54
772.193	3518.59
772.38	3519.37
772.567	3495.54
772.753	3465.51
772.94	3491.86
773.126	3506
773.313	3555.99
773.499	3486.63
773.686	3537.58
773.872	3477.52
774.059	3476.16
774.245	3445.75
774.432	3484.69
774.618	3382.2
774.804	3432.38
774.991	3352.17
775.177	3455.43
775.363	3425.4
775.55	3462.41
775.736	3352.36
775.922	3423.47
776.109	3405.25
776.295	3429.86
776.481	3461.25
776.667	3434.9
776.853	3367.86
777.04	3324.07
777.226	3366.31
777.412	3447.1
777.598	3334.34
777.784	3347.13
777.97	3333.57
778.156	3367.47
778.342	3350.42
778.528	3303.73
778.715	3256.84
778.901	3308.77
779.087	3355.46
779.272	3257.42
779.458	3273.7
779.644	3249.87
779.83	3289.2
780.016	3333.37
780.202	3309.15
780.388	3260.52
780.574	3135.94
780.76	3173.53
780.946	3250.45
781.131	3269.05
781.317	3227.97
781.503	3195.23
781.689	3237.08
781.874	3309.54
782.06	3166.75
782.246	3174.69
782.432	3182.83
782.617	3184.96
782.803	3236.31
782.989	3149.12
783.174	3169.27
783.36	3117.34
783.545	3127.42
783.731	3126.64
783.916	3081.5
784.102	3183.02
784.288	3054.38
784.473	3116.76
784.659	3059.61
784.844	3142.34
785.029	3079.95
785.215	3044.88
785.4	3027.06
785.586	3156.09
785.771	3010.78
785.956	3075.5
786.142	3084.02
786.327	3018.34
786.512	3052.83
786.698	3018.34
786.883	2936.97
787.068	2980.75
787.254	3016.21
787.439	2970.29
787.624	2985.79
787.809	2927.67
787.994	2935.61
788.18	3033.26
788.365	2896.47
788.55	2934.25
788.735	2941.03
788.92	2938.13
789.105	2929.99
789.29	2950.53
789.475	2871.67
789.66	2927.47
789.845	2873.03
790.03	2827.69
790.215	2940.45
790.4	2892.21
790.585	2908.1
790.77	2872.84
790.955	2807.16
791.14	2886.98
791.325	2950.72
791.51	2774.22
791.695	2841.64
791.879	2805.02
792.064	2766.27
792.249	2866.64
792.434	2786.04
792.618	2846.87
792.803	2871.09
792.988	2812.39
793.173	2805.61
793.357	2848.81
793.542	2767.44
793.727	2814.71
793.911	2820.72
794.096	2793.4
794.281	2841.06
794.465	2925.53
794.65	2855.01
794.834	2824.4
795.019	2898.8
795.203	2882.52
795.388	2902.09
795.572	2866.05
795.757	2875.74
795.941	2853.65
796.126	2909.65
796.31	2793.79
796.494	2842.8
796.679	2818.78
796.863	2820.91
797.048	2924.18
797.232	2836.8
797.416	2879.42
797.601	2851.72
797.785	2931.35
797.969	2925.15
798.153	2845.9
798.338	2930.77
798.522	2923.21
798.706	2916.82
798.89	2925.34
799.074	3028.8
799.258	2949.75
799.443	2922.43
799.627	2918.17
799.811	2951.5
799.995	2908.29
800.179	2906.16
800.363	2884.46
800.547	2929.99
800.731	2933.28
800.915	2833.89
801.099	2855.59
801.283	2861.21
801.467	2845.13
801.651	2864.89
801.835	2936.58
802.019	2881.94
802.202	2885.82
802.386	2851.91
802.57	2823.04
802.754	2854.43
802.938	2843.58
803.121	2852.69
803.305	2920.69
803.489	2892.21
803.673	2868.19
803.856	2884.07
804.04	2877.49
804.224	2870.32
804.407	2876.9
804.591	2838.54
804.775	2879.62
804.958	2883.69
805.142	2982.69
805.326	2867.6
805.509	2875.74
805.693	2935.03
805.876	2936
806.06	2925.73
806.243	2905.97
806.427	2927.86
806.61	2921.47
806.794	2865.28
806.977	2958.08
807.16	2875.55
807.344	2912.94
807.527	2872.84
807.71	2848.23
807.894	2880.2
808.077	2938.9
808.26	2843.39
808.444	2791.07
808.627	2924.37
808.81	2846.29
808.993	2789.52
809.177	2802.51
809.36	2802.89
809.543	2817.81
809.726	2642.86
809.909	2751.94
810.092	2691.68
810.276	2752.52
810.459	2687.42
810.642	2719.58
810.825	2716.09
811.008	2719.97
811.191	2595.39
811.374	2615.35
811.557	2625.03
811.74	2695.36
811.923	2588.03
812.106	2576.01
812.289	2569.81
812.472	2526.61
812.654	2593.06
812.837	2539.59
813.02	2496.77
813.203	2487.67
813.386	2360.76
813.569	2372.39
813.751	2299.54
813.934	2333.06
814.117	2315.62
814.3	2263.89
814.482	2235.79
814.665	2219.33
814.848	2146.48
815.03	2104.24
815.213	2124.2
815.396	2076.34
815.578	2051.15
815.761	2025.58
815.943	2125.36
816.126	1968.81
816.309	1994.58
816.491	1897.12
816.674	1860.89
816.856	1898.48
817.039	1872.13
817.221	1957.77
817.403	1897.9
817.586	1927.54
817.768	1969.2
817.951	1873.1
818.133	1822.73
818.315	1859.73
818.498	1893.83
818.68	1979.27
818.862	1974.43
819.045	1990.9
819.227	1961.06
819.409	1888.41
819.591	1962.8
819.774	1907.2
819.956	1916.5
820.138	1957.96
820.32	1940.72
820.502	1963.19
820.684	2007.56
820.866	2061.62
821.048	2126.91
821.231	2146.09
821.413	2116.83
821.595	2094.17
821.777	2094.75
821.959	2075.57
822.141	2185.03
822.323	2019.96
822.505	1969.59
822.686	1930.26
822.868	1883.37
823.05	1749.88
823.232	1729.53
823.414	1619.87
823.596	1702.6
823.778	1683.42
823.96	1760.34
824.141	1736.31
824.323	1760.34
824.505	1829.7
824.687	1882.21
824.868	1860.12
825.05	1991.67
825.232	2024.22
825.413	2123.81
825.595	2061.42
825.777	1965.71
825.958	2017.25
826.14	2028.1
826.321	2086.42
826.503	1979.66
826.685	2011.44
826.866	2063.75
827.048	2062.78
827.229	2003.88
827.411	1984.5
827.592	1945.37
827.773	1941.11
827.955	1864.57
828.136	1868.64
828.318	1836.68
828.499	1891.12
828.68	1814.2
828.862	1870.77
829.043	1898.87
829.224	1822.34
829.406	1799.09
829.587	1799.67
829.768	1812.84
829.949	1843.84
830.131	1856.24
830.312	1882.4
830.493	1849.66
830.674	1862.06
830.855	1781.26
831.036	1817.69
831.218	1888.99
831.399	1932.39
831.58	1844.23
831.761	1851.21
831.942	1866.9
832.123	1843.46
832.304	1776.23
832.485	1783.2
832.666	1830.86
832.847	1859.73
833.028	1843.84
833.209	1835.71
833.389	1796.96
833.57	1734.96
833.751	1771.19
833.932	1827.76
834.113	1792.69
834.294	1754.53
834.475	1822.14
834.655	1830.67
834.836	1864.38
835.017	1863.02
835.198	1797.93
835.378	1813.62
835.559	1897.51
835.74	1821.95
835.92	1831.06
836.101	1808.97
836.281	1850.24
836.462	1847.33
836.643	1877.75
836.823	1888.6
837.004	1872.71
837.184	1957.57
837.365	1901.19
837.545	1888.41
837.726	1830.09
837.906	1895.57
838.087	1858.57
838.267	1872.13
838.448	1831.25
838.628	1880.66
838.808	1878.14
838.989	1898.29
839.169	1799.48
839.349	1867.09
839.53	1871.36
839.71	1858.96
839.89	1825.63
840.07	1901.77
840.251	1807.81
840.431	1892.28
840.611	1840.16
840.791	1800.83
840.971	1862.25
841.151	1822.53
841.332	1795.99
841.512	1890.54
841.692	1788.04
841.872	1857.6
842.052	1796.18
842.232	1852.95
842.412	1767.12
842.592	1803.54
842.772	1851.4
842.952	1829.12
843.132	1805.29
843.312	1787.46
843.492	1749.49
843.672	1807.61
843.851	1732.63
844.031	1787.46
844.211	1800.06
844.391	1750.07
844.571	1791.53
844.751	1816.72
844.93	1810.33
845.11	1726.24
845.29	1787.08
845.47	1792.31
845.649	1795.02
845.829	1802.38
846.009	1735.54
846.188	1794.83
846.368	1767.7
846.547	1733.02
846.727	1794.63
846.907	1692.33
847.086	1802.58
847.266	1803.16
847.445	1754.91
847.625	1703.57
847.804	1706.48
847.984	1760.15
848.163	1729.34
848.343	1674.51
848.522	1711.9
848.701	1729.53
848.881	1670.83
849.06	1729.73
849.239	1683.23
849.419	1718.1
849.598	1647.19
849.777	1626.27
849.957	1626.27
850.136	1553.42
850.315	1544.89
850.494	1554.58
850.674	1587.52
850.853	1625.49
851.032	1587.13
851.211	1653.97
851.39	1624.33
851.569	1555.35
851.748	1577.83
851.927	1641.77
852.107	1597.2
852.286	1526.29
852.465	1559.23
852.644	1630.92
852.823	1643.32
853.002	1565.62
853.181	1586.74
853.359	1627.23
853.538	1531.14
853.717	1622.97
853.896	1484.64
854.075	1428.84
854.254	1438.52
854.433	1349.4
854.611	1388.54
854.79	1322.28
854.969	1374.59
855.148	1405.01
855.327	1368
855.505	1449.37
855.684	1414.69
855.863	1444.34
856.041	1409.08
856.22	1435.81
856.399	1435.04
856.577	1507.89
856.756	1545.86
856.934	1642.54
857.113	1591.59
857.291	1528.23
857.47	1503.24
857.648	1494.52
857.827	1536.17
858.005	1532.3
858.184	1482.31
858.362	1593.52
858.541	1502.07
858.719	1509.44
858.898	1476.5
859.076	1499.17
859.254	1565.24
859.433	1461.39
859.611	1488.12
859.789	1430
859.967	1555.55
860.146	1561.94
860.324	1449.76
860.502	1477.27
860.68	1426.12
860.859	1467.01
861.037	1462.16
861.215	1463.91
861.393	1472.82
861.571	1454.22
861.749	1434.07
861.927	1476.5
862.105	1467.01
862.283	1441.24
862.461	1411.4
862.639	1420.7
862.817	1429.22
862.995	1434.46
863.173	1391.25
863.351	1415.66
863.529	1430.97
863.707	1448.21
863.885	1412.56
864.063	1363.16
864.241	1373.43
864.418	1473.4
864.596	1371.29
864.774	1358.12
864.952	1390.48
865.129	1379.82
865.307	1360.64
865.485	1303.48
865.663	1373.04
865.84	1300
866.018	1324.6
866.196	1163.98
866.373	1222.69
866.551	1222.5
866.728	1122.33
866.906	1166.7
867.084	1226.57
867.261	1226.57
867.439	1261.44
867.616	1275.78
867.794	1273.84
867.971	1281.59
868.149	1263.76
868.326	1341.65
868.503	1302.13
868.681	1313.17
868.858	1271.51
869.035	1276.16
869.213	1320.53
869.39	1238.77
869.567	1369.74
869.745	1256.6
869.922	1293.41
870.099	1290.31
870.276	1309.3
870.454	1302.32
870.631	1318.98
870.808	1267.45
870.985	1303.87
871.162	1339.71
871.339	1289.53
871.517	1247.88
871.694	1233.93
871.871	1255.63
872.048	1257.95
872.225	1257.56
872.402	1268.41
872.579	1227.92
872.756	1275.78
872.933	1192.47
873.11	1238.58
873.287	1253.88
873.463	1251.17
873.64	1195.95
873.817	1266.48
873.994	1227.34
874.171	1207.19
874.348	1214.55
874.524	1136.67
874.701	1215.33
874.878	1163.02
875.055	1219.78
875.231	1213
875.408	1228.7
875.585	1185.88
875.762	1181.81
875.938	1169.6
876.115	1159.92
876.291	1113.42
876.468	1168.63
876.645	1115.74
876.821	1134.34
876.998	1144.61
877.174	1160.88
877.351	1138.8
877.527	1133.18
877.704	1122.52
877.88	1167.86
878.057	1140.15
878.233	1186.27
878.409	1169.22
878.586	1166.89
878.762	1133.57
878.938	1132.6
879.115	1059.56
879.291	1154.3
879.467	1065.17
879.644	1109.35
879.82	1139.19
879.996	1081.25
880.172	1049.67
880.349	1105.09
880.525	1127.37
880.701	1062.27
880.877	1049.87
881.053	1110.9
881.229	1073.7
881.405	1128.34
881.581	1042.89
881.757	1090.94
881.933	1109.93
882.109	1128.72
882.285	1069.82
882.461	1036.31
882.637	1108.38
882.813	1027.97
882.989	1056.84
883.165	1121.36
883.341	1027.78
883.517	1115.55
883.693	1061.11
883.869	1112.84
884.044	1044.06
884.22	1123.1
884.396	1121.55
884.572	1102.37
884.747	1113.61
884.923	1123.3
885.099	1120.97
885.275	1164.37
885.45	1083.39
885.626	1062.85
885.801	1061.69
885.977	1075.64
886.153	1015.19
886.328	1094.43
886.504	1040.76
886.679	1084.74
886.855	1044.83
887.03	1083.39
887.206	1066.72
887.381	1069.05
887.557	1084.16
887.732	1095.4
887.908	1082.61
888.083	1118.07
888.258	1088.42
888.434	1091.52
888.609	1062.85
888.784	1117.87
888.96	1062.27
889.135	1051.42
889.31	1078.93
889.485	1047.93
889.661	1054.52
889.836	1117.29
890.011	1091.72
890.186	1064.01
890.361	1031.27
890.537	1116.32
890.712	1078.54
890.887	1120.78
891.062	1053.94
891.237	1133.76
891.412	1027.78
891.587	1068.86
891.762	1082.03
891.937	1136.47
892.112	1082.8
892.287	1051.03
892.462	1063.62
892.637	1004.14
892.812	1017.9
892.987	1017.9
893.161	985.74
893.336	994.46
893.511	1013.83
893.686	958.42
893.861	989.81
894.035	971.79
894.21	1030.88
894.385	966.36
894.56	978.38
894.734	924.32
894.909	930.13
895.084	914.83
895.258	914.24
895.433	940.4
895.608	925.29
895.782	837.71
895.957	882.86
896.131	879.37
896.306	844.5
896.48	828.61
896.655	852.83
896.829	778.62
897.004	779.2
897.178	786.95
897.353	747.82
897.527	804.39
897.701	754.21
897.876	739.29
898.05	821.25
898.224	793.15
898.399	837.91
898.573	827.45
898.747	667.99
898.921	745.68
899.096	625.17
899.27	628.08
899.444	633.31
899.618	643.97
899.792	674.97
899.967	673.42
900.141	738.9
900.315	658.11
900.489	666.44
900.663	668.19
900.837	708.68
901.011	621.3
901.185	762.15
901.359	730.18
901.533	700.93
901.707	690.66
901.881	701.32
902.055	635.83
902.229	697.83
902.403	725.92
902.576	687.56
902.75	692.21
902.924	780.56
903.098	729.02
903.272	770.48
903.446	792.38
903.619	770.48
903.793	812.53
903.967	794.12
904.14	836.94
904.314	824.73
904.488	835.39
904.661	846.24
904.835	807.49
905.009	865.61
905.182	905.14
905.356	837.33
905.529	798.58
905.703	769.52
905.876	798.38
906.05	781.92
906.223	762.15
906.397	718.75
906.57	681.94
906.744	658.11
906.917	721.27
907.09	708.49
907.264	692.02
907.437	652.3
907.61	624.21
907.784	635.44
907.957	665.67
908.13	606.38
908.304	662.18
908.477	621.3
908.65	626.92
908.823	584.87
908.996	690.27
909.17	601.92
909.343	611.61
909.516	623.62
909.689	622.27
909.862	608.9
910.035	624.79
910.208	573.06
910.381	565.5
910.554	663.34
910.727	590.88
910.9	583.13
911.073	554.07
911.246	660.44
911.419	647.84
911.592	658.11
911.765	602.51
911.938	575.19
912.11	597.27
912.283	600.96
912.456	629.44
912.629	591.66
912.802	579.06
912.974	586.23
913.147	505.83
913.32	474.83
913.493	516.87
913.665	515.13
913.838	541.48
914.01	496.91
914.183	542.25
914.356	514.54
914.528	591.46
914.701	647.45
914.873	583.32
915.046	548.26
915.218	496.91
915.391	438.98
915.563	482.38
915.736	483.54
915.908	550.39
916.081	514.74
916.253	490.71
916.425	549.42
916.598	538.57
916.77	547.87
916.942	496.33
917.115	440.73
917.287	515.51
917.459	474.05
917.632	437.24
917.804	426.2
917.976	481.8
918.148	502.53
918.32	493.43
918.493	539.73
918.665	550.97
918.837	526.94
919.009	590.49
919.181	580.81
919.353	519.78
919.525	546.71
919.697	520.74
919.869	512.99
920.041	564.92
920.213	633.5
920.385	580.03
920.557	534.31
920.729	575.19
920.901	549.42
921.073	531.98
921.244	509.12
921.416	552.71
921.588	561.43
921.76	514.74
921.932	580.81
922.103	504.47
922.275	513.38
922.447	529.85
922.619	466.88
922.79	517.45
922.962	500.4
923.134	553.29
923.305	474.05
923.477	465.91
923.648	464.17
923.82	493.43
923.991	420.58
924.163	406.63
924.335	488
924.506	447.12
924.677	517.84
924.849	446.54
925.02	457.2
925.192	500.21
925.363	496.14
925.535	483.54
925.706	466.88
925.877	495.75
926.049	444.02
926.22	457.58
926.391	473.66
926.562	486.26
926.734	432.59
926.905	498.85
927.076	422.9
927.247	437.24
927.419	386.86
927.59	403.14
927.761	413.99
927.932	397.91
928.103	389.96
928.274	331.65
928.445	357.8
928.616	385.7
928.787	345.02
928.958	402.17
929.129	371.36
929.3	360.52
929.471	326.03
929.642	261.7
929.813	251.63
929.984	300.07
930.155	235.74
930.326	303.94
930.496	236.71
930.667	194.67
930.838	221.21
931.009	189.24
931.18	208.23
931.35	222.95
931.521	219.08
931.692	142.55
931.863	128.79
932.033	181.69
932.204	163.86
932.374	202.03
932.545	122.79
932.716	193.31
932.886	190.02
933.057	86.17
933.227	134.41
933.398	178.39
933.568	81.91
933.739	35.02
933.909	51.68
934.08	159.79
934.25	48.78
934.421	54.39
934.591	97.99
934.761	89.85
934.932	30.37
935.102	104.58
935.272	76.87
935.443	82.1
935.613	79.97
935.783	94.89
935.953	48.97
936.123	229.15
936.294	45.09
936.464	40.06
936.634	71.44
936.804	49.55
936.974	17.97
937.144	100.51
937.314	86.94
937.484	58.46
937.655	14.1
937.825	119.49
937.995	61.95
938.165	124.53
938.334	81.33
938.504	105.54
938.674	88.49
938.844	91.21
939.014	167.35
939.184	127.44
939.354	176.26
939.524	154.17
939.694	149.91
939.863	117.94
940.033	190.6
940.203	197.38
940.373	175.29
940.542	172.39
940.712	127.24
940.882	171.42
941.051	161.54
941.221	168.12
941.391	169.48
941.56	128.79
941.73	112.91
941.899	247.75
942.069	132.09
942.238	159.99
942.408	108.26
942.577	153.79
942.747	154.56
942.916	79.39
943.086	94.89
943.255	149.72
943.425	110.97
943.594	91.01
943.763	23.78
943.933	61.18
944.102	43.93
944.271	85.78
944.441	118.33
944.61	97.79
944.779	100.51
944.948	204.55
945.117	48.58
945.287	91.4
945.456	22.81
945.625	63.31
945.794	124.72
945.963	63.89
946.132	115.23
946.301	79.19
946.47	119.11
946.639	42.19
946.808	74.16
946.977	130.54
947.146	166.57
947.315	75.71
947.484	140.81
947.653	99.54
947.822	85.59
947.991	52.46
948.16	171.22
948.329	157.08
948.498	95.86
948.666	84.81
948.835	138.87
949.004	99.54
949.173	50.13
949.341	90.04
949.51	121.82
949.679	143.52
949.847	144.29
950.016	189.44
950.185	165.41
950.353	68.15
950.522	90.43
950.69	146.04
950.859	76.09
951.028	134.61
951.196	117.36
951.365	78.03
951.533	79
951.701	135.77
951.87	121.82
952.038	70.48
952.207	84.23
952.375	171.03
952.543	59.43
952.712	86.36
952.88	70.09
953.048	165.61
953.217	116.2
953.385	91.59
953.553	157.47
953.721	69.7
953.89	99.54
954.058	49.16
954.226	53.04
954.394	107.48
954.562	61.18
954.73	84.23
954.898	92.37
955.067	121.82
955.235	75.9
955.403	146.04
955.571	163.67
955.739	113.29
955.907	61.37
956.075	64.47
956.243	52.65
956.41	122.01
956.578	48.39
956.746	56.72
956.914	76.09
957.082	125.89
957.25	128.79
957.418	80.36
957.585	99.93
957.753	134.02
957.921	70.67
958.089	103.03
958.256	128.79
958.424	85.98
958.592	109.03
958.759	90.63
958.927	120.07
959.095	75.51
959.262	66.02
959.43	117.36
959.597	64.28
959.765	117.94
959.932	63.5
960.1	125.89
960.267	117.75
960.435	86.75
960.602	141
960.77	78.81
960.937	54.01
961.104	85.78
961.272	41.61
961.439	90.24
961.606	116.39
961.774	146.23
961.941	74.74
962.108	126.27
962.275	104.96
962.443	158.44
962.61	128.79
962.777	176.26
962.944	124.34
963.111	124.92
963.278	125.69
963.446	111.74
963.613	90.04
963.78	114.07
963.947	151.07
964.114	110.19
964.281	173.74
964.448	119.69
964.615	94.5
964.782	106.9
964.949	133.44
965.116	134.02
965.282	159.79
965.449	117.94
965.616	57.49
965.783	134.02
965.95	107.29
966.117	95.86
966.283	110.39
966.45	109.81
966.617	143.13
966.784	159.41
966.95	163.86
967.117	134.8
967.284	81.91
967.45	85.39
967.617	194.09
967.784	131.51
967.95	176.84
968.117	125.31
968.283	149.91
968.45	240.59
968.616	136.74
968.783	168.32
968.949	132.47
969.116	155.92
969.282	118.52
969.449	149.52
969.615	147.2
969.781	36.57
969.948	110.97
970.114	77.06
970.28	168.32
970.447	106.9
970.613	142.94
970.779	94.5
970.945	160.96
971.112	138.67
971.278	131.89
971.444	128.02
971.61	175.68
971.776	100.7
971.942	149.52
972.108	136.74
972.275	118.91
972.441	128.21
972.607	212.88
972.773	111.55
972.939	141
973.105	126.47
973.271	97.6
973.437	110
973.602	89.85
973.768	119.11
973.934	114.07
974.1	131.31
974.266	44.71
974.432	116.97
974.598	88.69
974.763	158.63
974.929	65.05
975.095	184.21
975.261	62.34
975.426	85.98
975.592	103.03
975.758	175.87
975.923	61.76
976.089	83.07
976.255	139.45
976.42	115.23
976.586	139.64
976.751	123.76
976.917	218.3
977.082	149.33
977.248	60.79
977.413	33.28
977.579	97.21
977.744	110.19
977.91	53.23
978.075	97.6
978.24	142.36
978.406	92.37
978.571	76.87
978.736	61.18
978.902	127.05
979.067	80.74
979.232	43.74
979.397	115.23
979.563	177.42
979.728	60.79
979.893	96.24
980.058	69.12
980.223	139.64
980.388	111.55
980.554	127.24
980.719	31.92
980.884	115.42
981.049	158.44
981.214	95.28
981.379	120.07
981.544	74.74
981.709	48.58
981.874	84.62
982.039	92.37
982.204	137.9
982.368	113.49
982.533	87.91
982.698	124.53
982.863	152.82
983.028	77.45
983.193	125.11
983.357	108.64
983.522	115.23
983.687	81.71
983.852	86.75
984.016	65.05
984.181	91.59
984.346	119.11
984.51	116.39
984.675	128.6
984.839	127.05
985.004	115.62
985.168	140.42
985.333	101.48
985.498	81.71
985.662	148.75
985.827	123.95
985.991	62.73
986.155	95.28
986.32	107.68
986.484	159.21
986.649	128.02
986.813	68.54
986.977	124.53
987.142	115.42
987.306	62.53
987.47	54.98
987.634	97.6
987.799	93.73
987.963	106.9
988.127	115.42
988.291	169.29
988.455	99.54
988.62	86.56
988.784	79
988.948	121.43
989.112	65.44
989.276	97.21
989.44	106.32
989.604	80.36
989.768	84.62
989.932	165.61
990.096	52.84
990.26	31.73
990.424	55.94
990.588	70.48
990.752	182.46
990.915	120.07
991.079	81.71
991.243	54.39
991.407	113.87
991.571	72.99
991.734	119.11
991.898	102.83
992.062	176.07
992.226	82.88
992.389	69.51
992.553	26.3
992.717	39.48
992.88	54.78
993.044	77.64
993.207	67.76
993.371	114.26
993.535	113.29
993.698	90.04
993.862	116.59
994.025	146.23
994.189	78.61
994.352	107.48
994.515	81.33
994.679	113.29
994.842	78.23
995.006	105.16
995.169	28.63
995.332	51.68
995.496	111.16
995.659	19.91
995.822	61.18
995.985	75.71
996.149	109.22
996.312	79.58
996.475	147.39
996.638	65.05
996.801	137.32
996.964	137.51
997.128	57.88
997.291	53.04
997.454	93.92
997.617	34.24
997.78	118.14
997.943	24.75
998.106	102.64
998.269	63.5
998.432	72.8
998.595	54.98
998.758	6.15
998.92	43.74
999.083	40.25
999.246	44.13
999.409	17.39
999.572	-9.35
999.735	45.68
999.897	92.56
1000.06	50.91
1000.223	78.81
1000.386	108.64
1000.548	84.81
1000.711	76.68
1000.874	77.45
1001.036	5.38
1001.199	109.81
1001.361	63.31
1001.524	44.13
1001.687	101.09
1001.849	63.69
1002.012	54.01
1002.174	65.63
1002.337	88.88
1002.499	48.97
1002.661	97.02
1002.824	35.02
1002.986	31.53
1003.149	69.51
1003.311	21.07
1003.473	97.02
1003.636	39.86
1003.798	73.58
1003.96	60.4
1004.123	70.09
1004.285	30.56
1004.447	65.44
1004.609	36.96
1004.771	101.86
1004.933	-10.51
1005.096	24.17
1005.258	27.08
1005.42	48.58
1005.582	87.53
1005.744	52.65
1005.906	34.24
1006.068	55.56
1006.23	24.56
1006.392	-9.93
1006.554	41.99
1006.716	88.88
1006.878	50.13
1007.04	-11.87
1007.202	33.66
1007.363	43.35
1007.525	70.86
1007.687	63.31
1007.849	94.69
1008.011	-4.89
1008.172	22.43
1008.334	35.79
1008.496	67.96
1008.658	7.12
1008.819	14.87
1008.981	16.61
1009.143	22.81
1009.304	33.47
1009.466	36.18
1009.627	98.38
1009.789	163.86
1009.95	47.03
1010.112	50.52
1010.273	66.41
1010.435	40.44
1010.596	56.33
1010.758	9.25
1010.919	49.94
1011.081	20.1
1011.242	62.73
1011.403	74.74
1011.565	30.56
1011.726	69.7
1011.887	-22.72
1012.049	42.38
1012.21	85.98
1012.371	125.69
1012.532	-40.74
1012.693	54.98
1012.855	0.15
1013.016	56.91
1013.177	79.58
1013.338	26.69
1013.499	95.47
1013.66	47.61
1013.821	53.43
1013.982	45.48
1014.143	43.16
1014.304	24.36
1014.465	49.94
1014.626	71.64
1014.787	42.77
1014.948	125.31
1015.109	-27.75
1015.27	74.54
1015.431	14.29
1015.592	1.5
1015.752	91.21
1015.913	46.26
1016.074	35.6
1016.235	31.53
1016.395	29.59
1016.556	30.37
1016.717	7.31
1016.877	72.41
1017.038	10.03
1017.199	65.83
1017.359	60.21
1017.52	52.84
1017.681	23.2
1017.841	35.41
1018.002	42.96
1018.162	23.59
1018.323	76.29
1018.483	23.2
1018.644	41.41
1018.804	-11.09
1018.964	6.15
1019.125	11.96
1019.285	34.24
1019.446	5.76
1019.606	-15.74
1019.766	-18.45
1019.926	19.91
1020.087	46.84
1020.247	-23.3
1020.407	49.94
1020.567	67.76
1020.728	23.39
1020.888	-8.57
1021.048	13.9
1021.208	-32.02
1021.368	-4.12
1021.528	76.29
1021.688	57.11
1021.848	63.11
1022.008	16.03
1022.168	21.07
1022.328	63.5
1022.488	41.99
1022.648	-3.34
1022.808	42.38
1022.968	44.71
1023.128	32.11
1023.288	9.45
1023.448	1.5
1023.608	42.96
1023.767	41.8
1023.927	14.29
1024.087	-20.78
1024.247	-21.75
1024.406	20.68
1024.566	-6.83
1024.726	-17.29
1024.885	20.88
1025.045	29.98
1025.205	36.57
1025.364	14.68
1025.524	39.86
1025.683	28.04
1025.843	54.39
1026.003	19.52
1026.162	81.91
1026.321	53.04
1026.481	27.27
1026.64	-1.6
1026.8	49.74
1026.959	21.26
1027.119	31.92
1027.278	0.34
1027.437	-4.5
1027.597	13.13
1027.756	58.27
1027.915	47.61
1028.074	33.47
1028.234	-6.64
1028.393	30.18
1028.552	2.86
1028.711	-70.38
1028.87	64.86
1029.03	-32.21
1029.189	16.42
1029.348	-58.17
1029.507	22.81
1029.666	-4.5
1029.825	-16.71
1029.984	1.7
1030.143	30.56
1030.302	-10.9
1030.461	-33.37
1030.62	20.88
1030.779	39.86
1030.938	14.29
1031.097	-14.39
1031.255	41.03
1031.414	75.13
1031.573	53.43
1031.732	-62.44
1031.891	14.87
1032.049	52.07
1032.208	31.34
1032.367	-3.54
1032.525	9.25
1032.684	-18.45
1032.843	40.25
1033.001	-46.74
1033.16	174.52
1033.319	61.76
1033.477	44.51
1033.636	-8.96
1033.794	-18.07
1033.953	37.54
1034.111	47.03
1034.27	4.02
1034.428	27.66
1034.587	-2.95
1034.745	13.32
1034.903	24.56
1035.062	42.77
1035.22	-40.93
1035.378	46.84
1035.537	-22.91
1035.695	28.43
1035.853	3.83
1036.011	49.55
1036.17	54.98
1036.328	-46.35
1036.486	12.35
1036.644	34.24
1036.802	-72.51
1036.96	-14.39
1037.119	3.05
1037.277	-32.79
1037.435	-6.05
1037.593	-31.05
1037.751	11.77
1037.909	25.14
1038.067	25.14
