Data from gum_old_FLMT105791__97__15-44-25-256.txt Node

Date: Mon Mar 20 15:44:25 GMT 2023
User: antho
Spectrometer: FLMT10579
Trigger mode: 0
Integration Time (sec): 1.000000E-1
Scans to average: 10
Electric dark correction enabled: true
Nonlinearity correction enabled: false
Boxcar width: 0
XAxis mode: Wavelengths
Number of Pixels in Spectrum: 3648
>>>>>Begin Spectral Data<<<<<
345.248	-172.13
345.464	-172.13
345.681	-172.13
345.898	-165.35
346.114	-174.84
346.331	-53.94
346.548	41.57
346.764	19.68
346.981	0.89
347.197	2.24
347.414	20.65
347.631	-14.22
347.847	58.24
348.064	-4.73
348.28	14.45
348.497	-52.78
348.713	-32.05
348.93	46.22
349.146	27.43
349.363	30.34
349.579	40.22
349.796	31.31
350.012	11.54
350.229	54.17
350.445	18.13
350.661	5.34
350.878	3.6
351.094	35.76
351.311	48.94
351.527	26.46
351.743	9.61
351.96	52.23
352.176	74.32
352.392	56.69
352.609	64.24
352.825	-10.54
353.041	23.36
353.257	34.02
353.474	29.76
353.69	57.85
353.906	35.76
354.122	13.68
354.339	87.49
354.555	27.24
354.771	27.43
354.987	83.42
355.203	80.32
355.42	29.56
355.636	21.62
355.852	1.86
356.068	53.39
356.284	-10.35
356.5	92.92
356.716	36.73
356.932	21.23
357.148	46.42
357.364	24.91
357.58	100.47
357.796	64.44
358.012	62.89
358.228	57.85
358.444	-15.39
358.66	75.48
358.876	44.48
359.092	-3.57
359.308	51.26
359.524	70.06
359.74	6.89
359.956	4.38
360.172	39.44
360.388	84.78
360.604	20.46
360.819	138.64
361.035	57.66
361.251	82.65
361.467	2.44
361.683	77.42
361.898	8.25
362.114	63.47
362.33	74.71
362.546	86.33
362.762	47
362.977	51.65
363.193	11.74
363.409	85.94
363.624	22.39
363.84	18.91
364.056	42.93
364.271	57.07
364.487	83.04
364.703	38.47
364.918	0.89
365.134	38.86
365.35	55.33
365.565	139.61
365.781	69.47
365.996	87.88
366.212	123.53
366.427	47.77
366.643	38.47
366.858	57.66
367.074	33.83
367.289	125.47
367.505	160.73
367.72	2.24
367.936	49.91
368.151	96.41
368.367	82.84
368.582	75.48
368.798	24.14
369.013	77.42
369.228	56.49
369.444	97.96
369.659	124.5
369.874	69.86
370.09	118.49
370.305	10.58
370.52	40.41
370.736	126.05
370.951	75.87
371.166	125.27
371.381	155.3
371.597	103.57
371.812	41.96
372.027	60.37
372.242	69.86
372.458	135.15
372.673	21.81
372.888	57.07
373.103	77.22
373.318	157.82
373.533	76.64
373.749	79.16
373.964	16.78
374.179	133.6
374.394	34.41
374.609	128.57
374.824	35.38
375.039	92.72
375.254	14.84
375.469	148.33
375.684	77.81
375.899	109.77
376.114	56.49
376.329	78.19
376.544	113.26
376.759	106.29
376.974	48.55
377.189	81.29
377.404	73.16
377.619	129.15
377.834	43.32
378.049	48.55
378.264	70.06
378.478	101.64
378.693	62.89
378.908	124.11
379.123	99.51
379.338	124.69
379.553	95.24
379.767	99.12
379.982	95.63
380.197	133.6
380.412	94.86
380.626	104.35
380.841	153.95
381.056	121.01
381.271	161.31
381.485	71.22
381.7	56.88
381.915	119.27
382.129	80.52
382.344	84.2
382.559	95.44
382.773	127.4
382.988	30.53
383.202	93.31
383.417	77.61
383.632	190.18
383.846	67.73
384.061	74.32
384.275	50.29
384.49	102.8
384.704	129.54
384.919	86.14
385.133	100.09
385.348	139.42
385.562	58.82
385.777	139.03
385.991	98.15
386.206	99.12
386.42	90.21
386.634	140.19
386.849	117.91
387.063	115.01
387.277	75.87
387.492	97.37
387.706	51.46
387.92	77.03
388.135	125.47
388.349	117.14
388.563	154.72
388.778	133.99
388.992	103.57
389.206	152.59
389.42	183.2
389.635	115.39
389.849	179.14
390.063	158.02
390.277	140.19
390.491	194.05
390.706	121.59
390.92	179.14
391.134	144.65
391.348	177.78
391.562	113.46
391.776	156.66
391.99	138.84
392.205	200.84
392.419	142.32
392.633	149.3
392.847	196.38
393.061	102.22
393.275	182.82
393.489	112.49
393.703	104.74
393.917	127.4
394.131	74.12
394.345	130.5
394.559	159.95
394.773	129.54
394.986	155.89
395.2	152.59
395.414	213.62
395.628	142.13
395.842	189.4
396.056	172.94
396.27	131.67
396.484	183.4
396.697	173.9
396.911	171.97
397.125	166.35
397.339	187.27
397.553	144.45
397.766	191.34
397.98	198.32
398.194	208.39
398.408	192.89
398.621	220.21
398.835	258.57
399.049	233.19
399.262	283.37
399.476	268.26
399.69	272.33
399.903	320.96
400.117	228.35
400.331	259.93
400.544	247.72
400.758	369.01
400.971	274.85
401.185	275.04
401.398	233.97
401.612	313.21
401.826	281.05
402.039	310.69
402.253	240.75
402.466	294.42
402.68	275.43
402.893	304.68
403.106	284.15
403.32	278.14
403.533	289.38
403.747	269.03
403.96	307.4
404.174	324.06
404.387	251.21
404.6	318.63
404.814	360.1
405.027	289.18
405.24	305.46
405.454	298.48
405.667	337.81
405.88	264.97
406.094	304.88
406.307	321.73
406.52	344.4
406.733	273.68
406.947	264
407.16	358.35
407.373	341.88
407.586	256.25
407.799	287.05
408.012	341.88
408.226	291.7
408.439	377.15
408.652	270.78
408.865	369.2
409.078	364.36
409.291	372.5
409.504	300.42
409.717	377.53
409.93	395.74
410.143	326.77
410.357	272.72
410.57	265.35
410.783	308.36
410.996	321.54
411.209	326.38
411.421	371.91
411.634	356.22
411.847	327.16
412.06	351.57
412.273	361.65
412.486	389.93
412.699	455.42
412.912	368.81
413.125	390.51
413.338	401.75
413.55	412.79
413.763	369.4
413.976	352.54
414.189	347.5
414.402	373.66
414.615	440.69
414.827	365.13
415.04	394.39
415.253	398.65
415.466	439.73
415.678	452.71
415.891	386.25
416.104	375.98
416.316	389.35
416.529	381.8
416.742	423.45
416.954	453.48
417.167	410.47
417.38	372.5
417.592	446.31
417.805	390.9
418.017	350.6
418.23	422.29
418.442	360.29
418.655	384.9
418.868	403.3
419.08	437.21
419.293	437.79
419.505	425.39
419.718	395.16
419.93	452.13
420.142	402.91
420.355	451.74
420.567	447.28
420.78	398.65
420.992	404.46
421.205	456.39
421.417	366.88
421.629	435.46
421.842	398.84
422.054	395.55
422.266	485.84
422.479	477.7
422.691	399.04
422.903	456.58
423.115	370.56
423.328	389.74
423.54	422.09
423.752	408.73
423.964	438.56
424.177	440.69
424.389	405.63
424.601	558.88
424.813	463.56
425.025	479.06
425.238	487.77
425.45	436.82
425.662	425.19
425.874	772.97
426.086	437.98
426.298	456.19
426.51	457.16
426.722	448.06
426.934	425.58
427.146	484.29
427.358	431.78
427.57	489.71
427.782	438.56
427.994	430.23
428.206	385.67
428.418	404.08
428.63	485.26
428.842	503.47
429.054	444.57
429.266	479.64
429.478	448.44
429.69	428.1
429.902	391.29
430.114	465.49
430.325	418.99
430.537	366.3
430.749	372.88
430.961	336.07
431.173	351.18
431.384	391.09
431.596	295.38
431.808	416.28
432.02	449.61
432.231	495.91
432.443	566.24
432.655	528.66
432.867	478.86
433.078	520.52
433.29	579.8
433.502	531.37
433.713	578.45
433.925	558.69
434.136	575.15
434.348	476.92
434.56	442.63
434.771	585.23
434.983	468.79
435.194	469.95
435.406	531.76
435.617	599.18
435.829	624.75
436.04	582.13
436.252	598.02
436.463	630.95
436.675	613.9
436.886	599.76
437.098	622.04
437.309	649.94
437.521	623.59
437.732	594.92
437.943	594.53
438.155	579.61
438.366	542.41
438.578	654.01
438.789	594.14
439	583.68
439.211	539.7
439.423	567.4
439.634	573.22
439.845	586.97
440.057	587.17
440.268	662.92
440.479	572.25
440.69	624.75
440.902	596.08
441.113	565.08
441.324	575.93
441.535	638.51
441.746	690.63
441.957	606.93
442.168	616.81
442.38	653.43
442.591	683.65
442.802	618.36
443.013	624.56
443.224	696.25
443.435	650.52
443.646	671.83
443.857	666.6
444.068	625.53
444.279	619.72
444.49	739.84
444.701	658.47
444.912	793.9
445.123	717.37
445.334	714.65
445.545	693.92
445.756	689.27
445.967	654.98
446.178	657.5
446.388	701.87
446.599	688.3
446.81	722.4
447.021	653.43
447.232	699.54
447.443	754.56
447.653	698.18
447.864	736.93
448.075	727.05
448.286	763.86
448.496	736.93
448.707	766
448.918	666.41
449.129	770.84
449.339	705.74
449.55	750.88
449.761	720.85
449.971	756.5
450.182	727.44
450.393	765.61
450.603	732.09
450.814	747.59
451.024	786.92
451.235	817.34
451.446	862.48
451.656	848.73
451.867	749.14
452.077	797.58
452.288	813.66
452.498	814.82
452.709	763.86
452.919	801.65
453.13	747.2
453.34	759.8
453.55	714.07
453.761	755.15
453.971	725.7
454.182	785.56
454.392	753.01
454.602	830.9
454.813	812.11
455.023	809.01
455.233	715.04
455.444	794.48
455.654	703.8
455.864	753.4
456.075	781.11
456.285	760.18
456.495	776.65
456.705	816.76
456.916	849.31
457.126	865.58
457.336	814.24
457.546	748.75
457.756	787.7
457.967	855.51
458.177	788.28
458.387	784.98
458.597	766.96
458.807	806.68
459.017	768.71
459.227	803.97
459.437	780.72
459.647	833.42
459.857	843.69
460.068	807.07
460.278	837.29
460.488	847.95
460.698	880.69
460.908	844.66
461.117	803.39
461.327	808.81
461.537	850.28
461.747	806.68
461.957	859.77
462.167	961.29
462.377	891.74
462.587	857.83
462.797	902.59
463.007	846.4
463.216	916.73
463.426	934.17
463.636	919.64
463.846	819.47
464.056	863.84
464.265	890.19
464.475	816.76
464.685	871.2
464.895	885.15
465.104	856.48
465.314	893.29
465.524	852.99
465.733	836.33
465.943	938.82
466.153	955.48
466.362	936.49
466.572	906.27
466.782	893.87
466.991	912.08
467.201	936.69
467.41	829.93
467.62	906.46
467.829	883.21
468.039	931.07
468.249	947.15
468.458	923.51
468.668	972.14
468.877	959.16
469.086	977.37
469.296	977.37
469.505	948.31
469.715	1015.15
469.924	984.35
470.134	1023.87
470.343	999.85
470.552	960.52
470.762	974.47
470.971	929.52
471.18	993.65
471.39	976.21
471.599	919.64
471.808	1007.4
472.018	976.6
472.227	1034.92
472.436	1100.98
472.645	1036.27
472.855	1011.09
473.064	1106.8
473.273	1070.76
473.482	1062.62
473.691	1097.5
473.901	1093.04
474.11	1043.25
474.319	1169.38
474.528	1050.22
474.737	1152.52
474.946	1136.83
475.155	1133.34
475.364	1160.47
475.573	1137.6
475.783	1155.82
475.992	1149.23
476.201	1156.2
476.41	1151.55
476.619	1092.85
476.828	1156.59
477.037	1109.7
477.245	1117.65
477.454	1186.04
477.663	1159.5
477.872	1194.37
478.081	1287.76
478.29	1178.87
478.499	1294.93
478.708	1275.74
478.917	1319.34
479.125	1225.56
479.334	1237.38
479.543	1244.75
479.752	1284.85
479.961	1271.68
480.169	1328.06
480.378	1290.08
480.587	1424.54
480.796	1326.51
481.004	1326.89
481.213	1348.4
481.422	1328.83
481.63	1336.97
481.839	1384.24
482.048	1429.97
482.256	1368.94
482.465	1409.82
482.674	1419.7
482.882	1426.09
483.091	1476.27
483.299	1427.26
483.508	1405.36
483.716	1445.85
483.925	1434.62
484.134	1408.07
484.342	1411.37
484.551	1445.66
484.759	1449.34
484.967	1501.85
485.176	1478.99
485.384	1492.74
485.593	1490.42
485.801	1455.35
486.01	1457.87
486.218	1371.46
486.426	1266.25
486.635	1283.11
486.843	1275.55
487.051	1287.37
487.26	1330.19
487.468	1353.82
487.676	1400.71
487.885	1391.41
488.093	1444.5
488.301	1516.57
488.509	1490.8
488.717	1564.82
488.926	1528
489.134	1491.77
489.342	1502.62
489.55	1422.02
489.758	1508.24
489.967	1518.32
490.175	1654.13
490.383	1572.18
490.591	1676.03
490.799	1569.85
491.007	1645.41
491.215	1639.99
491.423	1613.45
491.631	1627.4
491.839	1613.45
492.047	1645.03
492.255	1578.18
492.463	1511.73
492.671	1544.67
492.879	1631.46
493.087	1571.21
493.295	1644.06
493.503	1664.21
493.711	1714.97
493.919	1725.82
494.127	1701.41
494.334	1694.43
494.542	1631.66
494.75	1715.94
494.958	1692.69
495.166	1770.19
495.374	1771.93
495.581	1765.54
495.789	1755.46
495.997	1800.99
496.205	1722.72
496.412	1726.98
496.62	1766.12
496.828	1787.24
497.035	1765.34
497.243	1815.91
497.451	1747.13
497.658	1815.72
497.866	1777.36
498.074	1818.43
498.281	1743.84
498.489	1847.3
498.696	1753.91
498.904	1706.64
499.112	1688.81
499.319	1838.97
499.527	1752.56
499.734	1814.56
499.942	1743.64
500.149	1782.98
500.357	1812.04
500.564	1746.94
500.771	1770.77
500.979	1697.92
501.186	1699.66
501.394	1741.71
501.601	1717.88
501.808	1751.39
502.016	1740.93
502.223	1686.49
502.43	1761.47
502.638	1756.63
502.845	1710.32
503.052	1799.83
503.26	1758.76
503.467	1829.86
503.674	1798.09
503.881	1829.28
504.089	1914.53
504.296	1817.27
504.503	1738.03
504.71	1761.08
504.917	1759.53
505.125	1778.13
505.332	1780.84
505.539	1854.08
505.746	1902.32
505.953	1914.72
506.16	1890.5
506.367	1927.32
506.574	1960.45
506.781	1939.91
506.988	1882.95
507.195	1918.02
507.402	1868.42
507.609	1925.57
507.816	1869.58
508.023	1861.83
508.23	1839.36
508.437	1795.76
508.644	1843.23
508.851	1909.49
509.058	1909.1
509.265	1848.85
509.472	1938.75
509.679	2009.08
509.885	1932.16
510.092	1920.92
510.299	1908.33
510.506	1889.34
510.713	1890.7
510.92	1938.17
511.126	1921.31
511.333	1963.74
511.54	1999
511.746	2009.47
511.953	1983.12
512.16	2049.57
512.367	1965.87
512.573	1964.32
512.78	1943.98
512.987	1968
513.193	1929.84
513.4	1827.92
513.606	1921.12
513.813	1941.27
514.02	1926.15
514.226	2029.03
514.433	1982.92
514.639	1881.4
514.846	1906.2
515.052	1892.44
515.259	1941.85
515.465	1957.35
515.672	1921.12
515.878	2035.04
516.085	1960.45
516.291	2005.2
516.497	1973.23
516.704	1930.03
516.91	1877.33
517.117	1830.44
517.323	1771.16
517.529	1757.98
517.736	1782.59
517.942	1789.76
518.148	1784.91
518.354	1849.04
518.561	1893.22
518.767	1821.92
518.973	1910.27
519.179	1919.95
519.386	1877.91
519.592	1899.8
519.798	1904.65
520.004	2028.65
520.21	1975.56
520.417	2049.76
520.623	2120.48
520.829	2103.43
521.035	2096.65
521.241	2050.93
521.447	2080.18
521.653	2249.32
521.859	2100.72
522.065	2126.3
522.271	2210.96
522.477	2186.36
522.683	2226.85
522.889	2188.88
523.095	2147.22
523.301	2172.99
523.507	2103.82
523.713	2143.34
523.919	2120.68
524.125	2233.24
524.331	2186.94
524.537	2276.26
524.742	2284.2
524.948	2257.07
525.154	2308.42
525.36	2412.65
525.566	2259.21
525.772	2345.42
525.977	2237.12
526.183	2252.23
526.389	2318.3
526.595	2247.58
526.8	2225.88
527.006	2154.58
527.212	2113.7
527.417	2069.72
527.623	2097.62
527.829	2152.64
528.034	2173.76
528.24	2205.34
528.446	2247.58
528.651	2296.41
528.857	2312.1
529.062	2396.18
529.268	2328.76
529.473	2396.38
529.679	2385.53
529.884	2481.82
530.09	2425.63
530.295	2451.6
530.501	2448.3
530.706	2425.83
530.912	2418.08
531.117	2421.18
531.323	2408.39
531.528	2512.43
531.733	2491.12
531.939	2482.02
532.144	2506.04
532.35	2474.46
532.555	2527.16
532.76	2463.03
532.966	2463.03
533.171	2401.61
533.376	2339.22
533.581	2309.77
533.787	2367.12
533.992	2449.27
534.197	2484.15
534.402	2411.49
534.607	2451.6
534.813	2509.33
535.018	2427.96
535.223	2457.41
535.428	2502.75
535.633	2518.44
535.838	2545.18
536.043	2534.52
536.249	2632.17
536.454	2552.15
536.659	2611.24
536.864	2525.41
537.069	2519.02
537.274	2516.89
537.479	2559.32
537.684	2525.8
537.889	2477.56
538.094	2616.28
538.299	2507.98
538.504	2540.53
538.708	2575.79
538.913	2587.99
539.118	2564.94
539.323	2598.26
539.528	2526.77
539.733	2559.51
539.938	2582.38
540.142	2533.36
540.347	2541.5
540.552	2478.53
540.757	2493.83
540.962	2486.66
541.166	2375.07
541.371	2405.87
541.576	2476.78
541.781	2403.93
541.985	2532.2
542.19	2519.8
542.395	2616.67
542.599	2615.31
542.804	2614.15
543.008	2628.68
543.213	2513.6
543.418	2507.4
543.622	2594.39
543.827	2537.04
544.031	2628.1
544.236	2649.8
544.44	2597.49
544.645	2676.15
544.849	2595.74
545.054	2642.83
545.258	2677.7
545.463	2695.72
545.667	2600.2
545.872	2674.6
546.076	2632.56
546.281	2621.71
546.485	2587.03
546.689	2621.9
546.894	2672.66
547.098	2619.77
547.302	2595.74
547.507	2627.71
547.711	2634.11
547.915	2680.61
548.119	2557.77
548.324	2546.53
548.528	2652.71
548.732	2590.51
548.936	2654.84
549.141	2667.24
549.345	2625.19
549.549	2646.7
549.753	2628.49
549.957	2734.66
550.161	2725.75
550.366	2651.35
550.57	2606.01
550.774	2628.29
550.978	2651.74
551.182	2674.79
551.386	2632.56
551.59	2589.54
551.794	2591.48
551.998	2612.99
552.202	2604.46
552.406	2614.15
552.61	2651.16
552.814	2662.59
553.018	2709.86
553.222	2614.34
553.426	2615.12
553.63	2714.71
553.833	2659.29
554.037	2545.18
554.241	2637.4
554.445	2647.67
554.649	2636.24
554.853	2620.74
555.056	2654.06
555.26	2708.51
555.464	2644.76
555.668	2658.52
555.871	2687.77
556.075	2724.39
556.279	2630.04
556.483	2580.24
556.686	2618.22
556.89	2601.17
557.094	2645.73
557.297	2557.96
557.501	2579.28
557.704	2525.41
557.908	2594.97
558.112	2534.91
558.315	2632.36
558.519	2569.78
558.722	2546.15
558.926	2540.14
559.129	2468.07
559.333	2447.14
559.536	2447.33
559.74	2473.3
559.943	2434.74
560.147	2454.31
560.35	2439.97
560.553	2475.62
560.757	2413.62
560.96	2535.3
561.164	2490.15
561.367	2588.38
561.57	2539.36
561.774	2540.33
561.977	2448.88
562.18	2455.47
562.384	2572.49
562.587	2476.78
562.79	2482.02
562.993	2455.28
563.197	2504.88
563.4	2558.35
563.603	2538.01
563.806	2598.84
564.009	2480.27
564.212	2552.73
564.416	2399.48
564.619	2471.94
564.822	2436.68
565.025	2522.12
565.228	2464.19
565.431	2454.89
565.634	2353.95
565.837	2374.29
566.04	2369.06
566.243	2393.09
566.446	2269.28
566.649	2412.46
566.852	2309.19
567.055	2354.53
567.258	2403.16
567.461	2445.4
567.664	2463.61
567.867	2323.92
568.07	2398.9
568.273	2374.1
568.475	2470.58
568.678	2326.24
568.881	2339.22
569.084	2338.45
569.287	2229.95
569.489	2286.91
569.692	2315
569.895	2342.13
570.098	2233.63
570.3	2242.16
570.503	2181.9
570.706	2235.18
570.909	2210.77
571.111	2144.51
571.314	2150.9
571.516	2171.24
571.719	2241.38
571.922	2186.16
572.124	2169.5
572.327	2259.01
572.529	2163.11
572.732	2170.47
572.935	2206.31
573.137	2310.16
573.34	2199.53
573.542	2237.12
573.745	2290.79
573.947	2254.17
574.15	2209.8
574.352	2183.45
574.554	2286.52
574.757	2167.37
574.959	2177.64
575.162	2181.71
575.364	2146.44
575.566	2262.89
575.769	2125.71
575.971	2128.23
576.173	2007.33
576.376	2103.82
576.578	2131.14
576.78	2216
576.982	2061.78
577.185	2098.98
577.387	2092.97
577.589	2099.36
577.791	2111.96
577.993	2086.96
578.196	2113.9
578.398	2089.48
578.6	2149.35
578.802	2069.72
579.004	2045.5
579.206	2032.72
579.408	2105.76
579.61	2029.23
579.812	2125.13
580.014	2010.05
580.216	2024.19
580.418	2065.07
580.62	2062.94
580.822	2014.89
581.024	2062.16
581.226	2102.46
581.428	2022.64
581.63	2145.67
581.832	2025.74
582.034	2114.67
582.236	2036.98
582.438	2101.3
582.64	2118.74
582.841	2139.47
583.043	2154.97
583.245	2103.43
583.447	2103.24
583.649	2131.72
583.85	2107.7
584.052	2098.78
584.254	2022.25
584.456	2101.88
584.657	2002.3
584.859	2058.87
585.061	2016.44
585.262	2013.15
585.464	2007.92
585.666	2038.33
585.867	1998.81
586.069	2059.45
586.27	2008.11
586.472	1997.84
586.674	1992.03
586.875	1971.3
587.077	1986.6
587.278	2024.97
587.48	1956.77
587.681	2129.98
587.883	2021.87
588.084	1944.95
588.285	1954.25
588.487	1938.55
588.688	1980.79
588.89	1888.37
589.091	1870.55
589.292	1862.61
589.494	1802.93
589.695	1762.44
589.896	1697.14
590.098	1685.13
590.299	1779.1
590.5	1734.54
590.702	1737.25
590.903	1804.48
591.104	1892.64
591.305	1885.66
591.507	1927.12
591.708	1880.24
591.909	1842.46
592.11	1965.48
592.311	1908.91
592.512	1828.89
592.714	1769.61
592.915	1857.76
593.116	1834.71
593.317	1895.74
593.518	1862.99
593.719	1844.59
593.92	1912.98
594.121	1922.86
594.322	1910.85
594.523	1877.14
594.724	1825.99
594.925	1855.24
595.126	1828.51
595.327	1878.1
595.528	1852.72
595.729	1874.81
595.929	1834.71
596.13	1844.97
596.331	1890.5
596.532	1875.59
596.733	1923.25
596.934	1899.22
597.135	1904.84
597.335	1874.81
597.536	1794.21
597.737	1889.34
597.938	1828.89
598.138	1832.38
598.339	1861.44
598.54	1861.44
598.74	1836.06
598.941	1831.99
599.142	1911.62
599.342	1841.68
599.543	1815.72
599.744	1856.41
599.944	1851.37
600.145	1828.89
600.345	1846.91
600.546	1890.31
600.746	1891.67
600.947	1931.58
601.147	1845.36
601.348	1866.87
601.548	1784.33
601.749	1811.26
601.949	1795.37
602.15	1784.14
602.35	1787.04
602.551	1849.04
602.751	1729.89
602.951	1775.61
603.152	1720.39
603.352	1810.1
603.552	1811.84
603.753	1818.82
603.953	1879.07
604.153	1812.62
604.354	1808.55
604.554	1853.11
604.754	1809.13
604.954	1783.56
605.155	1834.9
605.355	1811.07
605.555	1832.57
605.755	1885.27
605.955	1807.39
606.155	1851.95
606.356	1826.18
606.556	1892.05
606.756	1848.66
606.956	1794.79
607.156	1862.02
607.356	1803.71
607.556	1842.26
607.756	1829.47
607.956	1871.9
608.156	1822.11
608.356	1770.58
608.556	1823.66
608.756	1787.82
608.956	1784.14
609.156	1824.05
609.356	1741.32
609.556	1753.14
609.755	1802.35
609.955	1736.28
610.155	1759.34
610.355	1758.76
610.555	1743.84
610.755	1753.33
610.954	1677.38
611.154	1730.08
611.354	1781.81
611.554	1737.06
611.753	1733.38
611.953	1704.89
612.153	1760.11
612.352	1771.35
612.552	1693.46
612.752	1622.16
612.951	1726.98
613.151	1707.22
613.351	1657.43
613.55	1717.88
613.75	1714.78
613.949	1665.18
614.149	1687.26
614.348	1675.25
614.548	1637.28
614.747	1579.35
614.947	1660.33
615.146	1619.65
615.346	1716.33
615.545	1675.06
615.745	1673.9
615.944	1687.26
616.144	1691.72
616.343	1661.11
616.542	1637.86
616.742	1653.16
616.941	1654.13
617.14	1548.15
617.34	1605.31
617.539	1598.72
617.738	1592.33
617.938	1677.38
618.137	1623.52
618.336	1583.8
618.535	1652.39
618.734	1604.73
618.934	1636.5
619.133	1668.86
619.332	1646.77
619.531	1584.38
619.73	1583.61
619.929	1636.11
620.128	1629.53
620.328	1663.24
620.527	1580.32
620.726	1607.05
620.925	1655.3
621.124	1608.02
621.323	1608.99
621.522	1597.17
621.721	1548.73
621.92	1531.49
622.119	1610.54
622.318	1571.4
622.517	1564.82
622.715	1589.23
622.914	1513.86
623.113	1553
623.312	1469.1
623.511	1580.51
623.71	1534.4
623.909	1534.01
624.107	1622.16
624.306	1476.27
624.505	1484.8
624.704	1530.91
624.902	1500.1
625.101	1579.15
625.3	1526.65
625.499	1503.79
625.697	1513.28
625.896	1465.23
626.095	1509.4
626.293	1462.13
626.492	1458.84
626.69	1527.42
626.889	1457.09
627.088	1555.13
627.286	1493.71
627.485	1488.29
627.683	1479.18
627.882	1484.6
628.08	1417.57
628.279	1443.72
628.477	1552.61
628.676	1430.74
628.874	1487.32
629.073	1442.95
629.271	1439.07
629.469	1485.57
629.668	1463.68
629.866	1435.97
630.065	1416.79
630.263	1460
630.461	1387.15
630.66	1454.77
630.858	1458.45
631.056	1472.4
631.254	1495.45
631.453	1408.07
631.651	1465.23
631.849	1437.91
632.047	1428.42
632.245	1438.3
632.444	1436.75
632.642	1449.92
632.84	1498.75
633.038	1415.63
633.236	1374.36
633.434	1406.33
633.632	1415.44
633.83	1410.79
634.028	1484.41
634.227	1432.29
634.425	1469.69
634.623	1434.42
634.821	1440.04
635.019	1443.14
635.216	1424.93
635.414	1455.93
635.612	1395.09
635.81	1396.26
636.008	1482.09
636.206	1426.67
636.404	1437.52
636.602	1362.35
636.8	1414.86
636.997	1459.61
637.195	1463.29
637.393	1423.19
637.591	1505.53
637.789	1451.86
637.986	1400.71
638.184	1407.49
638.382	1487.9
638.58	1461.55
638.777	1495.84
638.975	1436.55
639.173	1397.81
639.37	1475.11
639.568	1437.91
639.765	1427.64
639.963	1400.91
640.161	1452.05
640.358	1481.31
640.556	1358.86
640.753	1334.06
640.951	1339.29
641.148	1379.79
641.346	1377.27
641.543	1364.67
641.741	1392.96
641.938	1337.94
642.136	1367.39
642.333	1314.88
642.531	1407.49
642.728	1440.04
642.925	1366.42
643.123	1379.21
643.32	1378.62
643.517	1312.36
643.715	1361.19
643.912	1341.81
644.109	1354.41
644.306	1365.06
644.504	1323.6
644.701	1335.23
644.898	1357.31
645.095	1312.36
645.293	1336.39
645.49	1360.61
645.687	1344.14
645.884	1375.14
646.081	1295.12
646.278	1287.95
646.475	1313.72
646.672	1311.2
646.87	1303.06
647.067	1322.83
647.264	1306.74
647.461	1266.44
647.658	1230.21
647.855	1315.46
648.052	1239.51
648.249	1180.03
648.446	1245.71
648.642	1245.52
648.839	1207.55
649.036	1238.74
649.233	1200.18
649.43	1200.57
649.627	1168.02
649.824	1198.44
650.021	1188.95
650.217	1218.78
650.414	1197.47
650.611	1218.4
650.808	1244.16
651.004	1258.5
651.201	1243.58
651.398	1300.74
651.595	1248.43
651.791	1207.35
651.988	1281.94
652.185	1189.14
652.381	1255.4
652.578	1191.85
652.775	1232.73
652.971	1236.41
653.168	1209.48
653.364	1278.84
653.561	1184.3
653.757	1212.97
653.954	1218.98
654.15	1169.38
654.347	1315.27
654.543	1232.73
654.74	1173.25
654.936	1175.77
655.133	1178.68
655.329	1199.99
655.525	1167.63
655.722	1209.87
655.918	1126.95
656.115	1156.2
656.311	1075.22
656.507	1048.67
656.704	1004.11
656.9	1045.38
657.096	1038.02
657.292	1018.84
657.489	1089.94
657.685	1098.27
657.881	1086.84
658.077	1059.52
658.273	1128.69
658.47	1180.61
658.666	1110.28
658.862	1166.67
659.058	1107.18
659.254	1195.53
659.45	1150.39
659.646	1134.7
659.842	1170.35
660.038	1195.73
660.234	1117.45
660.43	1140.32
660.626	1231.76
660.822	1182.75
661.018	1205.8
661.214	1187.78
661.41	1098.08
661.606	1191.66
661.802	1197.08
661.998	1182.55
662.194	1161.24
662.39	1170.15
662.586	1217.81
662.781	1175.38
662.977	1205.22
663.173	1191.27
663.369	1191.85
663.564	1168.8
663.76	1214.91
663.956	1164.53
664.152	1200.57
664.347	1090.91
664.543	1160.85
664.739	1108.54
664.934	1090.52
665.13	1131.02
665.326	1180.03
665.521	1148.45
665.717	1112.8
665.912	1136.83
666.108	1075.02
666.304	1119.97
666.499	1098.85
666.695	1058.55
666.89	1152.52
667.086	1181
667.281	1141.87
667.477	1224.4
667.672	1145.35
667.867	1112.22
668.063	1126.95
668.258	1081.03
668.454	1130.82
668.649	1196.31
668.844	1150
669.04	1168.22
669.235	1139.73
669.43	1076.19
669.626	1053.52
669.821	1082.97
670.016	1065.34
670.211	1110.09
670.407	1066.69
670.602	1101.18
670.797	1074.25
670.992	1139.15
671.187	1087.03
671.382	1152.52
671.578	1080.06
671.773	1099.63
671.968	1026.2
672.163	1111.25
672.358	1101.57
672.553	1088.58
672.748	1098.27
672.943	1147.87
673.138	1108.73
673.333	1113.97
673.528	1063.01
673.723	1112.8
673.918	1068.05
674.113	1058.17
674.308	1147.87
674.503	1100.6
674.698	1091.68
674.892	1071.34
675.087	1112.42
675.282	1097.88
675.477	1069.4
675.672	1120.36
675.867	1043.83
676.061	1029.49
676.256	1019.22
676.451	1050.03
676.646	1069.99
676.84	1021.55
677.035	993.07
677.23	1043.44
677.424	1061.07
677.619	1092.27
677.814	1110.28
678.008	1112.03
678.203	1010.89
678.397	1036.85
678.592	1053.13
678.787	1094.78
678.981	1017.87
679.176	1069.4
679.37	1062.04
679.565	1045.19
679.759	1006.82
679.954	1062.43
680.148	1093.04
680.342	1118.81
680.537	1091.3
680.731	1051.39
680.926	1089.55
681.12	1084.32
681.314	1028.14
681.509	1039.18
681.703	1049.84
681.897	1043.64
682.092	1044.22
682.286	1043.83
682.48	1088.58
682.674	1065.14
682.869	1045.57
683.063	1027.94
683.257	1100.6
683.451	1023.1
683.645	1038.4
683.839	1035.69
684.034	1007.4
684.228	1056.42
684.422	1013.22
684.616	1026.59
684.81	1058.55
685.004	1056.62
685.198	1036.08
685.392	1083.16
685.586	999.07
685.78	1036.27
685.974	1047.51
686.168	1056.42
686.362	1062.24
686.556	976.41
686.75	976.6
686.944	933.97
687.138	903.94
687.331	828.77
687.525	859.38
687.719	796.41
687.913	856.86
688.107	833.81
688.301	815.21
688.494	898.52
688.688	817.73
688.882	810.17
689.076	807.85
689.269	827.8
689.463	935.72
689.657	856.67
689.85	840.01
690.044	895.81
690.238	875.46
690.431	869.26
690.625	870.04
690.818	901.62
691.012	900.26
691.205	942.5
691.399	878.56
691.593	922.93
691.786	955.87
691.98	955.87
692.173	1000.43
692.366	959.55
692.56	958.58
692.753	1012.83
692.947	919.06
693.14	1017.29
693.333	1014.57
693.527	938.24
693.72	1001.4
693.914	973.5
694.107	960.52
694.3	981.64
694.493	945.79
694.687	1045.77
694.88	931.84
695.073	1021.74
695.266	1028.52
695.46	1014.96
695.653	1063.2
695.846	1043.44
696.039	950.44
696.232	988.42
696.425	1075.02
696.618	1074.83
696.812	1062.62
697.005	1130.43
697.198	1183.71
697.391	1098.85
697.584	1132.18
697.777	1189.14
697.97	1147.48
698.163	1166.47
698.356	1144.97
698.549	1267.22
698.742	1207.35
698.935	1182.75
699.127	1140.7
699.32	1153.3
699.513	1133.34
699.706	1182.94
699.899	1230.41
700.092	1198.05
700.285	1232.15
700.477	1152.52
700.67	1241.84
700.863	1269.54
701.056	1320.11
701.248	1313.72
701.441	1298.61
701.634	1259.28
701.826	1361.57
702.019	1272.64
702.212	1374.75
702.404	1243
702.597	1293.18
702.79	1292.41
702.982	1349.56
703.175	1379.4
703.367	1381.72
703.56	1395.29
703.752	1452.64
703.945	1447.79
704.137	1449.34
704.33	1459.8
704.522	1487.7
704.715	1489.25
704.907	1535.75
705.1	1571.98
705.292	1556.1
705.484	1537.11
705.677	1605.12
705.869	1609.76
706.061	1622.75
706.254	1670.6
706.446	1636.11
706.638	1628.36
706.831	1688.43
707.023	1638.63
707.215	1753.91
707.407	1742.87
707.599	1697.92
707.792	1788.4
707.984	1773.29
708.176	1799.83
708.368	1753.72
708.56	1800.22
708.752	1832.57
708.944	1776
709.136	1869.39
709.329	1809.13
709.521	1981.18
709.713	1940.88
709.905	1905.62
710.097	1967.62
710.289	1935.26
710.481	1948.82
710.672	1970.91
710.864	1994.74
711.056	2032.52
711.248	2004.43
711.44	2051.9
711.632	2044.73
711.824	2088.32
712.016	2116.61
712.207	2094.71
712.399	2122.81
712.591	2174.93
712.783	2143.54
712.975	2229.56
713.166	2164.46
713.358	2176.09
713.55	2233.05
713.741	2217.16
713.933	2223.36
714.125	2249.91
714.316	2254.56
714.508	2346.59
714.7	2339.22
714.891	2327.99
715.083	2371.77
715.274	2294.47
715.466	2348.14
715.657	2379.52
715.849	2274.12
716.04	2348.52
716.232	2313.07
716.423	2398.7
716.615	2320.04
716.806	2300.09
716.998	2271.61
717.189	2198.95
717.381	2126.3
717.572	2066.23
717.763	2118.55
717.955	2096.07
718.146	2053.83
718.337	2055.19
718.528	2048.99
718.72	1927.12
718.911	2010.24
719.102	1939.33
719.293	2019.73
719.485	2009.08
719.676	1971.68
719.867	1980.21
720.058	2005.59
720.249	2018.96
720.44	2043.18
720.632	2051.31
720.823	2121.06
721.014	2206.7
721.205	2227.82
721.396	2292.72
721.587	2448.88
721.778	2444.82
721.969	2443.46
722.16	2523.09
722.351	2562.23
722.542	2636.82
722.733	2703.47
722.924	2620.74
723.115	2648.25
723.305	2654.06
723.496	2706.76
723.687	2531.61
723.878	2550.8
724.069	2582.38
724.26	2615.31
724.45	2501
724.641	2496.16
724.832	2561.45
725.023	2563.2
725.213	2567.65
725.404	2514.37
725.595	2507.98
725.785	2537.04
725.976	2621.51
726.167	2584.31
726.357	2572.88
726.548	2684.67
726.739	2635.85
726.929	2690.68
727.12	2708.31
727.31	2778.64
727.501	2698.43
727.691	2687.77
727.882	2769.54
728.072	2764.69
728.263	2784.65
728.453	2813.32
728.644	2880.55
728.834	2843.74
729.024	2802.47
729.215	2791.04
729.405	2834.83
729.596	2927.83
729.786	2920.46
729.976	2927.63
730.167	2976.65
730.357	2955.53
730.547	2923.95
730.737	2997
730.928	3050.47
731.118	3034.97
731.308	3024.12
731.498	3066.16
731.688	3094.64
731.879	3140.37
732.069	3181.25
732.259	3174.08
732.449	3228.72
732.639	3270.95
732.829	3326.75
733.019	3374.61
733.209	3410.84
733.399	3423.24
733.589	3472.06
733.779	3490.08
733.969	3475.16
734.159	3583.47
734.349	3598
734.539	3647.02
734.729	3671.43
734.919	3671.82
735.109	3727.81
735.299	3662.13
735.488	3675.89
735.678	3665.62
735.868	3686.35
736.058	3751.45
736.248	3672.79
736.437	3683.25
736.627	3663.87
736.817	3777.6
737.007	3747.96
737.196	3789.23
737.386	3740.21
737.576	3746.41
737.765	3781.09
737.955	3761.72
738.144	3943.26
738.334	3834.56
738.524	3760.94
738.713	3811.7
738.903	3861.11
739.092	3893.46
739.282	3905.48
739.471	3911.87
739.661	3855.1
739.85	3912.84
740.04	3927.56
740.229	3946.74
740.419	3969.8
740.608	3985.88
740.797	3951.78
740.987	3982.2
741.176	4050.21
741.365	3976.77
741.555	3877.58
741.744	3998.28
741.933	3960.31
742.123	3991.89
742.312	4042.07
742.501	4077.72
742.69	4078.88
742.88	3988.79
743.069	4136.42
743.258	4048.66
743.447	4155.99
743.636	4112.2
743.825	4097.09
744.014	4115.69
744.204	4199.97
744.393	4118.99
744.582	4191.25
744.771	4223.22
744.96	4104.84
745.149	4180.02
745.338	4138.94
745.527	4195.71
745.716	4191.64
745.905	4127.7
746.094	4245.31
746.283	4207.92
746.471	4147.85
746.66	4219.54
746.849	4232.52
747.038	4273.21
747.227	4200.75
747.416	4219.15
747.604	4176.72
747.793	4149.21
747.982	4208.3
748.171	4219.54
748.359	4244.15
748.548	4210.05
748.737	4180.79
748.926	4220.7
749.114	4082.17
749.303	4194.35
749.491	4179.82
749.68	4072.49
749.869	4233.49
750.057	4159.87
750.246	4154.83
750.434	4160.64
750.623	4144.75
750.811	4127.51
751	4208.5
751.188	4110.85
751.377	4141.85
751.565	4144.95
751.754	4140.1
751.942	4099.42
752.131	4186.99
752.319	4067.84
752.507	4052.92
752.696	4159.67
752.884	4125.38
753.072	4090.7
753.261	4145.14
753.449	4116.47
753.637	4084.11
753.825	4199.78
754.014	4130.42
754.202	4120.92
754.39	4229.81
754.578	4143.98
754.766	4124.22
754.955	4065.9
755.143	4168.2
755.331	4089.15
755.519	4104.45
755.707	4019.21
755.895	4079.07
756.083	4075.97
756.271	4021.72
756.459	4046.91
756.647	4123.83
756.835	4052.34
757.023	4043.04
757.211	4046.52
757.399	4035.67
757.587	4052.14
757.775	3921.94
757.963	3994.79
758.151	4024.24
758.339	3935.12
758.526	3938.8
758.714	4005.64
758.902	3874.86
759.09	3799.5
759.278	3643.92
759.465	3487.37
759.653	3120.02
759.841	2858.85
760.028	2521.15
760.216	2210.19
760.404	2121.06
760.591	1786.85
760.779	1526.26
760.967	1397.81
761.154	1239.32
761.342	1277.49
761.529	1264.89
761.717	1363.12
761.905	1370.49
762.092	1442.95
762.28	1463.29
762.467	1512.89
762.655	1406.14
762.842	1477.63
763.029	1509.99
763.217	1518.9
763.404	1532.46
763.592	1559.78
763.779	1531.68
763.966	1595.82
764.154	1649.87
764.341	1715.16
764.528	1700.05
764.716	1773.29
764.903	1827.92
765.09	1917.24
765.277	1950.76
765.465	2064.68
765.652	2144.51
765.839	2205.15
766.026	2356.08
766.213	2365.96
766.4	2479.88
766.588	2659.68
766.775	2669.56
766.962	2754.04
767.149	2859.63
767.336	2944.3
767.523	2937.9
767.71	3046.79
767.897	3205.85
768.084	3240.92
768.271	3237.05
768.458	3337.02
768.645	3382.55
768.832	3340.51
769.019	3394.56
769.206	3402.51
769.392	3470.51
769.579	3588.31
769.766	3474.97
769.953	3497.06
770.14	3562.74
770.327	3536.58
770.513	3578.24
770.7	3646.24
770.887	3531.54
771.073	3569.91
771.26	3559.25
771.447	3598
771.634	3578.43
771.82	3668.14
772.007	3573.59
772.193	3597.61
772.38	3636.36
772.567	3564.87
772.753	3537.74
772.94	3635.97
773.126	3617.57
773.313	3609.04
773.499	3629.58
773.686	3601.49
773.872	3523.21
774.059	3573.39
774.245	3525.54
774.432	3534.45
774.618	3465.67
774.804	3482.72
774.991	3506.94
775.177	3559.83
775.363	3475.74
775.55	3517.21
775.736	3403.86
775.922	3492.21
776.109	3496.86
776.295	3457.53
776.481	3496.48
776.667	3536.97
776.853	3462.57
777.04	3434.86
777.226	3471.68
777.412	3546.85
777.598	3414.52
777.784	3443.2
777.97	3385.07
778.156	3454.63
778.342	3413.16
778.528	3373.64
778.715	3329.08
778.901	3359.11
779.087	3421.69
779.272	3354.27
779.458	3317.45
779.644	3387.01
779.83	3323.46
780.016	3462.96
780.202	3395.53
780.388	3319.97
780.574	3288.39
780.76	3332.37
780.946	3349.62
781.131	3313.58
781.317	3321.91
781.503	3256.04
781.689	3284.71
781.874	3393.21
782.06	3282
782.246	3229.3
782.432	3248.29
782.617	3289.75
782.803	3319
782.989	3225.81
783.174	3257.78
783.36	3168.27
783.545	3242.86
783.731	3218.84
783.916	3128.16
784.102	3217.67
784.288	3183.77
784.473	3206.24
784.659	3123.12
784.844	3198.49
785.029	3153.35
785.215	3177.18
785.4	3081.08
785.586	3179.31
785.771	3089.03
785.956	3142.31
786.142	3079.92
786.327	3133.39
786.512	3133.78
786.698	3094.26
786.883	3039.04
787.068	3055.89
787.254	3118.47
787.439	3035.74
787.624	3045.04
787.809	3050.28
787.994	3005.33
788.18	3109.37
788.365	2956.5
788.55	2990.6
788.735	2983.05
788.92	2981.5
789.105	2998.35
789.29	2983.63
789.475	2947.78
789.66	2937.71
789.845	2906.9
790.03	2926.47
790.215	2994.48
790.4	2959.6
790.585	2989.63
790.77	2936.93
790.955	2852.65
791.14	2932.67
791.325	3005.71
791.51	2836.77
791.695	2891.98
791.879	2894.31
792.064	2881.33
792.249	2960.96
792.434	2897.02
792.618	2871.83
792.803	2929.96
792.988	2866.99
793.173	2897.41
793.357	2906.52
793.542	2830.76
793.727	2866.6
793.911	2897.02
794.096	2852.85
794.281	2904.19
794.465	2933.06
794.65	2855.95
794.834	2966.96
795.019	2962.9
795.203	2960.18
795.388	2972.39
795.572	2922.21
795.757	2962.9
795.941	2967.35
796.126	2969.87
796.31	2888.5
796.494	2961.35
796.679	2907.68
796.863	2917.95
797.048	2971.23
797.232	2922.6
797.416	2978.98
797.601	2922.01
797.785	3015.79
797.969	2976.26
798.153	2921.82
798.338	2970.65
798.522	2997.77
798.706	3012.11
798.89	2981.88
799.074	3083.41
799.258	2993.51
799.443	2953.98
799.627	2979.95
799.811	3031.87
799.995	2967.16
800.179	2921.05
800.363	2992.35
800.547	2992.93
800.731	2976.26
800.915	2921.05
801.099	2916.2
801.283	2934.41
801.467	2970.84
801.651	2910.2
801.835	3035.16
802.019	2987.7
802.202	2975.1
802.386	2900.7
802.57	2935.19
802.754	2942.36
802.938	2888.11
803.121	2908.65
803.305	3011.33
803.489	2916.78
803.673	2948.95
803.856	2960.18
804.04	2962.9
804.224	2956.7
804.407	2919.88
804.591	2916.59
804.775	2931.7
804.958	2913.3
805.142	3053.57
805.326	2920.66
805.509	2959.21
805.693	2976.65
805.876	2959.02
806.06	2921.63
806.243	2972
806.427	2983.43
806.61	3039.81
806.794	2925.5
806.977	2972
807.16	2953.4
807.344	2964.06
807.527	2957.86
807.71	2906.71
807.894	2916.4
808.077	2947.78
808.26	2898.57
808.444	2904
808.627	2943.71
808.81	2860.02
808.993	2816.42
809.177	2857.3
809.36	2834.44
809.543	2872.42
809.726	2749.97
809.909	2765.27
810.092	2769.15
810.276	2776.9
810.459	2773.41
810.642	2776.12
810.825	2723.42
811.008	2731.37
811.191	2650.19
811.374	2632.94
811.557	2671.31
811.74	2739.51
811.923	2587.8
812.106	2596.71
812.289	2585.09
812.472	2571.14
812.654	2603.11
812.837	2597.68
813.02	2527.74
813.203	2525.03
813.386	2408.39
813.569	2422.92
813.751	2306.09
813.934	2377.59
814.117	2328.76
814.3	2284.59
814.482	2258.82
814.665	2244.87
814.848	2212.32
815.03	2124.94
815.213	2101.11
815.396	2124.94
815.578	2079.8
815.761	2043.95
815.943	2141.6
816.126	2008.3
816.309	2011.02
816.491	1910.46
816.674	1856.41
816.856	1952.5
817.039	1941.46
817.221	1976.14
817.403	1960.64
817.586	1931.97
817.768	1992.22
817.951	1895.54
818.133	1880.24
818.315	1925.38
818.498	1954.83
818.68	1963.35
818.862	1929.64
819.045	1979.63
819.227	1996.87
819.409	1944.75
819.591	1978.08
819.774	1928.09
819.956	1909.69
820.138	1995.52
820.32	1974.78
820.502	2067.98
820.684	2085.22
820.866	2067.78
821.048	2192.56
821.231	2174.34
821.413	2151.48
821.595	2101.3
821.777	2110.6
821.959	2120.48
822.141	2167.95
822.323	2088.51
822.505	2008.11
822.686	1991.64
822.868	1911.62
823.05	1760.11
823.232	1735.12
823.414	1682.61
823.596	1732.99
823.778	1702.57
823.96	1767.28
824.141	1750.04
824.323	1807.58
824.505	1814.56
824.687	1905.62
824.868	1936.42
825.05	2056.35
825.232	2087.55
825.413	2122.81
825.595	2079.21
825.777	1983.12
825.958	2070.88
826.14	2032.91
826.321	2078.63
826.503	2068.56
826.685	2085.61
826.866	2078.05
827.048	2078.25
827.229	2033.3
827.411	1982.92
827.592	1977.5
827.773	2014.31
827.955	1888.57
828.136	1880.24
828.318	1879.46
828.499	1944.56
828.68	1846.33
828.862	1883.53
829.043	1896.12
829.224	1861.06
829.406	1829.86
829.587	1831.41
829.768	1888.95
829.949	1893.8
830.131	1875.78
830.312	1935.84
830.493	1897.67
830.674	1899.61
830.855	1807.97
831.036	1852.72
831.218	1893.41
831.399	1966.45
831.58	1871.71
831.761	1884.11
831.942	1901.35
832.123	1874.42
832.304	1820.17
832.485	1803.32
832.666	1862.61
832.847	1882.75
833.028	1871.71
833.209	1844.59
833.389	1860.67
833.57	1788.4
833.751	1795.37
833.932	1862.41
834.113	1863.38
834.294	1816.69
834.475	1850.01
834.655	1898.25
834.836	1919.76
835.017	1868.61
835.198	1822.89
835.378	1877.14
835.559	1952.31
835.74	1847.69
835.92	1863.19
836.101	1833.35
836.281	1900.77
836.462	1848.46
836.643	1959.09
836.823	1924.6
837.004	1910.27
837.184	1935.07
837.365	1960.06
837.545	1961.22
837.726	1920.92
837.906	1964.9
838.087	1904.84
838.267	1878.3
838.448	1852.34
838.628	1894.19
838.808	1893.02
838.989	1943.79
839.169	1841.68
839.349	1908.91
839.53	1918.21
839.71	1948.44
839.89	1880.62
840.07	1925.57
840.251	1846.52
840.431	1927.51
840.611	1875.39
840.791	1868.42
840.971	1903.68
841.151	1840.71
841.332	1840.52
841.512	1909.88
841.692	1829.67
841.872	1917.63
842.052	1874.23
842.232	1876.36
842.412	1776.58
842.592	1836.64
842.772	1863.57
842.952	1854.27
843.132	1815.72
843.312	1804.67
843.492	1811.26
843.672	1874.62
843.851	1758.95
844.031	1820.56
844.211	1803.12
844.391	1769.8
844.571	1835.48
844.751	1830.83
844.93	1815.33
845.11	1784.33
845.29	1790.72
845.47	1819.4
845.649	1798.28
845.829	1817.07
846.009	1784.14
846.188	1797.51
846.368	1810.49
846.547	1796.15
846.727	1832.57
846.907	1740.16
847.086	1761.28
847.266	1816.3
847.445	1733.76
847.625	1766.7
847.804	1706.64
847.984	1774.06
848.163	1716.13
848.343	1784.52
848.522	1707.99
848.701	1758.37
848.881	1735.12
849.06	1751.98
849.239	1734.34
849.419	1773.87
849.598	1692.3
849.777	1706.25
849.957	1645.41
850.136	1595.82
850.315	1612.86
850.494	1588.45
850.674	1594.46
850.853	1628.56
851.032	1645.41
851.211	1692.3
851.39	1639.8
851.569	1586.13
851.748	1613.25
851.927	1658.2
852.107	1663.82
852.286	1612.48
852.465	1562.68
852.644	1670.21
852.823	1655.68
853.002	1627.78
853.181	1608.99
853.359	1648.51
853.538	1564.43
853.717	1663.43
853.896	1498.36
854.075	1453.6
854.254	1445.47
854.433	1347.04
854.611	1426.29
854.79	1372.81
854.969	1415.24
855.148	1423.57
855.327	1405.56
855.505	1471.43
855.684	1443.53
855.863	1460.39
856.041	1416.99
856.22	1478.02
856.399	1462.32
856.577	1547.96
856.756	1567.72
856.934	1667.11
857.113	1639.99
857.291	1547.18
857.47	1523.93
857.648	1572.76
857.827	1565.01
858.005	1546.6
858.184	1511.54
858.362	1622.75
858.541	1542.53
858.719	1528.97
858.898	1537.69
859.076	1508.63
859.254	1590.97
859.433	1522.97
859.611	1489.45
859.789	1485.57
859.967	1537.11
860.146	1604.73
860.324	1482.67
860.502	1491.19
860.68	1466.2
860.859	1482.09
861.037	1502.62
861.215	1483.44
861.393	1511.54
861.571	1488.29
861.749	1430.74
861.927	1486.35
862.105	1501.65
862.283	1455.54
862.461	1436.36
862.639	1427.26
862.817	1482.47
862.995	1454.96
863.173	1419.51
863.351	1449.73
863.529	1471.62
863.707	1481.12
863.885	1469.3
864.063	1356.54
864.241	1413.5
864.418	1471.24
864.596	1430.16
864.774	1364.29
864.952	1425.9
865.129	1433.65
865.307	1389.67
865.485	1357.12
865.663	1414.86
865.84	1326.12
866.018	1357.7
866.196	1240.87
866.373	1270.32
866.551	1217.23
866.728	1152.72
866.906	1190.88
867.084	1218.4
867.261	1267.8
867.439	1283.88
867.616	1319.14
867.794	1284.85
867.971	1281.94
868.149	1320.89
868.326	1375.33
868.503	1356.73
868.681	1308.68
868.858	1298.61
869.035	1276.13
869.213	1361.57
869.39	1297.64
869.567	1363.9
869.745	1281.94
869.922	1306.55
870.099	1278.84
870.276	1343.94
870.454	1335.61
870.631	1349.56
870.808	1315.66
870.985	1345.11
871.162	1370.29
871.339	1338.13
871.517	1267.22
871.694	1285.04
871.871	1317.98
872.048	1288.34
872.225	1260.44
872.402	1238.55
872.579	1267.41
872.756	1281.94
872.933	1210.26
873.11	1243
873.287	1283.3
873.463	1243.39
873.64	1236.41
873.817	1280.01
873.994	1238.35
874.171	1249.78
874.348	1279.23
874.524	1198.05
874.701	1247.07
874.878	1176.74
875.055	1263.15
875.231	1223.05
875.408	1264.12
875.585	1176.16
875.762	1210.65
875.938	1213.94
876.115	1160.47
876.291	1180.81
876.468	1186.23
876.645	1139.93
876.821	1180.81
876.998	1168.02
877.174	1189.53
877.351	1185.26
877.527	1133.92
877.704	1171.7
877.88	1209.48
878.057	1139.93
878.233	1213.75
878.409	1156.78
878.586	1187.78
878.762	1168.99
878.938	1147.1
879.115	1049.06
879.291	1151.17
879.467	1094.2
879.644	1122.3
879.82	1129.85
879.996	1128.69
880.172	1106.02
880.349	1140.7
880.525	1145.55
880.701	1099.82
880.877	1077.35
881.053	1126.17
881.229	1123.65
881.405	1178.48
881.581	1078.12
881.757	1104.67
881.933	1125.98
882.109	1132.18
882.285	1103.31
882.461	1075.22
882.637	1105.44
882.813	1061.85
882.989	1109.9
883.165	1150.58
883.341	1086.84
883.517	1132.37
883.693	1087.81
883.869	1138.18
884.044	1087.81
884.22	1123.46
884.396	1145.35
884.572	1119.97
884.747	1133.34
884.923	1127.33
885.099	1140.32
885.275	1180.81
885.45	1073.86
885.626	1088.2
885.801	1063.2
885.977	1093.04
886.153	1044.99
886.328	1104.47
886.504	1071.15
886.679	1104.86
886.855	1072.89
887.03	1110.48
887.206	1142.25
887.381	1076.96
887.557	1133.15
887.732	1127.53
887.908	1122.3
888.083	1125.78
888.258	1077.54
888.434	1045.57
888.609	1101.18
888.784	1162.4
888.96	1091.1
889.135	1044.22
889.31	1061.85
889.485	1098.47
889.661	1060.88
889.836	1133.73
890.011	1109.32
890.186	1093.04
890.361	1067.47
890.537	1102.34
890.712	1098.85
890.887	1098.47
891.062	1096.14
891.237	1140.7
891.412	1050.42
891.587	1103.7
891.762	1114.55
891.937	1126.95
892.112	1047.12
892.287	1062.24
892.462	1038.02
892.637	1023.1
892.812	1012.44
892.987	1037.05
893.161	1012.05
893.336	1023.49
893.511	1006.05
893.686	1019.42
893.861	1040.15
894.035	1032.79
894.21	1033.56
894.385	990.55
894.56	1022.71
894.734	945.99
894.909	977.76
895.084	977.37
895.258	942.11
895.433	952.77
895.608	939.21
895.782	868.29
895.957	889.03
896.131	872.75
896.306	841.56
896.48	808.04
896.655	843.11
896.829	781.11
897.004	776.46
897.178	804.36
897.353	779.36
897.527	860.35
897.701	811.14
897.876	750.3
898.05	834.19
898.224	806.1
898.399	870.04
898.573	790.99
898.747	708.45
898.921	753.01
899.096	633.67
899.27	649.75
899.444	682.3
899.618	709.81
899.792	713.3
899.967	718.33
900.141	730.93
900.315	665.44
900.489	688.88
900.663	679.78
900.837	701.28
901.011	677.84
901.185	760.18
901.359	719.88
901.533	704
901.707	702.25
901.881	714.46
902.055	671.25
902.229	700.32
902.403	767.16
902.576	703.03
902.75	704.19
902.924	825.09
903.098	745.46
903.272	806.3
903.446	840.01
903.619	772.39
903.793	838.26
903.967	793.51
904.14	869.84
904.314	843.3
904.488	830.9
904.661	858.22
904.835	848.92
905.009	886.89
905.182	905.3
905.356	872.94
905.529	853.96
905.703	775.49
905.876	805.13
906.05	787.5
906.223	775.49
906.397	731.7
906.57	692.57
906.744	701.28
906.917	686.56
907.09	704.77
907.264	718.33
907.437	667.57
907.61	661.37
907.784	652.65
907.957	664.47
908.13	637.93
908.304	688.11
908.477	623.59
908.65	665.63
908.823	605.19
908.996	684.62
909.17	619.72
909.343	606.93
909.516	634.05
909.689	608.87
909.862	604.41
910.035	602.28
910.208	573.41
910.381	598.02
910.554	683.85
910.727	594.34
910.9	613.32
911.073	581.35
911.246	689.85
911.419	654.2
911.592	617.2
911.765	597.24
911.938	607.12
912.11	603.25
912.283	622.24
912.456	655.17
912.629	649.17
912.802	596.66
912.974	547.45
913.147	533.11
913.32	467.24
913.493	497.66
913.665	548.61
913.838	550.36
914.01	526.91
914.183	542.02
914.356	531.56
914.528	572.83
914.701	649.36
914.873	584.65
915.046	546.29
915.218	494.75
915.391	450.96
915.563	482.16
915.736	499.4
915.908	573.99
916.081	552.1
916.253	505.79
916.425	535.44
916.598	557.72
916.77	524.39
916.942	531.17
917.115	449.22
917.287	538.54
917.459	503.08
917.632	463.75
917.804	417.64
917.976	500.37
918.148	526.52
918.32	486.22
918.493	560.04
918.665	589.88
918.837	532.34
919.009	597.24
919.181	582.9
919.353	558.69
919.525	520.52
919.697	551.32
919.869	548.61
920.041	597.05
920.213	641.61
920.385	573.8
920.557	546.09
920.729	572.83
920.901	534.08
921.073	547.84
921.244	532.72
921.416	586.59
921.588	550.74
921.76	547.26
921.932	603.05
922.103	529.43
922.275	541.06
922.447	529.62
922.619	469.76
922.79	546.87
922.962	504.63
923.134	558.49
923.305	491.07
923.477	452.13
923.648	478.67
923.82	471.89
923.991	449.99
924.163	449.99
924.335	475.76
924.506	475.76
924.677	502.11
924.849	448.64
925.02	475.37
925.192	492.04
925.363	490.1
925.535	499.79
925.706	412.6
925.877	515.09
926.049	466.27
926.22	483.12
926.391	484.09
926.562	517.42
926.734	444.76
926.905	482.54
927.076	432.56
927.247	461.04
927.419	411.63
927.59	419.96
927.761	427.71
927.932	370.17
928.103	417.83
928.274	363.39
928.445	367.26
928.616	377.92
928.787	400.39
928.958	341.88
929.129	370.56
929.3	343.05
929.471	304.68
929.642	282.79
929.813	222.73
929.984	346.15
930.155	258.18
930.326	293.45
930.496	249.66
930.667	203.55
930.838	273.68
931.009	191.92
931.18	225.25
931.35	227.77
931.521	219.05
931.692	133.02
931.863	121.59
932.033	212.07
932.204	194.83
932.374	178.36
932.545	128.95
932.716	204.52
932.886	193.86
933.057	97.76
933.227	117.91
933.398	201.8
933.568	104.54
933.739	41.19
933.909	67.73
934.08	144.84
934.25	58.24
934.421	92.34
934.591	115.97
934.761	64.44
934.932	64.82
935.102	96.02
935.272	94.66
935.443	79.94
935.613	58.62
935.783	94.27
935.953	61.53
936.123	250.63
936.294	40.61
936.464	86.14
936.634	104.35
936.804	46.42
936.974	34.02
937.144	107.64
937.314	88.27
937.484	75.29
937.655	61.34
937.825	156.27
937.995	59.79
938.165	110.36
938.334	80.13
938.504	97.37
938.674	107.84
938.844	106.87
939.014	164.8
939.184	144.26
939.354	184.37
939.524	204.71
939.694	155.3
939.863	135.54
940.033	190.18
940.203	204.52
940.373	158.4
940.542	169.06
940.712	162.28
940.882	170.03
941.051	189.6
941.221	180.49
941.391	158.4
941.56	124.69
941.73	105.9
941.899	236.68
942.069	148.33
942.238	140.39
942.408	114.23
942.577	192.7
942.747	140.39
942.916	81.1
943.086	86.14
943.255	186.11
943.425	160.34
943.594	89.24
943.763	60.76
943.933	62.11
944.102	21.81
944.271	128.18
944.441	127.21
944.61	76.06
944.779	96.21
944.948	202.77
945.117	70.25
945.287	104.54
945.456	40.22
945.625	71.8
945.794	143.1
945.963	96.21
946.132	137.29
946.301	54.17
946.47	146.97
946.639	70.44
946.808	86.14
946.977	102.41
947.146	142.52
947.315	86.91
947.484	133.22
947.653	112.68
947.822	86.14
947.991	69.47
948.16	181.07
948.329	146.97
948.498	105.32
948.666	110.16
948.835	129.54
949.004	69.67
949.173	78.19
949.341	91.95
949.51	126.63
949.679	132.83
949.847	129.92
950.016	178.55
950.185	150.07
950.353	96.02
950.522	98.73
950.69	174.49
950.859	103.19
951.028	133.8
951.196	126.63
951.365	82.26
951.533	100.47
951.701	118.88
951.87	123.14
952.038	54.36
952.207	84.78
952.375	156.27
952.543	91.56
952.712	115.59
952.88	66.57
953.048	159.76
953.217	125.66
953.385	106.29
953.553	158.21
953.721	70.25
953.89	111.13
954.058	43.71
954.226	77.61
954.394	118.69
954.562	64.24
954.73	116.56
954.898	96.79
955.067	133.41
955.235	69.09
955.403	138.45
955.571	158.4
955.739	140.39
955.907	88.46
956.075	84.01
956.243	92.72
956.41	103.38
956.578	39.06
956.746	49.32
956.914	90.4
957.082	124.69
957.25	131.09
957.418	67.54
957.585	95.63
957.753	177
957.921	81.87
958.089	127.02
958.256	130.7
958.424	89.82
958.592	109.19
958.759	84.78
958.927	120.82
959.095	91.76
959.262	151.43
959.43	114.04
959.597	85.75
959.765	105.12
959.932	78.39
960.1	130.12
960.267	129.15
960.435	109
960.602	147.94
960.77	93.5
960.937	54.75
961.104	108.22
961.272	35.76
961.439	90.21
961.606	131.86
961.774	132.64
961.941	76.26
962.108	94.08
962.275	105.51
962.443	147.94
962.61	136.51
962.777	209.75
962.944	143.49
963.111	116.56
963.278	131.67
963.446	119.66
963.613	130.31
963.78	98.34
963.947	143.1
964.114	100.86
964.281	210.52
964.448	131.09
964.615	124.89
964.782	144.45
964.949	172.94
965.116	102.22
965.282	169.06
965.449	132.25
965.616	84.2
965.783	156.08
965.95	129.15
966.117	81.1
966.283	104.54
966.45	135.35
966.617	135.93
966.784	171.19
966.95	144.84
967.117	161.12
967.284	94.86
967.45	84.59
967.617	185.53
967.784	112.49
967.95	173.13
968.117	114.42
968.283	184.95
968.45	224.67
968.616	96.99
968.783	175.84
968.949	153.75
969.116	159.76
969.282	142.52
969.449	105.32
969.615	134.57
969.781	87.3
969.948	95.05
970.114	88.46
970.28	195.6
970.447	139.22
970.613	199.09
970.779	127.99
970.945	143.87
971.112	144.84
971.278	135.74
971.444	113.84
971.61	207.23
971.776	145.62
971.942	159.37
972.108	126.44
972.275	129.15
972.441	141.35
972.607	196.57
972.773	109.39
972.939	158.21
973.105	127.21
973.271	97.76
973.437	104.93
973.602	92.14
973.768	119.85
973.934	120.82
974.1	152.01
974.266	36.34
974.432	126.24
974.598	105.9
974.763	160.92
974.929	108.22
975.095	190.57
975.261	112.49
975.426	71.99
975.592	125.08
975.758	186.69
975.923	61.14
976.089	95.63
976.255	146.97
976.42	122.95
976.586	130.12
976.751	126.44
976.917	203.55
977.082	128.95
977.248	97.96
977.413	76.06
977.579	98.54
977.744	151.82
977.91	92.53
978.075	100.86
978.24	131.47
978.406	80.52
978.571	104.93
978.736	75.09
978.902	126.44
979.067	88.66
979.232	65.6
979.397	91.76
979.563	157.44
979.728	83.42
979.893	112.29
980.058	89.04
980.223	164.8
980.388	90.4
980.554	104.35
980.719	109
980.884	129.34
981.049	143.87
981.214	87.88
981.379	103.96
981.544	108.81
981.709	101.64
981.874	96.79
982.039	97.37
982.204	119.66
982.368	97.18
982.533	88.27
982.698	120.24
982.863	146.39
983.028	78.19
983.193	99.89
983.357	104.35
983.522	95.05
983.687	53.78
983.852	88.46
984.016	88.27
984.181	97.57
984.346	132.64
984.51	135.15
984.675	111.32
984.839	120.43
985.004	109.58
985.168	138.64
985.333	127.79
985.498	89.82
985.662	117.33
985.827	98.34
985.991	111.71
986.155	132.44
986.32	135.93
986.484	174.49
986.649	107.45
986.813	50.29
986.977	114.62
987.142	117.33
987.306	53.97
987.47	103.19
987.634	112.29
987.799	116.36
987.963	96.6
988.127	115.59
988.291	174.68
988.455	96.41
988.62	110.55
988.784	131.67
988.948	108.61
989.112	92.34
989.276	102.02
989.44	101.64
989.604	84.78
989.768	73.74
989.932	185.34
990.096	81.49
990.26	60.76
990.424	62.5
990.588	85.56
990.752	170.03
990.915	107.26
991.079	68.12
991.243	48.16
991.407	130.31
991.571	91.17
991.734	135.93
991.898	128.18
992.062	179.72
992.226	94.27
992.389	81.1
992.553	41.77
992.717	39.64
992.88	82.84
993.044	91.17
993.207	77.81
993.371	108.22
993.535	72.57
993.698	75.09
993.862	130.5
994.025	124.11
994.189	96.02
994.352	98.15
994.515	116.17
994.679	122.56
994.842	80.13
995.006	94.86
995.169	69.28
995.332	47.97
995.496	115.01
995.659	22.78
995.822	102.22
995.985	92.92
996.149	148.52
996.312	83.81
996.475	140.19
996.638	63.08
996.801	148.33
996.964	136.7
997.128	68.7
997.291	59.01
997.454	78.58
997.617	38.09
997.78	122.95
997.943	46.03
998.106	117.72
998.269	68.51
998.432	57.27
998.595	90.01
998.758	48.74
998.92	48.55
999.083	12.51
999.246	58.24
999.409	56.69
999.572	12.9
999.735	44.09
999.897	83.62
1000.06	33.05
1000.223	66.57
1000.386	118.49
1000.548	88.85
1000.711	110.74
1000.874	94.47
1001.036	41.96
1001.199	110.55
1001.361	50.1
1001.524	76.45
1001.687	99.89
1001.849	39.44
1002.012	84.2
1002.174	93.69
1002.337	115.59
1002.499	47.97
1002.661	84.2
1002.824	13.09
1002.986	53.59
1003.149	41.19
1003.311	11.16
1003.473	128.95
1003.636	67.54
1003.798	67.92
1003.96	76.84
1004.123	71.8
1004.285	41.19
1004.447	50.1
1004.609	78.77
1004.771	113.46
1004.933	13.48
1005.096	39.64
1005.258	5.34
1005.42	60.37
1005.582	91.95
1005.744	76.06
1005.906	27.82
1006.068	56.88
1006.23	-7.44
1006.392	5.73
1006.554	42.16
1006.716	84.97
1006.878	81.49
1007.04	1.47
1007.202	55.52
1007.363	89.43
1007.525	75.48
1007.687	74.12
1007.849	102.02
1008.011	-28.17
1008.172	24.14
1008.334	62.69
1008.496	62.69
1008.658	-9.96
1008.819	8.64
1008.981	-0.66
1009.143	10.58
1009.304	29.76
1009.466	79.94
1009.627	114.62
1009.789	147.55
1009.95	67.15
1010.112	26.46
1010.273	66.57
1010.435	1.47
1010.596	44.67
1010.758	24.14
1010.919	59.21
1011.081	-1.82
1011.242	55.91
1011.403	63.47
1011.565	34.79
1011.726	56.3
1011.887	-5.89
1012.049	34.79
1012.21	69.86
1012.371	124.69
1012.532	-19.46
1012.693	45.84
1012.855	43.32
1013.016	74.12
1013.177	85.94
1013.338	30.73
1013.499	102.8
1013.66	80.13
1013.821	60.95
1013.982	40.99
1014.143	54.75
1014.304	23.17
1014.465	91.56
1014.626	84.59
1014.787	44.67
1014.948	121.4
1015.109	-22.94
1015.27	93.5
1015.431	21.43
1015.592	4.76
1015.752	106.29
1015.913	42.35
1016.074	62.5
1016.235	78.77
1016.395	41.96
1016.556	13.87
1016.717	26.27
1016.877	74.71
1017.038	31.5
1017.199	39.64
1017.359	53.2
1017.52	31.69
1017.681	19.29
1017.841	49.13
1018.002	24.72
1018.162	21.04
1018.323	84.39
1018.483	23.75
1018.644	47.97
1018.804	-22.75
1018.964	10.58
1019.125	20.46
1019.285	40.02
1019.446	17.55
1019.606	21.43
1019.766	-1.82
1019.926	53.97
1020.087	51.46
1020.247	-13.26
1020.407	46.81
1020.567	60.37
1020.728	32.86
1020.888	-1.63
1021.048	-5.89
1021.208	16.19
1021.368	-15.58
1021.528	68.31
1021.688	49.91
1021.848	58.24
1022.008	41.77
1022.168	20.84
1022.328	47.58
1022.488	64.82
1022.648	23.75
1022.808	17.55
1022.968	50.1
1023.128	1.86
1023.288	24.53
1023.448	47.77
1023.608	65.02
1023.767	30.53
1023.927	13.48
1024.087	2.44
1024.247	-31.66
1024.406	27.24
1024.566	-21.2
1024.726	-12.67
1024.885	18.71
1025.045	56.49
1025.205	10.58
1025.364	9.22
1025.524	49.91
1025.683	9.03
1025.843	42.54
1026.003	30.14
1026.162	78.58
1026.321	54.17
1026.481	31.5
1026.64	11.16
1026.8	25.3
1026.959	27.24
1027.119	48.94
1027.278	-14.42
1027.437	13.09
1027.597	25.11
1027.756	35.18
1027.915	26.27
1028.074	57.07
1028.234	6.7
1028.393	41.96
1028.552	3.79
1028.711	-65.37
1028.87	50.68
1029.03	9.41
1029.189	30.73
1029.348	-41.74
1029.507	3.6
1029.666	-29.53
1029.825	-14.22
1029.984	22.78
1030.143	40.41
1030.302	20.46
1030.461	-22.36
1030.62	27.82
1030.779	40.99
1030.938	-0.86
1031.097	-20.62
1031.255	50.49
1031.414	90.4
1031.573	49.52
1031.732	-30.31
1031.891	10.38
1032.049	53.78
1032.208	43.9
1032.367	-1.24
1032.525	3.41
1032.684	1.66
1032.843	16.19
1033.001	-31.66
1033.16	168.87
1033.319	75.67
1033.477	28.98
1033.636	0.69
1033.794	-29.92
1033.953	27.43
1034.111	41.38
1034.27	-0.27
1034.428	37.51
1034.587	-19.65
1034.745	28.21
1034.903	42.54
1035.062	54.36
1035.22	-34.57
1035.378	49.91
1035.537	-17.71
1035.695	48.36
1035.853	24.14
1036.011	26.46
1036.17	38.86
1036.328	-60.72
1036.486	26.66
1036.644	17.36
1036.802	-73.32
1036.96	5.34
1037.119	-2.21
1037.277	7.67
1037.435	-35.15
1037.593	-15.39
1037.751	16.19
1037.909	16.78
1038.067	16.78
