Data from gum_old_FLMT105791__86__15-44-14-256.txt Node

Date: Mon Mar 20 15:44:14 GMT 2023
User: antho
Spectrometer: FLMT10579
Trigger mode: 0
Integration Time (sec): 1.000000E-1
Scans to average: 10
Electric dark correction enabled: true
Nonlinearity correction enabled: false
Boxcar width: 0
XAxis mode: Wavelengths
Number of Pixels in Spectrum: 3648
>>>>>Begin Spectral Data<<<<<
345.248	-166.3
345.464	-166.3
345.681	-166.3
345.898	-189.36
346.114	-180.44
346.331	-45.01
346.548	15.82
346.764	-1.61
346.981	9.82
347.197	-7.04
347.414	20.09
347.631	-11.88
347.847	64.26
348.064	2.65
348.28	5.55
348.497	-38.04
348.713	-14.6
348.93	12.53
349.146	31.52
349.363	10.98
349.579	26.29
349.796	10.98
350.012	-8.4
350.229	47.4
350.445	4
350.661	-6.85
350.878	13.69
351.094	29.58
351.311	32.1
351.527	12.34
351.743	7.69
351.96	57.48
352.176	70.65
352.392	24.93
352.609	48.95
352.825	14.47
353.041	23.77
353.257	5.17
353.474	24.35
353.69	12.53
353.906	22.02
354.122	7.1
354.339	47.98
354.555	6.72
354.771	-6.07
354.987	69.68
355.203	95.07
355.42	12.14
355.636	19.5
355.852	9.82
356.068	55.35
356.284	-27.58
356.5	98.75
356.716	39.85
356.932	11.56
357.148	57.28
357.364	12.92
357.58	88.87
357.796	65.62
358.012	87.7
358.228	38.3
358.444	-21.18
358.66	78.21
358.876	51.08
359.092	22.41
359.308	57.67
359.524	29.58
359.74	26.87
359.956	1.68
360.172	40.43
360.388	74.33
360.604	19.5
360.819	108.05
361.035	44.5
361.251	64.65
361.467	1.29
361.683	95.45
361.898	48.57
362.114	64.65
362.33	45.27
362.546	60.77
362.762	49.34
362.977	45.66
363.193	20.67
363.409	95.65
363.624	22.99
363.84	30.16
364.056	33.84
364.271	67.75
364.487	59.22
364.703	31.71
364.918	10.98
365.134	28.22
365.35	46.63
365.565	142.92
365.781	50.5
365.996	94.87
366.212	119.67
366.427	76.66
366.643	24.35
366.858	35.97
367.074	29.38
367.289	135.95
367.505	173.92
367.72	35.39
367.936	34.03
368.151	113.08
368.367	109.98
368.582	88.67
368.798	49.15
369.013	85.18
369.228	72.2
369.444	56.9
369.659	92.93
369.874	62.9
370.09	128.97
370.305	-33.39
370.52	44.5
370.736	98.36
370.951	69.49
371.166	111.53
371.381	122.58
371.597	91.97
371.812	30.74
372.027	53.6
372.242	58.64
372.458	127.42
372.673	46.63
372.888	76.47
373.103	74.72
373.318	152.41
373.533	90.03
373.749	78.4
373.964	11.17
374.179	102.04
374.394	22.99
374.609	109.79
374.824	33.84
375.039	107.47
375.254	38.68
375.469	93.52
375.684	95.26
375.899	93.52
376.114	49.92
376.329	69.88
376.544	111.92
376.759	105.14
376.974	64.45
377.189	83.63
377.404	53.6
377.619	106.69
377.834	25.7
378.049	38.1
378.264	54.38
378.478	74.33
378.693	47.21
378.908	116.76
379.123	98.94
379.338	115.02
379.553	105.53
379.767	95.45
379.982	90.22
380.197	110.18
380.412	78.98
380.626	109.21
380.841	162.3
381.056	118.9
381.271	169.66
381.485	58.83
381.7	52.44
381.915	104.37
382.129	71.43
382.344	86.93
382.559	78.98
382.773	111.34
382.988	29.58
383.202	97.97
383.417	37.52
383.632	171.01
383.846	75.5
384.061	75.3
384.275	86.15
384.49	98.94
384.704	101.65
384.919	100.88
385.133	94.87
385.348	105.53
385.562	50.7
385.777	130.71
385.991	72.59
386.206	85.38
386.42	83.63
386.634	127.42
386.849	96.03
387.063	118.7
387.277	67.75
387.492	93.52
387.706	67.94
387.92	91.58
388.135	145.63
388.349	109.79
388.563	134.98
388.778	115.41
388.992	137.3
389.206	135.56
389.42	193.88
389.635	119.48
389.849	124.71
390.063	153.58
390.277	157.26
390.491	210.34
390.706	133.04
390.92	156.48
391.134	119.67
391.348	187.48
391.562	92.93
391.776	150.28
391.99	133.43
392.205	182.06
392.419	125.68
392.633	139.05
392.847	195.62
393.061	100.49
393.275	184.96
393.489	115.99
393.703	92.74
393.917	110.37
394.131	95.26
394.345	131.49
394.559	164.43
394.773	141.95
394.986	164.23
395.2	152.03
395.414	173.73
395.628	134.59
395.842	157.45
396.056	145.25
396.27	121.03
396.484	172.56
396.697	157.65
396.911	183.03
397.125	132.46
397.339	154.55
397.553	142.73
397.766	183.8
397.98	183.22
398.194	180.12
398.408	142.73
398.621	203.76
398.835	208.02
399.049	211.31
399.262	266.53
399.476	240.96
399.69	243.67
399.903	306.64
400.117	235.73
400.331	232.04
400.544	222.16
400.758	349.84
400.971	258.2
401.185	283.78
401.398	188.06
401.612	304.7
401.826	277.77
402.039	274.09
402.253	253.16
402.466	282.81
402.68	296.56
402.893	312.64
403.106	277.58
403.32	265.18
403.533	284.94
403.747	267.89
403.96	266.34
404.174	309.35
404.387	253.36
404.6	286.29
404.814	298.31
405.027	278.74
405.24	274.86
405.454	226.62
405.667	309.93
405.88	226.43
406.094	321.17
406.307	326.4
406.52	271.96
406.733	231.08
406.947	243.09
407.16	327.56
407.373	342.29
407.586	251.81
407.799	251.03
408.012	327.17
408.226	298.69
408.439	351.59
408.652	252
408.865	296.17
409.078	382.78
409.291	333.18
409.504	281.64
409.717	347.13
409.93	338.22
410.143	319.42
410.357	258.39
410.57	278.35
410.783	277.58
410.996	295.98
411.209	318.07
411.421	371.93
411.634	362.05
411.847	298.31
412.06	358.95
412.273	368.44
412.486	340.93
412.699	429.86
412.912	327.17
413.125	377.36
413.338	370.96
413.55	378.13
413.763	352.94
413.976	354.88
414.189	340.93
414.402	359.34
414.615	421.34
414.827	322.33
415.04	405.45
415.253	367.28
415.466	390.72
415.678	430.64
415.891	380.07
416.104	387.82
416.316	340.16
416.529	345.77
416.742	418.43
416.954	415.33
417.167	399.64
417.38	392.66
417.592	424.63
417.805	372.12
418.017	321.75
418.23	393.24
418.442	337.25
418.655	367.28
418.868	386.85
419.08	417.27
419.293	417.65
419.505	403.51
419.718	400.41
419.93	407.58
420.142	384.33
420.355	445.36
420.567	433.35
420.78	416.88
420.992	405.25
421.205	468.42
421.417	371.74
421.629	407.39
421.842	387.24
422.054	385.1
422.266	437.22
422.479	481.4
422.691	375.61
422.903	430.25
423.115	373.29
423.328	382.39
423.54	368.44
423.752	367.28
423.964	386.85
424.177	434.9
424.389	392.85
424.601	487.98
424.813	398.67
425.025	454.66
425.238	439.35
425.45	427.15
425.662	402.15
425.874	727.65
426.086	389.75
426.298	453.69
426.51	427.34
426.722	405.25
426.934	420.56
427.146	439.55
427.358	363.79
427.57	476.75
427.782	404.67
427.994	403.32
428.206	383.55
428.418	392.85
428.63	461.44
428.842	466.87
429.054	449.24
429.266	435.67
429.478	354.88
429.69	440.13
429.902	373.09
430.114	445.55
430.325	386.27
430.537	348.87
430.749	349.07
430.961	292.3
431.173	339.96
431.384	365.54
431.596	255.29
431.808	368.83
432.02	415.52
432.231	462.8
432.443	515.5
432.655	497.28
432.867	451.37
433.078	463.77
433.29	522.86
433.502	509.68
433.713	524.22
433.925	525.77
434.136	548.43
434.348	443.62
434.56	407.97
434.771	580.98
434.983	391.89
435.194	454.47
435.406	494.18
435.617	556.76
435.829	596.1
436.04	525.38
436.252	549.79
436.463	558.7
436.675	601.52
436.886	566.45
437.098	585.44
437.309	609.27
437.521	551.34
437.732	585.83
437.943	561.22
438.155	537.39
438.366	497.67
438.578	593.96
438.789	519.76
439	515.5
439.211	522.08
439.423	517.43
439.634	541.27
439.845	584.86
440.057	575.95
440.268	604.04
440.479	552.12
440.69	566.84
440.902	540.68
441.113	554.83
441.324	557.15
441.535	604.23
441.746	641.82
441.957	567.42
442.168	603.85
442.38	661.58
442.591	636.4
442.802	569.75
443.013	599.39
443.224	650.93
443.435	620.7
443.646	628.65
443.857	596.68
444.068	620.51
444.279	586.99
444.49	673.98
444.701	627.48
444.912	759.23
445.123	685.8
445.334	643.18
445.545	666.04
445.756	650.34
445.967	617.41
446.178	668.94
446.388	661
446.599	635.04
446.81	647.63
447.021	601.52
447.232	685.22
447.443	689.09
447.653	644.34
447.864	704.4
448.075	700.14
448.286	703.63
448.496	680.57
448.707	721.06
448.918	646.66
449.129	742.37
449.339	657.71
449.55	716.41
449.761	653.25
449.971	731.91
450.182	688.51
450.393	735.01
450.603	668.36
450.814	728.42
451.024	749.74
451.235	759.81
451.446	795.66
451.656	784.22
451.867	705.18
452.077	693.36
452.288	772.21
452.498	765.62
452.709	711.76
452.919	733.27
453.13	672.63
453.34	729.78
453.55	636.78
453.761	736.17
453.971	695.1
454.182	736.76
454.392	720.87
454.602	795.46
454.813	744.89
455.023	776.28
455.233	682.51
455.444	723.19
455.654	647.63
455.864	711.57
456.075	712.15
456.285	716.99
456.495	726.29
456.705	750.32
456.916	801.86
457.126	792.17
457.336	739.27
457.546	673.4
457.756	725.91
457.967	802.44
458.177	747.61
458.387	759.23
458.597	676.89
458.807	744.89
459.017	726.49
459.227	725.91
459.437	725.13
459.647	781.32
459.857	790.04
460.068	765.43
460.278	809.22
460.488	742.57
460.698	831.5
460.908	767.37
461.117	747.61
461.327	757.49
461.537	772.79
461.747	811.54
461.957	787.32
462.167	929.92
462.377	831.3
462.587	803.02
462.797	828.01
463.007	806.12
463.216	831.3
463.426	886.72
463.636	839.64
463.846	747.41
464.056	778.22
464.265	860.56
464.475	798.95
464.685	788.29
464.895	839.05
465.104	795.07
465.314	817.94
465.524	797.59
465.733	780.54
465.943	898.73
466.153	897.18
466.362	887.88
466.572	858.43
466.782	805.54
466.991	846.42
467.201	908.61
467.41	771.24
467.62	815.03
467.829	844.87
468.039	857.07
468.249	876.06
468.458	855.91
468.668	893.69
468.877	893.69
469.086	935.15
469.296	937.09
469.505	880.32
469.715	974.68
469.924	933.41
470.134	941.74
470.343	929.92
470.552	896.21
470.762	895.24
470.971	881.68
471.18	930.5
471.39	895.44
471.599	863.08
471.808	929.53
472.018	908.22
472.227	980.1
472.436	1002.38
472.645	974.87
472.855	947.36
473.064	1025.63
473.273	1002.38
473.482	1005.87
473.691	1048.5
473.901	1020.01
474.11	952.4
474.319	1097.9
474.528	1012.07
474.737	1062.83
474.946	1048.5
475.155	1084.34
475.364	1098.29
475.573	1047.72
475.783	1080.66
475.992	1094.99
476.201	1109.53
476.41	1054.7
476.619	1016.53
476.828	1063.03
477.037	1063.41
477.245	1057.99
477.454	1122.51
477.663	1058.76
477.872	1086.28
478.081	1192.84
478.29	1087.83
478.499	1245.34
478.708	1178.89
478.917	1230.62
479.125	1146.14
479.334	1134.33
479.543	1177.14
479.752	1185.67
479.961	1175.21
480.169	1218.02
480.378	1181.41
480.587	1325.55
480.796	1236.82
481.004	1183.15
481.213	1233.72
481.422	1243.6
481.63	1224.42
481.839	1274.6
482.048	1359.27
482.256	1300.17
482.465	1317.22
482.674	1307.73
482.882	1318.39
483.091	1348.03
483.299	1313.74
483.508	1346.09
483.716	1336.6
483.925	1322.26
484.134	1271.89
484.342	1310.25
484.551	1362.37
484.759	1346.09
484.967	1407.51
485.176	1408.28
485.384	1391.43
485.593	1406.15
485.801	1406.73
486.01	1315.87
486.218	1290.29
486.426	1182.96
486.635	1177.92
486.843	1160.09
487.051	1200.59
487.26	1209.5
487.468	1272.66
487.676	1303.85
487.885	1308.12
488.093	1340.28
488.301	1410.8
488.509	1399.37
488.717	1427.85
488.926	1432.7
489.134	1396.85
489.342	1443.74
489.55	1359.85
489.758	1391.04
489.967	1409.06
490.175	1547.59
490.383	1489.27
490.591	1578.78
490.799	1471.06
491.007	1541.78
491.215	1497.02
491.423	1471.06
491.631	1494.5
491.839	1497.99
492.047	1538.68
492.255	1454.98
492.463	1443.35
492.671	1401.5
492.879	1514.07
493.087	1472.03
493.295	1511.75
493.503	1497.6
493.711	1612.69
493.919	1619.08
494.127	1587.69
494.334	1577.23
494.542	1528.6
494.75	1589.83
494.958	1551.46
495.166	1636.91
495.374	1637.49
495.581	1625.86
495.789	1630.32
495.997	1660.93
496.205	1605.52
496.412	1584.4
496.62	1606.49
496.828	1638.07
497.035	1612.49
497.243	1641.17
497.451	1672.36
497.658	1656.67
497.866	1675.07
498.074	1705.3
498.281	1598.16
498.489	1716.73
498.696	1649.11
498.904	1590.6
499.112	1574.33
499.319	1702.59
499.527	1636.32
499.734	1698.32
499.942	1629.16
500.149	1655.51
500.357	1684.96
500.564	1599.13
500.771	1649.11
500.979	1580.53
501.186	1586.34
501.394	1631.87
501.601	1578.98
501.808	1654.15
502.016	1613.46
502.223	1578.01
502.43	1618.5
502.638	1635.36
502.845	1591.18
503.052	1716.54
503.26	1646.98
503.467	1727.77
503.674	1695.61
503.881	1713.24
504.089	1777.57
504.296	1706.27
504.503	1626.25
504.71	1656.09
504.917	1613.85
505.125	1680.89
505.332	1680.5
505.539	1711.89
505.746	1769.04
505.953	1739.79
506.16	1747.34
506.367	1803.14
506.574	1821.16
506.781	1831.62
506.988	1721.38
507.195	1764.2
507.402	1789.58
507.609	1803.14
507.816	1718.28
508.023	1719.25
508.23	1704.33
508.437	1689.99
508.644	1740.95
508.851	1781.63
509.058	1770.4
509.265	1745.99
509.472	1776.21
509.679	1867.08
509.885	1769.43
510.092	1791.9
510.299	1747.92
510.506	1765.17
510.713	1782.41
510.92	1796.17
511.126	1820.97
511.333	1817.28
511.54	1819.8
511.746	1872.5
511.953	1868.05
512.16	1903.89
512.367	1842.47
512.573	1861.07
512.78	1856.62
512.987	1806.24
513.193	1781.83
513.4	1751.41
513.606	1801.78
513.813	1815.93
514.02	1801.59
514.226	1900.6
514.433	1861.85
514.639	1745.21
514.846	1823.87
515.052	1828.72
515.259	1825.42
515.465	1824.26
515.672	1843.83
515.878	1915.9
516.085	1863.59
516.291	1859.72
516.497	1855.45
516.704	1856.23
516.91	1775.05
517.117	1723.7
517.323	1664.81
517.529	1635.94
517.736	1662.67
517.942	1661.51
518.148	1697.16
518.354	1739.98
518.561	1761.87
518.767	1756.64
518.973	1798.3
519.179	1817.67
519.386	1770.59
519.592	1809.53
519.798	1781.44
520.004	1907.38
520.21	1867.46
520.417	1915.32
520.623	1961.04
520.829	1944.96
521.035	1959.69
521.241	1948.06
521.447	1972.67
521.653	2116.24
521.859	1981.39
522.065	2036.03
522.271	2106.36
522.477	2058.31
522.683	2077.49
522.889	2024.98
523.095	2036.03
523.301	2033.12
523.507	1960.66
523.713	2052.3
523.919	1995.34
524.125	2092.6
524.331	2043.19
524.537	2173.97
524.742	2163.32
524.948	2156.34
525.154	2201.29
525.36	2287.12
525.566	2179.98
525.772	2229.97
525.977	2115.66
526.183	2151.11
526.389	2243.33
526.595	2135.03
526.8	2127.67
527.006	2029.63
527.212	1978.29
527.417	1948.84
527.623	1971.89
527.829	2032.34
528.034	2068.19
528.24	2099.57
528.446	2083.49
528.651	2189.67
528.857	2190.44
529.062	2255.73
529.268	2208.27
529.473	2251.08
529.679	2269.1
529.884	2332.26
530.09	2278.6
530.295	2301.46
530.501	2287.7
530.706	2280.34
530.912	2267.55
531.117	2308.82
531.323	2291.97
531.528	2326.45
531.733	2379.93
531.939	2341.56
532.144	2334.78
532.35	2332.65
532.555	2400.27
532.76	2324.13
532.966	2325.87
533.171	2306.3
533.376	2230.74
533.581	2220.67
533.787	2275.88
533.992	2302.43
534.197	2317.15
534.402	2323.93
534.607	2313.08
534.813	2412.48
535.018	2318.12
535.223	2336.53
535.428	2331.88
535.633	2390.39
535.838	2432.04
536.043	2395.23
536.249	2512.45
536.454	2392.91
536.659	2427.2
536.864	2408.02
537.069	2386.13
537.274	2411.7
537.479	2397.36
537.684	2372.56
537.889	2318.12
538.094	2465.18
538.299	2381.48
538.504	2425.46
538.708	2420.81
538.913	2444.44
539.118	2377.6
539.323	2423.52
539.528	2415.38
539.733	2394.26
539.938	2408.41
540.142	2386.51
540.347	2372.95
540.552	2318.7
540.757	2322.77
540.962	2353
541.166	2272.2
541.371	2254.77
541.576	2311.34
541.781	2261.55
541.985	2412.86
542.19	2354.93
542.395	2460.14
542.599	2475.44
542.804	2419.64
543.008	2502.96
543.213	2409.38
543.418	2379.93
543.622	2438.83
543.827	2344.86
544.031	2441.73
544.236	2457.23
544.44	2454.91
544.645	2548.87
544.849	2466.14
545.054	2488.42
545.258	2565.54
545.463	2538.02
545.667	2447.54
545.872	2522.91
546.076	2480.29
546.281	2510.51
546.485	2421.97
546.689	2512.45
546.894	2495.4
547.098	2489.97
547.302	2457.23
547.507	2504.7
547.711	2493.07
547.915	2549.65
548.119	2440.76
548.324	2451.61
548.528	2485.32
548.732	2449.68
548.936	2501.41
549.141	2519.04
549.345	2452.58
549.549	2484.16
549.753	2492.49
549.957	2550.42
550.161	2550.42
550.366	2519.23
550.57	2464.98
550.774	2495.01
550.978	2505.86
551.182	2492.11
551.386	2439.79
551.59	2484.55
551.794	2493.07
551.998	2532.41
552.202	2482.81
552.406	2435.34
552.61	2506.83
552.814	2493.27
553.018	2569.6
553.222	2481.64
553.426	2474.86
553.63	2550.23
553.833	2453.94
554.037	2411.31
554.241	2529.11
554.445	2489.59
554.649	2496.76
554.853	2456.84
555.056	2495.4
555.26	2525.04
555.464	2472.54
555.668	2509.16
555.871	2536.47
556.075	2521.94
556.279	2426.43
556.483	2449.48
556.686	2445.03
556.89	2479.32
557.094	2474.28
557.297	2376.63
557.501	2512.84
557.704	2366.95
557.908	2469.83
558.112	2371.98
558.315	2479.12
558.519	2413.83
558.722	2396.98
558.926	2408.79
559.129	2322.96
559.333	2336.91
559.536	2339.05
559.74	2324.71
559.943	2297
560.147	2314.44
560.35	2321.41
560.553	2316.38
560.757	2296.23
560.96	2372.56
561.164	2359.78
561.367	2439.21
561.57	2363.46
561.774	2368.69
561.977	2319.48
562.18	2307.66
562.384	2450.84
562.587	2329.94
562.79	2319.09
562.993	2321.8
563.197	2375.66
563.4	2351.25
563.603	2395.81
563.806	2425.46
564.009	2329.36
564.212	2393.49
564.416	2267.36
564.619	2302.04
564.822	2234.62
565.025	2380.12
565.228	2291.38
565.431	2322.77
565.634	2197.22
565.837	2256.51
566.04	2238.49
566.243	2253.41
566.446	2152.66
566.649	2232.48
566.852	2197.61
567.055	2229
567.258	2234.62
567.461	2287.9
567.664	2233.65
567.867	2168.16
568.07	2251.08
568.273	2239.27
568.475	2303.2
568.678	2209.62
568.881	2181.72
569.084	2168.35
569.287	2080.59
569.489	2118.17
569.692	2182.3
569.895	2193.93
570.098	2101.51
570.3	2099.19
570.503	2052.11
570.706	2084.46
570.909	2107.32
571.111	2023.04
571.314	2015.1
571.516	2046.1
571.719	2095.12
571.922	2029.05
572.124	2079.04
572.327	2074.19
572.529	2007.74
572.732	2043.58
572.935	2050.94
573.137	2161.57
573.34	2065.28
573.542	2128.64
573.745	2080.97
573.947	2087.56
574.15	2057.72
574.352	2073.42
574.554	2126.7
574.757	2039.32
574.959	2036.8
575.162	2060.44
575.364	2017.43
575.566	2113.91
575.769	1964.34
575.971	2013.16
576.173	1898.08
576.376	1975.58
576.578	2020.91
576.78	2076.71
576.982	1936.44
577.185	1971.51
577.387	1948.45
577.589	1955.81
577.791	2008.51
577.993	2018.78
578.196	1963.95
578.398	1956.01
578.6	1976.35
578.802	1898.27
579.004	1891.49
579.206	1869.98
579.408	1930.82
579.61	1896.91
579.812	1974.99
580.014	1895.36
580.216	1936.44
580.418	1934.11
580.62	1916.29
580.822	1898.08
581.024	1934.89
581.226	1932.18
581.428	1913.19
581.63	2002.12
581.832	1871.34
582.034	1957.36
582.236	1935.47
582.438	1961.82
582.64	1998.44
582.841	2010.26
583.043	2046.68
583.245	1961.43
583.447	1951.74
583.649	1956.39
583.85	1963.56
584.052	1971.7
584.254	1900.4
584.456	1962.59
584.657	1862.82
584.859	1943.22
585.061	1916.68
585.262	1904.28
585.464	1873.28
585.666	1917.06
585.867	1877.93
586.069	1950.2
586.27	1876.76
586.472	1892.26
586.674	1847.32
586.875	1832.01
587.077	1831.43
587.278	1836.47
587.48	1864.75
587.681	1976.93
587.883	1880.25
588.084	1815.15
588.285	1849.06
588.487	1797.91
588.688	1875.41
588.89	1797.52
589.091	1749.67
589.292	1750.25
589.494	1678.17
589.695	1617.92
589.896	1611.14
590.098	1603.58
590.299	1626.44
590.5	1606.49
590.702	1699.68
590.903	1701.62
591.104	1756.06
591.305	1704.14
591.507	1791.52
591.708	1759.74
591.909	1714.21
592.11	1837.05
592.311	1784.93
592.512	1737.65
592.714	1731.84
592.915	1699.49
593.116	1708.79
593.317	1762.45
593.518	1679.34
593.719	1757.8
593.92	1789.19
594.121	1798.49
594.322	1767.1
594.523	1740.17
594.724	1705.49
594.925	1734.94
595.126	1722.15
595.327	1729.9
595.528	1753.54
595.729	1750.25
595.929	1738.04
596.13	1723.9
596.331	1757.03
596.532	1727.39
596.733	1799.27
596.934	1792.48
597.135	1768.07
597.335	1766.52
597.536	1752.57
597.737	1768.27
597.938	1751.6
598.138	1769.62
598.339	1720.22
598.54	1723.51
598.74	1728.35
598.941	1718.86
599.142	1795.78
599.342	1726.8
599.543	1697.94
599.744	1725.64
599.944	1719.83
600.145	1695.61
600.345	1737.27
600.546	1802.17
600.746	1742.5
600.947	1807.21
601.147	1721.96
601.348	1737.85
601.548	1670.23
601.749	1723.51
601.949	1678.76
602.15	1685.92
602.35	1690.96
602.551	1745.79
602.751	1650.86
602.951	1675.46
603.152	1653.37
603.352	1706.07
603.552	1700.65
603.753	1738.82
603.953	1748.12
604.153	1735.33
604.354	1703.94
604.554	1712.47
604.754	1696.97
604.954	1689.8
605.155	1723.32
605.355	1689.41
605.555	1723.7
605.755	1753.15
605.955	1693.29
606.155	1753.15
606.356	1716.92
606.556	1730.49
606.756	1699.29
606.956	1669.84
607.156	1760.71
607.356	1681.08
607.556	1702.97
607.756	1714.99
607.956	1743.47
608.156	1715.37
608.356	1665.39
608.556	1704.52
608.756	1696.19
608.956	1675.66
609.156	1690.77
609.356	1620.05
609.556	1634.58
609.755	1648.72
609.955	1638.65
610.155	1662.09
610.355	1657.44
610.555	1600.87
610.755	1640.2
610.954	1592.73
611.154	1651.24
611.354	1678.17
611.554	1618.31
611.753	1634.58
611.953	1585.56
612.153	1651.24
612.352	1657.06
612.552	1563.28
612.752	1581.49
612.951	1603
613.151	1580.14
613.351	1568.51
613.55	1571.23
613.75	1626.64
613.949	1563.67
614.149	1583.63
614.348	1589.63
614.548	1570.26
614.747	1477.84
614.947	1556.89
615.146	1497.99
615.346	1609.78
615.545	1602.42
615.745	1578.39
615.944	1590.02
616.144	1569.48
616.343	1568.71
616.542	1548.17
616.742	1532.28
616.941	1527.05
617.14	1447.03
617.34	1512.71
617.539	1489.46
617.738	1489.85
617.938	1596.99
618.137	1502.45
618.336	1482.49
618.535	1524.14
618.734	1505.74
618.934	1553.59
619.133	1540.42
619.332	1528.6
619.531	1468.93
619.73	1483.65
619.929	1532.86
620.128	1526.66
620.328	1567.54
620.527	1498.96
620.726	1499.35
620.925	1532.67
621.124	1497.8
621.323	1491.79
621.522	1443.93
621.721	1453.04
621.92	1444.71
622.119	1520.08
622.318	1433.28
622.517	1492.18
622.715	1464.47
622.914	1412.93
623.113	1452.65
623.312	1422.82
623.511	1463.31
623.71	1438.9
623.909	1396.85
624.107	1485.59
624.306	1400.15
624.505	1386.97
624.704	1403.05
624.902	1398.02
625.101	1478.61
625.3	1414.1
625.499	1391.23
625.697	1398.79
625.896	1342.41
626.095	1420.1
626.293	1362.37
626.492	1355.78
626.69	1419.91
626.889	1366.63
627.088	1477.84
627.286	1387.55
627.485	1391.62
627.683	1374.38
627.882	1408.28
628.08	1317.42
628.279	1357.91
628.477	1457.69
628.676	1309.86
628.874	1365.08
629.073	1342.02
629.271	1337.57
629.469	1408.48
629.668	1329.04
629.866	1322.45
630.065	1341.63
630.263	1361.78
630.461	1343.38
630.66	1332.34
630.858	1372.83
631.056	1393.75
631.254	1380.38
631.453	1317.61
631.651	1396.47
631.849	1359.65
632.047	1384.26
632.245	1320.13
632.444	1362.37
632.642	1365.47
632.84	1367.79
633.038	1320.13
633.236	1301.53
633.434	1307.73
633.632	1280.22
633.83	1347.45
634.028	1355.39
634.227	1315.67
634.425	1402.28
634.623	1326.72
634.821	1356.36
635.019	1322.26
635.216	1299.59
635.414	1371.86
635.612	1343.57
635.81	1322.45
636.008	1392.01
636.206	1340.67
636.404	1344.35
636.602	1300.56
636.8	1315.29
636.997	1348.42
637.195	1338.15
637.393	1343.18
637.591	1388.52
637.789	1336.99
637.986	1307.92
638.184	1356.94
638.382	1363.72
638.58	1346.48
638.777	1373.6
638.975	1314.51
639.173	1328.85
639.37	1316.64
639.568	1346.67
639.765	1383.87
639.963	1301.34
640.161	1344.73
640.358	1345.9
640.556	1273.63
640.753	1255.03
640.951	1241.66
641.148	1316.25
641.346	1251.93
641.543	1250.96
641.741	1273.05
641.938	1262.78
642.136	1275.76
642.333	1224.22
642.531	1300.37
642.728	1327.3
642.925	1290.68
643.123	1245.15
643.32	1266.85
643.517	1245.73
643.715	1243.21
643.912	1267.62
644.109	1273.44
644.306	1248.83
644.504	1229.65
644.701	1251.74
644.898	1260.84
645.095	1244.57
645.293	1218.8
645.49	1257.55
645.687	1231.59
645.884	1249.8
646.081	1177.14
646.278	1188.19
646.475	1185.09
646.672	1209.89
646.87	1232.36
647.067	1189.35
647.264	1239.14
647.461	1161.64
647.658	1129.68
647.855	1214.15
648.052	1159.9
648.249	1077.36
648.446	1189.16
648.642	1167.84
648.839	1126.58
649.036	1122.31
649.233	1092.09
649.43	1107.39
649.627	1092.09
649.824	1130.26
650.021	1120.96
650.217	1114.95
650.414	1114.76
650.611	1125.03
650.808	1144.79
651.004	1134.13
651.201	1147.11
651.398	1200.97
651.595	1153.89
651.791	1103.13
651.988	1184.31
652.185	1120.18
652.381	1163.97
652.578	1080.85
652.775	1147.69
652.971	1160.48
653.168	1108.75
653.364	1140.33
653.561	1101.97
653.757	1137.62
653.954	1144.79
654.15	1122.51
654.347	1206.79
654.543	1123.86
654.74	1088.21
654.936	1072.13
655.133	1119.6
655.329	1103.71
655.525	1108.75
655.722	1129.29
655.918	1060.31
656.115	1104.68
656.311	1027.76
656.507	942.52
656.704	918.88
656.9	916.55
657.096	920.43
657.292	927.02
657.489	1012.65
657.685	1007.61
657.881	1003.74
658.077	1011.68
658.273	1046.17
658.47	1081.63
658.666	1033.38
658.862	1118.44
659.058	1047.72
659.254	1092.67
659.45	1059.15
659.646	1083.95
659.842	1057.41
660.038	1123.86
660.234	1018.85
660.43	1091.12
660.626	1138.98
660.822	1151.38
661.018	1127.93
661.214	1095.19
661.41	1002.58
661.606	1135.49
661.802	1119.21
661.998	1095.96
662.194	1039.78
662.39	1073.3
662.586	1093.83
662.781	1105.65
662.977	1116.89
663.173	1100.81
663.369	1074.07
663.564	1085.5
663.76	1116.11
663.956	1064.38
664.152	1133.55
664.347	990.18
664.543	1101
664.739	1055.28
664.934	1020.79
665.13	989.02
665.326	1113.01
665.521	1039.78
665.717	1044.81
665.912	1047.72
666.108	986.3
666.304	1032.03
666.499	998.31
666.695	967.51
666.89	1057.02
667.086	1075.04
667.281	1051.6
667.477	1132.78
667.672	1037.26
667.867	1051.79
668.063	1046.56
668.258	982.04
668.454	1029.31
668.649	1110.3
668.844	1062.83
669.04	1071.16
669.235	1015.36
669.43	1030.86
669.626	991.34
669.821	1021.95
670.016	1004.13
670.211	1049.66
670.407	987.08
670.602	1034.35
670.797	994.25
670.992	1067.1
671.187	988.05
671.382	1039.78
671.578	969.64
671.773	998.12
671.968	946.97
672.163	986.88
672.358	1020.6
672.553	964.41
672.748	1004.13
672.943	1094.22
673.138	1006.26
673.333	1000.64
673.528	983.59
673.723	1018.27
673.918	967.32
674.113	928.95
674.308	1082.4
674.503	988.05
674.698	1038.23
674.892	995.21
675.087	1021.95
675.282	1008.58
675.477	969.83
675.672	1020.98
675.867	982.23
676.061	949.88
676.256	922.17
676.451	964.02
676.646	1006.84
676.84	946
677.035	941.55
677.23	906.87
677.424	999.09
677.619	994.83
677.814	1005.48
678.008	987.85
678.203	915.39
678.397	949.1
678.592	973.32
678.787	1026.02
678.981	924.69
679.176	981.27
679.37	1008.97
679.565	929.92
679.759	943.1
679.954	990.37
680.148	1029.7
680.342	1010.91
680.537	967.7
680.731	944.45
680.926	1006.06
681.12	1009.75
681.314	977.39
681.509	953.37
681.703	973.52
681.897	1000.06
682.092	944.65
682.286	940.97
682.48	1020.01
682.674	1003.55
682.869	966.73
683.063	979.13
683.257	1018.46
683.451	940.38
683.645	1003.74
683.839	933.8
684.034	938.45
684.228	976.23
684.422	919.07
684.616	904.54
684.81	972.93
685.004	893.69
685.198	944.26
685.392	992.7
685.586	926.24
685.78	933.6
685.974	977.97
686.168	956.27
686.362	1009.75
686.556	899.12
686.75	845.06
686.944	876.25
687.138	876.84
687.331	782.29
687.525	810.96
687.719	695.68
687.913	764.07
688.107	769.5
688.301	774.34
688.494	818.9
688.688	752.26
688.882	737.72
689.076	724.55
689.269	772.6
689.463	876.84
689.657	784.81
689.85	795.27
690.044	804.76
690.238	826.65
690.431	794.3
690.625	791.97
690.818	848.16
691.012	836.34
691.205	874.12
691.399	806.7
691.593	842.54
691.786	890.79
691.98	907.83
692.173	901.44
692.366	918.49
692.56	921.59
692.753	956.27
692.947	861.34
693.14	946.58
693.333	924.88
693.527	871.8
693.72	925.85
693.914	909.77
694.107	883.04
694.3	920.04
694.493	882.84
694.687	955.11
694.88	882.84
695.073	966.35
695.266	933.02
695.46	938.25
695.653	971.19
695.846	966.93
696.039	878.58
696.232	900.67
696.425	979.33
696.618	986.88
696.812	964.41
697.005	1034.16
697.198	1102.74
697.391	1029.12
697.584	1045.2
697.777	1085.5
697.97	1059.35
698.163	1094.41
698.356	1081.63
698.549	1175.79
698.742	1119.41
698.935	1083.95
699.127	1118.05
699.32	1077.17
699.513	1095.58
699.706	1102.16
699.899	1149.63
700.092	1103.13
700.285	1154.09
700.477	1090.15
700.67	1174.62
700.863	1162.81
701.056	1283.32
701.248	1208.53
701.441	1220.35
701.634	1190.51
701.826	1278.28
702.019	1193.03
702.212	1258.32
702.404	1216.86
702.597	1215.31
702.79	1238.37
702.982	1298.04
703.175	1287.77
703.367	1340.86
703.56	1296.3
703.752	1414.48
703.945	1349.38
704.137	1387.36
704.33	1400.73
704.522	1407.12
704.715	1416.62
704.907	1421.65
705.1	1465.05
705.292	1507.68
705.484	1463.11
705.677	1510.78
705.869	1523.95
706.061	1533.06
706.254	1558.44
706.446	1527.63
706.638	1520.85
706.831	1589.83
707.023	1561.93
707.215	1683.99
707.407	1645.04
707.599	1647.17
707.792	1692.51
707.984	1688.06
708.176	1720.99
708.368	1657.06
708.56	1727.77
708.752	1698.52
708.944	1719.64
709.136	1786.48
709.329	1735.52
709.521	1858.94
709.713	1838.79
709.905	1835.3
710.097	1870.18
710.289	1825.03
710.481	1849.64
710.672	1882.38
710.864	1894.78
711.056	1948.84
711.248	1966.86
711.44	1924.81
711.632	1961.82
711.824	2003.48
712.016	2048.81
712.207	2023.24
712.399	2029.24
712.591	2086.59
712.783	2086.59
712.975	2062.37
713.166	2051.72
713.358	2048.23
713.55	2141.23
713.741	2150.14
713.933	2163.12
714.125	2179.2
714.316	2148.4
714.508	2221.44
714.7	2246.43
714.891	2202.45
715.083	2324.71
715.274	2235.58
715.466	2271.62
715.657	2324.13
715.849	2215.24
716.04	2287.32
716.232	2203.42
716.423	2290.8
716.615	2226.48
716.806	2205.94
716.998	2160.6
717.189	2117.59
717.381	2092.99
717.572	2050.75
717.763	2078.84
717.955	2057.34
718.146	2011.42
718.337	1997.28
718.528	1928.5
718.72	1877.73
718.911	1930.05
719.102	1891.3
719.293	1982.74
719.485	1984.88
719.676	1943.61
719.867	1897.11
720.058	1948.26
720.249	1928.11
720.44	1929.66
720.632	2013.55
720.823	2040.29
721.014	2141.23
721.205	2189.09
721.396	2256.12
721.587	2329.55
721.778	2375.66
721.969	2376.63
722.16	2487.07
722.351	2503.92
722.542	2578.71
722.733	2629.47
722.924	2530.08
723.115	2595.76
723.305	2615.33
723.496	2630.44
723.687	2467.89
723.878	2515.74
724.069	2502.57
724.26	2517.87
724.45	2438.63
724.641	2428.94
724.832	2496.17
725.023	2496.17
725.213	2507.22
725.404	2463.82
725.595	2470.02
725.785	2457.23
725.976	2567.09
726.167	2525.04
726.357	2560.89
726.548	2633.54
726.739	2569.41
726.929	2616.69
727.12	2681.4
727.31	2714.92
727.501	2656.6
727.691	2663.77
727.882	2693.6
728.072	2754.05
728.263	2739.33
728.453	2757.93
728.644	2802.49
728.834	2782.34
729.024	2751.73
729.215	2759.28
729.405	2761.03
729.596	2860.42
729.786	2850.34
729.976	2884.25
730.167	2946.06
730.357	2914.47
730.547	2881.73
730.737	2861.19
730.928	2961.17
731.118	3051.65
731.308	2976.67
731.498	3009.22
731.688	3057.07
731.879	3092.53
732.069	3122.95
732.259	3147.94
732.449	3156.66
732.639	3269.03
732.829	3293.06
733.019	3306.62
733.209	3345.37
733.399	3362.61
733.589	3437.59
733.779	3435.46
733.969	3437.2
734.159	3535.63
734.349	3593.75
734.539	3595.88
734.729	3607.12
734.919	3670.09
735.109	3724.92
735.299	3622.62
735.488	3681.71
735.678	3655.36
735.868	3642.96
736.058	3633.28
736.248	3675.71
736.437	3614.48
736.627	3595.5
736.817	3755.34
737.007	3628.05
737.196	3777.81
737.386	3716.2
737.576	3703.99
737.765	3780.53
737.955	3757.47
738.144	3893.87
738.334	3809.59
738.524	3755.92
738.713	3760.96
738.903	3805.13
739.092	3804.16
739.282	3849.11
739.471	3894.84
739.661	3813.46
739.85	3900.84
740.04	3896.58
740.229	3901.04
740.419	3903.94
740.608	4001.98
740.797	3908.98
740.987	4039.18
741.176	3946.76
741.365	3968.65
741.555	3871.59
741.744	3998.68
741.933	3939.79
742.123	3967.88
742.312	4007.98
742.501	4082.38
742.69	4094.4
742.88	3949.86
743.069	4093.04
743.258	4017.09
743.447	4097.69
743.636	4120.94
743.825	4058.75
744.014	4062.81
744.204	4093.81
744.393	4017.28
744.582	4117.65
744.771	4170.34
744.96	4117.45
745.149	4132.37
745.338	4080.25
745.527	4159.11
745.716	4182.55
745.905	4075.02
746.094	4184.49
746.283	4177.9
746.471	4166.08
746.66	4233.12
746.849	4191.08
747.038	4193.21
747.227	4146.9
747.416	4224.01
747.604	4153.49
747.793	4161.82
747.982	4162.01
748.171	4176.93
748.359	4225.37
748.548	4220.33
748.737	4182.55
748.926	4189.91
749.114	4057.78
749.303	4184.68
749.491	4178.68
749.68	4089.55
749.869	4199.6
750.057	4183.71
750.246	4150
750.434	4153.68
750.623	4155.62
750.811	4141.09
751	4180.81
751.188	4138.96
751.377	4132.56
751.565	4104.86
751.754	4074.44
751.942	4068.63
752.131	4129.66
752.319	4098.08
752.507	4027.75
752.696	4128.3
752.884	4139.93
753.072	4078.31
753.261	4065.14
753.449	4095.75
753.637	4012.25
753.825	4133.92
754.014	4131.4
754.202	4135.08
754.39	4174.22
754.578	4172.86
754.766	4052.74
754.955	4025.42
755.143	4148.26
755.331	4089.75
755.519	4078.9
755.707	4075.41
755.895	4026.78
756.083	4065.33
756.271	4029.68
756.459	4016.9
756.647	4070.18
756.835	4005.08
757.023	4017.28
757.211	3998.88
757.399	3988.22
757.587	4011.86
757.775	3945.4
757.963	3986.87
758.151	3990.16
758.339	3928.94
758.526	3925.06
758.714	3969.23
758.902	3919.05
759.09	3825.47
759.278	3656.33
759.465	3441.66
759.653	3092.72
759.841	2847.83
760.028	2530.66
760.216	2209.24
760.404	2097.25
760.591	1766.14
760.779	1520.46
760.967	1388.72
761.154	1200.2
761.342	1282.35
761.529	1285.25
761.717	1369.15
761.905	1350.93
762.092	1508.84
762.28	1476.48
762.467	1501.86
762.655	1408.87
762.842	1462.15
763.029	1495.66
763.217	1504.38
763.404	1517.36
763.592	1551.66
763.779	1488.5
763.966	1585.18
764.154	1586.53
764.341	1659.77
764.528	1681.08
764.716	1790.35
764.903	1837.05
765.09	1840.53
765.277	1888.97
765.465	2069.54
765.652	2157.7
765.839	2212.72
766.026	2330.52
766.213	2406.86
766.4	2449.09
766.588	2664.35
766.775	2673.07
766.962	2764.9
767.149	2841.24
767.336	2976.28
767.523	2968.92
767.71	3035.57
767.897	3180.68
768.084	3268.64
768.271	3254.7
768.458	3296.93
768.645	3378.89
768.832	3341.11
769.019	3390.9
769.206	3363.39
769.392	3484.29
769.579	3577.09
769.766	3504.44
769.953	3481.96
770.14	3526.91
770.327	3515.87
770.513	3538.34
770.7	3609.06
770.887	3550.35
771.073	3574.38
771.26	3577.67
771.447	3548.61
771.634	3505.21
771.82	3659.43
772.007	3508.31
772.193	3572.63
772.38	3568.37
772.567	3574.38
772.753	3563.33
772.94	3592.2
773.126	3622.23
773.313	3608.09
773.499	3562.17
773.686	3611
773.872	3513.93
774.059	3569.34
774.245	3558.68
774.432	3519.16
774.618	3445.54
774.804	3512.38
774.991	3499.2
775.177	3534.08
775.363	3496.1
775.55	3553.26
775.736	3443.6
775.922	3460.45
776.109	3451.15
776.295	3487.19
776.481	3531.75
776.667	3476.54
776.853	3445.34
777.04	3424.61
777.226	3433.52
777.412	3539.7
777.598	3457.55
777.784	3432.94
777.97	3412.02
778.156	3449.8
778.342	3393.42
778.528	3406.79
778.715	3316.5
778.901	3364.94
779.087	3371.14
779.272	3378.5
779.458	3323.67
779.644	3374.62
779.83	3342.85
780.016	3391.48
780.202	3361.06
780.388	3322.7
780.574	3277.17
780.76	3310.3
780.946	3337.62
781.131	3285.5
781.317	3288.41
781.503	3274.26
781.689	3283.76
781.874	3389.74
782.06	3252.95
782.246	3292.67
782.432	3265.93
782.617	3264.58
782.803	3343.82
782.989	3200.25
783.174	3208.58
783.36	3204.71
783.545	3223.5
783.731	3228.35
783.916	3129.92
784.102	3213.62
784.288	3134.57
784.473	3215.56
784.659	3128.76
784.844	3193.08
785.029	3120.43
785.215	3149.1
785.4	3076.25
785.586	3193.28
785.771	3065.4
785.956	3157.24
786.142	3048.16
786.327	3091.95
786.512	3127.4
786.698	3114.81
786.883	3009.02
787.068	3056.49
787.254	3105.7
787.439	3044.29
787.624	3017.16
787.809	3009.02
787.994	3009.02
788.18	3090.98
788.365	2959.04
788.55	2984.61
788.735	2995.85
788.92	2944.31
789.105	2977.44
789.29	3004.18
789.475	2930.17
789.66	2997.4
789.845	2939.27
790.03	2904.01
790.215	2969.69
790.4	2954.19
790.585	2984.22
790.77	2933.07
790.955	2816.44
791.14	2885.03
791.325	2990.23
791.51	2793.58
791.695	2911.96
791.879	2885.22
792.064	2823.03
792.249	2918.93
792.434	2876.11
792.618	2871.08
792.803	2927.84
792.988	2880.38
793.173	2876.31
793.357	2900.72
793.542	2798.81
793.727	2848.79
793.911	2880.96
794.096	2877.08
794.281	2908.86
794.465	2920.09
794.65	2902.85
794.834	2909.63
795.019	2941.02
795.203	2915.64
795.388	2964.66
795.572	2954.77
795.757	2915.44
795.941	2896.65
796.126	2915.64
796.31	2865.26
796.494	2911.18
796.679	2901.69
796.863	2888.9
797.048	2929.97
797.232	2914.67
797.416	2935.79
797.601	2942.57
797.785	2962.52
797.969	2975.31
798.153	2902.85
798.338	2945.09
798.522	2958.26
798.706	2990.23
798.89	2988.1
799.074	3073.35
799.258	3045.06
799.443	2948.57
799.627	2960.39
799.811	3004.95
799.995	2987.52
800.179	2950.12
800.363	2920.48
800.547	2975.51
800.731	2975.31
800.915	2910.6
801.099	2935.59
801.283	2954.97
801.467	2929.59
801.651	2898.78
801.835	3003.4
802.019	2957.49
802.202	2964.27
802.386	2900.91
802.57	2897.04
802.754	2932.11
802.938	2879.99
803.121	2905.18
803.305	2981.71
803.489	2927.26
803.673	2896.84
803.856	2919.32
804.04	2880.57
804.224	2917.38
804.407	2904.79
804.591	2903.63
804.775	2935.4
804.958	2925.91
805.142	3016.77
805.326	2942.57
805.509	2937.34
805.693	2960.59
805.876	2913.31
806.06	2934.62
806.243	2955.55
806.427	2965.82
806.61	2966.01
806.794	2887.35
806.977	2959.81
807.16	2964.85
807.344	2967.17
807.527	2960.2
807.71	2896.07
807.894	2931.52
808.077	2928.23
808.26	2935.01
808.444	2870.49
808.627	2931.33
808.81	2895.68
808.993	2814.31
809.177	2818.38
809.36	2857.71
809.543	2859.64
809.726	2760.64
809.909	2770.91
810.092	2738.55
810.276	2743.98
810.459	2736.42
810.642	2757.93
810.825	2689.34
811.008	2757.73
811.191	2644.39
811.374	2692.44
811.557	2675.39
811.74	2770.13
811.923	2604.09
812.106	2613.59
812.289	2587.62
812.472	2603.51
812.654	2613.78
812.837	2572.9
813.02	2525.82
813.203	2520.59
813.386	2396.39
813.569	2435.92
813.751	2359.2
813.934	2413.44
814.117	2350.48
814.3	2301.07
814.482	2274.33
814.665	2196.84
814.848	2204.2
815.03	2133.67
815.213	2150.34
815.396	2113.14
815.578	2081.94
815.761	2038.16
815.943	2120.89
816.126	2002.51
816.309	1984.49
816.491	1943.61
816.674	1846.73
816.856	1898.08
817.039	1916.87
817.221	1984.29
817.403	1944.38
817.586	1966.28
817.768	1974.99
817.951	1905.44
818.133	1847.12
818.315	1910.09
818.498	1906.99
818.68	2019.17
818.862	1954.65
819.045	1985.26
819.227	1991.08
819.409	1934.11
819.591	1973.06
819.774	1901.37
819.956	1929.08
820.138	2000.76
820.32	1950.97
820.502	2009.87
820.684	2092.99
820.866	2099.57
821.048	2111.97
821.231	2117.01
821.413	2151.69
821.595	2094.73
821.777	2143.75
821.959	2097.06
822.141	2173.39
822.323	2041.64
822.505	2001.54
822.686	1955.04
822.868	1878.31
823.05	1756.64
823.232	1753.35
823.414	1641.56
823.596	1737.07
823.778	1732.04
823.96	1737.65
824.141	1753.35
824.323	1781.05
824.505	1861.85
824.687	1890.71
824.868	1917.65
825.05	2038.54
825.232	2037.96
825.413	2109.84
825.595	2101.32
825.777	1965.89
825.958	2057.72
826.14	2037.58
826.321	2095.89
826.503	2045.52
826.685	2033.12
826.866	2117.98
827.048	2065.86
827.229	2023.04
827.411	2051.52
827.592	1931.6
827.773	1934.89
827.955	1920.55
828.136	1902.73
828.318	1875.02
828.499	1887.81
828.68	1883.16
828.862	1884.32
829.043	1916.68
829.224	1836.47
829.406	1848.87
829.587	1851.97
829.768	1845.38
829.949	1859.52
830.131	1841.7
830.312	1960.66
830.493	1858.36
830.674	1909.12
830.855	1853.9
831.036	1857.58
831.218	1936.05
831.399	1940.51
831.58	1853.71
831.761	1875.8
831.942	1886.84
832.123	1899.05
832.304	1787.45
832.485	1847.9
832.666	1839.76
832.847	1865.53
833.028	1817.28
833.209	1830.85
833.389	1851.38
833.57	1768.27
833.751	1802.75
833.932	1875.02
834.113	1832.78
834.294	1783.96
834.475	1854.68
834.655	1877.15
834.836	1930.05
835.017	1889.55
835.198	1845.96
835.378	1883.16
835.559	1875.21
835.74	1838.98
835.92	1849.83
836.101	1863.2
836.281	1885.29
836.462	1863.01
836.643	1906.21
836.823	1915.71
837.004	1916.29
837.184	1937.6
837.365	1895.56
837.545	1932.37
837.726	1868.05
837.906	1925.2
838.087	1883.16
838.267	1888.2
838.448	1848.28
838.628	1888.97
838.808	1873.66
838.989	1956.98
839.169	1843.63
839.349	1893.81
839.53	1886.45
839.71	1932.95
839.89	1852.74
840.07	1921.33
840.251	1838.21
840.431	1925.59
840.611	1892.65
840.791	1833.95
840.971	1900.98
841.151	1839.18
841.332	1815.15
841.512	1894.4
841.692	1823.48
841.872	1909.51
842.052	1858.17
842.232	1897.69
842.412	1776.98
842.592	1804.3
842.772	1859.13
842.952	1837.43
843.132	1816.32
843.312	1812.44
843.492	1820.58
843.672	1825.42
843.851	1728.74
844.031	1782.22
844.211	1786.67
844.391	1755.48
844.571	1826.39
844.751	1820.19
844.93	1822.71
845.11	1782.99
845.29	1833.17
845.47	1858.17
845.649	1773.5
845.829	1841.7
846.009	1780.86
846.188	1800.23
846.368	1797.33
846.547	1790.35
846.727	1814.96
846.907	1703.17
847.086	1768.65
847.266	1812.25
847.445	1801.01
847.625	1731.65
847.804	1726.42
847.984	1776.79
848.163	1757.03
848.343	1712.47
848.522	1767.49
848.701	1752.57
848.881	1707.62
849.06	1709.37
849.239	1746.76
849.419	1747.54
849.598	1651.05
849.777	1653.96
849.957	1633.22
850.136	1595.44
850.315	1586.34
850.494	1589.83
850.674	1588.47
850.853	1677.98
851.032	1631.48
851.211	1683.79
851.39	1630.9
851.569	1582.08
851.748	1574.33
851.927	1654.92
852.107	1625.09
852.286	1599.32
852.465	1554.76
852.644	1626.64
852.823	1651.82
853.002	1603.97
853.181	1646.98
853.359	1623.73
853.538	1574.33
853.717	1618.89
853.896	1525.31
854.075	1479
854.254	1467.76
854.433	1375.35
854.611	1425.72
854.79	1307.73
854.969	1386.39
855.148	1426.5
855.327	1378.25
855.505	1449.16
855.684	1422.82
855.863	1468.73
856.041	1432.7
856.22	1462.73
856.399	1420.1
856.577	1572.58
856.756	1540.23
856.934	1660.93
857.113	1665.77
857.291	1585.95
857.47	1532.09
857.648	1562.7
857.827	1569.09
858.005	1589.63
858.184	1522.59
858.362	1601.64
858.541	1554.18
858.719	1516.01
858.898	1563.09
859.076	1521.43
859.254	1603.97
859.433	1495.86
859.611	1516.59
859.789	1446.45
859.967	1551.85
860.146	1581.11
860.324	1465.44
860.502	1478.81
860.68	1436.18
860.859	1484.81
861.037	1485.98
861.215	1480.36
861.393	1470.09
861.571	1459.05
861.749	1478.61
861.927	1516.2
862.105	1495.28
862.283	1466.8
862.461	1431.73
862.639	1417.2
862.817	1442.96
862.995	1441.8
863.173	1429.21
863.351	1444.9
863.529	1430.56
863.707	1480.94
863.885	1482.88
864.063	1401.89
864.241	1423.4
864.418	1500.7
864.596	1409.45
864.774	1367.98
864.952	1430.95
865.129	1430.76
865.307	1360.62
865.485	1296.1
865.663	1428.24
865.84	1326.52
866.018	1324
866.196	1237.59
866.373	1255.22
866.551	1210.08
866.728	1148.47
866.906	1180.44
867.084	1234.69
867.261	1264.91
867.439	1243.6
867.616	1288.35
867.794	1284.29
867.971	1305.21
868.149	1286.42
868.326	1354.03
868.503	1324
868.681	1295.52
868.858	1294.75
869.035	1267.62
869.213	1319.94
869.39	1285.84
869.567	1403.44
869.745	1288.16
869.922	1344.73
870.099	1322.65
870.276	1308.31
870.454	1320.32
870.631	1313.74
870.808	1270.72
870.985	1345.32
871.162	1336.02
871.339	1315.29
871.517	1266.65
871.694	1271.5
871.871	1275.37
872.048	1284.29
872.225	1272.27
872.402	1304.63
872.579	1222.87
872.756	1266.46
872.933	1217.83
873.11	1250.96
873.287	1276.15
873.463	1216.28
873.64	1199.04
873.817	1267.24
873.994	1210.08
874.171	1203.3
874.348	1221.12
874.524	1171.14
874.701	1227.32
874.878	1174.04
875.055	1269.37
875.231	1196.32
875.408	1231.59
875.585	1178.31
875.762	1204.07
875.938	1181.79
876.115	1172.3
876.291	1197.68
876.468	1164.36
876.645	1154.48
876.821	1149.44
876.998	1179.47
877.174	1171.91
877.351	1166.49
877.527	1147.11
877.704	1200.2
877.88	1155.25
878.057	1150.21
878.233	1215.31
878.409	1143.82
878.586	1147.89
878.762	1163.19
878.938	1164.36
879.115	1073.88
879.291	1155.44
879.467	1080.85
879.644	1104.88
879.82	1165.91
879.996	1148.47
880.172	1067.87
880.349	1140.14
880.525	1135.1
880.701	1074.46
880.877	1073.1
881.053	1125.8
881.229	1071.94
881.405	1116.31
881.581	1052.95
881.757	1111.08
881.933	1090.15
882.109	1132.39
882.285	1105.46
882.461	1066.13
882.637	1134.13
882.813	1074.26
882.989	1075.43
883.165	1125.03
883.341	1082.21
883.517	1155.25
883.693	1088.21
883.869	1126.77
884.044	1063.22
884.22	1141.11
884.396	1160.48
884.572	1118.83
884.747	1126.19
884.923	1143.24
885.099	1150.79
885.275	1153.89
885.45	1051.4
885.626	1065.74
885.801	1038.81
885.977	1068.84
886.153	1021.76
886.328	1082.01
886.504	1074.46
886.679	1115.92
886.855	1032.41
887.03	1113.59
887.206	1117.08
887.381	1118.44
887.557	1098.29
887.732	1106.04
887.908	1086.47
888.083	1125.61
888.258	1074.26
888.434	1086.86
888.609	1057.41
888.784	1098.09
888.96	1087.24
889.135	1116.31
889.31	1048.3
889.485	1100.03
889.661	1087.83
889.836	1115.34
890.011	1116.31
890.186	1070.2
890.361	1051.6
890.537	1099.06
890.712	1085.89
890.887	1109.14
891.062	1114.56
891.237	1155.25
891.412	1060.51
891.587	1084.92
891.762	1119.41
891.937	1112.43
892.112	1046.36
892.287	1061.09
892.462	1024.28
892.637	1024.86
892.812	982.43
892.987	1012.26
893.161	1020.98
893.336	1008
893.511	994.63
893.686	983.59
893.861	987.85
894.035	1012.07
894.21	1007.03
894.385	977.2
894.56	1006.26
894.734	931.08
894.909	923.53
895.084	945.23
895.258	927.98
895.433	933.8
895.608	914.81
895.782	870.83
895.957	860.17
896.131	938.45
896.306	821.81
896.48	809.02
896.655	850.29
896.829	748.38
897.004	786.36
897.178	795.27
897.353	771.82
897.527	829.56
897.701	791.39
897.876	718.16
898.05	837.31
898.224	796.62
898.399	844.09
898.573	785.97
898.747	705.95
898.921	725.33
899.096	651.89
899.27	638.91
899.444	641.63
899.618	699.36
899.792	696.46
899.967	682.89
900.141	740.44
900.315	667.78
900.489	694.33
900.663	674.18
900.837	693.16
901.011	634.46
901.185	745.09
901.359	686.96
901.533	675.14
901.707	731.52
901.881	651.12
902.055	624.19
902.229	685.61
902.403	747.41
902.576	690.26
902.75	681.93
902.924	800.69
903.098	765.04
903.272	816.19
903.446	810.19
903.619	790.04
903.793	805.92
903.967	759.62
904.14	855.72
904.314	860.17
904.488	830.53
904.661	844.67
904.835	814.84
905.009	896.02
905.182	892.92
905.356	893.69
905.529	829.37
905.703	826.46
905.876	790.42
906.05	799.34
906.223	759.42
906.397	740.05
906.57	690.84
906.744	681.15
906.917	689.87
907.09	715.64
907.264	705.56
907.437	670.69
907.61	634.65
907.784	652.09
907.957	631.94
908.13	618.96
908.304	698.39
908.477	597.45
908.65	625.55
908.823	594.55
908.996	677.28
909.17	595.13
909.343	615.08
909.516	657.13
909.689	589.31
909.862	568
910.035	617.41
910.208	570.52
910.381	598.81
910.554	683.28
910.727	614.89
910.9	606.95
911.073	581.37
911.246	662.55
911.419	658.09
911.592	651.89
911.765	586.8
911.938	573.81
912.11	623.8
912.283	603.07
912.456	651.51
912.629	639.5
912.802	568.97
912.974	555.21
913.147	524.8
913.32	469.38
913.493	500
913.665	542.82
913.838	555.21
914.01	499.8
914.183	562.19
914.356	520.92
914.528	592.8
914.701	603.85
914.873	561.22
915.046	533.32
915.218	496.9
915.391	445.36
915.563	467.64
915.736	548.63
915.908	536.23
916.081	520.53
916.253	506.39
916.425	519.95
916.598	544.95
916.77	532.35
916.942	496.12
917.115	453.89
917.287	543.98
917.459	507.55
917.632	465.7
917.804	416.1
917.976	487.98
918.148	515.69
918.32	499.61
918.493	523.83
918.665	586.8
918.837	523.44
919.009	574.01
919.181	579.43
919.353	550.57
919.525	531.19
919.697	507.55
919.869	542.82
920.041	590.28
920.213	631.75
920.385	567.81
920.557	550.76
920.729	556.38
920.901	542.62
921.073	526.35
921.244	517.24
921.416	567.23
921.588	531.77
921.76	502.52
921.932	587.57
922.103	518.4
922.275	550.18
922.447	520.73
922.619	456.79
922.79	526.15
922.962	523.25
923.134	529.83
923.305	448.65
923.477	440.9
923.648	485.27
923.82	474.62
923.991	451.37
924.163	417.65
924.335	496.51
924.506	450.98
924.677	521.7
924.849	453.5
925.02	496.9
925.192	511.04
925.363	468.61
925.535	482.95
925.706	413
925.877	511.43
926.049	424.44
926.22	472.68
926.391	492.63
926.562	482.56
926.734	454.85
926.905	494.77
927.076	394.21
927.247	426.57
927.419	407.39
927.59	413.97
927.761	393.05
927.932	401.38
928.103	393.63
928.274	356.24
928.445	339.38
928.616	354.3
928.787	341.71
928.958	400.6
929.129	371.74
929.3	338.02
929.471	298.89
929.642	273.12
929.813	222.16
929.984	339.96
930.155	233.21
930.326	279.9
930.496	258.59
930.667	204.92
930.838	240.38
931.009	195.43
931.18	236.69
931.35	238.83
931.521	184.77
931.692	173.15
931.863	127.42
932.033	166.75
932.204	208.6
932.374	182.06
932.545	119.28
932.716	167.14
932.886	184.58
933.057	66.2
933.227	112.7
933.398	176.25
933.568	98.17
933.739	53.99
933.909	66.39
934.08	119.48
934.25	52.05
934.421	57.09
934.591	106.69
934.761	77.24
934.932	59.03
935.102	95.07
935.272	77.43
935.443	65.23
935.613	60
935.783	76.66
935.953	62.32
936.123	235.34
936.294	59.61
936.464	66.78
936.634	63.48
936.804	60.19
936.974	44.11
937.144	70.07
937.314	71.62
937.484	49.53
937.655	58.83
937.825	123.35
937.995	45.47
938.165	106.3
938.334	69.49
938.504	112.5
938.674	56.32
938.844	96.62
939.014	162.68
939.184	119.86
939.354	192.91
939.524	171.4
939.694	144.86
939.863	139.05
940.033	216.35
940.203	170.82
940.373	159.97
940.542	173.53
940.712	138.66
940.882	191.16
941.051	173.92
941.221	169.08
941.391	176.44
941.56	142.53
941.73	124.32
941.899	244.83
942.069	140.79
942.238	157.84
942.408	131.1
942.577	179.93
942.747	108.82
942.916	76.85
943.086	118.9
943.255	153.38
943.425	131.68
943.594	91.19
943.763	55.15
943.933	56.32
944.102	33.84
944.271	92.16
944.441	125.68
944.61	67.36
944.779	90.03
944.948	177.02
945.117	53.6
945.287	102.43
945.456	33.65
945.625	73.17
945.794	111.92
945.963	63.48
946.132	113.08
946.301	89.25
946.47	113.08
946.639	63.68
946.808	98.75
946.977	133.43
947.146	156.87
947.315	103.4
947.484	122
947.653	75.5
947.822	84.22
947.991	28.22
948.16	178.76
948.329	133.62
948.498	130.91
948.666	106.5
948.835	128.2
949.004	45.85
949.173	62.52
949.341	102.62
949.51	127.03
949.679	168.3
949.847	128
950.016	154.93
950.185	154.35
950.353	104.56
950.522	91.77
950.69	150.28
950.859	84.41
951.028	157.45
951.196	106.11
951.365	94.68
951.533	103.4
951.701	146.21
951.87	131.3
952.038	68.13
952.207	120.64
952.375	154.93
952.543	74.92
952.712	97.58
952.88	85.18
953.048	157.06
953.217	105.33
953.385	97
953.553	135.95
953.721	96.23
953.89	101.27
954.058	58.45
954.226	66
954.394	99.52
954.562	36.94
954.73	82.86
954.898	119.09
955.067	143.7
955.235	106.11
955.403	141.37
955.571	172.76
955.739	111.73
955.907	56.32
956.075	87.7
956.243	65.03
956.41	133.23
956.578	40.82
956.746	32.29
956.914	77.24
957.082	127.42
957.25	130.91
957.418	65.42
957.585	110.95
957.753	130.71
957.921	75.3
958.089	94.48
958.256	106.5
958.424	106.88
958.592	104.56
958.759	73.17
958.927	115.22
959.095	54.18
959.262	92.35
959.43	95.26
959.597	76.27
959.765	61.55
959.932	47.21
960.1	144.08
960.267	94.29
960.435	104.17
960.602	156.48
960.77	87.9
960.937	56.12
961.104	96.03
961.272	42.56
961.439	72.01
961.606	126.65
961.774	125.48
961.941	91
962.108	108.05
962.275	106.3
962.443	121.03
962.61	112.31
962.777	177.6
962.944	124.71
963.111	96.81
963.278	126.06
963.446	127.03
963.613	94.68
963.78	122.19
963.947	138.66
964.114	124.9
964.281	208.21
964.448	139.43
964.615	97.39
964.782	129.16
964.949	159.39
965.116	139.24
965.282	174.89
965.449	131.1
965.616	86.54
965.783	164.81
965.95	119.67
966.117	71.62
966.283	132.26
966.45	123.35
966.617	147.18
966.784	144.28
966.95	130.33
967.117	150.09
967.284	77.43
967.45	94.68
967.617	174.5
967.784	126.84
967.95	193.88
968.117	101.27
968.283	175.28
968.45	231.08
968.616	139.05
968.783	202.79
968.949	132.65
969.116	166.36
969.282	138.46
969.449	142.34
969.615	143.7
969.781	102.23
969.948	105.53
970.114	78.6
970.28	166.75
970.447	118.31
970.613	171.79
970.779	106.88
970.945	132.46
971.112	130.71
971.278	144.66
971.444	134.01
971.61	158.23
971.776	110.57
971.942	165.59
972.108	127.61
972.275	103.78
972.441	150.09
972.607	208.99
972.773	117.35
972.939	172.18
973.105	128.78
973.271	82.86
973.437	94.1
973.602	81.5
973.768	130.33
973.934	112.7
974.1	122.58
974.266	41.78
974.432	127.42
974.598	128.58
974.763	136.53
974.929	91
975.095	162.1
975.261	80.34
975.426	79.95
975.592	118.12
975.758	183.41
975.923	65.03
976.089	87.32
976.255	101.27
976.42	133.81
976.586	123.74
976.751	114.44
976.917	204.34
977.082	127.03
977.248	81.89
977.413	50.31
977.579	83.83
977.744	89.25
977.91	64.65
978.075	83.05
978.24	154.55
978.406	122.38
978.571	101.27
978.736	82.47
978.902	161.71
979.067	56.51
979.232	37.13
979.397	109.02
979.563	166.95
979.728	65.81
979.893	99.33
980.058	83.25
980.223	133.04
980.388	104.37
980.554	96.62
980.719	74.72
980.884	103.98
981.049	128.58
981.214	74.72
981.379	122.96
981.544	82.67
981.709	88.87
981.874	83.25
982.039	116.76
982.204	148.15
982.368	101.65
982.533	74.33
982.698	139.05
982.863	148.93
983.028	76.85
983.193	126.06
983.357	114.44
983.522	117.54
983.687	90.42
983.852	77.05
984.016	97
984.181	89.83
984.346	125.1
984.51	141.56
984.675	100.68
984.839	109.79
985.004	125.29
985.168	128.97
985.333	95.65
985.498	71.62
985.662	117.93
985.827	116.38
985.991	104.95
986.155	111.15
986.32	127.03
986.484	152.41
986.649	105.33
986.813	53.8
986.977	103.98
987.142	123.74
987.306	51.67
987.47	48.76
987.634	88.87
987.799	92.93
987.963	109.4
988.127	121.03
988.291	141.95
988.455	99.91
988.62	65.62
988.784	145.05
988.948	106.88
989.112	79.37
989.276	101.07
989.44	120.45
989.604	81.12
989.768	72.01
989.932	179.73
990.096	48.76
990.26	32.68
990.424	73.37
990.588	83.44
990.752	184
990.915	155.71
991.079	76.66
991.243	69.1
991.407	116.57
991.571	82.86
991.734	110.57
991.898	105.72
992.062	171.98
992.226	67.94
992.389	67.55
992.553	25.7
992.717	58.06
992.88	47.21
993.044	94.68
993.207	72.4
993.371	131.1
993.535	103.59
993.698	85.18
993.862	111.92
994.025	123.55
994.189	87.12
994.352	76.66
994.515	85.96
994.679	125.87
994.842	60
995.006	112.5
995.169	72.59
995.332	56.7
995.496	95.84
995.659	26.87
995.822	92.35
995.985	67.36
996.149	122
996.312	85.96
996.475	137.88
996.638	71.43
996.801	137.69
996.964	153.77
997.128	61.35
997.291	77.24
997.454	104.95
997.617	27.45
997.78	107.85
997.943	46.24
998.106	107.85
998.269	50.89
998.432	53.99
998.595	76.66
998.758	35.2
998.92	33.65
999.083	22.99
999.246	38.1
999.409	35
999.572	22.8
999.735	61.16
999.897	70.07
1000.06	49.34
1000.223	60
1000.386	88.67
1000.548	107.47
1000.711	101.27
1000.874	93.13
1001.036	10.59
1001.199	123.16
1001.361	37.33
1001.524	78.21
1001.687	100.68
1001.849	46.24
1002.012	98.17
1002.174	94.48
1002.337	93.32
1002.499	41.01
1002.661	86.35
1002.824	49.53
1002.986	54.57
1003.149	64.26
1003.311	6.14
1003.473	116.96
1003.636	38.68
1003.798	99.33
1003.96	88.48
1004.123	76.85
1004.285	32.1
1004.447	64.26
1004.609	34.62
1004.771	123.55
1004.933	24.93
1005.096	24.35
1005.258	16.79
1005.42	40.82
1005.582	82.08
1005.744	75.3
1005.906	5.36
1006.068	72.01
1006.23	22.99
1006.392	0.13
1006.554	35.78
1006.716	100.88
1006.878	50.12
1007.04	16.02
1007.202	47.79
1007.363	58.83
1007.525	39.85
1007.687	95.65
1007.849	96.81
1008.011	-20.21
1008.172	10.98
1008.334	24.15
1008.496	83.63
1008.658	10.01
1008.819	42.56
1008.981	6.33
1009.143	19.5
1009.304	67.55
1009.466	88.67
1009.627	98.17
1009.789	141.56
1009.95	66.2
1010.112	19.7
1010.273	52.05
1010.435	41.98
1010.596	38.49
1010.758	31.9
1010.919	44.11
1011.081	-14.79
1011.242	29.77
1011.403	50.12
1011.565	42.75
1011.726	49.15
1011.887	-2
1012.049	59.8
1012.21	73.95
1012.371	121.61
1012.532	-2
1012.693	65.03
1012.855	4.97
1013.016	47.6
1013.177	47.79
1013.338	45.85
1013.499	101.27
1013.66	60.38
1013.821	70.65
1013.982	43.72
1014.143	45.27
1014.304	37.72
1014.465	76.66
1014.626	70.85
1014.787	10.01
1014.948	112.7
1015.109	-32.23
1015.27	97.39
1015.431	10.79
1015.592	-0.65
1015.752	89.64
1015.913	40.04
1016.074	48.76
1016.235	47.02
1016.395	43.14
1016.556	26.09
1016.717	30.93
1016.877	62.71
1017.038	18.92
1017.199	43.33
1017.359	53.6
1017.52	56.51
1017.681	36.94
1017.841	25.32
1018.002	21.05
1018.162	23.77
1018.323	92.93
1018.483	28.03
1018.644	28.03
1018.804	-24.09
1018.964	2.84
1019.125	30.55
1019.285	33.84
1019.446	-4.71
1019.606	-8.2
1019.766	-18.08
1019.926	37.33
1020.087	65.81
1020.247	-22.93
1020.407	45.27
1020.567	99.13
1020.728	-3.75
1020.888	-0.84
1021.048	11.37
1021.208	6.91
1021.368	-2.2
1021.528	42.17
1021.688	67.94
1021.848	80.15
1022.008	29.58
1022.168	29.58
1022.328	49.73
1022.488	30.74
1022.648	5.75
1022.808	29
1022.968	75.11
1023.128	4.39
1023.288	5.94
1023.448	15.05
1023.608	58.64
1023.767	20.47
1023.927	-11.3
1024.087	13.3
1024.247	-30.68
1024.406	-1.42
1024.566	-0.45
1024.726	32.87
1024.885	35.2
1025.045	39.07
1025.205	-16.73
1025.364	23.19
1025.524	57.28
1025.683	29.19
1025.843	31.32
1026.003	12.14
1026.162	108.05
1026.321	42.56
1026.481	26.67
1026.64	22.8
1026.8	44.88
1026.959	16.02
1027.119	12.53
1027.278	-0.84
1027.437	25.7
1027.597	29.19
1027.756	21.83
1027.915	28.61
1028.074	26.29
1028.234	7.88
1028.393	30.55
1028.552	-14.21
1028.711	-67.68
1028.87	70.65
1029.03	4.39
1029.189	13.11
1029.348	-63.42
1029.507	1.49
1029.666	3.81
1029.825	-16.92
1029.984	-6.26
1030.143	44.69
1030.302	28.03
1030.461	-33.78
1030.62	26.67
1030.779	48.18
1030.938	-24.28
1031.097	-25.06
1031.255	29.38
1031.414	83.25
1031.573	34.42
1031.732	-14.6
1031.891	3.62
1032.049	74.33
1032.208	42.37
1032.367	-22.54
1032.525	-16.15
1032.684	9.24
1032.843	13.69
1033.001	-41.14
1033.16	170.63
1033.319	44.3
1033.477	28.42
1033.636	8.85
1033.794	-54.51
1033.953	29.58
1034.111	38.68
1034.27	0.52
1034.428	24.74
1034.587	10.4
1034.745	27.84
1034.903	6.91
1035.062	18.15
1035.22	18.92
1035.378	66.2
1035.537	-20.41
1035.695	47.4
1035.853	32.1
1036.011	32.87
1036.17	35.97
1036.328	-48.11
1036.486	3.81
1036.644	33.65
1036.802	-68.84
1036.96	-24.86
1037.119	-17.5
1037.277	-18.47
1037.435	-50.25
1037.593	-28.93
1037.751	25.32
1037.909	35.97
1038.067	35.97
