Data from gum_old_FLMT105791__131__15-46-20-253.txt Node

Date: Mon Mar 20 15:46:20 GMT 2023
User: antho
Spectrometer: FLMT10579
Trigger mode: 0
Integration Time (sec): 1.000000E-1
Scans to average: 10
Electric dark correction enabled: true
Nonlinearity correction enabled: false
Boxcar width: 0
XAxis mode: Wavelengths
Number of Pixels in Spectrum: 3648
>>>>>Begin Spectral Data<<<<<
345.248	-185.59
345.464	-185.59
345.681	-185.59
345.898	-177.65
346.114	-187.53
346.331	-26.53
346.548	30.82
346.764	-12.58
346.981	-8.12
347.197	-8.7
347.414	-4.05
347.631	-30.98
347.847	78.68
348.064	13.97
348.28	23.46
348.497	-62.76
348.713	6.8
348.93	28.88
349.146	47.1
349.363	0.21
349.579	33.53
349.796	12.42
350.012	10.28
350.229	33.34
350.445	7.18
350.661	-2.5
350.878	38.38
351.094	21.13
351.311	31.4
351.527	42.45
351.743	20.75
351.96	67.05
352.176	44.97
352.392	42.64
352.609	64.15
352.825	1.76
353.041	32.76
353.257	20.55
353.474	7.18
353.69	29.85
353.906	14.55
354.122	-10.45
354.339	60.47
354.555	18.03
354.771	0.02
354.987	83.52
355.203	82.75
355.42	15.52
355.636	13.58
355.852	6.6
356.068	38.96
356.284	3.31
356.5	78.29
356.716	39.15
356.932	20.75
357.148	40.51
357.364	-7.54
357.58	68.8
357.796	55.62
358.012	84.3
358.228	48.07
358.444	-54.04
358.66	78.87
358.876	34.31
359.092	26.75
359.308	41.09
359.524	36.44
359.74	17.26
359.956	18.62
360.172	43.8
360.388	60.27
360.604	14.93
360.819	124.98
361.035	37.41
361.251	71.7
361.467	4.86
361.683	71.32
361.898	45.16
362.114	59.5
362.33	39.93
362.546	71.32
362.762	37.6
362.977	69.57
363.193	15.13
363.409	87.98
363.624	-4.83
363.84	19.97
364.056	20.75
364.271	76.16
364.487	43.22
364.703	22.49
364.918	11.64
365.134	28.69
365.35	38.96
365.565	154.82
365.781	46.52
365.996	73.83
366.212	93.4
366.427	71.9
366.643	45.93
366.858	11.25
367.074	26.37
367.289	105.22
367.505	133.51
367.72	0.21
367.936	36.83
368.151	83.71
368.367	59.3
368.582	64.53
368.798	16.1
369.013	117.43
369.228	54.27
369.444	57.95
369.659	140.87
369.874	63.37
370.09	119.56
370.305	-34.66
370.52	33.73
370.736	84.88
370.951	59.5
371.166	90.88
371.381	109.68
371.597	65.5
371.812	7.18
372.027	6.22
372.242	43.22
372.458	112.97
372.673	26.56
372.888	29.27
373.103	67.63
373.318	142.03
373.533	64.92
373.749	82.55
373.964	-5.22
374.179	98.44
374.394	16.1
374.609	113.36
374.824	12.8
375.039	104.25
375.254	44
375.469	126.15
375.684	75.58
375.899	100.96
376.114	54.27
376.329	78.87
376.544	100.38
376.759	98.05
376.974	46.32
377.189	46.9
377.404	61.43
377.619	90.3
377.834	-7.73
378.049	22.88
378.264	38.77
378.478	85.46
378.693	34.89
378.908	93.21
379.123	56.01
379.338	122.85
379.553	65.89
379.767	85.85
379.982	91.46
380.197	75.77
380.412	53.88
380.626	71.7
380.841	130.8
381.056	93.6
381.271	131.57
381.485	47.29
381.7	31.4
381.915	97.66
382.129	76.16
382.344	43.61
382.559	65.89
382.773	98.25
382.988	14.74
383.202	92.43
383.417	25.98
383.632	148.23
383.846	67.05
384.061	64.34
384.275	42.06
384.49	68.99
384.704	103.09
384.919	68.41
385.133	64.92
385.348	101.15
385.562	43.03
385.777	137.38
385.991	55.62
386.206	53.68
386.42	60.27
386.634	111.42
386.849	97.47
387.063	90.11
387.277	45.74
387.492	25.98
387.706	53.68
387.92	51.75
388.135	113.36
388.349	82.36
388.563	86.23
388.778	91.08
388.992	120.14
389.206	62.02
389.42	147.26
389.635	87.2
389.849	108.32
390.063	137.96
390.277	122.27
390.491	180.2
390.706	147.85
390.92	130.02
391.134	93.01
391.348	138.35
391.562	72.09
391.776	86.43
391.99	84.68
392.205	143.58
392.419	89.91
392.633	93.6
392.847	146.3
393.061	75.58
393.275	153.85
393.489	75.38
393.703	68.41
393.917	113.36
394.131	62.4
394.345	124.01
394.559	112.2
394.773	71.7
394.986	112.2
395.2	88.56
395.414	129.25
395.628	98.44
395.842	109.68
396.056	108.71
396.27	53.3
396.484	124.01
396.697	98.63
396.911	137
397.125	102.31
397.339	115.49
397.553	103.09
397.766	153.85
397.98	136.61
398.194	170.13
398.408	116.07
398.621	181.17
398.835	192.02
399.049	162.57
399.262	197.64
399.476	180.98
399.69	199.77
399.903	248.4
400.117	159.08
400.331	170.71
400.544	128.86
400.758	270.49
400.971	181.94
401.185	223.99
401.398	115.1
401.612	206.94
401.826	216.63
402.039	204.42
402.253	177.68
402.466	209.65
402.68	146.68
402.893	190.66
403.106	218.76
403.32	165.48
403.533	200.93
403.747	175.16
403.96	219.53
404.174	195.12
404.387	180.2
404.6	189.5
404.814	226.51
405.027	194.54
405.24	188.14
405.454	167.61
405.667	248.4
405.88	157.53
406.094	206.94
406.307	267.58
406.52	194.93
406.733	183.11
406.947	125.76
407.16	263.51
407.373	253.44
407.586	161.41
407.799	184.66
408.012	241.62
408.226	235.42
408.439	263.71
408.652	164.51
408.865	223.21
409.078	259.64
409.291	263.32
409.504	201.13
409.717	241.81
409.93	221.47
410.143	243.75
410.357	130.6
410.57	166.25
410.783	203.26
410.996	205.19
411.209	200.54
411.421	282.69
411.634	221.66
411.847	197.25
412.06	264.48
412.273	230.58
412.486	239.68
412.699	329.97
412.912	248.01
413.125	286.37
413.338	249.56
413.55	298.97
413.763	247.82
413.976	271.65
414.189	227.09
414.402	233.68
414.615	304.97
414.827	228.64
415.04	276.69
415.253	269.52
415.466	303.23
415.678	320.28
415.891	256.34
416.104	261.96
416.316	286.57
416.529	212.94
416.742	291.8
416.954	318.15
417.167	275.33
417.38	239.49
417.592	275.52
417.805	251.31
418.017	206.36
418.23	290.83
418.442	247.43
418.655	241.43
418.868	267.58
419.08	310.59
419.293	304.97
419.505	273.59
419.718	312.34
419.93	287.73
420.142	269.13
420.355	322.22
420.567	325.9
420.78	286.96
420.992	301.87
421.205	316.6
421.417	242.98
421.629	252.86
421.842	263.51
422.054	236
422.266	334.04
422.479	335.59
422.691	253.24
422.903	307.11
423.115	256.92
423.328	255.57
423.54	291.8
423.752	269.71
423.964	244.53
424.177	303.23
424.389	282.69
424.601	394.68
424.813	297.42
425.025	312.14
425.238	321.83
425.45	312.34
425.662	286.96
425.874	599.47
426.086	317.18
426.298	308.66
426.51	318.54
426.722	286.37
426.934	278.82
427.146	327.84
427.358	263.71
427.57	329.97
427.782	308.46
427.994	246.85
428.206	259.83
428.418	241.43
428.63	338.11
428.842	345.47
429.054	309.04
429.266	347.79
429.478	246.46
429.69	301.49
429.902	224.38
430.114	307.11
430.325	289.09
430.537	238.91
430.749	262.54
430.961	173.23
431.173	240.26
431.384	241.23
431.596	154.24
431.808	267.39
432.02	297.42
432.231	325.9
432.443	385.57
432.655	334.23
432.867	301.87
433.078	359.22
433.29	390.42
433.502	358.45
433.713	390.42
433.925	372.4
434.136	419.87
434.348	298.19
434.56	271.84
434.771	393.9
434.983	278.24
435.194	287.34
435.406	325.9
435.617	372.01
435.829	414.83
436.04	385.19
436.252	379.76
436.463	399.91
436.675	396.42
436.886	392.16
437.098	416.19
437.309	465.4
437.521	409.21
437.732	397.97
437.943	409.99
438.155	366.97
438.366	323.38
438.578	424.13
438.789	347.79
439	384.8
439.211	328.81
439.423	396.04
439.634	381.5
439.845	406.11
440.057	389.64
440.268	420.84
440.479	383.25
440.69	409.6
440.902	400.3
441.113	376.47
441.324	394.49
441.535	407.66
441.746	469.27
441.957	385.57
442.168	397.59
442.38	459.58
442.591	439.05
442.802	400.69
443.013	413.28
443.224	453.58
443.435	445.05
443.646	423.35
443.857	406.89
444.068	386.15
444.279	416.77
444.49	474.89
444.701	432.65
444.912	545.8
445.123	497.56
445.334	472.57
445.545	441.37
445.756	427.23
445.967	389.84
446.178	454.55
446.388	500.47
446.599	466.95
446.81	457.65
447.021	428.97
447.232	484
447.443	512.28
447.653	438.47
447.864	492.33
448.075	471.02
448.286	504.53
448.496	466.75
448.707	475.86
448.918	444.86
449.129	555.1
449.339	437.5
449.55	460.75
449.761	474.5
449.971	511.9
450.182	472.95
450.393	484.97
450.603	455.52
450.814	505.31
451.024	527.01
451.235	521.58
451.446	566.15
451.656	555.1
451.867	487.1
452.077	498.33
452.288	565.56
452.498	536.11
452.709	490.78
452.919	511.32
453.13	461.13
453.34	509.38
453.55	453.38
453.761	511.9
453.971	473.92
454.182	502.6
454.392	525.46
454.602	578.93
454.813	539.21
455.023	529.33
455.233	454.74
455.444	524.1
455.654	452.8
455.864	509.77
456.075	492.13
456.285	473.34
456.495	503.76
456.705	519.65
456.916	557.23
457.126	583
457.336	531.85
457.546	478.18
457.756	476.83
457.967	572.73
458.177	505.89
458.387	534.76
458.597	453.58
458.807	502.21
459.017	528.17
459.227	508.02
459.437	508.22
459.647	545.22
459.857	544.64
460.068	484.77
460.278	571.76
460.488	528.56
460.698	598.11
460.908	529.33
461.117	486.13
461.327	495.23
461.537	548.9
461.747	567.89
461.957	571.38
462.167	675.81
462.377	587.46
462.587	544.64
462.797	580.29
463.007	572.54
463.216	552.78
463.426	594.63
463.636	614.19
463.846	483.42
464.056	534.56
464.265	580.48
464.475	535.34
464.685	536.11
464.895	581.84
465.104	558.2
465.314	595.79
465.524	579.9
465.733	505.89
465.943	648.1
466.153	633.76
466.362	592.11
466.572	583.78
466.782	579.51
466.991	577.58
467.201	626.59
467.41	534.56
467.62	565.95
467.829	551.81
468.039	575.45
468.249	610.13
468.458	594.82
468.668	616.52
468.877	624.27
469.086	661.86
469.296	652.17
469.505	579.51
469.715	695.57
469.924	614.19
470.134	666.12
470.343	656.43
470.552	644.03
470.762	606.83
470.971	586.88
471.18	606.06
471.39	616.52
471.599	584.16
471.808	639.96
472.018	601.41
472.227	668.06
472.436	680.07
472.645	665.15
472.855	637.44
473.064	718.82
473.273	711.84
473.482	707.39
473.691	740.91
473.901	736.26
474.11	648.49
474.319	810.65
474.528	689.76
474.737	743.04
474.946	749.43
475.155	731.99
475.364	755.24
475.573	753.11
475.783	748.66
475.992	762.22
476.201	768.03
476.41	733.35
476.619	708.36
476.828	724.44
477.037	731.8
477.245	715.14
477.454	762.61
477.663	733.16
477.872	760.47
478.081	838.36
478.29	745.17
478.499	868
478.708	834.29
478.917	863.35
479.125	825.38
479.334	809.49
479.543	798.64
479.752	802.13
479.961	820.92
480.169	849.21
480.378	809.49
480.587	947.05
480.796	851.54
481.004	844.95
481.213	872.65
481.422	842.62
481.63	867.23
481.839	887.18
482.048	924.38
482.256	863.94
482.465	907.92
482.674	893
482.882	917.99
483.091	968.17
483.299	906.17
483.508	961
483.716	915.28
483.925	893.97
484.134	888.54
484.342	874.98
484.551	939.11
484.759	944.92
484.967	967.59
485.176	942.6
485.384	968.75
485.593	968.56
485.801	964.49
486.01	902.88
486.218	867.42
486.426	811.24
486.635	806.78
486.843	782.95
487.051	836.42
487.26	853.28
487.468	885.63
487.676	922.06
487.885	874.2
488.093	914.12
488.301	967.01
488.509	975.15
488.717	1002.85
488.926	971.85
489.134	956.16
489.342	985.61
489.55	968.75
489.758	956.35
489.967	961.97
490.175	1095.27
490.383	1006.15
490.591	1092.36
490.799	998.98
491.007	1072.41
491.215	1015.25
491.423	1041.21
491.631	1076.48
491.839	1000.91
492.047	1089.26
492.255	1000.91
492.463	958.29
492.671	987.93
492.879	1077.25
493.087	1024.75
493.295	1055.94
493.503	1060.01
493.711	1061.36
493.919	1125.11
494.127	1104.38
494.334	1096.82
494.542	1044.31
494.75	1089.84
494.958	1065.82
495.166	1153.78
495.374	1136.34
495.581	1125.69
495.789	1128.4
495.997	1210.94
496.205	1067.37
496.412	1127.24
496.62	1089.26
496.828	1133.44
497.035	1075.31
497.243	1160.76
497.451	1152.81
497.658	1148.74
497.866	1133.63
498.074	1220.82
498.281	1126.27
498.489	1242.9
498.696	1140.99
498.904	1134.02
499.112	1085.97
499.319	1213.46
499.527	1132.66
499.734	1194.47
499.942	1097.4
500.149	1109.99
500.357	1151.84
500.564	1086.74
500.771	1120.46
500.979	1109.03
501.186	1075.31
501.394	1141.38
501.601	1095.46
501.808	1109.61
502.016	1126.85
502.223	1100.69
502.43	1129.17
502.638	1120.84
502.845	1113.68
503.052	1200.86
503.26	1151.26
503.467	1219.46
503.674	1181.87
503.881	1174.12
504.089	1243.29
504.296	1193.11
504.503	1141.77
504.71	1159.98
504.917	1117.16
505.125	1150.68
505.332	1142.35
505.539	1197.57
505.746	1265.38
505.953	1246.97
506.16	1236.9
506.367	1274.29
506.574	1301.8
506.781	1294.83
506.988	1217.33
507.195	1230.12
507.402	1229.73
507.609	1280.69
507.816	1246.39
508.023	1200.47
508.23	1200.47
508.437	1196.6
508.644	1227.02
508.851	1272.16
509.058	1240.58
509.265	1260.15
509.472	1247.75
509.679	1329.12
509.885	1261.12
510.092	1302.19
510.299	1241.94
510.506	1260.92
510.713	1247.17
510.92	1238.45
511.126	1286.69
511.333	1316.92
511.54	1312.46
511.746	1373.68
511.953	1340.75
512.16	1349.08
512.367	1323.7
512.573	1295.99
512.78	1332.61
512.987	1286.69
513.193	1326.22
513.4	1218.69
513.606	1279.72
513.813	1308.78
514.02	1276.42
514.226	1364.97
514.433	1373.49
514.639	1275.07
514.846	1274.1
515.052	1271.58
515.259	1286.5
515.465	1304.71
515.672	1332.03
515.878	1413.21
516.085	1332.61
516.291	1384.73
516.497	1316.53
516.704	1341.72
516.91	1274.49
517.117	1243.68
517.323	1165.41
517.529	1185.56
517.736	1208.61
517.942	1210.94
518.148	1210.94
518.354	1255.11
518.561	1279.52
518.767	1299.67
518.973	1325.25
519.179	1316.14
519.386	1301.42
519.592	1291.15
519.798	1306.84
520.004	1410.11
520.21	1350.05
520.417	1415.53
520.623	1435.68
520.829	1431.81
521.035	1455.25
521.241	1440.91
521.447	1497.49
521.653	1523.64
521.859	1443.82
522.065	1459.13
522.271	1557.16
522.477	1519.96
522.683	1580.8
522.889	1527.13
523.095	1542.63
523.301	1515.51
523.507	1479.08
523.713	1536.24
523.919	1483.54
524.125	1570.14
524.331	1510.08
524.537	1671.09
524.742	1642.99
524.948	1609.09
525.154	1661.98
525.36	1728.63
525.566	1642.02
525.772	1734.25
525.977	1588.16
526.183	1691.24
526.389	1708.29
526.595	1629.04
526.8	1607.92
527.006	1565.3
527.212	1565.88
527.417	1503.69
527.623	1474.63
527.829	1564.14
528.034	1621.68
528.24	1590.1
528.446	1579.64
528.651	1676.7
528.857	1671.86
529.062	1775.52
529.268	1717.78
529.473	1706.35
529.679	1771.45
529.884	1826.28
530.09	1761.95
530.295	1764.47
530.501	1782.3
530.706	1795.28
530.912	1748.78
531.117	1775.32
531.323	1782.1
531.528	1829.76
531.733	1812.72
531.939	1757.3
532.144	1861.93
532.35	1840.03
532.555	1860.96
532.76	1844.88
532.966	1841.78
533.171	1828.6
533.376	1763.5
533.581	1762.53
533.787	1755.37
533.992	1825.12
534.197	1850.88
534.402	1800.32
534.607	1822.6
534.813	1905.33
535.018	1837.32
535.223	1851.85
535.428	1874.91
535.633	1884.01
535.838	1922.76
536.043	1876.26
536.249	2019.44
536.454	1900.68
536.659	1946.01
536.864	1836.16
537.069	1914.43
537.274	1905.33
537.479	1936.13
537.684	1904.75
537.889	1835.96
538.094	2003.94
538.299	1878.2
538.504	1889.83
538.708	1918.5
538.913	1940.98
539.118	1912.88
539.323	1953.96
539.528	1905.91
539.733	1910.95
539.938	1920.63
540.142	1947.76
540.347	1894.48
540.552	1883.05
540.757	1866
540.962	1846.43
541.166	1839.45
541.371	1803.42
541.576	1866
541.781	1783.65
541.985	1867.74
542.19	1896.8
542.395	1974.3
542.599	2036.69
542.804	2002.01
543.008	1992.13
543.213	1916.37
543.418	1923.15
543.622	1964.03
543.827	1867.55
544.031	2018.28
544.236	1972.36
544.44	1952.99
544.645	2051.41
544.849	1980.31
545.054	2006.07
545.258	2064.59
545.463	2082.41
545.667	1960.54
545.872	1990.77
546.076	1995.81
546.281	2001.81
546.485	1954.15
546.689	2009.76
546.894	2007.62
547.098	1986.7
547.302	1941.17
547.507	2016.15
547.711	2010.53
547.915	2055.09
548.119	1921.79
548.324	1942.53
548.528	2030.29
548.732	1961.71
548.936	2015.18
549.141	2084.54
549.345	2011.31
549.549	2008.79
549.753	2064.2
549.957	2078.73
550.161	2068.27
550.366	2001.62
550.57	1967.91
550.774	2036.49
550.978	1998.91
551.182	2025.45
551.386	2003.36
551.59	1971.98
551.794	2003.75
551.998	2056.45
552.202	2022.16
552.406	1969.65
552.61	2015.18
552.814	2008.59
553.018	2120
553.222	2011.11
553.426	2014.41
553.63	2059.55
553.833	1976.63
554.037	1933.42
554.241	2004.72
554.445	2020.8
554.649	2012.86
554.853	1970.23
555.056	2076.21
555.26	2060.71
555.464	2027
555.668	2064.39
555.871	2078.73
556.075	2062.84
556.279	1984.76
556.483	1976.63
556.686	1998.13
556.89	1998.71
557.094	2020.22
557.297	1954.15
557.501	2021.19
557.704	1897.77
557.908	2011.89
558.112	1927.03
558.315	2060.71
558.519	1978.95
558.722	1941.17
558.926	1906.88
559.129	1851.85
559.333	1827.44
559.536	1851.85
559.74	1860.96
559.943	1854.37
560.147	1849.33
560.35	1856.7
560.553	1867.93
560.757	1781.91
560.96	1951.63
561.164	1853.4
561.367	1965
561.57	1869.87
561.774	1924.12
561.977	1870.45
562.18	1854.95
562.384	1959.19
562.587	1865.03
562.79	1857.47
562.993	1856.89
563.197	1897.38
563.4	1951.05
563.603	1913.85
563.806	1974.11
564.009	1871.23
564.212	1858.25
564.416	1802.83
564.619	1866.38
564.822	1806.52
565.025	1883.63
565.228	1834.03
565.431	1853.4
565.634	1754.4
565.837	1786.95
566.04	1760.02
566.243	1752.07
566.446	1677.09
566.649	1801.28
566.852	1700.54
567.055	1752.65
567.258	1745.48
567.461	1817.75
567.664	1816.78
567.867	1703.64
568.07	1764.67
568.273	1769.32
568.475	1775.52
568.678	1729.21
568.881	1751.1
569.084	1742.38
569.287	1635.44
569.489	1692.01
569.692	1723.4
569.895	1758.85
570.098	1635.82
570.3	1652.1
570.503	1574.41
570.706	1625.17
570.909	1631.95
571.111	1556
571.314	1529.84
571.516	1602.31
571.719	1628.66
571.922	1548.25
572.124	1557.94
572.327	1624.39
572.529	1549.22
572.732	1573.44
572.935	1599.4
573.137	1662.95
573.34	1568.21
573.542	1661.01
573.745	1634.86
573.947	1575.37
574.15	1577.12
574.352	1556.39
574.554	1644.93
574.757	1524.42
574.959	1562.39
575.162	1535.08
575.364	1537.98
575.566	1676.51
575.769	1480.24
575.971	1506.4
576.173	1419.6
576.376	1527.33
576.578	1560.65
576.78	1593.78
576.982	1444.4
577.185	1519.38
577.387	1443.24
577.589	1442.08
577.791	1502.14
577.993	1522.87
578.196	1488.19
578.398	1506.79
578.6	1509.5
578.802	1425.41
579.004	1409.14
579.206	1424.45
579.408	1466.1
579.61	1418.05
579.812	1501.94
580.014	1434.71
580.216	1431.23
580.418	1452.54
580.62	1428.32
580.822	1375.82
581.024	1443.82
581.226	1483.93
581.428	1436.46
581.63	1533.14
581.832	1421.15
582.034	1486.44
582.236	1455.25
582.438	1500.2
582.64	1478.31
582.841	1477.53
583.043	1527.33
583.245	1448.47
583.447	1485.67
583.649	1473.85
583.85	1465.13
584.052	1466.3
584.254	1396.93
584.456	1447.31
584.657	1362.83
584.859	1444.01
585.061	1421.15
585.262	1399.26
585.464	1375.43
585.666	1422.31
585.867	1391.7
586.069	1457.19
586.27	1414.37
586.472	1385.31
586.674	1364.38
586.875	1360.51
587.077	1377.95
587.278	1380.08
587.48	1380.66
587.681	1448.47
587.883	1407.01
588.084	1304.71
588.285	1356.25
588.487	1291.15
588.688	1389.77
588.89	1292.31
589.091	1272.16
589.292	1288.24
589.494	1218.1
589.695	1200.09
589.896	1164.44
590.098	1164.82
590.299	1232.44
590.5	1144.29
590.702	1180.91
590.903	1242.13
591.104	1292.89
591.305	1294.64
591.507	1307.42
591.708	1323.5
591.909	1255.5
592.11	1344.23
592.311	1311.49
592.512	1250.85
592.714	1225.66
592.915	1226.44
593.116	1257.63
593.317	1243.1
593.518	1227.99
593.719	1249.69
593.92	1295.6
594.121	1319.05
594.322	1258.79
594.523	1278.94
594.724	1222.37
594.925	1240.77
595.126	1248.33
595.327	1274.1
595.528	1268.87
595.729	1262.67
595.929	1278.55
596.13	1263.64
596.331	1269.45
596.532	1244.65
596.733	1317.5
596.934	1287.27
597.135	1295.8
597.335	1295.99
597.536	1236.7
597.737	1307.42
597.938	1214.04
598.138	1263.05
598.339	1255.3
598.54	1265.96
598.74	1228.95
598.941	1256.27
599.142	1269.25
599.342	1266.15
599.543	1192.34
599.744	1223.14
599.944	1234.38
600.145	1218.3
600.345	1215.78
600.546	1295.6
600.746	1292.12
600.947	1317.3
601.147	1247.75
601.348	1256.66
601.548	1207.06
601.749	1243.29
601.949	1181.29
602.15	1196.6
602.35	1220.04
602.551	1271
602.751	1223.14
602.951	1192.34
603.152	1128.79
603.352	1222.37
603.552	1203.38
603.753	1261.31
603.953	1265.57
604.153	1258.99
604.354	1243.1
604.554	1231.86
604.754	1201.64
604.954	1192.72
605.155	1227.4
605.355	1196.99
605.555	1253.75
605.755	1281.27
605.955	1231.67
606.155	1245.23
606.356	1241.35
606.556	1244.65
606.756	1267.51
606.956	1166.96
607.156	1254.53
607.356	1171.61
607.556	1225.27
607.756	1224.89
607.956	1253.75
608.156	1250.46
608.356	1185.56
608.556	1215.01
608.756	1190.4
608.956	1170.25
609.156	1198.15
609.356	1156.69
609.556	1148.74
609.755	1191.56
609.955	1147.19
610.155	1186.14
610.355	1177.03
610.555	1184.97
610.755	1174.12
610.954	1087.91
611.154	1155.72
611.354	1177.22
611.554	1147.19
611.753	1115.03
611.953	1080.16
612.153	1164.24
612.352	1178.77
612.552	1108.64
612.752	1060.78
612.951	1106.7
613.151	1128.4
613.351	1070.86
613.55	1109.22
613.75	1131.5
613.949	1096.82
614.149	1121.81
614.348	1117.74
614.548	1058.84
614.747	1044.89
614.947	1088.68
615.146	1024.16
615.346	1115.61
615.545	1088.68
615.745	1103.21
615.944	1169.47
616.144	1109.8
616.343	1120.07
616.542	1098.18
616.742	1061.94
616.941	1064.66
617.14	970.69
617.34	1092.36
617.539	1095.85
617.738	1029.98
617.938	1129.37
618.137	1036.18
618.336	1027.65
618.535	1084.42
618.734	1073.96
618.934	1063.3
619.133	1078.22
619.332	1092.75
619.531	1044.12
619.73	1071.24
619.929	1098.95
620.128	1117.94
620.328	1139.64
620.527	1020.48
620.726	1038.7
620.925	1061.36
621.124	1041.02
621.323	1075.7
621.522	1019.9
621.721	1006.53
621.92	1020.87
622.119	1057.1
622.318	1018.55
622.517	1024.55
622.715	1035.79
622.914	994.71
623.113	1027.46
623.312	957.13
623.511	1029.59
623.71	1016.61
623.909	970.88
624.107	1072.99
624.306	947.83
624.505	951.12
624.704	984.83
624.902	994.52
625.101	1059.23
625.3	996.65
625.499	980.76
625.697	975.92
625.896	953.25
626.095	1002.46
626.293	930.2
626.492	986.96
626.69	1012.54
626.889	980.18
627.088	1047.41
627.286	930.58
627.485	967.78
627.683	962.55
627.882	999.36
628.08	925.35
628.279	974.37
628.477	1036.18
628.676	949.57
628.874	1009.44
629.073	937.95
629.271	941.82
629.469	966.04
629.668	947.25
629.866	963.91
630.065	917.6
630.263	979.6
630.461	937.37
630.66	920.32
630.858	964.1
631.056	983.48
631.254	981.15
631.453	905.2
631.651	979.41
631.849	923.8
632.047	974.18
632.245	962.75
632.444	952.28
632.642	962.75
632.84	966.81
633.038	919.35
633.236	893
633.434	883.7
633.632	904.82
633.83	923.03
634.028	950.15
634.227	952.09
634.425	960.61
634.623	936.4
634.821	937.95
635.019	930.39
635.216	896.68
635.414	988.51
635.612	957.13
635.81	904.04
636.008	1011.18
636.206	914.12
636.404	936.2
636.602	879.63
636.8	933.68
636.997	944.53
637.195	929.03
637.393	928.45
637.591	979.21
637.789	927.87
637.986	917.02
638.184	913.53
638.382	966.23
638.58	949.38
638.777	986.58
638.975	926.32
639.173	919.35
639.37	933.49
639.568	958.1
639.765	948.41
639.963	910.63
640.161	954.8
640.358	949.57
640.556	881.95
640.753	875.75
640.951	864.32
641.148	923.22
641.346	875.56
641.543	883.7
641.741	921.28
641.938	869.36
642.136	880.79
642.333	832.94
642.531	922.06
642.728	944.73
642.925	901.13
643.123	863.16
643.32	874.59
643.517	872.85
643.715	910.24
643.912	868
644.109	884.28
644.306	866.84
644.504	826.35
644.701	861.8
644.898	889.32
645.095	820.73
645.293	868.78
645.49	866.65
645.687	900.75
645.884	911.4
646.081	794.38
646.278	848.63
646.475	823.64
646.672	801.35
646.87	881.57
647.067	860.64
647.264	853.67
647.461	758.34
647.658	807.94
647.855	888.15
648.052	821.31
648.249	738.58
648.446	849.21
648.642	788.95
648.839	825.57
649.036	805.23
649.233	755.24
649.43	760.47
649.627	771.91
649.824	779.85
650.021	792.64
650.217	768.03
650.414	756.6
650.611	783.34
650.808	816.27
651.004	795.15
651.201	780.43
651.398	862.77
651.595	816.47
651.791	745.17
651.988	816.85
652.185	754.86
652.381	826.74
652.578	738.19
652.775	808.52
652.971	762.8
653.168	772.49
653.364	801.55
653.561	713.01
653.757	754.86
653.954	778.88
654.15	776.36
654.347	814.92
654.543	819.95
654.74	739.74
654.936	715.72
655.133	775.2
655.329	774.81
655.525	763.57
655.722	800.19
655.918	732.77
656.115	765.71
656.311	663.99
656.507	649.84
656.704	608.96
656.9	636.28
657.096	678.33
657.292	647.91
657.489	717.46
657.685	716.88
657.881	659.73
658.077	690.34
658.273	707.39
658.47	787.21
658.666	695.18
658.862	754.47
659.058	705.84
659.254	766.87
659.45	727.92
659.646	730.64
659.842	723.27
660.038	794.57
660.234	708.94
660.43	729.09
660.626	810.07
660.822	807.17
661.018	784.5
661.214	746.52
661.41	694.6
661.606	781.01
661.802	770.55
661.998	722.11
662.194	701.57
662.39	769.19
662.586	760.09
662.781	767.26
662.977	801.55
663.173	774.04
663.369	775.01
663.564	769.19
663.76	771.71
663.956	732.77
664.152	752.72
664.347	711.46
664.543	736.64
664.739	749.04
664.934	686.27
665.13	671.74
665.326	785.85
665.521	757.96
665.717	706.61
665.912	710.29
666.108	660.69
666.304	741.68
666.499	688.21
666.695	673.29
666.89	696.73
667.086	719.79
667.281	723.27
667.477	784.69
667.672	744.01
667.867	716.69
668.063	690.92
668.258	665.73
668.454	737.22
668.649	812.01
668.844	710.68
669.04	725.99
669.235	723.08
669.43	695.76
669.626	656.43
669.821	691.69
670.016	667.67
670.211	714.94
670.407	650.62
670.602	719.4
670.797	687.43
670.992	723.66
671.187	625.43
671.382	759.31
671.578	665.73
671.773	693.63
671.968	639.58
672.163	675.42
672.358	741.68
672.553	671.93
672.748	676.97
672.943	780.24
673.138	692.08
673.333	717.66
673.528	664.38
673.723	721.34
673.918	674.06
674.113	625.43
674.308	765.9
674.503	706.03
674.698	713.39
674.892	729.09
675.087	717.66
675.282	705.45
675.477	664.38
675.672	738.39
675.867	679.49
676.061	646.36
676.256	638.61
676.451	669.22
676.646	678.52
676.84	664.38
677.035	633.57
677.23	662.83
677.424	691.69
677.619	715.72
677.814	710.29
678.008	738
678.203	618.26
678.397	655.08
678.592	674.26
678.787	727.54
678.981	680.84
679.176	680.46
679.37	677.36
679.565	633.38
679.759	662.63
679.954	713.97
680.148	760.67
680.342	738.39
680.537	712.81
680.731	665.93
680.926	699.06
681.12	703.9
681.314	660.69
681.509	669.03
681.703	698.09
681.897	716.88
682.092	671.35
682.286	646.55
682.48	736.84
682.674	721.72
682.869	678.71
683.063	652.94
683.257	744.2
683.451	659.92
683.645	685.69
683.839	662.83
684.034	656.04
684.228	686.46
684.422	626.79
684.616	659.73
684.81	713.78
685.004	663.6
685.198	660.5
685.392	689.76
685.586	630.28
685.78	688.01
685.974	685.88
686.168	699.44
686.362	709.52
686.556	625.04
686.75	611.68
686.944	626.59
687.138	621.56
687.331	550.45
687.525	591.72
687.719	531.85
687.913	611.29
688.107	603.73
688.301	574.67
688.494	603.73
688.688	547.55
688.882	545.03
689.076	554.71
689.269	587.46
689.463	653.72
689.657	561.11
689.85	576.61
690.044	573.9
690.238	555.68
690.431	572.54
690.625	570.21
690.818	628.92
691.012	598.89
691.205	616.91
691.399	589.4
691.593	610.32
691.786	676.97
691.98	674.06
692.173	676.58
692.366	600.63
692.56	663.6
692.753	722.89
692.947	649.84
693.14	695.37
693.333	747.3
693.527	625.82
693.72	686.85
693.914	664.76
694.107	659.53
694.3	675.03
694.493	671.93
694.687	740.32
694.88	630.66
695.073	739.36
695.266	715.72
695.46	696.92
695.653	742.07
695.846	736.45
696.039	666.89
696.232	703.12
696.425	738.58
696.618	756.79
696.812	726.96
697.005	804.26
697.198	860.64
697.391	796.32
697.584	814.53
697.777	898.62
697.97	859.09
698.163	855.6
698.356	835.07
698.549	904.23
698.742	893.38
698.935	844.56
699.127	880.98
699.32	833.9
699.513	841.85
699.706	898.23
699.899	924.58
700.092	902.68
700.285	947.63
700.477	856.57
700.67	923.61
700.863	967.59
701.056	1063.11
701.248	1010.41
701.441	1020.29
701.634	940.85
701.826	1096.43
702.019	962.94
702.212	1045.48
702.404	1013.31
702.597	1003.24
702.79	1063.88
702.982	1081.71
703.175	1146.03
703.367	1107.48
703.56	1135.96
703.752	1223.72
703.945	1159.98
704.137	1226.44
704.33	1254.34
704.522	1233.22
704.715	1234.38
704.907	1286.89
705.1	1274.29
705.292	1309.36
705.484	1316.72
705.677	1322.92
705.869	1320.4
706.061	1396.55
706.254	1377.95
706.446	1389.96
706.638	1381.63
706.831	1461.65
707.023	1384.73
707.215	1498.65
707.407	1509.5
707.599	1490.13
707.792	1576.73
707.984	1530.04
708.176	1570.72
708.368	1567.62
708.56	1561.62
708.752	1594.94
708.944	1566.07
709.136	1640.28
709.329	1604.24
709.521	1761.37
709.713	1683.68
709.905	1702.86
710.097	1746.26
710.289	1719.33
710.481	1735.6
710.672	1778.03
710.864	1777.65
711.056	1872
711.248	1828.8
711.44	1850.69
711.632	1858.25
711.824	1899.51
712.016	1959.38
712.207	1928.58
712.399	1909.98
712.591	2026.81
712.783	1963.64
712.975	2044.63
713.166	1933.23
713.358	2042.11
713.55	2092.49
713.741	2067.3
713.933	2097.14
714.125	2098.1
714.316	2090.55
714.508	2155.65
714.7	2188
714.891	2181.22
715.083	2253.88
715.274	2194.01
715.466	2200.98
715.657	2280.61
715.849	2159.33
716.04	2278.68
716.232	2217.84
716.423	2285.65
716.615	2181.61
716.806	2189.75
716.998	2158.17
717.189	2117.87
717.381	2024.09
717.572	2040.37
717.763	2070.21
717.955	2059.94
718.146	2012.27
718.337	2001.23
718.528	1949.89
718.72	1895.64
718.911	1959.58
719.102	1894.86
719.293	1966.74
719.485	1982.63
719.676	1932.45
719.867	1965.78
720.058	1950.08
720.249	1950.47
720.44	1969.26
720.632	2004.91
720.823	2097.33
721.014	2188.39
721.205	2189.75
721.396	2278.29
721.587	2380.59
721.778	2403.26
721.969	2455.18
722.16	2521.64
722.351	2544.5
722.542	2619.09
722.733	2692.33
722.924	2577.63
723.115	2654.55
723.305	2615.22
723.496	2637.11
723.687	2519.7
723.878	2591.97
724.069	2544.89
724.26	2584.99
724.45	2494.9
724.641	2504.78
724.832	2547.99
725.023	2521.06
725.213	2528.22
725.404	2550.5
725.595	2555.15
725.785	2531.52
725.976	2608.63
726.167	2606.11
726.357	2614.05
726.548	2753.75
726.739	2635.75
726.929	2740.96
727.12	2763.05
727.31	2801.41
727.501	2729.91
727.691	2767.7
727.882	2836.86
728.072	2823.3
728.263	2803.54
728.453	2911.46
728.644	2850.23
728.834	2871.93
729.024	2865.73
729.215	2797.14
729.405	2894.41
729.596	2940.13
729.786	3012.4
729.976	3000.19
730.167	3013.17
730.357	3003.68
730.547	2993.02
730.737	3060.64
730.928	3070.72
731.118	3130.78
731.308	3064.71
731.498	3087.77
731.688	3194.71
731.879	3199.56
732.069	3209.83
732.259	3261.94
732.449	3326.85
732.639	3386.52
732.829	3393.11
733.019	3453.95
733.209	3475.07
733.399	3473.9
733.589	3612.63
733.779	3657.58
733.969	3597.71
734.159	3649.83
734.349	3644.98
734.539	3792.23
734.729	3755.81
734.919	3795.33
735.109	3843.19
735.299	3775.57
735.488	3806.18
735.678	3774.6
735.868	3828.07
736.058	3843.57
736.248	3819.94
736.437	3743.02
736.627	3762.01
736.817	3881.55
737.007	3816.64
737.196	3927.66
737.386	3882.9
737.576	3862.75
737.765	3985.2
737.955	3917.59
738.144	4036.74
738.334	3944.32
738.524	3908.09
738.713	4005.16
738.903	3941.03
739.092	4047.4
739.282	4030.54
739.471	4009.42
739.661	3996.25
739.85	4095.06
740.04	4032.86
740.229	4135.16
740.419	4108.23
740.608	4093.7
740.797	4100.29
740.987	4193.48
741.176	4162.48
741.365	4136.33
741.555	4061.93
741.744	4206.27
741.933	4155.31
742.123	4186.31
742.312	4222.54
742.501	4261.87
742.69	4234.75
742.88	4145.63
743.069	4322.32
743.258	4260.32
743.447	4337.05
743.636	4313.41
743.825	4274.47
744.014	4284.74
744.204	4358.36
744.393	4266.14
744.582	4350.03
744.771	4368.24
744.96	4344.22
745.149	4376.77
745.338	4361.85
745.527	4380.64
745.716	4346.74
745.905	4318.64
746.094	4386.07
746.283	4404.28
746.471	4378.32
746.66	4434.5
746.849	4414.74
747.038	4448.26
747.227	4374.83
747.416	4411.25
747.604	4331.04
747.793	4388.78
747.982	4430.05
748.171	4443.8
748.359	4471.7
748.548	4378.9
748.737	4418.03
748.926	4384.71
749.114	4300.62
749.303	4404.67
749.491	4321.16
749.68	4319.8
749.869	4409.12
750.057	4341.7
750.246	4337.63
750.434	4382
750.623	4331.43
750.811	4272.92
751	4347.32
751.188	4351.39
751.377	4365.92
751.565	4336.47
751.754	4325.81
751.942	4329.49
752.131	4363.01
752.319	4298.88
752.507	4260.52
752.696	4347.7
752.884	4381.61
753.072	4257.61
753.261	4350.42
753.449	4320.77
753.637	4267.11
753.825	4392.07
754.014	4298.3
754.202	4308.95
754.39	4402.34
754.578	4420.55
754.766	4297.14
754.955	4283.77
755.143	4355.65
755.331	4323.87
755.519	4360.1
755.707	4288.42
755.895	4250.44
756.083	4270.21
756.271	4204.52
756.459	4287.84
756.647	4318.64
756.835	4180.11
757.023	4215.37
757.211	4211.89
757.399	4272.53
757.587	4219.06
757.775	4145.63
757.963	4209.56
758.151	4234.94
758.339	4182.24
758.526	4158.8
758.714	4206.85
758.902	4085.56
759.09	4095.06
759.278	3834.08
759.465	3623.09
759.653	3220.87
759.841	3011.82
760.028	2639.82
760.216	2316.07
760.404	2193.43
760.591	1903.97
760.779	1619.36
760.967	1496.91
761.154	1304.71
761.342	1335.9
761.529	1338.23
761.717	1427.74
761.905	1449.63
762.092	1552.9
762.28	1527.52
762.467	1574.6
762.655	1505.04
762.842	1574.99
763.029	1584.29
763.217	1612.96
763.404	1582.93
763.592	1653.26
763.779	1600.37
763.966	1675.54
764.154	1706.35
764.341	1751.1
764.528	1766.99
764.716	1828.99
764.903	1918.11
765.09	1984.57
765.277	1999.68
765.465	2217.07
765.652	2270.93
765.839	2329.83
766.026	2490.64
766.213	2509.04
766.4	2606.5
766.588	2812.26
766.775	2790.94
766.962	2886.27
767.149	2956.99
767.336	3124.19
767.523	3070.72
767.71	3229.01
767.897	3319.49
768.084	3419.27
768.271	3430.89
768.458	3478.17
768.645	3565.74
768.832	3539.58
769.019	3565.74
769.206	3595.77
769.392	3678.69
769.579	3751.93
769.766	3692.84
769.953	3656.8
770.14	3771.5
770.327	3734.49
770.513	3743.6
770.7	3812.57
770.887	3747.67
771.073	3766.85
771.26	3766.66
771.447	3729.65
771.634	3709.11
771.82	3825.75
772.007	3720.35
772.193	3798.43
772.38	3818
772.567	3751.93
772.753	3758.32
772.94	3801.53
773.126	3793.2
773.313	3819.36
773.499	3768.01
773.686	3789.91
773.872	3677.92
774.059	3739.92
774.245	3693.81
774.432	3733.33
774.618	3589.38
774.804	3673.85
774.991	3618.05
775.177	3711.44
775.363	3700.01
775.55	3749.61
775.736	3612.24
775.922	3632.97
776.109	3677.73
776.295	3636.85
776.481	3692.45
776.667	3694.58
776.853	3642.27
777.04	3600.81
777.226	3659.32
777.412	3714.34
777.598	3582.98
777.784	3606.62
777.97	3566.13
778.156	3604.68
778.342	3603.33
778.528	3597.13
778.715	3508.58
778.901	3532.61
779.087	3555.08
779.272	3533.19
779.458	3545.01
779.644	3533
779.83	3501.03
780.016	3639.75
780.202	3549.27
780.388	3548.5
780.574	3433.8
780.76	3469.06
780.946	3542.1
781.131	3486.11
781.317	3486.3
781.503	3446
781.689	3438.64
781.874	3593.64
782.06	3439.22
782.246	3487.85
782.432	3447.75
782.617	3497.54
782.803	3494.83
782.989	3378.39
783.174	3433.8
783.36	3401.25
783.545	3380.91
783.731	3373.54
783.916	3274.73
784.102	3398.54
784.288	3353.39
784.473	3329.17
784.659	3319.87
784.844	3390.98
785.029	3298.56
785.215	3254.58
785.4	3264.08
785.586	3366.18
785.771	3248.96
785.956	3281.71
786.142	3248.19
786.327	3279.38
786.512	3287.33
786.698	3214.09
786.883	3189.48
787.068	3223.58
787.254	3255.94
787.439	3167.98
787.624	3199.75
787.809	3194.33
787.994	3171.46
788.18	3278.41
788.365	3199.17
788.55	3190.84
788.735	3181.35
788.92	3149.18
789.105	3146.86
789.29	3172.63
789.475	3064.52
789.66	3077.69
789.845	3090.87
790.03	3081.57
790.215	3129.23
790.4	3120.32
790.585	3142.79
790.77	3089.12
790.955	3027.12
791.14	3102.1
791.325	3149.18
791.51	2991.28
791.695	3047.08
791.879	3038.75
792.064	2971.71
792.249	3103.46
792.434	3009.1
792.618	3033.32
792.803	3095.52
792.988	3030.61
793.173	3015.69
793.357	3084.67
793.542	2998.64
793.727	3042.82
793.911	3056.18
794.096	3027.12
794.281	3054.25
794.465	3180.57
794.65	3055.8
794.834	3096.29
795.019	3124.58
795.203	3110.43
795.388	3128.26
795.572	3136.59
795.757	3107.33
795.941	3127.1
796.126	3107.92
796.31	3056.38
796.494	3078.47
796.679	3036.81
796.863	3035.84
797.048	3102.1
797.232	3128.07
797.416	3109.66
797.601	3072.65
797.785	3203.05
797.969	3155.96
798.153	3071.88
798.338	3135.04
798.522	3148.41
798.706	3135.62
798.89	3169.14
799.074	3234.63
799.258	3147.25
799.443	3169.14
799.627	3144.92
799.811	3168.95
799.995	3123.61
800.179	3075.95
800.363	3111.4
800.547	3127.68
800.731	3164.88
800.915	3080.6
801.099	3126.32
801.283	3105.2
801.467	3104.43
801.651	3071.68
801.835	3147.44
802.019	3097.84
802.202	3116.25
802.386	3037.39
802.57	3057.93
802.754	3074.59
802.938	3046.89
803.121	3097.07
803.305	3140.66
803.489	3076.72
803.673	3139.69
803.856	3168.95
804.04	3106.37
804.224	3089.51
804.407	3096.29
804.591	3051.73
804.775	3062.97
804.958	3086.6
805.142	3201.3
805.326	3119.73
805.509	3083.89
805.693	3148.02
805.876	3111.6
806.06	3098.81
806.243	3148.41
806.427	3158.1
806.61	3140.66
806.794	3114.12
806.977	3135.04
807.16	3099.58
807.344	3164.49
807.527	3118.96
807.71	3105.01
807.894	3110.43
808.077	3108.69
808.26	3055.99
808.444	3007.55
808.627	3106.56
808.81	3041.65
808.993	3024.41
809.177	2962.41
809.36	3021.5
809.543	3043.79
809.726	2933.93
809.909	2937.22
810.092	2930.06
810.276	2907.39
810.459	2901.19
810.642	2910.87
810.825	2892.86
811.008	2875.03
811.191	2786.49
811.374	2841.13
811.557	2818.46
811.74	2894.99
811.923	2765.76
812.106	2763.05
812.289	2724.68
812.472	2783.58
812.654	2794.82
812.837	2726.04
813.02	2673.53
813.203	2652.03
813.386	2532.29
813.569	2529.19
813.751	2483.27
813.934	2518.15
814.117	2457.31
814.3	2451.11
814.482	2395.51
814.665	2376.33
814.848	2292.63
815.03	2267.05
815.213	2277.71
815.396	2249.62
815.578	2214.55
815.761	2178.51
815.943	2294.18
816.126	2128.14
816.309	2146.54
816.491	2040.17
816.674	2006.85
816.856	2053.16
817.039	2009.95
817.221	2139.95
817.403	2070.01
817.586	2041.14
817.768	2089.97
817.951	2021.38
818.133	1998.52
818.315	2015.37
818.498	2057.81
818.68	2141.7
818.862	2063.81
819.045	2112.05
819.227	2063.23
819.409	2041.72
819.591	2072.53
819.774	2058.77
819.956	2014.99
820.138	2111.86
820.32	2057.81
820.502	2179.48
820.684	2202.15
820.866	2213.77
821.048	2259.11
821.231	2272.09
821.413	2278.68
821.595	2241.09
821.777	2279.26
821.959	2248.84
822.141	2325.37
822.323	2185.29
822.505	2137.44
822.686	2108.18
822.868	1970.04
823.05	1922.76
823.232	1886.15
823.414	1742.58
823.596	1863.86
823.778	1844.3
823.96	1857.28
824.141	1879.17
824.323	1905.52
824.505	1936.91
824.687	2004.52
824.868	2077.57
825.05	2131.04
825.232	2175.22
825.413	2224.04
825.595	2200.79
825.777	2103.92
825.958	2152.94
826.14	2140.34
826.321	2193.43
826.503	2182.97
826.685	2212.42
826.866	2234.89
827.048	2213.77
827.229	2154.87
827.411	2126.97
827.592	2102.95
827.773	2087.45
827.955	2025.45
828.136	2002.39
828.318	1987.09
828.499	2048.51
828.68	1958.22
828.862	2003.75
829.043	2029.71
829.224	1984.18
829.406	1925.86
829.587	1954.93
829.768	1952.99
829.949	1991.93
830.131	1970.04
830.312	2020.02
830.493	1996.58
830.674	1982.44
830.855	1973.14
831.036	1958.61
831.218	2029.13
831.399	2050.06
831.58	1965.78
831.761	1989.03
831.942	2045.21
832.123	1988.44
832.304	1912.69
832.485	1926.83
832.666	1936.33
832.847	1988.25
833.028	1969.07
833.209	2004.52
833.389	1958.03
833.57	1887.89
833.751	1917.53
833.932	1969.07
834.113	1976.63
834.294	1927.03
834.475	1957.25
834.655	2008.01
834.836	2022.74
835.017	2007.24
835.198	1940.01
835.378	1974.49
835.559	2015.96
835.74	1944.66
835.92	1984.96
836.101	1921.79
836.281	2013.82
836.462	1995.81
836.643	2057.42
836.823	1980.11
837.004	2049.09
837.184	2073.89
837.365	2055.29
837.545	2022.93
837.726	1976.43
837.906	2098.1
838.087	2039.01
838.267	1982.63
838.448	1948.92
838.628	2044.44
838.808	2003.36
838.989	2048.31
839.169	1963.64
839.349	2037.27
839.53	2008.98
839.71	2042.89
839.89	1963.84
840.07	2050.64
840.251	1971.39
840.431	2071.95
840.611	1987.86
840.791	1977.4
840.971	2007.82
841.151	1965.58
841.332	1973.53
841.512	1988.06
841.692	1933.42
841.872	1957.83
842.052	1976.43
842.232	2027.39
842.412	1922.38
842.592	1938.65
842.772	1949.31
842.952	1974.88
843.132	1927.99
843.312	1938.07
843.492	1931.48
843.672	2001.23
843.851	1850.5
844.031	1925.67
844.211	1928.38
844.391	1907.26
844.571	1923.15
844.751	1952.02
844.93	1926.06
845.11	1909.78
845.29	1915.79
845.47	1915.01
845.649	1940.59
845.829	1923.34
846.009	1886.34
846.188	1917.92
846.368	1895.06
846.547	1907.85
846.727	1922.57
846.907	1870.26
847.086	1889.63
847.266	1898.74
847.445	1867.35
847.625	1869.29
847.804	1838.29
847.984	1892.54
848.163	1847.59
848.343	1820.27
848.522	1854.37
848.701	1880.14
848.881	1796.63
849.06	1834.22
849.239	1838.1
849.419	1862.51
849.598	1800.12
849.777	1749.75
849.957	1778.23
850.136	1698.6
850.315	1686
850.494	1727.66
850.674	1716.23
850.853	1772.8
851.032	1748.78
851.211	1819.88
851.39	1754.01
851.569	1700.54
851.748	1670.89
851.927	1763.5
852.107	1729.4
852.286	1686.97
852.465	1678.06
852.644	1725.53
852.823	1725.92
853.002	1682.52
853.181	1705.57
853.359	1740.64
853.538	1667.02
853.717	1717
853.896	1603.66
854.075	1533.33
854.254	1515.7
854.433	1452.54
854.611	1510.66
854.79	1417.08
854.969	1464.94
855.148	1537.4
855.327	1457.19
855.505	1560.65
855.684	1529.26
855.863	1573.05
856.041	1545.15
856.22	1585.84
856.399	1546.31
856.577	1666.24
856.756	1638.15
856.934	1738.51
857.113	1735.41
857.291	1671.28
857.47	1567.04
857.648	1647.45
857.827	1656.75
858.005	1667.02
858.184	1585.84
858.362	1717.39
858.541	1604.44
858.719	1649.39
858.898	1636.02
859.076	1594.94
859.254	1696.66
859.433	1595.33
859.611	1589.91
859.789	1543.41
859.967	1660.04
860.146	1667.4
860.324	1562.78
860.502	1596.3
860.68	1534.11
860.859	1549.22
861.037	1576.15
861.215	1551.74
861.393	1580.8
861.571	1535.27
861.749	1530.04
861.927	1586.42
862.105	1599.98
862.283	1553.68
862.461	1526.94
862.639	1499.23
862.817	1582.54
862.995	1556.39
863.173	1553.09
863.351	1513.57
863.529	1562.78
863.707	1579.25
863.885	1537.59
864.063	1485.67
864.241	1489.93
864.418	1556
864.596	1463.58
864.774	1472.11
864.952	1521.71
865.129	1512.99
865.307	1436.65
865.485	1428.51
865.663	1550.77
865.84	1394.03
866.018	1437.23
866.196	1284.17
866.373	1318.08
866.551	1287.27
866.728	1242.13
866.906	1276.81
867.084	1326.41
867.261	1372.91
867.439	1340.55
867.616	1382.02
867.794	1354.7
867.971	1373.68
868.149	1371.94
868.326	1417.66
868.503	1434.52
868.681	1402.75
868.858	1380.08
869.035	1355.67
869.213	1427.35
869.39	1366.13
869.567	1447.5
869.745	1366.71
869.922	1422.31
870.099	1409.72
870.276	1435.68
870.454	1431.03
870.631	1417.66
870.808	1369.23
870.985	1431.81
871.162	1423.86
871.339	1410.3
871.517	1355.67
871.694	1317.11
871.871	1376.98
872.048	1378.33
872.225	1349.47
872.402	1365.16
872.579	1305.29
872.756	1348.88
872.933	1289.02
873.11	1349.08
873.287	1349.27
873.463	1333.38
873.64	1273.9
873.817	1379.88
873.994	1309.17
874.171	1311.68
874.348	1311.49
874.524	1242.52
874.701	1290.18
874.878	1243.87
875.055	1336.1
875.231	1273.71
875.408	1318.85
875.585	1227.79
875.762	1295.02
875.938	1292.89
876.115	1264.99
876.291	1284.75
876.468	1241.35
876.645	1218.1
876.821	1240.97
876.998	1212.49
877.174	1250.07
877.351	1247.17
877.527	1241.16
877.704	1229.15
877.88	1262.67
878.057	1224.3
878.233	1281.27
878.409	1259.37
878.586	1253.37
878.762	1215.39
878.938	1212.29
879.115	1148.74
879.291	1224.69
879.467	1168.12
879.644	1159.79
879.82	1223.72
879.996	1144.29
880.172	1124.33
880.349	1200.86
880.525	1229.15
880.701	1138.09
880.877	1174.32
881.053	1202.61
881.229	1159.4
881.405	1258.99
881.581	1132.27
881.757	1165.6
881.933	1179.36
882.109	1227.79
882.285	1180.52
882.461	1111.74
882.637	1173.35
882.813	1128.98
882.989	1181.1
883.165	1229.15
883.341	1144.29
883.517	1223.14
883.693	1166.57
883.869	1187.11
884.044	1122.01
884.22	1172.96
884.396	1183.42
884.572	1183.23
884.747	1238.64
884.923	1188.66
885.099	1206.29
885.275	1214.62
885.45	1169.67
885.626	1162.11
885.801	1140.61
885.977	1121.23
886.153	1095.66
886.328	1170.83
886.504	1163.47
886.679	1171.02
886.855	1127.63
887.03	1174.51
887.206	1192.14
887.381	1156.49
887.557	1195.24
887.732	1157.66
887.908	1161.72
888.083	1185.17
888.258	1141.77
888.434	1138.09
888.609	1142.16
888.784	1203.38
888.96	1128.98
889.135	1108.25
889.31	1121.04
889.485	1185.36
889.661	1162.11
889.836	1200.47
890.011	1188.27
890.186	1122.2
890.361	1117.94
890.537	1147.97
890.712	1166.57
890.887	1164.24
891.062	1141.77
891.237	1239.8
891.412	1107.28
891.587	1215.2
891.762	1207.26
891.937	1205.51
892.112	1138.86
892.287	1160.17
892.462	1102.44
892.637	1060.59
892.812	1075.51
892.987	1086.74
893.161	1086.36
893.336	1079.38
893.511	1105.15
893.686	1102.44
893.861	1056.91
894.035	1080.35
894.21	1094.3
894.385	1038.11
894.56	1107.28
894.734	1016.61
894.909	1013.7
895.084	1016.03
895.258	993.16
895.433	1028.62
895.608	962.94
895.782	933.3
895.957	959.06
896.131	967.78
896.306	886.6
896.48	893.19
896.655	885.63
896.829	854.25
897.004	840.69
897.178	877.69
897.353	804.26
897.527	846.89
897.701	864.9
897.876	814.14
898.05	896.68
898.224	887.18
898.399	886.41
898.573	872.85
898.747	737.03
898.921	763.57
899.096	670.96
899.27	705.45
899.444	666.51
899.618	746.91
899.792	732.96
899.967	745.36
900.141	805.81
900.315	707.58
900.489	735.09
900.663	722.5
900.837	737.61
901.011	705.84
901.185	819.57
901.359	786.63
901.533	754.08
901.707	761.25
901.881	777.14
902.055	703.9
902.229	746.52
902.403	794.19
902.576	729.86
902.75	761.06
902.924	873.43
903.098	800.39
903.272	849.21
903.446	890.09
903.619	865.68
903.793	907.72
903.967	892.42
904.14	930.2
904.314	931.36
904.488	878.85
904.661	921.28
904.835	889.51
905.009	935.62
905.182	990.26
905.356	920.12
905.529	901.91
905.703	880.21
905.876	842.24
906.05	838.55
906.223	809.88
906.397	768.81
906.57	755.44
906.744	745.36
906.917	740.91
907.09	749.24
907.264	744.78
907.437	704.67
907.61	659.92
907.784	690.92
907.957	707
908.13	692.08
908.304	688.98
908.477	643.64
908.65	656.82
908.823	641.51
908.996	722.69
909.17	637.83
909.343	656.82
909.516	672.71
909.689	672.71
909.862	624.85
910.035	659.34
910.208	648.49
910.381	627.18
910.554	701.57
910.727	659.92
910.9	628.53
911.073	629.5
911.246	700.8
911.419	711.26
911.592	681.23
911.765	653.72
911.938	645.97
912.11	663.41
912.283	642.68
912.456	703.32
912.629	653.91
912.802	628.92
912.974	662.63
913.147	533.79
913.32	525.07
913.493	552.2
913.665	572.93
913.838	562.08
914.01	552
914.183	595.98
914.356	586.68
914.528	630.66
914.701	705.45
914.873	639.77
915.046	596.56
915.218	588.43
915.391	498.14
915.563	473.73
915.736	580.68
915.908	583.2
916.081	544.25
916.253	540.96
916.425	570.99
916.598	595.01
916.77	580.48
916.942	561.11
917.115	463.07
917.287	565.76
917.459	530.5
917.632	509.38
917.804	449.7
917.976	554.33
918.148	558.59
918.32	541.35
918.493	586.1
918.665	630.08
918.837	570.41
919.009	659.14
919.181	633.76
919.353	595.98
919.525	583.2
919.697	583
919.869	553.36
920.041	626.01
920.213	710.1
920.385	625.82
920.557	599.08
920.729	610.51
920.901	609.35
921.073	580.1
921.244	531.66
921.416	600.83
921.588	600.83
921.76	581.84
921.932	646.74
922.103	565.56
922.275	598.31
922.447	563.63
922.619	530.11
922.79	588.43
922.962	539.21
923.134	585.13
923.305	487.87
923.477	492.13
923.648	494.07
923.82	560.53
923.991	468.5
924.163	437.5
924.335	510.93
924.506	476.25
924.677	572.54
924.849	470.43
925.02	517.13
925.192	552.97
925.363	515.58
925.535	502.02
925.706	461.72
925.877	575.06
926.049	481.09
926.22	518.68
926.391	514.8
926.562	566.73
926.734	463.46
926.905	551.81
927.076	453.19
927.247	505.5
927.419	453.38
927.59	430.33
927.761	456.1
927.932	424.32
928.103	431.68
928.274	389.84
928.445	400.49
928.616	415.22
928.787	391.58
928.958	422.97
929.129	414.83
929.3	375.89
929.471	333.84
929.642	277.27
929.813	223.6
929.984	339.07
930.155	269.52
930.326	328.22
930.496	300.13
930.667	234.64
930.838	243.75
931.009	214.11
931.18	249.56
931.35	249.18
931.521	251.31
931.692	196.86
931.863	117.23
932.033	214.69
932.204	198.61
932.374	201.32
932.545	152.5
932.716	188.73
932.886	203.84
933.057	85.85
933.227	118.2
933.398	227.09
933.568	113.94
933.739	74.61
933.909	108.13
934.08	143.39
934.25	38.18
934.421	80.23
934.591	113.16
934.761	93.01
934.932	37.02
935.102	91.85
935.272	106.58
935.443	100.76
935.613	80.03
935.783	95.92
935.953	57.17
936.123	254.99
936.294	49.81
936.464	78.48
936.634	89.72
936.804	42.64
936.974	61.63
937.144	93.01
937.314	113.36
937.484	78.1
937.655	77.13
937.825	120.91
937.995	56.59
938.165	147.26
938.334	115.88
938.504	101.35
938.674	102.9
938.844	135.64
939.014	180.2
939.184	146.3
939.354	210.62
939.524	198.99
939.694	161.8
939.863	145.91
940.033	228.64
940.203	198.8
940.373	173.81
940.542	181.94
940.712	143.58
940.882	175.74
941.051	192.41
941.221	171.09
941.391	184.85
941.56	159.08
941.73	145.52
941.899	263.12
942.069	142.23
942.238	166.83
942.408	119.17
942.577	203.06
942.747	131.96
942.916	84.88
943.086	134.67
943.255	182.72
943.425	160.83
943.594	130.6
943.763	54.07
943.933	70.73
944.102	58.53
944.271	123.82
944.441	111.42
944.61	84.1
944.779	114.71
944.948	218.56
945.117	79.26
945.287	119.36
945.456	58.14
945.625	88.36
945.794	132.35
945.963	94.18
946.132	148.23
946.301	111.23
946.47	136.03
946.639	64.53
946.808	102.51
946.977	118.59
947.146	162.38
947.315	106.38
947.484	132.54
947.653	105.22
947.822	80.61
947.991	87.98
948.16	203.84
948.329	161.21
948.498	119.56
948.666	137.38
948.835	153.66
949.004	76.35
949.173	50.39
949.341	104.83
949.51	118.4
949.679	135.64
949.847	139.71
950.016	189.69
950.185	182.14
950.353	83.33
950.522	109.1
950.69	145.71
950.859	96.31
951.028	173.61
951.196	160.05
951.365	88.56
951.533	107.55
951.701	154.24
951.87	162.96
952.038	82.94
952.207	94.76
952.375	186.21
952.543	81.58
952.712	102.51
952.88	93.6
953.048	181.36
953.217	125.76
953.385	118.59
953.553	172.06
953.721	78.68
953.89	137.96
954.058	33.92
954.226	97.66
954.394	131.38
954.562	52.52
954.73	112.2
954.898	96.11
955.067	144.94
955.235	91.27
955.403	151.91
955.571	198.41
955.739	125.37
955.907	67.63
956.075	82.94
956.243	61.43
956.41	137.58
956.578	66.28
956.746	71.9
956.914	62.02
957.082	123.82
957.25	160.05
957.418	91.66
957.585	128.66
957.753	179.62
957.921	78.68
958.089	122.08
958.256	125.95
958.424	156.76
958.592	135.25
958.759	89.33
958.927	110.84
959.095	85.65
959.262	104.25
959.43	117.81
959.597	81.97
959.765	123.63
959.932	66.67
960.1	143.97
960.267	134.09
960.435	119.75
960.602	156.56
960.77	105.22
960.937	82.36
961.104	100.96
961.272	49.42
961.439	87.78
961.606	139.32
961.774	144.16
961.941	95.15
962.108	129.63
962.275	111.23
962.443	164.9
962.61	143.97
962.777	200.35
962.944	147.85
963.111	149.59
963.278	128.86
963.446	135.64
963.613	137.96
963.78	148.81
963.947	146.88
964.114	127.11
964.281	211.01
964.448	147.07
964.615	122.27
964.782	132.73
964.949	194.54
965.116	145.33
965.282	177.49
965.449	135.45
965.616	88.75
965.783	162.76
965.95	149.2
966.117	70.15
966.283	126.73
966.45	143.78
966.617	141.06
966.784	177.68
966.95	172.26
967.117	159.08
967.284	113.16
967.45	90.11
967.617	184.46
967.784	140.29
967.95	208.29
968.117	131.18
968.283	178.46
968.45	225.54
968.616	168.77
968.783	190.08
968.949	172.26
969.116	205.97
969.282	136.03
969.449	163.15
969.615	124.6
969.781	97.28
969.948	147.26
970.114	108.51
970.28	191.05
970.447	143.58
970.613	191.63
970.779	142.03
970.945	161.02
971.112	165.09
971.278	145.52
971.444	165.48
971.61	174
971.776	143.58
971.942	168.38
972.108	157.92
972.275	125.18
972.441	149.98
972.607	214.88
972.773	114.71
972.939	167.61
973.105	127.31
973.271	100.76
973.437	109.68
973.602	118.98
973.768	150.95
973.934	137.96
974.1	140.1
974.266	64.15
974.432	124.21
974.598	113.16
974.763	150.95
974.929	127.11
975.095	210.62
975.261	91.08
975.426	126.34
975.592	131.18
975.758	198.22
975.923	66.86
976.089	92.43
976.255	152.69
976.42	123.63
976.586	141.65
976.751	155.79
976.917	233.29
977.082	121.11
977.248	108.32
977.413	42.06
977.579	107.74
977.744	141.26
977.91	82.55
978.075	112.2
978.24	166.45
978.406	122.85
978.571	120.33
978.736	84.3
978.902	133.51
979.067	87.98
979.232	71.32
979.397	134.28
979.563	159.08
979.728	81
979.893	123.05
980.058	102.12
980.223	146.1
980.388	137.58
980.554	125.18
980.719	95.73
980.884	137.77
981.049	155.98
981.214	114.52
981.379	132.15
981.544	77.32
981.709	100.18
981.874	120.53
982.039	114.71
982.204	151.53
982.368	113.16
982.533	109.48
982.698	133.9
982.863	166.83
983.028	111.23
983.193	119.56
983.357	116.26
983.522	134.48
983.687	83.71
983.852	104.64
984.016	84.68
984.181	138.16
984.346	130.6
984.51	171.09
984.675	125.37
984.839	130.8
985.004	137.77
985.168	193.38
985.333	129.05
985.498	98.83
985.662	169.16
985.827	122.66
985.991	94.18
986.155	93.6
986.32	166.06
986.484	191.24
986.649	135.06
986.813	62.79
986.977	120.72
987.142	136.03
987.306	62.6
987.47	91.46
987.634	111.03
987.799	114.91
987.963	92.63
988.127	139.51
988.291	205.78
988.455	101.35
988.62	79.45
988.784	139.32
988.948	161.8
989.112	83.52
989.276	111.42
989.44	90.11
989.604	81
989.768	96.89
989.932	203.84
990.096	79.26
990.26	70.54
990.424	65.31
990.588	104.25
990.752	187.76
990.915	135.83
991.079	84.3
991.243	78.48
991.407	144.16
991.571	101.15
991.734	143.58
991.898	129.25
992.062	200.16
992.226	82.55
992.389	66.47
992.553	44.97
992.717	54.07
992.88	78.29
993.044	86.43
993.207	100.57
993.371	122.27
993.535	129.63
993.698	108.71
993.862	137.19
994.025	137.77
994.189	99.02
994.352	94.76
994.515	117.04
994.679	141.65
994.842	86.43
995.006	150.56
995.169	70.35
995.332	82.16
995.496	120.72
995.659	50.2
995.822	95.92
995.985	75.58
996.149	131.57
996.312	72.67
996.475	164.51
996.638	78.29
996.801	132.93
996.964	160.25
997.128	96.7
997.291	98.05
997.454	108.71
997.617	51.55
997.78	118.98
997.943	40.12
998.106	123.43
998.269	63.95
998.432	94.76
998.595	80.42
998.758	38.77
998.92	54.65
999.083	49.23
999.246	121.69
999.409	52.13
999.572	36.63
999.735	50.39
999.897	110.84
1000.06	73.45
1000.223	97.86
1000.386	81.58
1000.548	105.41
1000.711	95.15
1000.874	111.61
1001.036	11.25
1001.199	135.06
1001.361	41.09
1001.524	96.5
1001.687	104.06
1001.849	34.89
1002.012	84.1
1002.174	66.28
1002.337	117.81
1002.499	66.47
1002.661	112.97
1002.824	24.04
1002.986	48.65
1003.149	80.81
1003.311	30.24
1003.473	125.76
1003.636	69.38
1003.798	97.08
1003.96	75
1004.123	66.08
1004.285	48.45
1004.447	80.42
1004.609	62.02
1004.771	136.41
1004.933	13.97
1005.096	46.13
1005.258	23.27
1005.42	45.35
1005.582	107.35
1005.744	91.27
1005.906	33.73
1006.068	75.38
1006.23	23.85
1006.392	0.4
1006.554	46.13
1006.716	119.36
1006.878	86.43
1007.04	19.78
1007.202	51.75
1007.363	82.36
1007.525	76.35
1007.687	71.9
1007.849	135.83
1008.011	23.27
1008.172	32.37
1008.334	73.64
1008.496	97.86
1008.658	-18.97
1008.819	19.78
1008.981	15.13
1009.143	24.82
1009.304	85.46
1009.466	69.38
1009.627	119.17
1009.789	144.94
1009.95	77.13
1010.112	37.41
1010.273	85.46
1010.435	26.37
1010.596	35.67
1010.758	24.62
1010.919	32.76
1011.081	-2.7
1011.242	42.25
1011.403	84.1
1011.565	36.44
1011.726	64.73
1011.887	-12.19
1012.049	51.75
1012.21	81.58
1012.371	127.5
1012.532	1.76
1012.693	61.24
1012.855	28.88
1013.016	68.6
1013.177	63.76
1013.338	73.45
1013.499	118.59
1013.66	76.74
1013.821	81.58
1013.982	48.45
1014.143	72.67
1014.304	37.22
1014.465	74.22
1014.626	84.88
1014.787	23.85
1014.948	129.63
1015.109	-31.37
1015.27	80.61
1015.431	36.63
1015.592	24.62
1015.752	98.25
1015.913	56.01
1016.074	47.29
1016.235	75
1016.395	64.15
1016.556	32.37
1016.717	62.21
1016.877	96.11
1017.038	0.79
1017.199	49.03
1017.359	34.89
1017.52	25.2
1017.681	28.11
1017.841	24.23
1018.002	39.73
1018.162	38.18
1018.323	90.88
1018.483	40.7
1018.644	45.74
1018.804	-21.49
1018.964	-5.41
1019.125	15.32
1019.285	53.3
1019.446	15.9
1019.606	13.77
1019.766	-29.43
1019.926	54.65
1020.087	59.88
1020.247	0.02
1020.407	49.81
1020.567	69.18
1020.728	28.69
1020.888	-28.27
1021.048	17.07
1021.208	16.29
1021.368	-0.95
1021.528	75.38
1021.688	72.09
1021.848	49.62
1022.008	42.45
1022.168	39.73
1022.328	51.55
1022.488	43.42
1022.648	17.26
1022.808	42.64
1022.968	54.27
1023.128	13.19
1023.288	17.65
1023.448	14.74
1023.608	64.34
1023.767	45.74
1023.927	21.13
1024.087	-10.45
1024.247	12.03
1024.406	28.11
1024.566	6.02
1024.726	14.35
1024.885	47.1
1025.045	68.41
1025.205	19.39
1025.364	17.26
1025.524	39.93
1025.683	33.92
1025.843	44.19
1026.003	30.05
1026.162	99.21
1026.321	62.02
1026.481	39.15
1026.64	14.93
1026.8	52.91
1026.959	3.12
1027.119	40.32
1027.278	14.55
1027.437	-22.65
1027.597	37.6
1027.756	34.5
1027.915	33.34
1028.074	51.36
1028.234	19
1028.393	26.37
1028.552	-6.57
1028.711	-56.56
1028.87	65.89
1029.03	-26.53
1029.189	39.73
1029.348	-35.83
1029.507	30.05
1029.666	-0.57
1029.825	1.57
1029.984	-0.18
1030.143	38.96
1030.302	-3.67
1030.461	-34.08
1030.62	12.22
1030.779	63.18
1030.938	-6.38
1031.097	-32.15
1031.255	64.53
1031.414	80.42
1031.573	79.65
1031.732	-32.15
1031.891	31.02
1032.049	71.51
1032.208	33.34
1032.367	29.47
1032.525	23.46
1032.684	8.35
1032.843	7.18
1033.001	-24.4
1033.16	191.83
1033.319	77.71
1033.477	67.44
1033.636	-4.25
1033.794	-9.86
1033.953	24.23
1034.111	52.33
1034.27	-7.54
1034.428	32.76
1034.587	2.15
1034.745	42.45
1034.903	37.99
1035.062	39.35
1035.22	-11.03
1035.378	35.47
1035.537	8.15
1035.695	51.55
1035.853	41.87
1036.011	54.65
1036.17	29.66
1036.328	-44.74
1036.486	26.56
1036.644	64.92
1036.802	-50.36
1036.96	16.29
1037.119	27.14
1037.277	-0.37
1037.435	-13.74
1037.593	-13.16
1037.751	39.15
1037.909	45.35
1038.067	45.35
