Data from gum_old_FLMT105791__139__15-46-28-252.txt Node

Date: Mon Mar 20 15:46:28 GMT 2023
User: antho
Spectrometer: FLMT10579
Trigger mode: 0
Integration Time (sec): 1.000000E-1
Scans to average: 10
Electric dark correction enabled: true
Nonlinearity correction enabled: false
Boxcar width: 0
XAxis mode: Wavelengths
Number of Pixels in Spectrum: 3648
>>>>>Begin Spectral Data<<<<<
345.248	-189.89
345.464	-189.89
345.681	-189.89
345.898	-191.24
346.114	-193.76
346.331	-45.16
346.548	42.22
346.764	-4.47
346.981	-27.72
347.197	-11.25
347.414	38.35
347.631	-13.38
347.847	50.94
348.064	4.83
348.28	31.18
348.497	-55.82
348.713	-9.7
348.93	43.38
349.146	48.23
349.363	20.71
349.579	14.71
349.796	30.01
350.012	-19
350.229	55.01
350.445	18.2
350.661	-26.95
350.878	15.48
351.094	14.51
351.311	28.46
351.527	40.86
351.743	-3.5
351.96	32.15
352.176	47.45
352.392	18.2
352.609	30.4
352.825	-7.96
353.041	0.37
353.257	-4.86
353.474	26.91
353.69	30.4
353.906	6.77
354.122	-17.65
354.339	37.57
354.555	28.27
354.771	13.35
354.987	67.41
355.203	64.11
355.42	10.25
355.636	-1.57
355.852	-14.55
356.068	-10.09
356.284	-26.56
356.5	73.03
356.716	35.05
356.932	-6.22
357.148	48.81
357.364	-3.7
357.58	62.37
357.796	54.23
358.012	68.57
358.228	51.13
358.444	-29.66
358.66	59.27
358.876	15.1
359.092	-14.55
359.308	10.64
359.524	29.05
359.74	-5.44
359.956	-6.41
360.172	29.05
360.388	39.51
360.604	-2.73
360.819	81.55
361.035	40.09
361.251	44.16
361.467	-8.73
361.683	81.94
361.898	24.59
362.114	72.06
362.33	53.07
362.546	60.43
362.762	35.44
362.977	33.7
363.193	12.19
363.409	50.75
363.624	4.25
363.84	3.08
364.056	17.23
364.271	63.92
364.487	11.8
364.703	-9.32
364.918	3.47
365.134	37.57
365.35	33.11
365.565	142.78
365.781	47.45
365.996	51.13
366.212	85.23
366.427	52.68
366.643	11.8
366.858	16.84
367.074	6.38
367.289	99.38
367.505	127.66
367.72	-36.05
367.936	25.36
368.151	64.5
368.367	46.48
368.582	44.74
368.798	19.55
369.013	77.87
369.228	26.14
369.444	42.8
369.659	94.92
369.874	48.23
370.09	85.81
370.305	-15.71
370.52	35.83
370.736	93.18
370.951	28.08
371.166	82.33
371.381	92.79
371.597	80.39
371.812	27.69
372.027	35.25
372.242	51.52
372.458	113.71
372.673	37.96
372.888	34.08
373.103	81.75
373.318	140.26
373.533	81.36
373.749	53.46
373.964	-11.64
374.179	92.21
374.394	18.58
374.609	78.26
374.824	10.06
375.039	85.43
375.254	28.27
375.469	114.68
375.684	52.3
375.899	68.57
376.114	52.3
376.329	86.78
376.544	103.06
376.759	91.63
376.974	5.99
377.189	39.51
377.404	62.76
377.619	90.27
377.834	-5.63
378.049	3.08
378.264	5.8
378.478	74
378.693	24.01
378.908	65.47
379.123	42.22
379.338	97.24
379.553	60.82
379.767	51.33
379.982	71.28
380.197	115.46
380.412	50.94
380.626	87.17
380.841	148.39
381.056	70.9
381.271	116.23
381.485	39.7
381.7	2.5
381.915	70.51
382.129	27.69
382.344	61.01
382.559	46.29
382.773	75.55
382.988	12
383.202	80.39
383.417	9.28
383.632	148.39
383.846	48.42
384.061	58.11
384.275	43.38
384.49	78.84
384.704	68.57
384.919	75.55
385.133	87.17
385.348	95.69
385.562	22.07
385.777	104.41
385.991	68.96
386.206	36.99
386.42	32.73
386.634	121.66
386.849	75.16
387.063	91.43
387.277	38.54
387.492	51.33
387.706	33.11
387.92	39.12
388.135	90.66
388.349	75.55
388.563	76.51
388.778	86.01
388.992	79.42
389.206	95.89
389.42	116.62
389.635	117.01
389.849	102.48
390.063	110.81
390.277	108.48
390.491	149.36
390.706	115.46
390.92	116.81
391.134	110.42
391.348	107.71
391.562	43.19
391.776	93.56
391.99	69.93
392.205	140.84
392.419	50.94
392.633	94.73
392.847	137.74
393.061	52.1
393.275	152.08
393.489	65.47
393.703	92.98
393.917	123.59
394.131	37.18
394.345	88.72
394.559	87.56
394.773	51.91
394.986	112.36
395.2	113.13
395.414	122.43
395.628	112.55
395.842	120.3
396.056	97.63
396.27	46.1
396.484	96.28
396.697	134.64
396.911	130.18
397.125	119.72
397.339	111.58
397.553	101.51
397.766	155.76
397.98	123.98
398.194	174.94
398.408	98.99
398.621	147.81
398.835	160.41
399.049	151.11
399.262	177.07
399.476	173.58
399.69	194.89
399.903	223.96
400.117	150.33
400.331	178.04
400.544	158.28
400.758	275.88
400.971	173
401.185	193.73
401.398	133.48
401.612	175.13
401.826	186.56
402.039	198.19
402.253	155.37
402.466	168.54
402.68	167.77
402.893	204.77
403.106	196.25
403.32	156.34
403.533	202.06
403.747	170.29
403.96	200.9
404.174	204.97
404.387	143.36
404.6	180.17
404.814	211.56
405.027	178.04
405.24	173.78
405.454	177.84
405.667	234.42
405.88	140.84
406.094	209.81
406.307	224.92
406.52	191.21
406.733	145.29
406.947	126.69
407.16	222.21
407.373	239.65
407.586	159.83
407.799	155.95
408.012	218.72
408.226	196.83
408.439	265.03
408.652	152.27
408.865	220.66
409.078	271.42
409.291	224.92
409.504	174.36
409.717	208.26
409.93	241.2
410.143	225.89
410.357	151.3
410.57	165.06
410.783	198.96
410.996	198.96
411.209	194.12
411.421	277.62
411.634	238.1
411.847	198.38
412.06	227.64
412.273	221.05
412.486	246.43
412.699	337.88
412.912	253.99
413.125	264.45
413.338	241.59
413.55	254.37
413.763	238.87
413.976	247.79
414.189	194.7
414.402	215.43
414.615	298.74
414.827	204.58
415.04	268.13
415.253	280.72
415.466	303.59
415.678	326.25
415.891	227.06
416.104	243.33
416.316	222.79
416.529	241.78
416.742	261.54
416.954	292.93
417.167	284.02
417.38	246.62
417.592	292.54
417.805	224.54
418.017	201.29
418.23	283.63
418.442	221.63
418.655	233.64
418.868	244.88
419.08	278.01
419.293	310.95
419.505	273.36
419.718	285.57
419.93	286.92
420.142	257.09
420.355	274.33
420.567	330.32
420.78	277.24
420.992	256.12
421.205	328.19
421.417	228.22
421.629	256.51
421.842	227.44
422.054	229.57
422.266	323.15
422.479	298.16
422.691	269.68
422.903	299.9
423.115	245.85
423.328	255.92
423.54	280.14
423.752	274.52
423.964	248.56
424.177	291.19
424.389	261.35
424.601	406.47
424.813	292.93
425.025	328.58
425.238	292.15
425.45	295.64
425.662	274.33
425.874	599.24
426.086	272.59
426.298	330.13
426.51	283.24
426.722	274.52
426.934	253.02
427.146	308.24
427.358	241.59
427.57	319.28
427.782	249.92
427.994	292.35
428.206	243.33
428.418	246.04
428.63	325.48
428.842	318.31
429.054	332.07
429.266	318.7
429.478	250.5
429.69	269.87
429.902	249.53
430.114	312.3
430.325	268.91
430.537	238.1
430.749	250.11
430.961	208.46
431.173	235.77
431.384	250.31
431.596	163.12
431.808	240.04
432.02	266.97
432.231	296.03
432.443	367.52
432.655	298.74
432.867	283.24
433.078	315.79
433.29	393.1
433.502	363.26
433.713	384.77
433.925	331.49
434.136	385.54
434.348	279.17
434.56	250.11
434.771	372.56
434.983	285.37
435.194	297.77
435.406	312.5
435.617	386.7
435.829	404.14
436.04	381.86
436.252	375.47
436.463	404.92
436.675	390.19
436.886	358.42
437.098	396.39
437.309	423.9
437.521	381.67
437.732	379.92
437.943	372.56
438.155	359
438.366	324.7
438.578	418.48
438.789	346.99
439	385.35
439.211	348.73
439.423	410.15
439.634	394.07
439.845	388.64
440.057	400.65
440.268	422.16
440.479	355.51
440.69	401.04
440.902	391.74
441.113	378.57
441.324	368.3
441.535	399.49
441.746	452.96
441.957	357.25
442.168	371.59
442.38	445.41
442.591	445.02
442.802	340.01
443.013	379.53
443.224	448.9
443.435	408.79
443.646	384.18
443.857	410.34
444.068	367.33
444.279	393.48
444.49	482.03
444.701	428.36
444.912	526.78
445.123	465.17
445.334	431.65
445.545	426.03
445.756	424.48
445.967	412.47
446.178	410.73
446.388	444.83
446.599	452
446.81	453.74
447.021	420.22
447.232	484.93
447.443	496.95
447.653	435.53
447.864	461.88
448.075	437.66
448.286	496.75
448.496	439.6
448.707	472.73
448.918	434.37
449.129	550.23
449.339	436.88
449.55	488.61
449.761	472.15
449.971	503.53
450.182	426.62
450.393	513.8
450.603	441.15
450.814	495.4
451.024	483.77
451.235	532.01
451.446	555.26
451.656	557.78
451.867	465.75
452.077	494.62
452.288	557.39
452.498	551.97
452.709	467.3
452.919	489.39
453.13	442.7
453.34	521.75
453.55	430.49
453.761	482.61
453.971	514
454.182	511.09
454.392	494.62
454.602	538.99
454.813	520.78
455.023	532.59
455.233	452.19
455.444	483
455.654	417.51
455.864	484.55
456.075	447.35
456.285	454.51
456.495	478.15
456.705	500.82
456.916	517.29
457.126	571.34
457.336	480.67
457.546	420.61
457.756	476.21
457.967	563.59
458.177	487.45
458.387	509.93
458.597	482.41
458.807	481.64
459.017	478.15
459.227	489.58
459.437	506.05
459.647	530.46
459.857	530.46
460.068	478.35
460.278	562.24
460.488	546.54
460.698	600.99
460.908	531.05
461.117	449.28
461.327	510.31
461.537	516.51
461.747	535.31
461.957	556.81
462.167	638.38
462.377	558.56
462.587	566.89
462.797	595.37
463.007	543.64
463.216	582.97
463.426	622.3
463.636	605.64
463.846	543.83
464.056	511.48
464.265	575.41
464.475	519.81
464.685	516.32
464.895	563.01
465.104	538.02
465.314	608.93
465.524	534.92
465.733	525.81
465.943	641.29
466.153	637.61
466.362	587.04
466.572	576.96
466.782	551.19
466.991	576.58
467.201	616.49
467.41	506.05
467.62	573.67
467.829	567.47
468.039	614.74
468.249	570.76
468.458	587.04
468.668	600.99
468.877	624.62
469.086	649.81
469.296	656.59
469.505	580.45
469.715	657.56
469.924	642.45
470.134	665.12
470.343	633.73
470.552	594.59
470.762	626.17
470.971	567.28
471.18	619.97
471.39	599.05
471.599	585.88
471.808	611.06
472.018	594.21
472.227	696.12
472.436	699.22
472.645	614.36
472.855	634.89
473.064	719.37
473.273	661.63
473.482	673.06
473.691	704.45
473.901	682.17
474.11	671.9
474.319	759.47
474.528	663.18
474.737	759.67
474.946	729.83
475.155	650.01
475.364	735.64
475.573	731.77
475.783	698.83
475.992	756.76
476.201	765.29
476.41	707.94
476.619	681.01
476.828	748.43
477.037	693.02
477.245	718.01
477.454	734.67
477.663	734.29
477.872	737.77
478.081	804.23
478.29	713.55
478.499	829.61
478.708	799.38
478.917	847.43
479.125	773.42
479.334	777.88
479.543	789.5
479.752	831.16
479.961	805.58
480.169	837.75
480.378	783.89
480.587	961.55
480.796	838.72
481.004	797.25
481.213	839.49
481.422	850.73
481.63	822.05
481.839	892.96
482.048	889.48
482.256	861.97
482.465	891.22
482.674	883.28
482.882	881.73
483.091	991.19
483.299	880.95
483.508	899.55
483.716	901.68
483.925	897.61
484.134	876.3
484.342	881.53
484.551	929.78
484.759	920.09
484.967	940.05
485.176	963.1
485.384	977.83
485.593	935.2
485.801	952.83
486.01	911.76
486.218	874.17
486.426	830
486.635	783.5
486.843	799
487.051	821.67
487.26	818.76
487.468	882.7
487.676	912.92
487.885	859.83
488.093	922.61
488.301	940.05
488.509	928.03
488.717	1012.89
488.926	955.55
489.134	926.87
489.342	950.9
489.55	938.88
489.758	948.18
489.967	938.5
490.175	1082.45
490.383	972.79
490.591	1090.97
490.799	1001.46
491.007	1051.26
491.215	1020.26
491.423	1016.38
491.631	1032.46
491.839	1033.04
492.047	1041.18
492.255	976.66
492.463	948.18
492.671	974.53
492.879	1066.37
493.087	1029.56
493.295	1059.01
493.503	1058.62
493.711	1111.71
493.919	1044.67
494.127	1100.47
494.334	1081.87
494.542	1036.92
494.75	1031.3
494.958	1065.01
495.166	1124.3
495.374	1100.08
495.581	1133.6
495.789	1138.64
495.997	1149.1
496.205	1078.19
496.412	1085.36
496.62	1084.97
496.828	1121.78
497.035	1093.88
497.243	1145.8
497.451	1097.17
497.658	1139.22
497.866	1109.77
498.074	1169.44
498.281	1084.97
498.489	1199.67
498.696	1118.29
498.904	1059.01
499.112	1080.71
499.319	1182.81
499.527	1107.25
499.734	1165.37
499.942	1068.5
500.149	1095.43
500.357	1146.97
500.564	1082.45
500.771	1125.66
500.979	1067.34
501.186	1051.06
501.394	1125.46
501.601	1095.43
501.808	1137.28
502.016	1108.02
502.223	1121.78
502.43	1117.91
502.638	1088.65
502.845	1108.22
503.052	1176.8
503.26	1076.06
503.467	1208.97
503.674	1138.83
503.881	1175.06
504.089	1242.1
504.296	1189.79
504.503	1075.67
504.71	1149.1
504.917	1133.6
505.125	1183.39
505.332	1154.33
505.539	1181.26
505.746	1246.94
505.953	1247.13
506.16	1201.8
506.367	1242.87
506.574	1254.3
506.781	1284.14
506.988	1193.47
507.195	1240.35
507.402	1184.94
507.609	1262.05
507.816	1183.2
508.023	1165.95
508.23	1187.65
508.437	1123.91
508.644	1165.37
508.851	1223.89
509.058	1236.28
509.265	1220.2
509.472	1231.83
509.679	1315.92
509.885	1253.33
510.092	1229.89
510.299	1226.02
510.506	1235.12
510.713	1257.4
510.92	1240.55
511.126	1273.1
511.333	1276.2
511.54	1291.7
511.746	1310.88
511.953	1335.68
512.16	1339.55
512.367	1270.38
512.573	1312.04
512.78	1262.83
512.987	1257.79
513.193	1257.6
513.4	1209.55
513.606	1241.52
513.813	1276.97
514.02	1280.85
514.226	1326.96
514.433	1319.6
514.639	1232.99
514.846	1272.13
515.052	1239.58
515.259	1263.6
515.465	1249.85
515.672	1289.18
515.878	1374.62
516.085	1298.09
516.291	1350.6
516.497	1283.56
516.704	1280.07
516.91	1229.7
517.117	1207.42
517.323	1131.08
517.529	1161.89
517.736	1170.8
517.942	1195.6
518.148	1182.23
518.354	1253.53
518.561	1265.93
518.767	1252.56
518.973	1263.22
519.179	1284.33
519.386	1262.63
519.592	1253.72
519.798	1253.53
520.004	1374.62
520.21	1323.66
520.417	1355.25
520.623	1398.26
520.829	1431.19
521.035	1428.29
521.241	1397.87
521.447	1447.28
521.653	1552.48
521.859	1427.71
522.065	1455.8
522.271	1543.57
522.477	1521.09
522.683	1553.26
522.889	1475.37
523.095	1508.31
523.301	1462.19
523.507	1443.4
523.713	1497.07
523.919	1441.46
524.125	1547.44
524.331	1499.39
524.537	1621.26
524.742	1570.69
524.948	1594.72
525.154	1603.44
525.36	1687.33
525.566	1606.34
525.772	1646.06
525.977	1551.32
526.183	1619.52
526.389	1651.87
526.595	1560.42
526.8	1590.65
527.006	1516.64
527.212	1465.29
527.417	1483.7
527.623	1457.35
527.829	1531.36
528.034	1553.64
528.24	1575.54
528.446	1562.17
528.651	1652.45
528.857	1672.8
529.062	1690.62
529.268	1662.72
529.473	1697.21
529.679	1660.01
529.884	1754.56
530.09	1736.73
530.295	1804.55
530.501	1783.62
530.706	1730.15
530.912	1688.3
531.117	1712.9
531.323	1745.45
531.528	1812.68
531.733	1815.2
531.939	1780.52
532.144	1825.08
532.35	1796.6
532.555	1876.81
532.76	1818.11
532.966	1807.06
533.171	1766.57
533.376	1691.78
533.581	1727.63
533.787	1774.51
533.992	1821.6
534.197	1802.61
534.402	1783.62
534.607	1797.57
534.813	1910.33
535.018	1800.67
535.223	1792.15
535.428	1823.53
535.633	1895.8
535.838	1891.54
536.043	1899.48
536.249	1975.43
536.454	1908.59
536.659	1925.06
536.864	1831.28
537.069	1868.29
537.274	1870.03
537.479	1828.96
537.684	1891.54
537.889	1821.98
538.094	1926.61
538.299	1855.11
538.504	1838.26
538.708	1891.93
538.913	1907.04
539.118	1868.48
539.323	1909.56
539.528	1832.45
539.733	1864.99
539.938	1911.88
540.142	1929.51
540.347	1865.96
540.552	1844.07
540.757	1838.84
540.962	1816.95
541.166	1763.08
541.371	1790.98
541.576	1803.38
541.781	1713.87
541.985	1846.01
542.19	1849.88
542.395	1966.91
542.599	1964.97
542.804	1894.44
543.008	1955.28
543.213	1888.44
543.418	1882.82
543.622	1929.71
543.827	1844.65
544.031	1962.45
544.236	1930.09
544.44	1972.33
544.645	2037.62
544.849	1909.75
545.054	1955.28
545.258	2023.87
545.463	2002.36
545.667	1903.36
545.872	2007.01
546.076	1955.67
546.281	1985.89
546.485	1936.29
546.689	1956.44
546.894	2003.72
547.098	1975.82
547.302	1910.33
547.507	1938.62
547.711	2012.44
547.915	2035.49
548.119	1929.32
548.324	1946.37
548.528	1988.02
548.732	1951.02
548.936	2003.52
549.141	2000.62
549.345	1924.48
549.549	1954.89
549.753	1993.06
549.957	2076.18
550.161	2030.84
550.366	1953.54
550.57	1951.99
550.774	2019.99
550.978	2019.8
551.182	2007.98
551.386	1950.63
551.59	1973.11
551.794	1939.78
551.998	2033.55
552.202	1965.55
552.406	1911.88
552.61	2002.56
552.814	2020.19
553.018	2069.79
553.222	1952.57
553.426	1978.72
553.63	2036.85
553.833	1972.14
554.037	1922.93
554.241	2030.26
554.445	1995.39
554.649	1968.84
554.853	1951.79
555.056	2027.55
555.26	2004.49
555.464	2002.56
555.668	1995.39
555.871	2003.72
556.075	2048.47
556.279	1991.71
556.483	1935.52
556.686	1991.51
556.89	1995.58
557.094	1992.48
557.297	1890.96
557.501	1981.82
557.704	1879.72
557.908	1990.16
558.112	1907.62
558.315	1989.96
558.519	1914.59
558.722	1917.69
558.926	1909.56
559.129	1840
559.333	1852.4
559.536	1877.78
559.74	1834.77
559.943	1818.88
560.147	1803
560.35	1835.55
560.553	1834.58
560.757	1774.9
560.96	1930.48
561.164	1817.72
561.367	1941.33
561.57	1871.19
561.774	1879.91
561.977	1846.59
562.18	1790.21
562.384	1909.17
562.587	1821.01
562.79	1822.95
562.993	1846.01
563.197	1857.24
563.4	1848.91
563.603	1904.71
563.806	1912.08
564.009	1795.25
564.212	1845.04
564.416	1786.14
564.619	1837.1
564.822	1789.05
565.025	1834.96
565.228	1785.36
565.431	1812.68
565.634	1724.53
565.837	1713.29
566.04	1683.26
566.243	1740.8
566.446	1631.92
566.649	1734.02
566.852	1631.14
567.055	1668.53
567.258	1712.52
567.461	1808.03
567.664	1739.64
567.867	1699.53
568.07	1722.2
568.273	1745.07
568.475	1780.33
568.678	1714.65
568.881	1689.46
569.084	1704.96
569.287	1601.3
569.489	1604.99
569.692	1704.38
569.895	1683.26
570.098	1609.25
570.3	1606.15
570.503	1536.79
570.706	1596.46
570.909	1555
571.111	1511.99
571.314	1530.59
571.516	1575.73
571.719	1555.58
571.922	1515.67
572.124	1538.14
572.327	1570.69
572.529	1552.87
572.732	1504.62
572.935	1551.71
573.137	1617.97
573.34	1547.83
573.542	1571.08
573.745	1554.81
573.947	1579.02
574.15	1509.08
574.352	1516.83
574.554	1624.75
574.757	1509.86
574.959	1500.75
575.162	1514.7
575.364	1498.04
575.566	1599.17
575.769	1487.58
575.971	1512.96
576.173	1401.36
576.376	1468.01
576.578	1506.95
576.78	1545.7
576.982	1417.44
577.185	1493.19
577.387	1429.06
577.589	1423.64
577.791	1502.11
577.993	1463.55
578.196	1453.48
578.398	1463.36
578.6	1495.32
578.802	1418.21
579.004	1393.41
579.206	1400.39
579.408	1434.68
579.61	1396.51
579.812	1461.03
580.014	1417.83
580.216	1385.66
580.418	1410.27
580.62	1375.4
580.822	1355.25
581.024	1435.07
581.226	1429.64
581.428	1424.61
581.63	1488.16
581.832	1420.93
582.034	1437.2
582.236	1404.26
582.438	1460.84
582.64	1470.53
582.841	1476.73
583.043	1510.05
583.245	1434.1
583.447	1447.08
583.649	1399.23
583.85	1412.59
584.052	1476.73
584.254	1377.33
584.456	1467.23
584.657	1354.28
584.859	1388.38
585.061	1410.27
585.262	1356.8
585.464	1338.78
585.666	1396.51
585.867	1356.6
586.069	1403.1
586.27	1396.32
586.472	1402.52
586.674	1333.16
586.875	1308.17
587.077	1322.89
587.278	1356.6
587.48	1331.41
587.681	1465.49
587.883	1371.91
588.084	1298.87
588.285	1321.53
588.487	1296.35
588.688	1348.66
588.89	1279.49
589.091	1275.62
589.292	1256.05
589.494	1214
589.695	1222.34
589.896	1150.84
590.098	1119.65
590.299	1234.35
590.5	1136.89
590.702	1201.8
590.903	1222.34
591.104	1295.96
591.305	1266.12
591.507	1323.86
591.708	1272.71
591.909	1259.73
592.11	1346.53
592.311	1270.38
592.512	1224.08
592.714	1181.65
592.915	1249.27
593.116	1205.67
593.317	1216.91
593.518	1233.18
593.719	1238.8
593.92	1262.44
594.121	1303.71
594.322	1237.83
594.523	1261.86
594.724	1194.24
594.925	1233.38
595.126	1254.3
595.327	1243.84
595.528	1232.41
595.729	1226.02
595.929	1224.85
596.13	1251.59
596.331	1240.93
596.532	1230.86
596.733	1291.89
596.934	1277.17
597.135	1305.26
597.335	1255.66
597.536	1202.19
597.737	1238.42
597.938	1209.94
598.138	1285.5
598.339	1221.95
598.54	1209.35
598.74	1208
598.941	1248.68
599.142	1298.67
599.342	1259.15
599.543	1191.72
599.744	1166.34
599.944	1204.12
600.145	1193.08
600.345	1212.45
600.546	1299.45
600.746	1272.71
600.947	1303.32
601.147	1232.99
601.348	1276.97
601.548	1199.67
601.749	1223.89
601.949	1165.76
602.15	1174.67
602.35	1209.74
602.551	1227.95
602.751	1182.04
602.951	1183.2
603.152	1118.68
603.352	1220.98
603.552	1198.31
603.753	1232.6
603.953	1229.5
604.153	1185.91
604.354	1198.12
604.554	1200.64
604.754	1217.88
604.954	1162.85
605.155	1231.25
605.355	1218.85
605.555	1256.43
605.755	1250.04
605.955	1184.75
606.155	1244.42
606.356	1203.15
606.556	1225.05
606.756	1195.21
606.956	1129.34
607.156	1247.72
607.356	1144.45
607.556	1180.68
607.756	1174.29
607.956	1248.88
608.156	1197.73
608.356	1142.71
608.556	1211.29
608.756	1167.89
608.956	1138.25
609.156	1154.14
609.356	1132.63
609.556	1130.69
609.755	1185.14
609.955	1121.97
610.155	1172.74
610.355	1159.75
610.555	1107.44
610.755	1126.82
610.954	1081.48
611.154	1131.86
611.354	1181.65
611.554	1101.82
611.753	1128.37
611.953	1060.75
612.153	1158.01
612.352	1135.15
612.552	1074.12
612.752	1002.24
612.951	1119.46
613.151	1115.19
613.351	1084.77
613.55	1081.67
613.75	1152
613.949	1110.35
614.149	1103.57
614.348	1092.52
614.548	1057.65
614.747	1018.13
614.947	1069.27
615.146	1008.44
615.346	1106.28
615.545	1080.71
615.745	1082.06
615.944	1095.62
616.144	1058.62
616.343	1103.96
616.542	1043.51
616.742	1048.74
616.941	1062.69
617.14	974.14
617.34	1058.81
617.539	1014.06
617.738	982.67
617.938	1106.09
618.137	1034.59
618.336	1002.82
618.535	1052.23
618.734	1040.6
618.934	1039.24
619.133	1030.14
619.332	1055.91
619.531	997.39
619.73	1060.36
619.929	1068.5
620.128	1048.93
620.328	1110.74
620.527	1017.93
620.726	1003.4
620.925	1045.25
621.124	1039.05
621.323	1052.23
621.522	962.91
621.721	1008.24
621.92	1023.16
622.119	1028.39
622.318	990.42
622.517	1022.58
622.715	1025.68
622.914	945.86
623.113	968.91
623.312	946.63
623.511	1028.78
623.71	994.1
623.909	969.88
624.107	1056.68
624.306	916.21
624.505	935.4
624.704	975.69
624.902	973.95
625.101	1038.28
625.3	987.32
625.499	961.55
625.697	954
625.896	934.43
626.095	979.38
626.293	877.66
626.492	935.4
626.69	1002.04
626.889	923.96
627.088	988.09
627.286	933.46
627.485	931.71
627.683	948.18
627.882	1021.81
628.08	883.47
628.279	941.6
628.477	1005.92
628.676	894.32
628.874	954
629.073	924.55
629.271	887.35
629.469	946.05
629.668	909.05
629.866	900.52
630.065	911.56
630.263	967.75
630.461	901.68
630.66	933.07
630.858	932.1
631.056	960.78
631.254	957.29
631.453	874.56
631.651	992.74
631.849	942.37
632.047	955.16
632.245	916.41
632.444	914.66
632.642	925.32
632.84	923.77
633.038	876.88
633.236	868.36
633.434	879.6
633.632	858.67
633.83	874.37
634.028	936.17
634.227	885.8
634.425	989.26
634.623	909.63
634.821	909.05
635.019	902.65
635.216	906.33
635.414	941.4
635.612	911.18
635.81	907.3
636.008	984.03
636.206	922.03
636.404	921.45
636.602	888.51
636.8	904.98
636.997	936.56
637.195	928.81
637.393	913.11
637.591	967.17
637.789	912.53
637.986	886.96
638.184	886.76
638.382	939.27
638.58	922.22
638.777	991.78
638.975	892.58
639.173	884.63
639.37	918.93
639.568	916.99
639.765	903.43
639.963	869.52
640.161	950.7
640.358	897.42
640.556	854.02
640.753	830.97
640.951	831.35
641.148	886.18
641.346	887.73
641.543	881.92
641.741	877.66
641.938	823.02
642.136	875.33
642.333	821.28
642.531	892.96
642.728	900.13
642.925	866.81
643.123	861.38
643.32	879.79
643.517	857.9
643.715	870.3
643.912	815.66
644.109	829.03
644.306	888.31
644.504	827.67
644.701	837.94
644.898	861.38
645.095	797.83
645.293	822.83
645.49	887.73
645.687	865.84
645.884	858.48
646.081	766.45
646.278	789.31
646.475	785.82
646.672	797.25
646.87	846.85
647.067	825.73
647.264	868.94
647.461	744.94
647.658	783.69
647.855	823.02
648.052	781.56
648.249	721.3
648.446	792.6
648.642	763.54
648.839	750.17
649.036	764.12
649.233	706.19
649.43	728.09
649.627	697.47
649.824	737.39
650.021	713.55
650.217	740.87
650.414	730.8
650.611	757.34
650.808	791.83
651.004	777.49
651.201	769.74
651.398	824.96
651.595	798.61
651.791	775.75
651.988	793.38
652.185	768.97
652.381	795.32
652.578	720.34
652.775	754.24
652.971	737.58
653.168	743
653.364	791.83
653.561	717.24
653.757	745.91
653.954	759.86
654.15	731.38
654.347	831.35
654.543	776.91
654.74	683.91
654.936	706.77
655.133	747.27
655.329	740.68
655.525	753.27
655.722	768.19
655.918	734.09
656.115	759.28
656.311	647.29
656.507	636.06
656.704	595.76
656.9	656.21
657.096	644.39
657.292	625.79
657.489	701.93
657.685	662.99
657.881	658.92
658.077	672.87
658.273	680.62
658.47	760.05
658.666	713.94
658.862	728.47
659.058	705.81
659.254	742.62
659.45	686.43
659.646	734.87
659.842	707.16
660.038	736.22
660.234	672.67
660.43	711.23
660.626	774.59
660.822	734.29
661.018	762.57
661.214	705.22
661.41	667.83
661.606	753.85
661.802	769.16
661.998	712.59
662.194	689.53
662.39	721.11
662.586	761.99
662.781	734.67
662.977	766.84
663.173	741.84
663.369	733.51
663.564	719.17
663.76	744.55
663.956	713.75
664.152	774.39
664.347	685.66
664.543	711.62
664.739	701.54
664.934	660.27
665.13	640.12
665.326	777.88
665.521	730.02
665.717	700.77
665.912	663.57
666.108	638.57
666.304	688.37
666.499	694.37
666.695	644.77
666.89	711.23
667.086	716.27
667.281	689.34
667.477	761.02
667.672	697.47
667.867	696.31
668.063	721.11
668.258	682.75
668.454	704.26
668.649	782.34
668.844	699.61
669.04	704.06
669.235	661.63
669.43	662.41
669.626	620.75
669.821	684.69
670.016	645.36
670.211	685.07
670.407	632.76
670.602	705.22
670.797	703.87
670.992	716.07
671.187	654.85
671.382	731.77
671.578	637.41
671.773	720.14
671.968	618.23
672.163	687.01
672.358	697.09
672.553	637.8
672.748	654.27
672.943	771.1
673.138	695.73
673.333	698.44
673.528	653.11
673.723	696.7
673.918	678.1
674.113	624.82
674.308	771.49
674.503	714.91
674.698	690.5
674.892	694.57
675.087	721.3
675.282	683.14
675.477	644
675.672	706.39
675.867	682.75
676.061	621.72
676.256	618.81
676.451	630.82
676.646	670.54
676.84	648.84
677.035	631.02
677.23	633.15
677.424	688.76
677.619	680.81
677.814	692.24
678.008	706.97
678.203	600.41
678.397	660.27
678.592	661.05
678.787	723.05
678.981	648.84
679.176	632.96
679.37	642.64
679.565	610.68
679.759	631.02
679.954	687.59
680.148	718.01
680.342	675.97
680.537	700.57
680.731	645.94
680.926	680.04
681.12	678.29
681.314	636.44
681.509	665.89
681.703	644
681.897	712
682.092	648.07
682.286	624.62
682.48	725.57
682.674	722.47
682.869	644.58
683.063	650.39
683.257	740.29
683.451	659.69
683.645	666.67
683.839	653.49
684.034	669.57
684.228	680.04
684.422	592.46
684.616	612.23
684.81	676.74
685.004	655.62
685.198	683.33
685.392	717.43
685.586	609.71
685.78	675.19
685.974	662.79
686.168	652.91
686.362	682.75
686.556	618.81
686.75	594.79
686.944	601.38
687.138	661.63
687.331	537.05
687.525	570.76
687.719	479.7
687.913	577.35
688.107	581.23
688.301	525.62
688.494	592.27
688.688	511.28
688.882	506.44
689.076	497.33
689.269	556.81
689.463	654.66
689.657	523.49
689.85	561.27
690.044	576.19
690.238	537.44
690.431	557.01
690.625	541.51
690.818	557.78
691.012	602.93
691.205	599.05
691.399	539.96
691.593	583.16
691.786	655.24
691.98	619.78
692.173	666.09
692.366	631.99
692.56	619.39
692.753	687.98
692.947	576.77
693.14	663.57
693.333	684.69
693.527	579.09
693.72	646.91
693.914	633.34
694.107	616.29
694.3	664.73
694.493	617.26
694.687	684.69
694.88	650.39
695.073	718.59
695.266	687.59
695.46	670.16
695.653	729.25
695.846	730.8
696.039	662.6
696.232	688.17
696.425	722.66
696.618	740.49
696.812	719.17
697.005	762.77
697.198	849.18
697.391	766.45
697.584	793.38
697.777	832.71
697.97	816.82
698.163	822.05
698.356	819.92
698.549	900.91
698.742	868.94
698.935	811.98
699.127	865.26
699.32	831.74
699.513	859.25
699.706	869.52
699.899	908.08
700.092	866.23
700.285	941.79
700.477	837.36
700.67	914.08
700.863	943.15
701.056	1012.89
701.248	967.75
701.441	971.24
701.634	917.18
701.826	1063.66
702.019	960.78
702.212	1032.27
702.404	995.46
702.597	982.28
702.79	1013.67
702.982	1056.29
703.175	1079.35
703.367	1085.74
703.56	1082.26
703.752	1188.82
703.945	1144.64
704.137	1159.75
704.33	1185.72
704.522	1168.86
704.715	1184.75
704.907	1236.28
705.1	1294.41
705.292	1255.85
705.484	1248.68
705.677	1297.51
705.869	1327.15
706.061	1330.45
706.254	1396.51
706.446	1346.14
706.638	1331.8
706.831	1423.06
707.023	1348.85
707.215	1496.87
707.407	1462.19
707.599	1448.44
707.792	1505.01
707.984	1494.36
708.176	1545.31
708.368	1519.74
708.56	1526.32
708.752	1499.78
708.944	1532.72
709.136	1589.68
709.329	1576.31
709.521	1707.09
709.713	1673.57
709.905	1694.88
710.097	1685.97
710.289	1676.67
710.481	1695.47
710.672	1716.2
710.864	1746.23
711.056	1817.53
711.248	1783.23
711.44	1789.43
711.632	1787.88
711.824	1816.95
712.016	1884.37
712.207	1870.42
712.399	1887.86
712.591	1945.98
712.783	1918.28
712.975	1970.2
713.166	1928.35
713.358	1955.09
713.55	2026
713.741	2049.44
713.933	2046.54
714.125	2033.17
714.316	2013.21
714.508	2106.79
714.7	2106.6
714.891	2109.89
715.083	2184.1
715.274	2151.74
715.466	2142.05
715.657	2211.22
715.849	2085.67
716.04	2175.77
716.232	2148.64
716.423	2185.45
716.615	2106.79
716.806	2139.34
716.998	2085.67
717.189	2032.59
717.381	1988.02
717.572	1953.73
717.763	1980.86
717.955	1955.09
718.146	1993.26
718.337	1915.18
718.528	1876.81
718.72	1805.9
718.911	1900.06
719.102	1848.91
719.293	1927.19
719.485	1883.01
719.676	1879.72
719.867	1849.11
720.058	1862.48
720.249	1882.43
720.44	1912.08
720.632	1958.19
720.823	2028.52
721.014	2102.53
721.205	2125.97
721.396	2205.41
721.587	2321.66
721.778	2354.21
721.969	2366.61
722.16	2438.1
722.351	2416.01
722.542	2570.04
722.733	2590.77
722.924	2501.07
723.115	2567.91
723.305	2531.87
723.496	2588.45
723.687	2452.05
723.878	2464.64
724.069	2470.45
724.26	2509.4
724.45	2453.21
724.641	2438.29
724.832	2459.41
725.023	2456.7
725.213	2452.24
725.404	2460.57
725.595	2490.6
725.785	2465.03
725.976	2523.74
726.167	2531.1
726.357	2521.22
726.548	2634.36
726.739	2539.24
726.929	2648.9
727.12	2674.28
727.31	2728.91
727.501	2657.03
727.691	2687.45
727.882	2673.7
728.072	2697.91
728.263	2680.86
728.453	2750.42
728.644	2776.58
728.834	2790.72
729.024	2739.96
729.215	2738.79
729.405	2741.51
729.596	2825.59
729.786	2891.66
729.976	2858.14
730.167	2927.5
730.357	2875
730.547	2908.13
730.737	2933.51
730.928	2953.47
731.118	3001.71
731.308	2911.62
731.498	2980.4
731.688	3072.81
731.879	3069.33
732.069	3117.18
732.259	3162.52
732.449	3149.15
732.639	3223.94
732.829	3271.6
733.019	3313.64
733.209	3355.3
733.399	3399.28
733.589	3463.02
733.779	3467.28
733.969	3492.67
734.159	3542.07
734.349	3614.92
734.539	3632.74
734.729	3614.53
734.919	3656.58
735.109	3725.16
735.299	3570.94
735.488	3652.31
735.678	3715.86
735.868	3713.92
736.058	3686.61
736.248	3678.86
736.437	3648.05
736.627	3607.56
736.817	3761.2
737.007	3695.32
737.196	3778.25
737.386	3748.99
737.576	3672.08
737.765	3791.42
737.955	3748.99
738.144	3900.12
738.334	3875.7
738.524	3779.22
738.713	3868.15
738.903	3813.7
739.092	3884.81
739.282	3892.56
739.471	3871.25
739.661	3888.88
739.85	3934.6
740.04	3940.41
740.229	3939.83
740.419	3965.8
740.608	3970.64
740.797	3965.6
740.987	4016.56
741.176	3969.48
741.365	4003
741.555	3928.98
741.744	4063.64
741.933	4009.78
742.123	4015.2
742.312	4047.56
742.501	4069.64
742.69	4107.04
742.88	4009.97
743.069	4161.29
743.258	4063.06
743.447	4167.87
743.636	4127.77
743.825	4115.76
744.014	4097.93
744.204	4125.44
744.393	4064.99
744.582	4224.64
744.771	4198.87
744.96	4120.79
745.149	4191.12
745.338	4144.62
745.527	4202.55
745.716	4186.47
745.905	4112.46
746.094	4250.6
746.283	4216.12
746.471	4190.54
746.66	4281.22
746.849	4240.34
747.038	4289.93
747.227	4204.88
747.416	4226.19
747.604	4207.98
747.793	4189.77
747.982	4246.54
748.171	4223.87
748.359	4216.7
748.548	4236.46
748.737	4238.79
748.926	4225.42
749.114	4123.31
749.303	4235.88
749.491	4209.72
749.68	4130.67
749.869	4264.36
750.057	4187.64
750.246	4218.64
750.434	4224.64
750.623	4175.04
750.811	4126.8
751	4189.77
751.188	4194.81
751.377	4206.62
751.565	4216.12
751.754	4128.16
751.942	4162.45
752.131	4232
752.319	4138.81
752.507	4120.02
752.696	4150.05
752.884	4210.3
753.072	4133.19
753.261	4140.75
753.449	4167.68
753.637	4127.38
753.825	4196.16
754.014	4150.24
754.202	4142.3
754.39	4154.7
754.578	4139.39
754.766	4097.54
754.955	4086.5
755.143	4241.5
755.331	4138.42
755.519	4126.02
755.707	4134.94
755.895	4133
756.083	4097.35
756.271	4038.84
756.459	4103.74
756.647	4106.84
756.835	4067.32
757.023	4042.91
757.211	4048.91
757.399	4018.3
757.587	4043.49
757.775	4016.36
757.963	4057.05
758.151	4052.4
758.339	3961.53
758.526	3989.63
758.714	4003.96
758.902	3915.42
759.09	3862.92
759.278	3705.79
759.465	3510.49
759.653	3110.79
759.841	2902.32
760.028	2529.16
760.216	2230.79
760.404	2108.34
760.591	1780.71
760.779	1570.31
760.967	1394.77
761.154	1222.92
761.342	1253.72
761.529	1303.71
761.717	1313.01
761.905	1396.9
762.092	1505.01
762.28	1454.64
762.467	1500.17
762.655	1451.15
762.842	1446.5
763.029	1492.61
763.217	1536.01
763.404	1526.52
763.592	1584.84
763.779	1490.68
763.966	1603.63
764.154	1659.82
764.341	1698.76
764.528	1688.3
764.716	1738.09
764.903	1816.75
765.09	1914.01
765.277	1967.87
765.465	2108.73
765.652	2175.38
765.839	2242.61
766.026	2381.72
766.213	2375.52
766.4	2478.59
766.588	2687.84
766.775	2689.97
766.962	2788.78
767.149	2882.75
767.336	3000.35
767.523	2942.04
767.71	3072.81
767.897	3216.96
768.084	3291.75
768.271	3312.09
768.458	3316.94
768.645	3437.25
768.832	3337.86
769.019	3425.24
769.206	3455.08
769.392	3509.13
769.579	3587.6
769.766	3562.41
769.953	3552.92
770.14	3614.73
770.327	3586.05
770.513	3611.04
770.7	3728.84
770.887	3577.53
771.073	3635.65
771.26	3639.72
771.447	3592.44
771.634	3594.96
771.82	3662
772.007	3588.18
772.193	3603.88
772.38	3627.51
772.567	3607.94
772.753	3588.76
772.94	3652.31
773.126	3651.15
773.313	3659.48
773.499	3600.58
773.686	3679.24
773.872	3557.96
774.059	3615.31
774.245	3526.57
774.432	3561.45
774.618	3523.86
774.804	3563.19
774.991	3535.48
775.177	3613.56
775.363	3538.97
775.55	3609.3
775.736	3480.46
775.922	3494.6
776.109	3545.17
776.295	3479.3
776.481	3566.87
776.667	3545.56
776.853	3517.27
777.04	3498.28
777.226	3538
777.412	3587.99
777.598	3430.67
777.784	3436.48
777.97	3433.96
778.156	3501.77
778.342	3473.87
778.528	3420.78
778.715	3342.9
778.901	3371.77
779.087	3460.7
779.272	3432.22
779.458	3414.39
779.644	3436.48
779.83	3375.64
780.016	3446.17
780.202	3360.14
780.388	3358.01
780.574	3281.87
780.76	3336.31
780.946	3378.16
781.131	3333.6
781.317	3313.64
781.503	3308.99
781.689	3309.38
781.874	3449.46
782.06	3300.08
782.246	3348.9
782.432	3345.03
782.617	3352.97
782.803	3372.74
782.989	3247.77
783.174	3279.35
783.36	3190.81
783.545	3269.66
783.731	3254.36
783.916	3168.14
784.102	3265.79
784.288	3208.83
784.473	3196.62
784.659	3161.16
784.844	3216.77
785.029	3201.85
785.215	3207.47
785.4	3107.11
785.586	3260.56
785.771	3105.56
785.956	3170.66
786.142	3149.93
786.327	3143.34
786.512	3110.6
786.698	3103.23
786.883	3061.77
787.068	3112.34
787.254	3068.94
787.439	3061.38
787.624	3064.87
787.809	3090.45
787.994	3072.62
788.18	3127.45
788.365	3029.22
788.55	3043.56
788.735	3011.2
788.92	3052.47
789.105	3028.45
789.29	3061.77
789.475	2942.62
789.66	2980.4
789.845	2949.98
790.03	2958.89
790.215	2988.15
790.4	3028.83
790.585	3008.1
790.77	2979.62
790.955	2917.24
791.14	2948.24
791.325	2977.69
791.51	2854.27
791.695	2937.77
791.879	2890.5
792.064	2874.42
792.249	2969.55
792.434	2937.19
792.618	2908.9
792.803	2968.97
792.988	2910.84
793.173	2916.27
793.357	2921.5
793.542	2896.31
793.727	2910.07
793.911	2915.69
794.096	2909.29
794.281	2932.15
794.465	2974.2
794.65	2897.67
794.834	2965.87
795.019	2980.98
795.203	3004.42
795.388	2992.99
795.572	2984.27
795.757	3012.37
795.941	2967.42
796.126	2974.78
796.31	2887.59
796.494	2974.59
796.679	2947.27
796.863	2906
797.048	3006.94
797.232	2973.62
797.416	2981.17
797.601	2950.17
797.785	3018.57
797.969	3019.34
798.153	2935.45
798.338	2989.12
798.522	3035.62
798.706	3021.67
798.89	3014.69
799.074	3093.93
799.258	3059.06
799.443	2988.73
799.627	3007.13
799.811	3082.7
799.995	3011.98
800.179	2989.7
800.363	2967.42
800.547	3002.48
800.731	3009.65
800.915	2962.57
801.099	2949.4
801.283	2960.05
801.467	2991.05
801.651	2999
801.835	3020.12
802.019	2992.02
802.202	3007.72
802.386	2927.5
802.57	2894.18
802.754	2961.02
802.938	2940.29
803.121	2957.92
803.305	3012.17
803.489	2984.47
803.673	3002.29
803.856	3013.53
804.04	2977.88
804.224	2988.73
804.407	2968.39
804.591	2930.41
804.775	2921.11
804.958	2951.72
805.142	3060.42
805.326	2958.12
805.509	2953.66
805.693	3002.29
805.876	3018.18
806.06	2969.55
806.243	2994.73
806.427	3056.15
806.61	3035.03
806.794	2955.99
806.977	3003.45
807.16	2971.49
807.344	2992.99
807.527	3012.37
807.71	2945.91
807.894	2983.11
808.077	2996.48
808.26	2935.64
808.444	2929.64
808.627	3005.97
808.81	2919.17
808.993	2884.88
809.177	2866.47
809.36	2864.92
809.543	2932.93
809.726	2833.34
809.909	2818.23
810.092	2825.59
810.276	2830.82
810.459	2810.87
810.642	2809.32
810.825	2777.54
811.008	2775.61
811.191	2710.12
811.374	2712.64
811.557	2734.14
811.74	2760.11
811.923	2661.88
812.106	2654.32
812.289	2610.34
812.472	2696.17
812.654	2624.68
812.837	2614.6
813.02	2556.09
813.203	2549.7
813.386	2447.79
813.569	2438.87
813.751	2394.89
813.934	2456.5
814.117	2329.6
814.3	2346.84
814.482	2333.86
814.665	2235.83
814.848	2185.65
815.03	2143.22
815.213	2183.13
815.396	2139.15
815.578	2151.35
815.761	2074.63
815.943	2169.18
816.126	2031.23
816.309	2036.07
816.491	1978.34
816.674	1902
816.856	1958.77
817.039	1952.76
817.221	2036.07
817.403	2006.62
817.586	1974.85
817.768	1970.59
817.951	1919.05
818.133	1918.08
818.315	1914.98
818.498	1976.79
818.68	2006.82
818.862	1985.89
819.045	2044.02
819.227	1998.29
819.409	1995.58
819.591	2001.78
819.774	1941.72
819.956	1976.79
820.138	2012.63
820.32	2008.95
820.502	2052.35
820.684	2115.12
820.866	2133.33
821.048	2202.11
821.231	2175.77
821.413	2155.03
821.595	2155.23
821.777	2146.32
821.959	2164.14
822.141	2229.05
822.323	2108.92
822.505	2062.62
822.686	1982.02
822.868	1923.51
823.05	1819.08
823.232	1773.93
823.414	1706.9
823.596	1760.37
823.778	1750.68
823.96	1788.85
824.141	1799.9
824.323	1808.23
824.505	1890.57
824.687	1939.2
824.868	1947.53
825.05	2072.89
825.232	2115.9
825.413	2154.84
825.595	2100.59
825.777	2049.05
825.958	2101.56
826.14	2059.71
826.321	2099.24
826.503	2090.13
826.685	2122.87
826.866	2134.88
827.048	2151.55
827.229	2059.9
827.411	2058.35
827.592	1972.14
827.773	1990.93
827.955	1933
828.136	1969.62
828.318	1916.73
828.499	1934.94
828.68	1873.33
828.862	1935.71
829.043	1912.08
829.224	1903.74
829.406	1869.64
829.587	1907.43
829.768	1895.41
829.949	1934.16
830.131	1894.25
830.312	1968.65
830.493	1877.98
830.674	1890.96
830.855	1915.76
831.036	1886.5
831.218	1952.76
831.399	1964
831.58	1929.32
831.761	1900.26
831.942	1926.8
832.123	1886.89
832.304	1830.31
832.485	1871.58
832.666	1872.94
832.847	1907.62
833.028	1897.93
833.209	1874.1
833.389	1880.3
833.57	1801.83
833.751	1838.06
833.932	1896.58
834.113	1853.76
834.294	1849.88
834.475	1914.59
834.655	1953.92
834.836	1924.48
835.017	1944.82
835.198	1847.75
835.378	1895.03
835.559	1927.58
835.74	1879.14
835.92	1897.54
836.101	1849.3
836.281	1934.94
836.462	1922.15
836.643	1944.82
836.823	1964
837.004	1953.34
837.184	1966.52
837.365	1938.04
837.545	1977.76
837.726	1919.63
837.906	1958.38
838.087	1928.54
838.267	1977.95
838.448	1876.43
838.628	1919.05
838.808	1921.76
838.989	1950.24
839.169	1885.53
839.349	1943.27
839.53	1953.15
839.71	1956.83
839.89	1883.4
840.07	1986.28
840.251	1877.78
840.431	1938.42
840.611	1909.36
840.791	1859.96
840.971	1945.4
841.151	1899.48
841.332	1883.98
841.512	1970.39
841.692	1862.28
841.872	1884.56
842.052	1898.32
842.232	1908.2
842.412	1852.01
842.592	1865.58
842.772	1873.13
842.952	1871
843.132	1822.18
843.312	1844.26
843.492	1838.84
843.672	1918.47
843.851	1815.2
844.031	1848.91
844.211	1821.6
844.391	1830.9
844.571	1824.11
844.751	1868.09
844.93	1832.06
845.11	1817.53
845.29	1844.46
845.47	1877.59
845.649	1815.78
845.829	1883.4
846.009	1795.25
846.188	1830.7
846.368	1852.21
846.547	1794.66
846.727	1829.54
846.907	1753.4
847.086	1838.65
847.266	1810.94
847.445	1820.82
847.625	1813.65
847.804	1789.05
847.984	1803
848.163	1744.48
848.343	1741.19
848.522	1790.98
848.701	1793.7
848.881	1754.95
849.06	1765.02
849.239	1784.4
849.419	1758.24
849.598	1720.27
849.777	1688.1
849.957	1676.87
850.136	1648.58
850.315	1599.75
850.494	1582.32
850.674	1638.31
850.853	1704.96
851.032	1657.49
851.211	1693.33
851.39	1663.89
851.569	1610.99
851.748	1605.18
851.927	1701.08
852.107	1673.38
852.286	1640.44
852.465	1605.76
852.644	1699.15
852.823	1651.29
853.002	1675.9
853.181	1636.37
853.359	1646.64
853.538	1584.25
853.717	1674.93
853.896	1549.19
854.075	1484.48
854.254	1472.46
854.433	1379.85
854.611	1411.82
854.79	1370.75
854.969	1427.13
855.148	1461.61
855.327	1406.59
855.505	1513.54
855.684	1435.84
855.863	1513.92
856.041	1467.81
856.22	1506.56
856.399	1487.19
856.577	1595.1
856.756	1547.25
856.934	1675.51
857.113	1667.37
857.291	1594.52
857.47	1557.13
857.648	1575.73
857.827	1596.65
858.005	1631.92
858.184	1534.27
858.362	1655.75
858.541	1553.64
858.719	1557.52
858.898	1543.37
859.076	1531.56
859.254	1619.9
859.433	1557.32
859.611	1542.41
859.789	1482.15
859.967	1575.92
860.146	1593.17
860.324	1509.66
860.502	1493.19
860.68	1510.82
860.859	1508.5
861.037	1483.89
861.215	1515.47
861.393	1496.68
861.571	1524.97
861.749	1466.46
861.927	1525.16
862.105	1523.61
862.283	1486.99
862.461	1472.08
862.639	1422.48
862.817	1473.63
862.995	1475.56
863.173	1467.04
863.351	1516.64
863.529	1472.08
863.707	1541.63
863.885	1503.85
864.063	1375.2
864.241	1403.49
864.418	1533.11
864.596	1454.83
864.774	1387.21
864.952	1409.69
865.129	1436.81
865.307	1398.65
865.485	1394.96
865.663	1443.21
865.84	1364.16
866.018	1366.48
866.196	1237.25
866.373	1256.24
866.551	1213.23
866.728	1186.69
866.906	1192.3
867.084	1244.23
867.261	1279.49
867.439	1280.65
867.616	1316.88
867.794	1299.64
867.971	1295.77
868.149	1330.45
868.326	1378.88
868.503	1373.07
868.681	1358.54
868.858	1333.16
869.035	1287.82
869.213	1375.78
869.39	1322.89
869.567	1395.93
869.745	1330.25
869.922	1316.5
870.099	1346.72
870.276	1397.1
870.454	1338.2
870.631	1357.18
870.808	1343.81
870.985	1353.5
871.162	1401.36
871.339	1363.19
871.517	1282.78
871.694	1262.83
871.871	1299.25
872.048	1315.92
872.225	1293.25
872.402	1309.13
872.579	1264.57
872.756	1334.51
872.933	1253.92
873.11	1268.83
873.287	1284.33
873.463	1282.98
873.64	1275.03
873.817	1314.95
873.994	1224.85
874.171	1279.3
874.348	1271.74
874.524	1198.89
874.701	1244.03
874.878	1210.32
875.055	1215.17
875.231	1240.74
875.408	1256.82
875.585	1182.42
875.762	1219.82
875.938	1251.4
876.115	1202.19
876.291	1193.27
876.468	1199.86
876.645	1195.21
876.821	1179.71
876.998	1198.89
877.174	1209.94
877.351	1198.12
877.527	1172.54
877.704	1203.15
877.88	1221.75
878.057	1217.1
878.233	1231.63
878.409	1160.53
878.586	1168.67
878.762	1136.31
878.938	1123.72
879.115	1083.22
879.291	1170.99
879.467	1116.55
879.644	1134.18
879.82	1200.44
879.996	1133.02
880.172	1096.79
880.349	1146.97
880.525	1178.35
880.701	1079.54
880.877	1084.39
881.053	1147.35
881.229	1100.66
881.405	1178.35
881.581	1079.35
881.757	1094.66
881.933	1141.54
882.109	1170.8
882.285	1131.08
882.461	1022.97
882.637	1132.63
882.813	1083.81
882.989	1109.19
883.165	1175.06
883.341	1083.22
883.517	1139.41
883.693	1158.59
883.869	1142.51
884.044	1091.75
884.22	1121.39
884.396	1162.08
884.572	1121.97
884.747	1160.72
884.923	1124.11
885.099	1169.25
885.275	1172.35
885.45	1104.92
885.626	1106.47
885.801	1098.92
885.977	1098.92
886.153	1037.69
886.328	1089.62
886.504	1074.31
886.679	1116.74
886.855	1097.56
887.03	1136.7
887.206	1135.15
887.381	1115.58
887.557	1119.65
887.732	1126.82
887.908	1133.02
888.083	1144.25
888.258	1073.15
888.434	1083.42
888.609	1103.76
888.784	1140.38
888.96	1111.32
889.135	1095.82
889.31	1085.16
889.485	1118.68
889.661	1069.66
889.836	1158.79
890.011	1135.15
890.186	1103.57
890.361	1064.62
890.537	1113.26
890.712	1097.17
890.887	1104.34
891.062	1127.01
891.237	1180.1
891.412	1064.04
891.587	1113.84
891.762	1139.61
891.937	1154.52
892.112	1074.7
892.287	1079.93
892.462	1078.96
892.637	1027.43
892.812	1014.44
892.987	1037.11
893.161	1019.68
893.336	1021.03
893.511	1041.76
893.686	1039.24
893.861	1031.3
894.035	1032.85
894.21	1043.51
894.385	1001.46
894.56	1041.38
894.734	939.08
894.909	941.01
895.084	972.21
895.258	954.38
895.433	968.33
895.608	919.31
895.782	902.65
895.957	910.6
896.131	907.5
896.306	822.63
896.48	830.38
896.655	860.61
896.829	791.64
897.004	785.82
897.178	815.27
897.353	775.75
897.527	839.49
897.701	808.49
897.876	761.02
898.05	856.35
898.224	820.7
898.399	883.86
898.573	802.29
898.747	691.66
898.921	749.98
899.096	686.82
899.27	664.34
899.444	640.32
899.618	660.47
899.792	676.55
899.967	720.14
900.141	737.97
900.315	664.92
900.489	674.22
900.663	706.77
900.837	727.7
901.011	648.26
901.185	743.97
901.359	705.03
901.533	729.44
901.707	716.07
901.881	724.4
902.055	653.11
902.229	708.32
902.403	777.88
902.576	716.85
902.75	735.64
902.924	862.93
903.098	766.64
903.272	797.45
903.446	828.83
903.619	794.15
903.793	863.71
903.967	806.36
904.14	869.13
904.314	864.29
904.488	839.1
904.661	855.57
904.835	835.03
905.009	892.77
905.182	897.61
905.356	891.41
905.529	875.33
905.703	833.1
905.876	816.82
906.05	786.6
906.223	790.86
906.397	727.89
906.57	729.83
906.744	683.72
906.917	718.2
907.09	716.27
907.264	699.41
907.437	671.9
907.61	639.74
907.784	671.9
907.957	684.49
908.13	681.78
908.304	668.61
908.477	619.59
908.65	653.49
908.823	603.51
908.996	690.69
909.17	633.73
909.343	631.6
909.516	650.39
909.689	619.01
909.862	587.04
910.035	639.35
910.208	602.73
910.381	615.91
910.554	724.4
910.727	594.4
910.9	599.83
911.073	605.44
911.246	653.49
911.419	675.19
911.592	678.49
911.765	601.18
911.938	613.97
912.11	616.68
912.283	618.62
912.456	663.76
912.629	629.27
912.802	582.97
912.974	565.73
913.147	537.24
913.32	491.33
913.493	478.54
913.665	538.6
913.838	545.77
914.01	532.01
914.183	560.11
914.356	549.64
914.528	576.77
914.701	663.96
914.873	603.31
915.046	541.12
915.218	501.6
915.391	470.6
915.563	485.51
915.736	528.14
915.908	565.14
916.081	535.5
916.253	524.07
916.425	575.22
916.598	564.18
916.77	566.11
916.942	524.46
917.115	448.12
917.287	551.39
917.459	523.3
917.632	477.18
917.804	419.64
917.976	498.88
918.148	501.79
918.32	521.75
918.493	554.1
918.665	580.26
918.837	534.73
919.009	611.06
919.181	583.74
919.353	569.41
919.525	551.97
919.697	554.1
919.869	563.79
920.041	581.81
920.213	672.29
920.385	618.04
920.557	541.12
920.729	588.2
920.901	546.54
921.073	556.43
921.244	542.09
921.416	587.81
921.588	523.1
921.76	546.74
921.932	618.62
922.103	517.48
922.275	554.68
922.447	568.24
922.619	493.46
922.79	544.41
922.962	512.25
923.134	539.57
923.305	476.02
923.477	458.97
923.648	474.08
923.82	531.24
923.991	439.02
924.163	433.98
924.335	465.36
924.506	461.49
924.677	529.5
924.849	448.9
925.02	477.38
925.192	495.78
925.363	500.24
925.535	492.49
925.706	477.18
925.877	517.1
926.049	466.72
926.22	501.79
926.391	497.53
926.562	493.07
926.734	443.08
926.905	505.66
927.076	405.5
927.247	445.41
927.419	387.48
927.59	423.71
927.761	434.56
927.932	393.87
928.103	427.39
928.274	355.32
928.445	368.68
928.616	360.93
928.787	360.74
928.958	399.49
929.129	383.8
929.3	317.73
929.471	303.39
929.642	244.3
929.813	223.37
929.984	326.84
930.155	220.66
930.326	323.93
930.496	233.45
930.667	194.12
930.838	247.59
931.009	216.21
931.18	249.53
931.35	208.46
931.521	228.22
931.692	162.54
931.863	122.24
932.033	183.85
932.204	187.92
932.374	186.95
932.545	112.36
932.716	210.2
932.886	157.69
933.057	96.47
933.227	124.76
933.398	189.08
933.568	85.43
933.739	35.05
933.909	93.37
934.08	134.25
934.25	12.77
934.421	64.5
934.591	95.31
934.761	81.94
934.932	39.12
935.102	87.95
935.272	103.44
935.443	80.39
935.613	61.4
935.783	95.11
935.953	62.95
936.123	229.77
936.294	60.63
936.464	85.43
936.634	79.61
936.804	54.23
936.974	-0.21
937.144	96.86
937.314	77.29
937.484	69.54
937.655	46.87
937.825	129.41
937.995	51.33
938.165	107.13
938.334	78.84
938.504	116.43
938.674	85.04
938.844	85.23
939.014	144.33
939.184	171.45
939.354	219.5
939.524	184.24
939.694	127.47
939.863	138.51
940.033	201.09
940.203	194.51
940.373	159.05
940.542	203.22
940.712	149.94
940.882	181.53
941.051	197.8
941.221	169.71
941.391	194.89
941.56	111.78
941.73	130.18
941.899	235.77
942.069	116.43
942.238	155.37
942.408	111.97
942.577	170.29
942.747	140.26
942.916	49.2
943.086	96.66
943.255	149.56
943.425	137.74
943.594	86.01
943.763	48.61
943.933	62.37
944.102	49.58
944.271	81.16
944.441	159.63
944.61	87.17
944.779	102.28
944.948	187.53
945.117	72.25
945.287	98.02
945.456	39.9
945.625	60.63
945.794	104.22
945.963	80.97
946.132	142.39
946.301	104.61
946.47	134.83
946.639	72.83
946.808	74
946.977	139.09
947.146	147.04
947.315	84.65
947.484	145.1
947.653	97.83
947.822	98.02
947.991	67.41
948.16	195.67
948.329	134.06
948.498	111.39
948.666	100.34
948.835	124.95
949.004	70.12
949.173	81.75
949.341	89.88
949.51	121.27
949.679	182.49
949.847	118.56
950.016	196.83
950.185	154.98
950.353	77.68
950.522	99.57
950.69	135.99
950.859	101.7
951.028	156.73
951.196	107.13
951.365	89.88
951.533	95.89
951.701	149.36
951.87	126.5
952.038	49.97
952.207	89.69
952.375	182.88
952.543	116.81
952.712	91.24
952.88	87.56
953.048	178.43
953.217	101.51
953.385	96.08
953.553	145.68
953.721	74.77
953.89	112.74
954.058	55.98
954.226	99.96
954.394	135.99
954.562	57.72
954.73	97.05
954.898	82.33
955.067	141.61
955.235	79.03
955.403	129.79
955.571	169.51
955.739	108.29
955.907	53.85
956.075	90.46
956.243	88.14
956.41	123.59
956.578	41.83
956.746	60.43
956.914	76.9
957.082	139.48
957.25	121.08
957.418	74.77
957.585	113.13
957.753	153.24
957.921	81.75
958.089	73.61
958.256	105.19
958.424	119.53
958.592	85.81
958.759	87.36
958.927	119.14
959.095	54.81
959.262	105.77
959.43	95.89
959.597	53.85
959.765	98.41
959.932	82.91
960.1	125.53
960.267	98.6
960.435	81.94
960.602	143.94
960.77	99.18
960.937	59.46
961.104	95.89
961.272	58.11
961.439	74
961.606	122.82
961.774	136.38
961.941	86.4
962.108	128.83
962.275	109.06
962.443	146.46
962.61	138.32
962.777	199.93
962.944	143.55
963.111	111.97
963.278	106.35
963.446	98.41
963.613	138.51
963.78	128.24
963.947	130.76
964.114	109.06
964.281	204.39
964.448	133.86
964.615	81.75
964.782	112.74
964.949	141.42
965.116	154.4
965.282	162.54
965.449	100.34
965.616	83.68
965.783	141.61
965.95	131.15
966.117	77.87
966.283	140.84
966.45	134.25
966.617	114.88
966.784	146.84
966.95	186.17
967.117	153.24
967.284	103.64
967.45	105.58
967.617	167.58
967.784	159.63
967.95	186.95
968.117	130.57
968.283	160.6
968.45	236.55
968.616	178.81
968.783	148.98
968.949	161.76
969.116	154.59
969.282	121.08
969.449	142.58
969.615	142
969.781	83.3
969.948	116.62
970.114	88.72
970.28	189.66
970.447	137.74
970.613	170.09
970.779	151.49
970.945	145.88
971.112	140.26
971.278	128.24
971.444	119.14
971.61	173.58
971.776	103.64
971.942	152.46
972.108	146.07
972.275	124.56
972.441	141.03
972.607	196.83
972.773	89.69
972.939	163.51
973.105	121.08
973.271	86.59
973.437	124.56
973.602	84.85
973.768	131.54
973.934	118.75
974.1	132.7
974.266	47.65
974.432	125.73
974.598	98.41
974.763	153.43
974.929	125.14
975.095	163.89
975.261	100.34
975.426	64.89
975.592	87.17
975.758	169.71
975.923	66.63
976.089	85.43
976.255	120.88
976.42	125.14
976.586	154.21
976.751	113.71
976.917	213.49
977.082	144.33
977.248	44.35
977.413	39.51
977.579	121.27
977.744	128.05
977.91	59.85
978.075	104.22
978.24	136.96
978.406	100.73
978.571	93.56
978.736	59.66
978.902	142.97
979.067	66.05
979.232	54.23
979.397	96.47
979.563	154.4
979.728	57.91
979.893	93.37
980.058	76.71
980.223	154.01
980.388	135.03
980.554	113.13
980.719	77.68
980.884	116.23
981.049	123.59
981.214	107.9
981.379	122.82
981.544	81.16
981.709	99.57
981.874	99.57
982.039	105.19
982.204	134.64
982.368	95.11
982.533	94.53
982.698	133.67
982.863	137.54
983.028	94.92
983.193	145.29
983.357	98.6
983.522	99.18
983.687	90.46
983.852	91.43
984.016	99.76
984.181	110.81
984.346	127.86
984.51	124.56
984.675	87.56
984.839	119.33
985.004	137.93
985.168	143.94
985.333	111.78
985.498	96.86
985.662	128.24
985.827	115.26
985.991	103.25
986.155	97.44
986.32	159.83
986.484	159.44
986.649	113.52
986.813	36.02
986.977	104.8
987.142	116.62
987.306	49.78
987.47	62.18
987.634	92.01
987.799	123.4
987.963	103.06
988.127	94.53
988.291	163.89
988.455	122.43
988.62	109.06
988.784	130.38
988.948	103.25
989.112	58.5
989.276	120.69
989.44	104.61
989.604	82.33
989.768	75.35
989.932	172.42
990.096	63.53
990.26	47.06
990.424	44.35
990.588	88.33
990.752	170.87
990.915	145.1
991.079	91.05
991.243	107.9
991.407	122.04
991.571	118.36
991.734	107.13
991.898	134.25
992.062	177.46
992.226	108.68
992.389	57.91
992.553	36.99
992.717	72.25
992.88	72.45
993.044	74.19
993.207	88.53
993.371	113.52
993.535	105.77
993.698	107.9
993.862	132.51
994.025	128.05
994.189	83.3
994.352	90.85
994.515	96.08
994.679	139.48
994.842	62.95
995.006	113.71
995.169	59.46
995.332	44.55
995.496	116.04
995.659	43.19
995.822	85.62
995.985	60.05
996.149	142.78
996.312	82.91
996.475	147.43
996.638	48.81
996.801	135.61
996.964	146.07
997.128	82.71
997.291	86.4
997.454	98.02
997.617	45.51
997.78	128.05
997.943	60.24
998.106	97.44
998.269	47.65
998.432	63.92
998.595	65.66
998.758	38.15
998.92	56.36
999.083	22.46
999.246	52.3
999.409	17.03
999.572	1.73
999.735	41.83
999.897	104.61
1000.06	51.33
1000.223	82.33
1000.386	68.18
1000.548	76.13
1000.711	67.6
1000.874	79.42
1001.036	15.48
1001.199	79.42
1001.361	87.75
1001.524	59.08
1001.687	109.64
1001.849	42.41
1002.012	91.24
1002.174	64.7
1002.337	73.03
1002.499	59.08
1002.661	94.34
1002.824	17.23
1002.986	38.15
1003.149	53.65
1003.311	17.03
1003.473	121.27
1003.636	35.63
1003.798	97.44
1003.96	73.22
1004.123	61.6
1004.285	38.73
1004.447	38.35
1004.609	81.55
1004.771	128.05
1004.933	22.65
1005.096	38.54
1005.258	3.08
1005.42	46.48
1005.582	80.2
1005.744	26.72
1005.906	8.12
1006.068	80.2
1006.23	-3.31
1006.392	4.63
1006.554	38.35
1006.716	109.26
1006.878	81.16
1007.04	14.51
1007.202	42.03
1007.363	88.14
1007.525	48.42
1007.687	97.24
1007.849	101.7
1008.011	13.16
1008.172	25.36
1008.334	34.28
1008.496	73.41
1008.658	-1.95
1008.819	11.41
1008.981	17.23
1009.143	6.38
1009.304	37.57
1009.466	82.13
1009.627	113.52
1009.789	157.89
1009.95	67.41
1010.112	36.41
1010.273	44.74
1010.435	11.03
1010.596	18
1010.758	29.63
1010.919	42.61
1011.081	6.77
1011.242	38.93
1011.403	65.86
1011.565	33.31
1011.726	71.86
1011.887	18.58
1012.049	23.43
1012.21	55.98
1012.371	108.87
1012.532	-48.07
1012.693	38.15
1012.855	16.84
1013.016	47.45
1013.177	66.83
1013.338	42.41
1013.499	104.61
1013.66	70.12
1013.821	106.54
1013.982	59.46
1014.143	50.16
1014.304	13.16
1014.465	55.2
1014.626	69.73
1014.787	15.1
1014.948	104.61
1015.109	-31.21
1015.27	68.18
1015.431	3.08
1015.592	8.7
1015.752	118.56
1015.913	20.13
1016.074	50.94
1016.235	50.36
1016.395	37.38
1016.556	11.41
1016.717	39.51
1016.877	82.91
1017.038	9.09
1017.199	39.31
1017.359	27.69
1017.52	34.66
1017.681	14.9
1017.841	36.41
1018.002	43.77
1018.162	16.84
1018.323	68.96
1018.483	2.5
1018.644	-1.76
1018.804	8.12
1018.964	5.02
1019.125	14.32
1019.285	19.36
1019.446	-2.73
1019.606	-13.97
1019.766	-12.03
1019.926	53.26
1020.087	51.13
1020.247	-25.59
1020.407	47.45
1020.567	77.1
1020.728	15.68
1020.888	-4.08
1021.048	-8.93
1021.208	-6.99
1021.368	12.19
1021.528	67.6
1021.688	57.72
1021.848	64.31
1022.008	54.81
1022.168	27.88
1022.328	19.75
1022.488	61.01
1022.648	0.95
1022.808	20.91
1022.968	47.26
1023.128	13.55
1023.288	-3.89
1023.448	26.14
1023.608	22.07
1023.767	47.65
1023.927	-0.4
1024.087	-3.89
1024.247	-11.45
1024.406	11.61
1024.566	-27.92
1024.726	-4.08
1024.885	18.58
1025.045	28.08
1025.205	4.25
1025.364	13.74
1025.524	40.28
1025.683	17.03
1025.843	38.35
1026.003	6.18
1026.162	57.14
1026.321	70.12
1026.481	22.65
1026.64	10.25
1026.8	34.08
1026.959	12.96
1027.119	40.28
1027.278	-6.99
1027.437	-0.21
1027.597	6.96
1027.756	35.83
1027.915	33.31
1028.074	43.77
1028.234	-8.54
1028.393	24.78
1028.552	11.8
1028.711	-69.57
1028.87	47.84
1029.03	-21.13
1029.189	15.48
1029.348	-53.3
1029.507	-11.64
1029.666	-23.07
1029.825	9.28
1029.984	-11.06
1030.143	25.95
1030.302	16.65
1030.461	-24.82
1030.62	-6.8
1030.779	25.56
1030.938	-34.89
1031.097	-28.69
1031.255	44.74
1031.414	71.86
1031.573	50.75
1031.732	-34.31
1031.891	-6.22
1032.049	76.9
1032.208	46.68
1032.367	-14.16
1032.525	-18.23
1032.684	-4.47
1032.843	13.93
1033.001	-14.55
1033.16	184.24
1033.319	61.01
1033.477	19.94
1033.636	-14.16
1033.794	-25.2
1033.953	49.78
1034.111	43.58
1034.27	-17.07
1034.428	46.48
1034.587	-26.95
1034.745	37.76
1034.903	33.11
1035.062	46.1
1035.22	-28.69
1035.378	35.83
1035.537	-40.12
1035.695	36.02
1035.853	-5.63
1036.011	45.51
1036.17	35.63
1036.328	-51.75
1036.486	3.28
1036.644	5.41
1036.802	-84.3
1036.96	-8.54
1037.119	-12.8
1037.277	-37.41
1037.435	-22.88
1037.593	-22.88
1037.751	8.9
1037.909	35.83
1038.067	35.83
