Data from gum_old_FLMT105791__106__15-45-55-253.txt Node

Date: Mon Mar 20 15:45:55 GMT 2023
User: antho
Spectrometer: FLMT10579
Trigger mode: 0
Integration Time (sec): 1.000000E-1
Scans to average: 10
Electric dark correction enabled: true
Nonlinearity correction enabled: false
Boxcar width: 0
XAxis mode: Wavelengths
Number of Pixels in Spectrum: 3648
>>>>>Begin Spectral Data<<<<<
345.248	-186.4
345.464	-186.4
345.681	-186.4
345.898	-198.41
346.114	-179.43
346.331	-59.5
346.548	50.16
346.764	-5.63
346.981	-3.5
347.197	-4.08
347.414	27.88
347.631	-8.73
347.847	68.76
348.064	-8.93
348.28	10.06
348.497	-45.35
348.713	-21.13
348.93	51.33
349.146	33.7
349.363	-15.13
349.579	12
349.796	3.47
350.012	-0.6
350.229	26.14
350.445	18.58
350.661	-21.13
350.878	-1.76
351.094	24.2
351.311	14.9
351.527	41.64
351.743	16.84
351.96	51.91
352.176	46.29
352.392	61.4
352.609	61.21
352.825	22.46
353.041	1.34
353.257	2.12
353.474	19.16
353.69	12.58
353.906	27.88
354.122	6.77
354.339	82.33
354.555	8.12
354.771	-0.98
354.987	102.48
355.203	79.81
355.42	39.12
355.636	-4.67
355.852	8.31
356.068	30.98
356.284	-36.44
356.5	69.35
356.716	42.8
356.932	20.91
357.148	43.38
357.364	31.37
357.58	61.79
357.796	65.86
358.012	72.25
358.228	55.59
358.444	-39.93
358.66	64.5
358.876	41.83
359.092	-31.4
359.308	28.66
359.524	48.42
359.74	2.31
359.956	6.57
360.172	50.16
360.388	54.04
360.604	-7.18
360.819	98.79
361.035	36.41
361.251	81.94
361.467	12.96
361.683	61.21
361.898	28.66
362.114	54.04
362.33	33.11
362.546	68.18
362.762	40.48
362.977	51.91
363.193	-2.73
363.409	70.51
363.624	-9.51
363.84	5.41
364.056	4.05
364.271	51.13
364.487	31.37
364.703	13.55
364.918	18.78
365.134	15.68
365.35	36.21
365.565	138.9
365.781	63.73
365.996	34.86
366.212	110.61
366.427	66.63
366.643	29.24
366.858	14.71
367.074	13.35
367.289	86.4
367.505	166.22
367.72	-13.77
367.936	15.1
368.151	61.01
368.367	69.54
368.582	53.07
368.798	51.71
369.013	81.94
369.228	39.12
369.444	48.61
369.659	99.38
369.874	45.9
370.09	64.11
370.305	-24.82
370.52	32.92
370.736	84.65
370.951	53.85
371.166	105.19
371.381	101.7
371.597	66.83
371.812	25.75
372.027	-0.98
372.242	47.65
372.458	129.02
372.673	10.45
372.888	47.84
373.103	72.06
373.318	142.58
373.533	92.6
373.749	65.47
373.964	-8.93
374.179	92.98
374.394	4.63
374.609	78.84
374.824	-18.62
375.039	100.54
375.254	12.96
375.469	86.4
375.684	35.63
375.899	78.06
376.114	49.97
376.329	41.64
376.544	63.92
376.759	71.28
376.974	39.31
377.189	58.3
377.404	49
377.619	67.6
377.834	4.63
378.049	10.06
378.264	13.74
378.478	64.7
378.693	36.02
378.908	97.63
379.123	39.9
379.338	109.45
379.553	45.71
379.767	55.98
379.982	74
380.197	99.18
380.412	40.48
380.626	84.07
380.841	139.09
381.056	83.1
381.271	114.1
381.485	49.2
381.7	17.03
381.915	52.1
382.129	49.78
382.344	72.45
382.559	54.04
382.773	104.8
382.988	-5.44
383.202	75.55
383.417	25.95
383.632	125.73
383.846	44.93
384.061	71.86
384.275	52.3
384.49	53.26
384.704	83.1
384.919	67.02
385.133	56.56
385.348	92.98
385.562	26.72
385.777	101.51
385.991	71.86
386.206	48.42
386.42	62.95
386.634	110.03
386.849	80
387.063	90.66
387.277	28.27
387.492	60.43
387.706	39.12
387.92	40.09
388.135	96.28
388.349	66.83
388.563	106.93
388.778	88.14
388.992	72.64
389.206	97.05
389.42	152.27
389.635	72.83
389.849	100.54
390.063	117.98
390.277	103.06
390.491	149.94
390.706	109.45
390.92	117.39
391.134	90.08
391.348	134.64
391.562	19.55
391.776	103.25
391.99	57.33
392.205	129.99
392.419	70.9
392.633	75.74
392.847	123.4
393.061	58.3
393.275	144.71
393.489	62.76
393.703	74.77
393.917	104.03
394.131	44.74
394.345	91.63
394.559	113.91
394.773	69.93
394.986	106.16
395.2	107.9
395.414	117.78
395.628	87.17
395.842	115.26
396.056	117.39
396.27	60.24
396.484	109.64
396.697	112.16
396.911	151.88
397.125	112.94
397.339	124.56
397.553	79.42
397.766	141.61
397.98	119.33
398.194	141.23
398.408	112.16
398.621	137.54
398.835	186.17
399.049	139.68
399.262	174.16
399.476	172.81
399.69	159.05
399.903	248.56
400.117	159.83
400.331	170.48
400.544	130.57
400.758	238.68
400.971	179.98
401.185	190.44
401.398	106.35
401.612	231.51
401.826	174.94
402.039	207.68
402.253	130.57
402.466	211.17
402.68	179.2
402.893	200.9
403.106	202.26
403.32	195.28
403.533	187.92
403.747	210.01
403.96	187.34
404.174	195.47
404.387	130.57
404.6	202.26
404.814	209.42
405.027	155.56
405.24	160.99
405.454	159.83
405.667	236.94
405.88	135.41
406.094	201.29
406.307	244.11
406.52	207.29
406.733	151.3
406.947	135.03
407.16	253.21
407.373	228.8
407.586	146.65
407.799	143.74
408.012	218.72
408.226	218.72
408.439	268.91
408.652	157.89
408.865	240.42
409.078	250.31
409.291	219.11
409.504	188.69
409.717	236.55
409.93	224.54
410.143	246.82
410.357	175.13
410.57	172.03
410.783	177.07
410.996	211.36
411.209	205.16
411.421	271.62
411.634	225.7
411.847	194.7
412.06	217.37
412.273	206.52
412.486	224.54
412.699	323.54
412.912	243.33
413.125	255.73
413.338	222.41
413.55	246.43
413.763	226.28
413.976	241.01
414.189	166.41
414.402	203.22
414.615	296.03
414.827	213.49
415.04	264.06
415.253	265.22
415.466	268.91
415.678	316.37
415.891	235.39
416.104	256.12
416.316	215.43
416.529	213.88
416.742	275.1
416.954	280.34
417.167	253.41
417.38	246.04
417.592	274.33
417.805	208.65
418.017	187.92
418.23	288.67
418.442	226.67
418.655	243.72
418.868	263.67
419.08	272.2
419.293	318.5
419.505	240.04
419.718	270.84
419.93	319.47
420.142	241.78
420.355	327.42
420.567	294.87
420.78	269.68
420.992	259.41
421.205	340.01
421.417	230.54
421.629	239.65
421.842	228.99
422.054	240.23
422.266	313.66
422.479	328.77
422.691	235.97
422.903	318.12
423.115	238.87
423.328	252.63
423.54	248.56
423.752	243.91
423.964	221.24
424.177	268.52
424.389	272.97
424.601	383.41
424.813	248.95
425.025	316.18
425.238	315.21
425.45	267.36
425.662	256.7
425.874	588.78
426.086	281.69
426.298	307.27
426.51	289.64
426.722	278.2
426.934	253.79
427.146	293.9
427.358	252.24
427.57	297
427.782	246.04
427.994	269.68
428.206	243.14
428.418	230.16
428.63	271.62
428.842	339.62
429.054	298.74
429.266	315.99
429.478	226.09
429.69	266.77
429.902	242.56
430.114	293.12
430.325	293.12
430.537	223.96
430.749	236.36
430.961	190.05
431.173	223.18
431.384	272.39
431.596	182.11
431.808	250.31
432.02	290.22
432.231	326.06
432.443	365.97
432.655	325.09
432.867	299.9
433.078	338.65
433.29	374.69
433.502	337.1
433.713	374.3
433.925	352.41
434.136	364.23
434.348	309.01
434.56	253.6
434.771	401.82
434.983	262.71
435.194	275.88
435.406	317.92
435.617	374.3
435.829	416.93
436.04	372.75
436.252	376.05
436.463	386.32
436.675	426.23
436.886	358.61
437.098	390.77
437.309	464.2
437.521	371.4
437.732	393.48
437.943	358.42
438.155	330.52
438.366	311.92
438.578	416.35
438.789	354.93
439	371.4
439.211	346.4
439.423	347.57
439.634	362.87
439.845	383.41
440.057	389.61
440.268	414.6
440.479	367.72
440.69	396.97
440.902	362.87
441.113	349.89
441.324	394.07
441.535	411.12
441.746	429.52
441.957	344.47
442.168	380.12
442.38	432.43
442.591	423.52
442.802	381.86
443.013	377.6
443.224	436.88
443.435	409.57
443.646	398.52
443.857	388.83
444.068	387.87
444.279	363.07
444.49	470.6
444.701	395.03
444.912	545.77
445.123	455.48
445.334	439.4
445.545	426.81
445.756	425.45
445.967	383.41
446.178	435.33
446.388	439.6
446.599	447.15
446.81	449.86
447.021	398.13
447.232	478.54
447.443	496.17
447.653	393.1
447.864	502.76
448.075	440.76
448.286	476.6
448.496	464.2
448.707	514.96
448.918	414.8
449.129	525.43
449.339	438.82
449.55	474.08
449.761	423.52
449.971	500.82
450.182	446.38
450.393	493.07
450.603	443.86
450.814	539.38
451.024	493.46
451.235	534.53
451.446	555.46
451.656	503.34
451.867	461.88
452.077	486.1
452.288	544.03
452.498	542.67
452.709	477.76
452.919	506.63
453.13	463.62
453.34	513.61
453.55	429.91
453.761	498.3
453.971	511.28
454.182	497.53
454.392	501.01
454.602	569.21
454.813	498.11
455.023	527.17
455.233	430.49
455.444	487.84
455.654	420.03
455.864	466.91
456.075	458.2
456.285	458.97
456.495	450.83
456.705	496.36
456.916	566.11
457.126	572.51
457.336	526.01
457.546	438.05
457.756	487.84
457.967	551.97
458.177	487.45
458.387	548.09
458.597	461.88
458.807	512.06
459.017	493.65
459.227	499.66
459.437	462.85
459.647	538.41
459.857	533.95
460.068	477.96
460.278	545.77
460.488	525.43
460.698	570.57
460.908	500.82
461.117	482.61
461.327	495.4
461.537	539.96
461.747	540.15
461.957	491.52
462.167	650.01
462.377	572.51
462.587	502.95
462.797	612.42
463.007	530.66
463.216	574.06
463.426	608.16
463.636	564.76
463.846	485.71
464.056	520.78
464.265	544.99
464.475	483
464.685	552.55
464.895	590.14
465.104	528.14
465.314	553.71
465.524	540.54
465.733	515.16
465.943	616.88
466.153	610.29
466.362	575.99
466.572	563.01
466.782	545.58
466.991	549.64
467.201	608.93
467.41	514.19
467.62	583.55
467.829	580.26
468.039	611.84
468.249	523.1
468.458	563.4
468.668	615.52
468.877	613
469.086	648.26
469.296	665.31
469.505	592.66
469.715	662.79
469.924	656.01
470.134	651.36
470.343	665.89
470.552	587.04
470.762	597.89
470.971	566.89
471.18	606.41
471.39	594.01
471.599	571.15
471.808	627.53
472.018	594.4
472.227	674.03
472.436	681.59
472.645	645.16
472.855	613.39
473.064	699.22
473.273	681.39
473.482	684.69
473.691	721.5
473.901	668.61
474.11	637.22
474.319	739.52
474.528	675.39
474.737	746.49
474.946	676.16
475.155	723.82
475.364	748.24
475.573	706.58
475.783	753.66
475.992	737
476.201	746.3
476.41	712
476.619	668.41
476.828	720.14
477.037	722.47
477.245	741.26
477.454	735.25
477.663	672.48
477.872	723.24
478.081	813.72
478.29	727.12
478.499	859.06
478.708	784.08
478.917	839.49
479.125	777.49
479.334	800.16
479.543	783.3
479.752	806.36
479.961	795.7
480.169	822.83
480.378	766.84
480.587	929.2
480.796	848.4
481.004	827.48
481.213	864.87
481.422	830.19
481.63	807.91
481.839	872.62
482.048	898.2
482.256	855.96
482.465	910.79
482.674	895.68
482.882	897.81
483.091	946.05
483.299	907.69
483.508	909.82
483.716	884.05
483.925	880.57
484.134	867.97
484.342	835.23
484.551	937.91
484.759	893.16
484.967	937.33
485.176	946.05
485.384	969.49
485.593	955.74
485.801	949.35
486.01	900.52
486.218	857.7
486.426	783.11
486.635	817.79
486.843	786.21
487.051	841.43
487.26	839.88
487.468	863.32
487.676	904.4
487.885	866.42
488.093	907.11
488.301	907.5
488.509	943.53
488.717	979.57
488.926	968.72
489.134	971.82
489.342	962.91
489.55	935.98
489.758	930.36
489.967	960.58
490.175	1093.3
490.383	990.61
490.591	1076.06
490.799	953.61
491.007	1069.47
491.215	1034.01
491.423	1019.29
491.631	1024.71
491.839	1035.76
492.047	1055.52
492.255	980.54
492.463	948.38
492.671	939.66
492.879	1052.81
493.087	993.91
493.295	1048.54
493.503	1077.61
493.711	1106.67
493.919	1112.48
494.127	1062.69
494.334	1096.21
494.542	1019.09
494.75	1095.04
494.958	1075.47
495.166	1152.78
495.374	1128.56
495.581	1103.76
495.789	1108.8
495.997	1152.97
496.205	1085.94
496.412	1100.27
496.62	1064.24
496.828	1102.41
497.035	1083.61
497.243	1146.19
497.451	1127.01
497.658	1138.25
497.866	1125.27
498.074	1210.13
498.281	1097.37
498.489	1152
498.696	1110.35
498.904	1123.72
499.112	1084.19
499.319	1173.51
499.527	1121.2
499.734	1138.83
499.942	1117.32
500.149	1096.59
500.357	1175.45
500.564	1069.47
500.771	1122.94
500.979	1088.46
501.186	1066.37
501.394	1123.14
501.601	1115.97
501.808	1121.97
502.016	1137.47
502.223	1077.22
502.43	1119.46
502.638	1099.89
502.845	1101.05
503.052	1194.63
503.26	1130.5
503.467	1191.53
503.674	1150.84
503.881	1172.93
504.089	1237.83
504.296	1175.64
504.503	1086.13
504.71	1130.11
504.917	1094.07
505.125	1164.99
505.332	1188.04
505.539	1169.25
505.746	1236.48
505.953	1237.83
506.16	1203.54
506.367	1255.66
506.574	1271.35
506.781	1241.13
506.988	1216.14
507.195	1233.77
507.402	1203.74
507.609	1279.1
507.816	1209.74
508.023	1208
508.23	1183
508.437	1151.04
508.644	1220.4
508.851	1235.32
509.058	1199.28
509.265	1234.93
509.472	1240.55
509.679	1313.78
509.885	1251.01
510.092	1231.83
510.299	1253.33
510.506	1241.32
510.713	1260.31
510.92	1264.96
511.126	1278.91
511.333	1299.64
511.54	1265.93
511.746	1327.54
511.953	1290.53
512.16	1354.47
512.367	1301.97
512.573	1270.58
512.78	1269.8
512.987	1280.46
513.193	1273.29
513.4	1181.45
513.606	1259.92
513.813	1299.83
514.02	1298.28
514.226	1343.23
514.433	1318.43
514.639	1233.96
514.846	1303.52
515.052	1212.45
515.259	1281.62
515.465	1286.47
515.672	1288.79
515.878	1400.2
516.085	1301.38
516.291	1340.91
516.497	1281.23
516.704	1264.57
516.91	1243.07
517.117	1225.05
517.323	1149.87
517.529	1164.21
517.736	1190.75
517.942	1157.82
518.148	1186.49
518.354	1263.8
518.561	1242.48
518.767	1263.22
518.973	1296.15
519.179	1297.32
519.386	1235.51
519.592	1247.91
519.798	1286.08
520.004	1353.5
520.21	1323.66
520.417	1383.34
520.623	1414.92
520.829	1413.37
521.035	1396.9
521.241	1400.39
521.447	1392.06
521.653	1485.64
521.859	1418.6
522.065	1446.31
522.271	1538.14
522.477	1480.41
522.683	1540.47
522.889	1490.48
523.095	1504.43
523.301	1493.77
523.507	1421.51
523.713	1455.22
523.919	1409.49
524.125	1522.64
524.331	1515.86
524.537	1583.87
524.742	1548.99
524.948	1555
525.154	1610.99
525.36	1676.48
525.566	1575.92
525.772	1650.9
525.977	1542.99
526.183	1589.87
526.389	1629.79
526.595	1561.97
526.8	1551.32
527.006	1479.24
527.212	1441.85
527.417	1400.39
527.623	1423.64
527.829	1517.22
528.034	1544.15
528.24	1527.87
528.446	1529.62
528.651	1637.92
528.857	1603.24
529.062	1661.95
529.268	1629.79
529.473	1663.11
529.679	1657.3
529.884	1741.38
530.09	1710.38
530.295	1751.46
530.501	1707.87
530.706	1706.12
530.912	1648.58
531.117	1701.47
531.323	1685
531.528	1743.13
531.733	1771.61
531.939	1721.43
532.144	1784.2
532.35	1745.45
532.555	1742.55
532.76	1716.97
532.966	1752.62
533.171	1705.73
533.376	1711.35
533.581	1624.94
533.787	1654.59
533.992	1701.67
534.197	1759.21
534.402	1755.33
534.607	1725.11
534.813	1837.87
535.018	1752.43
535.223	1749.13
535.428	1772.58
535.633	1815.59
535.838	1819.85
536.043	1799.51
536.249	1903.74
536.454	1803.77
536.659	1793.7
536.864	1774.9
537.069	1805.51
537.274	1848.14
537.479	1788.08
537.684	1789.82
537.889	1772.96
538.094	1846.59
538.299	1786.33
538.504	1810.75
538.708	1866.74
538.913	1849.11
539.118	1827.6
539.323	1862.67
539.528	1810.16
539.733	1799.12
539.938	1856.28
540.142	1785.95
540.347	1790.01
540.552	1763.66
540.757	1800.86
540.962	1795.05
541.166	1735.96
541.371	1723.75
541.576	1767.54
541.781	1650.13
541.985	1818.11
542.19	1784.2
542.395	1877.01
542.599	1869.64
542.804	1884.76
543.008	1921.38
543.213	1813.07
543.418	1791.37
543.622	1880.3
543.827	1798.93
544.031	1906.26
544.236	1887.28
544.44	1890.38
544.645	1923.7
544.849	1849.69
545.054	1894.83
545.258	1987.25
545.463	1967.68
545.667	1865.58
545.872	1938.62
546.076	1894.44
546.281	1924.48
546.485	1840
546.689	1934.74
546.894	1939.97
547.098	1865.77
547.302	1867.51
547.507	1917.5
547.711	1892.12
547.915	1955.28
548.119	1827.8
548.324	1900.84
548.528	1920.6
548.732	1867.32
548.936	1921.57
549.141	1894.44
549.345	1875.84
549.549	1909.36
549.753	1922.73
549.957	1977.95
550.161	2012.82
550.366	1915.18
550.57	1894.44
550.774	1913.82
550.978	1914.01
551.182	1944.82
551.386	1884.76
551.59	1917.89
551.794	1876.04
551.998	1908.78
552.202	1909.56
552.406	1868.68
552.61	1928.35
552.814	1920.21
553.018	1956.25
553.222	1886.31
553.426	1885.73
553.63	1983.76
553.833	1934.74
554.037	1898.51
554.241	1913.82
554.445	1884.56
554.649	1901.81
554.853	1871.78
555.056	1933
555.26	1993.45
555.464	1956.06
555.668	1946.76
555.871	1928.16
556.075	1930.09
556.279	1872.94
556.483	1887.47
556.686	1900.45
556.89	1941.33
557.094	1912.85
557.297	1800.48
557.501	1922.34
557.704	1815.98
557.908	1895.99
558.112	1827.41
558.315	1897.54
558.519	1873.13
558.722	1836.9
558.926	1829.54
559.129	1781.88
559.333	1770.64
559.536	1799.9
559.74	1804.74
559.943	1748.94
560.147	1745.07
560.35	1765.21
560.553	1781.3
560.757	1726.08
560.96	1834.38
561.164	1762.11
561.367	1872.16
561.57	1817.14
561.774	1805.71
561.977	1784.4
562.18	1780.13
562.384	1876.04
562.587	1803.77
562.79	1758.24
562.993	1759.98
563.197	1811.33
563.4	1850.08
563.603	1855.11
563.806	1872.36
564.009	1765.6
564.212	1824.7
564.416	1739.45
564.619	1782.26
564.822	1696.82
565.025	1802.8
565.228	1733.25
565.431	1751.65
565.634	1627.65
565.837	1711.93
566.04	1698.57
566.243	1664.85
566.446	1598.2
566.649	1709.03
566.852	1617.19
567.055	1720.85
567.258	1722.59
567.461	1770.64
567.664	1735.77
567.867	1632.89
568.07	1698.95
568.273	1698.18
568.475	1730.92
568.678	1683.45
568.881	1636.37
569.084	1680.93
569.287	1564.3
569.489	1580.77
569.692	1650.13
569.895	1669.12
570.098	1577.09
570.3	1579.8
570.503	1537.56
570.706	1560.42
570.909	1532.72
571.111	1520.9
571.314	1504.24
571.516	1555.58
571.719	1562.36
571.922	1517.8
572.124	1541.63
572.327	1513.73
572.529	1474.4
572.732	1511.99
572.935	1558.87
573.137	1627.46
573.34	1569.14
573.542	1571.27
573.745	1547.44
573.947	1545.12
574.15	1530.01
574.352	1498.23
574.554	1578.06
574.757	1481.57
574.959	1484.67
575.162	1486.8
575.364	1466.84
575.566	1557.32
575.769	1438.75
575.971	1469.75
576.173	1381.01
576.376	1470.91
576.578	1506.56
576.78	1557.91
576.982	1386.83
577.185	1455.61
577.387	1433.91
577.589	1429.06
577.791	1474.98
577.993	1473.24
578.196	1424.22
578.398	1466.26
578.6	1474.98
578.802	1395.74
579.004	1405.81
579.206	1391.86
579.408	1396.13
579.61	1347.5
579.812	1465.1
580.014	1396.32
580.216	1389.15
580.418	1403.68
580.62	1351.56
580.822	1352.34
581.024	1406.98
581.226	1433.52
581.428	1393.41
581.63	1480.79
581.832	1368.23
582.034	1450.76
582.236	1407.36
582.438	1431.19
582.64	1458.71
582.841	1486.22
583.043	1469.94
583.245	1400.97
583.447	1429.45
583.649	1378.88
583.85	1415.5
584.052	1443.98
584.254	1354.28
584.456	1446.31
584.657	1360.28
584.859	1426.16
585.061	1350.21
585.262	1371.33
585.464	1332.77
585.666	1399.81
585.867	1365.9
586.069	1419.96
586.27	1363.77
586.472	1350.4
586.674	1317.27
586.875	1340.91
587.077	1337.03
587.278	1390.12
587.48	1325.21
587.681	1458.9
587.883	1344.4
588.084	1259.34
588.285	1318.05
588.487	1325.41
588.688	1344.78
588.89	1263.02
589.091	1248.49
589.292	1276.97
589.494	1186.88
589.695	1190.95
589.896	1150.07
590.098	1121.01
590.299	1194.24
590.5	1166.34
590.702	1149.29
590.903	1228.34
591.104	1286.47
591.305	1254.69
591.507	1336.26
591.708	1244.23
591.909	1262.25
592.11	1325.02
592.311	1301.58
592.512	1222.92
592.714	1199.09
592.915	1223.3
593.116	1240.93
593.317	1248.1
593.518	1239.38
593.719	1248.88
593.92	1261.08
594.121	1309.13
594.322	1249.85
594.523	1246.17
594.724	1219.24
594.925	1238.42
595.126	1232.6
595.327	1281.43
595.528	1236.09
595.729	1249.65
595.929	1222.34
596.13	1232.6
596.331	1257.6
596.532	1246.55
596.733	1324.05
596.934	1276.2
597.135	1249.65
597.335	1257.4
597.536	1218.85
597.737	1251.01
597.938	1182.81
598.138	1270
598.339	1230.09
598.54	1260.12
598.74	1220.4
598.941	1236.28
599.142	1269.42
599.342	1232.8
599.543	1185.33
599.744	1234.73
599.944	1192.3
600.145	1210.52
600.345	1213.81
600.546	1326.38
600.746	1292.86
600.947	1288.21
601.147	1241.52
601.348	1246.17
601.548	1178.35
601.749	1224.08
601.949	1167.89
602.15	1182.04
602.35	1195.6
602.551	1252.37
602.751	1174.48
602.951	1180.49
603.152	1126.43
603.352	1231.83
603.552	1219.04
603.753	1212.45
603.953	1207.22
604.153	1221.56
604.354	1195.21
604.554	1233.38
604.754	1209.74
604.954	1131.86
605.155	1235.12
605.355	1200.05
605.555	1243.45
605.755	1242.48
605.955	1202.96
606.155	1238.42
606.356	1233.38
606.556	1227.76
606.756	1206.06
606.956	1131.86
607.156	1279.3
607.356	1169.44
607.556	1203.15
607.756	1179.9
607.956	1237.45
608.156	1223.3
608.356	1127.01
608.556	1198.7
608.756	1183.97
608.956	1124.69
609.156	1207.22
609.356	1156.46
609.556	1144.06
609.755	1164.02
609.955	1125.27
610.155	1162.08
610.355	1171.19
610.555	1115.58
610.755	1153.36
610.954	1083.03
611.154	1132.44
611.354	1173.7
611.554	1136.12
611.753	1114.22
611.953	1096.98
612.153	1151.04
612.352	1177
612.552	1096.21
612.752	1073.15
612.951	1111.32
613.151	1121.97
613.351	1092.33
613.55	1095.04
613.75	1116.74
613.949	1123.33
614.149	1109.19
614.348	1092.52
614.548	1055.71
614.747	1021.61
614.947	1064.82
615.146	1021.61
615.346	1082.84
615.545	1093.3
615.745	1097.17
615.944	1136.89
616.144	1092.72
616.343	1102.79
616.542	1077.41
616.742	1072.18
616.941	1054.74
617.14	978.79
617.34	1063.85
617.539	1053
617.738	1032.08
617.938	1126.43
618.137	1040.6
618.336	1000.88
618.535	1078.57
618.734	1070.44
618.934	1063.07
619.133	1052.03
619.332	1054.16
619.531	1020.26
619.73	1038.08
619.929	1036.34
620.128	1080.71
620.328	1108.41
620.527	1041.76
620.726	1030.91
620.925	1083.61
621.124	1029.56
621.323	1058.62
621.522	1000.3
621.721	1013.86
621.92	984.03
622.119	1053.39
622.318	1021.61
622.517	1011.73
622.715	1014.64
622.914	937.91
623.113	1034.98
623.312	972.79
623.511	1053.39
623.71	1017.93
623.909	985.58
624.107	1073.34
624.306	950.12
624.505	934.62
624.704	967.75
624.902	986.16
625.101	1073.15
625.3	998.17
625.499	973.95
625.697	977.05
625.896	933.46
626.095	992.55
626.293	925.13
626.492	945.08
626.69	978.79
626.889	952.64
627.088	1012.89
627.286	960.58
627.485	948.18
627.683	945.86
627.882	958.26
628.08	907.88
628.279	927.26
628.477	1029.36
628.676	899.75
628.874	972.01
629.073	931.33
629.271	926.1
629.469	1006.89
629.668	941.01
629.866	953.41
630.065	907.11
630.263	960.58
630.461	904.01
630.66	966.01
630.858	941.21
631.056	983.64
631.254	951.67
631.453	923
631.651	986.93
631.849	952.25
632.047	942.76
632.245	935.01
632.444	953.61
632.642	948.18
632.84	988.29
633.038	892
633.236	885.6
633.434	923
633.632	870.68
633.83	900.13
634.028	935.01
634.227	909.24
634.425	984.41
634.623	914.66
634.821	951.86
635.019	933.07
635.216	902.85
635.414	978.6
635.612	934.62
635.81	935.01
636.008	975.89
636.206	892.96
636.404	927.65
636.602	881.15
636.8	901.88
636.997	950.51
637.195	963.49
637.393	922.61
637.591	972.01
637.789	925.9
637.986	903.62
638.184	911.95
638.382	971.04
638.58	937.14
638.777	994.1
638.975	914.28
639.173	903.23
639.37	916.99
639.568	903.04
639.765	941.21
639.963	898.58
640.161	943.53
640.358	915.63
640.556	876.69
640.753	854.02
640.951	876.69
641.148	913.31
641.346	868.75
641.543	848.02
641.741	909.24
641.938	837.55
642.136	886.18
642.333	862.55
642.531	905.95
642.728	999.14
642.925	879.4
643.123	886.57
643.32	883.66
643.517	860.8
643.715	892.77
643.912	871.46
644.109	879.6
644.306	866.62
644.504	817.79
644.701	852.47
644.898	916.99
645.095	852.47
645.293	849.95
645.49	904.98
645.687	859.83
645.884	880.37
646.081	803.84
646.278	839.49
646.475	830.58
646.672	819.73
646.87	858.48
647.067	858.09
647.264	892.19
647.461	799
647.658	763.35
647.855	875.33
648.052	826.51
648.249	753.08
648.446	847.63
648.642	791.83
648.839	771.29
649.036	770.32
649.233	753.66
649.43	747.65
649.627	751.53
649.824	778.85
650.021	768.77
650.217	789.12
650.414	738.16
650.611	802.68
650.808	792.6
651.004	803.65
651.201	808.3
651.398	864.1
651.595	796.67
651.791	782.92
651.988	820.12
652.185	779.82
652.381	792.8
652.578	749.59
652.775	783.69
652.971	786.4
653.168	786.99
653.364	807.72
653.561	729.05
653.757	762.96
653.954	800.74
654.15	769.94
654.347	874.37
654.543	789.31
654.74	702.51
654.936	733.32
655.133	780.79
655.329	782.34
655.525	775.17
655.722	813.14
655.918	737
656.115	773.23
656.311	698.44
656.507	638.77
656.704	609.71
656.9	648.65
657.096	649.81
657.292	671.32
657.489	716.27
657.685	702.12
657.881	675.39
658.077	697.86
658.273	716.46
658.47	810.04
658.666	728.67
658.862	772.84
659.058	711.81
659.254	784.66
659.45	685.07
659.646	756.37
659.842	733.12
660.038	770.13
660.234	712.2
660.43	769.16
660.626	825.35
660.822	784.08
661.018	771.1
661.214	759.28
661.41	710.84
661.606	768.77
661.802	770.9
661.998	780.4
662.194	708.9
662.39	767.8
662.586	780.4
662.781	764.7
662.977	758.5
663.173	776.33
663.369	736.42
663.564	783.69
663.76	770.13
663.956	738.16
664.152	792.02
664.347	691.08
664.543	729.64
664.739	722.66
664.934	667.06
665.13	660.86
665.326	752.11
665.521	737.97
665.717	715.3
665.912	696.31
666.108	621.14
666.304	723.63
666.499	698.06
666.695	630.05
666.89	688.17
667.086	763.74
667.281	762.57
667.477	786.02
667.672	710.65
667.867	726.92
668.063	733.12
668.258	672.48
668.454	726.73
668.649	786.6
668.844	731.57
669.04	769.16
669.235	688.95
669.43	691.08
669.626	664.92
669.821	685.85
670.016	655.04
670.211	704.45
670.407	691.47
670.602	745.33
670.797	693.02
670.992	740.49
671.187	687.59
671.382	752.69
671.578	710.26
671.773	702.71
671.968	683.52
672.163	704.45
672.358	735.25
672.553	686.82
672.748	668.99
672.943	774.2
673.138	686.04
673.333	737.19
673.528	659.89
673.723	698.06
673.918	700.96
674.113	668.41
674.308	776.91
674.503	714.52
674.698	733.32
674.892	681.2
675.087	723.63
675.282	714.72
675.477	682.75
675.672	714.14
675.867	690.5
676.061	672.29
676.256	651.17
676.451	675
676.646	702.51
676.84	653.49
677.035	641.09
677.23	632.96
677.424	704.45
677.619	728.09
677.814	731.57
678.008	718.79
678.203	655.43
678.397	659.89
678.592	684.49
678.787	765.67
678.981	663.18
679.176	692.05
679.37	682.17
679.565	660.27
679.759	653.3
679.954	722.47
680.148	741.45
680.342	744.36
680.537	696.51
680.731	702.51
680.926	683.14
681.12	709.87
681.314	671.32
681.509	681.01
681.703	687.59
681.897	702.71
682.092	666.67
682.286	645.94
682.48	775.17
682.674	722.66
682.869	676.36
683.063	695.73
683.257	742.23
683.451	643.42
683.645	700.77
683.839	672.09
684.034	671.9
684.228	707.55
684.422	658.14
684.616	638.96
684.81	696.31
685.004	669.77
685.198	671.12
685.392	705.42
685.586	674.03
685.78	701.93
685.974	712
686.168	698.25
686.362	718.4
686.556	658.14
686.75	630.44
686.944	634.51
687.138	676.36
687.331	554.88
687.525	594.98
687.719	533.18
687.913	623.46
688.107	593.24
688.301	543.83
688.494	616.29
688.688	563.01
688.882	503.34
689.076	546.74
689.269	549.06
689.463	680.04
689.657	576.77
689.85	595.18
690.044	595.76
690.238	585.1
690.431	573.28
690.625	585.68
690.818	595.56
691.012	623.46
691.205	646.13
691.399	599.83
691.593	638.57
691.786	681.2
691.98	655.82
692.173	696.31
692.366	691.47
692.56	639.16
692.753	717.43
692.947	641.29
693.14	699.99
693.333	710.84
693.527	642.84
693.72	678.1
693.914	652.33
694.107	662.99
694.3	705.42
694.493	671.71
694.687	738.74
694.88	671.51
695.073	740.87
695.266	690.31
695.46	715.3
695.653	736.61
695.846	754.82
696.039	644.97
696.232	704.26
696.425	738.55
696.618	746.88
696.812	723.44
697.005	829.42
697.198	887.15
697.391	815.27
697.584	837.36
697.777	885.8
697.97	820.5
698.163	851.31
698.356	835.42
698.549	910.01
698.742	903.62
698.935	861.58
699.127	884.05
699.32	857.32
699.513	849.37
699.706	921.83
699.899	909.82
700.092	886.76
700.285	930.16
700.477	850.34
700.67	940.82
700.863	955.55
701.056	1035.95
701.248	976.28
701.441	998.94
701.634	1006.69
701.826	1076.64
702.019	970.08
702.212	1031.69
702.404	991.97
702.597	988.09
702.79	1021.03
702.982	1050.09
703.175	1085.55
703.367	1100.86
703.56	1096.4
703.752	1213.42
703.945	1178.94
704.137	1191.34
704.33	1194.05
704.522	1222.72
704.715	1220.79
704.907	1277.75
705.1	1273.48
705.292	1282.59
705.484	1270.77
705.677	1317.47
705.869	1306.42
706.061	1363.58
706.254	1382.37
706.446	1333.16
706.638	1336.26
706.831	1407.94
707.023	1373.85
707.215	1475.56
707.407	1472.66
707.599	1460.84
707.792	1500.94
707.984	1528.26
708.176	1519.93
708.368	1519.35
708.56	1524.77
708.752	1527.49
708.944	1547.25
709.136	1579.41
709.329	1558.49
709.521	1726.47
709.713	1669.7
709.905	1662.53
710.097	1691.2
710.289	1671.05
710.481	1697.4
710.672	1699.15
710.864	1732.28
711.056	1786.33
711.248	1790.21
711.44	1802.8
711.632	1795.25
711.824	1832.25
712.016	1872.55
712.207	1851.24
712.399	1854.73
712.591	1954.31
712.783	1917.31
712.975	1960.51
713.166	1882.82
713.358	1928.54
713.55	1971.17
713.741	2001.2
713.933	2020.77
714.125	1994.22
714.316	1979.31
714.508	2083.35
714.7	2101.75
714.891	2115.9
715.083	2149.8
715.274	2096.14
715.466	2109.5
715.657	2164.92
715.849	2056.03
716.04	2156.97
716.232	2095.55
716.423	2153.87
716.615	2112.22
716.806	2099.82
716.998	2084.51
717.189	1995.58
717.381	1960.12
717.572	1914.59
717.763	1991.12
717.955	1943.07
718.146	1940.56
718.337	1854.73
718.528	1862.09
718.72	1788.46
718.911	1885.73
719.102	1831.09
719.293	1886.11
719.485	1883.01
719.676	1868.29
719.867	1853.76
720.058	1826.05
720.249	1836.51
720.44	1849.11
720.632	1932.61
720.823	1969.81
721.014	2102.92
721.205	2110.67
721.396	2125.39
721.587	2236.41
721.778	2285.62
721.969	2333.28
722.16	2406.71
722.351	2367.96
722.542	2499.32
722.733	2569.46
722.924	2461.54
723.115	2519.86
723.305	2481.5
723.496	2526.45
723.687	2424.15
723.878	2382.3
724.069	2427.44
724.26	2445.46
724.45	2378.04
724.641	2346.65
724.832	2412.14
725.023	2371.45
725.213	2383.07
725.404	2396.44
725.595	2431.32
725.785	2419.31
725.976	2475.49
726.167	2491.77
726.357	2496.42
726.548	2572.75
726.739	2485.95
726.929	2545.43
727.12	2596
727.31	2686.87
727.501	2581.47
727.691	2588.25
727.882	2583.41
728.072	2623.71
728.263	2635.14
728.453	2685.32
728.644	2704.31
728.834	2693.26
729.024	2708.96
729.215	2675.63
729.405	2683.77
729.596	2747.13
729.786	2769.6
729.976	2806.02
730.167	2830.63
730.357	2782.97
730.547	2783.36
730.737	2846.91
730.928	2860.47
731.118	2943.97
731.308	2880.23
731.498	2879.65
731.688	2987.18
731.879	2982.14
732.069	3037.55
732.259	3032.9
732.449	3063.13
732.639	3212.7
732.829	3171.63
733.019	3216.19
733.209	3302.99
733.399	3241.37
733.589	3296.21
733.779	3348.52
733.969	3314.03
734.159	3399.28
734.349	3470.58
734.539	3522.89
734.729	3513.59
734.919	3519.6
735.109	3600.19
735.299	3511.26
735.488	3536.26
735.678	3536.84
735.868	3555.83
736.058	3590.89
736.248	3482.98
736.437	3512.62
736.627	3516.88
736.817	3668.01
737.007	3590.51
737.196	3642.04
737.386	3602.13
737.576	3539.75
737.765	3668.98
737.955	3637.59
738.144	3806.15
738.334	3716.83
738.524	3642.43
738.713	3704.04
738.903	3684.28
739.092	3705.01
739.282	3748.41
739.471	3714.89
739.661	3733.88
739.85	3732.52
740.04	3805.57
740.229	3802.85
740.419	3815.64
740.608	3840.64
740.797	3786.19
740.987	3898.37
741.176	3881.13
741.365	3829.98
741.555	3769.53
741.744	3905.15
741.933	3855.36
742.123	3900.31
742.312	3935.57
742.501	3927.82
742.69	3937.51
742.88	3842.96
743.069	4058.99
743.258	3910
743.447	4001.45
743.636	4017.14
743.825	3940.61
744.014	3975.29
744.204	4013.65
744.393	3938.09
744.582	4028.96
744.771	4074.68
744.96	4000.48
745.149	4010.36
745.338	3978.2
745.527	4052.79
745.716	3995.25
745.905	3996.21
746.094	4043.29
746.283	4089.79
746.471	4047.17
746.66	4153.54
746.849	4097.74
747.038	4101.61
747.227	4055.69
747.416	4099.29
747.604	4011.71
747.793	4074.49
747.982	4057.44
748.171	4103.74
748.359	4075.26
748.548	4063.44
748.737	4055.69
748.926	4079.72
749.114	3984.98
749.303	4068.29
749.491	4028.38
749.68	3993.89
749.869	4094.25
750.057	4046.39
750.246	4032.06
750.434	4014.04
750.623	4003.77
750.811	3996.8
751	4039.42
751.188	4046.39
751.377	4004.93
751.565	4021.4
751.754	3922.98
751.942	4010.36
752.131	4056.66
752.319	3978.58
752.507	3931.12
752.696	4000.67
752.884	4034.58
753.072	3967.35
753.261	4011.52
753.449	3973.16
753.637	3955.72
753.825	4072.55
754.014	3978.78
754.202	3972.38
754.39	4025.08
754.578	4017.53
754.766	3953.98
754.955	3947.39
755.143	4053.37
755.331	3975.29
755.519	4003.96
755.707	3935.96
755.895	3949.91
756.083	3982.26
756.271	3896.63
756.459	3925.5
756.647	3967.73
756.835	3932.08
757.023	3931.7
757.211	3881.71
757.399	3864.08
757.587	3854.2
757.775	3841.6
757.963	3858.46
758.151	3885.97
758.339	3823.78
758.526	3825.14
758.714	3851.29
758.902	3789.49
759.09	3728.65
759.278	3546.53
759.465	3330.5
759.653	2990.28
759.841	2769.02
760.028	2408.46
760.216	2138.57
760.404	2017.47
760.591	1698.76
760.779	1474.21
760.967	1369.58
761.154	1184.94
761.342	1243.45
761.529	1205.29
761.717	1306.62
761.905	1297.51
762.092	1453.67
762.28	1406.98
762.467	1440.3
762.655	1346.53
762.842	1412.59
763.029	1433.13
763.217	1463.16
763.404	1475.37
763.592	1500.56
763.779	1422.67
763.966	1521.48
764.154	1583.48
764.341	1647.22
764.528	1634.63
764.716	1700.89
764.903	1802.41
765.09	1835.93
765.277	1890.18
765.465	1988.02
765.652	2066.49
765.839	2137.02
766.026	2246.48
766.213	2324.56
766.4	2384.24
766.588	2572.75
766.775	2601.43
766.962	2672.73
767.149	2772.7
767.336	2903.87
767.523	2807.77
767.71	2974.39
767.897	3093.16
768.084	3145.66
768.271	3145.28
768.458	3195.07
768.645	3304.54
768.832	3230.91
769.019	3245.44
769.206	3293.11
769.392	3401.22
769.579	3457.21
769.766	3495.57
769.953	3379.32
770.14	3483.56
770.327	3407.22
770.513	3485.88
770.7	3549.05
770.887	3407.03
771.073	3482.59
771.26	3475.81
771.447	3425.24
771.634	3443.07
771.82	3558.54
772.007	3428.34
772.193	3452.56
772.38	3497.9
772.567	3444.03
772.753	3470.38
772.94	3521.92
773.126	3475.81
773.313	3510.88
773.499	3490.34
773.686	3497.32
773.872	3391.92
774.059	3501.19
774.245	3390.56
774.432	3418.46
774.618	3329.72
774.804	3425.82
774.991	3358.2
775.177	3456.24
775.363	3413.04
775.55	3430.08
775.736	3342.12
775.922	3385.72
776.109	3406.45
776.295	3355.49
776.481	3413.62
776.667	3426.02
776.853	3334.76
777.04	3329.34
777.226	3335.54
777.412	3445.39
777.598	3323.72
777.784	3333.02
777.97	3282.06
778.156	3321.59
778.342	3316.74
778.528	3305.12
778.715	3246.99
778.901	3271.6
779.087	3291.56
779.272	3259.78
779.458	3211.15
779.644	3281.87
779.83	3275.28
780.016	3329.53
780.202	3218.13
780.388	3229.17
780.574	3158.84
780.76	3219.87
780.946	3244.28
781.131	3210.18
781.317	3173.76
781.503	3186.16
781.689	3187.32
781.874	3362.85
782.06	3148.96
782.246	3221.81
782.432	3170.46
782.617	3182.67
782.803	3255.91
782.989	3113.7
783.174	3142.18
783.36	3063.13
783.545	3124.35
783.731	3089.48
783.916	3011.98
784.102	3129.2
784.288	3084.63
784.473	3089.86
784.659	3032.32
784.844	3081.15
785.029	3071.26
785.215	3008.3
785.4	3015.47
785.586	3083.66
785.771	3011.59
785.956	3121.64
786.142	2998.03
786.327	2984.85
786.512	3011.78
786.698	3015.85
786.883	2955.02
787.068	2983.11
787.254	3019.92
787.439	2969.16
787.624	2942.04
787.809	2916.27
787.994	2934.87
788.18	3008.68
788.365	2904.06
788.55	2889.14
788.735	2903.09
788.92	2924.4
789.105	2857.76
789.29	2928.67
789.475	2828.5
789.66	2880.62
789.845	2841.67
790.03	2820.17
790.215	2874.42
790.4	2874.03
790.585	2933.9
790.77	2868.22
790.955	2780.64
791.14	2841.48
791.325	2901.35
791.51	2706.05
791.695	2865.12
791.879	2793.63
792.064	2756.04
792.249	2834.89
792.434	2787.43
792.618	2795.37
792.803	2849.81
792.988	2759.14
793.173	2786.84
793.357	2801.96
793.542	2742.09
793.727	2806.22
793.911	2789.75
794.096	2771.15
794.281	2803.51
794.465	2877.71
794.65	2780.45
794.834	2835.28
795.019	2877.52
795.203	2902.9
795.388	2899.02
795.572	2823.46
795.757	2831.41
795.941	2863.57
796.126	2869.77
796.31	2801.57
796.494	2860.86
796.679	2824.62
796.863	2797.89
797.048	2898.05
797.232	2859.69
797.416	2816.87
797.601	2828.31
797.785	2918.2
797.969	2881.2
798.153	2857.37
798.338	2917.82
798.522	2902.7
798.706	2941.07
798.89	2901.93
799.074	3024.57
799.258	2941.07
799.443	2899.8
799.627	2899.41
799.811	2925.76
799.995	2880.81
800.179	2861.82
800.363	2866.67
800.547	2856.59
800.731	2931.96
800.915	2811.84
801.099	2834.51
801.283	2880.81
801.467	2850.01
801.651	2840.71
801.835	2920.92
802.019	2876.74
802.202	2891.85
802.386	2839.16
802.57	2833.92
802.754	2878.29
802.938	2817.84
803.121	2823.07
803.305	2948.04
803.489	2844.39
803.673	2885.66
803.856	2898.64
804.04	2838.38
804.224	2864.34
804.407	2817.26
804.591	2869.57
804.775	2861.24
804.958	2821.52
805.142	2937.97
805.326	2837.61
805.509	2858.34
805.693	2844.19
805.876	2899.02
806.06	2873.64
806.243	2858.92
806.427	2911.23
806.61	2907.55
806.794	2862.41
806.977	2899.99
807.16	2851.17
807.344	2831.79
807.527	2893.6
807.71	2829.27
807.894	2840.12
808.077	2892.05
808.26	2794.98
808.444	2806.61
808.627	2871.51
808.81	2792.27
808.993	2749.64
809.177	2742.86
809.36	2778.71
809.543	2774.06
809.726	2705.08
809.909	2730.85
810.092	2686.29
810.276	2687.65
810.459	2678.93
810.642	2668.46
810.825	2657.03
811.008	2696.95
811.191	2569.27
811.374	2617.51
811.557	2612.28
811.74	2670.4
811.923	2513.85
812.106	2560.55
812.289	2550.28
812.472	2558.8
812.654	2557.83
812.837	2501.26
813.02	2442.36
813.203	2460.19
813.386	2341.61
813.569	2342.78
813.751	2259.66
813.934	2329.02
814.117	2289.49
814.3	2240.09
814.482	2190.1
814.665	2178.09
814.848	2131.98
815.03	2096.91
815.213	2076.57
815.396	2050.6
815.578	2038.01
815.761	2006.04
815.943	2091.87
816.126	1991.12
816.309	1967.29
816.491	1894.44
816.674	1813.85
816.856	1881.08
817.039	1882.24
817.221	1934.74
817.403	1925.83
817.586	1908.78
817.768	1931.06
817.951	1816.36
818.133	1834.58
818.315	1853.18
818.498	1902.78
818.68	1953.92
818.862	1895.22
819.045	1935.71
819.227	1924.67
819.409	1904.91
819.591	1894.83
819.774	1898.71
819.956	1871
820.138	1939.01
820.32	1914.21
820.502	1968.65
820.684	2038.4
820.866	2015.92
821.048	2062.04
821.231	2076.18
821.413	2112.41
821.595	2048.86
821.777	2075.99
821.959	2078.7
822.141	2145.35
822.323	2034.33
822.505	1955.28
822.686	1915.76
822.868	1864.8
823.05	1712.71
823.232	1676.09
823.414	1622.42
823.596	1708.64
823.778	1684.81
823.96	1734.6
824.141	1691.78
824.323	1701.08
824.505	1793.7
824.687	1857.44
824.868	1895.8
825.05	1996.36
825.232	2004.69
825.413	2075.79
825.595	2018.44
825.777	1931.84
825.958	2000.23
826.14	1981.24
826.321	2009.34
826.503	1946.56
826.685	2036.07
826.866	2079.09
827.048	2013.79
827.229	1984.54
827.411	1952.37
827.592	1889.21
827.773	1867.9
827.955	1843.49
828.136	1821.4
828.318	1829.73
828.499	1845.04
828.68	1817.91
828.862	1860.54
829.043	1880.88
829.224	1873.52
829.406	1800.09
829.587	1802.61
829.768	1817.33
829.949	1842.13
830.131	1802.22
830.312	1868.09
830.493	1793.89
830.674	1818.3
830.855	1806.87
831.036	1822.18
831.218	1857.63
831.399	1882.82
831.58	1825.66
831.761	1861.89
831.942	1852.21
832.123	1805.71
832.304	1773.35
832.485	1761.92
832.666	1813.07
832.847	1829.15
833.028	1784.2
833.209	1849.3
833.389	1781.3
833.57	1741.38
833.751	1749.52
833.932	1833.03
834.113	1817.72
834.294	1787.88
834.475	1855.11
834.655	1846.59
834.836	1868.09
835.017	1843.68
835.198	1767.15
835.378	1815.78
835.559	1849.11
835.74	1839.81
835.92	1823.15
836.101	1789.24
836.281	1882.63
836.462	1882.04
836.643	1870.81
836.823	1889.41
837.004	1854.34
837.184	1926.41
837.365	1908.59
837.545	1908.59
837.726	1828.76
837.906	1932.22
838.087	1888.63
838.267	1854.14
838.448	1786.33
838.628	1837.29
838.808	1811.91
838.989	1896.96
839.169	1826.25
839.349	1859.96
839.53	1846.01
839.71	1896.58
839.89	1818.5
840.07	1893.86
840.251	1829.54
840.431	1894.83
840.611	1843.88
840.791	1787.69
840.971	1836.9
841.151	1839.23
841.332	1822.95
841.512	1840.58
841.692	1764.25
841.872	1818.88
842.052	1798.54
842.232	1856.28
842.412	1760.56
842.592	1784.59
842.772	1796.8
842.952	1825.66
843.132	1751.27
843.312	1746.81
843.492	1754.75
843.672	1802.03
843.851	1728.21
844.031	1809.39
844.211	1782.07
844.391	1766.96
844.571	1800.28
844.751	1828.18
844.93	1773.35
845.11	1753.01
845.29	1779.36
845.47	1822.18
845.649	1776.45
845.829	1780.33
846.009	1750.88
846.188	1796.99
846.368	1757.46
846.547	1764.63
846.727	1802.03
846.907	1689.85
847.086	1728.98
847.266	1777.03
847.445	1713.87
847.625	1713.48
847.804	1679.77
847.984	1730.92
848.163	1702.44
848.343	1710.38
848.522	1736.54
848.701	1737.12
848.881	1653.23
849.06	1730.92
849.239	1702.25
849.419	1700.7
849.598	1638.89
849.777	1659.04
849.957	1610.41
850.136	1578.25
850.315	1564.69
850.494	1539.69
850.674	1548.8
850.853	1595.49
851.032	1581.35
851.211	1654.39
851.39	1606.92
851.569	1556.16
851.748	1545.7
851.927	1634.82
852.107	1604.02
852.286	1516.64
852.465	1532.72
852.644	1593.55
852.823	1590.07
853.002	1555.97
853.181	1570.89
853.359	1584.25
853.538	1559.46
853.717	1590.45
853.896	1494.16
854.075	1435.46
854.254	1395.16
854.433	1342.46
854.611	1383.34
854.79	1312.23
854.969	1378.5
855.148	1402.91
855.327	1363.38
855.505	1411.63
855.684	1403.68
855.863	1425.96
856.041	1411.43
856.22	1473.63
856.399	1422.28
856.577	1539.5
856.756	1492.03
856.934	1615.06
857.113	1625.33
857.291	1507.34
857.47	1494.16
857.648	1510.63
857.827	1495.13
858.005	1545.31
858.184	1475.18
858.362	1573.79
858.541	1509.86
858.719	1536.4
858.898	1455.41
859.076	1481.18
859.254	1533.3
859.433	1468.39
859.611	1458.51
859.789	1435.84
859.967	1516.06
860.146	1547.06
860.324	1450.18
860.502	1449.02
860.68	1394.38
860.859	1462.19
861.037	1443.21
861.215	1437.01
861.393	1458.13
861.571	1432.94
861.749	1424.61
861.927	1444.56
862.105	1443.98
862.283	1416.28
862.461	1438.56
862.639	1387.6
862.817	1381.6
862.995	1421.7
863.173	1375.59
863.351	1398.26
863.529	1423.83
863.707	1442.82
863.885	1444.18
864.063	1322.31
864.241	1369
864.418	1434.49
864.596	1366.29
864.774	1338.78
864.952	1384.5
865.129	1402.33
865.307	1339.36
865.485	1314.56
865.663	1406.2
865.84	1313.2
866.018	1305.26
866.196	1176.61
866.373	1216.52
866.551	1192.5
866.728	1122.36
866.906	1150.65
867.084	1200.05
867.261	1227.18
867.439	1274.65
867.616	1272.71
867.794	1242.87
867.971	1271.35
868.149	1225.05
868.326	1316.3
868.503	1308.75
868.681	1248.49
868.858	1257.4
869.035	1252.37
869.213	1294.41
869.39	1263.02
869.567	1346.91
869.745	1259.15
869.922	1269.8
870.099	1326.18
870.276	1319.6
870.454	1315.14
870.631	1279.88
870.808	1265.93
870.985	1291.31
871.162	1337.03
871.339	1316.3
871.517	1224.27
871.694	1220.79
871.871	1263.02
872.048	1237.25
872.225	1237.83
872.402	1250.23
872.579	1188.24
872.756	1266.32
872.933	1217.3
873.11	1236.67
873.287	1253.72
873.463	1229.89
873.64	1200.44
873.817	1254.5
873.994	1213.42
874.171	1183
874.348	1223.69
874.524	1129.34
874.701	1229.31
874.878	1159.56
875.055	1210.32
875.231	1202.38
875.408	1197.34
875.585	1123.72
875.762	1205.29
875.938	1132.05
876.115	1162.47
876.291	1179.13
876.468	1129.34
876.645	1105.31
876.821	1126.82
876.998	1182.62
877.174	1183.59
877.351	1143.29
877.527	1122.75
877.704	1162.08
877.88	1154.52
878.057	1135.73
878.233	1154.14
878.409	1115.97
878.586	1144.45
878.762	1130.5
878.938	1129.53
879.115	1065.79
879.291	1108.41
879.467	1061.91
879.644	1097.56
879.82	1132.05
879.996	1066.76
880.172	1035.56
880.349	1102.79
880.525	1167.7
880.701	1050.48
880.877	1058.04
881.053	1088.07
881.229	1067.72
881.405	1104.15
881.581	1047.19
881.757	1084.58
881.933	1077.02
882.109	1108.02
882.285	1097.17
882.461	1047.58
882.637	1059.39
882.813	1045.83
882.989	1086.52
883.165	1125.27
883.341	1025.49
883.517	1127.59
883.693	1060.94
883.869	1130.89
884.044	1035.37
884.22	1090.97
884.396	1135.15
884.572	1078.19
884.747	1094.07
884.923	1092.52
885.099	1102.21
885.275	1131.08
885.45	1060.36
885.626	1050.29
885.801	1071.79
885.977	1040.02
886.153	1011.54
886.328	1069.08
886.504	1050.29
886.679	1068.11
886.855	1078.19
887.03	1084.19
887.206	1132.82
887.381	1098.14
887.557	1081.87
887.732	1074.51
887.908	1094.66
888.083	1099.89
888.258	1072.18
888.434	1038.66
888.609	1076.06
888.784	1094.27
888.96	1061.33
889.135	1055.71
889.31	1021.03
889.485	1085.36
889.661	1046.99
889.836	1097.17
890.011	1057.07
890.186	1041.18
890.361	1015.03
890.537	1079.16
890.712	1059.59
890.887	1069.27
891.062	1060.94
891.237	1116.55
891.412	1046.99
891.587	1054.94
891.762	1115.97
891.937	1099.89
892.112	1012.89
892.287	1036.34
892.462	1025.88
892.637	980.34
892.812	1012.7
892.987	1025.88
893.161	960.97
893.336	987.32
893.511	1003.01
893.686	997.59
893.861	988.48
894.035	996.62
894.21	999.72
894.385	929.97
894.56	996.04
894.734	909.82
894.909	925.32
895.084	955.93
895.258	916.21
895.433	929
895.608	904.2
895.782	868.17
895.957	845.69
896.131	876.3
896.306	790.86
896.48	809.46
896.655	823.41
896.829	785.05
897.004	768.77
897.178	768.97
897.353	754.44
897.527	817.79
897.701	788.92
897.876	726.73
898.05	839.1
898.224	779.24
898.399	854.6
898.573	789.31
898.747	673.06
898.921	728.67
899.096	623.66
899.27	643.42
899.444	661.63
899.618	658.72
899.792	682.75
899.967	666.86
900.141	722.08
900.315	666.28
900.489	657.76
900.663	697.86
900.837	683.91
901.011	623.66
901.185	738.94
901.359	699.22
901.533	701.16
901.707	670.54
901.881	686.24
902.055	640.9
902.229	678.49
902.403	722.47
902.576	671.12
902.75	687.4
902.924	800.74
903.098	731.38
903.272	767.61
903.446	826.7
903.619	798.8
903.793	814.3
903.967	779.04
904.14	822.83
904.314	832.52
904.488	806.55
904.661	824.38
904.835	794.35
905.009	862.16
905.182	887.54
905.356	831.93
905.529	818.95
905.703	794.15
905.876	800.74
906.05	780.2
906.223	750.75
906.397	688.56
906.57	688.17
906.744	664.15
906.917	660.47
907.09	676.16
907.264	659.11
907.437	636.25
907.61	616.68
907.784	650.2
907.957	659.89
908.13	634.31
908.304	707.16
908.477	598.28
908.65	629.08
908.823	587.62
908.996	674.22
909.17	630.44
909.343	589.17
909.516	613
909.689	618.23
909.862	593.24
910.035	612.61
910.208	564.76
910.381	582.19
910.554	649.62
910.727	601.96
910.9	575.41
911.073	583.94
911.246	626.76
911.419	626.76
911.592	630.82
911.765	587.81
911.938	598.47
912.11	580.06
912.283	599.44
912.456	628.69
912.629	586.84
912.802	595.56
912.974	586.46
913.147	511.48
913.32	471.95
913.493	506.63
913.665	510.51
913.838	506.05
914.01	501.01
914.183	557.01
914.356	521.36
914.528	586.65
914.701	611.26
914.873	556.23
915.046	540.93
915.218	517.87
915.391	459.16
915.563	469.43
915.736	495.98
915.908	510.31
916.081	517.68
916.253	513.03
916.425	525.62
916.598	535.5
916.77	526.98
916.942	501.6
917.115	439.4
917.287	527.36
917.459	498.88
917.632	436.69
917.804	396.58
917.976	466.53
918.148	508.18
918.32	497.91
918.493	565.73
918.665	567.66
918.837	510.31
919.009	568.44
919.181	583.74
919.353	520.58
919.525	528.72
919.697	524.65
919.869	516.32
920.041	557.98
920.213	645.74
920.385	570.76
920.557	522.33
920.729	549.06
920.901	520.39
921.073	518.84
921.244	519.23
921.416	582
921.588	529.11
921.76	521.75
921.932	579.09
922.103	520.2
922.275	543.64
922.447	520.97
922.619	452.19
922.79	514.96
922.962	498.88
923.134	542.67
923.305	467.88
923.477	444.25
923.648	479.31
923.82	494.23
923.991	449.28
924.163	407.43
924.335	480.48
924.506	434.17
924.677	510.7
924.849	451.03
925.02	460.71
925.192	493.65
925.363	450.45
925.535	466.72
925.706	443.86
925.877	502.18
926.049	434.56
926.22	466.91
926.391	477.57
926.562	524.26
926.734	442.12
926.905	481.06
927.076	406.27
927.247	429.72
927.419	397.75
927.59	393.29
927.761	430.1
927.932	404.72
928.103	400.85
928.274	356.87
928.445	341.95
928.616	374.69
928.787	353.19
928.958	394.84
929.129	341.95
929.3	368.68
929.471	295.45
929.642	267.55
929.813	234.81
929.984	324.12
930.155	209.42
930.326	279.95
930.496	246.43
930.667	194.51
930.838	247.4
931.009	179.78
931.18	196.06
931.35	200.9
931.521	222.02
931.692	187.92
931.863	109.45
932.033	151.49
932.204	173.58
932.374	157.89
932.545	132.31
932.716	211.36
932.886	186.17
933.057	77.87
933.227	121.85
933.398	202.64
933.568	81.94
933.739	66.25
933.909	73.22
934.08	134.64
934.25	33.5
934.421	48.23
934.591	101.12
934.761	72.06
934.932	18.97
935.102	108.87
935.272	70.51
935.443	70.12
935.613	58.5
935.783	72.83
935.953	37.96
936.123	216.21
936.294	9.86
936.464	58.3
936.634	75.55
936.804	40.86
936.974	45.71
937.144	115.65
937.314	59.08
937.484	45.13
937.655	21.68
937.825	145.29
937.995	50.94
938.165	112.94
938.334	82.33
938.504	82.71
938.674	63.34
938.844	74.38
939.014	138.32
939.184	150.33
939.354	197.99
939.524	166.61
939.694	139.87
939.863	114.68
940.033	191.99
940.203	209.42
940.373	145.29
940.542	175.52
940.712	126.5
940.882	177.26
941.051	195.67
941.221	142.39
941.391	153.24
941.56	115.26
941.73	114.68
941.899	232.29
942.069	119.91
942.238	132.89
942.408	110.03
942.577	163.7
942.747	150.53
942.916	84.26
943.086	96.08
943.255	196.44
943.425	114.29
943.594	117.01
943.763	54.04
943.933	53.65
944.102	43
944.271	83.88
944.441	119.33
944.61	92.79
944.779	94.15
944.948	199.54
945.117	72.83
945.287	79.61
945.456	19.55
945.625	61.21
945.794	101.89
945.963	76.32
946.132	123.79
946.301	87.17
946.47	135.03
946.639	28.08
946.808	69.93
946.977	124.95
947.146	129.21
947.315	87.17
947.484	124.95
947.653	85.04
947.822	94.92
947.991	63.53
948.16	160.21
948.329	158.66
948.498	117.2
948.666	99.96
948.835	142.78
949.004	69.93
949.173	72.64
949.341	107.71
949.51	110.61
949.679	143.55
949.847	114.49
950.016	189.47
950.185	166.03
950.353	84.07
950.522	95.5
950.69	140.64
950.859	99.57
951.028	140.45
951.196	127.47
951.365	87.17
951.533	102.28
951.701	109.06
951.87	132.89
952.038	57.91
952.207	96.66
952.375	174.55
952.543	87.95
952.712	117.39
952.88	78.45
953.048	157.89
953.217	114.68
953.385	109.26
953.553	182.3
953.721	51.71
953.89	108.87
954.058	67.21
954.226	37.76
954.394	114.1
954.562	45.71
954.73	98.02
954.898	90.66
955.067	118.17
955.235	61.79
955.403	145.88
955.571	168.16
955.739	128.83
955.907	68.18
956.075	61.4
956.243	78.84
956.41	85.81
956.578	60.05
956.746	38.54
956.914	83.3
957.082	128.44
957.25	132.89
957.418	55.98
957.585	139.09
957.753	159.63
957.921	76.32
958.089	91.63
958.256	105.19
958.424	90.46
958.592	107.51
958.759	65.08
958.927	131.54
959.095	68.38
959.262	96.47
959.43	121.66
959.597	68.38
959.765	93.18
959.932	92.6
960.1	125.34
960.267	106.35
960.435	102.67
960.602	128.44
960.77	84.26
960.937	55.98
961.104	109.06
961.272	59.85
961.439	67.41
961.606	84.26
961.774	133.09
961.941	85.81
962.108	129.99
962.275	71.67
962.443	143.55
962.61	122.43
962.777	173.58
962.944	117.01
963.111	118.75
963.278	92.21
963.446	110.61
963.613	105.77
963.78	99.96
963.947	119.72
964.114	87.95
964.281	181.72
964.448	134.06
964.615	112.55
964.782	111.19
964.949	155.37
965.116	129.99
965.282	176.68
965.449	100.34
965.616	67.99
965.783	132.12
965.95	124.18
966.117	73.22
966.283	86.98
966.45	106.16
966.617	133.09
966.784	128.83
966.95	148.01
967.117	122.63
967.284	79.23
967.45	72.83
967.617	179.2
967.784	118.94
967.95	182.11
968.117	94.92
968.283	164.09
968.45	231.71
968.616	134.83
968.783	158.86
968.949	112.74
969.116	180.17
969.282	116.23
969.449	139.87
969.615	127.28
969.781	64.5
969.948	119.53
970.114	85.81
970.28	193.92
970.447	111.58
970.613	159.63
970.779	109.26
970.945	160.79
971.112	135.61
971.278	103.06
971.444	131.93
971.61	171.26
971.776	119.53
971.942	119.91
972.108	136.77
972.275	119.33
972.441	107.51
972.607	217.76
972.773	86.01
972.939	152.27
973.105	108.87
973.271	54.43
973.437	103.25
973.602	92.4
973.768	118.56
973.934	136.77
974.1	130.38
974.266	12.58
974.432	119.14
974.598	99.96
974.763	131.34
974.929	88.33
975.095	182.3
975.261	96.47
975.426	74.96
975.592	102.28
975.758	165.83
975.923	44.74
976.089	92.21
976.255	123.21
976.42	115.07
976.586	121.85
976.751	116.23
976.917	205.55
977.082	154.79
977.248	64.5
977.413	54.43
977.579	71.09
977.744	103.83
977.91	69.15
978.075	103.64
978.24	126.11
978.406	119.53
978.571	123.79
978.736	59.85
978.902	115.07
979.067	75.74
979.232	40.09
979.397	128.24
979.563	171.26
979.728	38.73
979.893	96.86
980.058	77.68
980.223	147.04
980.388	110.81
980.554	119.14
980.719	49.97
980.884	88.14
981.049	137.54
981.214	88.72
981.379	113.33
981.544	95.69
981.709	87.95
981.874	88.14
982.039	66.63
982.204	139.48
982.368	125.14
982.533	66.05
982.698	107.71
982.863	125.14
983.028	62.76
983.193	124.56
983.357	85.43
983.522	114.29
983.687	76.9
983.852	98.6
984.016	102.67
984.181	83.68
984.346	128.44
984.51	100.15
984.675	108.68
984.839	127.86
985.004	112.74
985.168	122.82
985.333	118.94
985.498	86.01
985.662	111.19
985.827	107.71
985.991	79.23
986.155	84.65
986.32	136.38
986.484	153.43
986.649	109.06
986.813	42.8
986.977	116.43
987.142	120.11
987.306	58.88
987.47	65.08
987.634	71.67
987.799	102.48
987.963	98.41
988.127	97.83
988.291	159.44
988.455	92.01
988.62	75.35
988.784	148.59
988.948	101.12
989.112	78.26
989.276	89.88
989.44	98.02
989.604	78.84
989.768	81.16
989.932	165.44
990.096	79.61
990.26	73.61
990.424	46.29
990.588	80.39
990.752	150.53
990.915	139.29
991.079	86.59
991.243	73.61
991.407	119.53
991.571	83.3
991.734	103.25
991.898	122.04
992.062	173.39
992.226	88.72
992.389	53.07
992.553	45.9
992.717	61.4
992.88	95.89
993.044	96.86
993.207	76.9
993.371	149.36
993.535	109.64
993.698	99.18
993.862	120.3
994.025	145.49
994.189	120.49
994.352	74.58
994.515	95.31
994.679	117.01
994.842	62.56
995.006	122.04
995.169	52.88
995.332	57.14
995.496	111
995.659	35.83
995.822	71.86
995.985	74.77
996.149	117.01
996.312	61.4
996.475	154.4
996.638	58.69
996.801	117.78
996.964	151.49
997.128	74.77
997.291	51.33
997.454	94.15
997.617	13.35
997.78	106.16
997.943	48.81
998.106	104.41
998.269	46.1
998.432	42.61
998.595	64.7
998.758	9.09
998.92	43
999.083	7.54
999.246	80.2
999.409	32.15
999.572	1.34
999.735	42.03
999.897	87.17
1000.06	47.45
1000.223	63.73
1000.386	82.71
1000.548	100.93
1000.711	65.28
1000.874	77.68
1001.036	24.78
1001.199	106.35
1001.361	49.78
1001.524	82.52
1001.687	101.51
1001.849	32.15
1002.012	62.76
1002.174	64.11
1002.337	104.41
1002.499	83.68
1002.661	105.96
1002.824	7.15
1002.986	46.1
1003.149	72.83
1003.311	36.99
1003.473	142.97
1003.636	51.13
1003.798	72.45
1003.96	61.79
1004.123	62.37
1004.285	36.41
1004.447	50.36
1004.609	52.1
1004.771	113.91
1004.933	-0.02
1005.096	20.13
1005.258	19.55
1005.42	56.75
1005.582	98.79
1005.744	55.2
1005.906	9.09
1006.068	48.81
1006.23	6.96
1006.392	-13.97
1006.554	15.48
1006.716	80
1006.878	70.51
1007.04	29.05
1007.202	40.28
1007.363	50.16
1007.525	54.04
1007.687	74
1007.849	118.17
1008.011	3.67
1008.172	14.51
1008.334	35.25
1008.496	59.66
1008.658	-12.22
1008.819	9.09
1008.981	19.55
1009.143	29.43
1009.304	48.03
1009.466	76.32
1009.627	85.62
1009.789	107.13
1009.95	28.85
1010.112	30.6
1010.273	49.39
1010.435	27.5
1010.596	44.93
1010.758	16.45
1010.919	43.96
1011.081	-18.03
1011.242	35.25
1011.403	67.6
1011.565	27.11
1011.726	47.45
1011.887	5.41
1012.049	45.13
1012.21	64.7
1012.371	92.4
1012.532	-45.93
1012.693	52.1
1012.855	8.31
1013.016	57.14
1013.177	99.18
1013.338	56.75
1013.499	102.86
1013.66	58.11
1013.821	77.1
1013.982	36.99
1014.143	34.08
1014.304	17.03
1014.465	57.91
1014.626	53.26
1014.787	11.8
1014.948	113.13
1015.109	-26.17
1015.27	74.96
1015.431	31.18
1015.592	4.44
1015.752	73.8
1015.913	17.23
1016.074	60.82
1016.235	57.91
1016.395	20.91
1016.556	31.37
1016.717	26.14
1016.877	89.11
1017.038	-2.34
1017.199	37.57
1017.359	40.48
1017.52	29.43
1017.681	8.9
1017.841	-4.28
1018.002	36.41
1018.162	15.29
1018.323	92.01
1018.483	24.59
1018.644	13.55
1018.804	-9.32
1018.964	-6.41
1019.125	0.76
1019.285	11.22
1019.446	13.55
1019.606	13.74
1019.766	-25.59
1019.926	60.24
1020.087	44.55
1020.247	11.22
1020.407	56.17
1020.567	44.55
1020.728	12.96
1020.888	-13
1021.048	-16.29
1021.208	-30.63
1021.368	-7.57
1021.528	88.72
1021.688	70.7
1021.848	63.34
1022.008	23.81
1022.168	21.88
1022.328	37.76
1022.488	56.56
1022.648	24.78
1022.808	46.48
1022.968	52.1
1023.128	3.28
1023.288	22.85
1023.448	5.6
1023.608	74.58
1023.767	61.98
1023.927	-0.6
1024.087	-16.68
1024.247	-35.47
1024.406	8.31
1024.566	-0.4
1024.726	-0.98
1024.885	-1.95
1025.045	46.1
1025.205	11.03
1025.364	25.95
1025.524	34.28
1025.683	17.81
1025.843	30.21
1026.003	26.53
1026.162	97.44
1026.321	52.49
1026.481	53.65
1026.64	7.15
1026.8	29.05
1026.959	37.18
1027.119	10.06
1027.278	10.83
1027.437	14.71
1027.597	33.89
1027.756	31.56
1027.915	36.8
1028.074	33.7
1028.234	-20.17
1028.393	18.39
1028.552	6.57
1028.711	-43.42
1028.87	61.98
1029.03	-29.27
1029.189	19.16
1029.348	-51.94
1029.507	-0.02
1029.666	-26.56
1029.825	-20.75
1029.984	-30.24
1030.143	30.6
1030.302	-7.18
1030.461	-75
1030.62	33.11
1030.779	13.16
1030.938	-20.94
1031.097	-26.95
1031.255	24.2
1031.414	68.96
1031.573	59.85
1031.732	-26.95
1031.891	-3.31
1032.049	49.97
1032.208	34.47
1032.367	-2.92
1032.525	-6.41
1032.684	5.6
1032.843	9.28
1033.001	-18.81
1033.16	172.03
1033.319	84.65
1033.477	29.82
1033.636	-0.98
1033.794	-40.7
1033.953	59.08
1034.111	47.06
1034.27	-6.8
1034.428	18.39
1034.587	-32.57
1034.745	18
1034.903	-1.95
1035.062	38.73
1035.22	-27.92
1035.378	33.89
1035.537	-40.12
1035.695	46.68
1035.853	10.83
1036.011	40.86
1036.17	19.55
1036.328	-63.76
1036.486	45.71
1036.644	-4.08
1036.802	-79.26
1036.96	-19.2
1037.119	0.95
1037.277	-6.8
1037.435	-66.86
1037.593	-21.33
1037.751	7.54
1037.909	19.36
1038.067	19.36
