Data from gum_old_FLMT105791__104__15-45-53-253.txt Node

Date: Mon Mar 20 15:45:53 GMT 2023
User: antho
Spectrometer: FLMT10579
Trigger mode: 0
Integration Time (sec): 1.000000E-1
Scans to average: 10
Electric dark correction enabled: true
Nonlinearity correction enabled: false
Boxcar width: 0
XAxis mode: Wavelengths
Number of Pixels in Spectrum: 3648
>>>>>Begin Spectral Data<<<<<
345.248	-201.43
345.464	-201.43
345.681	-201.43
345.898	-211.51
346.114	-182.45
346.331	-45.08
346.548	14.01
346.764	10.33
346.981	-16.79
347.197	-42.56
347.414	37.26
347.631	-14.08
347.847	69.81
348.064	-12.53
348.28	28.55
348.497	-31.52
348.713	2.58
348.93	35.52
349.146	24.86
349.363	24.09
349.579	2.2
349.796	-1.68
350.012	-7.3
350.229	36.1
350.445	1.03
350.661	-16.02
350.878	14.79
351.094	7.62
351.311	36.1
351.527	30.1
351.743	4.71
351.96	46.56
352.176	42.11
352.392	41.91
352.609	43.46
352.825	-12.14
353.041	25.25
353.257	23.12
353.474	51.99
353.69	53.93
353.906	8.78
354.122	-16.79
354.339	64.39
354.555	17.7
354.771	26.8
354.987	60.71
355.203	67.88
355.42	2.97
355.636	8.98
355.852	-28.61
356.068	22.35
356.284	-24.54
356.5	68.46
356.716	32.23
356.932	15.56
357.148	55.09
357.364	0.06
357.58	65.94
357.796	49.66
358.012	69.23
358.228	20.02
358.444	-23.96
358.66	60.51
358.876	23.9
359.092	-0.71
359.308	35.71
359.524	40.17
359.74	-9.04
359.956	-16.02
360.172	22.35
360.388	49.47
360.604	13.63
360.819	120.96
361.035	35.13
361.251	71.94
361.467	6.07
361.683	45.98
361.898	33.97
362.114	70.59
362.33	25.64
362.546	62.84
362.762	39.4
362.977	50.25
363.193	-0.71
363.409	62.26
363.624	6.65
363.84	-11.56
364.056	5.49
364.271	37.26
364.487	49.08
364.703	-10.98
364.918	-10.01
365.134	-5.36
365.35	33.2
365.565	121.93
365.781	51.6
365.996	42.88
366.212	107.98
366.427	62.84
366.643	14.4
366.858	36.68
367.074	10.72
367.289	94.03
367.505	139.76
367.72	-1.29
367.936	22.15
368.151	70.59
368.367	41.72
368.582	39.98
368.798	35.52
369.013	105.08
369.228	45.98
369.444	54.9
369.659	75.24
369.874	59.93
370.09	91.13
370.305	-17.57
370.52	19.83
370.736	113.99
370.951	33.39
371.166	92.68
371.381	95.58
371.597	69.43
371.812	28.16
372.027	-29.58
372.242	59.74
372.458	129.88
372.673	39.01
372.888	37.46
373.103	66.71
373.318	124.06
373.533	57.61
373.749	59.54
373.964	-5.17
374.179	95.78
374.394	9.36
374.609	91.9
374.824	-5.94
375.039	85.89
375.254	22.73
375.469	92.68
375.684	74.66
375.899	89.96
376.114	14.6
376.329	54.31
376.544	79.31
376.759	93.06
376.974	36.88
377.189	68.84
377.404	48.11
377.619	75.82
377.834	10.91
378.049	14.21
378.264	26.41
378.478	66.52
378.693	17.31
378.908	73.88
379.123	45.21
379.338	75.43
379.553	76.98
379.767	59.16
379.982	98.68
380.197	73.49
380.412	41.53
380.626	90.16
380.841	154.87
381.056	76.21
381.271	126.97
381.485	59.93
381.7	7.04
381.915	71.36
382.129	45.4
382.344	32.81
382.559	24.67
382.773	112.24
382.988	-0.13
383.202	64.58
383.417	54.31
383.632	154.48
383.846	63.23
384.061	49.66
384.275	41.53
384.49	84.15
384.704	68.65
384.919	64.78
385.133	74.66
385.348	62.45
385.562	29.13
385.777	109.14
385.991	43.85
386.206	60.9
386.42	30.1
386.634	104.49
386.849	104.11
387.063	93.64
387.277	52.57
387.492	64.58
387.706	47.73
387.92	28.35
388.135	109.14
388.349	94.23
388.563	77.76
388.778	75.63
388.992	101.78
389.206	101.2
389.42	160.1
389.635	84.54
389.849	111.47
390.063	135.3
390.277	111.66
390.491	163.2
390.706	93.45
390.92	139.95
391.134	116.7
391.348	122.71
391.562	58.77
391.776	67.1
391.99	71.75
392.205	123.68
392.419	81.24
392.633	101.39
392.847	136.46
393.061	66.71
393.275	149.06
393.489	66.13
393.703	71.56
393.917	106.82
394.131	48.89
394.345	95.97
394.559	117.28
394.773	82.6
394.986	110.11
395.2	114.18
395.414	110.89
395.628	80.66
395.842	101.2
396.056	88.61
396.27	53.35
396.484	117.48
396.697	133.56
396.911	135.11
397.125	125.81
397.339	114.96
397.553	100.04
397.766	153.32
397.98	128.33
398.194	149.06
398.408	111.08
398.621	160.49
398.835	143.63
399.049	144.6
399.262	199.62
399.476	208.92
399.69	207.96
399.903	225.97
400.117	155.84
400.331	187.61
400.544	128.52
400.758	279.25
400.971	196.72
401.185	213.96
401.398	140.34
401.612	213.57
401.826	185.09
402.039	191.87
402.253	159.52
402.466	174.82
402.68	177.34
402.893	193.62
403.106	198.85
403.32	186.06
403.533	233.72
403.747	174.24
403.96	199.24
404.174	213.77
404.387	160.68
404.6	212.41
404.814	225.59
405.027	187.81
405.24	183.93
405.454	188.19
405.667	248.64
405.88	139.76
406.094	206.79
406.307	226.17
406.52	217.26
406.733	137.24
406.947	151.38
407.16	257.94
407.373	238.18
407.586	171.34
407.799	165.14
408.012	221.13
408.226	198.66
408.439	248.25
408.652	153.9
408.865	225.01
409.078	275.96
409.291	234.89
409.504	180.83
409.717	253.87
409.93	241.67
410.143	231.98
410.357	172.11
410.57	157.77
410.783	179.86
410.996	223.26
411.209	222.49
411.421	232.37
411.634	238.76
411.847	209.7
412.06	243.99
412.273	247.87
412.486	204.86
412.699	303.86
412.912	228.49
413.125	261.43
413.338	237.4
413.55	262.01
413.763	241.67
413.976	244.57
414.189	220.94
414.402	234.89
414.615	303.67
414.827	206.21
415.04	258.14
415.253	263.37
415.466	271.89
415.678	328.66
415.891	246.51
416.104	255.23
416.316	232.56
416.529	244.96
416.742	301.15
416.954	293.98
417.167	262.2
417.38	279.64
417.592	289.91
417.805	210.86
418.017	198.27
418.23	270.34
418.442	257.75
418.655	222.29
418.868	251.94
419.08	294.37
419.293	289.72
419.505	265.5
419.718	282.16
419.93	310.84
420.142	250.97
420.355	310.84
420.567	297.85
420.78	272.86
420.992	289.14
421.205	339.9
421.417	252.9
421.629	281.19
421.842	250.58
422.054	209.89
422.266	308.7
422.479	335.83
422.691	265.5
422.903	319.94
423.115	266.66
423.328	263.56
423.54	246.32
423.752	271.5
423.964	248.45
424.177	261.62
424.389	290.88
424.601	404.8
424.813	297.47
425.025	315.49
425.238	311.8
425.45	247.87
425.662	267.82
425.874	622.19
426.086	294.37
426.298	323.82
426.51	289.33
426.722	315.1
426.934	283.71
427.146	313.16
427.358	248.25
427.57	325.95
427.782	279.25
427.994	272.09
428.206	260.85
428.418	207.57
428.63	326.72
428.842	322.27
429.054	284.87
429.266	321.1
429.478	252.13
429.69	278.87
429.902	261.24
430.114	302.31
430.325	260.07
430.537	229.07
430.749	271.31
430.961	198.66
431.173	220.55
431.384	257.55
431.596	157.58
431.808	264.92
432.02	305.6
432.231	336.41
432.443	372.25
432.655	323.82
432.867	293.4
433.078	338.35
433.29	375.93
433.502	344.35
433.713	367.6
433.925	332.34
434.136	379.42
434.348	263.37
434.56	266.08
434.771	411
434.983	244.77
435.194	307.35
435.406	357.33
435.617	385.43
435.829	419.33
436.04	367.99
436.252	378.26
436.463	404.42
436.675	401.51
436.886	409.45
437.098	410.81
437.309	414.68
437.521	376.71
437.732	393.95
437.943	376.52
438.155	385.82
438.366	337.77
438.578	454.79
438.789	355.2
439	382.52
439.211	359.27
439.423	376.52
439.634	367.02
439.845	385.04
440.057	392.02
440.268	408.48
440.479	376.71
440.69	381.94
440.902	364.12
441.113	367.6
441.324	389.69
441.535	413.33
441.746	474.55
441.957	372.45
442.168	399.77
442.38	440.45
442.591	437.35
442.802	376.52
443.013	398.8
443.224	422.05
443.435	418.17
443.646	420.3
443.857	408.68
444.068	391.05
444.279	410.42
444.49	479.59
444.701	448.01
444.912	507.68
445.123	477.26
445.334	453.43
445.545	427.66
445.756	424.95
445.967	369.73
446.178	448.78
446.388	465.06
446.599	464.86
446.81	420.5
447.021	400.35
447.232	476.1
447.443	501.09
447.653	420.3
447.864	488.5
448.075	478.04
448.286	490.44
448.496	483.08
448.707	518.53
448.918	436.58
449.129	567.74
449.339	451.11
449.55	447.62
449.761	434.06
449.971	485.21
450.182	443.16
450.393	506.52
450.603	454.21
450.814	507.49
451.024	494.7
451.235	524.54
451.446	546.82
451.656	542.94
451.867	484.05
452.077	486.76
452.288	557.09
452.498	565.03
452.709	480.75
452.919	492.18
453.13	470.1
453.34	510.98
453.55	459.25
453.761	519.11
453.971	483.66
454.182	516.79
454.392	502.26
454.602	563.87
454.813	527.25
455.023	535.97
455.233	460.02
455.444	501.87
455.654	419.91
455.864	497.8
456.075	474.55
456.285	461.76
456.495	483.46
456.705	506.13
456.916	576.08
457.126	532.48
457.336	531.13
457.546	442
457.756	490.25
457.967	550.69
458.177	512.33
458.387	516.4
458.597	481.91
458.807	517.56
459.017	502.84
459.227	467.77
459.437	537.52
459.647	510.78
459.857	544.49
460.068	494.31
460.278	570.65
460.488	537.33
460.698	567.94
460.908	501.48
461.117	480.56
461.327	509.43
461.537	563.48
461.747	553.21
461.957	533.45
462.167	656.87
462.377	555.73
462.587	562.9
462.797	582.28
463.007	568.33
463.216	605.52
463.426	610.17
463.636	595.26
463.846	501.68
464.056	538.1
464.265	579.18
464.475	530.93
464.685	567.16
464.895	552.83
465.104	547.79
465.314	551.86
465.524	543.91
465.733	532.29
465.943	602.23
466.153	634.39
466.362	616.37
466.572	596.03
466.782	577.04
466.991	587.7
467.201	634.78
467.41	496.25
467.62	591.19
467.829	580.92
468.039	570.84
468.249	544.3
468.458	562.32
468.668	596.81
468.877	607.07
469.086	640.4
469.296	651.06
469.505	560.38
469.715	668.69
469.924	593.9
470.134	644.47
470.343	666.94
470.552	600.29
470.762	616.76
470.971	558.06
471.18	633.23
471.39	607.66
471.599	564.64
471.808	634.39
472.018	609.01
472.227	667.33
472.436	699.49
472.645	650.47
472.855	622.38
473.064	708.02
473.273	702.98
473.482	668.11
473.691	719.06
473.901	660.36
474.11	658.22
474.319	753.74
474.528	671.4
474.737	763.04
474.946	712.47
475.155	707.05
475.364	746.19
475.573	728.94
475.783	747.93
475.992	717.51
476.201	799.85
476.41	713.44
476.619	694.26
476.828	758
477.037	701.82
477.245	709.57
477.454	763.04
477.663	720.03
477.872	748.9
478.081	837.05
478.29	728.75
478.499	892.46
478.708	799.66
478.917	853.91
479.125	774.47
479.334	805.47
479.543	783.77
479.752	837.83
479.961	791.13
480.169	828.33
480.378	848.87
480.587	943.23
480.796	847.51
481.004	838.6
481.213	862.63
481.422	855.26
481.63	859.53
481.839	879.1
482.048	927.73
482.256	869.6
482.465	911.26
482.674	933.54
482.882	925.21
483.091	964.73
483.299	893.43
483.508	926.56
483.716	893.82
483.925	883.94
484.134	859.53
484.342	885.3
484.551	942.45
484.759	924.24
484.967	947.29
485.176	950.01
485.384	974.81
485.593	977.52
485.801	960.28
486.01	936.25
486.218	890.14
486.426	788.03
486.635	826.2
486.843	791.33
487.051	830.85
487.26	841.32
487.468	881.42
487.676	911.06
487.885	873.28
488.093	920.17
488.301	957.56
488.509	915.13
488.717	1003.29
488.926	946.33
489.134	938.58
489.342	963.76
489.55	937.03
489.758	979.07
489.967	932.18
490.175	1054.44
490.383	1004.64
490.591	1084.08
490.799	1024.02
491.007	1079.43
491.215	1024.21
491.423	1019.18
491.631	1017.43
491.839	1019.95
492.047	1080.98
492.255	976.94
492.463	952.33
492.671	968.8
492.879	1048.62
493.087	1024.6
493.295	1061.61
493.503	1064.9
493.711	1070.91
493.919	1100.94
494.127	1099
494.334	1106.17
494.542	1048.04
494.75	1042.04
494.958	1037.77
495.166	1126.51
495.374	1097.26
495.581	1134.26
495.789	1117.79
495.997	1150.73
496.205	1071.87
496.412	1094.35
496.62	1111.98
496.828	1136
497.035	1141.43
497.243	1140.65
497.451	1132.71
497.658	1141.04
497.866	1115.47
498.074	1179.21
498.281	1089.51
498.489	1206.14
498.696	1111.79
498.904	1062.57
499.112	1079.82
499.319	1192.39
499.527	1106.56
499.734	1165.45
499.942	1056.96
500.149	1108.3
500.357	1136.78
500.564	1080.79
500.771	1114.11
500.979	1085.24
501.186	1085.05
501.394	1133.68
501.601	1108.1
501.808	1139.3
502.016	1127.48
502.223	1101.32
502.43	1116.82
502.638	1127.29
502.845	1078.07
503.052	1214.47
503.26	1144.34
503.467	1233.65
503.674	1130
503.881	1159.84
504.089	1242.95
504.296	1185.02
504.503	1101.91
504.71	1164.29
504.917	1125.35
505.125	1140.27
505.332	1152.09
505.539	1176.5
505.746	1283.83
505.953	1224.74
506.16	1181.92
506.367	1285.38
506.574	1261.75
506.781	1292.94
506.988	1206.33
507.195	1227.84
507.402	1227.65
507.609	1248.18
507.816	1205.95
508.023	1198
508.23	1221.83
508.437	1148.6
508.644	1234.62
508.851	1241.21
509.058	1264.27
509.265	1214.86
509.472	1255.16
509.679	1355.13
509.885	1260.39
510.092	1270.66
510.299	1252.64
510.506	1258.07
510.713	1249.35
510.92	1233.07
511.126	1287.51
511.333	1293.33
511.54	1302.43
511.746	1308.44
511.953	1328.98
512.16	1343.51
512.367	1327.81
512.573	1301.46
512.78	1273.76
512.987	1301.27
513.193	1272.79
513.4	1202.85
513.606	1265.82
513.813	1285.77
514.02	1275.31
514.226	1326.65
514.433	1330.14
514.639	1240.43
514.846	1272.4
515.052	1272.21
515.259	1315.22
515.465	1309.6
515.672	1326.46
515.878	1387.1
516.085	1309.02
516.291	1390.01
516.497	1298.17
516.704	1305.92
516.91	1243.15
517.117	1215.63
517.323	1137.36
517.529	1189.09
517.736	1191.61
517.942	1177.27
518.148	1216.99
518.354	1275.5
518.561	1228.03
518.767	1265.23
518.973	1299.53
519.179	1309.8
519.386	1262.52
519.592	1273.57
519.798	1281.12
520.004	1381.48
520.21	1323.75
520.417	1412.29
520.623	1427.79
520.829	1414.81
521.035	1427.4
521.241	1445.81
521.447	1421.39
521.653	1551.59
521.859	1443.48
522.065	1445.61
522.271	1553.53
522.477	1499.67
522.683	1538.42
522.889	1477.77
523.095	1527.18
523.301	1487.46
523.507	1453.94
523.713	1518.66
523.919	1447.36
524.125	1531.83
524.331	1511.29
524.537	1604.29
524.742	1611.07
524.948	1623.86
525.154	1606.42
525.36	1701.17
525.566	1610.49
525.772	1649.43
525.977	1571.35
526.183	1626.57
526.389	1676.37
526.595	1593.64
526.8	1596.15
527.006	1529.12
527.212	1466.92
527.417	1460.72
527.623	1464.02
527.829	1534.74
528.034	1547.52
528.24	1569.8
528.446	1567.29
528.651	1662.42
528.857	1653.5
529.062	1722.86
529.268	1694
529.473	1674.23
529.679	1692.45
529.884	1778.08
530.09	1742.82
530.295	1765.49
530.501	1776.34
530.706	1713.37
530.912	1688.57
531.117	1757.55
531.323	1747.08
531.528	1798.04
531.733	1818.19
531.939	1757.93
532.144	1826.33
532.35	1782.54
532.555	1808.89
532.76	1778.28
532.966	1801.53
533.171	1766.85
533.376	1698.07
533.581	1687.41
533.787	1740.88
533.992	1768.78
534.197	1809.86
534.402	1765.1
534.607	1773.24
534.813	1915.64
535.018	1781.57
535.223	1780.99
535.428	1805.98
535.633	1878.83
535.838	1864.69
536.043	1873.41
536.249	1955.56
536.454	1856.16
536.659	1907.31
536.864	1849.96
537.069	1858.68
537.274	1865.08
537.479	1897.62
537.684	1828.46
537.889	1787.58
538.094	1967.96
538.299	1882.9
538.504	1883.48
538.708	1881.74
538.913	1935.79
539.118	1890.46
539.323	1940.64
539.528	1880.38
539.733	1877.86
539.938	1905.76
540.142	1880.19
540.347	1855.78
540.552	1841.05
540.757	1824.78
540.962	1867.79
541.166	1749.41
541.371	1791.65
541.576	1880.38
541.781	1744.56
541.985	1866.24
542.19	1848.41
542.395	1930.56
542.599	1983.45
542.804	1919.91
543.008	1946.64
543.213	1884.26
543.418	1823.03
543.622	1904.6
543.827	1843.76
544.031	1948
544.236	1954.78
544.44	1939.47
544.645	2041.19
544.849	1887.16
545.054	1951.87
545.258	2023.95
545.463	2050.69
545.667	1911.38
545.872	1953.23
546.076	1954.39
546.281	1937.34
546.485	1917.58
546.689	1990.43
546.894	2001.09
547.098	1945.48
547.302	1938.89
547.507	1969.51
547.711	2021.24
547.915	2038.67
548.119	1908.28
548.324	1914.09
548.528	1991.98
548.732	1952.46
548.936	2019.69
549.141	1994.69
549.345	1940.83
549.549	1967.76
549.753	2002.05
549.957	2057.66
550.161	2036.54
550.366	1991.98
550.57	1962.14
550.774	1951.1
550.978	1991.01
551.182	1991.01
551.386	1948.19
551.59	1964.66
551.794	1965.05
551.998	2015.23
552.202	1979.58
552.406	1928.82
552.61	1968.15
552.814	1990.43
553.018	2047.39
553.222	1938.31
553.426	1925.72
553.63	2082.85
553.833	1987.14
554.037	1918.55
554.241	1992.17
554.445	1978.03
554.649	1937.34
554.853	1967.37
555.056	2009.42
555.26	2040.42
555.464	1969.89
555.668	2034.6
555.871	2017.94
556.075	2020.46
556.279	1951.1
556.483	1923.97
556.686	1954.78
556.89	1974.93
557.094	1988.1
557.297	1900.72
557.501	1964.27
557.704	1859.65
557.908	1956.52
558.112	1905.96
558.315	1998.37
558.519	1912.16
558.722	1924.75
558.926	1898.21
559.129	1793.2
559.333	1818.58
559.536	1805.79
559.74	1832.53
559.943	1813.34
560.147	1788.74
560.35	1818.96
560.553	1822.64
560.757	1748.63
560.96	1891.23
561.164	1824.58
561.367	1942.77
561.57	1869.14
561.774	1886.97
561.977	1815.28
562.18	1796.3
562.384	1929.01
562.587	1834.66
562.79	1830.98
562.993	1807.14
563.197	1845.51
563.4	1916.42
563.603	1892.2
563.806	1934.05
564.009	1762.97
564.212	1836.98
564.416	1760.65
564.619	1825.16
564.822	1777.5
565.025	1848.03
565.228	1782.73
565.431	1781.57
565.634	1686.44
565.837	1752.31
566.04	1727.13
566.243	1700.78
566.446	1659.32
566.649	1779.44
566.852	1680.43
567.055	1692.64
567.258	1747.08
567.461	1767.62
567.664	1789.13
567.867	1652.92
568.07	1752.12
568.273	1707.56
568.475	1786.03
568.678	1724.22
568.881	1680.82
569.084	1706.4
569.287	1601
569.489	1602.16
569.692	1705.62
569.895	1683.15
570.098	1584.53
570.3	1609.52
570.503	1564.96
570.706	1604.68
570.909	1567.87
571.111	1523.31
571.314	1524.27
571.516	1539.97
571.719	1544.42
571.922	1541.91
572.124	1539.19
572.327	1588.4
572.529	1497.34
572.732	1508.77
572.935	1550.24
573.137	1643.43
573.34	1529.12
573.542	1585.5
573.745	1563.99
573.947	1548.49
574.15	1549.65
574.352	1508.97
574.554	1580.46
574.757	1494.63
574.959	1495.02
575.162	1502.38
575.364	1480.49
575.566	1601.39
575.769	1439.41
575.971	1528.73
576.173	1374.31
576.376	1483.97
576.578	1528.73
576.78	1545.59
576.982	1388.46
577.185	1454.14
577.387	1452.2
577.589	1427.98
577.791	1474.29
577.993	1503.93
578.196	1449.68
578.398	1472.16
578.6	1481.65
578.802	1374.89
579.004	1377.8
579.206	1391.94
579.408	1449.29
579.61	1387.1
579.812	1447.55
580.014	1392.91
580.216	1381.68
580.418	1395.24
580.62	1381.87
580.822	1348.16
581.024	1434.18
581.226	1447.74
581.428	1421.98
581.63	1498.31
581.832	1358.62
582.034	1463.63
582.236	1410.54
582.438	1461.5
582.64	1468.67
582.841	1488.24
583.043	1478.55
583.245	1432.24
583.447	1397.95
583.649	1402.21
583.85	1408.99
584.052	1437.28
584.254	1365.79
584.456	1462.66
584.657	1358.23
584.859	1386.13
585.061	1394.46
585.262	1382.84
585.464	1300.69
585.666	1417.13
585.867	1336.73
586.069	1389.81
586.27	1348.16
586.472	1338.66
586.674	1306.5
586.875	1331.69
587.077	1341.96
587.278	1368.5
587.48	1322.97
587.681	1439.61
587.883	1371.79
588.084	1266.4
588.285	1329.56
588.487	1306.89
588.688	1327.23
588.89	1264.27
589.091	1247.41
589.292	1254.97
589.494	1251.67
589.695	1200.33
589.896	1161.58
590.098	1124.38
590.299	1187.74
590.5	1182.31
590.702	1185.8
590.903	1185.8
591.104	1235.01
591.305	1241.4
591.507	1280.15
591.708	1275.31
591.909	1282.48
592.11	1326.07
592.311	1281.7
592.512	1236.56
592.714	1179.99
592.915	1232.1
593.116	1209.05
593.317	1245.28
593.518	1262.33
593.719	1223.58
593.92	1261.17
594.121	1269.3
594.322	1254
594.523	1296.43
594.724	1218.93
594.925	1242.57
595.126	1243.73
595.327	1240.05
595.528	1248.57
595.729	1249.15
595.929	1206.14
596.13	1231.52
596.331	1224.16
596.532	1242.57
596.733	1316.19
596.934	1265.82
597.135	1282.28
597.335	1249.35
597.536	1219.12
597.737	1233.65
597.938	1218.35
598.138	1263.1
598.339	1254.77
598.54	1262.13
598.74	1188.7
598.941	1235.78
599.142	1280.35
599.342	1255.35
599.543	1190.06
599.744	1193.74
599.944	1220.09
600.145	1188.12
600.345	1223.58
600.546	1279.96
600.746	1264.27
600.947	1301.66
601.147	1239.08
601.348	1235.59
601.548	1160.03
601.749	1213.12
601.949	1185.99
602.15	1214.67
602.35	1210.6
602.551	1264.27
602.751	1174.75
602.951	1190.06
603.152	1107.14
603.352	1219.12
603.552	1185.8
603.753	1243.92
603.953	1235.01
604.153	1221.64
604.354	1195.48
604.554	1184.25
604.754	1204.4
604.954	1166.62
605.155	1234.43
605.355	1167.78
605.555	1211.57
605.755	1281.51
605.955	1173.59
606.155	1236.17
606.356	1182.31
606.556	1213.31
606.756	1222.42
606.956	1151.31
607.156	1253.22
607.356	1178.82
607.556	1195.29
607.756	1211.57
607.956	1246.25
608.156	1181.92
608.356	1137.36
608.556	1189.48
608.756	1183.86
608.956	1119.15
609.156	1154.6
609.356	1131.74
609.556	1118.57
609.755	1167
609.955	1110.62
610.155	1139.88
610.355	1130
610.555	1150.34
610.755	1143.95
610.954	1078.66
611.154	1136.39
611.354	1165.65
611.554	1094.35
611.753	1120.89
611.953	1073.62
612.153	1149.95
612.352	1149.37
612.552	1082.53
612.752	1056.57
612.951	1111.98
613.151	1095.12
613.351	1055.21
613.55	1079.24
613.75	1111.2
613.949	1094.93
614.149	1100.94
614.348	1102.68
614.548	1059.47
614.747	1035.26
614.947	1064.32
615.146	1003.87
615.346	1105.01
615.545	1107.52
615.745	1099.77
615.944	1103.46
616.144	1064.9
616.343	1122.44
616.542	1029.44
616.742	1067.03
616.941	1065.29
617.14	997.86
617.34	1057.34
617.539	1036.03
617.738	1005.42
617.938	1093.38
618.137	1030.61
618.336	1024.41
618.535	1074.2
618.734	1048.24
618.934	1081.37
619.133	1063.16
619.332	1076.91
619.531	1008.52
619.73	1018.79
619.929	1058.12
620.128	1067.81
620.328	1108.3
620.527	1022.66
620.726	1016.66
620.925	1037
621.124	1012.78
621.323	1075.94
621.522	1000.77
621.721	979.65
621.92	968.99
622.119	1044.94
622.318	995.93
622.517	1024.21
622.715	1026.54
622.914	922.11
623.113	1020.14
623.312	928.89
623.511	1024.79
623.71	1007.94
623.909	996.31
624.107	1013.56
624.306	947.68
624.505	963.38
624.704	967.25
624.902	971.32
625.101	1001.35
625.3	955.24
625.499	920.95
625.697	976.55
625.896	949.62
626.095	992.24
626.293	932.38
626.492	908.35
626.69	981.2
626.889	944.97
627.088	991.08
627.286	923.27
627.485	916.3
627.683	954.46
627.882	962.6
628.08	885.3
628.279	927.34
628.477	1015.69
628.676	918.23
628.874	968.8
629.073	915.91
629.271	918.04
629.469	949.04
629.668	915.71
629.866	920.75
630.065	922.3
630.263	967.44
630.461	889.75
630.66	926.18
630.858	920.56
631.056	980.23
631.254	986.04
631.453	882.2
631.651	981.39
631.849	945.55
632.047	937.61
632.245	892.66
632.444	929.28
632.642	921.53
632.84	950.2
633.038	890.14
633.236	867.28
633.434	861.27
633.632	912.42
633.83	854.88
634.028	963.18
634.227	928.5
634.425	967.64
634.623	869.8
634.821	945.94
635.019	906.41
635.216	907.58
635.414	932.96
635.612	916.68
635.81	901.38
636.008	996.31
636.206	904.67
636.404	934.7
636.602	874.25
636.8	885.49
636.997	918.62
637.195	921.33
637.393	891.3
637.591	939.35
637.789	901.18
637.986	877.93
638.184	901.38
638.382	962.99
638.58	934.12
638.777	952.14
638.975	901.38
639.173	903.7
639.37	917.26
639.568	900.02
639.765	937.61
639.963	869.41
640.161	957.18
640.358	922.5
640.556	880.06
640.753	831.63
640.951	853.71
641.148	899.25
641.346	848.1
641.543	890.72
641.741	913.39
641.938	838.02
642.136	872.31
642.333	804.31
642.531	897.11
642.728	907.77
642.925	879.68
643.123	833.95
643.32	865.34
643.517	845.77
643.715	856.43
643.912	838.02
644.109	888.01
644.306	858.17
644.504	823.3
644.701	861.85
644.898	872.9
645.095	845.19
645.293	836.86
645.49	901.57
645.687	851.97
645.884	901.57
646.081	776.41
646.278	820.78
646.475	810.9
646.672	817.48
646.87	869.41
647.067	840.73
647.264	858.95
647.461	793.27
647.658	796.56
647.855	875.61
648.052	787.84
648.249	745.02
648.446	783.19
648.642	763.62
648.839	784.35
649.036	770.98
649.233	726.23
649.43	799.66
649.627	721.39
649.824	776.22
650.021	740.37
650.217	716.15
650.414	720.03
650.611	778.73
650.808	805.67
651.004	769.63
651.201	789.2
651.398	817.68
651.595	813.42
651.791	769.05
651.988	829.3
652.185	752.19
652.381	820.78
652.578	716.54
652.775	768.66
652.971	752.77
653.168	753.55
653.364	814.38
653.561	708.21
653.757	746.57
653.954	773.12
654.15	763.82
654.347	807.99
654.543	726.81
654.74	723.9
654.936	687.48
655.133	743.67
655.329	772.73
655.525	745.6
655.722	782.03
655.918	714.6
656.115	740.57
656.311	669.27
656.507	655.32
656.704	573.75
656.9	610.37
657.096	641.17
657.292	650.47
657.489	704.34
657.685	693.29
657.881	697.17
658.077	699.88
658.273	709.76
658.47	763.23
658.666	738.82
658.862	727.97
659.058	732.82
659.254	791.33
659.45	701.62
659.646	726.23
659.842	711.89
660.038	777.38
660.234	689.42
660.43	705.3
660.626	805.67
660.822	756.84
661.018	791.52
661.214	717.32
661.41	689.22
661.606	742.12
661.802	737.27
661.998	724.1
662.194	695.81
662.39	745.8
662.586	755.49
662.781	708.99
662.977	758.2
663.173	766.14
663.369	734.17
663.564	751.61
663.76	772.34
663.956	706.85
664.152	767.69
664.347	710.54
664.543	730.49
664.739	733.59
664.934	672.75
665.13	649.12
665.326	757.42
665.521	727
665.717	680.7
665.912	674.89
666.108	645.82
666.304	720.03
666.499	712.09
666.695	639.82
666.89	682.05
667.086	762.65
667.281	769.24
667.477	757.81
667.672	715.77
667.867	728.94
668.063	709.18
668.258	681.47
668.454	710.15
668.649	772.53
668.844	698.72
669.04	732.04
669.235	726.81
669.43	715.77
669.626	668.3
669.821	683.22
670.016	671.01
670.211	688.25
670.407	672.95
670.602	709.37
670.797	676.63
670.992	738.05
671.187	658.81
671.382	755.87
671.578	699.1
671.773	676.82
671.968	626.64
672.163	722.35
672.358	688.06
672.553	649.7
672.748	658.61
672.943	741.92
673.138	672.95
673.333	719.84
673.528	650.67
673.723	702.2
673.918	668.69
674.113	658.61
674.308	793.85
674.503	669.85
674.698	724.49
674.892	696
675.087	704.14
675.282	706.85
675.477	656.67
675.672	685.74
675.867	680.7
676.061	656.67
676.256	638.85
676.451	646.79
676.646	703.37
676.84	645.82
677.035	612.11
677.23	621.61
677.424	711.89
677.619	714.6
677.814	696.59
678.008	740.37
678.203	617.73
678.397	623.35
678.592	703.17
678.787	704.14
678.981	692.9
679.176	674.11
679.37	651.64
679.565	645.44
679.759	638.07
679.954	701.24
680.148	736.89
680.342	724.68
680.537	675.47
680.731	662.1
680.926	701.24
681.12	706.85
681.314	624.9
681.509	657.64
681.703	683.41
681.897	705.5
682.092	646.21
682.286	645.44
682.48	736.3
682.674	711.5
682.869	670.04
683.063	628.97
683.257	739.21
683.451	624.32
683.645	662.49
683.839	673.72
684.034	668.49
684.228	724.29
684.422	611.53
684.616	621.41
684.81	702.79
685.004	649.51
685.198	647.37
685.392	691.35
685.586	619.67
685.78	655.9
685.974	676.05
686.168	682.83
686.362	713.25
686.556	634.78
686.75	580.73
686.944	602.42
687.138	632.26
687.331	567.74
687.525	579.95
687.719	499.16
687.913	556.31
688.107	575.49
688.301	525.89
688.494	561.74
688.688	537.33
688.882	535.78
689.076	517.56
689.269	579.37
689.463	665.78
689.657	584.6
689.85	558.83
690.044	559.22
690.238	552.05
690.431	571.23
690.625	566.58
690.818	622.57
691.012	598.55
691.205	617.34
691.399	586.15
691.593	596.22
691.786	634.01
691.98	648.54
692.173	671.4
692.366	654.74
692.56	651.44
692.753	706.47
692.947	581.5
693.14	670.24
693.333	680.89
693.527	593.9
693.72	638.07
693.914	637.88
694.107	619.67
694.3	661.91
694.493	627.81
694.687	711.12
694.88	646.41
695.073	683.6
695.266	692.32
695.46	661.13
695.653	724.68
695.846	710.73
696.039	625.48
696.232	669.27
696.425	690.97
696.618	691.94
696.812	707.82
697.005	780.67
697.198	817.29
697.391	738.82
697.584	792.88
697.777	810.7
697.97	815.35
698.163	826.59
698.356	767.11
698.549	905.06
698.742	868.83
698.935	817.29
699.127	847.9
699.32	822.72
699.513	823.68
699.706	859.14
699.899	886.26
700.092	857.78
700.285	890.14
700.477	826.59
700.67	893.63
700.863	918.23
701.056	992.24
701.248	976.74
701.441	972.48
701.634	934.31
701.826	1043.39
702.019	884.71
702.212	1025.96
702.404	956.01
702.597	977.52
702.79	971.32
702.982	1001.35
703.175	1050.37
703.367	1073.23
703.56	1063.35
703.752	1180.18
703.945	1145.11
704.137	1123.41
704.33	1159.84
704.522	1175.72
704.715	1174.56
704.907	1203.82
705.1	1226.68
705.292	1247.6
705.484	1213.89
705.677	1260.97
705.869	1283.64
706.061	1305.92
706.254	1344.86
706.446	1279.38
706.638	1332.85
706.831	1403.76
707.023	1347.38
707.215	1438.06
707.407	1469.44
707.599	1407.83
707.792	1508.58
707.984	1458.59
708.176	1481.26
708.368	1467.12
708.56	1509.16
708.752	1501.61
708.944	1498.12
709.136	1540.55
709.329	1547.14
709.521	1681.6
709.713	1601.97
709.905	1618.44
710.097	1681.4
710.289	1655.25
710.481	1647.5
710.672	1647.3
710.864	1707.95
711.056	1800.75
711.248	1734.68
711.44	1769.56
711.632	1733.52
711.824	1779.44
712.016	1817.03
712.207	1877.09
712.399	1831.94
712.591	1907.7
712.783	1874.96
712.975	1937.34
713.166	1909.64
713.358	1915.84
713.55	1970.67
713.741	1987.33
713.933	2025.3
714.125	2006.51
714.316	1948.19
714.508	2080.72
714.7	2078.58
714.891	2071.61
715.083	2171.58
715.274	2069.87
715.466	2152.02
715.657	2194.83
715.849	2053.2
716.04	2122.95
716.232	2084.2
716.423	2162.86
716.615	2122.18
716.806	2029.76
716.998	2079.17
717.189	2004.96
717.381	1942.57
717.572	1958.27
717.763	1963.89
717.955	1947.42
718.146	1955.17
718.337	1885.03
718.528	1823.23
718.72	1795.71
718.911	1854.23
719.102	1835.82
719.293	1903.63
719.485	1902.08
719.676	1859.07
719.867	1798.43
720.058	1847.25
720.249	1863.14
720.44	1904.79
720.632	1929.79
720.823	1969.7
721.014	2095.05
721.205	2105.71
721.396	2170.23
721.587	2237.46
721.778	2293.64
721.969	2351.38
722.16	2415.9
722.351	2394.39
722.542	2523.62
722.733	2539.9
722.924	2504.25
723.115	2551.13
723.305	2511.22
723.496	2534.47
723.687	2455.81
723.878	2477.7
724.069	2450.39
724.26	2499.6
724.45	2403.89
724.641	2413.19
724.832	2485.45
725.023	2442.83
725.213	2437.79
725.404	2411.06
725.595	2424.04
725.785	2414.35
725.976	2542.8
726.167	2513.16
726.357	2544.16
726.548	2636.19
726.739	2558.88
726.929	2640.45
727.12	2660.02
727.31	2707.49
727.501	2632.31
727.691	2658.28
727.882	2666.41
728.072	2699.16
728.263	2732.29
728.453	2795.06
728.644	2763.87
728.834	2757.48
729.024	2715.04
729.215	2741.39
729.405	2755.73
729.596	2811.72
729.786	2882.44
729.976	2887.09
730.167	2923.71
730.357	2851.64
730.547	2889.22
730.737	2929.91
730.928	2941.15
731.118	2990.55
731.308	2976.99
731.498	2950.64
731.688	3075.22
731.879	3079.68
732.069	3091.5
732.259	3119.98
732.449	3156.59
732.639	3212.01
732.829	3254.63
733.019	3298.42
733.209	3394.32
733.399	3361.97
733.589	3401.3
733.779	3471.43
733.969	3439.85
734.159	3546.8
734.349	3607.25
734.539	3599.31
734.729	3628.76
734.919	3665.76
735.109	3737.45
735.299	3633.41
735.488	3665.96
735.678	3692.31
735.868	3730.28
736.058	3663.82
736.248	3683.01
736.437	3624.88
736.627	3615.19
736.817	3806.42
737.007	3714.78
737.196	3739
737.386	3726.41
737.576	3704.51
737.765	3781.82
737.955	3766.51
738.144	3869.58
738.334	3891.87
738.524	3829.48
738.713	3841.49
738.903	3834.13
739.092	3902.13
739.282	3869.39
739.471	3873.46
739.661	3888.38
739.85	3885.67
740.04	3927.32
740.229	3956.19
740.419	3965.68
740.608	3969.56
740.797	3969.36
740.987	4041.05
741.176	4012.18
741.365	3977.5
741.555	3953.09
741.744	4100.72
741.933	4020.51
742.123	3997.26
742.312	4082.32
742.501	4145.09
742.69	4131.34
742.88	4009.66
743.069	4124.17
743.258	4049.96
743.447	4116.42
743.636	4144.51
743.825	4084.84
744.014	4137.34
744.204	4176.09
744.393	4111.77
744.582	4206.12
744.771	4218.72
744.96	4185.78
745.149	4201.86
745.338	4159.43
745.527	4198.95
745.716	4200.89
745.905	4157.3
746.094	4272.58
746.283	4236.54
746.471	4216.59
746.66	4284.78
746.849	4266.77
747.038	4257.27
747.227	4233.44
747.416	4260.18
747.604	4236.35
747.793	4193.34
747.982	4251.65
748.171	4255.14
748.359	4270.45
748.548	4248.75
748.737	4269.28
748.926	4221.43
749.114	4159.82
749.303	4200.5
749.491	4216.78
749.68	4186.55
749.869	4236.35
750.057	4196.44
750.246	4177.25
750.434	4193.14
750.623	4171.05
750.811	4185.97
751	4207.87
751.188	4159.04
751.377	4223.56
751.565	4162.14
751.754	4176.87
751.942	4102.27
752.131	4181.9
752.319	4139.47
752.507	4126.88
752.696	4211.16
752.884	4157.69
753.072	4179.77
753.261	4185.2
753.449	4172.8
753.637	4083.48
753.825	4239.25
754.014	4121.65
754.202	4161.56
754.39	4187.72
754.578	4215.04
754.766	4125.14
754.955	4110.8
755.143	4200.12
755.331	4167.57
755.519	4185.39
755.707	4154.39
755.895	4099.37
756.083	4114.87
756.271	4110.99
756.459	4115.84
756.647	4168.15
756.835	4111.96
757.023	4088.13
757.211	4077.86
757.399	4012.57
757.587	4036.21
757.775	4001.14
757.963	4056.94
758.151	4005.59
758.339	3998.43
758.526	4011.41
758.714	4016.44
758.902	3940.11
759.09	3902.72
759.278	3679.91
759.465	3482.67
759.653	3130.44
759.841	2883.8
760.028	2546.68
760.216	2227.38
760.404	2103.77
760.591	1778.47
760.779	1595.96
760.967	1402.99
761.154	1228.23
761.342	1309.02
761.529	1298.36
761.717	1390.01
761.905	1412.48
762.092	1483.2
762.28	1486.11
762.467	1509.74
762.655	1460.34
762.842	1479.52
763.029	1509.16
763.217	1568.06
763.404	1513.42
763.592	1581.62
763.779	1515.56
763.966	1605.26
764.154	1631.22
764.341	1718.02
764.528	1720.54
764.716	1783.12
764.903	1829.23
765.09	1879.61
765.277	1915.84
765.465	2105.9
765.652	2163.06
765.839	2226.8
766.026	2348.28
766.213	2434.3
766.4	2499.4
766.588	2695.09
766.775	2674.94
766.962	2819.47
767.149	2873.14
767.336	3039.18
767.523	2975.44
767.71	3088.78
767.897	3237.77
768.084	3282.53
768.271	3276.72
768.458	3324.19
768.645	3398.58
768.832	3351.89
769.019	3421.64
769.206	3446.63
769.392	3519.48
769.579	3599.11
769.766	3563.66
769.953	3538.08
770.14	3590.39
770.327	3582.45
770.513	3622.56
770.7	3692.11
770.887	3581.29
771.073	3628.18
771.26	3608.61
771.447	3563.85
771.634	3593.88
771.82	3712.46
772.007	3564.82
772.193	3637.28
772.38	3647.16
772.567	3621.59
772.753	3571.41
772.94	3647.16
773.126	3641.54
773.313	3650.26
773.499	3628.76
773.686	3640.58
773.872	3550.68
774.059	3616.16
774.245	3576.83
774.432	3596.98
774.618	3456.9
774.804	3603.57
774.991	3537.11
775.177	3559.78
775.363	3535.37
775.55	3590.2
775.736	3501.27
775.922	3536.73
776.109	3531.5
776.295	3489.45
776.481	3586.13
776.667	3560.17
776.853	3519.68
777.04	3453.42
777.226	3521.03
777.412	3562.88
777.598	3441.6
777.784	3452.06
777.97	3416.6
778.156	3443.53
778.342	3450.9
778.528	3487.71
778.715	3389.09
778.901	3452.64
779.087	3436.56
779.272	3387.35
779.458	3395.29
779.644	3399.55
779.83	3378.63
780.016	3413.31
780.202	3394.32
780.388	3361
780.574	3311.4
780.76	3346.85
780.946	3394.52
781.131	3367.59
781.317	3343.75
781.503	3288.92
781.689	3326.9
781.874	3463.49
782.06	3299.77
782.246	3352.28
782.432	3335.62
782.617	3343.17
782.803	3379.21
782.989	3286.6
783.174	3262.38
783.36	3225.76
783.545	3255.79
783.731	3266.84
783.916	3122.69
784.102	3254.44
784.288	3228.09
784.473	3227.31
784.659	3154.27
784.844	3240.1
785.029	3184.69
785.215	3182.56
785.4	3141.09
785.586	3216.07
785.771	3149.23
785.956	3190.31
786.142	3154.66
786.327	3115.33
786.512	3128.31
786.698	3159.69
786.883	3068.83
787.068	3102.93
787.254	3096.73
787.439	3110.48
787.624	3063.4
787.809	3074.64
787.994	3068.25
788.18	3126.95
788.365	3001.98
788.55	3069.8
788.735	3064.95
788.92	3015.55
789.105	3008.18
789.29	3079.1
789.475	2990.55
789.66	2974.47
789.845	2956.26
790.03	2962.46
790.215	3035.11
790.4	3029.69
790.585	3039.96
790.77	2967.5
790.955	2893.1
791.14	2928.94
791.325	3073.86
791.51	2887.87
791.695	2915.57
791.879	2936.11
792.064	2865.59
792.249	2962.85
792.434	2892.52
792.618	2903.56
792.803	2938.05
792.988	2896.59
793.173	2902.4
793.357	2925.07
793.542	2883.22
793.727	2923.71
793.911	2976.8
794.096	2885.93
794.281	2911.12
794.465	2986.29
794.65	2888.06
794.834	2999.85
795.019	2992.88
795.203	2964.59
795.388	2983.19
795.572	3007.99
795.757	2963.43
795.941	3018.07
796.126	2964.98
796.31	2933.01
796.494	2973.89
796.679	2959.75
796.863	2905.11
797.048	2985.52
797.232	2974.08
797.416	2977.77
797.601	2966.92
797.785	3002.37
797.969	3048.68
798.153	2954.32
798.338	2991.72
798.522	3047.51
798.706	3023.88
798.89	3047.32
799.074	3117.84
799.258	3057.59
799.443	2978.35
799.627	2982.22
799.811	3062.05
799.995	3005.08
800.179	2990.36
800.363	2958
800.547	2971.37
800.731	3023.1
800.915	2931.07
801.099	2953.93
801.283	2941.15
801.467	3033.56
801.651	2975.25
801.835	3034.15
802.019	2998.88
802.202	3023.49
802.386	2934.37
802.57	2952
802.754	2958.39
802.938	2945.22
803.121	2916.93
803.305	2997.72
803.489	2938.05
803.673	3016.71
803.856	2978.93
804.04	2953.93
804.224	2944.25
804.407	2959.17
804.591	2950.45
804.775	2964.98
804.958	2958.78
805.142	3037.25
805.326	2933.59
805.509	2968.85
805.693	3005.47
805.876	2989.58
806.06	2989.78
806.243	2997.92
806.427	3027.75
806.61	3042.67
806.794	2960.91
806.977	3023.68
807.16	2966.53
807.344	3001.02
807.527	2982.42
807.71	2923.13
807.894	2983.97
808.077	2989.58
808.26	2880.7
808.444	2920.22
808.627	2941.15
808.81	2938.24
808.993	2865.59
809.177	2855.12
809.36	2907.82
809.543	2915.96
809.726	2837.3
809.909	2843.69
810.092	2779.17
810.276	2844.47
810.459	2815.79
810.642	2799.52
810.825	2761.54
811.008	2807.27
811.191	2691.02
811.374	2707.29
811.557	2703.42
811.74	2819.47
811.923	2645.49
812.106	2673.97
812.289	2620.5
812.472	2644.52
812.654	2657.11
812.837	2617.4
813.02	2601.31
813.203	2531.57
813.386	2445.35
813.569	2438.95
813.751	2354.87
813.934	2418.22
814.117	2381.99
814.3	2344.21
814.482	2256.06
814.665	2233.39
814.848	2235.52
815.03	2174.3
815.213	2175.85
815.396	2188.63
815.578	2136.32
815.761	2088.08
815.943	2196.58
816.126	2066.19
816.309	2054.37
816.491	1964.86
816.674	1889.29
816.856	1920.1
817.039	1904.79
817.221	1999.54
817.403	1975.12
817.586	1976.67
817.768	2035.19
817.951	1911.96
818.133	1906.15
818.315	1905.18
818.498	1977.64
818.68	2010.19
818.862	1992.75
819.045	2005.74
819.227	2033.05
819.409	1954.97
819.591	2002.25
819.774	1947.81
819.956	1957.49
820.138	2024.72
820.32	2000.31
820.502	2068.9
820.684	2112.1
820.866	2112.88
821.048	2189.41
821.231	2208.59
821.413	2185.15
821.595	2135.74
821.777	2161.12
821.959	2150.27
822.141	2253.73
822.323	2100.09
822.505	2060.57
822.686	2019.49
822.868	1946.45
823.05	1807.53
823.232	1771.69
823.414	1695.93
823.596	1779.05
823.778	1736.43
823.96	1768.4
824.141	1762.39
824.323	1797.07
824.505	1879.22
824.687	1939.28
824.868	1984.62
825.05	2078.58
825.232	2079.75
825.413	2164.41
825.595	2103.58
825.777	2069.87
825.958	2082.46
826.14	2052.04
826.321	2086.53
826.503	2070.64
826.685	2087.69
826.866	2146.59
827.048	2147.95
827.229	2079.55
827.411	2051.65
827.592	1990.82
827.773	1985.59
827.955	1908.86
828.136	1922.81
828.318	1891.23
828.499	1930.56
828.68	1859.46
828.862	1900.72
829.043	1938.51
829.224	1911.38
829.406	1846.86
829.587	1888.52
829.768	1915.26
829.949	1897.04
830.131	1855
830.312	1964.27
830.493	1902.08
830.674	1913.12
830.855	1868.56
831.036	1884.64
831.218	1961.95
831.399	1942.19
831.58	1885.42
831.761	1905.57
831.942	1910.99
832.123	1903.63
832.304	1850.93
832.485	1868.18
832.666	1898.59
832.847	1898.98
833.028	1885.42
833.209	1890.26
833.389	1883.29
833.57	1771.69
833.751	1841.44
833.932	1895.49
834.113	1894.33
834.294	1848.99
834.475	1890.26
834.655	1926.3
834.836	1910.41
835.017	1887.55
835.198	1846.09
835.378	1859.65
835.559	1937.54
835.74	1893.56
835.92	1864.49
836.101	1848.03
836.281	1944.9
836.462	1917.58
836.643	1930.95
836.823	1941.02
837.004	1968.73
837.184	1990.04
837.365	1979.58
837.545	1955.94
837.726	1915.45
837.906	1994.69
838.087	1943.93
838.267	1924.56
838.448	1878.06
838.628	1905.96
838.808	1926.49
838.989	1962.34
839.169	1867.4
839.349	1924.75
839.53	1980.16
839.71	1921.07
839.89	1883.48
840.07	1941.41
840.251	1910.99
840.431	1910.02
840.611	1898.01
840.791	1848.41
840.971	1913.51
841.151	1891.62
841.332	1870.31
841.512	1919.32
841.692	1805.6
841.872	1887.55
842.052	1856.94
842.232	1903.24
842.412	1783.31
842.592	1870.5
842.772	1912.74
842.952	1884.26
843.132	1854.03
843.312	1844.73
843.492	1796.49
843.672	1866.04
843.851	1752.12
844.031	1838.34
844.211	1813.54
844.391	1812.96
844.571	1832.14
844.751	1830.78
844.93	1834.46
845.11	1814.89
845.29	1848.22
845.47	1856.55
845.649	1793
845.829	1855.19
846.009	1771.3
846.188	1856.55
846.368	1824.78
846.547	1815.86
846.727	1852.87
846.907	1754.45
847.086	1818.77
847.266	1839.31
847.445	1800.56
847.625	1779.05
847.804	1747.66
847.984	1795.33
848.163	1771.5
848.343	1760.84
848.522	1774.4
848.701	1778.47
848.881	1719.57
849.06	1799.4
849.239	1777.11
849.419	1745.34
849.598	1688.96
849.777	1705.82
849.957	1677.53
850.136	1619.4
850.315	1620.37
850.494	1568.25
850.674	1605.65
850.853	1665.71
851.032	1636.26
851.211	1707.37
851.39	1685.28
851.569	1606.04
851.748	1592.86
851.927	1688.18
852.107	1656.41
852.286	1636.84
852.465	1599.25
852.644	1663.19
852.823	1666.48
853.002	1627.74
853.181	1649.05
853.359	1675.4
853.538	1545
853.717	1627.15
853.896	1552.75
854.075	1465.76
854.254	1473.12
854.433	1351.26
854.611	1410.74
854.79	1376.06
854.969	1407.25
855.148	1444.45
855.327	1391.75
855.505	1464.79
855.684	1465.37
855.863	1464.6
856.041	1423.72
856.22	1523.11
856.399	1487.85
856.577	1576.2
856.756	1559.15
856.934	1668.03
857.113	1679.27
857.291	1596.15
857.47	1532.41
857.648	1579.69
857.827	1548.3
858.005	1613.4
858.184	1516.52
858.362	1646.53
858.541	1575.23
858.719	1577.36
858.898	1563.41
859.076	1546.94
859.254	1621.54
859.433	1536.67
859.611	1509.36
859.789	1469.06
859.967	1598.48
860.146	1620.57
860.324	1477.97
860.502	1494.44
860.68	1462.08
860.859	1488.04
861.037	1477.58
861.215	1521.56
861.393	1532.99
861.571	1470.61
861.749	1458.4
861.927	1495.79
862.105	1529.12
862.283	1454.14
862.461	1447.55
862.639	1411.32
862.817	1478.16
862.995	1489.59
863.173	1450.07
863.351	1463.24
863.529	1490.76
863.707	1503.74
863.885	1476.22
864.063	1408.22
864.241	1415.19
864.418	1533.57
864.596	1433.41
864.774	1387.68
864.952	1427.79
865.129	1450.26
865.307	1388.84
865.485	1356.68
865.663	1436.12
865.84	1344.67
866.018	1402.79
866.196	1258.65
866.373	1254.19
866.551	1228.81
866.728	1181.15
866.906	1237.53
867.084	1240.82
867.261	1284.03
867.439	1291.97
867.616	1316.19
867.794	1304.56
867.971	1309.8
868.149	1336.73
868.326	1359.01
868.503	1355.91
868.681	1316.77
868.858	1369.47
869.035	1289.06
869.213	1330.72
869.39	1304.18
869.567	1396.4
869.745	1311.73
869.922	1340.41
870.099	1343.9
870.276	1350.68
870.454	1338.86
870.631	1351.65
870.808	1327.62
870.985	1350.48
871.162	1416.16
871.339	1351.84
871.517	1264.65
871.694	1281.12
871.871	1292.36
872.048	1310.96
872.225	1297.59
872.402	1288.1
872.579	1247.6
872.756	1303.98
872.933	1253.03
873.11	1293.52
873.287	1318.51
873.463	1233.85
873.64	1245.08
873.817	1271.63
873.994	1254.97
874.171	1225.52
874.348	1272.6
874.524	1214.47
874.701	1256.52
874.878	1195.87
875.055	1246.83
875.231	1214.67
875.408	1263.88
875.585	1184.83
875.762	1254.19
875.938	1210.79
876.115	1195.29
876.291	1199.75
876.468	1230.17
876.645	1189.87
876.821	1206.53
876.998	1195.29
877.174	1208.47
877.351	1189.09
877.527	1174.95
877.704	1194.32
877.88	1195.29
878.057	1144.53
878.233	1208.47
878.409	1145.3
878.586	1190.84
878.762	1167.59
878.938	1187.93
879.115	1072.65
879.291	1167.39
879.467	1103.26
879.644	1098.22
879.82	1179.21
879.996	1117.99
880.172	1113.92
880.349	1155.57
880.525	1147.44
880.701	1053.08
880.877	1075.36
881.053	1126.51
881.229	1097.45
881.405	1168.94
881.581	1091.44
881.757	1119.54
881.933	1149.57
882.109	1163.52
882.285	1112.56
882.461	1058.12
882.637	1102.68
882.813	1063.35
882.989	1109.46
883.165	1168.17
883.341	1061.99
883.517	1119.54
883.693	1099.19
883.869	1131.16
884.044	1111.2
884.22	1145.5
884.396	1159.45
884.572	1123.8
884.747	1196.26
884.923	1109.85
885.099	1128.64
885.275	1144.14
885.45	1102.68
885.626	1103.65
885.801	1083.89
885.977	1113.72
886.153	1037.39
886.328	1113.72
886.504	1095.9
886.679	1119.54
886.855	1094.93
887.03	1088.92
887.206	1171.27
887.381	1110.24
887.557	1121.86
887.732	1117.02
887.908	1139.88
888.083	1128.64
888.258	1111.4
888.434	1079.82
888.609	1114.11
888.784	1166.04
888.96	1074.39
889.135	1077.11
889.31	1072.46
889.485	1104.62
889.661	1075.56
889.836	1150.34
890.011	1121.47
890.186	1103.65
890.361	1074.2
890.537	1121.86
890.712	1097.26
890.887	1114.11
891.062	1127.48
891.237	1149.57
891.412	1067.22
891.587	1142.01
891.762	1136.39
891.937	1163.13
892.112	1054.63
892.287	1097.84
892.462	1037.97
892.637	1052.11
892.812	1026.15
892.987	1036.81
893.161	1009.29
893.336	1043.2
893.511	1069.55
893.686	1040.87
893.861	1030.61
894.035	1053.47
894.21	1020.14
894.385	995.93
894.56	1053.47
894.734	959.5
894.909	955.43
895.084	973.45
895.258	945.16
895.433	955.04
895.608	950.59
895.782	885.68
895.957	886.85
896.131	894.98
896.306	842.87
896.48	816.32
896.655	830.47
896.829	776.22
897.004	821.75
897.178	777.38
897.353	764.78
897.527	838.41
897.701	774.86
897.876	751.22
898.05	840.73
898.224	804.31
898.399	829.69
898.573	815.55
898.747	682.64
898.921	740.76
899.096	665.78
899.27	637.88
899.444	651.44
899.618	679.92
899.792	708.4
899.967	702.4
900.141	783.38
900.315	662.68
900.489	696.97
900.663	735.14
900.837	705.69
901.011	632.07
901.185	757.81
901.359	713.44
901.533	712.09
901.707	704.53
901.881	721.19
902.055	687.09
902.229	687.29
902.403	758.78
902.576	757.23
902.75	695.04
902.924	864.76
903.098	769.05
903.272	788.81
903.446	843.45
903.619	823.1
903.793	845
903.967	839.77
904.14	880.45
904.314	860.3
904.488	854.68
904.661	882.39
904.835	825.62
905.009	866.31
905.182	914.16
905.356	882.2
905.529	850.81
905.703	849.84
905.876	857.01
906.05	798.88
906.223	803.34
906.397	720.03
906.57	702.98
906.744	706.66
906.917	700.07
907.09	722.35
907.264	677.4
907.437	683.02
907.61	610.37
907.784	653.19
907.957	681.28
908.13	602.81
908.304	692.32
908.477	616.96
908.65	651.64
908.823	605.72
908.996	684.77
909.17	625.09
909.343	592.16
909.516	613.47
909.689	607.66
909.862	627.81
910.035	626.26
910.208	581.89
910.381	554.76
910.554	694.26
910.727	642.72
910.9	587.89
911.073	615.6
911.246	671.2
911.419	639.04
911.592	653.57
911.765	589.64
911.938	619.47
912.11	609.21
912.283	618.12
912.456	680.12
912.629	624.12
912.802	608.43
912.974	588.47
913.147	536.36
913.32	503.81
913.493	514.66
913.665	551.47
913.838	531.32
914.01	529.58
914.183	559.03
914.356	539.26
914.528	577.04
914.701	637.3
914.873	618.51
915.046	546.24
915.218	539.84
915.391	477.07
915.563	486.95
915.736	513.3
915.908	575.69
916.081	549.73
916.253	498.96
916.425	544.3
916.598	557.28
916.77	557.86
916.942	531.13
917.115	456.53
917.287	536.94
917.459	518.92
917.632	479.01
917.804	418.36
917.976	536.16
918.148	504
918.32	499.74
918.493	530.54
918.665	569.88
918.837	514.46
919.009	636.52
919.181	586.73
919.353	568.91
919.525	547.01
919.697	537.71
919.869	551.08
920.041	578.21
920.213	687.48
920.385	585.76
920.557	558.06
920.729	572.78
920.901	573.56
921.073	533.64
921.244	542.75
921.416	611.14
921.588	564.26
921.76	536.94
921.932	566.78
922.103	553.79
922.275	557.48
922.447	569.68
922.619	462.73
922.79	537.71
922.962	529.96
923.134	560.19
923.305	499.93
923.477	458.66
923.648	500.32
923.82	529.96
923.991	433.09
924.163	456.34
924.335	468.16
924.506	444.91
924.677	548.95
924.849	461.96
925.02	507.1
925.192	515.82
925.363	468.55
925.535	489.86
925.706	468.74
925.877	541.39
926.049	473.97
926.22	493.54
926.391	485.6
926.562	506.52
926.734	438.9
926.905	516.4
927.076	410.61
927.247	431.73
927.419	411.78
927.59	387.37
927.761	408.48
927.932	414.1
928.103	425.73
928.274	366.05
928.445	350.36
928.616	384.07
928.787	374.58
928.958	426.11
929.129	383.68
929.3	356.75
929.471	309.87
929.642	260.07
929.813	241.86
929.984	307.74
930.155	244.96
930.326	272.09
930.496	262.4
930.667	192.84
930.838	252.13
931.009	207.57
931.18	251.94
931.35	220.16
931.521	208.15
931.692	175.6
931.863	120.19
932.033	218.42
932.204	164.17
932.374	185.48
932.545	142.28
932.716	226.56
932.886	190.71
933.057	91.13
933.227	110.5
933.398	210.09
933.568	105.27
933.739	66.91
933.909	70.59
934.08	124.45
934.25	59.35
934.421	51.41
934.591	112.63
934.761	68.07
934.932	28.16
935.102	105.66
935.272	66.91
935.443	87.64
935.613	53.93
935.783	122.32
935.953	57.61
936.123	247.87
936.294	63.42
936.464	70.59
936.634	97.52
936.804	39.2
936.974	5.68
937.144	95.39
937.314	89.77
937.484	49.86
937.655	42.69
937.825	124.26
937.995	58.77
938.165	109.92
938.334	101.39
938.504	112.63
938.674	88.8
938.844	114.76
939.014	176.76
939.184	170.37
939.354	206.41
939.524	193.04
939.694	150.22
939.863	113.41
940.033	202.72
940.203	198.66
940.373	187.22
940.542	192.84
940.712	137.82
940.882	196.72
941.051	217.64
941.221	201.17
941.391	174.05
941.56	117.86
941.73	90.74
941.899	226.56
942.069	138.79
942.238	157.77
942.408	118.44
942.577	198.66
942.747	130.46
942.916	67.68
943.086	118.83
943.255	178.7
943.425	136.85
943.594	108.95
943.763	54.7
943.933	70.2
944.102	35.13
944.271	129.29
944.441	115.15
944.61	94.03
944.779	112.44
944.948	195.94
945.117	73.88
945.287	80.47
945.456	48.5
945.625	56.83
945.794	113.99
945.963	43.85
946.132	127.16
946.301	89.38
946.47	120.77
946.639	49.28
946.808	80.66
946.977	103.33
947.146	168.04
947.315	75.43
947.484	139.56
947.653	83.38
947.822	83.96
947.991	91.32
948.16	178.31
948.329	140.73
948.498	106.04
948.666	79.69
948.835	151.57
949.004	76.21
949.173	49.47
949.341	100.81
949.51	106.82
949.679	154.67
949.847	134.33
950.016	194.78
950.185	164.94
950.353	81.83
950.522	109.53
950.69	187.61
950.859	66.91
951.028	151.77
951.196	125.81
951.365	85.89
951.533	108.95
951.701	128.91
951.87	121.35
952.038	64.58
952.207	121.74
952.375	170.76
952.543	91.13
952.712	123.68
952.88	89.19
953.048	160.87
953.217	117.48
953.385	87.44
953.553	153.71
953.721	74.85
953.89	107.98
954.058	44.43
954.226	99.26
954.394	109.53
954.562	42.88
954.73	82.21
954.898	90.54
955.067	126.39
955.235	69.62
955.403	158.16
955.571	171.92
955.739	126.97
955.907	50.25
956.075	77.76
956.243	77.37
956.41	126
956.578	49.47
956.746	45.01
956.914	77.56
957.082	116.12
957.25	131.23
957.418	80.66
957.585	94.61
957.753	159.71
957.921	67.49
958.089	91.51
958.256	136.85
958.424	110.89
958.592	121.35
958.759	76.98
958.927	114.18
959.095	73.49
959.262	80.47
959.43	90.74
959.597	76.59
959.765	104.3
959.932	81.83
960.1	129.29
960.267	110.89
960.435	102.56
960.602	151.96
960.77	88.41
960.937	50.63
961.104	130.65
961.272	32.42
961.439	86.67
961.606	122.13
961.774	104.3
961.941	93.06
962.108	100.81
962.275	106.63
962.443	121.54
962.61	129.68
962.777	180.44
962.944	129.49
963.111	123.48
963.278	122.13
963.446	118.06
963.613	125.23
963.78	119.03
963.947	139.95
964.114	111.08
964.281	207.57
964.448	132.98
964.615	79.11
964.782	120.96
964.949	147.12
965.116	134.14
965.282	160.87
965.449	111.47
965.616	73.11
965.783	129.49
965.95	118.25
966.117	70.39
966.283	114.57
966.45	126.58
966.617	119.22
966.784	147.7
966.95	178.12
967.117	157.58
967.284	102.17
967.45	100.04
967.617	178.12
967.784	145.57
967.95	191.29
968.117	108.95
968.283	160.68
968.45	210.67
968.616	151.77
968.783	181.41
968.949	154.67
969.116	195.36
969.282	143.24
969.449	165.14
969.615	130.84
969.781	100.43
969.948	132.78
970.114	70.01
970.28	193.42
970.447	125.81
970.613	193.04
970.779	141.5
970.945	177.73
971.112	154.87
971.278	129.49
971.444	141.5
971.61	167.66
971.776	113.79
971.942	171.72
972.108	156.22
972.275	120.77
972.441	140.14
972.607	194.78
972.773	101.78
972.939	162.62
973.105	103.91
973.271	91.71
973.437	96.36
973.602	102.56
973.768	139.18
973.934	122.51
974.1	156.61
974.266	39.01
974.432	148.09
974.598	101.2
974.763	135.49
974.929	103.53
975.095	181.99
975.261	88.03
975.426	82.41
975.592	98.1
975.758	161.46
975.923	84.15
976.089	67.68
976.255	159.91
976.42	124.06
976.586	135.3
976.751	98.68
976.917	202.34
977.082	112.05
977.248	64.58
977.413	56.45
977.579	80.47
977.744	107.59
977.91	65.74
978.075	100.04
978.24	168.24
978.406	91.51
978.571	98.88
978.736	88.61
978.902	174.63
979.067	69.62
979.232	55.28
979.397	132.78
979.563	181.22
979.728	52.18
979.893	112.44
980.058	97.71
980.223	127.36
980.388	111.66
980.554	99.26
980.719	72.91
980.884	133.36
981.049	168.82
981.214	76.98
981.379	113.21
981.544	87.64
981.709	113.02
981.874	110.69
982.039	95.58
982.204	120.58
982.368	104.88
982.533	85.12
982.698	131.23
982.863	139.95
983.028	75.63
983.193	126
983.357	107.01
983.522	115.34
983.687	88.22
983.852	101.2
984.016	72.53
984.181	125.23
984.346	128.52
984.51	131.43
984.675	104.88
984.839	115.34
985.004	119.8
985.168	148.67
985.333	112.83
985.498	86.28
985.662	123.87
985.827	111.86
985.991	116.7
986.155	110.89
986.32	140.92
986.484	176.18
986.649	125.81
986.813	64.58
986.977	98.1
987.142	118.06
987.306	75.04
987.47	61.68
987.634	94.42
987.799	77.76
987.963	63.81
988.127	120.58
988.291	166.88
988.455	103.53
988.62	101.98
988.784	131.04
988.948	119.22
989.112	86.28
989.276	131.04
989.44	100.62
989.604	53.73
989.768	86.28
989.932	192.26
990.096	59.54
990.26	52.18
990.424	51.6
990.588	69.23
990.752	187.61
990.915	158.94
991.079	52.38
991.243	47.73
991.407	109.73
991.571	84.73
991.734	118.44
991.898	129.1
992.062	187.42
992.226	81.83
992.389	108.37
992.553	35.52
992.717	61.87
992.88	63.23
993.044	103.14
993.207	60.13
993.371	113.41
993.535	99.84
993.698	81.44
993.862	113.99
994.025	113.99
994.189	96.94
994.352	117.28
994.515	112.44
994.679	129.29
994.842	63.23
995.006	129.88
995.169	56.06
995.332	27.77
995.496	112.83
995.659	29.9
995.822	93.26
995.985	72.72
996.149	137.24
996.312	74.27
996.475	171.53
996.638	47.15
996.801	139.37
996.964	142.86
997.128	63.03
997.291	72.14
997.454	81.24
997.617	47.53
997.78	100.04
997.943	48.31
998.106	96.55
998.269	60.32
998.432	61.87
998.595	94.61
998.758	40.75
998.92	34.75
999.083	29.13
999.246	77.37
999.409	36.88
999.572	-0.13
999.735	55.86
999.897	84.93
1000.06	50.83
1000.223	88.22
1000.386	114.38
1000.548	78.73
1000.711	105.46
1000.874	68.07
1001.036	18.66
1001.199	111.28
1001.361	50.83
1001.524	80.66
1001.687	95.58
1001.849	49.86
1002.012	74.85
1002.174	100.43
1002.337	101.39
1002.499	51.21
1002.661	97.71
1002.824	34.75
1002.986	57.61
1003.149	78.92
1003.311	27
1003.473	113.21
1003.636	33.58
1003.798	101.39
1003.96	70.98
1004.123	78.73
1004.285	31.65
1004.447	64.58
1004.609	62.06
1004.771	116.31
1004.933	9.56
1005.096	25.25
1005.258	3.75
1005.42	60.32
1005.582	118.64
1005.744	85.51
1005.906	4.33
1006.068	80.28
1006.23	21.76
1006.392	19.05
1006.554	30.87
1006.716	122.32
1006.878	84.93
1007.04	8.78
1007.202	26.8
1007.363	82.21
1007.525	59.35
1007.687	88.22
1007.849	95.78
1008.011	20.41
1008.172	12.85
1008.334	52.96
1008.496	62.84
1008.658	-20.86
1008.819	48.7
1008.981	5.1
1009.143	28.74
1009.304	46.95
1009.466	47.53
1009.627	96.55
1009.789	147.12
1009.95	62.45
1010.112	63.42
1010.273	80.47
1010.435	20.99
1010.596	29.9
1010.758	47.15
1010.919	43.46
1011.081	-14.08
1011.242	73.88
1011.403	69.04
1011.565	35.52
1011.726	51.41
1011.887	18.86
1012.049	35.91
1012.21	82.99
1012.371	105.85
1012.532	-53.02
1012.693	61.68
1012.855	37.85
1013.016	19.63
1013.177	71.75
1013.338	33.58
1013.499	82.41
1013.66	30.87
1013.821	70.59
1013.982	39.59
1014.143	23.51
1014.304	20.21
1014.465	51.6
1014.626	68.07
1014.787	31.45
1014.948	107.4
1015.109	-13.89
1015.27	91.9
1015.431	15.37
1015.592	0.84
1015.752	122.32
1015.913	43.27
1016.074	40.95
1016.235	35.71
1016.395	26.61
1016.556	30.48
1016.717	27.19
1016.877	84.15
1017.038	-9.62
1017.199	65.36
1017.359	24.28
1017.52	37.46
1017.681	16.73
1017.841	38.04
1018.002	30.68
1018.162	5.49
1018.323	82.21
1018.483	15.18
1018.644	2.97
1018.804	-16.21
1018.964	-4
1019.125	-13.5
1019.285	50.63
1019.446	7.04
1019.606	17.7
1019.766	-43.92
1019.926	46.95
1020.087	68.65
1020.247	-4.2
1020.407	59.16
1020.567	70.78
1020.728	14.6
1020.888	-7.1
1021.048	4.13
1021.208	19.63
1021.368	1.81
1021.528	59.54
1021.688	26.41
1021.848	74.08
1022.008	36.49
1022.168	16.15
1022.328	33
1022.488	45.6
1022.648	0.65
1022.808	58.38
1022.968	8.78
1023.128	6.85
1023.288	-9.24
1023.448	28.74
1023.608	50.63
1023.767	68.07
1023.927	4.52
1024.087	-17.18
1024.247	-29.19
1024.406	24.86
1024.566	-3.04
1024.726	-10.79
1024.885	29.51
1025.045	77.56
1025.205	27
1025.364	7.23
1025.524	38.23
1025.683	-10.59
1025.843	8.2
1026.003	18.86
1026.162	83.38
1026.321	63.42
1026.481	11.3
1026.64	-5.36
1026.8	22.73
1026.959	46.37
1027.119	36.88
1027.278	4.52
1027.437	7.23
1027.597	42.3
1027.756	40.75
1027.915	29.32
1028.074	54.51
1028.234	7.23
1028.393	14.01
1028.552	17.11
1028.711	-67.94
1028.87	54.9
1029.03	-9.43
1029.189	2.39
1029.348	-37.33
1029.507	-10.4
1029.666	10.72
1029.825	-15.63
1029.984	-1.68
1030.143	42.69
1030.302	7.04
1030.461	-34.62
1030.62	47.73
1030.779	55.86
1030.938	-3.81
1031.097	-23.57
1031.255	34.75
1031.414	62.84
1031.573	73.11
1031.732	-41.2
1031.891	7.62
1032.049	47.53
1032.208	32.61
1032.367	6.07
1032.525	21.57
1032.684	6.07
1032.843	22.54
1033.001	-36.55
1033.16	167.27
1033.319	65.94
1033.477	38.62
1033.636	-11.75
1033.794	-20.28
1033.953	48.89
1034.111	39.98
1034.27	0.45
1034.428	45.6
1034.587	-3.42
1034.745	15.76
1034.903	26.03
1035.062	21.18
1035.22	-16.21
1035.378	58
1035.537	-15.05
1035.695	30.1
1035.853	31.45
1036.011	19.05
1036.17	30.1
1036.328	-45.08
1036.486	3.55
1036.644	8.59
1036.802	-60.38
1036.96	-19.31
1037.119	0.06
1037.277	-3.62
1037.435	-45.85
1037.593	-29.58
1037.751	17.7
1037.909	50.25
1038.067	50.25
