Data from gum_old_FLMT105791__158__15-47-45-250.txt Node

Date: Mon Mar 20 15:47:45 GMT 2023
User: antho
Spectrometer: FLMT10579
Trigger mode: 0
Integration Time (sec): 1.000000E-1
Scans to average: 10
Electric dark correction enabled: true
Nonlinearity correction enabled: false
Boxcar width: 0
XAxis mode: Wavelengths
Number of Pixels in Spectrum: 3648
>>>>>Begin Spectral Data<<<<<
345.248	-187.89
345.464	-187.89
345.681	-187.89
345.898	-187.5
346.114	-178.39
346.331	-42.77
346.548	29.3
346.764	-7.31
346.981	-21.26
347.197	-26.69
347.414	12.25
347.631	3.92
347.847	83.94
348.064	-21.07
348.28	45.97
348.497	-46.84
348.713	-9.45
348.93	23.3
349.146	16.71
349.363	13.42
349.579	22.72
349.796	-29.59
350.012	-7.12
350.229	33.57
350.445	15.55
350.661	-25.53
350.878	28.14
351.094	34.34
351.311	18.84
351.527	41.32
351.743	-4.41
351.96	57.2
352.176	65.34
352.392	34.92
352.609	39.38
352.825	16.71
353.041	41.7
353.257	10.32
353.474	18.65
353.69	39.77
353.906	38.02
354.122	7.41
354.339	61.08
354.555	33.18
354.771	16.32
354.987	63.21
355.203	73.48
355.42	26.98
355.636	5.09
355.852	10.7
356.068	35.5
356.284	-36.38
356.5	98.08
356.716	65.92
356.932	14.77
357.148	64.18
357.364	21.75
357.58	50.23
357.796	84.72
358.012	80.65
358.228	23.69
358.444	-24.36
358.66	87.82
358.876	51.2
359.092	-16.61
359.308	27.37
359.524	48.49
359.74	2.57
359.956	-6.54
360.172	28.14
360.388	87.23
360.604	18.65
360.819	133.35
361.035	51.59
361.251	75.03
361.467	12.25
361.683	66.7
361.898	44.42
362.114	47.32
362.33	45.19
362.546	79.48
362.762	39.57
362.977	29.3
363.193	0.24
363.409	56.82
363.624	17.1
363.84	20.59
364.056	13.22
364.271	49.65
364.487	51
364.703	38.6
364.918	6.05
365.134	10.32
365.35	48.49
365.565	162.99
365.781	43.45
365.996	62.24
366.212	125.02
366.427	72.12
366.643	35.31
366.858	44.03
367.074	11.48
367.289	75.03
367.505	148.07
367.72	-12.35
367.936	36.28
368.151	73.48
368.367	59.14
368.582	66.5
368.798	20.39
369.013	96.53
369.228	77.74
369.444	44.42
369.659	106.8
369.874	42.29
370.09	92.47
370.305	12.06
370.52	31.63
370.736	106.03
370.951	38.41
371.166	106.61
371.381	128.12
371.597	77.93
371.812	29.3
372.027	19.62
372.242	58.75
372.458	143.62
372.673	47.71
372.888	44.03
373.103	83.55
373.318	143.03
373.533	79.1
373.749	63.79
373.964	-3.05
374.179	103.12
374.394	35.5
374.609	86.27
374.824	15.55
375.039	67.67
375.254	9.93
375.469	110.48
375.684	60.11
375.899	147.49
376.114	93.43
376.329	72.51
376.544	105.64
376.759	102.73
376.974	44.03
377.189	70.18
377.404	82
377.619	113.58
377.834	41.51
378.049	50.04
378.264	34.73
378.478	60.5
378.693	55.46
378.908	81.42
379.123	64.37
379.338	127.73
379.553	73.67
379.767	81.81
379.982	105.83
380.197	85.68
380.412	66.12
380.626	97.31
380.841	144.97
381.056	126.37
381.271	133.35
381.485	51.97
381.7	46.35
381.915	75.03
382.129	47.9
382.344	67.28
382.559	63.21
382.773	129.67
382.988	32.79
383.202	82.97
383.417	41.12
383.632	162.99
383.846	67.08
384.061	62.24
384.275	58.17
384.49	108.55
384.704	126.18
384.919	103.12
385.133	69.99
385.348	102.35
385.562	48.1
385.777	140.9
385.991	88.78
386.206	71.73
386.42	49.07
386.634	125.4
386.849	120.75
387.063	87.23
387.277	56.82
387.492	75.61
387.706	62.82
387.92	55.46
388.135	115.72
388.349	86.85
388.563	91.88
388.778	102.54
388.992	107.19
389.206	122.5
389.42	177.52
389.635	91.11
389.849	120.37
390.063	155.24
390.277	124.05
390.491	178.68
390.706	136.83
390.92	136.45
391.134	113.2
391.348	168.41
391.562	86.65
391.776	113
391.99	96.53
392.205	153.69
392.419	118.62
392.633	100.6
392.847	151.75
393.061	97.7
393.275	155.82
393.489	101.96
393.703	94.4
393.917	126.76
394.131	66.89
394.345	127.34
394.559	134.7
394.773	100.99
394.986	131.02
395.2	107.58
395.414	180.04
395.628	84.13
395.842	155.05
396.056	135.87
396.27	73.09
396.484	135.48
396.697	142.45
396.911	171.71
397.125	134.7
397.339	133.54
397.553	131.8
397.766	170.93
397.98	155.24
398.194	181.98
398.408	146.72
398.621	191.86
398.835	234.29
399.049	169
399.262	231.19
399.476	247.27
399.69	223.44
399.903	271.68
400.117	204.26
400.331	222.86
400.544	200.19
400.758	329.81
400.971	253.28
401.185	232.35
401.398	171.32
401.612	266.45
401.826	256.96
402.039	241.84
402.253	229.06
402.466	275.36
402.68	238.36
402.893	231.19
403.106	222.28
403.32	210.26
403.533	257.34
403.747	247.08
403.96	249.4
404.174	248.24
404.387	192.83
404.6	241.26
404.814	304.62
405.027	243.2
405.24	222.28
405.454	222.47
405.667	293.58
405.88	181.01
406.094	261.22
406.307	300.36
406.52	252.5
406.733	187.98
406.947	180.43
407.16	337.36
407.373	293.38
407.586	243.2
407.799	221.31
408.012	279.24
408.226	277.69
408.439	338.33
408.652	215.11
408.865	281.56
409.078	343.76
409.291	297.26
409.504	261.41
409.717	320.12
409.93	287.57
410.143	278.66
410.357	232.93
410.57	217.24
410.783	257.73
410.996	271.1
411.209	272.26
411.421	313.53
411.634	298.61
411.847	255.79
412.06	316.24
412.273	300.36
412.486	321.48
412.699	390.06
412.912	308.11
413.125	327.87
413.338	299.78
413.55	337.17
413.763	312.76
413.976	342.98
414.189	289.51
414.402	303.46
414.615	370.88
414.827	287.38
415.04	359.64
415.253	312.95
415.466	355.77
415.678	383.09
415.891	299.19
416.104	322.44
416.316	313.53
416.529	315.28
416.742	358.48
416.954	381.54
417.167	317.99
417.38	319.15
417.592	379.02
417.805	304.43
418.017	248.04
418.23	367.39
418.442	289.89
418.655	312.56
418.868	351.89
419.08	372.82
419.293	406.53
419.505	365.65
419.718	347.63
419.93	378.82
420.142	335.04
420.355	379.6
420.567	389.67
420.78	369.72
420.992	355.96
421.205	411.76
421.417	311.21
421.629	356.74
421.842	320.12
422.054	339.3
422.266	397.42
422.479	405.76
422.691	359.45
422.903	380.18
423.115	354.41
423.328	352.09
423.54	351.51
423.752	374.76
423.964	317.6
424.177	402.46
424.389	363.52
424.601	489.26
424.813	423.58
425.025	407.11
425.238	415.05
425.45	362.55
425.662	379.02
425.874	731.64
426.086	383.67
426.298	414.28
426.51	382.7
426.722	380.76
426.934	394.13
427.146	411.96
427.358	372.04
427.57	436.17
427.782	364.1
427.994	405.37
428.206	358.09
428.418	352.09
428.63	458.45
428.842	420.67
429.054	388.71
429.266	425.9
429.478	352.86
429.69	388.12
429.902	340.07
430.114	383.86
430.325	400.52
430.537	356.93
430.749	331.16
430.961	263.54
431.173	304.04
431.384	343.56
431.596	256.96
431.808	346.66
432.02	374.17
432.231	465.24
432.443	469.89
432.655	471.63
432.867	398.97
433.078	448.38
433.29	499.53
433.502	459.42
433.713	506.31
433.925	487.52
434.136	527.04
434.348	398.2
434.56	383.47
434.771	531.69
434.983	399.56
435.194	460.97
435.406	465.43
435.617	535.37
435.829	560.17
436.04	533.63
436.252	527.43
436.463	563.85
436.675	583.62
436.886	541.96
437.098	551.07
437.309	609.38
437.521	540.99
437.732	507.47
437.943	508.83
438.155	509.99
438.366	471.44
438.578	566.18
438.789	502.05
439	527.43
439.211	469.89
439.423	510.38
439.634	523.75
439.845	565.02
440.057	549.52
440.268	596.98
440.479	559.59
440.69	558.82
440.902	518.71
441.113	563.66
441.324	518.52
441.535	595.82
441.746	631.66
441.957	515.61
442.168	570.63
442.38	594.27
442.591	629.15
442.802	570.05
443.013	599.89
443.224	613.84
443.435	581.1
443.646	607.45
443.857	603.18
444.068	597.37
444.279	568.7
444.49	683.78
444.701	600.28
444.912	705.68
445.123	691.73
445.334	647.55
445.545	664.99
445.756	636.12
445.967	576.64
446.178	616.16
446.388	668.28
446.599	637.67
446.81	616.55
447.021	592.33
447.232	670.03
447.443	696.96
447.653	627.98
447.864	696.96
448.075	670.22
448.286	687.66
448.496	676.42
448.707	707.61
448.918	681.26
449.129	739
449.339	656.66
449.55	653.95
449.761	664.8
449.971	704.9
450.182	670.03
450.393	708.19
450.603	676.23
450.814	738.23
451.024	716.14
451.235	743.46
451.446	793.25
451.656	758.76
451.867	697.34
452.077	717.49
452.288	797.9
452.498	760.51
452.709	710.33
452.919	702.96
453.13	681.65
453.34	684.56
453.55	679.13
453.761	716.33
453.971	700.83
454.182	736.87
454.392	707.81
454.602	788.02
454.813	743.46
455.023	740.94
455.233	670.03
455.444	730.09
455.654	647.36
455.864	691.92
456.075	709.94
456.285	697.15
456.495	708
456.705	736.09
456.916	793.25
457.126	804.49
457.336	763.99
457.546	662.66
457.756	717.49
457.967	828.32
458.177	720.59
458.387	732.61
458.597	709.55
458.807	742.49
459.017	739
459.227	720.01
459.437	713.81
459.647	776.39
459.857	748.11
460.068	717.11
460.278	809.33
460.488	772.91
460.698	812.62
460.908	778.72
461.117	726.79
461.327	755.47
461.537	761.86
461.747	787.44
461.957	773.87
462.167	941.66
462.377	834.13
462.587	808.36
462.797	856.22
463.007	830.45
463.216	835.29
463.426	880.63
463.636	856.99
463.846	748.3
464.056	781.24
464.265	812.04
464.475	757.79
464.685	808.56
464.895	850.6
465.104	806.81
465.314	842.27
465.524	807.97
465.733	761.09
465.943	903.88
466.153	896.9
466.362	877.92
466.572	846.53
466.782	832.77
466.991	841.11
467.201	917.25
467.41	752.76
467.62	858.54
467.829	844.21
468.039	883.92
468.249	848.08
468.458	868.23
468.668	903.1
468.877	892.84
469.086	928.29
469.296	929.45
469.505	862.42
469.715	949.22
469.924	923.84
470.134	944.37
470.343	958.32
470.552	873.46
470.762	886.44
470.971	870.17
471.18	896.32
471.39	898.45
471.599	854.09
471.808	963.17
472.018	908.92
472.227	966.07
472.436	1034.46
472.645	962.78
472.855	961.03
473.064	1038.15
473.273	1015.48
473.482	1029.43
473.691	1041.25
473.901	981.57
474.11	986.42
474.319	1100.53
474.528	1008.89
474.737	1095.3
474.946	1053.45
475.155	1060.23
475.364	1117
475.573	1044.54
475.783	1053.26
475.992	1083.48
476.201	1137.54
476.41	1055.78
476.619	1033.5
476.828	1076.12
477.037	1042.41
477.245	1061.01
477.454	1115.64
477.663	1115.06
477.872	1126.11
478.081	1220.85
478.29	1097.43
478.499	1237.9
478.708	1201.28
478.917	1254.76
479.125	1146.84
479.334	1163.31
479.543	1157.3
479.752	1201.09
479.961	1204.77
480.169	1256.69
480.378	1214.84
480.587	1362.67
480.796	1255.53
481.004	1264.64
481.213	1280.33
481.422	1269.29
481.63	1287.11
481.839	1308.23
482.048	1341.94
482.256	1288.66
482.465	1313.27
482.674	1340.97
482.882	1356.09
483.091	1420.8
483.299	1328.19
483.508	1356.67
483.716	1327.22
483.925	1348.53
484.134	1317.72
484.342	1333.8
484.551	1371.39
484.759	1355.7
484.967	1384.37
485.176	1389.41
485.384	1395.42
485.593	1438.62
485.801	1367.71
486.01	1336.71
486.218	1292.34
486.426	1199.34
486.635	1207.29
486.843	1179.97
487.051	1244.29
487.26	1204.96
487.468	1292.73
487.676	1356.86
487.885	1328.38
488.093	1356.86
488.301	1392.9
488.509	1399.1
488.717	1452.96
488.926	1451.6
489.134	1401.23
489.342	1435.72
489.55	1388.63
489.758	1403.36
489.967	1456.45
490.175	1553.9
490.383	1508.18
490.591	1576.96
490.799	1520
491.007	1570.37
491.215	1574.44
491.423	1522.9
491.631	1534.91
491.839	1519.8
492.047	1572.11
492.255	1480.86
492.463	1450.25
492.671	1440.17
492.879	1510.11
493.087	1501.78
493.295	1544.6
493.503	1572.31
493.711	1606.02
493.919	1633.14
494.127	1597.88
494.334	1609.12
494.542	1567.66
494.75	1590.52
494.958	1635.47
495.166	1690.3
495.374	1686.23
495.581	1683.52
495.789	1693.98
495.997	1736.99
496.205	1591.29
496.412	1613.19
496.62	1656.2
496.828	1685.07
497.035	1668.02
497.243	1710.26
497.451	1664.14
497.658	1688.75
497.866	1676.93
498.074	1775.35
498.281	1681.39
498.489	1804.42
498.696	1661.24
498.904	1659.69
499.112	1646.9
499.319	1736.8
499.527	1700.37
499.734	1726.53
499.942	1656.2
500.149	1653.1
500.357	1707.16
500.564	1636.05
500.771	1716.65
500.979	1635.08
501.186	1591.29
501.394	1710.06
501.601	1616.87
501.808	1670.34
502.016	1682.94
502.223	1667.63
502.43	1681.39
502.638	1673.64
502.845	1667.05
503.052	1763.54
503.26	1656.78
503.467	1764.7
503.674	1732.73
503.881	1782.14
504.089	1812.36
504.296	1779.23
504.503	1663.56
504.71	1734.47
504.917	1658.14
505.125	1720.14
505.332	1748.81
505.539	1737.57
505.746	1854.02
505.953	1823.21
506.16	1825.15
506.367	1878.62
506.574	1879.4
506.781	1904.97
506.988	1805.97
507.195	1861.18
507.402	1842
507.609	1873.2
507.816	1810.62
508.023	1818.56
508.23	1782.72
508.437	1750.17
508.644	1835.61
508.851	1834.45
509.058	1866.61
509.265	1847.62
509.472	1919.5
509.679	1961.93
509.885	1894.9
510.092	1879.4
510.299	1865.25
510.506	1857.7
510.713	1894.51
510.92	1865.25
511.126	1886.37
511.333	1964.65
511.54	1904
511.746	1983.63
511.953	1999.33
512.16	1991.58
512.367	1947.79
512.573	1926.09
512.78	1936.94
512.987	1933.65
513.193	1925.51
513.4	1838.9
513.606	1898.58
513.813	1907.68
514.02	1903.61
514.226	1964.65
514.433	1966.2
514.639	1928.03
514.846	1929.19
515.052	1893.73
515.259	1949.53
515.465	1941.4
515.672	1942.56
515.878	2026.26
516.085	1993.32
516.291	2052.22
516.497	1986.54
516.704	1962.32
516.91	1883.47
517.117	1801.12
517.323	1743.77
517.529	1780.39
517.736	1738.54
517.942	1787.56
518.148	1789.3
518.354	1865.06
518.561	1859.63
518.767	1875.33
518.973	1900.71
519.179	1898.38
519.386	1916.01
519.592	1873.58
519.798	1902.84
520.004	2053.96
520.21	1989.06
520.417	2058.81
520.623	2121.19
520.829	2110.73
521.035	2091.16
521.241	2085.16
521.447	2104.72
521.653	2234.15
521.859	2109.18
522.065	2176.99
522.271	2265.92
522.477	2189.78
522.683	2254.88
522.889	2219.42
523.095	2175.44
523.301	2135.14
523.507	2128.94
523.713	2175.83
523.919	2114.99
524.125	2210.7
524.331	2206.64
524.537	2320.75
524.742	2274.25
524.948	2319.4
525.154	2304.28
525.36	2411.43
525.566	2348.85
525.772	2357.95
525.977	2278.71
526.183	2325.4
526.389	2375
526.595	2282.97
526.8	2261.08
527.006	2156.84
527.212	2141.73
527.417	2075.08
527.623	2134.76
527.829	2154.13
528.034	2224.46
528.24	2263.02
528.446	2235.89
528.651	2337.41
528.857	2326.76
529.062	2397.09
529.268	2442.04
529.473	2406
529.679	2472.84
529.884	2475.75
530.09	2509.08
530.295	2461.22
530.501	2506.17
530.706	2466.26
530.912	2428.48
531.117	2502.88
531.323	2490.48
531.528	2532.32
531.733	2537.94
531.939	2484.28
532.144	2573.01
532.35	2485.44
532.555	2563.52
532.76	2520.31
532.966	2507.53
533.171	2451.14
533.376	2418.98
533.581	2364.93
533.787	2454.05
533.992	2455.79
534.197	2518.18
534.402	2490.48
534.607	2480.79
534.813	2613.31
535.018	2518.57
535.223	2479.04
535.428	2541.43
535.633	2580.96
535.838	2606.14
536.043	2604.79
536.249	2762.3
536.454	2585.41
536.659	2646.25
536.864	2604.98
537.069	2598.78
537.274	2590.45
537.479	2609.44
537.684	2585.8
537.889	2488.73
538.094	2663.3
538.299	2611.95
538.504	2621.06
538.708	2628.23
538.913	2652.45
539.118	2669.3
539.323	2618.93
539.528	2593.36
539.733	2616.22
539.938	2618.93
540.142	2601.69
540.347	2583.47
540.552	2561.19
540.757	2540.07
540.962	2554.99
541.166	2458.7
541.371	2497.06
541.576	2513.53
541.781	2443.2
541.985	2596.46
542.19	2577.08
542.395	2694.1
542.599	2692.75
542.804	2623.58
543.008	2682.87
543.213	2588.71
543.418	2609.63
543.622	2647.6
543.827	2588.9
544.031	2687.13
544.236	2689.65
544.44	2655.16
544.645	2761.14
544.849	2634.82
545.054	2715.61
545.258	2772.18
545.463	2749.13
545.667	2592.58
545.872	2742.73
546.076	2716.77
546.281	2680.35
546.485	2658.84
546.689	2729.56
546.894	2713.48
547.098	2728.2
547.302	2648.19
547.507	2671.44
547.711	2729.75
547.915	2721.03
548.119	2698.56
548.324	2654.58
548.528	2736.53
548.732	2683.25
548.936	2726.46
549.141	2784.97
549.345	2693.72
549.549	2698.17
549.753	2716.97
549.957	2815.2
550.161	2786.71
550.366	2770.63
550.57	2692.17
550.774	2747.19
550.978	2750.29
551.182	2742.35
551.386	2685.97
551.59	2684.61
551.794	2717.93
551.998	2742.15
552.202	2754.75
552.406	2675.31
552.61	2789.62
552.814	2775.28
553.018	2782.65
553.222	2711.93
553.426	2685.58
553.63	2798.15
553.833	2710.57
554.037	2660.59
554.241	2732.85
554.445	2728.59
554.649	2717.74
554.853	2722
555.056	2762.3
555.26	2760.56
555.464	2745.25
555.668	2756.88
555.871	2774.51
556.075	2806.48
556.279	2663.3
556.483	2655.55
556.686	2686.55
556.89	2682.29
557.094	2678.6
557.297	2610.6
557.501	2730.72
557.704	2570.88
557.908	2664.65
558.112	2579.99
558.315	2717.74
558.519	2616.6
558.722	2601.1
558.926	2633.65
559.129	2543.76
559.333	2547.44
559.536	2527.29
559.74	2483.69
559.943	2532.32
560.147	2519.15
560.35	2519.92
560.553	2533.1
560.757	2526.71
560.96	2610.21
561.164	2572.04
561.367	2654
561.57	2583.28
561.774	2623.39
561.977	2582.31
562.18	2508.69
562.384	2634.04
562.587	2532.71
562.79	2550.54
562.993	2565.65
563.197	2529.81
563.4	2626.1
563.603	2643.54
563.806	2634.82
564.009	2534.84
564.212	2555.57
564.416	2440.49
564.619	2539.69
564.822	2512.37
565.025	2573.01
565.228	2516.63
565.431	2539.3
565.634	2427.12
565.837	2465.48
566.04	2400.38
566.243	2413.17
566.446	2331.6
566.649	2450.37
566.852	2380.62
567.055	2414.53
567.258	2431.96
567.461	2511.59
567.664	2484.47
567.867	2379.65
568.07	2440.88
568.273	2422.66
568.475	2524.77
568.678	2371.51
568.881	2417.05
569.084	2400
569.287	2245.77
569.489	2291.3
569.692	2371.71
569.895	2384.11
570.098	2342.26
570.3	2324.24
570.503	2211.29
570.706	2272.32
570.909	2251.2
571.111	2204.89
571.314	2196.37
571.516	2225.82
571.719	2275.22
571.922	2220.39
572.124	2191.91
572.327	2259.92
572.529	2203.15
572.732	2225.62
572.935	2260.88
573.137	2326.18
573.34	2246.16
573.542	2307.19
573.745	2296.15
573.947	2296.15
574.15	2262.63
574.352	2226.98
574.554	2324.05
574.757	2180.67
574.959	2200.63
575.162	2195.4
575.364	2165.95
575.566	2292.66
575.769	2177.38
575.971	2219.04
576.173	2092.32
576.376	2171.95
576.578	2235.31
576.78	2203.54
576.982	2139.99
577.185	2166.92
577.387	2102.79
577.589	2142.31
577.791	2204.12
577.993	2186.87
578.196	2105.11
578.398	2172.73
578.6	2183.19
578.802	2077.21
579.004	2100.66
579.206	2038.85
579.408	2150.64
579.61	2076.24
579.812	2154.52
580.014	2071.4
580.216	2089.22
580.418	2087.87
580.62	2085.16
580.822	2035.17
581.024	2106.47
581.226	2128.17
581.428	2087.67
581.63	2183
581.832	2049.89
582.034	2128.56
582.236	2077.41
582.438	2133.21
582.64	2164.59
582.841	2144.83
583.043	2191.91
583.245	2125.46
583.447	2114.99
583.649	2096.97
583.85	2088.45
584.052	2137.47
584.254	2053.96
584.456	2145.02
584.657	2052.41
584.859	2077.41
585.061	2074.11
585.262	2036.14
585.464	2016.18
585.666	2119.26
585.867	2030.33
586.069	2093.1
586.27	2039.04
586.472	2003.59
586.674	2035.36
586.875	2016.18
587.077	2003.01
587.278	2022.38
587.48	2014.83
587.681	2120.81
587.883	2032.84
588.084	1984.02
588.285	2002.43
588.487	1958.06
588.688	1995.26
588.89	1913.5
589.091	1885.4
589.292	1871.45
589.494	1847.23
589.695	1775.94
589.896	1693.01
590.098	1719.94
590.299	1777.1
590.5	1765.28
590.702	1780.59
590.903	1832.9
591.104	1904.58
591.305	1884.82
591.507	1960.19
591.708	1913.3
591.909	1876.88
592.11	1953.41
592.311	1925.12
592.512	1860.99
592.714	1838.52
592.915	1857.7
593.116	1854.21
593.317	1873
593.518	1868.35
593.719	1870.29
593.92	1882.11
594.121	1943.14
594.322	1919.89
594.523	1920.66
594.724	1854.6
594.925	1888.12
595.126	1902.06
595.327	1866.61
595.528	1903.23
595.729	1892.57
595.929	1891.6
596.13	1845.88
596.331	1865.64
596.532	1871.45
596.733	1950.11
596.934	1918.15
597.135	1891.99
597.335	1943.72
597.536	1857.12
597.737	1900.71
597.938	1843.17
598.138	1857.5
598.339	1885.4
598.54	1913.5
598.74	1873.97
598.941	1900.13
599.142	1905.94
599.342	1873.2
599.543	1816.62
599.744	1835.61
599.944	1867.38
600.145	1838.9
600.345	1855.95
600.546	1902.65
600.746	1936.16
600.947	1954.57
601.147	1830.96
601.348	1909.81
601.548	1805.39
601.749	1869.52
601.949	1790.47
602.15	1806.74
602.35	1816.04
602.551	1882.88
602.751	1758.69
602.951	1806.35
603.152	1725.37
603.352	1861.57
603.552	1835.42
603.753	1891.41
603.953	1867.97
604.153	1852.85
604.354	1825.53
604.554	1831.15
604.754	1840.45
604.954	1786.4
605.155	1849.95
605.355	1802.87
605.555	1887.15
605.755	1885.98
605.955	1807.71
606.155	1897.8
606.356	1827.86
606.556	1836.19
606.756	1801.12
606.956	1740.09
607.156	1836.38
607.356	1755.01
607.556	1804.8
607.756	1824.95
607.956	1879.4
608.156	1828.05
608.356	1752.1
608.556	1835.22
608.756	1792.6
608.956	1744.16
609.156	1806.55
609.356	1737.57
609.556	1701.73
609.755	1775.16
609.955	1739.9
610.155	1762.37
610.355	1779.62
610.555	1719.17
610.755	1771.67
610.954	1679.26
611.154	1721.11
611.354	1755.59
611.554	1700.18
611.753	1748.81
611.953	1658.52
612.153	1758.69
612.352	1743.77
612.552	1696.5
612.752	1599.63
612.951	1701.92
613.151	1727.69
613.351	1677.71
613.55	1685.65
613.75	1694.95
613.949	1643.61
614.149	1660.07
614.348	1658.52
614.548	1643.22
614.747	1560.29
614.947	1616.87
615.146	1571.73
615.346	1716.65
615.545	1682.94
615.745	1651.36
615.944	1654.26
616.144	1606.41
616.343	1656.01
616.542	1595.36
616.742	1606.21
616.941	1586.45
617.14	1542.08
617.34	1601.56
617.539	1610.67
617.738	1563.78
617.938	1657.75
618.137	1602.14
618.336	1557.39
618.535	1615.9
618.734	1641.09
618.934	1649.22
619.133	1611.06
619.332	1640.12
619.531	1555.64
619.73	1576.96
619.929	1659.88
620.128	1596.33
620.328	1655.04
620.527	1585.09
620.726	1603.89
620.925	1637.21
621.124	1560.29
621.323	1626.17
621.522	1529.68
621.721	1520.58
621.92	1530.07
622.119	1569.01
622.318	1541.89
622.517	1549.64
622.715	1514.57
622.914	1511.66
623.113	1527.36
623.312	1458.58
623.511	1572.31
623.71	1503.72
623.909	1494.03
624.107	1607.76
624.306	1473.69
624.505	1484.15
624.704	1481.63
624.902	1497.71
625.101	1542.86
625.3	1488.03
625.499	1482.6
625.697	1483.57
625.896	1462.65
626.095	1507.6
626.293	1446.95
626.492	1464.97
626.69	1510.11
626.889	1457.61
627.088	1497.52
627.286	1458.19
627.485	1448.31
627.683	1439.4
627.882	1492.48
628.08	1402
628.279	1442.5
628.477	1499.85
628.676	1412.27
628.874	1480.86
629.073	1417.31
629.271	1434.17
629.469	1447.92
629.668	1460.71
629.866	1393.09
630.065	1405.88
630.263	1458
630.461	1382.05
630.66	1425.83
630.858	1448.12
631.056	1493.65
631.254	1450.63
631.453	1402.78
631.651	1462.84
631.849	1417.89
632.047	1393.48
632.245	1425.83
632.444	1440.56
632.642	1442.3
632.84	1439.59
633.038	1430.87
633.236	1365.19
633.434	1398.13
633.632	1379.72
633.83	1396.58
634.028	1449.28
634.227	1403.17
634.425	1474.27
634.623	1410.14
634.821	1423.51
635.019	1432.42
635.216	1365.77
635.414	1417.89
635.612	1409.75
635.81	1429.13
636.008	1458
636.206	1381.66
636.404	1436.1
636.602	1382.82
636.8	1416.53
636.997	1435.33
637.195	1445.6
637.393	1405.88
637.591	1460.52
637.789	1406.65
637.986	1410.92
638.184	1389.6
638.382	1439.59
638.58	1421.96
638.777	1460.71
638.975	1385.73
639.173	1377.78
639.37	1412.85
639.568	1419.25
639.765	1392.9
639.963	1370.81
640.161	1392.12
640.358	1413.82
640.556	1358.02
640.753	1322.18
640.951	1302.42
641.148	1390.38
641.346	1342.72
641.543	1360.15
641.741	1340.59
641.938	1324.12
642.136	1335.55
642.333	1319.85
642.531	1395.03
642.728	1412.85
642.925	1373.52
643.123	1334
643.32	1340.39
643.517	1336.52
643.715	1334.77
643.912	1287.5
644.109	1358.22
644.306	1283.24
644.504	1240.03
644.701	1338.84
644.898	1417.89
645.095	1282.46
645.293	1298.74
645.49	1331.29
645.687	1314.82
645.884	1342.33
646.081	1228.99
646.278	1252.82
646.475	1259.21
646.672	1279.36
646.87	1295.44
647.067	1274.71
647.264	1286.34
647.461	1216.97
647.658	1226.86
647.855	1249.52
648.052	1239.64
648.249	1162.34
648.446	1226.47
648.642	1214.46
648.839	1234.02
649.036	1160.59
649.233	1188.3
649.43	1154.98
649.627	1141.03
649.824	1180.16
650.021	1153.81
650.217	1170.48
650.414	1204.77
650.611	1224.14
650.808	1234.02
651.004	1186.94
651.201	1210.58
651.398	1264.44
651.595	1227.63
651.791	1205.74
651.988	1253.79
652.185	1158.66
652.381	1231.31
652.578	1148
652.775	1221.24
652.971	1147.03
653.168	1188.49
653.364	1232.67
653.561	1120.49
653.757	1174.93
653.954	1208.06
654.15	1175.32
654.347	1251.27
654.543	1159.82
654.74	1146.84
654.936	1161.56
655.133	1154.78
655.329	1147.03
655.525	1145.09
655.722	1199.54
655.918	1078.06
656.115	1129.79
656.311	1030.98
656.507	990.87
656.704	940.11
656.9	969.56
657.096	990.29
657.292	984.87
657.489	1074.38
657.685	1048.03
657.881	1046.86
658.077	1084.65
658.273	1067.4
658.47	1147.61
658.666	1077.28
658.862	1158.85
659.058	1073.6
659.254	1152.26
659.45	1102.08
659.646	1139.48
659.842	1110.8
660.038	1158.85
660.234	1080
660.43	1120.49
660.626	1198.18
660.822	1149.36
661.018	1175.13
661.214	1093.75
661.41	1062.36
661.606	1157.3
661.802	1153.81
661.998	1119.52
662.194	1086.58
662.39	1114.29
662.586	1144.32
662.781	1111.77
662.977	1148.19
663.173	1133.86
663.369	1121.46
663.564	1111.58
663.76	1156.14
663.956	1104.8
664.152	1167.96
664.347	1048.41
664.543	1104.6
664.739	1090.46
664.934	996.49
665.13	1030.4
665.326	1136.18
665.521	1123.59
665.717	1058.1
665.912	1030.4
666.108	1003.66
666.304	1063.53
666.499	1058.1
666.695	994.36
666.89	1082.32
667.086	1098.6
667.281	1068.95
667.477	1139.67
667.672	1034.66
667.867	1079.8
668.063	1081.35
668.258	1014.12
668.454	1056.94
668.649	1154.39
668.844	1051.13
669.04	1108.67
669.235	1049.38
669.43	1023.62
669.626	1023.81
669.821	1046.28
670.016	1018.97
670.211	1041.63
670.407	997.65
670.602	1048.22
670.797	997.27
670.992	1112.16
671.187	1011.6
671.382	1058.1
671.578	995.72
671.773	1034.27
671.968	974.98
672.163	1040.08
672.358	1072.05
672.553	981.57
672.748	990.87
672.943	1104.99
673.138	1038.73
673.333	1044.54
673.528	957.55
673.723	1040.86
673.918	998.23
674.113	970.72
674.308	1087.75
674.503	1033.5
674.698	1027.88
674.892	1009.67
675.087	1046.09
675.282	1033.3
675.477	982.93
675.672	1038.15
675.867	996.49
676.061	981.38
676.256	964.33
676.451	965.49
676.646	1005.4
676.84	962.97
677.035	923.84
677.23	941.66
677.424	999.98
677.619	1028.65
677.814	1035.24
678.008	1036.79
678.203	874.04
678.397	993.58
678.592	969.95
678.787	1061.78
678.981	982.93
679.176	1015.48
679.37	974.79
679.565	925
679.759	973.82
679.954	1000.75
680.148	1015.28
680.342	1025.36
680.537	1011.6
680.731	965.68
680.926	1010.63
681.12	987.19
681.314	930.62
681.509	962.39
681.703	983.7
681.897	1011.6
682.092	956.19
682.286	965.68
682.48	1010.25
682.674	1026.33
682.869	950.38
683.063	956.97
683.257	1047.64
683.451	936.04
683.645	987.58
683.839	965.1
684.034	961.62
684.228	985.83
684.422	957.93
684.616	935.85
684.81	972.66
685.004	961.42
685.198	993.58
685.392	1016.45
685.586	924.8
685.78	974.4
685.974	981.57
686.168	988.16
686.362	1003.66
686.556	965.88
686.75	881.79
686.944	923.84
687.138	898.07
687.331	791.51
687.525	808.75
687.719	716.53
687.913	821.54
688.107	814.95
688.301	799.84
688.494	857.77
688.688	814.37
688.882	765.16
689.076	759.15
689.269	810.69
689.463	919.96
689.657	821.15
689.85	820.18
690.044	837.62
690.238	856.02
690.431	829.48
690.625	821.34
690.818	873.65
691.012	869.78
691.205	904.85
691.399	849.44
691.593	876.56
691.786	901.36
691.98	950.77
692.173	973.63
692.366	925.39
692.56	959.1
692.753	969.75
692.947	887.22
693.14	942.24
693.333	977.89
693.527	884.5
693.72	941.47
693.914	918.41
694.107	908.53
694.3	948.83
694.493	938.56
694.687	980.8
694.88	919.57
695.073	1013.93
695.266	993.58
695.46	943.4
695.653	1019.74
695.846	1029.43
696.039	935.85
696.232	976.73
696.425	1030.59
696.618	1024.58
696.812	1033.69
697.005	1084.65
697.198	1146.45
697.391	1058.49
697.584	1127.66
697.777	1148.58
697.97	1132.69
698.163	1126.69
698.356	1106.35
698.549	1205.16
698.742	1160.98
698.935	1132.5
699.127	1168.93
699.32	1148
699.513	1116.42
699.706	1156.14
699.899	1185.78
700.092	1132.11
700.285	1200.31
700.477	1129.21
700.67	1200.51
700.863	1227.63
701.056	1296.6
701.248	1261.92
701.441	1268.51
701.634	1224.92
701.826	1346.59
702.019	1204.57
702.212	1299.9
702.404	1279.36
702.597	1263.67
702.79	1285.37
702.982	1314.24
703.175	1330.9
703.367	1351.05
703.56	1364.22
703.752	1482.41
703.945	1393.48
704.137	1409.17
704.33	1416.53
704.522	1447.73
704.715	1476.79
704.907	1504.5
705.1	1516.12
705.292	1542.66
705.484	1507.6
705.677	1563.78
705.869	1564.36
706.061	1596.72
706.254	1617.84
706.446	1580.44
706.638	1564.56
706.831	1670.34
707.023	1606.41
707.215	1749.2
707.407	1726.92
707.599	1730.02
707.792	1753.85
707.984	1781.36
708.176	1777.68
708.368	1729.44
708.56	1790.27
708.752	1802.67
708.944	1795.5
709.136	1828.25
709.329	1817.98
709.521	1967.75
709.713	1874.36
709.905	1916.98
710.097	1945.66
710.289	1907.68
710.481	1933.45
710.672	1943.53
710.864	1974.72
711.056	2039.24
711.248	2058.81
711.44	2047.38
711.632	2062.29
711.824	2064.23
712.016	2154.13
712.207	2130.3
712.399	2109.18
712.591	2223.88
712.783	2138.24
712.975	2194.62
713.166	2184.94
713.358	2178.15
713.55	2300.8
713.741	2265.92
713.933	2281.62
714.125	2290.33
714.316	2268.05
714.508	2357.56
714.7	2360.47
714.891	2418.21
715.083	2421.89
715.274	2335.48
715.466	2398.45
715.657	2459.28
715.849	2377.52
716.04	2452.11
716.232	2369.77
716.423	2443.78
716.615	2395.54
716.806	2359.5
716.998	2359.7
717.189	2282.58
717.381	2215.55
717.572	2170.79
717.763	2225.43
717.955	2213.42
718.146	2171.95
718.337	2120.81
718.528	2093.49
718.72	2015.02
718.911	2112.67
719.102	2045.83
719.293	2093.29
719.485	2112.47
719.676	2118.48
719.867	2050.86
720.058	2077.6
720.249	2083.8
720.44	2078.18
720.632	2176.22
720.823	2199.85
721.014	2343.81
721.205	2332.77
721.396	2424.41
721.587	2536.01
721.778	2544.14
721.969	2616.99
722.16	2632.49
722.351	2674.15
722.542	2813.26
722.733	2809.96
722.924	2782.65
723.115	2832.63
723.305	2786.13
723.496	2831.86
723.687	2705.73
723.878	2731.3
724.069	2703.79
724.26	2746.61
724.45	2689.45
724.641	2679.77
724.832	2769.67
725.023	2712.7
725.213	2743.32
725.404	2722.2
725.595	2730.53
725.785	2697.01
725.976	2792.14
726.167	2795.82
726.357	2803.57
726.548	2915.36
726.739	2815.39
726.929	2917.11
727.12	2948.11
727.31	2960.12
727.501	2896.76
727.691	2962.44
727.882	2929.7
728.072	3007.59
728.263	2971.94
728.453	3046.34
728.644	3055.83
728.834	3050.79
729.024	3037.42
729.215	2994.22
729.405	3064.35
729.596	3137.78
729.786	3158.13
729.976	3212.18
730.167	3224.2
730.357	3147.86
730.547	3144.95
730.737	3229.04
730.928	3254.42
731.118	3369.7
731.308	3266.43
731.498	3287.36
731.688	3349.36
731.879	3372.41
732.069	3460.18
732.259	3483.24
732.449	3504.74
732.639	3607.23
732.829	3613.63
733.019	3626.03
733.209	3744.41
733.399	3708.76
733.589	3787.81
733.779	3850.97
733.969	3792.84
734.159	3898.44
734.349	4004.03
734.539	4009.65
734.729	4027.86
734.919	4067.38
735.109	4101.68
735.299	4038.52
735.488	4028.63
735.678	4072.23
735.868	4061.57
736.058	4040.26
736.248	4063.7
736.437	4039.87
736.627	4041.81
736.817	4173.56
737.007	4084.05
737.196	4139.26
737.386	4115.24
737.576	4154.96
737.765	4205.33
737.955	4151.66
738.144	4299.69
738.334	4260.36
738.524	4167.94
738.713	4249.89
738.903	4228
739.092	4232.46
739.282	4294.07
739.471	4275.86
739.661	4245.05
739.85	4299.3
740.04	4336.31
740.229	4370.21
740.419	4365.17
740.608	4405.09
740.797	4383
740.987	4441.7
741.176	4428.34
741.365	4406.44
741.555	4371.57
741.744	4479.87
741.933	4400.63
742.123	4473.28
742.312	4487.43
742.501	4506.61
742.69	4519.78
742.88	4425.04
743.069	4536.64
743.258	4451
743.447	4532.96
743.636	4538.19
743.825	4556.4
744.014	4547.88
744.204	4576.75
744.393	4513.97
744.582	4590.31
744.771	4663.35
744.96	4538
745.149	4610.26
745.338	4601.55
745.527	4641.65
745.716	4615.49
745.905	4603.1
746.094	4678.27
746.283	4702.49
746.471	4618.4
746.66	4721.47
746.849	4757.71
747.038	4760.42
747.227	4693.58
747.416	4693.19
747.604	4657.15
747.793	4658.89
747.982	4661.61
748.171	4708.69
748.359	4742.01
748.548	4697.84
748.737	4670.33
748.926	4696.29
749.114	4552.33
749.303	4673.43
749.491	4646.69
749.68	4602.51
749.869	4706.75
750.057	4601.93
750.246	4597.48
750.434	4642.04
750.623	4612.59
750.811	4605.23
751	4721.09
751.188	4577.33
751.377	4626.34
751.565	4564.54
751.754	4629.25
751.942	4590.11
752.131	4649.79
752.319	4551.95
752.507	4556.4
752.696	4604.06
752.884	4644.94
753.072	4574.81
753.261	4633.13
753.449	4572.87
753.637	4536.45
753.825	4641.65
754.014	4612.01
754.202	4576.55
754.39	4653.86
754.578	4639.13
754.766	4602.13
754.955	4563.96
755.143	4630.22
755.331	4574.81
755.519	4621.5
755.707	4565.9
755.895	4560.47
756.083	4559.89
756.271	4492.66
756.459	4525.01
756.647	4601.55
756.835	4491.11
757.023	4476.77
757.211	4442.48
757.399	4462.82
757.587	4506.22
757.775	4427.17
757.963	4468.63
758.151	4455.85
758.339	4454.1
758.526	4412.25
758.714	4438.8
758.902	4325.26
759.09	4293.87
759.278	4077.65
759.465	3843.02
759.653	3475.29
759.841	3164.33
760.028	2734.98
760.216	2447.85
760.404	2293.24
760.591	1982.28
760.779	1708.32
760.967	1520.19
761.154	1351.05
761.342	1437.46
761.529	1418.67
761.717	1521.74
761.905	1553.71
762.092	1666.66
762.28	1586.06
762.467	1654.07
762.655	1622.29
762.842	1629.46
763.029	1646.71
763.217	1714.91
763.404	1660.07
763.592	1769.93
763.779	1678.48
763.966	1758.89
764.154	1847.04
764.341	1845.49
764.528	1916.21
764.716	1990.03
764.903	2012.11
765.09	2093.29
765.277	2140.57
765.465	2339.35
765.652	2393.99
765.839	2471.68
766.026	2603.24
766.213	2669.89
766.4	2776.45
766.588	2956.63
766.775	2954.5
766.962	3083.34
767.149	3196.49
767.336	3319.71
767.523	3281.74
767.71	3471.61
767.897	3562.67
768.084	3604.13
768.271	3658
768.458	3686.28
768.645	3763.39
768.832	3730.85
769.019	3812.22
769.206	3800.59
769.392	3884.87
769.579	3973.61
769.766	3882.36
769.953	3931.76
770.14	4010.62
770.327	3957.92
770.513	3977.87
770.7	4052.85
770.887	3937.57
771.073	4019.53
771.26	3985.04
771.447	3957.72
771.634	3937.77
771.82	4077.65
772.007	3954.04
772.193	3974.19
772.38	4014.1
772.567	3990.47
772.753	3989.3
772.94	4019.53
773.126	4046.27
773.313	4053.63
773.499	3973.22
773.686	4084.82
773.872	3971.48
774.059	3982.72
774.245	3925.17
774.432	3996.67
774.618	3864.53
774.804	3917.23
774.991	3900.76
775.177	3966.25
775.363	3890.49
775.55	3970.7
775.736	3847.87
775.922	3909.48
776.109	3907.74
776.295	3907.16
776.481	3911.8
776.667	3973.42
776.853	3873.06
777.04	3873.06
777.226	3833.92
777.412	3982.72
777.598	3820.55
777.784	3848.45
777.97	3844.77
778.156	3824.81
778.342	3808.73
778.528	3809.51
778.715	3723.1
778.901	3793.81
779.087	3828.3
779.272	3777.54
779.458	3732.01
779.644	3799.63
779.83	3731.81
780.016	3822.29
780.202	3782.19
780.388	3735.88
780.574	3632.03
780.76	3716.31
780.946	3752.16
781.131	3733.95
781.317	3701.78
781.503	3668.85
781.689	3675.24
781.874	3822.49
782.06	3689.38
782.246	3689.77
782.432	3648.89
782.617	3699.46
782.803	3711.28
782.989	3618.28
783.174	3651.6
783.36	3562.48
783.545	3611.69
783.731	3604.13
783.916	3528.19
784.102	3639.01
784.288	3563.45
784.473	3576.04
784.659	3528.96
784.844	3526.64
785.029	3553.76
785.215	3535.16
785.4	3472.97
785.586	3561.51
785.771	3453.59
785.956	3474.9
786.142	3504.16
786.327	3443.52
786.512	3461.15
786.698	3464.25
786.883	3420.66
787.068	3443.32
787.254	3460.96
787.439	3381.71
787.624	3426.66
787.809	3371.06
787.994	3358.27
788.18	3479.94
788.365	3340.25
788.55	3360.98
788.735	3356.14
788.92	3347.23
789.105	3365.63
789.29	3400.7
789.475	3286.2
789.66	3317.78
789.845	3256.36
790.03	3244.54
790.215	3325.91
790.4	3385.97
790.585	3298.21
790.77	3267.4
790.955	3234.08
791.14	3267.4
791.325	3330.76
791.51	3121.12
791.695	3251.13
791.879	3234.08
792.064	3183.12
792.249	3297.43
792.434	3189.71
792.618	3240.66
792.803	3249
792.988	3212.76
793.173	3236.79
793.357	3284.84
793.542	3182.35
793.727	3245.9
793.911	3270.7
794.096	3206.37
794.281	3216.64
794.465	3297.43
794.65	3249.77
794.834	3270.5
795.019	3304.21
795.203	3299.76
795.388	3313.32
795.572	3299.76
795.757	3327.46
795.941	3357.49
796.126	3297.24
796.31	3240.47
796.494	3271.08
796.679	3261.4
796.863	3229.81
797.048	3354.01
797.232	3306.54
797.416	3300.92
797.601	3281.93
797.785	3378.42
797.969	3331.92
798.153	3277.86
798.338	3317.19
798.522	3354.2
798.706	3354.2
798.89	3360.4
799.074	3448.56
799.258	3406.9
799.443	3379.19
799.627	3347.81
799.811	3415.23
799.995	3347.23
800.179	3288.91
800.363	3317.97
800.547	3329.01
800.731	3364.47
800.915	3244.35
801.099	3301.89
801.283	3352.84
801.467	3307.51
801.651	3287.55
801.835	3365.63
802.019	3333.66
802.202	3368.73
802.386	3242.6
802.57	3258.3
802.754	3265.85
802.938	3249.77
803.121	3301.69
803.305	3323.59
803.489	3320.29
803.673	3298.4
803.856	3345.48
804.04	3273.41
804.224	3315.84
804.407	3299.95
804.591	3294.14
804.775	3268.18
804.958	3227.49
805.142	3391.01
805.326	3291.81
805.509	3301.5
805.693	3329.01
805.876	3281.35
806.06	3307.51
806.243	3359.04
806.427	3352.46
806.61	3372.61
806.794	3268.37
806.977	3325.72
807.16	3300.34
807.344	3340.25
807.527	3325.53
807.71	3289.68
807.894	3267.6
808.077	3324.75
808.26	3228.26
808.444	3214.9
808.627	3319.91
808.81	3267.01
808.993	3182.15
809.177	3196.49
809.36	3184.09
809.543	3208.12
809.726	3110.85
809.909	3143.79
810.092	3109.89
810.276	3095.55
810.459	3120.74
810.642	3117.05
810.825	3085.28
811.008	3143.79
811.191	2980.07
811.374	2988.99
811.557	3037.04
811.74	3092.84
811.923	2983.95
812.106	2957.79
812.289	2909.55
812.472	2938.42
812.654	2950.62
812.837	2906.64
813.02	2859.56
813.203	2824.3
813.386	2735.76
813.569	2695.07
813.751	2645.86
813.934	2670.66
814.117	2632.88
814.3	2598.39
814.482	2540.66
814.665	2515.47
814.848	2495.32
815.03	2418.21
815.213	2360.86
815.396	2391.86
815.578	2367.45
815.761	2315.33
815.943	2396.7
816.126	2245
816.309	2256.82
816.491	2179.12
816.674	2108.21
816.856	2191.14
817.039	2169.44
817.221	2251.78
817.403	2187.84
817.586	2191.91
817.768	2219.42
817.951	2121.58
818.133	2112.09
818.315	2144.64
818.498	2177.19
818.68	2205.28
818.862	2230.85
819.045	2242.48
819.227	2197.53
819.409	2197.53
819.591	2236.67
819.774	2178.35
819.956	2152.77
820.138	2226.2
820.32	2212.25
820.502	2247.32
820.684	2357.95
820.866	2342.26
821.048	2431.58
821.231	2404.65
821.413	2418.98
821.595	2368.8
821.777	2381.4
821.959	2393.99
822.141	2476.91
822.323	2300.22
822.505	2255.07
822.686	2214
822.868	2142.31
823.05	1999.33
823.232	1947.98
823.414	1872.81
823.596	1964.26
823.778	1940.43
823.96	1987.31
824.141	1974.72
824.323	2015.21
824.505	2095.23
824.687	2129.33
824.868	2175.64
825.05	2266.7
825.232	2338.77
825.413	2404.06
825.595	2383.53
825.777	2251
825.958	2351.56
826.14	2290.14
826.321	2350.78
826.503	2309.71
826.685	2339.16
826.866	2370.93
827.048	2389.73
827.229	2317.85
827.411	2258.17
827.592	2215.94
827.773	2202.37
827.955	2159.36
828.136	2154.52
828.318	2119.64
828.499	2160.91
828.68	2103.37
828.862	2148.71
829.043	2145.8
829.224	2128.36
829.406	2047.38
829.587	2092.71
829.768	2087.67
829.949	2126.42
830.131	2053.38
830.312	2172.15
830.493	2107.24
830.674	2123.71
830.855	2097.17
831.036	2092.71
831.218	2115.77
831.399	2170.4
831.58	2117.12
831.761	2118.09
831.942	2139.41
832.123	2129.91
832.304	2030.33
832.485	2057.26
832.666	2064.23
832.847	2121.19
833.028	2081.28
833.209	2100.07
833.389	2072.56
833.57	1991.77
833.751	2080.89
833.932	2106.08
834.113	2092.71
834.294	2033.62
834.475	2132.24
834.655	2141.92
834.836	2162.85
835.017	2124.1
835.198	2060.55
835.378	2106.86
835.559	2143.28
835.74	2102.98
835.92	2119.26
836.101	2051.83
836.281	2114.8
836.462	2118.48
836.643	2201.99
836.823	2174.86
837.004	2142.12
837.184	2194.24
837.365	2168.27
837.545	2174.28
837.726	2130.3
837.906	2190.36
838.087	2164.79
838.267	2139.02
838.448	2081.09
838.628	2118.87
838.808	2108.21
838.989	2226.2
839.169	2057.26
839.349	2159.36
839.53	2152.39
839.71	2156.65
839.89	2119.64
840.07	2169.24
840.251	2093.87
840.431	2198.69
840.611	2100.46
840.791	2081.67
840.971	2136.31
841.151	2099.11
841.332	2082.83
841.512	2129.72
841.692	2058.03
841.872	2135.14
842.052	2100.07
842.232	2094.65
842.412	2027.81
842.592	2080.31
842.772	2111.7
842.952	2112.09
843.132	2077.02
843.312	2063.07
843.492	2060.16
843.672	2095.42
843.851	1988.48
844.031	2049.31
844.211	2074.31
844.391	1998.36
844.571	2031.88
844.751	2071.4
844.93	2058.81
845.11	2033.43
845.29	2030.52
845.47	2065.78
845.649	2026.64
845.829	2082.44
846.009	1979.56
846.188	2061.71
846.368	2033.23
846.547	2009.59
846.727	2074.31
846.907	1946.24
847.086	1989.64
847.266	2064.81
847.445	2039.82
847.625	1979.18
847.804	1973.75
847.984	1987.51
848.163	1968.71
848.343	2003.98
848.522	1990.22
848.701	1995.84
848.881	1908.07
849.06	1951.08
849.239	1955.93
849.419	1969.68
849.598	1888.12
849.777	1893.35
849.957	1843.94
850.136	1798.99
850.315	1808.49
850.494	1758.3
850.674	1799.77
850.853	1869.9
851.032	1847.04
851.211	1872.62
851.39	1848.2
851.569	1768.96
851.748	1808.87
851.927	1867.77
852.107	1818.56
852.286	1785.24
852.465	1751.14
852.644	1887.92
852.823	1843.94
853.002	1814.68
853.181	1858.47
853.359	1834.83
853.538	1762.95
853.717	1824.57
853.896	1741.25
854.075	1675.19
854.254	1601.56
854.433	1539.18
854.611	1588.78
854.79	1530.07
854.969	1545.38
855.148	1603.89
855.327	1587.61
855.505	1627.72
855.684	1588.19
855.863	1656.01
856.041	1614.35
856.22	1686.81
856.399	1655.81
856.577	1746.87
856.756	1758.3
856.934	1868.16
857.113	1887.53
857.291	1728.47
857.47	1774.19
857.648	1761.79
857.827	1764.12
858.005	1804.03
858.184	1744.74
858.362	1798.6
858.541	1744.16
858.719	1764.89
858.898	1723.24
859.076	1749.2
859.254	1791.63
859.433	1714.13
859.611	1661.82
859.789	1669.18
859.967	1739.7
860.146	1787.75
860.324	1661.43
860.502	1663.17
860.68	1678.09
860.859	1692.24
861.037	1698.44
861.215	1696.5
861.393	1680.42
861.571	1673.44
861.749	1641.86
861.927	1682.16
862.105	1663.56
862.283	1683.71
862.461	1602.14
862.639	1630.24
862.817	1649.42
862.995	1629.85
863.173	1642.25
863.351	1630.82
863.529	1649.03
863.707	1697.27
863.885	1660.46
864.063	1577.93
864.241	1597.69
864.418	1666.47
864.596	1590.33
864.774	1566.88
864.952	1613.58
865.129	1621.91
865.307	1576.18
865.485	1537.05
865.663	1612.03
865.84	1548.67
866.018	1529.68
866.196	1382.24
866.373	1412.27
866.551	1380.3
866.728	1309.97
866.906	1331.67
867.084	1385.34
867.261	1440.37
867.439	1424.67
867.616	1470.59
867.794	1437.07
867.971	1452.96
868.149	1481.83
868.326	1542.08
868.503	1512.05
868.681	1476.21
868.858	1452.18
869.035	1429.32
869.213	1487.25
869.39	1460.71
869.567	1556.81
869.745	1463.23
869.922	1481.83
870.099	1501.2
870.276	1507.01
870.454	1491.71
870.631	1485.12
870.808	1460.52
870.985	1505.08
871.162	1537.43
871.339	1495
871.517	1413.24
871.694	1430.1
871.871	1458.97
872.048	1476.4
872.225	1424.09
872.402	1453.35
872.579	1375.85
872.756	1453.54
872.933	1373.14
873.11	1401.81
873.287	1429.13
873.463	1405.88
873.64	1392.32
873.817	1444.43
873.994	1423.12
874.171	1353.95
874.348	1437.85
874.524	1347.95
874.701	1352.02
874.878	1305.71
875.055	1424.48
875.231	1383.79
875.408	1369.45
875.585	1301.64
875.762	1377.98
875.938	1367.52
876.115	1352.21
876.291	1328.57
876.468	1327.8
876.645	1311.33
876.821	1308.23
876.998	1337.68
877.174	1346.98
877.351	1314.24
877.527	1294.09
877.704	1328.96
877.88	1322.76
878.057	1317.53
878.233	1365.19
878.409	1289.24
878.586	1318.3
878.762	1324.12
878.938	1318.5
879.115	1240.03
879.291	1297.96
879.467	1235.77
879.644	1267.54
879.82	1294.67
879.996	1263.86
880.172	1201.47
880.349	1265.41
880.525	1321.21
880.701	1231.7
880.877	1211.94
881.053	1274.52
881.229	1235.57
881.405	1319.66
881.581	1216.97
881.757	1217.56
881.933	1252.62
882.109	1308.42
882.285	1256.89
882.461	1198.96
882.637	1286.14
882.813	1213.1
882.989	1259.41
883.165	1296.02
883.341	1213.49
883.517	1283.82
883.693	1268.51
883.869	1306.87
884.044	1194.11
884.22	1250.69
884.396	1315.2
884.572	1262.12
884.747	1307.84
884.923	1238.29
885.099	1295.44
885.275	1320.24
885.45	1226.27
885.626	1245.26
885.801	1213.29
885.977	1213.29
886.153	1177.45
886.328	1247.2
886.504	1204.57
886.679	1236.54
886.855	1205.54
887.03	1251.85
887.206	1271.81
887.381	1253.21
887.557	1270.26
887.732	1219.88
887.908	1260.76
888.083	1311.33
888.258	1242.16
888.434	1218.52
888.609	1256.5
888.784	1300.29
888.96	1238.87
889.135	1209.03
889.31	1216.78
889.485	1261.15
889.661	1223.37
889.836	1289.44
890.011	1278.01
890.186	1222.79
890.361	1216.59
890.537	1237.51
890.712	1234.41
890.887	1228.02
891.062	1240.81
891.237	1284.21
891.412	1196.83
891.587	1246.23
891.762	1259.99
891.937	1294.67
892.112	1181.33
892.287	1247.01
892.462	1164.28
892.637	1157.11
892.812	1153.43
892.987	1180.16
893.161	1161.18
893.336	1160.01
893.511	1171.44
893.686	1180.94
893.861	1160.79
894.035	1168.93
894.21	1165.63
894.385	1072.83
894.56	1138.89
894.734	1089.49
894.909	1087.55
895.084	1072.83
895.258	1050.74
895.433	1053.65
895.608	1022.84
895.782	988.35
895.957	999.59
896.131	1020.13
896.306	947.28
896.48	973.63
896.655	929.45
896.829	895.16
897.004	898.07
897.178	903.3
897.353	864.35
897.527	943.6
897.701	921.9
897.876	853.5
898.05	967.43
898.224	931.59
898.399	949.22
898.573	943.4
898.747	778.52
898.921	847.69
899.096	711.88
899.27	730.67
899.444	764.57
899.618	819.6
899.792	806.62
899.967	807.97
900.141	849.44
900.315	773.1
900.489	753.34
900.663	824.44
900.837	768.45
901.011	728.34
901.185	828.71
901.359	788.02
901.533	798.29
901.707	806.42
901.881	788.79
902.055	726.6
902.229	785.5
902.403	864.16
902.576	789.76
902.75	801
902.924	928.29
903.098	868.23
903.272	883.73
903.446	912.99
903.619	906.01
903.793	954.45
903.967	913.76
904.14	991.07
904.314	963.75
904.488	955.42
904.661	978.08
904.835	966.27
905.009	1030.01
905.182	1032.14
905.356	977.5
905.529	962.39
905.703	927.71
905.876	922.67
906.05	895.94
906.223	893.8
906.397	798.29
906.57	788.6
906.744	793.44
906.917	770.19
907.09	795.38
907.264	767.48
907.437	769.81
907.61	733.77
907.784	733.58
907.957	774.07
908.13	725.44
908.304	777.17
908.477	706.64
908.65	710.91
908.823	671.77
908.996	763.99
909.17	712.65
909.343	728.73
909.516	718.27
909.689	686.88
909.862	677.2
910.035	693.86
910.208	669.64
910.381	678.16
910.554	773.87
910.727	687.66
910.9	706.26
911.073	678.94
911.246	762.64
911.419	724.28
911.592	742.68
911.765	699.09
911.938	655.5
912.11	701.22
912.283	688.24
912.456	743.84
912.629	728.54
912.802	664.21
912.974	640.77
913.147	587.1
913.32	557.65
913.493	575.28
913.665	603.76
913.838	616.16
914.01	601.63
914.183	600.08
914.356	611.71
914.528	658.21
914.701	705.09
914.873	674.68
915.046	595.82
915.218	569.47
915.391	522.58
915.563	551.84
915.736	603.57
915.908	587.1
916.081	638.25
916.253	585.17
916.425	631.47
916.598	629.73
916.77	608.03
916.942	553
917.115	537.5
917.287	597.56
917.459	575.09
917.632	511.93
917.804	487.13
917.976	565.21
918.148	586.13
918.32	543.7
918.493	635.15
918.665	637.28
918.837	613.45
919.009	652.2
919.181	645.81
919.353	616.36
919.525	603.76
919.697	617.91
919.869	605.7
920.041	676.03
920.213	723.31
920.385	682.43
920.557	629.34
920.729	637.67
920.901	625.85
921.073	615
921.244	601.44
921.416	628.56
921.588	608.8
921.76	590.4
921.932	665.96
922.103	634.76
922.275	630.31
922.447	654.91
922.619	539.05
922.79	590.98
922.962	584
923.134	623.72
923.305	527.43
923.477	530.14
923.648	524.13
923.82	585.75
923.991	522.78
924.163	506.5
924.335	554.36
924.506	513.87
924.677	591.36
924.849	514.64
925.02	523.36
925.192	575.48
925.363	549.13
925.535	558.62
925.706	484.61
925.877	585.55
926.049	499.14
926.22	524.91
926.391	532.08
926.562	566.76
926.734	528.98
926.905	588.46
927.076	470.47
927.247	473.18
927.419	461.17
927.59	487.71
927.761	461.94
927.932	426.1
928.103	476.67
928.274	406.53
928.445	379.79
928.616	438.5
928.787	401.69
928.958	456.13
929.129	430.94
929.3	405.37
929.471	342.4
929.642	314.31
929.813	261.41
929.984	353.44
930.155	246.88
930.326	311.01
930.496	297.84
930.667	223.05
930.838	296.29
931.009	248.82
931.18	274.2
931.35	260.64
931.521	247.27
931.692	194.38
931.863	141.29
932.033	188.37
932.204	197.09
932.374	173.45
932.545	155.63
932.716	230.22
932.886	204.84
933.057	117.27
933.227	122.3
933.398	218.6
933.568	113.78
933.739	76.97
933.909	98.86
934.08	160.47
934.25	41.32
934.421	69.6
934.591	119.4
934.761	114.55
934.932	72.51
935.102	90.72
935.272	94.98
935.443	91.11
935.613	100.02
935.783	117.07
935.953	61.27
936.123	233.32
936.294	66.12
936.464	108.35
936.634	93.05
936.804	58.95
936.974	39.77
937.144	108.35
937.314	109.32
937.484	72.9
937.655	67.47
937.825	123.47
937.995	54.3
938.165	149.43
938.334	107.77
938.504	96.92
938.674	90.53
938.844	149.23
939.014	185.46
939.184	162.8
939.354	228.67
939.524	198.83
939.694	170.93
939.863	172.87
940.033	231.19
940.203	233.13
940.373	162.02
940.542	195.93
940.712	140.32
940.882	214.14
941.051	192.63
941.221	204.45
941.391	178.1
941.56	165.7
941.73	155.05
941.899	278.85
942.069	145.17
942.238	194.96
942.408	137.61
942.577	183.33
942.747	154.08
942.916	92.47
943.086	123.66
943.255	195.54
943.425	150.01
943.594	100.8
943.763	53.72
943.933	100.22
944.102	57.79
944.271	98.86
944.441	135.48
944.61	101.38
944.779	143.62
944.948	219.18
945.117	105.83
945.287	132.38
945.456	51
945.625	78.71
945.794	140.71
945.963	98.86
946.132	124.63
946.301	92.08
946.47	165.31
946.639	65.34
946.808	74.45
946.977	142.65
947.146	145.17
947.315	104.67
947.484	105.83
947.653	94.4
947.822	91.5
947.991	93.24
948.16	193.41
948.329	138.19
948.498	128.5
948.666	105.45
948.835	151.37
949.004	91.11
949.173	82.2
949.341	123.27
949.51	161.83
949.679	168.03
949.847	149.04
950.016	189.34
950.185	204.45
950.353	87.62
950.522	139.35
950.69	169.96
950.859	106.61
951.028	173.65
951.196	104.67
951.365	80.65
951.533	123.27
951.701	148.65
951.87	142.45
952.038	83.17
952.207	115.91
952.375	195.73
952.543	78.71
952.712	108.74
952.88	110.1
953.048	166.09
953.217	144
953.385	130.05
953.553	134.32
953.721	76
953.89	106.22
954.058	73.09
954.226	78.32
954.394	101.57
954.562	73.28
954.73	115.33
954.898	119.2
955.067	144.97
955.235	122.11
955.403	152.91
955.571	206
955.739	149.04
955.907	90.53
956.075	116.1
956.243	88.2
956.41	105.25
956.578	58.95
956.746	92.85
956.914	104.28
957.082	139.35
957.25	133.35
957.418	124.24
957.585	137.42
957.753	180.62
957.921	72.51
958.089	97.31
958.256	148.27
958.424	128.89
958.592	130.05
958.759	92.66
958.927	132.77
959.095	93.05
959.262	99.83
959.43	127.73
959.597	112.42
959.765	118.62
959.932	89.95
960.1	148.07
960.267	138.19
960.435	134.9
960.602	157.18
960.77	87.82
960.937	63.79
961.104	145.17
961.272	79.1
961.439	87.23
961.606	140.52
961.774	135.48
961.941	107.58
962.108	142.45
962.275	128.12
962.443	180.04
962.61	174.42
962.777	200.58
962.944	156.01
963.111	113.58
963.278	158.53
963.446	124.63
963.613	128.12
963.78	172.1
963.947	152.14
964.114	163.57
964.281	228.86
964.448	142.26
964.615	119.98
964.782	130.63
964.949	185.08
965.116	164.54
965.282	187.21
965.449	124.24
965.616	86.65
965.783	153.5
965.95	133.73
966.117	72.9
966.283	111.84
966.45	127.53
966.617	140.71
966.784	187.98
966.95	187.01
967.117	164.35
967.284	121.92
967.45	118.62
967.617	213.56
967.784	171.9
967.95	217.63
968.117	152.53
968.283	207.94
968.45	230.8
968.616	177.33
968.783	179.07
968.949	167.06
969.116	194.18
969.282	146.52
969.449	142.26
969.615	168.41
969.781	136.64
969.948	150.59
970.114	99.25
970.28	215.5
970.447	145.55
970.613	195.54
970.779	139.55
970.945	161.05
971.112	141.68
971.278	149.23
971.444	153.88
971.61	198.64
971.776	124.24
971.942	177.91
972.108	154.66
972.275	115.52
972.441	182.36
972.607	209.88
972.773	139.74
972.939	162.02
973.105	159.7
973.271	104.87
973.437	115.72
973.602	103.7
973.768	141.68
973.934	100.99
974.1	136.83
974.266	81.62
974.432	176.75
974.598	114.75
974.763	162.02
974.929	135.28
975.095	208.33
975.261	98.86
975.426	94.02
975.592	109.32
975.758	221.89
975.923	51
976.089	68.44
976.255	154.85
976.42	142.84
976.586	146.72
976.751	152.53
976.917	214.72
977.082	162.99
977.248	99.05
977.413	77.55
977.579	112.03
977.744	114.55
977.91	77.93
978.075	111.84
978.24	138.38
978.406	134.7
978.571	96.53
978.736	106.03
978.902	149.23
979.067	96.34
979.232	78.9
979.397	130.05
979.563	181.01
979.728	92.47
979.893	102.35
980.058	88.01
980.223	145.75
980.388	112.03
980.554	119.2
980.719	106.22
980.884	144.2
981.049	161.63
981.214	101.77
981.379	131.8
981.544	70.57
981.709	122.3
981.874	102.54
982.039	115.33
982.204	148.27
982.368	92.47
982.533	111.45
982.698	159.89
982.863	172.1
983.028	121.53
983.193	130.05
983.357	156.6
983.522	108.74
983.687	101.96
983.852	120.75
984.016	120.17
984.181	112.62
984.346	146.13
984.51	121.33
984.675	126.95
984.839	131.22
985.004	125.6
985.168	167.45
985.333	101.18
985.498	110.29
985.662	173.84
985.827	131.8
985.991	122.88
986.155	109.71
986.32	157.37
986.484	192.44
986.649	122.88
986.813	85.3
986.977	100.02
987.142	138
987.306	74.64
987.47	77.35
987.634	152.14
987.799	126.57
987.963	98.28
988.127	157.37
988.291	192.63
988.455	99.83
988.62	111.65
988.784	128.89
988.948	161.44
989.112	98.67
989.276	137.03
989.44	111.26
989.604	95.18
989.768	91.3
989.932	189.15
990.096	69.99
990.26	69.41
990.424	41.51
990.588	99.44
990.752	193.8
990.915	138.97
991.079	80.84
991.243	90.14
991.407	130.25
991.571	127.92
991.734	120.37
991.898	99.44
992.062	175.2
992.226	99.63
992.389	76.58
992.553	22.14
992.717	71.54
992.88	97.7
993.044	96.34
993.207	82.58
993.371	132.18
993.535	138.77
993.698	89.17
993.862	116.88
994.025	132.57
994.189	92.27
994.352	76
994.515	91.3
994.679	127.53
994.842	97.5
995.006	126.18
995.169	50.62
995.332	67.08
995.496	123.85
995.659	69.8
995.822	84.72
995.985	96.92
996.149	168.61
996.312	95.18
996.475	152.91
996.638	79.29
996.801	149.43
996.964	150.78
997.128	68.44
997.291	93.82
997.454	99.05
997.617	45.39
997.78	138
997.943	45.19
998.106	127.73
998.269	54.3
998.432	82
998.595	93.82
998.758	32.79
998.92	55.27
999.083	52.75
999.246	91.69
999.409	36.28
999.572	11.09
999.735	52.75
999.897	109.71
1000.06	54.49
1000.223	78.13
1000.386	111.65
1000.548	81.62
1000.711	92.66
1000.874	96.34
1001.036	34.73
1001.199	117.27
1001.361	78.32
1001.524	82.2
1001.687	130.05
1001.849	57.79
1002.012	66.31
1002.174	107.19
1002.337	90.92
1002.499	87.23
1002.661	147.3
1002.824	37.25
1002.986	57.01
1003.149	75.42
1003.311	42.09
1003.473	130.83
1003.636	30.27
1003.798	116.88
1003.96	94.6
1004.123	62.44
1004.285	66.12
1004.447	38.99
1004.609	84.13
1004.771	133.93
1004.933	28.92
1005.096	42.48
1005.258	20.97
1005.42	61.27
1005.582	113.97
1005.744	65.53
1005.906	20
1006.068	64.37
1006.23	18.84
1006.392	21.55
1006.554	65.92
1006.716	120.37
1006.878	96.34
1007.04	8.38
1007.202	63.02
1007.363	57.01
1007.525	63.79
1007.687	81.81
1007.849	111.65
1008.011	1.79
1008.172	24.46
1008.334	25.24
1008.496	93.82
1008.658	11.87
1008.819	33.95
1008.981	-3.63
1009.143	25.43
1009.304	42.29
1009.466	63.4
1009.627	125.21
1009.789	164.93
1009.95	77.16
1010.112	42.67
1010.273	79.48
1010.435	26.4
1010.596	69.22
1010.758	45.39
1010.919	26.2
1011.081	4.31
1011.242	37.83
1011.403	72.12
1011.565	24.46
1011.726	67.47
1011.887	21.75
1012.049	26.2
1012.21	88.2
1012.371	127.34
1012.532	-28.82
1012.693	60.5
1012.855	12.64
1013.016	55.85
1013.177	80.45
1013.338	61.47
1013.499	125.02
1013.66	73.67
1013.821	69.99
1013.982	45.39
1014.143	56.04
1014.304	1.99
1014.465	54.88
1014.626	80.45
1014.787	42.48
1014.948	141.29
1015.109	-27.08
1015.27	85.49
1015.431	51.59
1015.592	33.57
1015.752	101.77
1015.913	37.44
1016.074	80.65
1016.235	82.39
1016.395	22.14
1016.556	21.17
1016.717	49.45
1016.877	81.81
1017.038	-1.31
1017.199	41.7
1017.359	20.2
1017.52	50.62
1017.681	20
1017.841	17.29
1018.002	16.13
1018.162	22.91
1018.323	99.83
1018.483	25.62
1018.644	37.83
1018.804	0.44
1018.964	2.95
1019.125	22.33
1019.285	70.18
1019.446	25.04
1019.606	18.45
1019.766	-15.45
1019.926	34.34
1020.087	42.87
1020.247	-6.15
1020.407	62.44
1020.567	70.96
1020.728	43.45
1020.888	-12.74
1021.048	28.34
1021.208	-11.96
1021.368	18.07
1021.528	81.42
1021.688	68.44
1021.848	54.3
1022.008	53.72
1022.168	21.55
1022.328	48.68
1022.488	55.27
1022.648	22.52
1022.808	41.9
1022.968	32.21
1023.128	-3.44
1023.288	38.8
1023.448	13.22
1023.608	53.91
1023.767	64.37
1023.927	-14.1
1024.087	-2.08
1024.247	-23.59
1024.406	21.75
1024.566	-23.59
1024.726	3.15
1024.885	20.78
1025.045	53.52
1025.205	26.59
1025.364	13.8
1025.524	45.58
1025.683	24.07
1025.843	37.44
1026.003	10.9
1026.162	69.6
1026.321	59.92
1026.481	28.53
1026.64	25.24
1026.8	29.11
1026.959	9.35
1027.119	10.12
1027.278	29.89
1027.437	18.45
1027.597	47.52
1027.756	29.11
1027.915	53.72
1028.074	62.63
1028.234	6.25
1028.393	46.35
1028.552	26.4
1028.711	-81.52
1028.87	57.4
1029.03	-23.39
1029.189	27.37
1029.348	-56.91
1029.507	3.34
1029.666	-7.51
1029.825	-25.91
1029.984	-21.07
1030.143	38.6
1030.302	1.79
1030.461	-40.44
1030.62	34.54
1030.779	65.54
1030.938	4.89
1031.097	-21.84
1031.255	61.66
1031.414	71.35
1031.573	47.71
1031.732	0.44
1031.891	8.96
1032.049	64.18
1032.208	49.45
1032.367	10.7
1032.525	20
1032.684	-8.48
1032.843	13.22
1033.001	-43.74
1033.16	174.42
1033.319	55.85
1033.477	42.67
1033.636	-24.75
1033.794	-35.79
1033.953	65.92
1034.111	39.38
1034.27	2.57
1034.428	60.5
1034.587	-19.91
1034.745	33.37
1034.903	13.03
1035.062	47.52
1035.22	0.82
1035.378	14
1035.537	-10.61
1035.695	39.77
1035.853	6.05
1036.011	26.01
1036.17	16.52
1036.328	-50.91
1036.486	8.77
1036.644	20.97
1036.802	-65.83
1036.96	-24.75
1037.119	-12.35
1037.277	-13.71
1037.435	-41.03
1037.593	-21.84
1037.751	17.87
1037.909	69.41
1038.067	69.41
