Data from gum_old_FLMT105791__87__15-44-15-256.txt Node

Date: Mon Mar 20 15:44:15 GMT 2023
User: antho
Spectrometer: FLMT10579
Trigger mode: 0
Integration Time (sec): 1.000000E-1
Scans to average: 10
Electric dark correction enabled: true
Nonlinearity correction enabled: false
Boxcar width: 0
XAxis mode: Wavelengths
Number of Pixels in Spectrum: 3648
>>>>>Begin Spectral Data<<<<<
345.248	-160.15
345.464	-160.15
345.681	-160.15
345.898	-173.52
346.114	-199.09
346.331	-38.09
346.548	30.5
346.764	-37.89
346.981	-7.86
347.197	10.16
347.414	19.26
347.631	-20.84
347.847	64.4
348.064	4.54
348.28	5.31
348.497	-16.78
348.713	-12.71
348.93	5.31
349.146	37.67
349.363	25.66
349.579	39.61
349.796	7.44
350.012	4.54
350.229	59.95
350.445	17.71
350.661	-19.1
350.878	36.7
351.094	29.53
351.311	45.61
351.527	53.17
351.743	8.99
351.96	43.29
352.176	49.1
352.392	27.79
352.609	39.22
352.825	3.18
353.041	28.95
353.257	-0.89
353.474	11.51
353.69	19.46
353.906	35.15
354.122	2.79
354.339	115.75
354.555	21.78
354.771	15.77
354.987	77.39
355.203	54.91
355.42	12.09
355.636	7.83
355.852	-12.9
356.068	30.31
356.284	-13.29
356.5	84.55
356.716	38.44
356.932	13.84
357.148	64.6
357.364	29.34
357.58	95.6
357.796	70.99
358.012	84.75
358.228	43.29
358.444	-34.21
358.66	80.29
358.876	41.74
359.092	-4.38
359.308	26.24
359.524	75.45
359.74	14.03
359.956	31.27
360.172	27.79
360.388	78.94
360.604	29.53
360.819	134.54
361.035	17.32
361.251	35.15
361.467	35.34
361.683	70.22
361.898	82.42
362.114	82.04
362.33	41.93
362.546	86.3
362.762	63.24
362.977	50.46
363.193	30.5
363.409	70.02
363.624	3.18
363.84	10.93
364.056	22.75
364.271	60.53
364.487	40.19
364.703	55.88
364.918	13.26
365.134	25.07
365.35	42.51
365.565	150.62
365.781	56.27
365.996	73.9
366.212	115.55
366.427	64.6
366.643	37.28
366.858	44.06
367.074	42.71
367.289	127.95
367.505	156.43
367.72	8.22
367.936	61.69
368.151	71.57
368.367	98.5
368.582	49.49
368.798	45.42
369.013	104.32
369.228	61.11
369.444	89.4
369.659	102.77
369.874	99.28
370.09	111.49
370.305	11.12
370.52	19.65
370.736	104.7
370.951	78.16
371.166	119.24
371.381	156.05
371.597	112.65
371.812	36.7
372.027	48.52
372.242	46.97
372.458	138.8
372.673	52
372.888	70.22
373.103	99.28
373.318	160.7
373.533	78.55
373.749	81.84
373.964	-2.24
374.179	95.21
374.394	46.19
374.609	92.89
374.824	57.82
375.039	110.71
375.254	22.75
375.469	112.65
375.684	61.3
375.899	115.94
376.114	55.69
376.329	91.14
376.544	124.08
376.759	104.12
376.974	32.05
377.189	67.31
377.404	82.23
377.619	79.9
377.834	36.51
378.049	21.97
378.264	62.27
378.478	72.54
378.693	77.77
378.908	100.83
379.123	50.84
379.338	151.01
379.553	116.52
379.767	84.36
379.982	101.99
380.197	95.6
380.412	77.39
380.626	125.82
380.841	183.75
381.056	99.67
381.271	172.52
381.485	89.98
381.7	66.15
381.915	104.9
382.129	74.67
382.344	70.41
382.559	79.32
382.773	133.96
382.988	20.04
383.202	82.23
383.417	45.42
383.632	161.47
383.846	70.22
384.061	88.82
384.275	32.44
384.49	78.16
384.704	105.29
384.919	98.12
385.133	110.9
385.348	126.6
385.562	51.42
385.777	147.52
385.991	70.8
386.206	93.85
386.42	87.07
386.634	124.27
386.849	95.21
387.063	132.6
387.277	90.37
387.492	76.03
387.706	64.02
387.92	66.54
388.135	131.64
388.349	109.74
388.563	118.65
388.778	114.39
388.992	110.9
389.206	136.29
389.42	164.57
389.635	108.77
389.849	168.45
390.063	174.07
390.277	132.8
390.491	193.63
390.706	155.85
390.92	172.32
391.134	127.57
391.348	163.22
391.562	111.87
391.776	146.75
391.99	115.75
392.205	164.18
392.419	98.89
392.633	111.49
392.847	166.12
393.061	93.47
393.275	165.73
393.489	85.52
393.703	107.8
393.917	134.35
394.131	81.65
394.345	123.5
394.559	144.62
394.773	120.79
394.986	145.78
395.2	139.58
395.414	195.77
395.628	101.22
395.842	168.83
396.056	161.67
396.27	91.53
396.484	175.42
396.697	160.7
396.911	170.19
397.125	128.54
397.339	125.63
397.553	132.99
397.766	197.7
397.98	177.17
398.194	196.93
398.408	147.72
398.621	202.74
398.835	206.62
399.049	174.65
399.262	256.8
399.476	237.23
399.69	248.27
399.903	280.63
400.117	210.68
400.331	227.93
400.544	228.9
400.758	325.96
400.971	274.04
401.185	253.5
401.398	193.25
401.612	279.46
401.826	305.81
402.039	279.66
402.253	247.3
402.466	273.07
402.68	272.1
402.893	320.54
403.106	268.23
403.32	260.48
403.533	272.1
403.747	283.92
403.96	278.88
404.174	287.6
404.387	233.35
404.6	287.41
404.814	314.53
405.027	285.86
405.24	295.16
405.454	244.78
405.667	313.18
405.88	224.25
406.094	288.57
406.307	320.93
406.52	294.19
406.733	236.45
406.947	257.76
407.16	348.63
407.373	330.42
407.586	254.28
407.799	261.83
408.012	302.71
408.226	319.38
408.439	312.98
408.652	267.65
408.865	305.04
409.078	357.16
409.291	325.58
409.504	290.12
409.717	349.41
409.93	341.46
410.143	323.25
410.357	250.6
410.57	256.99
410.783	279.85
410.996	305.43
411.209	291.67
411.421	338.17
411.634	343.4
411.847	294.77
412.06	344.76
412.273	362.78
412.486	344.56
412.699	437.76
412.912	364.71
413.125	359.68
413.338	325.77
413.55	353.86
413.763	361.61
413.976	337.01
414.189	310.27
414.402	330.61
414.615	420.12
414.827	347.08
415.04	415.47
415.253	363.16
415.466	377.11
415.678	429.23
415.891	346.31
416.104	357.93
416.316	384.86
416.529	359.68
416.742	417.41
416.954	375.18
417.167	375.37
417.38	356.96
417.592	397.65
417.805	324.8
418.017	320.15
418.23	398.43
418.442	356.96
418.655	365.49
418.868	371.88
419.08	403.46
419.293	428.84
419.505	367.04
419.718	412.76
419.93	425.94
420.142	352.12
420.355	429.62
420.567	416.06
420.78	392.03
420.992	391.64
421.205	431.17
421.417	373.04
421.629	398.81
421.842	373.82
422.054	358.51
422.266	450.35
422.479	446.67
422.691	376.73
422.903	425.94
423.115	359.29
423.328	358.9
423.54	357.93
423.752	388.74
423.964	349.41
424.177	419.54
424.389	402.3
424.601	518.74
424.813	429.62
425.025	439.69
425.238	438.53
425.45	386.03
425.662	382.15
425.874	736.32
426.086	419.74
426.298	421.48
426.51	431.75
426.722	401.72
426.934	424.77
427.146	442.21
427.358	391.45
427.57	450.74
427.782	409.47
427.994	392.61
428.206	407.53
428.418	375.18
428.63	446.28
428.842	484.06
429.054	432.52
429.266	468.56
429.478	365.88
429.69	429.23
429.902	382.93
430.114	413.34
430.325	383.51
430.537	357.16
430.749	338.75
430.961	289.35
431.173	349.21
431.384	355.99
431.596	284.31
431.808	368.59
432.02	393.58
432.231	475.15
432.443	518.35
432.655	480.96
432.867	435.82
433.078	468.37
433.29	521.84
433.502	507.5
433.713	532.5
433.925	508.28
434.136	520.87
434.348	417.61
434.56	393
434.771	582.68
434.983	405.79
435.194	423.03
435.406	499.75
435.617	527.85
435.829	564.08
436.04	550.13
436.252	541.41
436.463	599.53
436.675	596.43
436.886	563.3
437.098	587.72
437.309	616.39
437.521	510.99
437.732	558.07
437.943	545.87
438.155	521.26
438.366	515.25
438.578	602.25
438.789	526.1
439	526.88
439.211	513.32
439.423	525.33
439.634	533.47
439.845	588.1
440.057	560.4
440.268	620.85
440.479	538.31
440.69	609.22
440.902	554.59
441.113	553.23
441.324	527.27
441.535	583.07
441.746	629.18
441.957	572.22
442.168	598.37
442.38	614.07
442.591	631.31
442.802	580.74
443.013	587.72
443.224	634.22
443.435	622.98
443.646	604.18
443.857	601.67
444.068	623.95
444.279	605.35
444.49	691.37
444.701	600.12
444.912	744.65
445.123	690.01
445.334	669.67
445.545	650.68
445.756	624.92
445.967	632.28
446.178	611.74
446.388	676.65
446.599	654.17
446.81	638.87
447.021	614.26
447.232	671.03
447.443	701.25
447.653	632.86
447.864	694.66
448.075	678.58
448.286	719.85
448.496	653.01
448.707	724.89
448.918	641.38
449.129	758.6
449.339	657.47
449.55	712.49
449.761	632.28
449.971	726.83
450.182	688.08
450.393	712.68
450.603	668.31
450.814	755.89
451.024	746.98
451.235	777.2
451.446	792.89
451.656	788.63
451.867	706.29
452.077	723.53
452.288	801.03
452.498	755.69
452.709	735.74
452.919	732.64
453.13	670.25
453.34	747.36
453.55	660.18
453.761	693.89
453.971	725.08
454.182	720.24
454.392	698.73
454.602	825.83
454.813	747.17
455.023	774.49
455.233	709.58
455.444	741.75
455.654	669.48
455.864	710.75
456.075	710.16
456.285	733.8
456.495	695.63
456.705	758.79
456.916	771.97
457.126	827.19
457.336	778.75
457.546	698.93
457.756	717.53
457.967	780.49
458.177	734.77
458.387	762.28
458.597	695.83
458.807	742.13
459.017	725.28
459.227	716.95
459.437	701.25
459.647	761.31
459.857	804.52
460.068	748.72
460.278	823.89
460.488	797.93
460.698	814.79
460.908	771.19
461.117	728.18
461.327	755.89
461.537	799.68
461.747	800.06
461.957	787.28
462.167	916.31
462.377	855.28
462.587	797.74
462.797	842.3
463.007	810.53
463.216	832.61
463.426	853.73
463.636	842.3
463.846	758.21
464.056	782.63
464.265	820.79
464.475	775.46
464.685	833.78
464.895	835.71
465.104	809.56
465.314	859.35
465.524	802.58
465.733	778.94
465.943	897.13
466.153	897.32
466.362	853.15
466.572	844.04
466.782	833.58
466.991	829.9
467.201	883.18
467.41	774.29
467.62	846.17
467.829	846.76
468.039	845.4
468.249	842.88
468.458	866.52
468.668	865.55
468.877	877.95
469.086	911.27
469.296	940.53
469.505	892.29
469.715	957.97
469.924	908.37
470.134	965.91
470.343	944.79
470.552	896.16
470.762	900.42
470.971	855.09
471.18	918.06
471.39	874.85
471.599	859.16
471.808	923.09
472.018	885.89
472.227	974.63
472.436	1002.14
472.645	951.19
472.855	930.26
473.064	1045.93
473.273	994.78
473.482	1009.7
473.691	1044.18
473.901	1004.66
474.11	990.13
474.319	1068.21
474.528	1003.69
474.737	1113.74
474.946	1026.55
475.155	1068.21
475.364	1097.08
475.573	1011.25
475.783	1077.9
475.992	1079.64
476.201	1088.36
476.41	1082.35
476.619	1010.09
476.828	1072.67
477.037	1046.32
477.245	1064.72
477.454	1106.96
477.663	1083.9
477.872	1148.81
478.081	1198.6
478.29	1086.42
478.499	1233.67
478.708	1174.38
478.917	1260.99
479.125	1145.32
479.334	1183.49
479.543	1150.75
479.752	1202.28
479.961	1197.05
480.169	1261.57
480.378	1223.01
480.587	1335.77
480.796	1234.64
481.004	1242.97
481.213	1249.94
481.422	1246.84
481.63	1274.16
481.839	1280.36
482.048	1321.24
482.256	1272.61
482.465	1321.05
482.674	1322.41
482.882	1321.63
483.091	1419.47
483.299	1358.44
483.508	1359.99
483.716	1336.94
483.925	1334.03
484.134	1287.14
484.342	1310.97
484.551	1383.44
484.759	1369.49
484.967	1373.94
485.176	1388.47
485.384	1408.04
485.593	1426.64
485.801	1378.59
486.01	1319.69
486.218	1270.48
486.426	1164.7
486.635	1179.61
486.843	1172.64
487.051	1197.44
487.26	1233.86
487.468	1292.57
487.676	1300.12
487.885	1320.66
488.093	1323.76
488.301	1400.49
488.509	1396.61
488.717	1451.63
488.926	1415.6
489.134	1397.19
489.342	1411.14
489.55	1343.33
489.758	1416.37
489.967	1404.55
490.175	1538.43
490.383	1456.09
490.591	1566.33
490.799	1490.38
491.007	1589.2
491.215	1516.54
491.423	1479.73
491.631	1516.15
491.839	1486.9
492.047	1536.69
492.255	1420.64
492.463	1436.52
492.671	1467.33
492.879	1496.58
493.087	1478.37
493.295	1502.01
493.503	1525.26
493.711	1606.83
493.919	1603.73
494.127	1614.96
494.334	1590.94
494.542	1521
494.75	1573.5
494.958	1561.1
495.166	1641.7
495.374	1632.98
495.581	1657.59
495.789	1604.89
495.997	1693.24
496.205	1589.78
496.412	1576.6
496.62	1669.79
496.828	1596.75
497.035	1625.62
497.243	1639.96
497.451	1655.84
497.658	1621.75
497.866	1647.51
498.074	1716.29
498.281	1625.43
498.489	1740.9
498.696	1621.55
498.904	1627.56
499.112	1578.54
499.319	1720.56
499.527	1660.88
499.734	1701.76
499.942	1581.64
500.149	1654.68
500.357	1681.81
500.564	1639.76
500.771	1640.34
500.979	1595.4
501.186	1604.11
501.394	1635.31
501.601	1602.56
501.808	1643.44
502.016	1600.24
502.223	1569.82
502.43	1621.94
502.638	1601.21
502.845	1602.95
503.052	1696.14
503.26	1641.7
503.467	1735.47
503.674	1684.13
503.881	1692.08
504.089	1753.88
504.296	1702.34
504.503	1623.88
504.71	1677.16
504.917	1618.06
505.125	1672.89
505.332	1651.58
505.539	1699.24
505.746	1805.03
505.953	1760.47
506.16	1757.56
506.367	1780.04
506.574	1842.81
506.781	1797.47
506.988	1771.9
507.195	1759.89
507.402	1761.05
507.609	1787.01
507.816	1743.22
508.023	1749.62
508.23	1693.82
508.437	1665.14
508.644	1750.59
508.851	1760.47
509.058	1786.82
509.265	1736.83
509.472	1778.1
509.679	1864.12
509.885	1794.96
510.092	1820.72
510.299	1793.02
510.506	1783.33
510.713	1801.74
510.92	1775.39
511.126	1802.9
511.333	1854.24
511.54	1862.77
511.746	1879.04
511.953	1899.19
512.16	1925.54
512.367	1886.02
512.573	1830.41
512.78	1835.45
512.987	1842.42
513.193	1821.89
513.4	1785.27
513.606	1799.22
513.813	1845.14
514.02	1833.12
514.226	1863.35
514.433	1832.54
514.639	1786.04
514.846	1808.71
515.052	1777.13
515.259	1808.52
515.465	1800.57
515.672	1840.49
515.878	1938.52
516.085	1866.06
516.291	1920.31
516.497	1841.07
516.704	1832.54
516.91	1735.28
517.117	1677.35
517.323	1607.6
517.529	1652.16
517.736	1641.89
517.942	1654.88
518.148	1664.95
518.354	1755.04
518.561	1744
518.767	1756.4
518.973	1779.26
519.179	1779.26
519.386	1758.92
519.592	1755.43
519.798	1751.94
520.004	1911.98
520.21	1856.76
520.417	1900.55
520.623	1910.82
520.829	1928.64
521.035	1926.51
521.241	1926.9
521.447	1954.02
521.653	2071.43
521.859	1925.73
522.065	1987.35
522.271	2082.67
522.477	2028.61
522.683	2046.05
522.889	2037.53
523.095	2024.35
523.301	1990.64
523.507	1987.73
523.713	1987.54
523.919	1921.47
524.125	2028.03
524.331	2011.37
524.537	2158.81
524.742	2122.58
524.948	2139.24
525.154	2148.35
525.36	2207.83
525.566	2134.79
525.772	2180.32
525.977	2085.38
526.183	2141.38
526.389	2187.49
526.595	2080.54
526.8	2080.93
527.006	2007.88
527.212	1933.87
527.417	1938.13
527.623	1921.28
527.829	2043.34
528.034	2043.92
528.24	2050.31
528.446	2083.83
528.651	2184.39
528.857	2169.86
529.062	2217.13
529.268	2210.74
529.473	2234.76
529.679	2211.12
529.884	2320.79
530.09	2256.65
530.295	2282.23
530.501	2243.67
530.706	2234.76
530.912	2238.44
531.117	2251.23
531.323	2285.52
531.528	2331.05
531.733	2365.93
531.939	2328.73
532.144	2345.78
532.35	2304.32
532.555	2359.92
532.76	2297.92
532.966	2291.14
533.171	2281.45
533.376	2207.06
533.581	2212.29
533.787	2235.54
533.992	2281.84
534.197	2329.89
534.402	2285.91
534.607	2309.74
534.813	2421.34
535.018	2289.4
535.223	2326.02
535.428	2349.85
535.633	2390.34
535.838	2397.9
536.043	2405.65
536.249	2496.71
536.454	2391.5
536.659	2466.48
536.864	2412.23
537.069	2381.82
537.274	2330.28
537.479	2370.77
537.684	2382.98
537.889	2328.73
538.094	2475.98
538.299	2378.72
538.504	2398.28
538.708	2413.2
538.913	2465.71
539.118	2430.06
539.323	2417.27
539.528	2366.12
539.733	2383.56
539.938	2390.34
540.142	2393.05
540.347	2367.48
540.552	2345.97
540.757	2382.2
540.962	2331.44
541.166	2283.59
541.371	2267.7
541.576	2335.51
541.781	2230.69
541.985	2378.91
542.19	2359.53
542.395	2447.11
542.599	2477.14
542.804	2470.75
543.008	2460.09
543.213	2395.57
543.418	2368.25
543.622	2468.03
543.827	2351.2
544.031	2476.95
544.236	2456.8
544.44	2469.39
544.645	2555.41
544.849	2434.9
545.054	2487.99
545.258	2538.17
545.463	2483.53
545.667	2417.66
545.872	2474.43
546.076	2500.39
546.281	2479.85
546.485	2413.78
546.689	2490.12
546.894	2501.94
547.098	2467.45
547.302	2431.61
547.507	2462.03
547.711	2479.08
547.915	2549.99
548.119	2456.21
548.324	2446.53
548.528	2504.26
548.732	2472.68
548.936	2510.27
549.141	2540.3
549.345	2473.65
549.549	2512.21
549.753	2517.44
549.957	2550.38
550.161	2564.33
550.366	2500.78
550.57	2452.73
550.774	2498.45
550.978	2470.94
551.182	2530.61
551.386	2445.95
551.59	2486.05
551.794	2449.82
551.998	2505.23
552.202	2461.45
552.406	2425.21
552.61	2549.02
552.814	2506.78
553.018	2541.27
553.222	2493.03
553.426	2495.35
553.63	2562.58
553.833	2506.2
554.037	2391.7
554.241	2488.96
554.445	2463.38
554.649	2472.49
554.853	2463
555.056	2536.62
555.26	2525.77
555.464	2502.91
555.668	2542.82
555.871	2564.71
556.075	2524.99
556.279	2506.2
556.483	2433.93
556.686	2471.71
556.89	2479.08
557.094	2472.3
557.297	2398.67
557.501	2472.88
557.704	2352.37
557.908	2476.75
558.112	2416.11
558.315	2504.84
558.519	2453.5
558.722	2375.42
558.926	2410.1
559.129	2337.64
559.333	2344.03
559.536	2357.98
559.74	2325.24
559.943	2277
560.147	2295.21
560.35	2319.43
560.553	2335.51
560.757	2293.85
560.96	2349.27
561.164	2333.77
561.367	2430.06
561.57	2323.11
561.774	2347.72
561.977	2350.62
562.18	2357.4
562.384	2402.35
562.587	2280.29
562.79	2360.12
562.993	2312.65
563.197	2339.77
563.4	2391.89
563.603	2391.31
563.806	2448.66
564.009	2289.2
564.212	2378.13
564.416	2248.71
564.619	2323.5
564.822	2290.95
565.025	2356.82
565.228	2262.08
565.431	2299.86
565.634	2182.64
565.837	2252.78
566.04	2231.86
566.243	2213.45
566.446	2127.43
566.649	2253.94
566.852	2177.02
567.055	2218.29
567.258	2224.69
567.461	2300.05
567.664	2293.85
567.867	2134.79
568.07	2235.15
568.273	2233.99
568.475	2245.61
568.678	2213.06
568.881	2199.11
569.084	2185.74
569.287	2073.95
569.489	2118.9
569.692	2192.72
569.895	2181.67
570.098	2086.93
570.3	2090.61
570.503	2049.35
570.706	2062.13
570.909	2062.13
571.111	2001.88
571.314	2010.79
571.516	2047.02
571.719	2052.06
571.922	2026.87
572.124	2030.16
572.327	2077.05
572.529	2004.01
572.732	2019.9
572.935	2079.76
573.137	2154.16
573.34	2057.29
573.542	2117.16
573.745	2084.8
573.947	2095.65
574.15	2066.98
574.352	2009.24
574.554	2132.27
574.757	2057.1
574.959	1978.82
575.162	2013.89
575.364	1998.58
575.566	2095.84
575.769	1988.9
575.971	2011.95
576.173	1884.27
576.376	1964.48
576.578	2046.63
576.78	2057.48
576.982	1923.6
577.185	1984.25
577.387	1892.6
577.589	1935.42
577.791	1972.23
577.993	1977.66
578.196	1948.4
578.398	1976.3
578.6	2000.13
578.802	1896.09
579.004	1900.55
579.206	1878.07
579.408	1940.07
579.61	1887.37
579.812	1954.22
580.014	1914.69
580.216	1909.07
580.418	1899
580.62	1925.93
580.822	1887.57
581.024	1931.16
581.226	1897.25
581.428	1892.02
581.63	1970.88
581.832	1890.86
582.034	1942.01
582.236	1912.37
582.438	1961.38
582.64	1951.31
582.841	1984.63
583.043	2034.43
583.245	1954.22
583.447	1955.57
583.649	1928.25
583.85	1930.38
584.052	1976.69
584.254	1880.79
584.456	1966.03
584.657	1846.49
584.859	1948.21
585.061	1916.24
585.262	1889.7
585.464	1824.02
585.666	1942.59
585.867	1836.61
586.069	1922.63
586.27	1882.72
586.472	1876.33
586.674	1856.18
586.875	1870.52
587.077	1836.8
587.278	1867.22
587.48	1830.41
587.681	1990.45
587.883	1900.35
588.084	1810.84
588.285	1861.41
588.487	1800.57
588.688	1871.49
588.89	1748.07
589.091	1734.51
589.292	1753.49
589.494	1690.53
589.695	1650.61
589.896	1582.41
590.098	1596.56
590.299	1651.97
590.5	1592.88
590.702	1648.68
590.903	1717.65
591.104	1753.69
591.305	1750.97
591.507	1810.84
591.708	1759.11
591.909	1742.84
592.11	1843.97
592.311	1822.27
592.512	1745.16
592.714	1709.32
592.915	1727.72
593.116	1735.86
593.317	1776.55
593.518	1749.42
593.719	1744
593.92	1776.16
594.121	1835.84
594.322	1778.49
594.523	1767.25
594.724	1711.84
594.925	1775.97
595.126	1771.9
595.327	1773.06
595.528	1716.29
595.729	1732.18
595.929	1744.77
596.13	1731.02
596.331	1781.01
596.532	1773.84
596.733	1825.95
596.934	1806.97
597.135	1792.82
597.335	1810.07
597.536	1751.17
597.737	1778.1
597.938	1729.47
598.138	1806.97
598.339	1765.89
598.54	1755.43
598.74	1734.89
598.941	1718.62
599.142	1763.96
599.342	1753.69
599.543	1717.46
599.744	1765.51
599.944	1722.11
600.145	1747.1
600.345	1775.58
600.546	1846.1
600.746	1801.15
600.947	1829.44
601.147	1764.34
601.348	1781.01
601.548	1706.61
601.749	1750.78
601.949	1693.82
602.15	1735.67
602.35	1715.91
602.551	1734.12
602.751	1688.2
602.951	1712.03
603.152	1626.39
603.352	1739.93
603.552	1700.02
603.753	1776.55
603.953	1746.52
604.153	1775.97
604.354	1723.85
604.554	1712.61
604.754	1720.17
604.954	1647.71
605.155	1757.95
605.355	1718.62
605.555	1724.43
605.755	1774.03
605.955	1711.26
606.155	1735.67
606.356	1703.89
606.556	1707.77
606.756	1702.73
606.956	1665.92
607.156	1754.46
607.356	1659.72
607.556	1728.31
607.756	1701.38
607.956	1772.09
608.156	1702.93
608.356	1666.31
608.556	1668.63
608.756	1699.24
608.956	1671.15
609.156	1662.43
609.356	1625.04
609.556	1586.1
609.755	1669.79
609.955	1651.19
610.155	1667.66
610.355	1697.69
610.555	1615.93
610.755	1628.33
610.954	1579.9
611.154	1634.92
611.354	1674.06
611.554	1610.7
611.753	1593.46
611.953	1556.65
612.153	1634.92
612.352	1648.48
612.552	1615.74
612.752	1545.99
612.951	1588.81
613.151	1578.15
613.351	1567.3
613.55	1591.13
613.75	1582.03
613.949	1569.63
614.149	1603.92
614.348	1573.5
614.548	1522.74
614.747	1488.06
614.947	1576.02
615.146	1508.4
615.346	1610.51
615.545	1579.9
615.745	1532.62
615.944	1597.91
616.144	1572.15
616.343	1547.73
616.542	1522.35
616.742	1512.86
616.941	1507.24
617.14	1447.95
617.34	1492.71
617.539	1533.01
617.738	1509.37
617.938	1561.68
618.137	1500.85
618.336	1438.07
618.535	1536.88
618.734	1531.07
618.934	1526.03
619.133	1516.73
619.332	1554.51
619.531	1470.62
619.73	1526.42
619.929	1555.48
620.128	1537.08
620.328	1573.5
620.527	1498.52
620.726	1503.95
620.925	1506.66
621.124	1508.6
621.323	1520.03
621.522	1460.16
621.721	1462.48
621.92	1431.68
622.119	1510.34
622.318	1478.37
622.517	1468.68
622.715	1454.35
622.914	1397.39
623.113	1428.77
623.312	1391.19
623.511	1450.86
623.71	1416.18
623.909	1433.04
624.107	1507.43
624.306	1363.87
624.505	1419.67
624.704	1394.09
624.902	1421.02
625.101	1453.77
625.3	1408.82
625.499	1384.6
625.697	1363.48
625.896	1375.69
626.095	1363.67
626.293	1346.62
626.492	1375.88
626.69	1386.15
626.889	1346.43
627.088	1430.13
627.286	1379.56
627.485	1319.11
627.683	1356.7
627.882	1377.24
628.08	1315.04
628.279	1377.24
628.477	1402.42
628.676	1315.62
628.874	1370.45
629.073	1329.38
629.271	1311.56
629.469	1335.77
629.668	1364.84
629.866	1337.71
630.065	1297.41
630.263	1375.88
630.461	1291.6
630.66	1365.42
630.858	1356.89
631.056	1376.07
631.254	1407.27
631.453	1314.46
631.651	1383.05
631.849	1331.32
632.047	1352.24
632.245	1351.27
632.444	1361.54
632.642	1363.29
632.84	1371.42
633.038	1334.42
633.236	1326.28
633.434	1329.77
633.632	1306.13
633.83	1282.49
634.028	1375.88
634.227	1358.06
634.425	1405.52
634.623	1327.06
634.821	1361.74
635.019	1332.87
635.216	1332.29
635.414	1369.87
635.612	1335
635.81	1334.42
636.008	1383.82
636.206	1351.27
636.404	1354.57
636.602	1267.19
636.8	1331.9
636.997	1342.17
637.195	1356.31
637.393	1315.62
637.591	1374.33
637.789	1343.33
637.986	1321.82
638.184	1304.39
638.382	1362.12
638.58	1349.72
638.777	1427.42
638.975	1308.26
639.173	1312.72
639.37	1335.19
639.568	1356.12
639.765	1314.07
639.963	1282.49
640.161	1340.62
640.358	1350.11
640.556	1259.44
640.753	1264.86
640.951	1233.09
641.148	1281.14
641.346	1260.6
641.543	1236.96
641.741	1294.7
641.938	1216.43
642.136	1234.44
642.333	1225.73
642.531	1283.27
642.728	1315.04
642.925	1282.69
643.123	1258.47
643.32	1273.39
643.517	1226.69
643.715	1237.74
643.912	1223.98
644.109	1257.31
644.306	1277.65
644.504	1197.44
644.701	1266.41
644.898	1263.89
645.095	1216.23
645.293	1275.32
645.49	1282.3
645.687	1262.15
645.884	1288.5
646.081	1171.86
646.278	1198.6
646.475	1205.77
646.672	1226.89
646.87	1250.33
647.067	1214.49
647.264	1217.98
647.461	1182.71
647.658	1177.48
647.855	1237.54
648.052	1214.68
648.249	1089.13
648.446	1212.94
648.642	1152.49
648.839	1143
649.036	1134.08
649.233	1134.86
649.43	1094.56
649.627	1086.62
649.824	1149.97
650.021	1080.61
650.217	1118.39
650.414	1110.25
650.611	1139.31
650.808	1124.78
651.004	1133.11
651.201	1187.94
651.398	1191.82
651.595	1159.08
651.791	1131.37
651.988	1204.99
652.185	1110.06
652.381	1177.1
652.578	1107.54
652.775	1145.32
652.971	1148.42
653.168	1148.61
653.364	1162.76
653.561	1098.43
653.757	1108.7
653.954	1168.57
654.15	1080.8
654.347	1201.31
654.543	1105.99
654.74	1084.1
654.936	1101.92
655.133	1111.61
655.329	1141.64
655.525	1086.42
655.722	1125.75
655.918	1062.98
656.115	1106.38
656.311	987.8
656.507	958.16
656.704	927.35
656.9	931.04
657.096	939.37
657.292	953.32
657.489	1026.94
657.685	1026.17
657.881	998.27
658.077	1004.08
658.273	1040.12
658.47	1091.07
658.666	1047.87
658.862	1112.38
659.058	1065.5
659.254	1127.5
659.45	1088.36
659.646	1060.46
659.842	1088.17
660.038	1130.98
660.234	1107.15
660.43	1103.47
660.626	1175.35
660.822	1118.58
661.018	1135.05
661.214	1094.95
661.41	1062.4
661.606	1109.09
661.802	1134.08
661.998	1077.7
662.194	1111.41
662.39	1094.37
662.586	1117.23
662.781	1093.4
662.977	1090.1
663.173	1094.56
663.369	1105.6
663.564	1070.92
663.76	1110.25
663.956	1079.25
664.152	1126.33
664.347	1005.63
664.543	1086.03
664.739	1067.43
664.934	1018.61
665.13	1013.18
665.326	1097.66
665.521	1093.78
665.717	1029.27
665.912	1020.35
666.108	986.64
666.304	1062.4
666.499	1066.08
666.695	967.46
666.89	1046.7
667.086	1105.8
667.281	1038.57
667.477	1139.12
667.672	1089.13
667.867	1083.71
668.063	1074.8
668.258	1011.83
668.454	1064.14
668.649	1117.23
668.844	1055.81
669.04	1069.95
669.235	1000.01
669.43	1018.8
669.626	985.48
669.821	1021.9
670.016	1005.05
670.211	1020.93
670.407	983.35
670.602	1036.43
670.797	999.43
670.992	1070.92
671.187	1008.54
671.382	1058.52
671.578	965.91
671.773	1042.63
671.968	975.02
672.163	1035.66
672.358	1053.29
672.553	1000.79
672.748	990.32
672.943	1077.9
673.138	1006.99
673.333	1043.99
673.528	1003.11
673.723	1012.02
673.918	1027.72
674.113	957.77
674.308	1110.83
674.503	1034.11
674.698	1021.32
674.892	1019.19
675.087	1017.83
675.282	973.47
675.477	963.39
675.672	1038.37
675.867	985.87
676.061	976.95
676.256	984.51
676.451	997.88
676.646	1022.48
676.84	968.24
677.035	924.26
677.23	951.57
677.424	967.65
677.619	1046.51
677.814	1031.59
678.008	1047.09
678.203	937.04
678.397	947.89
678.592	987.42
678.787	1066.66
678.981	960.29
679.176	994.59
679.37	971.92
679.565	995.36
679.759	961.45
679.954	994
680.148	1027.33
680.342	1013.38
680.537	1000.98
680.731	918.83
680.926	995.75
681.12	993.62
681.314	960.68
681.509	969.59
681.703	956.61
681.897	999.62
682.092	945.37
682.286	959.52
682.48	1010.86
682.674	1021.13
682.869	949.05
683.063	963.97
683.257	1034.3
683.451	951.96
683.645	976.37
683.839	982.96
684.034	962.04
684.228	990.52
684.422	936.07
684.616	913.02
684.81	958.74
685.004	928.52
685.198	945.76
685.392	990.13
685.586	935.49
685.78	931.04
685.974	945.76
686.168	960.49
686.362	1029.85
686.556	887.25
686.75	843.66
686.944	884.54
687.138	874.66
687.331	762.28
687.525	800.26
687.719	727.99
687.913	802.97
688.107	768.68
688.301	744.07
688.494	846.95
688.688	754.53
688.882	733.41
689.076	752.21
689.269	777.98
689.463	885.7
689.657	800.64
689.85	798.32
690.044	821.18
690.238	816.34
690.431	791.15
690.625	803.36
690.818	832.81
691.012	841.14
691.205	858.38
691.399	810.91
691.593	842.49
691.786	909.34
691.98	920.96
692.173	932.39
692.366	889.96
692.56	912.82
692.753	947.7
692.947	860.12
693.14	957.77
693.333	942.66
693.527	887.25
693.72	926.97
693.914	909.53
694.107	896.55
694.3	945.37
694.493	908.95
694.687	943.44
694.88	883.96
695.073	990.71
695.266	928.9
695.46	918.44
695.653	956.22
695.846	957.39
696.039	891.9
696.232	930.07
696.425	988.97
696.618	1001.75
696.812	993.23
697.005	1078.28
697.198	1079.25
697.391	1038.95
697.584	1061.04
697.777	1114.9
697.97	1099.21
698.163	1087.58
698.356	1064.92
698.549	1160.82
698.742	1163.53
698.935	1085.07
699.127	1094.56
699.32	1058.72
699.513	1109.67
699.706	1123.81
699.899	1132.73
700.092	1104.63
700.285	1175.16
700.477	1070.92
700.67	1166.25
700.863	1180.58
701.056	1249.36
701.248	1199.57
701.441	1240.45
701.634	1192.4
701.826	1283.27
702.019	1162.18
702.212	1271.26
702.404	1196.47
702.597	1231.54
702.79	1238.9
702.982	1280.75
703.175	1294.31
703.367	1325.31
703.56	1330.16
703.752	1431.68
703.945	1368.52
704.137	1413.27
704.33	1400.1
704.522	1427.03
704.715	1420.05
704.907	1464.03
705.1	1472.95
705.292	1490.97
705.484	1479.53
705.677	1528.94
705.869	1501.23
706.061	1565.17
706.254	1580.67
706.446	1529.72
706.638	1522.93
706.831	1646.54
707.023	1566.14
707.215	1688.59
707.407	1652.74
707.599	1683.74
707.792	1735.09
707.984	1676.58
708.176	1744.39
708.368	1691.69
708.56	1729.66
708.752	1731.79
708.944	1725.4
709.136	1785.66
709.329	1766.86
709.521	1873.62
709.713	1853.85
709.905	1846.3
710.097	1885.05
710.289	1827.5
710.481	1873.42
710.672	1878.46
710.864	1922.44
711.056	1971.27
711.248	1957.32
711.44	1969.91
711.632	1982.11
711.824	1978.82
712.016	2053.8
712.207	2047.8
712.399	2021.06
712.591	2121.61
712.783	2094.49
712.975	2107.47
713.166	2078.6
713.358	2114.44
713.55	2193.49
713.741	2150.09
713.933	2173.92
714.125	2143.31
714.316	2143.89
714.508	2232.05
714.7	2221.59
714.891	2266.54
715.083	2333.18
715.274	2208.99
715.466	2283.39
715.657	2319.82
715.849	2222.36
716.04	2263.63
716.232	2234.57
716.423	2277.19
716.615	2255.3
716.806	2187.87
716.998	2200.86
717.189	2153.77
717.381	2105.73
717.572	2048.57
717.763	2091.39
717.955	2035.01
718.146	2032.3
718.337	1972.23
718.528	1960.03
718.72	1923.22
718.911	1969.72
719.102	1904.03
719.293	1992.96
719.485	1965.65
719.676	1928.45
719.867	1900.55
720.058	1921.47
720.249	1926.32
720.44	1978.63
720.632	2018.73
720.823	2040.82
721.014	2167.92
721.205	2169.27
721.396	2241.74
721.587	2358.37
721.778	2400.22
721.969	2437.81
722.16	2444.59
722.351	2492.45
722.542	2588.74
722.733	2611.6
722.924	2505.04
723.115	2620.51
723.305	2589.51
723.496	2621.87
723.687	2521.31
723.878	2518.41
724.069	2513.18
724.26	2537.78
724.45	2456.21
724.641	2460.86
724.832	2530.81
725.023	2479.46
725.213	2485.28
725.404	2501.16
725.595	2482.18
725.785	2500.78
725.976	2567.62
726.167	2545.14
726.357	2563.16
726.548	2655.97
726.739	2567.04
726.929	2648.22
727.12	2699.95
727.31	2733.85
727.501	2662.17
727.691	2718.94
727.882	2694.33
728.072	2720.49
728.263	2698.79
728.453	2797.6
728.644	2782.1
728.834	2757.1
729.024	2729.98
729.215	2754.39
729.405	2759.43
729.596	2850.68
729.786	2852.81
729.976	2894.28
730.167	2897.57
730.357	2854.56
730.547	2897.76
730.737	2917.53
730.928	2977.78
731.118	3018.08
731.308	2966.93
731.498	2939.81
731.688	3085.7
731.879	3113.99
732.069	3112.82
732.259	3123.48
732.449	3206.21
732.639	3249.03
732.829	3234.11
733.019	3315.68
733.209	3360.63
733.399	3325.36
733.589	3449.17
733.779	3447.81
733.969	3432.12
734.159	3560.77
734.349	3547.2
734.539	3608.24
734.729	3575.1
734.919	3581.89
735.109	3646.02
735.299	3614.82
735.488	3638.46
735.678	3625.48
735.868	3686.51
736.058	3657.45
736.248	3671.01
736.437	3636.52
736.627	3586.34
736.817	3694.26
737.007	3657.45
737.196	3738.82
737.386	3703.75
737.576	3664.81
737.765	3750.83
737.955	3744.05
738.144	3899.63
738.334	3805.66
738.524	3736.88
738.713	3795.4
738.903	3822.33
739.092	3812.44
739.282	3786.1
739.471	3827.56
739.661	3822.33
739.85	3849.45
740.04	3845.96
740.229	3870.38
740.419	3958.14
740.608	3931.6
740.797	3922.11
740.987	3958.34
741.176	3928.5
741.365	3911.26
741.555	3882.97
741.744	3990.5
741.933	3958.34
742.123	3983.91
742.312	4007.16
742.501	4053.85
742.69	4049.2
742.88	3913
743.069	4026.92
743.258	4009.87
743.447	4094.73
743.636	4089.5
743.825	4050.75
744.014	4080.2
744.204	4110.43
744.393	3994.76
744.582	4121.28
744.771	4178.43
744.96	4097.25
745.149	4136
745.338	4106.75
745.527	4148.98
745.716	4148.02
745.905	4123.41
746.094	4163.9
746.283	4170.49
746.471	4121.08
746.66	4196.06
746.849	4217.38
747.038	4173.01
747.227	4088.73
747.416	4180.18
747.604	4093.96
747.793	4149.18
747.982	4157.32
748.171	4174.75
748.359	4132.32
748.548	4188.31
748.737	4162.93
748.926	4155.38
749.114	4005.03
749.303	4150.15
749.491	4156.35
749.68	4044.17
749.869	4158.67
750.057	4068.77
750.246	4069.35
750.434	4104.03
750.623	4071.87
750.811	4066.84
751	4166.42
751.188	4086.6
751.377	4112.95
751.565	4042.81
751.754	4030.02
751.942	4096.67
752.131	4154.02
752.319	4047.27
752.507	4012
752.696	4105.2
752.884	4139.1
753.072	4044.17
753.261	4128.83
753.449	4078.85
753.637	4007.74
753.825	4123.8
754.014	4066.06
754.202	4054.44
754.39	4098.61
754.578	4139.68
754.766	4070.32
754.955	4015.49
755.143	4112.56
755.331	3998.64
755.519	4088.15
755.707	4053.27
755.895	4018.79
756.083	4038.55
756.271	3940.51
756.459	3987.59
756.647	4037.58
756.835	3981.97
757.023	4007.16
757.211	3994.37
757.399	3954.07
757.587	3956.21
757.775	3914.94
757.963	3956.01
758.151	3954.85
758.339	3888.78
758.526	3906.8
758.714	4009.1
758.902	3848.68
759.09	3819.03
759.278	3625.09
759.465	3398.02
759.653	3032.81
759.841	2824.14
760.028	2487.41
760.216	2173.54
760.404	2063.1
760.591	1757.17
760.779	1524.29
760.967	1391.96
761.154	1220.88
761.342	1251.49
761.529	1275.32
761.717	1344.49
761.905	1359.41
762.092	1467.52
762.28	1403.39
762.467	1477.4
762.655	1388.09
762.842	1449.7
763.029	1448.73
763.217	1488.64
763.404	1485.73
763.592	1533.01
763.779	1471.01
763.966	1560.13
764.154	1603.15
764.341	1640.54
764.528	1681.42
764.716	1749.42
764.903	1799.02
765.09	1889.12
765.277	1886.79
765.465	2018.15
765.652	2135.95
765.839	2172.76
766.026	2320.59
766.213	2376.97
766.4	2432.38
766.588	2613.54
766.775	2638.53
766.962	2717.77
767.149	2783.84
767.336	2941.36
767.523	2884.2
767.71	3018.47
767.897	3151.77
768.084	3225.58
768.271	3227.52
768.458	3209.5
768.645	3341.83
768.832	3310.64
769.019	3363.15
769.206	3327.5
769.392	3431.54
769.579	3527.64
769.766	3450.72
769.953	3516.21
770.14	3492.37
770.327	3489.08
770.513	3510.39
770.7	3616.18
770.887	3487.92
771.073	3539.65
771.26	3557.09
771.447	3459.05
771.634	3469.12
771.82	3616.37
772.007	3460.02
772.193	3561.15
772.38	3557.86
772.567	3503.03
772.753	3528.61
772.94	3572.59
773.126	3565.22
773.313	3546.82
773.499	3565.03
773.686	3571.04
773.872	3502.26
774.059	3540.04
774.245	3470.09
774.432	3492.96
774.618	3433.67
774.804	3497.41
774.991	3410.42
775.177	3466.02
775.363	3462.54
775.55	3451.3
775.736	3380.97
775.922	3450.72
776.109	3450.53
776.295	3461.76
776.481	3479.78
776.667	3497.22
776.853	3410.42
777.04	3437.54
777.226	3395.89
777.412	3467.38
777.598	3402.86
777.784	3360.82
777.97	3327.88
778.156	3388.53
778.342	3405.58
778.528	3393.76
778.715	3269.57
778.901	3353.65
779.087	3370.12
779.272	3312.58
779.458	3279.45
779.644	3312.96
779.83	3285.45
780.016	3397.05
780.202	3298.82
780.388	3335.83
780.574	3211.25
780.76	3239.34
780.946	3286.23
781.131	3291.85
781.317	3291.65
781.503	3252.71
781.689	3257.94
781.874	3339.31
782.06	3210.86
782.246	3267.82
782.432	3223.84
782.617	3267.05
782.803	3298.82
782.989	3163.2
783.174	3205.43
783.36	3085.31
783.545	3175.4
783.731	3176.18
783.916	3079.11
784.102	3201.37
784.288	3151.38
784.473	3154.67
784.659	3132.78
784.844	3167.27
785.029	3128.71
785.215	3127.55
785.4	3082.6
785.586	3175.79
785.771	3080.47
785.956	3130.26
786.142	3081.05
786.327	3066.52
786.512	3062.06
786.698	3012.46
786.883	2988.05
787.068	3013.43
787.254	3071.36
787.439	3036.87
787.624	3007.23
787.809	2987.86
787.994	3013.24
788.18	3026.02
788.365	2943.49
788.55	2929.54
788.735	2993.09
788.92	2965.58
789.105	2948.14
789.29	2974.29
789.475	2932.83
789.66	2978.17
789.845	2886.33
790.03	2857.46
790.215	2930.9
790.4	2957.44
790.585	2952.79
790.77	2938.45
790.955	2832.47
791.14	2902.22
791.325	2997.74
791.51	2788.1
791.695	2853.98
791.879	2822.01
792.064	2793.92
792.249	2873.93
792.434	2846.42
792.618	2846.62
792.803	2910.16
792.988	2852.04
793.173	2842.74
793.357	2846.03
793.542	2787.52
793.727	2832.47
793.911	2865.21
794.096	2867.35
794.281	2845.45
794.465	2951.04
794.65	2816
794.834	2915.78
795.019	2906.1
795.203	2895.25
795.388	2904.35
795.572	2878.58
795.757	2903
795.941	2930.51
796.126	2878.39
796.31	2843.32
796.494	2889.24
796.679	2886.91
796.863	2832.08
797.048	2984.76
797.232	2893.5
797.416	2911.13
797.601	2878.2
797.785	2971.19
797.969	2961.89
798.153	2877.61
798.338	2906.87
798.522	2979.72
798.706	2925.08
798.89	2958.02
799.074	3044.24
799.258	2990.96
799.443	2947.17
799.627	2974.49
799.811	2991.54
799.995	2928.96
800.179	2932.45
800.363	2904.74
800.547	2953.76
800.731	2934.96
800.915	2823.75
801.099	2908.81
801.283	2906.29
801.467	2903.58
801.651	2907.45
801.835	2987.47
802.019	2912.1
802.202	2932.45
802.386	2871.41
802.57	2854.36
802.754	2879.75
802.938	2856.69
803.121	2892.53
803.305	2906.68
803.489	2899.7
803.673	2947.75
803.856	2892.92
804.04	2899.31
804.224	2912.3
804.407	2912.88
804.591	2879.55
804.775	2893.31
804.958	2878.39
805.142	2981.08
805.326	2902.41
805.509	2881.88
805.693	2937.09
805.876	2943.29
806.06	2923.34
806.243	2936.71
806.427	2964.61
806.61	2955.89
806.794	2923.34
806.977	2910.55
807.16	2931.28
807.344	2935.93
807.527	2926.44
807.71	2884.78
807.894	2890.21
808.077	2917.14
808.26	2834.8
808.444	2854.17
808.627	2927.21
808.81	2849.33
808.993	2800.89
809.177	2778.42
809.36	2810
809.543	2831.89
809.726	2756.91
809.909	2739.09
810.092	2761.75
810.276	2733.85
810.459	2750.13
810.642	2750.13
810.825	2695.3
811.008	2751.87
811.191	2614.31
811.374	2643.37
811.557	2653.64
811.74	2718.35
811.923	2617.22
812.106	2589.71
812.289	2559.48
812.472	2593.58
812.654	2630.01
812.837	2567.04
813.02	2537.98
813.203	2508.33
813.386	2363.22
813.569	2410.3
813.751	2288.04
813.934	2320.4
814.117	2340.93
814.3	2295.4
814.482	2231.47
814.665	2227.01
814.848	2188.84
815.03	2094.29
815.213	2157.84
815.396	2101.85
815.578	2118.32
815.761	2026.1
815.943	2115.61
816.126	2008.85
816.309	1963.9
816.491	1911.2
816.674	1833.7
816.856	1908.3
817.039	1904.03
817.221	1983.28
817.403	1910.43
817.586	1933.48
817.768	1953.25
817.951	1859.47
818.133	1832.54
818.315	1873.23
818.498	1916.82
818.68	1987.93
818.862	1982.11
819.045	1980.95
819.227	1956.35
819.409	1943.95
819.591	2002.65
819.774	1943.37
819.956	1886.98
820.138	1964.1
820.32	1971.85
820.502	1994.32
820.684	2079.38
820.866	2054.38
821.048	2156.29
821.231	2127.43
821.413	2097.01
821.595	2130.91
821.777	2142.73
821.959	2102.04
822.141	2192.72
822.323	2037.72
822.505	1984.05
822.686	1971.65
822.868	1889.5
823.05	1760.66
823.232	1721.14
823.414	1652.55
823.596	1726.76
823.778	1713
823.96	1762.41
824.141	1727.34
824.323	1738.57
824.505	1824.4
824.687	1891.63
824.868	1907.72
825.05	1987.54
825.232	2031.71
825.413	2113.48
825.595	2027.65
825.777	1984.25
825.958	2068.14
826.14	2023
826.321	2085.19
826.503	2043.53
826.685	2029.97
826.866	2036.56
827.048	2096.23
827.229	2034.23
827.411	1993.16
827.592	1947.82
827.773	1928.25
827.955	1900.16
828.136	1905.2
828.318	1809.29
828.499	1877.49
828.68	1831.77
828.862	1873.81
829.043	1901.13
829.224	1857.15
829.406	1855.02
829.587	1851.72
829.768	1848.62
829.949	1861.22
830.131	1846.1
830.312	1912.56
830.493	1844.75
830.674	1879.04
830.855	1852.89
831.036	1879.82
831.218	1892.22
831.399	1903.84
831.58	1880.98
831.761	1871.87
831.942	1877.1
832.123	1847.65
832.304	1787.21
832.485	1821.5
832.666	1840.1
832.847	1854.82
833.028	1837.19
833.209	1790.5
833.389	1801.74
833.57	1765.31
833.751	1774.42
833.932	1850.37
834.113	1820.72
834.294	1790.31
834.475	1807.55
834.655	1885.24
834.836	1875.17
835.017	1856.76
835.198	1818.59
835.378	1828.86
835.559	1901.13
835.74	1842.04
835.92	1830.22
836.101	1828.67
836.281	1882.34
836.462	1881.56
836.643	1914.5
836.823	1905.2
837.004	1909.07
837.184	1903.84
837.365	1904.62
837.545	1907.91
837.726	1839.32
837.906	1950.92
838.087	1892.22
838.267	1858.89
838.448	1827.31
838.628	1871.1
838.808	1852.3
838.989	1899.19
839.169	1819.37
839.349	1843.59
839.53	1880.01
839.71	1931.93
839.89	1878.07
840.07	1893.77
840.251	1863.54
840.431	1894.73
840.611	1868.77
840.791	1853.85
840.971	1835.64
841.151	1861.41
841.332	1809.1
841.512	1885.63
841.692	1797.86
841.872	1862.19
842.052	1835.84
842.232	1886.21
842.412	1767.44
842.592	1819.17
842.772	1839.13
842.952	1807.94
843.132	1769.57
843.312	1778.87
843.492	1787.79
843.672	1812.59
843.851	1720.17
844.031	1804.06
844.211	1800.96
844.391	1770.54
844.571	1769.57
844.751	1810.45
844.93	1801.74
845.11	1731.79
845.29	1795.54
845.47	1820.14
845.649	1787.98
845.829	1784.11
846.009	1726.95
846.188	1791.47
846.368	1768.41
846.547	1755.43
846.727	1773.45
846.907	1753.3
847.086	1748.84
847.266	1793.99
847.445	1772.48
847.625	1757.37
847.804	1743.61
847.984	1725.59
848.163	1762.02
848.343	1680.64
848.522	1745.74
848.701	1744
848.881	1688.2
849.06	1731.99
849.239	1752.52
849.419	1724.24
849.598	1654.29
849.777	1655.65
849.957	1602.18
850.136	1566.33
850.315	1554.9
850.494	1563.81
850.674	1575.83
850.853	1630.66
851.032	1634.92
851.211	1650.42
851.39	1616.9
851.569	1551.61
851.748	1548.9
851.927	1613.22
852.107	1608.57
852.286	1578.93
852.465	1565.17
852.644	1612.64
852.823	1632.79
853.002	1562.65
853.181	1679.87
853.359	1615.55
853.538	1545.6
853.717	1607.8
853.896	1512.08
854.075	1460.93
854.254	1426.45
854.433	1347.4
854.611	1390.22
854.79	1316.98
854.969	1391.38
855.148	1417.73
855.327	1382.08
855.505	1433.42
855.684	1446.99
855.863	1475.47
856.041	1414.82
856.22	1488.64
856.399	1441.17
856.577	1551.8
856.756	1541.92
856.934	1613.41
857.113	1633.95
857.291	1548.7
857.47	1496.58
857.648	1518.28
857.827	1561.68
858.005	1563.04
858.184	1504.72
858.362	1605.08
858.541	1532.82
858.719	1503.75
858.898	1497.17
859.076	1484.57
859.254	1576.41
859.433	1506.85
859.611	1522.35
859.789	1462.48
859.967	1546.57
860.146	1539.01
860.324	1420.83
860.502	1473.92
860.68	1445.63
860.859	1457.25
861.037	1440.01
861.215	1489.03
861.393	1435.17
861.571	1489.03
861.749	1452.6
861.927	1451.83
862.105	1475.66
862.283	1459.38
862.461	1417.92
862.639	1406.88
862.817	1450.28
862.995	1460.35
863.173	1445.24
863.351	1446.21
863.529	1427.03
863.707	1474.11
863.885	1462.29
864.063	1374.52
864.241	1387.89
864.418	1491.35
864.596	1420.64
864.774	1345.07
864.952	1377.82
865.129	1379.95
865.307	1371.81
865.485	1344.49
865.663	1415.21
865.84	1327.64
866.018	1318.53
866.196	1217.01
866.373	1243.74
866.551	1210.81
866.728	1169.73
866.906	1193.76
867.084	1206.35
867.261	1268.16
867.439	1258.28
867.616	1267.77
867.794	1253.04
867.971	1273.58
868.149	1255.37
868.326	1356.7
868.503	1343.91
868.681	1313.11
868.858	1305.16
869.035	1282.3
869.213	1302.06
869.39	1285.01
869.567	1340.81
869.745	1262.15
869.922	1276.49
870.099	1346.04
870.276	1339.84
870.454	1317.95
870.631	1335.77
870.808	1279.59
870.985	1351.08
871.162	1364.45
871.339	1290.24
871.517	1280.94
871.694	1224.18
871.871	1261.57
872.048	1263.7
872.225	1257.31
872.402	1262.34
872.579	1228.83
872.756	1281.14
872.933	1233.09
873.11	1265.83
873.287	1262.93
873.463	1205.96
873.64	1236.96
873.817	1297.8
873.994	1251.88
874.171	1192.98
874.348	1242.78
874.524	1196.08
874.701	1217.78
874.878	1134.47
875.055	1231.54
875.231	1211.97
875.408	1246.26
875.585	1130.4
875.762	1198.99
875.938	1168.18
876.115	1196.86
876.291	1175.74
876.468	1178.84
876.645	1120.91
876.821	1168.96
876.998	1134.47
877.174	1155.59
877.351	1141.64
877.527	1133.31
877.704	1167.21
877.88	1170.12
878.057	1146.48
878.233	1214.1
878.409	1109.86
878.586	1174.96
878.762	1126.33
878.938	1152.68
879.115	1093.98
879.291	1141.06
879.467	1081.97
879.644	1103.08
879.82	1136.02
879.996	1115.48
880.172	1088.17
880.349	1118.97
880.525	1125.75
880.701	1038.76
880.877	1058.52
881.053	1078.28
881.229	1074.02
881.405	1117.61
881.581	1059.88
881.757	1065.11
881.933	1101.73
882.109	1127.69
882.285	1122.07
882.461	1050
882.637	1081
882.813	1060.07
882.989	1065.69
883.165	1160.24
883.341	1032.95
883.517	1117.42
883.693	1102.5
883.869	1140.67
884.044	1049.22
884.22	1087.39
884.396	1139.12
884.572	1115.87
884.747	1101.34
884.923	1090.3
885.099	1109.86
885.275	1130.98
885.45	1072.86
885.626	1057.94
885.801	1057.17
885.977	1071.89
886.153	1025.78
886.328	1110.06
886.504	1059.68
886.679	1105.6
886.855	1045.73
887.03	1108.12
887.206	1113.35
887.381	1104.63
887.557	1121.49
887.732	1097.85
887.908	1098.24
888.083	1115.68
888.258	1080.03
888.434	1047.87
888.609	1067.24
888.784	1100.18
888.96	1078.67
889.135	1068.98
889.31	1049.42
889.485	1092.43
889.661	1068.98
889.836	1112
890.011	1100.18
890.186	1063.56
890.361	1037.98
890.537	1078.87
890.712	1061.82
890.887	1034.69
891.062	1089.72
891.237	1149.78
891.412	1036.43
891.587	1074.6
891.762	1089.13
891.937	1115.68
892.112	1002.92
892.287	1084.29
892.462	1003.3
892.637	1032.75
892.812	992.65
892.987	1008.92
893.161	992.84
893.336	1018.22
893.511	987.8
893.686	1016.28
893.861	999.82
894.035	988.58
894.21	1030.43
894.385	941.69
894.56	1005.44
894.734	944.6
894.909	940.92
895.084	952.54
895.258	917.09
895.433	927.74
895.608	880.66
895.782	860.51
895.957	896.74
896.131	886.86
896.306	818.47
896.48	844.43
896.655	862.84
896.829	751.24
897.004	784.76
897.178	785.53
897.353	772.55
897.527	799.68
897.701	803.94
897.876	766.16
898.05	818.28
898.224	794.06
898.399	823.31
898.573	774.49
898.747	699.51
898.921	744.26
899.096	618.52
899.27	645.65
899.444	671.8
899.618	653.78
899.792	711.13
899.967	710.36
900.141	745.04
900.315	635.18
900.489	677.81
900.663	706.29
900.837	706.87
901.011	637.7
901.185	714.62
901.359	674.13
901.533	729.93
901.707	688.46
901.881	697.96
902.055	638.09
902.229	687.69
902.403	721.21
902.576	696.02
902.75	693.7
902.924	804.71
903.098	751.43
903.272	795.22
903.446	823.89
903.619	792.89
903.793	845.4
903.967	802.39
904.14	849.47
904.314	820.79
904.488	848.69
904.661	818.08
904.835	828.35
905.009	868.65
905.182	918.64
905.356	851.02
905.529	846.56
905.703	793.48
905.876	809.17
906.05	749.88
906.223	750.66
906.397	698.93
906.57	710.55
906.744	691.18
906.917	672.77
907.09	701.45
907.264	661.34
907.437	649.52
907.61	606.7
907.784	638.48
907.957	680.52
908.13	601.67
908.304	674.9
908.477	620.07
908.65	624.92
908.823	617.94
908.996	695.83
909.17	615.62
909.343	613.87
909.516	628.6
909.689	603.02
909.862	613.29
910.035	602.05
910.208	548.19
910.381	597.79
910.554	687.3
910.727	592.75
910.9	591.98
911.073	597.6
911.246	665.8
911.419	684.98
911.592	623.56
911.765	593.33
911.938	599.53
912.11	600.7
912.283	590.23
912.456	634.02
912.629	618.91
912.802	595.85
912.974	558.46
913.147	495.1
913.32	464.11
913.493	488.52
913.665	537.34
913.838	548.19
914.01	532.69
914.183	533.27
914.356	542.19
914.528	569.7
914.701	611.16
914.873	578.42
915.046	536.95
915.218	508.09
915.391	452.67
915.563	481.74
915.736	512.54
915.908	556.52
916.081	515.84
916.253	497.24
916.425	538.31
916.598	546.25
916.77	506.92
916.942	507.89
917.115	456.55
917.287	526.1
917.459	517
917.632	449.57
917.804	419.74
917.976	476.51
918.148	489.68
918.32	490.45
918.493	520.1
918.665	553.23
918.837	542.38
919.009	569.7
919.181	552.84
919.353	564.08
919.525	562.92
919.697	503.82
919.869	509.25
920.041	578.8
920.213	675.87
920.385	571.83
920.557	563.5
920.729	561.75
920.901	561.37
921.073	524.94
921.244	540.44
921.416	602.63
921.588	548.58
921.76	551.29
921.932	586.17
922.103	512.54
922.275	527.27
922.447	520.1
922.619	473.99
922.79	514.29
922.962	494.91
923.134	509.25
923.305	497.82
923.477	460.23
923.648	452.09
923.82	499.95
923.991	446.47
924.163	431.94
924.335	473.02
924.506	449.38
924.677	517.39
924.849	428.46
925.02	494.14
925.192	506.73
925.363	460.81
925.535	472.82
925.706	430.78
925.877	498.4
926.049	432.14
926.22	476.51
926.391	478.83
926.562	504.4
926.734	412.37
926.905	490.65
927.076	422.26
927.247	427.68
927.419	430.01
927.59	405.98
927.761	408.69
927.932	391.45
928.103	426.52
928.274	362.58
928.445	322.28
928.616	343.4
928.787	340.49
928.958	393.19
929.129	364.13
929.3	351.54
929.471	302.33
929.642	263.58
929.813	231.03
929.984	325.96
930.155	261.06
930.326	297.48
930.496	254.47
930.667	195.96
930.838	245.36
931.009	216.88
931.18	237.42
931.35	219.79
931.521	217.08
931.692	184.33
931.863	122.92
932.033	179.88
932.204	176.58
932.374	197.9
932.545	118.65
932.716	169.8
932.886	204.87
933.057	99.09
933.227	114.97
933.398	170.38
933.568	78.74
933.739	58.59
933.909	64.6
934.08	136.67
934.25	47.94
934.421	50.46
934.591	102.19
934.761	70.6
934.932	32.63
935.102	98.5
935.272	78.94
935.443	73.32
935.613	77.58
935.783	78.74
935.953	40.77
936.123	213.4
936.294	65.57
936.464	78.55
936.634	83.78
936.804	55.69
936.974	8.02
937.144	110.9
937.314	104.51
937.484	47.16
937.655	72.15
937.825	118.85
937.995	77.77
938.165	112.65
938.334	84.55
938.504	103.35
938.674	74.87
938.844	106.45
939.014	154.11
939.184	108.97
939.354	184.14
939.524	178.52
939.694	109.74
939.863	143.26
940.033	192.28
940.203	196.73
940.373	182.4
940.542	160.31
940.712	134.54
940.882	193.05
941.051	157.4
941.221	150.04
941.391	181.82
941.56	103.15
941.73	111.68
941.899	253.7
942.069	121.56
942.238	167.87
942.408	118.07
942.577	159.92
942.747	150.04
942.916	87.65
943.086	102.19
943.255	171.74
943.425	134.54
943.594	100.64
943.763	33.21
943.933	51.42
944.102	42.32
944.271	104.9
944.441	120.4
944.61	76.61
944.779	109.55
944.948	203.9
945.117	41.54
945.287	70.22
945.456	64.02
945.625	73.12
945.794	102.19
945.963	70.99
946.132	129.12
946.301	84.17
946.47	151.98
946.639	24.69
946.808	97.34
946.977	100.05
947.146	115.94
947.315	89.98
947.484	116.14
947.653	84.75
947.822	67.31
947.991	68.67
948.16	153.92
948.329	148.3
948.498	110.52
948.666	90.56
948.835	156.05
949.004	56.85
949.173	53.94
949.341	88.24
949.51	115.75
949.679	143.84
949.847	126.99
950.016	213.4
950.185	172.13
950.353	80.1
950.522	100.05
950.69	163.99
950.859	89.01
951.028	110.9
951.196	142.87
951.365	88.62
951.533	95.6
951.701	138.22
951.87	119.24
952.038	63.24
952.207	100.44
952.375	165.35
952.543	73.7
952.712	87.07
952.88	96.76
953.048	160.12
953.217	115.17
953.385	103.54
953.553	208.94
953.721	77.97
953.89	116.72
954.058	48.52
954.226	96.37
954.394	115.17
954.562	71.38
954.73	83.39
954.898	102.57
955.067	117.88
955.235	96.76
955.403	124.85
955.571	171.74
955.739	116.91
955.907	56.07
956.075	64.79
956.243	89.2
956.41	129.7
956.578	49.68
956.746	49.68
956.914	67.31
957.082	119.24
957.25	130.67
957.418	68.28
957.585	102.77
957.753	139.58
957.921	52.2
958.089	103.54
958.256	112.84
958.424	108.39
958.592	90.56
958.759	79.52
958.927	119.62
959.095	95.6
959.262	114
959.43	109.35
959.597	53.75
959.765	117.49
959.932	72.35
960.1	127.57
960.267	99.28
960.435	95.4
960.602	130.28
960.77	99.86
960.937	44.26
961.104	114.59
961.272	41.35
961.439	87.65
961.606	99.47
961.774	154.3
961.941	105.09
962.108	114.39
962.275	131.25
962.443	166.7
962.61	135.32
962.777	177.94
962.944	125.63
963.111	130.47
963.278	127.18
963.446	110.13
963.613	96.37
963.78	150.62
963.947	138.42
964.114	98.7
964.281	193.05
964.448	128.15
964.615	108.58
964.782	128.92
964.949	157.79
965.116	150.82
965.282	177.94
965.449	93.27
965.616	73.7
965.783	153.33
965.95	127.37
966.117	70.6
966.283	109.35
966.45	129.31
966.617	125.63
966.784	142.87
966.95	169.03
967.117	149.65
967.284	101.99
967.45	100.25
967.617	175.23
967.784	147.33
967.95	172.32
968.117	108
968.283	148.68
968.45	212.62
968.616	154.11
968.783	192.67
968.949	152.17
969.116	169.22
969.282	111.68
969.449	140.55
969.615	134.15
969.781	68.28
969.948	111.87
970.114	73.7
970.28	173.68
970.447	138.61
970.613	174.26
970.779	133.77
970.945	129.7
971.112	156.82
971.278	138.42
971.444	148.1
971.61	178.72
971.776	116.52
971.942	159.53
972.108	145.78
972.275	119.82
972.441	152.95
972.607	194.22
972.773	99.28
972.939	156.24
973.105	115.94
973.271	83.2
973.437	94.24
973.602	100.44
973.768	147.33
973.934	121.37
974.1	163.6
974.266	41.74
974.432	131.83
974.598	70.22
974.763	143.84
974.929	85.33
975.095	155.27
975.261	90.56
975.426	94.82
975.592	142.48
975.758	182.59
975.923	89.4
976.089	85.33
976.255	136.09
976.42	139.97
976.586	140.16
976.751	100.05
976.917	199.83
977.082	127.18
977.248	75.64
977.413	73.12
977.579	90.75
977.744	131.83
977.91	51.04
978.075	57.04
978.24	141.9
978.406	117.3
978.571	72.93
978.736	93.66
978.902	124.66
979.067	71.96
979.232	64.02
979.397	121.56
979.563	145.39
979.728	59.56
979.893	119.82
980.058	91.34
980.223	138.22
980.388	122.53
980.554	111.1
980.719	93.27
980.884	126.4
981.049	123.3
981.214	67.89
981.379	119.43
981.544	95.02
981.709	77.97
981.874	86.88
982.039	82.62
982.204	137.64
982.368	101.41
982.533	98.12
982.698	113.04
982.863	160.31
983.028	83
983.193	120.4
983.357	99.86
983.522	109.55
983.687	85.91
983.852	74.09
984.016	85.33
984.181	100.05
984.346	139.19
984.51	150.04
984.675	87.07
984.839	122.72
985.004	106.25
985.168	133.77
985.333	111.29
985.498	98.89
985.662	119.82
985.827	111.68
985.991	66.15
986.155	80.29
986.32	137.06
986.484	171.74
986.649	115.94
986.813	33.79
986.977	98.89
987.142	140.55
987.306	63.24
987.47	64.21
987.634	66.92
987.799	89.79
987.963	81.45
988.127	127.57
988.291	175.81
988.455	94.82
988.62	100.44
988.784	93.27
988.948	115.75
989.112	76.8
989.276	98.89
989.44	80.29
989.604	71.19
989.768	69.44
989.932	163.8
990.096	60.72
990.26	69.05
990.424	45.61
990.588	76.42
990.752	163.02
990.915	129.5
991.079	82.04
991.243	96.18
991.407	117.69
991.571	68.86
991.734	90.17
991.898	95.79
992.062	171.55
992.226	77.97
992.389	77.97
992.553	16.74
992.717	54.33
992.88	70.41
993.044	91.34
993.207	77.77
993.371	119.43
993.535	75.84
993.698	70.6
993.862	115.17
994.025	145.78
994.189	99.09
994.352	101.8
994.515	107.22
994.679	113.81
994.842	69.25
995.006	113.04
995.169	54.72
995.332	54.14
995.496	101.8
995.659	35.34
995.822	66.15
995.985	76.03
996.149	113.04
996.312	76.8
996.475	137.84
996.638	73.9
996.801	121.17
996.964	133.57
997.128	68.28
997.291	54.91
997.454	72.93
997.617	21.2
997.78	96.37
997.943	39.41
998.106	125.05
998.269	28.76
998.432	67.12
998.595	46.97
998.758	26.24
998.92	10.93
999.083	27.21
999.246	67.12
999.409	34.18
999.572	3.76
999.735	70.41
999.897	97.92
1000.06	61.89
1000.223	70.99
1000.386	102.96
1000.548	79.52
1000.711	108.39
1000.874	96.57
1001.036	8.41
1001.199	80.1
1001.361	58.2
1001.524	46.77
1001.687	102.38
1001.849	42.12
1002.012	63.44
1002.174	52.97
1002.337	125.82
1002.499	48.52
1002.661	107.42
1002.824	24.69
1002.986	41.54
1003.149	80.49
1003.311	39.02
1003.473	130.86
1003.636	44.64
1003.798	89.79
1003.96	78.35
1004.123	47.94
1004.285	39.41
1004.447	54.91
1004.609	53.36
1004.771	106.64
1004.933	36.12
1005.096	46.97
1005.258	6.86
1005.42	44.84
1005.582	91.53
1005.744	57.24
1005.906	8.99
1006.068	40.57
1006.23	17.32
1006.392	-4.18
1006.554	24.88
1006.716	79.32
1006.878	85.33
1007.04	29.72
1007.202	43.29
1007.363	62.47
1007.525	54.52
1007.687	70.02
1007.849	70.22
1008.011	-7.09
1008.172	10.54
1008.334	30.5
1008.496	66.15
1008.658	8.02
1008.819	9.96
1008.981	35.15
1009.143	6.28
1009.304	33.79
1009.466	63.05
1009.627	71.19
1009.789	140.35
1009.95	70.99
1010.112	38.64
1010.273	38.06
1010.435	29.92
1010.596	32.05
1010.758	22.94
1010.919	11.32
1011.081	-8.44
1011.242	15.97
1011.403	66.34
1011.565	29.53
1011.726	60.72
1011.887	1.05
1012.049	24.11
1012.21	64.6
1012.371	88.82
1012.532	-25.11
1012.693	46.39
1012.855	31.27
1013.016	32.24
1013.177	76.61
1013.338	39.61
1013.499	101.8
1013.66	39.99
1013.821	70.99
1013.982	45.42
1014.143	56.65
1014.304	41.16
1014.465	70.99
1014.626	79.71
1014.787	20.62
1014.948	161.67
1015.109	-36.73
1015.27	82.42
1015.431	35.15
1015.592	28.76
1015.752	90.75
1015.913	39.8
1016.074	53.55
1016.235	19.84
1016.395	28.17
1016.556	27.59
1016.717	50.46
1016.877	101.41
1017.038	6.09
1017.199	23.14
1017.359	45.81
1017.52	58.4
1017.681	-0.31
1017.841	54.33
1018.002	32.24
1018.162	10.35
1018.323	72.15
1018.483	20.23
1018.644	32.05
1018.804	18.49
1018.964	25.07
1019.125	-4.96
1019.285	42.12
1019.446	14.03
1019.606	-16.19
1019.766	-28.21
1019.926	39.61
1020.087	46.58
1020.247	-38.67
1020.407	63.24
1020.567	49.87
1020.728	29.34
1020.888	-1.28
1021.048	10.54
1021.208	21.59
1021.368	-6.51
1021.528	61.5
1021.688	70.02
1021.848	33.79
1022.008	43.09
1022.168	20.62
1022.328	46
1022.488	47.55
1022.648	3.76
1022.808	29.53
1022.968	49.1
1023.128	8.22
1023.288	30.5
1023.448	-15.03
1023.608	77.97
1023.767	26.43
1023.927	13.26
1024.087	-17.94
1024.247	-24.14
1024.406	1.05
1024.566	-5.15
1024.726	-15.42
1024.885	52.59
1025.045	27.79
1025.205	-2.24
1025.364	12.09
1025.524	55.69
1025.683	22.36
1025.843	40.19
1026.003	21.59
1026.162	39.41
1026.321	44.45
1026.481	33.79
1026.64	25.07
1026.8	10.35
1026.959	17.32
1027.119	50.46
1027.278	-12.13
1027.437	-9.99
1027.597	19.26
1027.756	31.27
1027.915	33.99
1028.074	41.93
1028.234	-2.83
1028.393	23.33
1028.552	4.73
1028.711	-42.93
1028.87	57.62
1029.03	-27.04
1029.189	-3.6
1029.348	-39.64
1029.507	-11.16
1029.666	21.01
1029.825	-27.43
1029.984	-12.13
1030.143	50.46
1030.302	-1.47
1030.461	-63.27
1030.62	13.84
1030.779	45.03
1030.938	-21.43
1031.097	-43.9
1031.255	27.59
1031.414	66.15
1031.573	86.3
1031.732	-33.24
1031.891	-9.41
1032.049	70.6
1032.208	-2.05
1032.367	-0.11
1032.525	-1.08
1032.684	-22.59
1032.843	30.69
1033.001	-49.91
1033.16	171.55
1033.319	69.64
1033.477	44.45
1033.636	-4.18
1033.794	-47.58
1033.953	68.67
1034.111	25.46
1034.27	-13.87
1034.428	51.23
1034.587	-29.37
1034.745	-0.69
1034.903	10.54
1035.062	29.53
1035.22	-43.32
1035.378	52.39
1035.537	-36.92
1035.695	39.41
1035.853	17.52
1036.011	52.78
1036.17	27.21
1036.328	-61.34
1036.486	41.93
1036.644	25.27
1036.802	-80.71
1036.96	-28.4
1037.119	14.22
1037.277	-11.35
1037.435	-8.25
1037.593	-17.94
1037.751	32.24
1037.909	27.98
1038.067	27.98
