Data from gum_old_FLMT105791__90__15-44-18-256.txt Node

Date: Mon Mar 20 15:44:18 GMT 2023
User: antho
Spectrometer: FLMT10579
Trigger mode: 0
Integration Time (sec): 1.000000E-1
Scans to average: 10
Electric dark correction enabled: true
Nonlinearity correction enabled: false
Boxcar width: 0
XAxis mode: Wavelengths
Number of Pixels in Spectrum: 3648
>>>>>Begin Spectral Data<<<<<
345.248	-173.02
345.464	-173.02
345.681	-173.02
345.898	-179.8
346.114	-186.77
346.331	-43.4
346.548	22.28
346.764	-3.68
346.981	11.24
347.197	-30.22
347.414	10.27
347.631	-23.25
347.847	58.12
348.064	2.32
348.28	45.14
348.497	-40.69
348.713	-8.14
348.93	27.12
349.146	34.49
349.363	1.94
349.579	30.42
349.796	2.71
350.012	13.56
350.229	47.08
350.445	46.11
350.661	-0.97
350.878	14.72
351.094	36.81
351.311	49.99
351.527	37.2
351.743	22.28
351.96	52.7
352.176	75.76
352.392	64.52
352.609	48.24
352.825	7.75
353.041	37.2
353.257	31.58
353.474	21.51
353.69	27.9
353.906	17.63
354.122	10.27
354.339	81.76
354.555	34.29
354.771	40.11
354.987	78.47
355.203	96.68
355.42	16.66
355.636	18.21
355.852	2.52
356.068	33.71
356.284	15.69
356.5	101.52
356.716	35.46
356.932	36.42
357.148	44.37
357.364	10.85
357.58	31
357.796	62.77
358.012	64.91
358.228	18.21
358.444	-26.16
358.66	96.68
358.876	46.69
359.092	16.47
359.308	59.48
359.524	38.17
359.74	29.06
359.956	29.26
360.172	36.81
360.388	79.82
360.604	-2.91
360.819	127.68
361.035	48.44
361.251	81.76
361.467	21.31
361.683	91.84
361.898	60.06
362.114	46.11
362.33	47.47
362.546	80.99
362.762	44.17
362.977	56.38
363.193	12.4
363.409	98.62
363.624	12.4
363.84	43.21
364.056	31.58
364.271	78.47
364.487	43.01
364.703	74.21
364.918	26.35
365.134	47.08
365.35	38.94
365.565	136.4
365.781	75.76
365.996	65.49
366.212	129.42
366.427	66.46
366.643	36.62
366.858	26.16
367.074	40.3
367.289	113.73
367.505	139.69
367.72	25.38
367.936	71.49
368.151	93.77
368.367	104.62
368.582	68.59
368.798	53.28
369.013	124
369.228	73.62
369.444	68.78
369.659	119.74
369.874	80.99
370.09	97.84
370.305	28.09
370.52	54.44
370.736	107.72
370.951	84.67
371.166	109.47
371.381	132.91
371.597	130.97
371.812	48.44
372.027	47.47
372.242	66.46
372.458	137.17
372.673	56.38
372.888	59.67
373.103	77.5
373.318	153.84
373.533	75.95
373.749	85.83
373.964	12.21
374.179	116.05
374.394	52.89
374.609	121.87
374.824	15.69
375.039	103.07
375.254	50.76
375.469	114.31
375.684	93.58
375.899	125.35
376.114	72.66
376.329	70.52
376.544	131.75
376.759	111.99
376.974	46.5
377.189	66.84
377.404	71.11
377.619	117.8
377.834	47.08
378.049	23.25
378.264	43.59
378.478	100.36
378.693	64.71
378.908	114.31
379.123	79.24
379.338	124.58
379.553	88.93
379.767	106.95
379.982	122.45
380.197	105.79
380.412	70.14
380.626	94.94
380.841	187.55
381.056	129.42
381.271	185.61
381.485	60.84
381.7	58.32
381.915	110.05
382.129	68.59
382.344	68.01
382.559	73.43
382.773	120.9
382.988	24.41
383.202	86.41
383.417	48.63
383.632	147.64
383.846	74.01
384.061	56.19
384.275	48.05
384.49	105.4
384.704	102.69
384.919	122.06
385.133	132.33
385.348	132.33
385.562	54.44
385.777	143.57
385.991	115.28
386.206	74.98
386.42	89.9
386.634	136.59
386.849	96.29
387.063	128.07
387.277	104.62
387.492	69.17
387.706	83.7
387.92	74.01
388.135	137.17
388.349	112.18
388.563	131.17
388.778	109.66
388.992	144.73
389.206	115.28
389.42	195.49
389.635	110.24
389.849	148.41
390.063	155.39
390.277	136.01
390.491	216.8
390.706	166.43
390.92	179.6
391.134	124
391.348	190.45
391.562	112.18
391.776	151.9
391.99	140.66
392.205	159.45
392.419	127.87
392.633	138.14
392.847	175.53
393.061	92.22
393.275	202.66
393.489	113.34
393.703	97.45
393.917	136.98
394.131	74.4
394.345	98.23
394.559	153.84
394.773	106.56
394.986	173.99
395.2	143.37
395.414	209.63
395.628	141.05
395.842	167.4
396.056	166.04
396.27	101.33
396.484	175.34
396.697	158.49
396.911	193.17
397.125	147.83
397.339	170.5
397.553	139.11
397.766	176.5
397.98	178.25
398.194	193.75
398.408	176.31
398.621	248.77
398.835	235.6
399.049	205.57
399.262	285.97
399.476	249.35
399.69	239.86
399.903	322.2
400.117	234.24
400.331	263.69
400.544	193.55
400.758	342.93
400.971	282.87
401.185	288.68
401.398	195.68
401.612	320.26
401.826	286.16
402.039	291.2
402.253	237.53
402.466	317.55
402.68	240.83
402.893	290.04
403.106	290.23
403.32	291.2
403.533	311.35
403.747	258.46
403.96	288.88
404.174	291.78
404.387	239.86
404.6	285.2
404.814	328.4
405.027	298.37
405.24	272.99
405.454	273.57
405.667	330.53
405.88	232.5
406.094	310.58
406.307	313.1
406.52	302.25
406.733	252.65
406.947	241.8
407.16	342.35
407.373	319.1
407.586	268.92
407.799	255.36
408.012	338.09
408.226	303.99
408.439	338.48
408.652	242.38
408.865	319.3
409.078	363.28
409.291	343.32
409.504	302.63
409.717	367.93
409.93	362.31
410.143	336.35
410.357	261.37
410.57	262.33
410.783	292.17
410.996	312.13
411.209	305.54
411.421	394.86
411.634	317.55
411.847	334.8
412.06	370.83
412.273	347.78
412.486	365.41
412.699	423.73
412.912	371.99
413.125	348.75
413.338	353.2
413.55	360.76
413.763	355.14
413.976	360.76
414.189	328.01
414.402	326.85
414.615	435.74
414.827	349.71
415.04	379.94
415.253	373.74
415.466	402.03
415.678	414.04
415.891	359.21
416.104	369.48
416.316	345.06
416.529	350.29
416.742	421.01
416.954	414.81
417.167	389.63
417.38	356.49
417.592	421.98
417.805	346.61
418.017	298.56
418.23	416.36
418.442	354.94
418.655	333.63
418.868	400.67
419.08	405.13
419.293	408.42
419.505	418.3
419.718	408.61
419.93	411.71
420.142	379.16
420.355	446.97
420.567	442.52
420.78	397.38
420.992	371.41
421.205	441.16
421.417	379.94
421.629	376.06
421.842	407.26
422.054	373.54
422.266	427.02
422.479	471.77
422.691	393.31
422.903	452.98
423.115	399.51
423.328	391.76
423.54	392.14
423.752	391.37
423.964	387.3
424.177	411.52
424.389	405.51
424.601	534.74
424.813	423.34
425.025	464.02
425.238	458.79
425.45	427.99
425.662	421.79
425.874	718.03
426.086	402.03
426.298	456.27
426.51	439.42
426.722	421.59
426.934	411.91
427.146	455.31
427.358	374.13
427.57	448.91
427.782	416.56
427.994	424.11
428.206	393.89
428.418	396.99
428.63	440.58
428.842	464.8
429.054	461.12
429.266	466.54
429.478	402.22
429.69	414.81
429.902	357.08
430.114	444.65
430.325	386.53
430.537	377.61
430.749	353.2
430.961	290.04
431.173	346.23
431.384	383.23
431.596	277.45
431.808	384.98
432.02	426.24
432.231	470.42
432.443	548.5
432.655	487.66
432.867	431.86
433.078	482.43
433.29	523.51
433.502	511.69
433.713	541.33
433.925	513.24
434.136	559.15
434.348	471.19
434.56	416.56
434.771	565.35
434.983	404.35
435.194	441.16
435.406	469.84
435.617	542.3
435.829	569.04
436.04	526.99
436.252	547.53
436.463	577.95
436.675	566.71
436.886	581.05
437.098	570.59
437.309	630.07
437.521	579.69
437.732	559.93
437.943	562.64
438.155	553.54
438.366	479.52
438.578	600.23
438.789	545.59
439	550.05
439.211	514.21
439.423	544.62
439.634	542.88
439.845	559.93
440.057	575.43
440.268	617.08
440.479	562.45
440.69	564.97
440.902	527.38
441.113	556.25
441.324	549.85
441.535	607.2
441.746	654.67
441.957	576.98
442.168	593.64
442.38	630.45
442.591	660.87
442.802	586.67
443.013	611.47
443.224	636.85
443.435	602.17
443.646	612.82
443.857	597.32
444.068	592.87
444.279	560.7
444.49	703.5
444.701	628.9
444.912	749.8
445.123	691.29
445.334	669.4
445.545	658.74
445.756	634.13
445.967	576.4
446.178	647.31
446.388	653.9
446.599	654.28
446.81	630.65
447.021	606.43
447.232	687.8
447.443	729.07
447.653	654.67
447.864	708.53
448.075	706.21
448.286	708.73
448.496	691.48
448.707	729.85
448.918	666.49
449.129	771.7
449.339	660.1
449.55	710.86
449.761	699.81
449.971	749.8
450.182	712.8
450.393	722.68
450.603	701.56
450.814	738.95
451.024	741.08
451.235	801.14
451.446	818.97
451.656	801.34
451.867	706.4
452.077	743.8
452.288	839.31
452.498	771.11
452.709	720.16
452.919	731.2
453.13	705.43
453.34	737.21
453.55	672.88
453.761	755.42
453.971	720.16
454.182	742.05
454.392	744.38
454.602	796.69
454.813	770.15
455.023	757.36
455.233	694.78
455.444	736.24
455.654	686.25
455.864	734.11
456.075	716.09
456.285	737.01
456.495	734.69
456.705	769.76
456.916	796.11
457.126	829.82
457.336	764.33
457.546	692.26
457.756	736.63
457.967	816.26
458.177	756
458.387	792.62
458.597	765.5
458.807	769.56
459.017	761.04
459.227	747.48
459.437	736.63
459.647	794.75
459.857	805.02
460.068	773.83
460.278	833.11
460.488	802.11
460.698	855.39
460.908	732.95
461.117	734.3
461.327	780.03
461.537	808.31
461.747	838.54
461.957	819.74
462.167	932.51
462.377	820.33
462.587	804.24
462.797	913.71
463.007	835.05
463.216	872.44
463.426	899.18
463.636	876.9
463.846	788.16
464.056	815.09
464.265	852.29
464.475	808.7
464.685	852.29
464.895	842.61
465.104	823.81
465.314	835.05
465.524	816.06
465.733	787.19
465.943	925.72
466.153	907.9
466.362	893.37
466.572	855.2
466.782	868.76
466.991	885.62
467.201	921.66
467.41	797.46
467.62	856.94
467.829	870.51
468.039	895.11
468.249	893.76
468.458	878.45
468.668	884.46
468.877	894.34
469.086	946.46
469.296	937.16
469.505	896.86
469.715	995.28
469.924	925.34
470.134	943.16
470.343	974.16
470.552	919.72
470.762	881.36
470.971	892.98
471.18	903.83
471.39	892.98
471.599	886.01
471.808	948.97
472.018	901.89
472.227	998.38
472.436	1023.95
472.645	987.53
472.855	969.32
473.064	1070.65
473.273	1035
473.482	1014.07
473.691	1021.82
473.901	1026.67
474.11	988.5
474.319	1078.98
474.528	1050.11
474.737	1080.33
474.946	1050.11
475.155	1073.75
475.364	1111.33
475.573	1060.57
475.783	1123.15
475.992	1108.04
476.201	1072.78
476.41	1100.87
476.619	1039.07
476.828	1088.28
477.037	1064.45
477.245	1084.4
477.454	1159.19
477.663	1082.66
477.872	1097.77
478.081	1188.83
478.29	1106.49
478.499	1231.07
478.708	1199.49
478.917	1241.92
479.125	1171.01
479.334	1146.4
479.543	1161.32
479.752	1194.45
479.961	1199.88
480.169	1235.91
480.378	1236.49
480.587	1357.01
480.796	1286.48
481.004	1231.84
481.213	1287.84
481.422	1269.63
481.63	1283.96
481.839	1315.74
482.048	1361.07
482.256	1290.94
482.465	1357.01
482.674	1301.98
482.882	1342.28
483.091	1379.67
483.299	1312.44
483.508	1362.04
483.716	1358.75
483.925	1389.36
484.134	1318.06
484.342	1349.26
484.551	1395.56
484.759	1348.09
484.967	1406.6
485.176	1388.39
485.384	1403.5
485.593	1417.65
485.801	1369.41
486.01	1350.42
486.218	1289.58
486.426	1193.68
486.635	1209.18
486.843	1189.03
487.051	1215.57
487.26	1230.68
487.468	1316.32
487.676	1290.36
487.885	1307.99
488.093	1372.7
488.301	1421.52
488.509	1389.56
488.717	1440.7
488.926	1466.28
489.134	1444.77
489.342	1430.24
489.55	1415.32
489.758	1444.58
489.967	1446.32
490.175	1548.43
490.383	1493.98
490.591	1575.75
490.799	1488.75
491.007	1567.03
491.215	1524.4
491.423	1547.27
491.631	1506.19
491.839	1492.24
492.047	1546.1
492.255	1459.11
492.463	1417.07
492.671	1433.34
492.879	1498.05
493.087	1478.29
493.295	1534.87
493.503	1562.77
493.711	1602.29
493.919	1586.21
494.127	1587.18
494.334	1622.44
494.542	1540.68
494.75	1599.19
494.958	1615.85
495.166	1665.26
495.374	1617.21
495.581	1646.46
495.789	1660.41
495.997	1729.97
496.205	1631.55
496.412	1624.18
496.62	1659.06
496.828	1648.4
497.035	1646.66
497.243	1675.33
497.451	1685.21
497.658	1715.24
497.866	1694.32
498.074	1738.88
498.281	1676.49
498.489	1722.8
498.696	1669.52
498.904	1637.36
499.112	1597.25
499.319	1741.21
499.527	1681.14
499.734	1725.51
499.942	1647.63
500.149	1667.19
500.357	1700.71
500.564	1637.75
500.771	1697.23
500.979	1613.14
501.186	1604.42
501.394	1655.76
501.601	1623.8
501.808	1663.71
502.016	1678.82
502.223	1645.5
502.43	1653.25
502.638	1614.3
502.845	1631.55
503.052	1722.03
503.26	1671.46
503.467	1769.49
503.674	1708.27
503.881	1740.04
504.089	1824.52
504.296	1739.66
504.503	1649.56
504.71	1671.07
504.917	1697.81
505.125	1725.9
505.332	1743.73
505.539	1757.48
505.746	1812.89
505.953	1805.14
506.16	1788.67
506.367	1855.9
506.574	1834.79
506.781	1879.54
506.988	1821.42
507.195	1780.15
507.402	1800.88
507.609	1832.07
507.816	1789.45
508.023	1756.32
508.23	1744.11
508.437	1701.68
508.644	1805.14
508.851	1848.93
509.058	1827.04
509.265	1809.41
509.472	1852.03
509.679	1926.04
509.885	1823.94
510.092	1863.27
510.299	1847.96
510.506	1816.96
510.713	1889.81
510.92	1830.72
511.126	1878.96
511.333	1879.74
511.54	1930.69
511.746	1936.5
511.953	1955.1
512.16	1954.52
512.367	1893.88
512.573	1927.98
512.78	1859
512.987	1909.96
513.193	1876.44
513.4	1778.6
513.606	1839.05
513.813	1887.29
514.02	1861.33
514.226	1939.8
514.433	1932.43
514.639	1822.58
514.846	1847.96
515.052	1829.94
515.259	1889.04
515.465	1894.07
515.672	1875.67
515.878	1988.82
516.085	1907.05
516.291	1946
516.497	1911.12
516.704	1849.9
516.91	1814.83
517.117	1790.03
517.323	1702.26
517.529	1739.46
517.736	1683.86
517.942	1700.33
518.148	1736.94
518.354	1778.41
518.561	1779.37
518.767	1782.67
518.973	1836.34
519.179	1836.53
519.386	1837.3
519.592	1825.1
519.798	1847.57
520.004	1961.69
520.21	1904.34
520.417	1968.86
520.623	1964.21
520.829	1984.75
521.035	2005.67
521.241	1953.75
521.447	1982.42
521.653	2088.21
521.859	2018.65
522.065	2041.32
522.271	2153.5
522.477	2091.89
522.683	2136.64
522.889	2101.96
523.095	2119.01
523.301	2016.71
523.507	2010.32
523.713	2012.65
523.919	2042.29
524.125	2131.03
524.331	2064.57
524.537	2195.74
524.742	2162.22
524.948	2171.71
525.154	2144.78
525.36	2270.33
525.566	2202.32
525.772	2268.59
525.977	2137.61
526.183	2226.35
526.389	2232.36
526.595	2125.99
526.8	2151.37
527.006	2050.43
527.212	1964.79
527.417	1954.33
527.623	1950.45
527.829	2030.08
528.034	2068.83
528.24	2088.98
528.446	2112.04
528.651	2195.93
528.857	2206.59
529.062	2304.62
529.268	2225.77
529.473	2264.52
529.679	2261.81
529.884	2359.65
530.09	2314.7
530.295	2325.74
530.501	2346.28
530.706	2290.67
530.912	2250.18
531.117	2317.41
531.323	2314.89
531.528	2339.3
531.733	2335.62
531.939	2304.82
532.144	2368.95
532.35	2343.18
532.555	2385.42
532.76	2305.2
532.966	2342.02
533.171	2279.82
533.376	2273.04
533.581	2206.2
533.787	2299.59
533.992	2352.48
534.197	2338.53
534.402	2361.78
534.607	2344.73
534.813	2435.6
535.018	2378.83
535.223	2394.52
535.428	2372.43
535.633	2442.38
535.838	2419.52
536.043	2443.35
536.249	2547.19
536.454	2441.8
536.659	2481.51
536.864	2404.4
537.069	2402.27
537.274	2435.02
537.479	2421.26
537.684	2440.44
537.889	2350.74
538.094	2505.54
538.299	2388.71
538.504	2421.65
538.708	2451.68
538.913	2504.38
539.118	2455.36
539.323	2482.68
539.528	2398.4
539.733	2400.14
539.938	2422.42
540.142	2417.38
540.347	2393.17
540.552	2383.28
540.757	2414.09
540.962	2398.59
541.166	2295.13
541.371	2344.73
541.576	2382.12
541.781	2253.09
541.985	2442.38
542.19	2397.82
542.395	2472.99
542.599	2483.06
542.804	2470.28
543.008	2517.75
543.213	2409.63
543.418	2395.88
543.622	2457.68
543.827	2388.71
544.031	2477.64
544.236	2457.1
544.44	2494.3
544.645	2562.69
544.849	2453.03
545.054	2547.19
545.258	2598.15
545.463	2556.11
545.667	2469.89
545.872	2498.76
546.076	2527.63
546.281	2481.9
546.485	2489.46
546.689	2507.48
546.894	2521.43
547.098	2504.18
547.302	2479.38
547.507	2504.38
547.711	2534.6
547.915	2543.71
548.119	2436.76
548.324	2460.78
548.528	2535.18
548.732	2476.86
548.936	2546.61
549.141	2559.01
549.345	2492.36
549.549	2548.94
549.753	2555.14
549.957	2614.23
550.161	2603.96
550.366	2550.1
550.57	2520.26
550.774	2554.56
550.978	2571.61
551.182	2569.28
551.386	2481.71
551.59	2547.97
551.794	2530.73
551.998	2542.54
552.202	2515.23
552.406	2498.37
552.61	2554.36
552.814	2521.04
553.018	2625.86
553.222	2551.26
553.426	2538.09
553.63	2626.05
553.833	2568.89
554.037	2457.3
554.241	2555.72
554.445	2569.86
554.649	2523.95
554.853	2531.7
555.056	2548.94
555.26	2590.4
555.464	2548.16
555.668	2595.44
555.871	2575.09
556.075	2576.64
556.279	2542.74
556.483	2487.13
556.686	2545.45
556.89	2541.19
557.094	2517.16
557.297	2447.22
557.501	2553.39
557.704	2408.86
557.908	2513.48
558.112	2443.15
558.315	2543.13
558.519	2477.64
558.722	2447.41
558.926	2462.53
559.129	2387.16
559.333	2372.82
559.536	2393.36
559.74	2357.52
559.943	2358.29
560.147	2365.85
560.35	2392.78
560.553	2391.62
560.757	2357.71
560.96	2435.21
561.164	2378.44
561.367	2482.48
561.57	2422.23
561.774	2436.57
561.977	2430.75
562.18	2415.25
562.384	2514.65
562.587	2391.23
562.79	2393.55
562.993	2400.53
563.197	2398.78
563.4	2460.01
563.603	2438.89
563.806	2512.9
564.009	2375.73
564.212	2432.69
564.416	2300.17
564.619	2377.08
564.822	2331.36
565.025	2427.07
565.228	2359.65
565.431	2350.15
565.634	2247.27
565.837	2307.34
566.04	2281.95
566.243	2260.06
566.446	2186.24
566.649	2287.96
566.852	2230.81
567.055	2249.21
567.258	2292.22
567.461	2334.27
567.664	2303.27
567.867	2214.14
568.07	2294.94
568.273	2297.07
568.475	2302.88
568.678	2263.55
568.881	2265.87
569.084	2275.37
569.287	2133.54
569.489	2193.61
569.692	2241.46
569.895	2235.46
570.098	2181.01
570.3	2194.19
570.503	2106.23
570.706	2136.06
570.909	2116.11
571.111	2064.57
571.314	2064.57
571.516	2087.43
571.719	2089.18
571.922	2086.85
572.124	2092.47
572.327	2143.23
572.529	2061.86
572.732	2090.73
572.935	2176.36
573.137	2237.97
573.34	2131.99
573.542	2127.54
573.745	2147.88
573.947	2137.42
574.15	2104.87
574.352	2097.31
574.554	2195.93
574.757	2093.44
574.959	2052.95
575.162	2045.39
575.364	2043.65
575.566	2147.88
575.769	2013.03
575.971	2069.03
576.173	1911.51
576.376	2033.57
576.578	2058.18
576.78	2102.93
576.982	1975.45
577.185	2018.46
577.387	1970.8
577.589	2004.9
577.791	2063.41
577.993	2038.41
578.196	1990.56
578.398	2039.96
578.6	2027.76
578.802	1940.96
579.004	1934.95
579.206	1925.85
579.408	2009.16
579.61	1925.46
579.812	2024.66
580.014	1954.33
580.216	1946
580.418	1975.06
580.62	1931.08
580.822	1927.98
581.024	1965.95
581.226	1989.59
581.428	1930.3
581.63	2045.58
581.832	1924.49
582.034	1985.33
582.236	1982.23
582.438	2011.87
582.64	2015.94
582.841	2052.95
583.043	2062.63
583.245	1985.72
583.447	2003.54
583.649	1989.59
583.85	1968.28
584.052	2049.46
584.254	1969.83
584.456	2001.41
584.657	1919.84
584.859	1958.98
585.061	1954.33
585.262	1915.39
585.464	1930.88
585.666	1970.22
585.867	1930.3
586.069	2003.35
586.27	1942.32
586.472	1908.22
586.674	1927.01
586.875	1916.94
587.077	1888.84
587.278	1957.62
587.48	1904.73
587.681	2013.61
587.883	1989.78
588.084	1884
588.285	1886.52
588.487	1877.8
588.688	1910.93
588.89	1829.36
589.091	1779.76
589.292	1802.82
589.494	1750.31
589.695	1721.64
589.896	1676.3
590.098	1659.06
590.299	1689.48
590.5	1694.32
590.702	1682.31
590.903	1738.49
591.104	1826.84
591.305	1792.94
591.507	1844.67
591.708	1814.83
591.909	1773.17
592.11	1864.82
592.311	1822.19
592.512	1749.54
592.714	1752.06
592.915	1759.03
593.116	1752.25
593.317	1795.26
593.518	1764.84
593.719	1800.11
593.92	1826.46
594.121	1862.88
594.322	1797.59
594.523	1786.74
594.724	1763.29
594.925	1810.37
595.126	1784.99
595.327	1812.7
595.528	1775.31
595.729	1757.67
595.929	1763.29
596.13	1771.04
596.331	1766.01
596.532	1793.91
596.733	1837.69
596.934	1826.46
597.135	1810.96
597.335	1827.62
597.536	1773.37
597.737	1802.62
597.938	1778.79
598.138	1829.75
598.339	1809.6
598.54	1793.52
598.74	1769.3
598.941	1790.22
599.142	1845.44
599.342	1796.23
599.543	1708.08
599.744	1794.49
599.944	1768.91
600.145	1773.17
600.345	1767.75
600.546	1820.64
600.746	1831.3
600.947	1851.25
601.147	1740.82
601.348	1800.88
601.548	1708.27
601.749	1748.18
601.949	1712.14
602.15	1720.09
602.35	1732.68
602.551	1785.19
602.751	1710.21
602.951	1726.87
603.152	1636.97
603.352	1784.22
603.552	1718.73
603.753	1764.65
603.953	1805.92
604.153	1786.74
604.354	1734.43
604.554	1747.41
604.754	1753.61
604.954	1720.48
605.155	1753.61
605.355	1732.49
605.555	1790.81
605.755	1792.55
605.955	1770.27
606.155	1780.73
606.356	1748.96
606.556	1773.56
606.756	1743.53
606.956	1664.29
607.156	1765.81
607.356	1694.32
607.556	1755.35
607.756	1740.82
607.956	1755.54
608.156	1716.21
608.356	1700.13
608.556	1751.86
608.756	1684.63
608.956	1678.04
609.156	1699.94
609.356	1648.6
609.556	1660.61
609.755	1703.04
609.955	1637.94
610.155	1669.71
610.355	1679.79
610.555	1631.55
610.755	1669.33
610.954	1569.74
611.154	1679.59
611.354	1645.3
611.554	1621.86
611.753	1645.5
611.953	1586.21
612.153	1671.26
612.352	1641.62
612.552	1578.85
612.752	1549.78
612.951	1598.41
613.151	1615.85
613.351	1584.66
613.55	1617.21
613.75	1658.28
613.949	1581.56
614.149	1604.03
614.348	1609.65
614.548	1532.93
614.747	1519.95
614.947	1532.93
615.146	1504.83
615.346	1624.18
615.545	1571.87
615.745	1607.13
615.944	1589.11
616.144	1568
616.343	1555.79
616.542	1538.74
616.742	1516.07
616.941	1492.43
617.14	1476.35
617.34	1487.2
617.539	1499.99
617.738	1507.16
617.938	1567.8
618.137	1553.85
618.336	1480.81
618.535	1554.43
618.734	1492.24
618.934	1531.38
619.133	1568.38
619.332	1536.61
619.531	1500.77
619.73	1530.02
619.929	1566.25
620.128	1562.18
620.328	1611.98
620.527	1518.78
620.726	1522.47
620.925	1540.48
621.124	1530.02
621.323	1566.25
621.522	1471.9
621.721	1511.23
621.92	1515.49
622.119	1515.88
622.318	1467.25
622.517	1496.31
622.715	1520.72
622.914	1444.58
623.113	1515.3
623.312	1422.88
623.511	1498.25
623.71	1470.93
623.909	1422.69
624.107	1504.45
624.306	1440.32
624.505	1410.87
624.704	1439.15
624.902	1427.53
625.101	1508.52
625.3	1478.68
625.499	1439.74
625.697	1437.02
625.896	1413
626.095	1443.03
626.293	1379.29
626.492	1410.87
626.69	1438.77
626.889	1379.09
627.088	1485.27
627.286	1408.54
627.485	1414.55
627.683	1390.72
627.882	1413.19
628.08	1327.56
628.279	1399.24
628.477	1468.02
628.676	1369.99
628.874	1426.75
629.073	1365.92
629.271	1349.84
629.469	1399.44
629.668	1390.52
629.866	1378.71
630.065	1331.43
630.263	1426.75
630.461	1341.12
630.66	1359.91
630.858	1393.82
631.056	1405.64
631.254	1415.13
631.453	1332.4
631.651	1380.84
631.849	1393.04
632.047	1364.17
632.245	1348.67
632.444	1373.28
632.642	1376.57
632.84	1400.79
633.038	1340.73
633.236	1306.05
633.434	1351.97
633.632	1340.92
633.83	1329.88
634.028	1385.68
634.227	1368.24
634.425	1436.05
634.623	1355.84
634.821	1386.65
635.019	1384.13
635.216	1367.27
635.414	1391.11
635.612	1362.43
635.81	1356.62
636.008	1449.04
636.206	1345.19
636.404	1384.32
636.602	1342.86
636.8	1353.71
636.997	1396.34
637.195	1383.36
637.393	1332.79
637.591	1438.19
637.789	1400.99
637.986	1399.63
638.184	1391.49
638.382	1414.16
638.58	1400.02
638.777	1431.21
638.975	1364.17
639.173	1375.99
639.37	1381.22
639.568	1387.62
639.765	1394.59
639.963	1341.7
640.161	1393.04
640.358	1371.73
640.556	1285.71
640.753	1301.98
640.951	1281.25
641.148	1331.62
641.346	1310.7
641.543	1326.01
641.741	1322.71
641.938	1297.91
642.136	1296.56
642.333	1212.08
642.531	1345.77
642.728	1359.91
642.925	1325.81
643.123	1265.94
643.32	1280.09
643.517	1276.6
643.715	1332.79
643.912	1250.06
644.109	1311.47
644.306	1276.99
644.504	1245.99
644.701	1249.09
644.898	1311.67
645.095	1216.93
645.293	1265.94
645.49	1250.83
645.687	1327.17
645.884	1305.47
646.081	1199.49
646.278	1239.01
646.475	1227.78
646.672	1242.69
646.87	1263.23
647.067	1255.87
647.264	1225.26
647.461	1223.13
647.658	1179.34
647.855	1240.95
648.052	1222.16
648.249	1116.37
648.446	1175.85
648.642	1202.98
648.839	1155.9
649.036	1206.85
649.233	1147.37
649.43	1136.71
649.627	1124.51
649.824	1121.99
650.021	1157.83
650.217	1165.39
650.414	1143.5
650.611	1159.38
650.808	1186.12
651.004	1205.5
651.201	1221
651.398	1201.23
651.595	1173.53
651.791	1156.67
651.988	1219.83
652.185	1126.83
652.381	1176.43
652.578	1100.87
652.775	1168.1
652.971	1152.02
653.168	1163.06
653.364	1182.83
653.561	1112.11
653.757	1158.61
653.954	1176.05
654.15	1123.35
654.347	1217.51
654.543	1169.46
654.74	1091.57
654.936	1067.74
655.133	1125.67
655.329	1120.05
655.525	1137.1
655.722	1132.07
655.918	1086.92
656.115	1097.19
656.311	1023.18
656.507	1000.12
656.704	921.27
656.9	980.55
657.096	963.7
657.292	954.98
657.489	1058.25
657.685	1059.99
657.881	1029.77
658.077	1007.87
658.273	1081.11
658.47	1157.64
658.666	1078.59
658.862	1092.15
659.058	1026.67
659.254	1107.46
659.45	1061.54
659.646	1095.83
659.842	1103.39
660.038	1152.8
660.234	1023.37
660.43	1080.53
660.626	1173.53
660.822	1123.93
661.018	1158.41
661.214	1086.34
661.41	1058.44
661.606	1118.89
661.802	1147.76
661.998	1105.52
662.194	1088.28
662.39	1129.74
662.586	1139.62
662.781	1126.25
662.977	1128.77
663.173	1155.12
663.369	1099.9
663.564	1132.65
663.76	1120.44
663.956	1115.6
664.152	1163.65
664.347	1071.03
664.543	1081.3
664.739	1135.94
664.934	1052.43
665.13	1036.16
665.326	1117.73
665.521	1094.48
665.717	1057.67
665.912	1070.07
666.108	998.96
666.304	1078.4
666.499	1073.17
666.695	999.74
666.89	1080.53
667.086	1120.05
667.281	1086.53
667.477	1158.41
667.672	1094.87
667.867	1057.28
668.063	1087.31
668.258	1044.69
668.454	1084.4
668.649	1130.71
668.844	1066
669.04	1117.53
669.235	1067.74
669.43	1073.36
669.626	1024.73
669.821	1019.11
670.016	1032.29
670.211	1070.45
670.407	1012.14
670.602	1055.15
670.797	1055.34
670.992	1101.45
671.187	1033.84
671.382	1103
671.578	1028.6
671.773	1061.54
671.968	972.8
672.163	1050.88
672.358	1069.48
672.553	1008.65
672.748	1004.97
672.943	1134
673.138	1038.29
673.333	1057.08
673.528	1001.29
673.723	1076.27
673.918	1010.97
674.113	983.85
674.308	1127.8
674.503	1057.67
674.698	1053.02
674.892	1030.15
675.087	1048.75
675.282	1067.55
675.477	1009.23
675.672	1042.17
675.867	1023.95
676.061	982.69
676.256	990.24
676.451	1002.45
676.646	1030.74
676.84	983.07
677.035	960.99
677.23	957.89
677.424	1022.21
677.619	1038.87
677.814	1069.1
678.008	1052.24
678.203	973.58
678.397	996.05
678.592	994.12
678.787	1066.38
678.981	1002.06
679.176	1037.9
679.37	1022.79
679.565	978.42
679.759	1002.25
679.954	1049.14
680.148	1059.8
680.342	1091.18
680.537	1056.89
680.731	1002.45
680.926	1016.98
681.12	1057.86
681.314	1038.29
681.509	1010.78
681.703	1002.64
681.897	1017.37
682.092	1007.68
682.286	990.05
682.48	1059.41
682.674	1067.93
682.869	991.02
683.063	1012.14
683.257	1079.56
683.451	980.55
683.645	1015.62
683.839	1041.39
684.034	1025.89
684.228	1042.55
684.422	961.57
684.616	985.4
684.81	1028.22
685.004	989.08
685.198	957.5
685.392	1019.11
685.586	958.66
685.78	974.74
685.974	1001.29
686.168	984.04
686.362	1050.69
686.556	923.4
686.75	910.22
686.944	911.77
687.138	914.87
687.331	787.97
687.525	875.16
687.719	737.21
687.913	843.38
688.107	830.79
688.301	803.86
688.494	848.61
688.688	789.52
688.882	820.33
689.076	794.17
689.269	835.63
689.463	922.04
689.657	837.38
689.85	822.65
690.044	838.54
690.238	856.17
690.431	839.7
690.625	840.28
690.818	877.87
691.012	860.24
691.205	917.2
691.399	842.61
691.593	905.19
691.786	919.14
691.98	955.56
692.173	956.53
692.366	957.89
692.56	968.15
692.753	987.72
692.947	873.03
693.14	987.34
693.333	951.3
693.527	924.76
693.72	950.52
693.914	953.24
694.107	951.69
694.3	926.11
694.493	933.09
694.687	1019.3
694.88	919.14
695.073	1009.62
695.266	993.73
695.46	993.15
695.653	1024.34
695.846	1004.19
696.039	927.08
696.232	977.65
696.425	1035
696.618	1016.2
696.812	1015.62
697.005	1138.46
697.198	1167.33
697.391	1101.26
697.584	1108.04
697.777	1165.97
697.97	1113.85
698.163	1136.33
698.356	1138.46
698.549	1248.31
698.742	1179.73
698.935	1106.68
699.127	1192.13
699.32	1130.71
699.513	1149.5
699.706	1183.21
699.899	1169.26
700.092	1161.51
700.285	1184.18
700.477	1150.86
700.67	1203.17
700.863	1213.05
701.056	1309.15
701.248	1263.43
701.441	1277.38
701.634	1255.29
701.826	1369.79
702.019	1239.21
702.212	1316.32
702.404	1258
702.597	1268.46
702.79	1299.85
702.982	1294.04
703.175	1393.24
703.367	1397.5
703.56	1366.31
703.752	1455.04
703.945	1393.24
704.137	1419
704.33	1463.76
704.522	1458.92
704.715	1457.37
704.907	1488.37
705.1	1537.19
705.292	1540.29
705.484	1530.6
705.677	1580.4
705.869	1564.51
706.061	1638.71
706.254	1638.71
706.446	1625.93
706.638	1618.56
706.831	1684.44
707.023	1598.41
707.215	1718.34
707.407	1695.87
707.599	1698.97
707.792	1773.17
707.984	1743.34
708.176	1810.96
708.368	1740.43
708.56	1776.27
708.752	1784.8
708.944	1779.96
709.136	1827.04
709.329	1797.01
709.521	1909.77
709.713	1879.93
709.905	1918.49
710.097	1977.38
710.289	1896.2
710.481	1927.78
710.672	1964.6
710.864	1974.09
711.056	2007.03
711.248	2025.63
711.44	2008.38
711.632	1992.11
711.824	2049.46
712.016	2076.97
712.207	2087.05
712.399	2074.84
712.591	2156.41
712.783	2158.15
712.975	2156.79
713.166	2091.11
713.358	2165.13
713.55	2221.89
713.741	2227.51
713.933	2195.16
714.125	2215.69
714.316	2211.82
714.508	2300.75
714.7	2277.11
714.891	2275.95
715.083	2348.02
715.274	2284.28
715.466	2314.5
715.657	2362.94
715.849	2257.16
716.04	2326.52
716.232	2280.21
716.423	2348.41
716.615	2277.69
716.806	2251.15
716.998	2230.81
717.189	2179.66
717.381	2113.01
717.572	2069.41
717.763	2100.8
717.955	2096.15
718.146	2084.33
718.337	2020.2
718.528	1970.41
718.72	1932.82
718.911	1973.12
719.102	1953.75
719.293	1998.12
719.485	1985.52
719.676	1942.12
719.867	1941.35
720.058	1915.58
720.249	1997.34
720.44	1976.61
720.632	2032.02
720.823	2068.25
721.014	2149.24
721.205	2224.99
721.396	2309.66
721.587	2371.08
721.778	2390.07
721.969	2442.38
722.16	2491.98
722.351	2498.56
722.542	2647.94
722.733	2612.1
722.924	2558.82
723.115	2615.2
723.305	2609.19
723.496	2680.3
723.687	2507.67
723.878	2520.46
724.069	2531.89
724.26	2551.26
724.45	2467.56
724.641	2496.05
724.832	2547.39
725.023	2511.55
725.213	2506.31
725.404	2519.68
725.595	2497.98
725.785	2481.13
725.976	2573.16
726.167	2541.96
726.357	2571.99
726.548	2691.73
726.739	2568.31
726.929	2671.58
727.12	2676.04
727.31	2746.56
727.501	2662.09
727.691	2686.89
727.882	2676.04
728.072	2727.38
728.263	2743.65
728.453	2782.6
728.644	2800.81
728.834	2751.21
729.024	2735.52
729.215	2745.79
729.405	2736.49
729.596	2844.6
729.786	2850.6
729.976	2901.75
730.167	2899.43
730.357	2893.03
730.547	2876.76
730.737	2928.1
730.928	2938.95
731.118	3032.34
731.308	2939.15
731.498	2980.8
731.688	3051.91
731.879	3038.54
732.069	3124.17
732.259	3163.5
732.449	3120.11
732.639	3194.31
732.829	3241
733.019	3278.59
733.209	3367.71
733.399	3350.47
733.589	3437.66
733.779	3432.04
733.969	3387.09
734.159	3520
734.349	3557.2
734.539	3575.8
734.729	3563.01
734.919	3625.59
735.109	3683.52
735.299	3592.46
735.488	3667.64
735.678	3603.12
735.868	3667.25
736.058	3645.55
736.248	3634.12
736.437	3573.28
736.627	3589.75
736.817	3734.87
737.007	3638.77
737.196	3700.77
737.386	3709.87
737.576	3644.77
737.765	3778.46
737.955	3682.17
738.144	3857.51
738.334	3792.02
738.524	3724.02
738.713	3763.93
738.903	3758.11
739.092	3833.1
739.282	3838.71
739.471	3813.91
739.661	3793.18
739.85	3864.87
740.04	3791.44
740.229	3846.08
740.419	3930.55
740.608	3867.97
740.797	3879.79
740.987	3995.65
741.176	3894.9
741.365	3903.62
741.555	3888.12
741.744	3979.18
741.933	3931.13
742.123	3943.92
742.312	3942.56
742.501	3996.04
742.69	3999.91
742.88	3920.67
743.069	4032.65
743.258	3976.08
743.447	4070.82
743.636	4050.29
743.825	4020.45
744.014	4058.62
744.204	4074.7
744.393	3952.83
744.582	4107.44
744.771	4176.8
744.96	4062.69
745.149	4079.35
745.338	4048.15
745.527	4106.28
745.716	4067.53
745.905	4010.96
746.094	4103.76
746.283	4092.91
746.471	4110.15
746.66	4162.47
746.849	4134.18
747.038	4172.93
747.227	4072.95
747.416	4114.42
747.604	4075.28
747.793	4093.1
747.982	4104.73
748.171	4114.03
748.359	4189.4
748.548	4145.42
748.737	4132.05
748.926	4107.44
749.114	4011.73
749.303	4118.68
749.491	4082.06
749.68	4015.61
749.869	4159.37
750.057	4097.95
750.246	4074.12
750.434	4080.32
750.623	4120.03
750.811	4053.19
751	4095.82
751.188	4108.41
751.377	4082.45
751.565	4047.57
751.754	4004.95
751.942	4047.96
752.131	4084.39
752.319	4001.85
752.507	4055.52
752.696	4100.66
752.884	4105.89
753.072	4038.08
753.261	4067.72
753.449	4066.37
753.637	4035.75
753.825	4128.56
754.014	4045.25
754.202	4047.96
754.39	4087.87
754.578	4043.31
754.766	3989.84
754.955	3972.01
755.143	4147.16
755.331	4026.65
755.519	4034.2
755.707	4029.94
755.895	4017.35
756.083	3994.49
756.271	3985.96
756.459	4024.71
756.647	4023.74
756.835	3997.97
757.023	3990.81
757.211	3991.39
757.399	3934.42
757.587	3944.5
757.775	3869.71
757.963	3952.64
758.151	3949.34
758.339	3890.83
758.526	3890.64
758.714	3957.67
758.902	3825.93
759.09	3777.88
759.278	3593.43
759.465	3393.87
759.653	3030.98
759.841	2829.87
760.028	2440.25
760.216	2158.73
760.404	2087.05
760.591	1721.83
760.779	1523.24
760.967	1387.04
761.154	1224.87
761.342	1242.31
761.529	1252.58
761.717	1343.83
761.905	1336.66
762.092	1446.32
762.28	1442.25
762.467	1430.24
762.655	1385.49
762.842	1406.99
763.029	1440.7
763.217	1488.95
763.404	1509.48
763.592	1513.36
763.779	1508.9
763.966	1538.35
764.154	1595.12
764.341	1645.88
764.528	1657.51
764.716	1749.73
764.903	1765.23
765.09	1856.87
765.277	1896.01
765.465	2086.46
765.652	2117.08
765.839	2183.34
766.026	2244.37
766.213	2346.86
766.4	2444.12
766.588	2638.45
766.775	2623.53
766.962	2748.3
767.149	2791.7
767.336	2922.29
767.523	2867.07
767.71	3001.53
767.897	3150.33
768.084	3205.35
768.271	3233.83
768.458	3258.83
768.645	3287.5
768.832	3273.36
769.019	3379.15
769.206	3367.71
769.392	3413.44
769.579	3469.04
769.766	3446.38
769.953	3460.71
770.14	3506.82
770.327	3515.93
770.513	3466.33
770.7	3538.79
770.887	3456.64
771.073	3562.04
771.26	3504.89
771.447	3530.27
771.634	3501.79
771.82	3590.52
772.007	3437.08
772.193	3528.33
772.38	3577.74
772.567	3485.32
772.753	3476.79
772.94	3574.06
773.126	3548.67
773.313	3516.71
773.499	3519.61
773.686	3535.69
773.872	3452.77
774.059	3564.37
774.245	3456.06
774.432	3487.45
774.618	3404.14
774.804	3472.34
774.991	3436.49
775.177	3472.92
775.363	3460.33
775.55	3470.59
775.736	3366.16
775.922	3457.81
776.109	3408.4
776.295	3378.18
776.481	3473.31
776.667	3479.7
776.853	3425.26
777.04	3376.24
777.226	3385.54
777.412	3479.51
777.598	3360.35
777.784	3357.64
777.97	3352.41
778.156	3383.99
778.342	3380.89
778.528	3343.69
778.715	3292.15
778.901	3269.48
779.087	3347.18
779.272	3258.83
779.458	3262.9
779.644	3336.91
779.83	3248.75
780.016	3333.61
780.202	3284.02
780.388	3268.71
780.574	3163.7
780.76	3244.68
780.946	3309.2
781.131	3285.18
781.317	3229.19
781.503	3212.52
781.689	3240.81
781.874	3326.45
782.06	3209.04
782.246	3277.62
782.432	3214.46
782.617	3258.05
782.803	3288.08
782.989	3143.74
783.174	3221.82
783.36	3154.01
783.545	3157.5
783.731	3176.68
783.916	3064.89
784.102	3193.73
784.288	3108.48
784.473	3176.29
784.659	3065.86
784.844	3166.99
785.029	3081.36
785.215	3081.74
785.4	3063.72
785.586	3142.58
785.771	3017.03
785.956	3085.42
786.142	3066.82
786.327	3055.2
786.512	3049.39
786.698	3067.02
786.883	2985.84
787.068	3048.81
787.254	3051.52
787.439	3004.83
787.624	3014.71
787.809	2987.19
787.994	3031.18
788.18	3081.74
788.365	2971.89
788.55	2942.63
788.735	2956.78
788.92	2921.51
789.105	2903.3
789.29	2972.66
789.475	2919.77
789.66	2921.13
789.845	2914.15
790.03	2876.57
790.215	2916.28
790.4	2918.61
790.585	2945.93
790.77	2908.53
790.955	2778.53
791.14	2896.52
791.325	2937.01
791.51	2759.93
791.695	2845.18
791.879	2854.09
792.064	2790.93
792.249	2883.15
792.434	2813.98
792.618	2841.88
792.803	2887.61
792.988	2806.82
793.173	2851.96
793.357	2899.81
793.542	2796.55
793.727	2793.64
793.911	2845.57
794.096	2828.71
794.281	2879.86
794.465	2914.35
794.65	2845.18
794.834	2901.75
795.019	2938.76
795.203	2908.15
795.388	2909.7
795.572	2912.21
795.757	2882.96
795.941	2901.36
796.126	2895.94
796.31	2866.49
796.494	2876.37
796.679	2845.76
796.863	2846.53
797.048	2915.12
797.232	2914.54
797.416	2916.67
797.601	2905.43
797.785	2995.33
797.969	2971.89
798.153	2858.35
798.338	2887.22
798.522	2944.57
798.706	2967.82
798.89	2956.97
799.074	3040.86
799.258	2982.16
799.443	2963.56
799.627	2895.36
799.811	2992.81
799.995	2934.5
800.179	2896.71
800.363	2887.61
800.547	2929.46
800.731	2960.85
800.915	2882.57
801.099	2873.08
801.283	2898.85
801.467	2882.38
801.651	2868.82
801.835	2947.28
802.019	2933.72
802.202	2898.85
802.386	2870.37
802.57	2846.92
802.754	2873.27
802.938	2849.44
803.121	2836.85
803.305	2940.5
803.489	2896.71
803.673	2922.48
803.856	2946.12
804.04	2881.22
804.224	2886.83
804.407	2847.7
804.591	2881.22
804.775	2860.48
804.958	2876.95
805.142	2992.23
805.326	2846.34
805.509	2862.03
805.693	2883.15
805.876	2907.56
806.06	2900.78
806.243	2924.42
806.427	2924.81
806.61	2962.2
806.794	2879.67
806.977	2947.09
807.16	2933.14
807.344	2914.35
807.527	2898.26
807.71	2864.94
807.894	2896.52
808.077	2909.89
808.26	2871.92
808.444	2840.14
808.627	2901.75
808.81	2858.35
808.993	2793.06
809.177	2760.9
809.36	2834.52
809.543	2844.21
809.726	2695.8
809.909	2759.15
810.092	2718.85
810.276	2719.44
810.459	2752.37
810.642	2715.56
810.825	2670.22
811.008	2689.21
811.191	2591.37
811.374	2627.21
811.557	2650.27
811.74	2716.53
811.923	2607.64
812.106	2602.22
812.289	2570.83
812.472	2596.6
812.654	2573.54
812.837	2534.02
813.02	2470.66
813.203	2510.58
813.386	2411.77
813.569	2378.25
813.751	2267.42
813.934	2307.53
814.117	2294.35
814.3	2274.01
814.482	2255.22
814.665	2218.79
814.848	2180.24
815.03	2112.81
815.213	2131.22
815.396	2105.06
815.578	2062.25
815.761	2024.08
815.943	2062.25
816.126	1952
816.309	2010.51
816.491	1892.91
816.674	1841.18
816.856	1908.6
817.039	1888.45
817.221	1980.1
817.403	1929.33
817.586	1915.39
817.768	1933.6
817.951	1864.43
818.133	1858.81
818.315	1866.75
818.498	1941.54
818.68	1975.64
818.862	1955.88
819.045	1952.97
819.227	1941.15
819.409	1929.14
819.591	1956.85
819.774	1915.39
819.956	1911.51
820.138	1963.82
820.32	1956.27
820.502	1977.58
820.684	2082.59
820.866	2032.21
821.048	2076.2
821.231	2109.52
821.413	2129.28
821.595	2088.21
821.777	2106.23
821.959	2075.03
822.141	2152.34
822.323	2053.72
822.505	1951.62
822.686	1928.56
822.868	1886.13
823.05	1739.46
823.232	1729.58
823.414	1672.62
823.596	1734.62
823.778	1658.86
823.96	1730.55
824.141	1722.99
824.323	1752.64
824.505	1842.15
824.687	1863.85
824.868	1867.92
825.05	1994.05
825.232	2031.25
825.413	2106.81
825.595	2072.9
825.777	1968.86
825.958	2022.91
826.14	2016.52
826.321	2040.93
826.503	2022.33
826.685	2051.01
826.866	2076.58
827.048	2057.6
827.229	1996.37
827.411	1966.34
827.592	1951.42
827.773	1926.62
827.955	1859.59
828.136	1876.44
828.318	1845.44
828.499	1868.3
828.68	1828.97
828.862	1864.24
829.043	1896.98
829.224	1846.99
829.406	1834.79
829.587	1825.87
829.768	1811.34
829.949	1820.45
830.131	1803.79
830.312	1887.68
830.493	1828.59
830.674	1853.19
830.855	1825.29
831.036	1837.3
831.218	1893.49
831.399	1942.51
831.58	1835.75
831.761	1826.07
831.942	1873.92
832.123	1837.11
832.304	1747.21
832.485	1828.2
832.666	1801.07
832.847	1847.57
833.028	1834.98
833.209	1811.92
833.389	1816.77
833.57	1798.75
833.751	1789.64
833.932	1836.53
834.113	1815.99
834.294	1804.76
834.475	1821.03
834.655	1890.2
834.836	1846.6
835.017	1863.07
835.198	1778.79
835.378	1800.69
835.559	1913.64
835.74	1839.63
835.92	1817.16
836.101	1786.74
836.281	1881.29
836.462	1872.95
836.643	1913.25
836.823	1894.27
837.004	1847.96
837.184	1888.84
837.365	1876.64
837.545	1904.54
837.726	1879.74
837.906	1925.27
838.087	1877.02
838.267	1853.97
838.448	1834.98
838.628	1870.44
838.808	1862.88
838.989	1932.05
839.169	1808.44
839.349	1890.59
839.53	1878.57
839.71	1879.15
839.89	1821.22
840.07	1918.1
840.251	1860.75
840.431	1924.88
840.611	1856.49
840.791	1834.79
840.971	1882.06
841.151	1845.44
841.332	1799.91
841.512	1872.18
841.692	1797.97
841.872	1854.16
842.052	1831.11
842.232	1853
842.412	1793.13
842.592	1806.69
842.772	1858.23
842.952	1851.45
843.132	1805.14
843.312	1811.15
843.492	1823.36
843.672	1845.64
843.851	1690.83
844.031	1804.76
844.211	1773.17
844.391	1731.33
844.571	1785.77
844.751	1819.09
844.93	1792.94
845.11	1766.2
845.29	1795.46
845.47	1786.35
845.649	1782.47
845.829	1822.58
846.009	1751.28
846.188	1783.83
846.368	1770.07
846.547	1745.86
846.727	1772.79
846.907	1743.34
847.086	1780.34
847.266	1789.84
847.445	1768.14
847.625	1722.03
847.804	1741.01
847.984	1719.12
848.163	1697.81
848.343	1723.96
848.522	1735.39
848.701	1734.81
848.881	1690.83
849.06	1702.26
849.239	1719.12
849.419	1722.22
849.598	1653.63
849.777	1632.32
849.957	1631.35
850.136	1548.04
850.315	1564.7
850.494	1568.77
850.674	1547.27
850.853	1590.08
851.032	1611.01
851.211	1651.7
851.39	1601.71
851.569	1536.03
851.748	1595.12
851.927	1639.88
852.107	1601.9
852.286	1542.81
852.465	1557.53
852.644	1596.09
852.823	1626.31
853.002	1603.06
853.181	1584.85
853.359	1598.22
853.538	1529.05
853.717	1640.85
853.896	1551.14
854.075	1419.78
854.254	1454.27
854.433	1317.87
854.611	1424.62
854.79	1336.08
854.969	1407.96
855.148	1413.58
855.327	1336.66
855.505	1445.35
855.684	1398.66
855.863	1455.82
856.041	1427.34
856.22	1469.96
856.399	1438.77
856.577	1552.11
856.756	1501.54
856.934	1633.29
857.113	1583.11
857.291	1500.77
857.47	1491.66
857.648	1537.19
857.827	1550.75
858.005	1542.81
858.184	1503.87
858.362	1628.45
858.541	1545.33
858.719	1546.68
858.898	1500.77
859.076	1532.93
859.254	1577.1
859.433	1479.84
859.611	1479.45
859.789	1429.47
859.967	1539.13
860.146	1520.72
860.324	1462.99
860.502	1459.5
860.68	1432.57
860.859	1443.22
861.037	1469.19
861.215	1454.07
861.393	1468.6
861.571	1458.53
861.749	1420.75
861.927	1473.84
862.105	1462.6
862.283	1452.33
862.461	1387.62
862.639	1399.63
862.817	1408.54
862.995	1462.6
863.173	1409.7
863.351	1429.27
863.529	1465.7
863.707	1469.19
863.885	1427.34
864.063	1370.18
864.241	1386.07
864.418	1462.02
864.596	1400.02
864.774	1329.69
864.952	1411.06
865.129	1441.87
865.307	1366.69
865.485	1333.76
865.663	1400.21
865.84	1298.11
866.018	1349.64
866.196	1200.85
866.373	1229.13
866.551	1217.9
866.728	1137.88
866.906	1183.8
867.084	1197.16
867.261	1246.18
867.439	1233.2
867.616	1294.62
867.794	1284.74
867.971	1276.02
868.149	1281.83
868.326	1331.43
868.503	1312.64
868.681	1301.59
868.858	1288.81
869.035	1266.14
869.213	1324.46
869.39	1266.72
869.567	1351.19
869.745	1286.68
869.922	1294.81
870.099	1316.71
870.276	1332.79
870.454	1344.8
870.631	1319.42
870.808	1257.23
870.985	1320.58
871.162	1342.67
871.339	1305.08
871.517	1248.89
871.694	1262.46
871.871	1252.38
872.048	1247.93
872.225	1223.32
872.402	1264.78
872.579	1220.03
872.756	1321.16
872.933	1211.5
873.11	1230.49
873.287	1275.05
873.463	1230.29
873.64	1199.3
873.817	1250.06
873.994	1246.76
874.171	1192.51
874.348	1228.55
874.524	1173.91
874.701	1223.9
874.878	1145.43
875.055	1240.95
875.231	1214.8
875.408	1192.13
875.585	1148.34
875.762	1203.36
875.938	1163.65
876.115	1174.3
876.291	1164.23
876.468	1171.2
876.645	1145.43
876.821	1155.51
876.998	1158.03
877.174	1155.31
877.351	1159.77
877.527	1130.32
877.704	1195.42
877.88	1129.93
878.057	1143.5
878.233	1197.75
878.409	1123.54
878.586	1181.28
878.762	1156.67
878.938	1147.95
879.115	1069.1
879.291	1122.18
879.467	1076.65
879.644	1096.61
879.82	1165.58
879.996	1096.03
880.172	1061.93
880.349	1125.67
880.525	1143.11
880.701	1040.81
880.877	1053.79
881.053	1143.88
881.229	1082.85
881.405	1132.65
881.581	1065.61
881.757	1090.6
881.933	1091.77
882.109	1132.84
882.285	1095.45
882.461	1055.53
882.637	1081.3
882.813	1044.1
882.989	1063.28
883.165	1128.97
883.341	1065.03
883.517	1128.19
883.693	1097.97
883.869	1145.24
884.044	1042.36
884.22	1106.88
884.396	1161.71
884.572	1102.03
884.747	1140.78
884.923	1117.34
885.099	1115.98
885.275	1144.27
885.45	1080.92
885.626	1065.8
885.801	1052.43
885.977	1064.83
886.153	1009.04
886.328	1070.26
886.504	1035.58
886.679	1064.06
886.855	1056.5
887.03	1090.6
887.206	1137.88
887.381	1074.91
887.557	1109.59
887.732	1067.74
887.908	1084.98
888.083	1106.49
888.258	1084.6
888.434	1060.38
888.609	1091.18
888.784	1129.93
888.96	1050.3
889.135	1027.05
889.31	1030.54
889.485	1080.72
889.661	1048.37
889.836	1077.62
890.011	1079.17
890.186	1064.64
890.361	1043.91
890.537	1094.48
890.712	1110.17
890.887	1090.22
891.062	1045.07
891.237	1123.35
891.412	1042.17
891.587	1079.37
891.762	1093.32
891.937	1116.57
892.112	1009.81
892.287	1071.42
892.462	1033.06
892.637	993.73
892.812	1002.25
892.987	1016.79
893.161	1010.59
893.336	972.61
893.511	1025.5
893.686	1035.39
893.861	962.34
894.035	990.63
894.21	988.3
894.385	942.77
894.56	984.62
894.734	944.71
894.909	911
895.084	935.61
895.258	960.79
895.433	937.74
895.608	911.39
895.782	876.32
895.957	896.27
896.131	868.38
896.306	819.16
896.48	818.78
896.655	817.23
896.829	756.58
897.004	785.45
897.178	821.1
897.353	744.38
897.527	805.79
897.701	797.08
897.876	718.61
898.05	855.98
898.224	796.3
898.399	830.4
898.573	785.45
898.747	691.48
898.921	733.91
899.096	644.02
899.27	643.82
899.444	651.77
899.618	657
899.792	696.91
899.967	689.93
900.141	751.35
900.315	663.2
900.489	669.4
900.663	700.98
900.837	710.08
901.011	622.9
901.185	748.64
901.359	703.3
901.533	685.28
901.707	710.66
901.881	679.67
902.055	639.56
902.229	641.3
902.403	769.76
902.576	707.18
902.75	715.12
902.924	811.99
903.098	754.65
903.272	798.43
903.446	804.83
903.619	787.58
903.793	816.84
903.967	787.39
904.14	848.81
904.314	837.57
904.488	806.57
904.661	861.59
904.835	803.47
905.009	878.26
905.182	880
905.356	852.29
905.529	821.68
905.703	806.57
905.876	800.37
906.05	786.03
906.223	773.44
906.397	711.83
906.57	694.39
906.744	667.85
906.917	692.07
907.09	689.93
907.264	665.33
907.437	658.16
907.61	597.52
907.784	631.03
907.957	695.75
908.13	637.04
908.304	667.27
908.477	579.5
908.65	622.12
908.823	578.72
908.996	681.6
909.17	587.25
909.343	600.81
909.516	616.89
909.689	618.63
909.862	580.27
910.035	600.23
910.208	566.52
910.381	561.87
910.554	663.39
910.727	646.92
910.9	590.54
911.073	590.15
911.246	649.83
911.419	638.2
911.592	651.38
911.765	593.45
911.938	604.69
912.11	587.44
912.283	641.11
912.456	676.18
912.629	599.07
912.802	596.74
912.974	536.87
913.147	508.2
913.32	478.75
913.493	483.01
913.665	547.72
913.838	521.37
914.01	543.27
914.183	552.18
914.356	516.72
914.528	588.6
914.701	613.21
914.873	585.31
915.046	533.19
915.218	529.51
915.391	446.97
915.563	464.99
915.736	509.56
915.908	530.67
916.081	522.54
916.253	495.61
916.425	531.84
916.598	518.86
916.77	522.73
916.942	518.86
917.115	445.23
917.287	509.36
917.459	498.51
917.632	436.9
917.804	402.99
917.976	487.47
918.148	503.16
918.32	512.85
918.493	506.07
918.665	569.81
918.837	530.67
919.009	574.85
919.181	563.61
919.353	544.24
919.525	531.25
919.697	538.42
919.869	539.78
920.041	583.37
920.213	645.37
920.385	544.82
920.557	526.8
920.729	556.44
920.901	544.62
921.073	540.17
921.244	519.63
921.416	568.45
921.588	583.18
921.76	497.93
921.932	607.4
922.103	524.28
922.275	534.55
922.447	550.82
922.619	450.46
922.79	516.14
922.962	488.05
923.134	536.87
923.305	491.34
923.477	458.6
923.648	458.79
923.82	491.73
923.991	434.19
924.163	422.56
924.335	468.67
924.506	450.27
924.677	512.66
924.849	456.86
925.02	466.74
925.192	503.74
925.363	466.74
925.535	472.94
925.706	458.79
925.877	502.77
926.049	442.91
926.22	486.11
926.391	477.78
926.562	488.24
926.734	446.59
926.905	505.87
927.076	412.1
927.247	448.52
927.419	401.06
927.59	423.34
927.761	381.88
927.932	408.03
928.103	416.56
928.274	356.88
928.445	359.59
928.616	392.92
928.787	369.67
928.958	371.03
929.129	373.16
929.3	355.91
929.471	322.59
929.642	294.69
929.813	242.96
929.984	311.16
930.155	234.82
930.326	304.38
930.496	278.41
930.667	191.81
930.838	244.9
931.009	173.4
931.18	217.38
931.35	215.64
931.521	204.79
931.692	178.83
931.863	146.47
932.033	211.18
932.204	164.49
932.374	184.64
932.545	116.44
932.716	182.9
932.886	207.89
933.057	111.99
933.227	97.07
933.398	197.23
933.568	89.51
933.739	54.64
933.909	80.6
934.08	137.17
934.25	35.26
934.421	50.57
934.591	133.3
934.761	61.42
934.932	44.76
935.102	68.97
935.272	99
935.443	95.71
935.613	59.29
935.783	84.47
935.953	46.69
936.123	254.58
936.294	52.7
936.464	42.62
936.634	83.12
936.804	46.89
936.974	46.11
937.144	96.1
937.314	90.09
937.484	58.51
937.655	50.18
937.825	117.6
937.995	56.77
938.165	148.02
938.334	86.99
938.504	90.29
938.674	63.74
938.844	105.2
939.014	160.23
939.184	139.89
939.354	190.45
939.524	172.44
939.694	116.25
939.863	156.74
940.033	213.7
940.203	198.78
940.373	175.15
940.542	173.79
940.712	132.72
940.882	192.97
941.051	195.3
941.221	152.48
941.391	156.94
941.56	148.99
941.73	121.67
941.899	236.37
942.069	114.89
942.238	146.09
942.408	130.59
942.577	157.9
942.747	114.31
942.916	82.54
943.086	101.33
943.255	167.01
943.425	130.78
943.594	97.07
943.763	55.8
943.933	73.04
944.102	54.25
944.271	90.09
944.441	127.49
944.61	92.03
944.779	128.26
944.948	188.52
945.117	73.04
945.287	107.34
945.456	55.41
945.625	64.91
945.794	121.09
945.963	76.53
946.132	126.13
946.301	85.06
946.47	107.14
946.639	44.76
946.808	87.77
946.977	95.9
947.146	156.94
947.315	78.08
947.484	138.14
947.653	92.03
947.822	67.42
947.991	67.42
948.16	185.22
948.329	139.89
948.498	113.54
948.666	93
948.835	158.68
949.004	103.27
949.173	70.14
949.341	112.95
949.51	129.81
949.679	169.72
949.847	136.2
950.016	174.57
950.185	154.8
950.353	100.94
950.522	100.55
950.69	142.79
950.859	77.5
951.028	144.73
951.196	114.5
951.365	76.34
951.533	89.12
951.701	129.04
951.87	141.05
952.038	69.94
952.207	102.1
952.375	154.03
952.543	94.94
952.712	98.42
952.88	93.19
953.048	178.05
953.217	120.12
953.385	111.02
953.553	134.65
953.721	73.24
953.89	115.47
954.058	41.27
954.226	86.99
954.394	102.1
954.562	57.35
954.73	116.83
954.898	77.31
955.067	116.44
955.235	70.91
955.403	121.29
955.571	163.33
955.739	110.44
955.907	80.99
956.075	91.84
956.243	70.52
956.41	116.25
956.578	67.62
956.746	55.02
956.914	109.85
957.082	138.92
957.25	112.95
957.418	102.1
957.585	105.4
957.753	117.6
957.921	83.7
958.089	100.75
958.256	109.27
958.424	119.15
958.592	118.77
958.759	69.36
958.927	151.9
959.095	70.91
959.262	88.54
959.43	97.45
959.597	54.06
959.765	103.46
959.932	68.01
960.1	150.15
960.267	108.89
960.435	99
960.602	122.45
960.77	97.07
960.937	56.19
961.104	113.34
961.272	52.7
961.439	69.56
961.606	120.51
961.774	140.08
961.941	102.69
962.108	92.61
962.275	125.94
962.443	164.1
962.61	107.34
962.777	176.7
962.944	181.73
963.111	129.81
963.278	133.3
963.446	140.66
963.613	122.25
963.78	117.6
963.947	124.58
964.114	121.09
964.281	173.21
964.448	139.11
964.615	95.71
964.782	137.95
964.949	169.72
965.116	139.11
965.282	155.77
965.449	104.62
965.616	94.55
965.783	129.23
965.95	123.22
966.117	86.02
966.283	109.85
966.45	123.03
966.617	125.16
966.784	149.77
966.95	135.43
967.117	151.7
967.284	98.42
967.45	90.67
967.617	171.66
967.784	136.98
967.95	195.68
968.117	125.55
968.283	185.61
968.45	228.82
968.616	145.12
968.783	159.07
968.949	165.27
969.116	178.83
969.282	113.34
969.449	150.74
969.615	148.6
969.781	78.08
969.948	142.4
970.114	66.65
970.28	190.84
970.447	143.57
970.613	169.14
970.779	149.96
970.945	161.2
971.112	121.67
971.278	121.29
971.444	117.02
971.61	183.87
971.776	130.78
971.942	156.16
972.108	161.2
972.275	111.21
972.441	126.71
972.607	212.93
972.773	79.24
972.939	165.27
973.105	117.41
973.271	83.12
973.437	114.12
973.602	94.94
973.768	163.14
973.934	126.52
974.1	128.84
974.266	31.77
974.432	105.79
974.598	91.84
974.763	139.5
974.929	76.14
975.095	160.23
975.261	89.51
975.426	99.59
975.592	133.49
975.758	180.96
975.923	58.51
976.089	102.49
976.255	131.36
976.42	125.55
976.586	135.24
976.751	122.84
976.917	192.39
977.082	144.73
977.248	83.89
977.413	37.2
977.579	91.25
977.744	119.35
977.91	73.43
978.075	94.55
978.24	140.27
978.406	129.23
978.571	99.2
978.736	81.37
978.902	116.05
979.067	65.87
979.232	57.54
979.397	123.42
979.563	162.94
979.728	98.23
979.893	93.97
980.058	81.18
980.223	127.87
980.388	104.82
980.554	128.26
980.719	84.47
980.884	120.12
981.049	133.69
981.214	107.92
981.379	95.71
981.544	101.52
981.709	111.21
981.874	90.48
982.039	102.49
982.204	137.37
982.368	73.04
982.533	105.98
982.698	100.17
982.863	130.2
983.028	48.24
983.193	108.5
983.357	132.72
983.522	104.82
983.687	81.57
983.852	103.46
984.016	96.68
984.181	84.47
984.346	115.67
984.51	150.35
984.675	88.54
984.839	122.06
985.004	104.82
985.168	148.6
985.333	132.52
985.498	99.2
985.662	136.79
985.827	127.87
985.991	86.61
986.155	101.72
986.32	151.7
986.484	135.24
986.649	132.33
986.813	24.41
986.977	91.45
987.142	112.18
987.306	67.04
987.47	47.27
987.634	86.99
987.799	118.19
987.963	112.76
988.127	132.14
988.291	154.61
988.455	84.09
988.62	58.12
988.784	120.32
988.948	135.43
989.112	100.36
989.276	103.46
989.44	98.23
989.604	75.56
989.768	87.57
989.932	198.01
990.096	87.57
990.26	84.67
990.424	47.66
990.588	114.5
990.752	177.28
990.915	126.13
991.079	83.89
991.243	77.31
991.407	104.82
991.571	81.96
991.734	102.69
991.898	123.03
992.062	174.57
992.226	82.34
992.389	76.34
992.553	27.12
992.717	46.31
992.88	70.14
993.044	96.68
993.207	47.08
993.371	108.69
993.535	108.89
993.698	98.62
993.862	125.94
994.025	122.25
994.189	98.04
994.352	112.18
994.515	99.59
994.679	113.73
994.842	83.12
995.006	121.48
995.169	62.97
995.332	70.52
995.496	129.62
995.659	30.42
995.822	93
995.985	90.67
996.149	134.46
996.312	48.63
996.475	153.25
996.638	56.96
996.801	165.27
996.964	142.6
997.128	75.17
997.291	78.08
997.454	48.05
997.617	53.47
997.78	137.17
997.943	47.27
998.106	136.4
998.269	46.5
998.432	70.33
998.595	83.7
998.758	29.64
998.92	59.67
999.083	5.23
999.246	61.42
999.409	14.14
999.572	23.25
999.735	51.92
999.897	79.44
1000.06	77.5
1000.223	55.61
1000.386	95.52
1000.548	105.4
1000.711	121.87
1000.874	100.55
1001.036	2.91
1001.199	84.28
1001.361	79.05
1001.524	74.98
1001.687	98.23
1001.849	61.42
1002.012	83.31
1002.174	95.13
1002.337	85.64
1002.499	49.99
1002.661	122.06
1002.824	42.04
1002.986	42.24
1003.149	96.87
1003.311	41.85
1003.473	144.54
1003.636	36.23
1003.798	75.56
1003.96	90.29
1004.123	43.59
1004.285	49.41
1004.447	67.62
1004.609	78.27
1004.771	109.85
1004.933	25.57
1005.096	38.94
1005.258	12.21
1005.42	39.14
1005.582	88.74
1005.744	86.61
1005.906	5.04
1006.068	79.24
1006.23	7.75
1006.392	7.36
1006.554	37.01
1006.716	124.19
1006.878	91.84
1007.04	19.96
1007.202	64.71
1007.363	36.23
1007.525	59.48
1007.687	74.98
1007.849	83.31
1008.011	14.34
1008.172	25.57
1008.334	47.47
1008.496	54.25
1008.658	2.32
1008.819	44.76
1008.981	-20.73
1009.143	15.5
1009.304	42.04
1009.466	66.46
1009.627	131.75
1009.789	136.79
1009.95	81.96
1010.112	33.13
1010.273	52.31
1010.435	24.61
1010.596	47.08
1010.758	66.26
1010.919	33.71
1011.081	11.04
1011.242	34.87
1011.403	54.25
1011.565	46.11
1011.726	62
1011.887	7.36
1012.049	7.94
1012.21	85.06
1012.371	99.39
1012.532	-11.24
1012.693	41.27
1012.855	22.28
1013.016	29.26
1013.177	92.8
1013.338	67.04
1013.499	99
1013.66	65.1
1013.821	84.67
1013.982	52.12
1014.143	49.02
1014.304	10.66
1014.465	62
1014.626	59.48
1014.787	18.02
1014.948	151.7
1015.109	-53.86
1015.27	87.77
1015.431	11.82
1015.592	16.66
1015.752	75.95
1015.913	44.17
1016.074	77.11
1016.235	55.61
1016.395	28.87
1016.556	12.4
1016.717	47.86
1016.877	96.1
1017.038	33.13
1017.199	40.69
1017.359	49.6
1017.52	52.12
1017.681	16.66
1017.841	53.28
1018.002	31.77
1018.162	14.92
1018.323	77.31
1018.483	42.24
1018.644	39.14
1018.804	4.07
1018.964	-16.08
1019.125	0.58
1019.285	58.51
1019.446	9.3
1019.606	-3.29
1019.766	-25.19
1019.926	54.64
1020.087	43.21
1020.247	-14.53
1020.407	51.92
1020.567	89.9
1020.728	18.6
1020.888	14.53
1021.048	43.59
1021.208	-19.96
1021.368	-5.04
1021.528	85.64
1021.688	71.69
1021.848	53.28
1022.008	9.49
1022.168	45.34
1022.328	32.36
1022.488	54.64
1022.648	20.92
1022.808	33.71
1022.968	21.7
1023.128	9.11
1023.288	12.59
1023.448	32.36
1023.608	48.24
1023.767	42.24
1023.927	-7.17
1024.087	-7.36
1024.247	-13.17
1024.406	27.9
1024.566	-3.87
1024.726	2.71
1024.885	20.92
1025.045	49.99
1025.205	6.97
1025.364	18.99
1025.524	41.46
1025.683	10.66
1025.843	50.96
1026.003	45.72
1026.162	93.97
1026.321	74.01
1026.481	52.51
1026.64	13.56
1026.8	29.84
1026.959	15.11
1027.119	35.46
1027.278	11.62
1027.437	21.51
1027.597	7.36
1027.756	35.84
1027.915	32.94
1028.074	55.22
1028.234	13.37
1028.393	19.57
1028.552	1.74
1028.711	-53.67
1028.87	78.08
1029.03	-4.46
1029.189	23.64
1029.348	-54.25
1029.507	-9.11
1029.666	11.43
1029.825	-30.22
1029.984	18.99
1030.143	50.76
1030.302	2.13
1030.461	-32.16
1030.62	36.42
1030.779	43.98
1030.938	-6.59
1031.097	-8.91
1031.255	33.71
1031.414	101.52
1031.573	46.11
1031.732	-22.67
1031.891	29.06
1032.049	55.99
1032.208	43.21
1032.367	14.53
1032.525	18.02
1032.684	8.52
1032.843	21.31
1033.001	-38.94
1033.16	161.59
1033.319	79.63
1033.477	46.5
1033.636	-6.2
1033.794	-27.12
1033.953	40.88
1034.111	39.72
1034.27	-30.42
1034.428	42.04
1034.587	9.88
1034.745	22.86
1034.903	-11.43
1035.062	47.08
1035.22	-28.67
1035.378	65.68
1035.537	-36.04
1035.695	26.93
1035.853	3.87
1036.011	43.98
1036.17	50.37
1036.328	-37.2
1036.486	36.23
1036.644	15.31
1036.802	-73.62
1036.96	-28.29
1037.119	12.59
1037.277	11.24
1037.435	-24.02
1037.593	-38.75
1037.751	19.76
1037.909	35.46
1038.067	35.46
