Data from gum_old_FLMT105791__154__15-47-41-250.txt Node

Date: Mon Mar 20 15:47:41 GMT 2023
User: antho
Spectrometer: FLMT10579
Trigger mode: 0
Integration Time (sec): 1.000000E-1
Scans to average: 10
Electric dark correction enabled: true
Nonlinearity correction enabled: false
Boxcar width: 0
XAxis mode: Wavelengths
Number of Pixels in Spectrum: 3648
>>>>>Begin Spectral Data<<<<<
345.248	-189.69
345.464	-189.69
345.681	-189.69
345.898	-186.21
346.114	-188.34
346.331	-58.53
346.548	35.63
346.764	4.05
346.981	-19.2
347.197	-25.01
347.414	55.01
347.631	-6.02
347.847	56.56
348.064	-3.89
348.28	20.13
348.497	-52.13
348.713	-6.6
348.93	21.88
349.146	30.6
349.363	-19.39
349.579	26.72
349.796	35.83
350.012	-20.17
350.229	63.73
350.445	4.25
350.661	2.89
350.878	12
351.094	34.66
351.311	15.68
351.527	48.23
351.743	12.96
351.96	29.24
352.176	49.78
352.392	42.22
352.609	30.01
352.825	26.72
353.041	18
353.257	11.41
353.474	-3.89
353.69	35.05
353.906	48.61
354.122	-5.44
354.339	84.26
354.555	20.71
354.771	10.83
354.987	62.18
355.203	67.21
355.42	5.22
355.636	-10.28
355.852	5.99
356.068	13.16
356.284	-18.42
356.5	76.71
356.716	32.53
356.932	10.45
357.148	41.64
357.364	15.87
357.58	80
357.796	67.21
358.012	56.95
358.228	37.57
358.444	-37.99
358.66	55.01
358.876	46.1
359.092	-2.34
359.308	40.67
359.524	37.96
359.74	13.16
359.956	17.42
360.172	24.98
360.388	75.55
360.604	16.65
360.819	108.68
361.035	43.38
361.251	92.01
361.467	15.1
361.683	59.46
361.898	64.11
362.114	48.42
362.33	42.03
362.546	72.06
362.762	24.4
362.977	20.33
363.193	13.74
363.409	116.62
363.624	10.45
363.84	15.1
364.056	18.58
364.271	41.83
364.487	39.12
364.703	9.67
364.918	10.25
365.134	10.06
365.35	41.83
365.565	120.88
365.781	61.6
365.996	75.35
366.212	137.35
366.427	55.98
366.643	11.22
366.858	73.61
367.074	16.65
367.289	95.11
367.505	130.57
367.72	5.02
367.936	22.26
368.151	89.88
368.367	65.28
368.582	35.05
368.798	6.57
369.013	109.26
369.228	62.76
369.444	56.95
369.659	124.56
369.874	22.46
370.09	118.94
370.305	-33.53
370.52	21.68
370.736	122.24
370.951	72.64
371.166	115.26
371.381	106.35
371.597	62.18
371.812	37.38
372.027	14.9
372.242	39.12
372.458	114.68
372.673	40.28
372.888	62.37
373.103	84.26
373.318	133.67
373.533	49.2
373.749	77.29
373.964	6.38
374.179	97.63
374.394	3.28
374.609	101.89
374.824	14.71
375.039	89.88
375.254	17.81
375.469	104.8
375.684	63.15
375.899	109.45
376.114	61.21
376.329	36.02
376.544	81.36
376.759	89.5
376.974	28.85
377.189	59.08
377.404	48.61
377.619	83.3
377.834	19.94
378.049	18.97
378.264	13.55
378.478	84.85
378.693	35.05
378.908	91.05
379.123	65.47
379.338	110.61
379.553	83.68
379.767	85.43
379.982	115.07
380.197	87.75
380.412	51.13
380.626	69.93
380.841	131.15
381.056	99.57
381.271	138.51
381.485	51.13
381.7	57.91
381.915	95.89
382.129	52.88
382.344	65.66
382.559	58.5
382.773	97.83
382.988	8.12
383.202	53.26
383.417	38.93
383.632	165.83
383.846	68.57
384.061	56.17
384.275	62.76
384.49	108.68
384.704	109.84
384.919	97.05
385.133	74.96
385.348	112.16
385.562	43
385.777	115.07
385.991	84.07
386.206	59.85
386.42	53.65
386.634	118.56
386.849	97.83
387.063	88.33
387.277	50.94
387.492	93.37
387.706	47.06
387.92	45.9
388.135	121.27
388.349	103.44
388.563	102.48
388.778	69.15
388.992	105.77
389.206	128.83
389.42	161.76
389.635	92.79
389.849	105.77
390.063	109.26
390.277	133.48
390.491	167.19
390.706	124.56
390.92	160.21
391.134	115.26
391.348	131.73
391.562	71.67
391.776	132.31
391.99	100.15
392.205	168.74
392.419	107.9
392.633	108.09
392.847	163.51
393.061	90.46
393.275	187.14
393.489	78.84
393.703	87.95
393.917	98.02
394.131	71.28
394.345	116.43
394.559	147.43
394.773	99.76
394.986	130.18
395.2	125.34
395.414	170.29
395.628	91.05
395.842	149.17
396.056	115.65
396.27	49.78
396.484	128.63
396.697	159.05
396.911	149.36
397.125	134.06
397.339	139.68
397.553	124.95
397.766	175.52
397.98	158.47
398.194	150.14
398.408	132.31
398.621	175.13
398.835	193.54
399.049	193.54
399.262	211.75
399.476	214.07
399.69	214.07
399.903	273.55
400.117	189.47
400.331	228.61
400.544	176.1
400.758	335.55
400.971	221.82
401.185	251.08
401.398	171.64
401.612	258.83
401.826	204.58
402.039	246.82
402.253	192.96
402.466	245.27
402.68	224.92
402.893	236.36
403.106	225.7
403.32	236.36
403.533	249.14
403.747	206.13
403.96	231.51
404.174	233.64
404.387	198.38
404.6	253.21
404.814	282.27
405.027	220.66
405.24	212.91
405.454	210.01
405.667	288.86
405.88	138.51
406.094	251.47
406.307	258.25
406.52	232.09
406.733	206.91
406.947	196.06
407.16	308.82
407.373	270.26
407.586	220.47
407.799	210.2
408.012	284.21
408.226	245.27
408.439	278.79
408.652	203.61
408.865	267.74
409.078	284.02
409.291	308.82
409.504	222.99
409.717	299.71
409.93	272
410.143	264.06
410.357	212.72
410.57	218.14
410.783	244.11
410.996	274.72
411.209	260.19
411.421	317.73
411.634	272.2
411.847	276.27
412.06	294.67
412.273	297.58
412.486	273.36
412.699	387.48
412.912	249.53
413.125	360.74
413.338	299.9
413.55	307.27
413.763	303.59
413.976	287.31
414.189	245.46
414.402	281.89
414.615	363.84
414.827	286.73
415.04	328.77
415.253	296.03
415.466	365.58
415.678	354.93
415.891	324.51
416.104	285.95
416.316	291.57
416.529	288.86
416.742	342.72
416.954	364.03
417.167	346.21
417.38	312.5
417.592	363.45
417.805	293.12
418.017	266.58
418.23	360.35
418.442	268.71
418.655	316.37
418.868	321.41
419.08	377.79
419.293	366.36
419.505	357.06
419.718	355.7
419.93	372.37
420.142	336.14
420.355	362.48
420.567	376.43
420.78	357.83
420.992	329.55
421.205	423.52
421.417	314.82
421.629	329.74
421.842	325.87
422.054	303.39
422.266	391.16
422.479	406.08
422.691	343.11
422.903	371.2
423.115	339.43
423.328	319.09
423.54	361.32
423.752	342.34
423.964	326.25
424.177	367.33
424.389	340.2
424.601	494.23
424.813	371.98
425.025	402.4
425.238	384.96
425.45	346.02
425.662	359.58
425.874	692.24
426.086	370.04
426.298	396.58
426.51	370.04
426.722	363.65
426.934	343.89
427.146	399.1
427.358	337.69
427.57	408.21
427.782	354.15
427.994	389.8
428.206	312.5
428.418	333.42
428.63	415.96
428.842	412.86
429.054	360.93
429.266	397.75
429.478	323.15
429.69	360.93
429.902	287.5
430.114	393.68
430.325	350.09
430.537	308.43
430.749	301.84
430.961	270.65
431.173	313.66
431.384	328.77
431.596	237.13
431.808	309.98
432.02	368.49
432.231	428.94
432.443	492.1
432.655	441.53
432.867	418.48
433.078	426.03
433.29	501.21
433.502	440.18
433.713	495.2
433.925	456.06
434.136	480.28
434.348	387.87
434.56	346.99
434.771	502.56
434.983	356.09
435.194	371.98
435.406	430.49
435.617	496.75
435.829	498.88
436.04	488.81
436.252	469.82
436.463	546.54
436.675	551.19
436.886	521.55
437.098	534.34
437.309	572.12
437.521	478.93
437.732	519.42
437.943	502.56
438.155	516.51
438.366	448.9
438.578	581.03
438.789	476.02
439	484.35
439.211	457.42
439.423	486.87
439.634	513.41
439.845	517.1
440.057	551
440.268	578.9
440.479	498.5
440.69	543.83
440.902	483.38
441.113	486.68
441.324	486.29
441.535	532.59
441.746	630.24
441.957	491.33
442.168	537.44
442.38	539.57
442.591	583.74
442.802	542.09
443.013	547.9
443.224	590.33
443.435	554.68
443.646	538.41
443.857	549.06
444.068	554.1
444.279	528.91
444.49	647.87
444.701	576.77
444.912	701.35
445.123	634.7
445.334	593.43
445.545	594.21
445.756	610.09
445.967	560.49
446.178	579.29
446.388	584.91
446.599	603.31
446.81	605.44
447.021	565.34
447.232	625.59
447.443	650.59
447.653	592.27
447.864	661.44
448.075	612.81
448.286	638.38
448.496	620.17
448.707	663.57
448.918	600.41
449.129	723.82
449.339	623.27
449.55	631.21
449.761	625.4
449.971	662.99
450.182	622.88
450.393	667.06
450.603	652.52
450.814	675.58
451.024	682.36
451.235	749.59
451.446	729.44
451.656	755.4
451.867	662.79
452.077	689.92
452.288	728.67
452.498	732.54
452.709	662.79
452.919	688.56
453.13	665.51
453.34	702.12
453.55	611.06
453.761	687.59
453.971	660.66
454.182	683.72
454.392	704.84
454.602	765.87
454.813	701.54
455.023	712
455.233	629.66
455.444	714.91
455.654	585.68
455.864	666.67
456.075	649.81
456.285	671.32
456.495	691.27
456.705	695.92
456.916	757.92
457.126	749.01
457.336	700.57
457.546	625.21
457.756	678.87
457.967	724.02
458.177	701.35
458.387	686.62
458.597	642.45
458.807	678.68
459.017	699.99
459.227	696.12
459.437	689.72
459.647	737.58
459.857	741.84
460.068	693.41
460.278	779.62
460.488	732.93
460.698	780.79
460.908	702.9
461.117	662.41
461.327	696.7
461.537	714.72
461.747	716.07
461.957	747.46
462.167	857.7
462.377	801.71
462.587	724.79
462.797	794.93
463.007	774.2
463.216	796.87
463.426	822.83
463.636	777.1
463.846	682.94
464.056	739.13
464.265	794.73
464.475	725.37
464.685	774.39
464.895	801.52
465.104	755.99
465.314	786.02
465.524	711.81
465.733	728.86
465.943	843.56
466.153	821.67
466.362	825.15
466.572	809.07
466.782	760.64
466.991	779.24
467.201	829.8
467.41	745.14
467.62	795.51
467.829	759.09
468.039	807.52
468.249	782.92
468.458	811.4
468.668	831.93
468.877	859.25
469.086	877.85
469.296	876.11
469.505	801.9
469.715	871.85
469.924	867.58
470.134	880.57
470.343	888.51
470.552	811.2
470.762	837.17
470.971	796.48
471.18	841.23
471.39	872.04
471.599	848.4
471.808	868.55
472.018	856.73
472.227	916.8
472.436	965.04
472.645	886.18
472.855	847.63
473.064	967.17
473.273	950.12
473.482	945.47
473.691	956.9
473.901	970.27
474.11	914.86
474.319	1016.96
474.528	920.67
474.737	1029.94
474.946	955.93
475.155	1003.4
475.364	1025.68
475.573	1003.01
475.783	1019.29
475.992	1038.86
476.201	1045.44
476.41	999.91
476.619	980.15
476.828	1012.7
477.037	955.16
477.245	1009.41
477.454	1032.46
477.663	1044.48
477.872	1047.38
478.081	1102.6
478.29	1034.4
478.499	1175.25
478.708	1117.52
478.917	1174.48
479.125	1071.79
479.334	1126.82
479.543	1069.27
479.752	1144.45
479.961	1118.29
480.169	1189.01
480.378	1119.46
480.587	1307.39
480.796	1216.14
481.004	1156.65
481.213	1166.92
481.422	1170.02
481.63	1175.45
481.839	1235.9
482.048	1246.94
482.256	1229.7
482.465	1210.13
482.674	1269.42
482.882	1259.73
483.091	1302.35
483.299	1265.73
483.508	1257.6
483.716	1251.98
483.925	1308.55
484.134	1243.65
484.342	1257.98
484.551	1281.82
484.759	1293.05
484.967	1309.91
485.176	1313.2
485.384	1346.53
485.593	1295.77
485.801	1283.17
486.01	1274.84
486.218	1203.74
486.426	1097.76
486.635	1116.94
486.843	1109.38
487.051	1132.82
487.26	1145.03
487.468	1230.47
487.676	1225.24
487.885	1232.02
488.093	1251.01
488.301	1301.58
488.509	1338.97
488.717	1352.73
488.926	1361.06
489.134	1313.2
489.342	1334.32
489.55	1296.15
489.758	1363.96
489.967	1348.08
490.175	1517.99
490.383	1402.91
490.591	1530.97
490.799	1399.81
491.007	1490.48
491.215	1445.53
491.423	1431.58
491.631	1423.44
491.839	1412.59
492.047	1450.57
492.255	1387.41
492.463	1373.85
492.671	1382.95
492.879	1474.79
493.087	1401.55
493.295	1447.08
493.503	1453.67
493.711	1514.12
493.919	1554.42
494.127	1568.76
494.334	1516.64
494.542	1454.83
494.75	1502.49
494.958	1468.01
495.166	1584.06
495.374	1579.41
495.581	1572.82
495.789	1562.94
495.997	1619.71
496.205	1530.59
496.412	1525.16
496.62	1544.15
496.828	1579.02
497.035	1536.01
497.243	1595.49
497.451	1588.13
497.658	1588.52
497.866	1582.32
498.074	1652.07
498.281	1526.13
498.489	1664.66
498.696	1554.61
498.904	1530.39
499.112	1536.01
499.319	1641.8
499.527	1564.49
499.734	1633.85
499.942	1543.96
500.149	1554.03
500.357	1623
500.564	1561.59
500.771	1620.49
500.979	1520.71
501.186	1543.76
501.394	1599.95
501.601	1573.21
501.808	1557.13
502.016	1536.98
502.223	1549.77
502.43	1580.57
502.638	1573.21
502.845	1532.91
503.052	1671.44
503.26	1584.64
503.467	1683.26
503.674	1611.19
503.881	1666.21
504.089	1710.38
504.296	1653.62
504.503	1607.89
504.71	1640.64
504.917	1596.85
505.125	1605.95
505.332	1645.48
505.539	1667.76
505.746	1746.81
505.953	1681.71
506.16	1715.23
506.367	1769.09
506.574	1795.05
506.781	1801.64
506.988	1700.5
507.195	1739.25
507.402	1733.05
507.609	1808.61
507.816	1707.48
508.023	1715.81
508.23	1714.07
508.437	1649.35
508.644	1722.01
508.851	1791.18
509.058	1759.4
509.265	1740.61
509.472	1762.11
509.679	1849.11
509.885	1752.43
510.092	1754.95
510.299	1759.79
510.506	1765.21
510.713	1775.68
510.92	1749.72
511.126	1798.93
511.333	1830.9
511.54	1845.62
511.746	1857.63
511.953	1858.41
512.16	1929.32
512.367	1823.92
512.573	1852.79
512.78	1854.14
512.987	1818.11
513.193	1780.91
513.4	1738.67
513.606	1784.4
513.813	1816.56
514.02	1811.13
514.226	1866.35
514.433	1877.98
514.639	1761.73
514.846	1827.21
515.052	1754.95
515.259	1781.88
515.465	1815.4
515.672	1841.75
515.878	1949.27
516.085	1865.96
516.291	1898.51
516.497	1869.64
516.704	1855.31
516.91	1782.85
517.117	1693.14
517.323	1613.12
517.529	1708.83
517.736	1683.45
517.942	1670.86
518.148	1703.8
518.354	1761.92
518.561	1776.26
518.767	1754.37
518.973	1809
519.179	1819.85
519.386	1773.55
519.592	1818.69
519.798	1803.77
520.004	1918.66
520.21	1867.71
520.417	1939.78
520.623	2012.44
520.829	2004.3
521.035	2006.62
521.241	1985.31
521.447	2018.64
521.653	2134.5
521.859	1975.43
522.065	2011.86
522.271	2078.12
522.477	2103.69
522.683	2095.55
522.889	2079.09
523.095	2047.5
523.301	2060.87
523.507	2041.5
523.713	2057.39
523.919	2030.65
524.125	2127.33
524.331	2101.95
524.537	2206.57
524.742	2203.86
524.948	2246.29
525.154	2223.04
525.36	2280.19
525.566	2215.87
525.772	2241.64
525.977	2200.56
526.183	2226.14
526.389	2251.13
526.595	2143.02
526.8	2178.67
527.006	2096.72
527.212	2010.31
527.417	2013.99
527.623	1985.89
527.829	2111.25
528.034	2126.17
528.24	2131.4
528.446	2155.23
528.651	2290.66
528.857	2235.83
529.062	2348.59
529.268	2328.24
529.473	2313.91
529.679	2329.02
529.884	2427.25
530.09	2363.89
530.295	2343.55
530.501	2360.41
530.706	2379.01
530.912	2327.08
531.117	2334.44
531.323	2395.67
531.528	2459.6
531.733	2446.04
531.939	2387.72
532.144	2464.84
532.35	2421.24
532.555	2461.54
532.76	2372.42
532.966	2437.91
533.171	2367.38
533.376	2324.76
533.581	2272.25
533.787	2343.55
533.992	2423.96
534.197	2453.79
534.402	2425.89
534.607	2409.04
534.813	2481.69
535.018	2415.82
535.223	2414.46
535.428	2468.13
535.633	2496.22
535.838	2557.45
536.043	2527.22
536.249	2653.55
536.454	2518.12
536.659	2529.35
536.864	2509.01
537.069	2454.18
537.274	2482.47
537.479	2511.34
537.684	2494.29
537.889	2436.94
538.094	2610.34
538.299	2504.55
538.504	2477.62
538.708	2540.2
538.913	2558.8
539.118	2523.54
539.323	2550.47
539.528	2537.69
539.733	2504.75
539.938	2505.91
540.142	2524.7
540.347	2478.01
540.552	2430.16
540.757	2485.37
540.962	2483.63
541.166	2456.5
541.371	2405.94
541.576	2439.26
541.781	2379.97
541.985	2528.39
542.19	2487.12
542.395	2554.54
542.599	2597.17
542.804	2539.04
543.008	2601.23
543.213	2541.95
543.418	2481.11
543.622	2589.42
543.827	2523.15
544.031	2593.68
544.236	2638.63
544.44	2606.66
544.645	2647.54
544.849	2542.33
545.054	2633.2
545.258	2692.1
545.463	2663.04
545.667	2592.71
545.872	2663.23
546.076	2624.68
546.281	2558.8
546.485	2598.13
546.689	2628.17
546.894	2683.96
547.098	2634.75
547.302	2578.37
547.507	2603.75
547.711	2627.39
547.915	2683.96
548.119	2552.6
548.324	2535.94
548.528	2632.81
548.732	2559.38
548.936	2656.45
549.141	2646.57
549.345	2587.09
549.549	2659.55
549.753	2648.51
549.957	2713.03
550.161	2681.64
550.366	2664.98
550.57	2617.12
550.774	2597.17
550.978	2621.77
551.182	2652.38
551.386	2588.83
551.59	2570.43
551.794	2563.45
551.998	2660.91
552.202	2598.91
552.406	2601.82
552.61	2686.87
552.814	2677.96
553.018	2683.38
553.222	2602.2
553.426	2623.71
553.63	2705.28
553.833	2617.32
554.037	2588.45
554.241	2648.9
554.445	2646.96
554.649	2630.68
554.853	2597.94
555.056	2643.28
555.26	2655.1
555.464	2654.51
555.668	2626.42
555.871	2668.85
556.075	2690.55
556.279	2630.49
556.483	2603.56
556.686	2580.89
556.89	2638.82
557.094	2587.67
557.297	2523.35
557.501	2624.29
557.704	2507.65
557.908	2603.17
558.112	2484.02
558.315	2653.55
558.519	2566.75
558.722	2534
558.926	2521.22
559.129	2453.99
559.333	2447.21
559.536	2420.47
559.74	2432.67
559.943	2430.74
560.147	2447.98
560.35	2402.26
560.553	2492.74
560.757	2407.68
560.96	2519.28
561.164	2455.92
561.367	2615.38
561.57	2519.09
561.774	2490.6
561.977	2453.41
562.18	2436.36
562.384	2490.8
562.587	2449.72
562.79	2456.89
562.993	2430.74
563.197	2481.11
563.4	2537.88
563.603	2526.06
563.806	2560.93
564.009	2445.85
564.212	2470.26
564.416	2383.27
564.619	2474.91
564.822	2357.31
565.025	2424.92
565.228	2413.3
565.431	2406.71
565.634	2328.83
565.837	2379.97
566.04	2322.04
566.243	2336.77
566.446	2193.2
566.649	2351.88
566.852	2282.13
567.055	2324.76
567.258	2350.53
567.461	2422.99
567.664	2407.1
567.867	2286.59
568.07	2330.76
568.273	2352.46
568.475	2359.63
568.678	2272.25
568.881	2289.88
569.084	2292.79
569.287	2174.8
569.489	2197.27
569.692	2284.26
569.895	2270.12
570.098	2223.81
570.3	2210.25
570.503	2185.26
570.706	2150.77
570.909	2125
571.111	2098.65
571.314	2106.4
571.516	2108.15
571.719	2135.27
571.922	2104.27
572.124	2112.8
572.327	2145.93
572.529	2117.25
572.732	2101.75
572.935	2135.27
573.137	2245.13
573.34	2132.56
573.542	2183.32
573.745	2194.95
573.947	2178.48
574.15	2152.52
574.352	2122.29
574.554	2208.51
574.757	2104.08
574.959	2075.4
575.162	2085.67
575.364	2037.43
575.566	2211.61
575.769	2051.57
575.971	2072.11
576.173	1924.48
576.376	2072.5
576.578	2092.45
576.78	2146.51
576.982	1960.9
577.185	2053.12
577.387	1977.95
577.589	2013.02
577.791	2049.64
577.993	2045.18
578.196	2006.24
578.398	2053.12
578.6	2047.7
578.802	1920.99
579.004	1974.07
579.206	1953.73
579.408	2000.62
579.61	1925.83
579.812	2029.29
580.014	1988.02
580.216	1980.08
580.418	1922.93
580.62	1956.83
580.822	1949.47
581.024	2006.62
581.226	2026.97
581.428	1969.62
581.63	2060.1
581.832	1920.41
582.034	1998.1
582.236	1979.69
582.438	1984.54
582.64	2023.67
582.841	2050.22
583.043	2082.96
583.245	1983.57
583.447	2009.53
583.649	1979.89
583.85	2025.22
584.052	2009.34
584.254	1963.03
584.456	2043.44
584.657	1921.96
584.859	1939.2
585.061	1952.37
585.262	1950.24
585.464	1906.84
585.666	1975.43
585.867	1923.89
586.069	1959.16
586.27	1876.23
586.472	1919.05
586.674	1888.83
586.875	1890.38
587.077	1886.31
587.278	1897.16
587.48	1892.89
587.681	2046.54
587.883	1909.17
588.084	1836.71
588.285	1899.68
588.487	1883.01
588.688	1892.31
588.89	1775.1
589.091	1754.75
589.292	1774.13
589.494	1746.42
589.695	1696.05
589.896	1621.07
590.098	1619.13
590.299	1683.26
590.5	1637.54
590.702	1705.35
590.903	1696.24
591.104	1781.88
591.305	1752.04
591.507	1786.91
591.708	1806.68
591.909	1777.61
592.11	1876.81
592.311	1842.52
592.512	1784.78
592.714	1723.56
592.915	1729.18
593.116	1719.1
593.317	1772.96
593.518	1771.61
593.719	1782.46
593.92	1802.22
594.121	1836.9
594.322	1775.1
594.523	1772.96
594.724	1728.6
594.925	1764.83
595.126	1776.06
595.327	1768.7
595.528	1792.73
595.729	1797.76
595.929	1768.12
596.13	1794.08
596.331	1800.28
596.532	1763.08
596.733	1834.58
596.934	1814.04
597.135	1785.36
597.335	1794.28
597.536	1734.6
597.737	1784.98
597.938	1759.4
598.138	1765.6
598.339	1745.45
598.54	1775.68
598.74	1784.4
598.941	1754.75
599.142	1834.96
599.342	1715.62
599.543	1713.48
599.744	1779.16
599.944	1745.26
600.145	1727.05
600.345	1740.03
600.546	1834.58
600.746	1800.09
600.947	1828.18
601.147	1753.59
601.348	1776.45
601.548	1718.72
601.749	1734.02
601.949	1682.48
602.15	1692.95
602.35	1712.71
602.551	1772.38
602.751	1673.96
602.951	1710.77
603.152	1619.52
603.352	1718.13
603.552	1748.75
603.753	1761.34
603.953	1761.73
604.153	1730.92
604.354	1685.39
604.554	1756.5
604.754	1729.76
604.954	1666.4
605.155	1738.48
605.355	1715.62
605.555	1764.63
605.755	1806.1
605.955	1712.52
606.155	1767.93
606.356	1714.07
606.556	1710.19
606.756	1731.7
606.956	1630.95
607.156	1778.58
607.356	1653.04
607.556	1695.47
607.756	1723.95
607.956	1761.15
608.156	1699.15
608.356	1652.45
608.556	1736.35
608.756	1644.12
608.956	1635.4
609.156	1680.55
609.356	1610.02
609.556	1618.35
609.755	1649.35
609.955	1640.44
610.155	1679.58
610.355	1680.93
610.555	1583.48
610.755	1621.45
610.954	1539.11
611.154	1640.83
611.354	1643.93
611.554	1580.38
611.753	1632.5
611.953	1578.06
612.153	1652.65
612.352	1649.16
612.552	1563.33
612.752	1518.38
612.951	1593.75
613.151	1596.46
613.351	1570.5
613.55	1577.47
613.75	1606.15
613.949	1537.95
614.149	1573.02
614.348	1576.12
614.548	1513.15
614.747	1487.77
614.947	1516.25
615.146	1467.43
615.346	1590.26
615.545	1561.2
615.745	1552.67
615.944	1571.86
616.144	1517.61
616.343	1551.9
616.542	1475.76
616.742	1508.11
616.941	1493.39
617.14	1430.03
617.34	1475.56
617.539	1473.04
617.738	1469.94
617.938	1544.15
618.137	1496.49
618.336	1457.74
618.535	1523.42
618.734	1531.56
618.934	1508.5
619.133	1511.99
619.332	1529.62
619.531	1455.8
619.73	1500.17
619.929	1511.99
620.128	1492.23
620.328	1569.92
620.527	1490.09
620.726	1480.21
620.925	1501.52
621.124	1476.92
621.323	1503.46
621.522	1448.83
621.721	1441.08
621.92	1430.03
622.119	1495.32
622.318	1432.55
622.517	1434.68
622.715	1458.32
622.914	1406.01
623.113	1469.94
623.312	1382.18
623.511	1434.29
623.71	1410.46
623.909	1393.03
624.107	1493.19
624.306	1384.7
624.505	1365.9
624.704	1400.39
624.902	1365.32
625.101	1462.78
625.3	1392.06
625.499	1367.06
625.697	1367.45
625.896	1377.14
626.095	1399.03
626.293	1316.5
626.492	1320.56
626.69	1365.13
626.889	1366.29
627.088	1421.89
627.286	1374.23
627.485	1346.91
627.683	1397.87
627.882	1400
628.08	1343.62
628.279	1348.46
628.477	1406.59
628.676	1333.55
628.874	1389.93
629.073	1345.95
629.271	1322.89
629.469	1346.91
629.668	1369.97
629.866	1321.15
630.065	1310.1
630.263	1345.17
630.461	1283.56
630.66	1319.21
630.858	1353.11
631.056	1351.76
631.254	1392.06
631.453	1330.83
631.651	1362.61
631.849	1344.59
632.047	1326.38
632.245	1313.01
632.444	1321.92
632.642	1330.06
632.84	1334.51
633.038	1312.43
633.236	1271.74
633.434	1299.83
633.632	1296.73
633.83	1267.09
634.028	1340.33
634.227	1330.83
634.425	1423.64
634.623	1333.35
634.821	1337.61
635.019	1332
635.216	1317.27
635.414	1340.71
635.612	1333.74
635.81	1325.02
636.008	1353.5
636.206	1312.23
636.404	1342.07
636.602	1296.15
636.8	1291.7
636.997	1338.2
637.195	1332
637.393	1319.98
637.591	1386.25
637.789	1294.8
637.986	1294.41
638.184	1344.59
638.382	1357.96
638.58	1346.53
638.777	1364.74
638.975	1331.03
639.173	1315.72
639.37	1342.46
639.568	1309.52
639.765	1329.48
639.963	1287.43
640.161	1348.08
640.358	1339.16
640.556	1268.83
640.753	1230.67
640.951	1235.32
641.148	1286.08
641.346	1261.67
641.543	1243.65
641.741	1277.17
641.938	1235.32
642.136	1263.22
642.333	1214.78
642.531	1301.38
642.728	1281.82
642.925	1262.63
643.123	1203.93
643.32	1276.58
643.517	1221.95
643.715	1261.86
643.912	1221.95
644.109	1240.93
644.306	1255.47
644.504	1222.34
644.701	1260.12
644.898	1256.63
645.095	1201.99
645.293	1235.7
645.49	1246.75
645.687	1218.27
645.884	1248.68
646.081	1141.16
646.278	1203.54
646.475	1163.05
646.672	1174.87
646.87	1213.81
647.067	1199.67
647.264	1182.81
647.461	1144.45
647.658	1138.64
647.855	1169.44
648.052	1129.34
648.249	1115.19
648.446	1133.79
648.642	1116.55
648.839	1115.58
649.036	1133.99
649.233	1110.16
649.43	1092.91
649.627	1075.67
649.824	1110.74
650.021	1096.98
650.217	1069.66
650.414	1088.26
650.611	1144.64
650.808	1150.84
651.004	1114.81
651.201	1155.69
651.398	1184.36
651.595	1123.91
651.791	1088.46
651.988	1131.27
652.185	1071.21
652.381	1146.97
652.578	1032.46
652.775	1124.11
652.971	1119.07
653.168	1113.26
653.364	1139.8
653.561	1060.36
653.757	1090.2
653.954	1091.36
654.15	1103.37
654.347	1137.09
654.543	1115.39
654.74	1027.62
654.936	1051.26
655.133	1086.32
655.329	1090.59
655.525	1079.35
655.722	1114.61
655.918	1044.48
656.115	1067.72
656.311	958.26
656.507	934.23
656.704	906.72
656.9	933.07
657.096	911.56
657.292	940.05
657.489	990.61
657.685	976.66
657.881	963.49
658.077	973.56
658.273	997.78
658.47	1095.43
658.666	1010.96
658.862	1062.49
659.058	1016.58
659.254	1084.77
659.45	1021.42
659.646	1045.25
659.842	975.5
660.038	1099.69
660.234	1012.89
660.43	1027.23
660.626	1095.62
660.822	1086.71
661.018	1071.21
661.214	1060.17
661.41	1018.9
661.606	1068.69
661.802	1065.4
661.998	1059.78
662.194	1030.53
662.39	1071.41
662.586	1050.29
662.781	1072.37
662.977	1078.19
663.173	1081.87
663.369	1085.16
663.564	1071.99
663.76	1071.79
663.956	1024.13
664.152	1090.78
664.347	965.23
664.543	1019.68
664.739	1036.73
664.934	950.7
665.13	975.5
665.326	1051.45
665.521	1021.61
665.717	977.24
665.912	990.23
666.108	927.06
666.304	1001.85
666.499	970.85
666.695	917.38
666.89	984.03
667.086	1034.98
667.281	1027.04
667.477	1069.66
667.672	993.13
667.867	978.41
668.063	1027.23
668.258	949.93
668.454	979.76
668.649	1068.31
668.844	998.75
669.04	1022
669.235	1015.03
669.43	949.73
669.626	938.88
669.821	959.81
670.016	932.49
670.211	981.51
670.407	936.17
670.602	1001.08
670.797	946.25
670.992	994.68
671.187	929.58
671.382	996.43
671.578	954.77
671.773	967.17
671.968	902.07
672.163	988.68
672.358	955.35
672.553	925.51
672.748	922.8
672.943	1019.09
673.138	960.2
673.333	981.12
673.528	952.25
673.723	920.09
673.918	928.23
674.113	899.94
674.308	1060.36
674.503	997.78
674.698	972.59
674.892	957.48
675.087	993.91
675.282	975.31
675.477	923.96
675.672	963.1
675.867	951.28
676.061	904.4
676.256	861.19
676.451	896.06
676.646	944.11
676.84	903.81
677.035	854.8
677.23	889.86
677.424	939.08
677.619	975.89
677.814	958.84
678.008	992.94
678.203	872.43
678.397	901.68
678.592	921.83
678.787	999.14
678.981	880.57
679.176	922.8
679.37	931.13
679.565	898.2
679.759	935.98
679.954	949.54
680.148	939.66
680.342	951.09
680.537	927.26
680.731	889.09
680.926	939.85
681.12	966.01
681.314	873.98
681.509	927.65
681.703	908.27
681.897	945.28
682.092	902.46
682.286	892.77
682.48	984.61
682.674	947.6
682.869	898
683.063	936.56
683.257	1038.28
683.451	883.66
683.645	929
683.839	933.65
684.034	916.8
684.228	963.1
684.422	857.12
684.616	854.02
684.81	923.96
685.004	910.4
685.198	873.78
685.392	907.88
685.586	878.05
685.78	906.53
685.974	934.23
686.168	914.08
686.362	976.08
686.556	862.16
686.75	837.55
686.944	830.97
687.138	871.27
687.331	745.91
687.525	792.41
687.719	690.89
687.913	785.24
688.107	777.3
688.301	745.33
688.494	782.34
688.688	720.92
688.882	713.36
689.076	714.14
689.269	763.93
689.463	846.27
689.657	775.55
689.85	763.93
690.044	799.58
690.238	831.93
690.431	778.46
690.625	780.2
690.818	810.62
691.012	817.4
691.205	850.73
691.399	774
691.593	810.43
691.786	858.87
691.98	896.84
692.173	924.74
692.366	889.67
692.56	847.24
692.753	948.76
692.947	839.49
693.14	940.63
693.333	912.92
693.527	871.46
693.72	893.93
693.914	876.3
694.107	876.11
694.3	902.65
694.493	849.95
694.687	937.53
694.88	887.35
695.073	956.71
695.266	918.93
695.46	898.97
695.653	995.26
695.846	931.91
696.039	855.57
696.232	938.5
696.425	974.53
696.618	968.14
696.812	943.92
697.005	1010.18
697.198	1106.86
697.391	1024.91
697.584	1056.49
697.777	1081.67
697.97	1077.41
698.163	1090.2
698.356	1061.33
698.549	1155.3
698.742	1109.38
698.935	1073.92
699.127	1114.22
699.32	1086.71
699.513	1057.46
699.706	1126.43
699.899	1145.61
700.092	1080.51
700.285	1122.94
700.477	1111.12
700.67	1130.69
700.863	1173.9
701.056	1245.39
701.248	1200.83
701.441	1219.43
701.634	1176.42
701.826	1318.05
702.019	1183
702.212	1238.22
702.404	1197.73
702.597	1237.45
702.79	1238.8
702.982	1285.88
703.175	1326.57
703.367	1312.82
703.56	1331.61
703.752	1413.37
703.945	1361.45
704.137	1394.96
704.33	1395.16
704.522	1463.16
704.715	1431.78
704.907	1463.74
705.1	1501.72
705.292	1468.39
705.484	1485.64
705.677	1523.03
705.869	1535.62
706.061	1633.47
706.254	1619.32
706.446	1574.18
706.638	1612.15
706.831	1654
707.023	1605.57
707.215	1721.43
707.407	1721.62
707.599	1704.57
707.792	1729.37
707.984	1718.91
708.176	1791.95
708.368	1735.38
708.56	1788.66
708.752	1802.03
708.944	1776.26
709.136	1828.96
709.329	1823.34
709.521	1961.29
709.713	1927.58
709.905	1939.78
710.097	2002.36
710.289	1898.13
710.481	1951.21
710.672	2001.97
710.864	2023.87
711.056	2087.22
711.248	2030.07
711.44	2045.57
711.632	2013.99
711.824	2131.4
712.016	2152.32
712.207	2140.12
712.399	2155.03
712.591	2257.33
712.783	2261.4
712.975	2227.69
713.166	2220.91
713.358	2243.58
713.55	2321.85
713.741	2331.34
713.933	2326.69
714.125	2320.11
714.316	2264.89
714.508	2397.41
714.7	2410.01
714.891	2395.09
715.083	2458.44
715.274	2428.02
715.466	2485.57
715.657	2504.75
715.849	2394.7
716.04	2480.92
716.232	2421.63
716.423	2519.67
716.615	2421.82
716.806	2427.25
716.998	2407.1
717.189	2318.56
717.381	2282.33
717.572	2234.28
717.763	2277.29
717.955	2257.14
718.146	2236.02
718.337	2176.35
718.528	2140.31
718.72	2073.66
718.911	2181.58
719.102	2114.93
719.293	2210.06
719.485	2160.85
719.676	2171.31
719.867	2128.3
720.058	2140.12
720.249	2159.88
720.44	2169.76
720.632	2193.78
720.823	2241.83
721.014	2393.34
721.205	2389.47
721.396	2500.68
721.587	2613.63
721.778	2685.32
721.969	2732.79
722.16	2791.49
722.351	2761.46
722.542	2949.79
722.733	2966.45
722.924	2882.94
723.115	2928.47
723.305	2904.06
723.496	2963.54
723.687	2794.79
723.878	2828.89
724.069	2834.12
724.26	2864.54
724.45	2746.35
724.641	2792.27
724.832	2791.3
725.023	2807.19
725.213	2825.21
725.404	2803.89
725.595	2786.84
725.785	2787.04
725.976	2923.82
726.167	2883.33
726.357	2919.37
726.548	3036.2
726.739	2939.13
726.929	3036.58
727.12	3040.07
727.31	3091.8
727.501	3012.75
727.691	3087.54
727.882	3085.21
728.072	3104.59
728.263	3098.39
728.453	3187.13
728.644	3204.18
728.834	3124.35
729.024	3122.03
729.215	3110.01
729.405	3170.46
729.596	3252.03
729.786	3229.56
729.976	3290.39
730.167	3367.89
730.357	3259.59
730.547	3327.21
730.737	3320.04
730.928	3382.81
731.118	3463.99
731.308	3397.92
731.498	3432.41
731.688	3542.65
731.879	3508.55
732.069	3548.27
732.259	3612.59
732.449	3677.31
732.639	3730.78
732.829	3738.92
733.019	3792
733.209	3909.42
733.399	3867.95
733.589	3969.48
733.779	3988.27
733.969	3945.26
734.159	4063.83
734.349	4088.83
734.539	4176.59
734.729	4156.25
734.919	4186.67
735.109	4243.82
735.299	4178.34
735.488	4260.49
735.678	4218.64
735.868	4227.16
736.058	4221.93
736.248	4195
736.437	4185.89
736.627	4163.81
736.817	4336.43
737.007	4201.59
737.196	4290.32
737.386	4283.35
737.576	4261.65
737.765	4353.87
737.955	4263.39
738.144	4464.89
738.334	4419.55
738.524	4323.84
738.713	4395.72
738.903	4368.79
739.092	4384.68
739.282	4405.21
739.471	4434.86
739.661	4380.8
739.85	4472.44
740.04	4476.32
740.229	4501.7
740.419	4523.21
740.608	4564.09
740.797	4525.92
740.987	4594.12
741.176	4581.52
741.365	4523.4
741.555	4422.85
741.744	4592.57
741.933	4562.73
742.123	4579.2
742.312	4589.27
742.501	4679.56
742.69	4689.44
742.88	4519.91
743.069	4724.32
743.258	4652.24
743.447	4671.42
743.636	4722.57
743.825	4673.17
744.014	4672.97
744.204	4719.28
744.393	4628.61
744.582	4770.04
744.771	4758.22
744.96	4717.54
745.149	4742.53
745.338	4739.04
745.527	4740.01
745.716	4735.55
745.905	4713.66
746.094	4758.22
746.283	4785.73
746.471	4753.96
746.66	4877.57
746.849	4840.76
747.038	4839.01
747.227	4790.38
747.416	4828.94
747.604	4777.79
747.793	4786.51
747.982	4797.17
748.171	4852.58
748.359	4807.05
748.548	4837.85
748.737	4832.23
748.926	4807.82
749.114	4693.51
749.303	4806.08
749.491	4778.37
749.68	4685.18
749.869	4811.12
750.057	4740.4
750.246	4721.22
750.434	4757.45
750.623	4770.43
750.811	4703.78
751	4757.64
751.188	4719.09
751.377	4761.52
751.565	4735.75
751.754	4696.03
751.942	4672.39
752.131	4755.32
752.319	4721.99
752.507	4662.7
752.696	4726.25
752.884	4746.21
753.072	4665.42
753.261	4730.32
753.449	4736.52
753.637	4635.97
753.825	4733.81
754.014	4694.87
754.202	4706.1
754.39	4775.08
754.578	4726.06
754.766	4657.47
754.955	4613.49
755.143	4779.53
755.331	4625.31
755.519	4655.73
755.707	4676.07
755.895	4617.56
756.083	4699.52
756.271	4625.7
756.459	4620.08
756.647	4676.65
756.835	4618.92
757.023	4587.34
757.211	4597.22
757.399	4586.56
757.587	4573.58
757.775	4560.02
757.963	4591.79
758.151	4552.85
758.339	4534.83
758.526	4508.29
758.714	4583.07
758.902	4446.68
759.09	4355.81
759.278	4154.31
759.465	3868.73
759.653	3468.83
759.841	3218.9
760.028	2825.59
760.216	2495.45
760.404	2376.49
760.591	1998.1
760.779	1775.87
760.967	1550.16
761.154	1392.06
761.342	1445.73
761.529	1439.33
761.717	1515.67
761.905	1560.81
762.092	1692.37
762.28	1648.97
762.467	1684.42
762.655	1627.65
762.842	1641.02
763.029	1676.48
763.217	1714.45
763.404	1723.75
763.592	1771.8
763.779	1690.62
763.966	1782.46
764.154	1848.33
764.341	1901.81
764.528	1898.71
764.716	2011.66
764.903	2063.39
765.09	2166.66
765.277	2176.93
765.465	2365.25
765.652	2421.82
765.839	2542.33
766.026	2631.85
766.213	2742.28
766.4	2823.27
766.588	3015.47
766.775	3051.89
766.962	3123.38
767.149	3199.72
767.336	3409.55
767.523	3351.23
767.71	3485.88
767.897	3612.4
768.084	3700.75
768.271	3728.65
768.458	3800.53
768.645	3849.74
768.832	3831.72
769.019	3834.24
769.206	3872.8
769.392	3974.71
769.579	4046.2
769.766	3960.37
769.953	3993.11
770.14	4051.63
770.327	4037.29
770.513	4095.8
770.7	4107.43
770.887	4038.06
771.073	4084.37
771.26	4069.64
771.447	4038.45
771.634	4077.98
771.82	4144.04
772.007	4022.76
772.193	4083.4
772.38	4084.37
772.567	4076.23
772.753	4033.22
772.94	4113.63
773.126	4067.9
773.313	4087.47
773.499	4043.88
773.686	4109.75
773.872	4045.04
774.059	4054.92
774.245	4004.35
774.432	3978.58
774.618	3947
774.804	3986.14
774.991	3940.41
775.177	4049.11
775.363	3962.7
775.55	3978.78
775.736	3936.73
775.922	3989.63
776.109	3971.61
776.295	3999.7
776.481	3993.89
776.667	3955.91
776.853	3935.18
777.04	3894.5
777.226	3932.86
777.412	3990.79
777.598	3900.89
777.784	3890.43
777.97	3885.58
778.156	3880.16
778.342	3871.05
778.528	3889.85
778.715	3806.54
778.901	3844.7
779.087	3875.51
779.272	3817.77
779.458	3811.57
779.644	3835.79
779.83	3832.3
780.016	3896.05
780.202	3829.01
780.388	3787.16
780.574	3697.07
780.76	3780.19
780.946	3794.52
781.131	3792.97
781.317	3746.47
781.503	3708.11
781.689	3723.22
781.874	3894.5
782.06	3725.55
782.246	3748.41
782.432	3673.43
782.617	3692.81
782.803	3776.5
782.989	3640.88
783.174	3682.34
783.36	3624.99
783.545	3676.73
783.731	3655.8
783.916	3512.04
784.102	3649.41
784.288	3600
784.473	3587.6
784.659	3610.46
784.844	3626.93
785.029	3528.51
785.215	3522.11
785.4	3495.18
785.586	3633.13
785.771	3478.52
785.956	3606.78
786.142	3481.62
786.327	3526.57
786.512	3525.99
786.698	3549.24
786.883	3415.17
787.068	3506.81
787.254	3526.57
787.439	3456.05
787.624	3448.1
787.809	3500.8
787.994	3432.99
788.18	3522.89
788.365	3364.99
788.55	3410.32
788.735	3394.24
788.92	3381.84
789.105	3396.95
789.29	3398.7
789.475	3342.51
789.66	3342.9
789.845	3305.89
790.03	3287.49
790.215	3359.17
790.4	3373.51
790.585	3394.24
790.77	3317.52
790.955	3236.14
791.14	3267.14
791.325	3373.7
791.51	3228.39
791.695	3290.01
791.879	3301.63
792.064	3221.42
792.249	3302.21
792.434	3278.77
792.618	3258.62
792.803	3310.74
792.988	3262.88
793.173	3250.87
793.357	3316.36
793.542	3203.21
793.727	3226.84
793.911	3313.26
794.096	3237.11
794.281	3293.69
794.465	3364.02
794.65	3265.59
794.834	3371.38
795.019	3328.75
795.203	3331.66
795.388	3357.62
795.572	3396.76
795.757	3306.47
795.941	3325.85
796.126	3296.79
796.31	3265.59
796.494	3300.27
796.679	3278.57
796.863	3249.9
797.048	3374.29
797.232	3302.6
797.416	3317.52
797.601	3286.32
797.785	3363.05
797.969	3406.06
798.153	3326.82
798.338	3366.34
798.522	3395.6
798.706	3385.72
798.89	3365.18
799.074	3514.95
799.258	3442.29
799.443	3354.33
799.627	3383
799.811	3443.65
799.995	3335.15
800.179	3309.19
800.363	3319.84
800.547	3345.22
800.731	3390.17
800.915	3288.84
801.099	3335.15
801.283	3352.59
801.467	3342.32
801.651	3292.14
801.835	3395.21
802.019	3345.8
802.202	3410.13
802.386	3284.58
802.57	3308.02
802.754	3272.37
802.938	3313.84
803.121	3299.11
803.305	3375.45
803.489	3354.52
803.673	3324.88
803.856	3411.29
804.04	3309.38
804.224	3337.67
804.407	3289.62
804.591	3278.96
804.775	3327.79
804.958	3273.92
805.142	3450.62
805.326	3306.86
805.509	3333.21
805.693	3410.71
805.876	3320.04
806.06	3315.39
806.243	3343.48
806.427	3379.52
806.61	3415.55
806.794	3330.69
806.977	3331.85
807.16	3342.9
807.344	3378.16
807.527	3331.66
807.71	3323.72
807.894	3330.3
808.077	3365.18
808.26	3287.49
808.444	3302.21
808.627	3335.73
808.81	3286.13
808.993	3219.48
809.177	3225.88
809.36	3208.05
809.543	3206.11
809.726	3165.81
809.909	3147.21
810.092	3135.59
810.276	3171.82
810.459	3148.57
810.642	3153.22
810.825	3071.65
811.008	3129.78
811.191	3024.18
811.374	3036.97
811.557	3047.05
811.74	3112.15
811.923	2985.43
812.106	3022.25
812.289	2966.45
812.472	2962.96
812.654	2988.73
812.837	2913.75
813.02	2857.95
813.203	2861.82
813.386	2741.31
813.569	2737.05
813.751	2620.61
813.934	2711.67
814.117	2648.51
814.3	2627.78
814.482	2579.73
814.665	2532.45
814.848	2493.7
815.03	2432.48
815.213	2450.11
815.396	2366.99
815.578	2375.91
815.761	2305.58
815.943	2410.97
816.126	2261.4
816.309	2273.8
816.491	2191.27
816.674	2143.02
816.856	2155.62
817.039	2150.97
817.221	2233.7
817.403	2192.43
817.586	2202.89
817.768	2224.78
817.951	2176.35
818.133	2121.71
818.315	2136.43
818.498	2199.6
818.68	2261.21
818.862	2246.29
819.045	2290.85
819.227	2270.12
819.409	2190.88
819.591	2238.93
819.774	2235.83
819.956	2151.16
820.138	2271.67
820.32	2256.36
820.502	2275.74
820.684	2381.33
820.866	2383.46
821.048	2440.81
821.231	2408.26
821.413	2448.95
821.595	2420.66
821.777	2411.36
821.959	2414.66
822.141	2488.67
822.323	2305.96
822.505	2242.8
822.686	2264.89
822.868	2143.41
823.05	2012.82
823.232	1983.18
823.414	1858.41
823.596	1979.31
823.778	1950.44
823.96	2007.79
824.141	1986.47
824.323	2038.59
824.505	2113.57
824.687	2192.43
824.868	2224.2
825.05	2290.08
825.232	2339.87
825.413	2440.04
825.595	2346.65
825.777	2274.96
825.958	2337.16
826.14	2329.79
826.321	2362.15
826.503	2312.74
826.685	2357.31
826.866	2403.42
827.048	2411.94
827.229	2309.84
827.411	2260.43
827.592	2249.2
827.773	2206.96
827.955	2200.76
828.136	2184.1
828.318	2144.96
828.499	2211.41
828.68	2121.32
828.862	2157.55
829.043	2175.18
829.224	2127.52
829.406	2086.64
829.587	2107.57
829.768	2095.36
829.949	2134.5
830.131	2079.86
830.312	2239.31
830.493	2134.69
830.674	2156
830.855	2124.81
831.036	2104.85
831.218	2165.5
831.399	2199.79
831.58	2116.87
831.761	2117.06
831.942	2149.42
832.123	2107.18
832.304	2077.73
832.485	2060.1
832.666	2061.07
832.847	2128.68
833.028	2082.57
833.209	2119.19
833.389	2102.53
833.57	2027.94
833.751	2048.67
833.932	2127.13
834.113	2096.52
834.294	2053.12
834.475	2114.73
834.655	2121.71
834.836	2155.81
835.017	2165.3
835.198	2116.28
835.378	2085.29
835.559	2197.46
835.74	2121.52
835.92	2129.65
836.101	2102.14
836.281	2131.78
836.462	2136.82
836.643	2159.88
836.823	2171.7
837.004	2158.33
837.184	2202.11
837.365	2222.46
837.545	2214.9
837.726	2137.4
837.906	2206.57
838.087	2148.25
838.267	2185.26
838.448	2110.67
838.628	2162.59
838.808	2101.37
838.989	2208.9
839.169	2107.95
839.349	2181.97
839.53	2184.29
839.71	2192.23
839.89	2130.62
840.07	2206.38
840.251	2133.33
840.431	2186.42
840.611	2147.48
840.791	2118.42
840.971	2149.22
841.151	2119.58
841.332	2106.02
841.512	2113.77
841.692	2077.34
841.872	2116.48
842.052	2121.52
842.232	2175.18
842.412	2029.49
842.592	2077.34
842.772	2118.61
842.952	2137.98
843.132	2081.22
843.312	2057.19
843.492	2048.47
843.672	2125.58
843.851	2017.86
844.031	2039.75
844.211	2074.63
844.391	1995.58
844.571	2071.92
844.751	2082.19
844.93	2062.23
845.11	2044.79
845.29	2057.58
845.47	2079.86
845.649	2058.74
845.829	2050.6
846.009	2034.72
846.188	2090.32
846.368	2040.72
846.547	2037.04
846.727	2074.63
846.907	1997.52
847.086	2029.29
847.266	2081.41
847.445	1999.46
847.625	1984.92
847.804	1982.6
847.984	2015.15
848.163	1957.02
848.343	1973.3
848.522	2028.52
848.701	2013.6
848.881	1962.64
849.06	1986.67
849.239	1988.41
849.419	2005.85
849.598	1901.42
849.777	1963.81
849.957	1888.44
850.136	1803.96
850.315	1793.11
850.494	1811.91
850.674	1793.89
850.853	1910.91
851.032	1825.08
851.211	1900.45
851.39	1878.56
851.569	1819.85
851.748	1821.6
851.927	1843.88
852.107	1854.14
852.286	1842.13
852.465	1781.1
852.644	1891.73
852.823	1838.45
853.002	1846.78
853.181	1824.7
853.359	1877.59
853.538	1750.68
853.717	1845.04
853.896	1725.11
854.075	1658.65
854.254	1640.05
854.433	1575.73
854.611	1623.2
854.79	1549.19
854.969	1611.96
855.148	1615.84
855.327	1564.49
855.505	1631.14
855.684	1617.97
855.863	1674.54
856.041	1632.69
856.22	1726.27
856.399	1642.96
856.577	1782.07
856.756	1762.11
856.934	1847.75
857.113	1868.09
857.291	1748.75
857.47	1746.03
857.648	1799.7
857.827	1764.44
858.005	1805.51
858.184	1718.52
858.362	1838.45
858.541	1779.55
858.719	1766.76
858.898	1743.52
859.076	1709.61
859.254	1810.55
859.433	1716.39
859.611	1713.68
859.789	1663.11
859.967	1766.96
860.146	1790.01
860.324	1692.37
860.502	1713.29
860.68	1675.32
860.859	1658.27
861.037	1725.11
861.215	1710.58
861.393	1730.73
861.571	1671.05
861.749	1664.47
861.927	1725.3
862.105	1680.35
862.283	1679
862.461	1677.83
862.639	1581.54
862.817	1646.84
862.995	1654.39
863.173	1643.35
863.351	1644.51
863.529	1664.08
863.707	1715.23
863.885	1670.67
864.063	1598.79
864.241	1623
864.418	1683.84
864.596	1621.65
864.774	1582.51
864.952	1609.83
865.129	1606.54
865.307	1608.09
865.485	1545.89
865.663	1621.65
865.84	1510.44
866.018	1539.89
866.196	1360.28
866.373	1381.98
866.551	1373.26
866.728	1336.45
866.906	1389.73
867.084	1413.76
867.261	1447.28
867.439	1447.66
867.616	1511.02
867.794	1460.26
867.971	1450.18
868.149	1459.68
868.326	1574.76
868.503	1520.51
868.681	1486.99
868.858	1456.58
869.035	1467.81
869.213	1516.25
869.39	1441.46
869.567	1546.09
869.745	1491.06
869.922	1485.06
870.099	1511.02
870.276	1533.49
870.454	1526.71
870.631	1493.19
870.808	1470.53
870.985	1528.07
871.162	1574.76
871.339	1516.44
871.517	1464.33
871.694	1442.04
871.871	1462.58
872.048	1433.13
872.225	1451.73
872.402	1463.74
872.579	1436.23
872.756	1483.31
872.933	1400.78
873.11	1435.07
873.287	1463.16
873.463	1405.43
873.64	1445.34
873.817	1440.88
873.994	1437.01
874.171	1369.97
874.348	1394
874.524	1376.36
874.701	1394.77
874.878	1339.36
875.055	1410.27
875.231	1390.9
875.408	1401.36
875.585	1287.43
875.762	1372.88
875.938	1359.9
876.115	1344.98
876.291	1341.49
876.468	1374.43
876.645	1302.93
876.821	1337.81
876.998	1341.49
877.174	1342.65
877.351	1343.43
877.527	1308.75
877.704	1348.27
877.88	1335.48
878.057	1319.6
878.233	1348.85
878.409	1310.3
878.586	1342.26
878.762	1312.43
878.938	1304.48
879.115	1250.43
879.291	1329.09
879.467	1253.14
879.644	1268.83
879.82	1291.12
879.996	1270.38
880.172	1184.17
880.349	1301.38
880.525	1333.55
880.701	1225.05
880.877	1240.35
881.053	1304.1
881.229	1247.52
881.405	1298.67
881.581	1228.15
881.757	1241.32
881.933	1286.47
882.109	1286.27
882.285	1230.28
882.461	1229.31
882.637	1279.49
882.813	1200.05
882.989	1229.12
883.165	1292.67
883.341	1217.69
883.517	1291.7
883.693	1278.33
883.869	1257.6
884.044	1211.1
884.22	1289.76
884.396	1287.63
884.572	1254.11
884.747	1280.85
884.923	1287.63
885.099	1297.32
885.275	1311.07
885.45	1216.72
885.626	1220.2
885.801	1212.65
885.977	1247.33
886.153	1176.61
886.328	1253.33
886.504	1187.85
886.679	1269.42
886.855	1229.7
887.03	1258.18
887.206	1272.32
887.381	1220.01
887.557	1269.42
887.732	1288.02
887.908	1250.82
888.083	1237.06
888.258	1241.71
888.434	1236.09
888.609	1216.33
888.784	1298.87
888.96	1239
889.135	1209.35
889.31	1207.03
889.485	1251.98
889.661	1222.92
889.836	1282.98
890.011	1244.81
890.186	1247.72
890.361	1247.13
890.537	1251.01
890.712	1239.97
890.887	1235.51
891.062	1253.72
891.237	1320.56
891.412	1231.83
891.587	1241.32
891.762	1285.88
891.937	1264.96
892.112	1213.04
892.287	1205.48
892.462	1199.09
892.637	1154.91
892.812	1127.4
892.987	1164.4
893.161	1144.64
893.336	1151.04
893.511	1187.65
893.686	1179.9
893.861	1128.17
894.035	1176.8
894.21	1162.66
894.385	1105.89
894.56	1155.88
894.734	1062.88
894.909	1072.96
895.084	1079.54
895.258	1047.96
895.433	1080.71
895.608	1052.23
895.782	990.61
895.957	1030.33
896.131	1003.79
896.306	948.96
896.48	932.3
896.655	960.39
896.829	871.65
897.004	907.69
897.178	895.48
897.353	894.32
897.527	940.82
897.701	921.06
897.876	852.47
898.05	973.56
898.224	931.71
898.399	959.81
898.573	884.83
898.747	752.89
898.921	828.83
899.096	751.14
899.27	730.8
899.444	725.95
899.618	757.92
899.792	802.48
899.967	805.97
900.141	836.78
900.315	768
900.489	799
900.663	806.94
900.837	792.22
901.011	751.53
901.185	858.48
901.359	800.35
901.533	773.42
901.707	828.45
901.881	786.4
902.055	744.55
902.229	797.45
902.403	854.8
902.576	788.34
902.75	797.83
902.924	914.86
903.098	817.6
903.272	891.8
903.446	943.34
903.619	933.85
903.793	941.01
903.967	947.99
904.14	971.82
904.314	965.23
904.488	937.33
904.661	978.6
904.835	932.88
905.009	1010.96
905.182	1021.81
905.356	984.8
905.529	982.86
905.703	944.7
905.876	914.66
906.05	921.45
906.223	908.46
906.397	840.07
906.57	802.87
906.744	795.12
906.917	791.83
907.09	786.4
907.264	796.48
907.437	762.57
907.61	701.74
907.784	745.52
907.957	767.22
908.13	687.98
908.304	756.18
908.477	703.09
908.65	731.77
908.823	668.02
908.996	765.48
909.17	699.8
909.343	691.47
909.516	713.36
909.689	715.3
909.862	706.19
910.035	708.13
910.208	680.62
910.381	648.26
910.554	794.54
910.727	690.31
910.9	684.88
911.073	662.79
911.246	759.67
911.419	756.57
911.592	710.84
911.765	687.4
911.938	692.63
912.11	697.28
912.283	694.57
912.456	732.74
912.629	699.22
912.802	655.24
912.974	680.62
913.147	617.07
913.32	552.74
913.493	578.13
913.665	606.8
913.838	597.69
914.01	613.58
914.183	657.37
914.356	594.01
914.528	695.15
914.701	718.59
914.873	695.92
915.046	599.83
915.218	568.05
915.391	520
915.563	537.63
915.736	582.39
915.908	620.75
916.081	600.79
916.253	580.64
916.425	606.8
916.598	605.44
916.77	599.24
916.942	560.69
917.115	536.08
917.287	612.42
917.459	569.79
917.632	520.39
917.804	490.36
917.976	559.33
918.148	577.54
918.32	566.31
918.493	613
918.665	656.79
918.837	633.54
919.009	660.47
919.181	659.89
919.353	591.49
919.525	603.7
919.697	584.71
919.869	611.06
920.041	662.41
920.213	758.31
920.385	640.12
920.557	630.82
920.729	678.1
920.901	673.84
921.073	638.96
921.244	603.89
921.416	653.11
921.588	632.37
921.76	631.21
921.932	682.17
922.103	609.13
922.275	625.98
922.447	620.17
922.619	545.77
922.79	596.92
922.962	575.03
923.134	612.03
923.305	555.07
923.477	546.74
923.648	512.83
923.82	557.78
923.991	492.1
924.163	479.7
924.335	560.88
924.506	512.25
924.677	576.58
924.849	509.15
925.02	542.67
925.192	566.69
925.363	561.46
925.535	551.19
925.706	511.48
925.877	566.11
926.049	519.81
926.22	528.53
926.391	515.16
926.562	577.74
926.734	525.62
926.905	568.83
927.076	478.54
927.247	502.56
927.419	491.33
927.59	467.69
927.761	506.44
927.932	484.16
928.103	478.15
928.274	429.33
928.445	416.93
928.616	408.98
928.787	406.66
928.958	434.56
929.129	402.2
929.3	391.74
929.471	349.7
929.642	298.35
929.813	274.72
929.984	333.23
930.155	278.79
930.326	322.96
930.496	304.75
930.667	244.3
930.838	297.19
931.009	226.47
931.18	277.04
931.35	235.58
931.521	248.37
931.692	174.55
931.863	129.02
932.033	208.46
932.204	204.77
932.374	184.62
932.545	156.34
932.716	203.61
932.886	181.14
933.057	92.79
933.227	108.09
933.398	203.42
933.568	101.51
933.739	78.45
933.909	92.4
934.08	154.01
934.25	49.78
934.421	67.02
934.591	122.24
934.761	64.7
934.932	64.11
935.102	104.99
935.272	88.53
935.443	105.19
935.613	93.76
935.783	86.78
935.953	102.28
936.123	255.92
936.294	69.15
936.464	86.78
936.634	90.27
936.804	45.71
936.974	11.03
937.144	97.44
937.314	87.36
937.484	78.84
937.655	60.24
937.825	135.41
937.995	74.77
938.165	140.84
938.334	95.69
938.504	109.45
938.674	91.24
938.844	140.45
939.014	149.75
939.184	166.22
939.354	205.74
939.524	222.6
939.694	149.36
939.863	147.04
940.033	221.05
940.203	211.94
940.373	190.05
940.542	200.51
940.712	174.16
940.882	191.6
941.051	191.21
941.221	194.51
941.391	195.67
941.56	149.56
941.73	126.5
941.899	266.58
942.069	150.91
942.238	196.64
942.408	153.82
942.577	197.8
942.747	147.23
942.916	116.81
943.086	141.23
943.255	170.87
943.425	141.61
943.594	112.16
943.763	53.07
943.933	84.65
944.102	22.46
944.271	108.48
944.441	126.5
944.61	85.62
944.779	134.06
944.948	215.24
945.117	90.46
945.287	112.94
945.456	69.15
945.625	86.78
945.794	125.73
945.963	111.97
946.132	169.32
946.301	94.53
946.47	147.43
946.639	45.13
946.808	107.71
946.977	142.58
947.146	194.12
947.315	96.47
947.484	158.08
947.653	88.33
947.822	107.13
947.991	80.2
948.16	185.98
948.329	171.64
948.498	120.11
948.666	110.42
948.835	149.75
949.004	88.91
949.173	55.4
949.341	117.2
949.51	135.22
949.679	169.9
949.847	144.52
950.016	195.86
950.185	162.93
950.353	121.85
950.522	114.29
950.69	179.98
950.859	118.36
951.028	151.49
951.196	155.76
951.365	80.97
951.533	100.15
951.701	159.24
951.87	157.31
952.038	60.63
952.207	134.06
952.375	182.49
952.543	106.35
952.712	107.51
952.88	91.43
953.048	163.12
953.217	117.2
953.385	146.65
953.553	192.76
953.721	83.88
953.89	119.33
954.058	49.78
954.226	100.93
954.394	115.84
954.562	50.75
954.73	126.69
954.898	114.49
955.067	151.3
955.235	96.28
955.403	142.97
955.571	190.63
955.739	132.89
955.907	80.58
956.075	86.4
956.243	104.61
956.41	126.11
956.578	63.92
956.746	81.94
956.914	68.18
957.082	154.79
957.25	129.6
957.418	91.05
957.585	138.51
957.753	143.36
957.921	79.03
958.089	91.82
958.256	132.31
958.424	135.8
958.592	127.66
958.759	86.2
958.927	159.44
959.095	97.83
959.262	101.7
959.43	108.68
959.597	70.12
959.765	104.22
959.932	86.78
960.1	137.74
960.267	132.89
960.435	109.06
960.602	185.79
960.77	73.41
960.937	51.13
961.104	118.94
961.272	67.02
961.439	84.26
961.606	115.46
961.774	159.83
961.941	112.55
962.108	140.06
962.275	124.56
962.443	196.06
962.61	135.22
962.777	194.51
962.944	162.73
963.111	129.02
963.278	171.84
963.446	125.34
963.613	112.94
963.78	142.39
963.947	151.11
964.114	149.36
964.281	200.71
964.448	144.71
964.615	89.3
964.782	118.36
964.949	171.06
965.116	150.91
965.282	176.68
965.449	121.46
965.616	104.61
965.783	163.31
965.95	132.12
966.117	96.66
966.283	115.26
966.45	159.05
966.617	129.02
966.784	170.87
966.95	189.27
967.117	153.63
967.284	84.26
967.45	101.51
967.617	195.86
967.784	164.28
967.95	212.52
968.117	117.59
968.283	171.26
968.45	256.7
968.616	173.97
968.783	182.88
968.949	157.11
969.116	173.97
969.282	156.73
969.449	162.15
969.615	167.58
969.781	83.1
969.948	139.87
970.114	102.48
970.28	202.84
970.447	138.13
970.613	225.12
970.779	136.96
970.945	173
971.112	162.93
971.278	168.16
971.444	143.94
971.61	193.54
971.776	123.98
971.942	173.97
972.108	178.23
972.275	156.73
972.441	172.81
972.607	210.01
972.773	110.81
972.939	159.83
973.105	142.58
973.271	122.24
973.437	106.93
973.602	109.45
973.768	167.77
973.934	148.39
974.1	157.11
974.266	80.78
974.432	156.53
974.598	130.96
974.763	160.99
974.929	109.45
975.095	194.51
975.261	112.36
975.426	100.73
975.592	109.06
975.758	190.44
975.923	86.59
976.089	94.15
976.255	166.99
976.42	128.83
976.586	137.35
976.751	127.47
976.917	229.19
977.082	166.41
977.248	95.5
977.413	65.66
977.579	92.6
977.744	156.92
977.91	95.89
978.075	94.53
978.24	159.83
978.406	151.11
978.571	113.71
978.736	106.93
978.902	163.31
979.067	82.71
979.232	67.99
979.397	117.2
979.563	193.54
979.728	83.49
979.893	106.35
980.058	82.52
980.223	162.93
980.388	134.83
980.554	116.62
980.719	101.12
980.884	136.58
981.049	161.57
981.214	95.11
981.379	118.36
981.544	90.27
981.709	108.87
981.874	95.11
982.039	122.63
982.204	128.83
982.368	118.36
982.533	115.26
982.698	136.38
982.863	166.8
983.028	114.68
983.193	151.49
983.357	122.43
983.522	93.37
983.687	86.59
983.852	99.57
984.016	105.96
984.181	137.93
984.346	157.11
984.51	138.9
984.675	116.62
984.839	160.99
985.004	153.43
985.168	134.06
985.333	152.08
985.498	93.37
985.662	159.05
985.827	119.91
985.991	125.92
986.155	99.96
986.32	160.6
986.484	187.14
986.649	122.24
986.813	63.15
986.977	112.94
987.142	129.41
987.306	66.83
987.47	83.68
987.634	127.66
987.799	140.84
987.963	105.19
988.127	107.32
988.291	197.22
988.455	122.82
988.62	123.79
988.784	139.48
988.948	141.03
989.112	100.73
989.276	113.33
989.44	106.93
989.604	82.52
989.768	75.74
989.932	167.77
990.096	70.12
990.26	93.95
990.424	51.71
990.588	92.01
990.752	185.01
990.915	112.16
991.079	82.71
991.243	93.56
991.407	139.48
991.571	97.44
991.734	131.15
991.898	133.48
992.062	210.97
992.226	96.28
992.389	64.7
992.553	60.82
992.717	73.41
992.88	86.2
993.044	113.52
993.207	101.89
993.371	114.29
993.535	119.33
993.698	105.38
993.862	142.58
994.025	132.31
994.189	117.59
994.352	89.11
994.515	117.01
994.679	145.68
994.842	76.32
995.006	128.05
995.169	87.95
995.332	80.58
995.496	124.95
995.659	34.86
995.822	75.55
995.985	76.9
996.149	150.53
996.312	96.86
996.475	156.34
996.638	75.93
996.801	154.4
996.964	164.09
997.128	84.07
997.291	87.95
997.454	108.87
997.617	40.48
997.78	124.18
997.943	48.81
998.106	140.06
998.269	48.23
998.432	90.66
998.595	80
998.758	48.03
998.92	50.75
999.083	29.05
999.246	63.92
999.409	17.81
999.572	8.9
999.735	80.78
999.897	61.98
1000.06	22.85
1000.223	87.36
1000.386	116.43
1000.548	103.06
1000.711	80.58
1000.874	112.94
1001.036	28.85
1001.199	134.25
1001.361	43.96
1001.524	52.3
1001.687	111.19
1001.849	68.18
1002.012	105.38
1002.174	82.13
1002.337	103.25
1002.499	92.98
1002.661	136.19
1002.824	37.57
1002.986	48.81
1003.149	95.31
1003.311	31.56
1003.473	145.29
1003.636	48.81
1003.798	98.79
1003.96	74.96
1004.123	73.22
1004.285	50.94
1004.447	55.01
1004.609	37.76
1004.771	122.24
1004.933	29.43
1005.096	22.26
1005.258	8.7
1005.42	55.2
1005.582	117.78
1005.744	58.88
1005.906	12.58
1006.068	72.83
1006.23	20.71
1006.392	2.89
1006.554	14.32
1006.716	94.73
1006.878	76.51
1007.04	15.48
1007.202	28.66
1007.363	90.85
1007.525	71.48
1007.687	93.37
1007.849	99.76
1008.011	-23.07
1008.172	8.7
1008.334	44.93
1008.496	85.23
1008.658	23.23
1008.819	27.11
1008.981	-25.78
1009.143	28.46
1009.304	40.09
1009.466	99.18
1009.627	105.77
1009.789	154.79
1009.95	55.01
1010.112	10.83
1010.273	97.24
1010.435	35.25
1010.596	15.1
1010.758	75.35
1010.919	34.47
1011.081	24.59
1011.242	34.86
1011.403	62.76
1011.565	53.07
1011.726	64.11
1011.887	32.34
1012.049	52.88
1012.21	93.18
1012.371	99.57
1012.532	-20.36
1012.693	40.09
1012.855	14.9
1013.016	52.88
1013.177	104.41
1013.338	33.7
1013.499	95.69
1013.66	75.93
1013.821	69.15
1013.982	60.82
1014.143	32.15
1014.304	42.8
1014.465	43.38
1014.626	63.34
1014.787	25.75
1014.948	136.77
1015.109	-47.87
1015.27	76.51
1015.431	16.06
1015.592	-16.48
1015.752	114.68
1015.913	45.51
1016.074	51.52
1016.235	55.78
1016.395	49
1016.556	39.9
1016.717	19.75
1016.877	60.24
1017.038	-0.6
1017.199	51.33
1017.359	23.81
1017.52	61.21
1017.681	19.36
1017.841	54.23
1018.002	61.6
1018.162	24.2
1018.323	87.56
1018.483	39.51
1018.644	29.05
1018.804	1.92
1018.964	-1.76
1019.125	15.87
1019.285	36.21
1019.446	0.37
1019.606	-2.53
1019.766	-11.25
1019.926	34.47
1020.087	30.98
1020.247	-4.67
1020.407	44.16
1020.567	102.09
1020.728	29.63
1020.888	-17.84
1021.048	2.12
1021.208	3.67
1021.368	9.09
1021.528	68.96
1021.688	91.63
1021.848	61.6
1022.008	32.53
1022.168	16.45
1022.328	40.67
1022.488	48.23
1022.648	10.83
1022.808	14.51
1022.968	39.7
1023.128	-9.12
1023.288	7.54
1023.448	23.62
1023.608	25.75
1023.767	58.11
1023.927	12.77
1024.087	-3.31
1024.247	-23.85
1024.406	0.37
1024.566	-8.93
1024.726	14.71
1024.885	34.66
1025.045	62.56
1025.205	41.45
1025.364	9.48
1025.524	25.95
1025.683	-4.28
1025.843	29.05
1026.003	35.83
1026.162	81.16
1026.321	71.09
1026.481	36.02
1026.64	5.6
1026.8	59.66
1026.959	33.11
1027.119	37.96
1027.278	8.31
1027.437	0.37
1027.597	16.26
1027.756	31.18
1027.915	37.18
1028.074	43.58
1028.234	-16.87
1028.393	34.66
1028.552	7.15
1028.711	-47.29
1028.87	53.85
1029.03	-38.57
1029.189	12.77
1029.348	-58.33
1029.507	-4.86
1029.666	31.56
1029.825	-10.28
1029.984	2.12
1030.143	9.28
1030.302	0.95
1030.461	-62.21
1030.62	24.59
1030.779	27.69
1030.938	-6.41
1031.097	-17.84
1031.255	67.41
1031.414	94.15
1031.573	46.29
1031.732	-37.6
1031.891	8.31
1032.049	53.07
1032.208	47.45
1032.367	3.67
1032.525	-10.09
1032.684	-23.27
1032.843	28.85
1033.001	-37.99
1033.16	174.94
1033.319	61.6
1033.477	43.38
1033.636	11.03
1033.794	-34.89
1033.953	35.63
1034.111	23.81
1034.27	-39.93
1034.428	15.87
1034.587	-23.46
1034.745	17.61
1034.903	33.5
1035.062	35.44
1035.22	-24.04
1035.378	47.84
1035.537	-22.68
1035.695	56.75
1035.853	5.02
1036.011	41.45
1036.17	25.75
1036.328	-31.79
1036.486	26.72
1036.644	26.14
1036.802	-45.93
1036.96	10.06
1037.119	8.51
1037.277	2.31
1037.435	-43.8
1037.593	-24.82
1037.751	19.36
1037.909	22.46
1038.067	22.46
