Data from gum_old_FLMT105791__78__15-44-06-256.txt Node

Date: Mon Mar 20 15:44:06 GMT 2023
User: antho
Spectrometer: FLMT10579
Trigger mode: 0
Integration Time (sec): 1.000000E-1
Scans to average: 10
Electric dark correction enabled: true
Nonlinearity correction enabled: false
Boxcar width: 0
XAxis mode: Wavelengths
Number of Pixels in Spectrum: 3648
>>>>>Begin Spectral Data<<<<<
345.248	-152.66
345.464	-152.66
345.681	-152.66
345.898	-187.72
346.114	-155.76
346.331	-52.68
346.548	20.36
346.764	-10.64
346.981	22.88
347.197	-12.19
347.414	10.48
347.631	-29.63
347.847	76.35
348.064	15.52
348.28	31.4
348.497	-51.33
348.713	-20.52
348.93	33.34
349.146	44.97
349.363	5.83
349.579	38.38
349.796	24.23
350.012	21.91
350.229	55.43
350.445	20.17
350.661	6.22
350.878	44.19
351.094	44.58
351.311	40.7
351.527	66.47
351.743	10.48
351.96	71.7
352.176	40.51
352.392	32.37
352.609	68.41
352.825	-0.76
353.041	71.9
353.257	26.95
353.474	33.34
353.69	49.23
353.906	52.52
354.122	-19.75
354.339	96.89
354.555	36.25
354.771	18.03
354.987	87.98
355.203	97.47
355.42	25.01
355.636	19.39
355.852	-8.12
356.068	70.15
356.284	18.42
356.5	89.91
356.716	46.13
356.932	0.79
357.148	76.93
357.364	42.45
357.58	96.31
357.796	80.61
358.012	77.9
358.228	36.05
358.444	-20.33
358.66	115.1
358.876	56.2
359.092	46.9
359.308	75.58
359.524	31.21
359.74	29.47
359.956	18.23
360.172	43.8
360.388	62.79
360.604	35.47
360.819	137.77
361.035	61.82
361.251	101.15
361.467	25.2
361.683	69.18
361.898	57.56
362.114	79.65
362.33	41.67
362.546	107.16
362.762	53.68
362.977	38.18
363.193	34.31
363.409	103.09
363.624	17.45
363.84	30.05
364.056	13.19
364.271	70.73
364.487	60.85
364.703	47.68
364.918	2.53
365.134	30.63
365.35	31.98
365.565	152.5
365.781	61.05
365.996	78.87
366.212	135.45
366.427	92.63
366.643	10.28
366.858	52.52
367.074	21.72
367.289	106.19
367.505	144.55
367.72	12.8
367.936	46.13
368.151	99.8
368.367	88.56
368.582	56.98
368.798	45.35
369.013	130.8
369.228	97.47
369.444	69.77
369.659	135.64
369.874	96.89
370.09	132.35
370.305	13.19
370.52	41.28
370.736	113.16
370.951	70.93
371.166	100.57
371.381	134.86
371.597	108.51
371.812	39.54
372.027	42.83
372.242	88.17
372.458	153.46
372.673	53.88
372.888	82.36
373.103	94.76
373.318	160.05
373.533	93.6
373.749	100.38
373.964	28.88
374.179	125.18
374.394	33.92
374.609	120.72
374.824	51.36
375.039	111.61
375.254	42.45
375.469	121.5
375.684	90.3
375.899	120.14
376.114	78.29
376.329	71.7
376.544	115.68
376.759	126.92
376.974	72.28
377.189	79.45
377.404	85.46
377.619	92.63
377.834	46.71
378.049	63.95
378.264	68.22
378.478	104.45
378.693	59.88
378.908	135.45
379.123	80.03
379.338	140.29
379.553	99.8
379.767	88.95
379.982	101.15
380.197	113.55
380.412	86.81
380.626	105.22
380.841	184.27
381.056	125.95
381.271	155.98
381.485	83.52
381.7	74.22
381.915	117.62
382.129	67.83
382.344	97.47
382.559	76.55
382.773	120.33
382.988	37.22
383.202	96.11
383.417	72.28
383.632	159.86
383.846	75.19
384.061	99.02
384.275	72.09
384.49	116.26
384.704	137.19
384.919	123.05
385.133	89.33
385.348	137
385.562	71.51
385.777	151.14
385.991	122.46
386.206	89.91
386.42	85.07
386.634	157.73
386.849	123.05
387.063	143.78
387.277	74.42
387.492	74.61
387.706	70.73
387.92	74.22
388.135	155.79
388.349	120.72
388.563	124.01
388.778	91.85
388.992	111.03
389.206	146.49
389.42	184.66
389.635	135.83
389.849	133.9
390.063	187.37
390.277	143
390.491	211.39
390.706	154.05
390.92	167.99
391.134	131.18
391.348	158.11
391.562	107.16
391.776	151.72
391.99	124.4
392.205	191.44
392.419	84.68
392.633	142.42
392.847	182.72
393.061	107.35
393.275	181.56
393.489	114.71
393.703	123.63
393.917	124.4
394.131	97.08
394.345	123.24
394.559	155.98
394.773	103.09
394.986	150.95
395.2	153.85
395.414	194.93
395.628	136.61
395.842	179.04
396.056	162.57
396.27	117.81
396.484	186.01
396.697	170.51
396.911	180.01
397.125	148.43
397.339	158.7
397.553	120.72
397.766	204.81
397.98	157.34
398.194	197.06
398.408	177.49
398.621	214.49
398.835	235.81
399.049	228.64
399.262	257.51
399.476	271.84
399.69	270.29
399.903	327.64
400.117	247.24
400.331	246.08
400.544	214.69
400.758	360.58
400.971	254.79
401.185	323.57
401.398	228.83
401.612	325.71
401.826	287.92
402.039	303.23
402.253	242.2
402.466	283.86
402.68	277.27
402.893	295.29
403.106	314.08
403.32	242.78
403.533	291.02
403.747	253.05
403.96	310.79
404.174	303.04
404.387	216.04
404.6	280.17
404.814	337.72
405.027	273.78
405.24	282.69
405.454	294.32
405.667	329.58
405.88	224.76
406.094	287.54
406.307	334.04
406.52	310.01
406.733	251.11
406.947	239.29
407.16	340.82
407.373	330.94
407.586	245.69
407.799	251.11
408.012	323.96
408.226	320.86
408.439	352.05
408.652	249.37
408.865	353.41
409.078	356.7
409.291	357.29
409.504	317.18
409.717	360
409.93	362.9
410.143	322.8
410.357	248.79
410.57	246.66
410.783	277.27
410.996	312.14
411.209	297.22
411.421	347.21
411.634	357.48
411.847	299.36
412.06	363.49
412.273	360.97
412.486	355.15
412.699	430.13
412.912	346.82
413.125	375.69
413.338	376.85
413.55	369.3
413.763	358.06
413.976	369.49
414.189	334.23
414.402	347.4
414.615	443.89
414.827	348.95
415.04	400.69
415.253	373.95
415.466	405.53
415.678	446.6
415.891	379.95
416.104	374.53
416.316	358.84
416.529	375.3
416.742	405.72
416.954	407.27
417.167	361.16
417.38	353.41
417.592	395.07
417.805	350.31
418.017	315.24
418.23	418.51
418.442	358.25
418.655	380.54
418.868	403.59
419.08	415.22
419.293	411.54
419.505	408.82
419.718	407.85
419.93	429.55
420.142	366.97
420.355	405.92
420.567	452.03
420.78	410.37
420.992	394.68
421.205	490.97
421.417	394.29
421.629	380.15
421.842	395.84
422.054	368.52
422.266	454.74
422.479	446.8
422.691	419.48
422.903	433.04
423.115	378.79
423.328	388.87
423.54	381.5
423.752	404.56
423.964	378.6
424.177	449.32
424.389	398.75
424.601	525.65
424.813	412.31
425.025	468.11
425.238	446.8
425.45	411.15
425.662	406.89
425.874	703.9
426.086	425.68
426.298	457.07
426.51	431.1
426.722	477.99
426.934	445.05
427.146	441.95
427.358	388.09
427.57	444.86
427.782	419.87
427.994	418.9
428.206	395.65
428.418	386.93
428.63	463.65
428.842	469.66
429.054	427.81
429.266	488.84
429.478	392.35
429.69	418.9
429.902	376.08
430.114	461.91
430.325	422
430.537	364.45
430.749	350.12
430.961	288.12
431.173	332.1
431.384	362.71
431.596	306.91
431.808	373.56
432.02	431.68
432.231	500.47
432.443	558.78
432.655	497.37
432.867	475.08
433.078	515.77
433.29	539.6
433.502	501.43
433.713	536.11
433.925	531.66
434.136	545.8
434.348	454.16
434.56	423.94
434.771	570.21
434.983	413.47
435.194	490.58
435.406	522.55
435.617	569.83
435.829	600.44
436.04	579.9
436.252	564.79
436.463	553.75
436.675	569.63
436.886	599.66
437.098	598.7
437.309	647.33
437.521	567.89
437.732	582.03
437.943	580.87
438.155	546.38
438.366	482.64
438.578	597.34
438.789	534.95
439	554.33
439.211	519.26
439.423	559.95
439.634	556.46
439.845	577
440.057	585.52
440.268	596.18
440.479	584.55
440.69	587.46
440.902	564.21
441.113	586.1
441.324	592.69
441.535	632.79
441.746	664.57
441.957	603.93
442.168	614.58
442.38	631.24
442.591	636.48
442.802	581.06
443.013	626.79
443.224	672.51
443.435	651.98
443.646	621.56
443.857	638.03
444.068	633.38
444.279	615.94
444.49	708.74
444.701	634.34
444.912	777.14
445.123	688.79
445.334	646.74
445.545	685.3
445.756	646.36
445.967	601.21
446.178	659.92
446.388	655.46
446.599	659.92
446.81	666.89
447.021	609.16
447.232	702.16
447.443	725.21
447.653	655.85
447.864	729.28
448.075	695.96
448.286	741.1
448.496	719.59
448.707	757.57
448.918	663.99
449.129	762.41
449.339	643.84
449.55	711.07
449.761	699.64
449.971	755.24
450.182	692.86
450.393	741.49
450.603	698.09
450.814	784.11
451.024	765.51
451.235	781.4
451.446	797.87
451.656	811.24
451.867	672.71
452.077	750.79
452.288	844.95
452.498	777.72
452.709	744.97
452.919	752.14
453.13	727.73
453.34	752.53
453.55	680.07
453.761	756.99
453.971	710.49
454.182	765.12
454.392	742.84
454.602	813.17
454.813	785.85
455.023	793.22
455.233	717.85
455.444	771.71
455.654	648.29
455.864	732.38
456.075	733.35
456.285	712.62
456.495	755.82
456.705	751.56
456.916	824.22
457.126	829.25
457.336	770.36
457.546	693.05
457.756	775.01
457.967	830.61
458.177	786.63
458.387	791.86
458.597	712.04
458.807	761.64
459.017	713.2
459.227	750.21
459.437	753.11
459.647	791.28
459.857	800.58
460.068	758.54
460.278	842.82
460.488	801.16
460.698	825.77
460.908	800.58
461.117	742.26
461.327	781.98
461.537	799.42
461.747	815.89
461.957	800.77
462.167	916.25
462.377	872.27
462.587	833.71
462.797	875.56
463.007	827.51
463.216	870.33
463.426	893.77
463.636	877.3
463.846	771.32
464.056	816.85
464.265	866.65
464.475	836.62
464.685	831.97
464.895	821.89
465.104	840.69
465.314	885.25
465.524	813.37
465.733	801.35
465.943	930.78
466.153	932.33
466.362	882.73
466.572	885.25
466.782	847.27
466.991	895.71
467.201	924.19
467.41	780.82
467.62	907.72
467.829	846.89
468.039	871.49
468.249	868.2
468.458	883.31
468.668	903.85
468.877	917.41
469.086	950.73
469.296	936.98
469.505	903.46
469.715	984.06
469.924	952.28
470.134	974.56
470.343	956.93
470.552	914.31
470.762	914.89
470.971	865.29
471.18	916.25
471.39	922.06
471.599	898.81
471.808	946.86
472.018	908.11
472.227	996.65
472.436	1035.98
472.645	1024.94
472.855	984.25
473.064	1064.46
473.273	1030.17
473.482	1016.41
473.691	1041.99
473.901	1039.47
474.11	1022.61
474.319	1143.51
474.528	1036.76
474.737	1130.53
474.946	1063.3
475.155	1110.19
475.364	1140.41
475.573	1074.34
475.783	1112.51
475.992	1121.23
476.201	1144.87
476.41	1097.01
476.619	1072.21
476.828	1087.91
477.037	1067.95
477.245	1089.46
477.454	1123.75
477.663	1127.82
477.872	1150.29
478.081	1231.86
478.29	1128.01
478.499	1253.17
478.708	1222.17
478.917	1274.49
479.125	1199.7
479.334	1199.12
479.543	1204.74
479.752	1225.85
479.961	1239.42
480.169	1292.89
480.378	1229.92
480.587	1398.68
480.796	1290.37
481.004	1269.06
481.213	1294.44
481.422	1285.72
481.63	1275.26
481.839	1357.22
482.048	1371.55
482.256	1351.79
482.465	1376.01
482.674	1363.22
482.882	1395.96
483.091	1467.65
483.299	1349.27
483.508	1367.1
483.716	1379.88
483.925	1406.04
484.134	1356.25
484.342	1376.98
484.551	1397.71
484.759	1383.95
484.967	1429.29
485.176	1438.78
485.384	1418.83
485.593	1455.83
485.801	1403.91
486.01	1358.57
486.218	1334.16
486.426	1216.36
486.635	1253.75
486.843	1194.47
487.051	1219.65
487.26	1249.88
487.468	1293.09
487.676	1352.18
487.885	1348.5
488.093	1379.69
488.301	1438.59
488.509	1398.29
488.717	1491.48
488.926	1450.21
489.134	1446.34
489.342	1432
489.55	1384.92
489.758	1445.76
489.967	1484.89
490.175	1576.15
490.383	1516.67
490.591	1626.91
490.799	1522.87
491.007	1585.64
491.215	1586.22
491.423	1565.69
491.631	1550.58
491.839	1527.13
492.047	1548.64
492.255	1492.64
492.463	1467.65
492.671	1487.41
492.879	1588.36
493.087	1527.71
493.295	1589.32
493.503	1597.66
493.711	1640.67
493.919	1630.4
494.127	1621.1
494.334	1633.5
494.542	1572.27
494.75	1652.49
494.958	1625.17
495.166	1703.64
495.374	1695.11
495.581	1691.04
495.789	1707.7
495.997	1733.86
496.205	1652.87
496.412	1638.54
496.62	1678.25
496.828	1702.09
497.035	1667.6
497.243	1719.72
497.451	1698.4
497.658	1688.33
497.866	1688.33
498.074	1764.28
498.281	1683.87
498.489	1781.33
498.696	1689.69
498.904	1665.66
499.112	1655.39
499.319	1756.14
499.527	1698.99
499.734	1738.7
499.942	1698.02
500.149	1707.7
500.357	1715.65
500.564	1652.29
500.771	1696.66
500.979	1631.56
501.186	1627.3
501.394	1668.95
501.601	1644.16
501.808	1693.37
502.016	1686.97
502.223	1654.04
502.43	1696.85
502.638	1667.4
502.845	1674.57
503.052	1756.92
503.26	1702.86
503.467	1779.78
503.674	1741.42
503.881	1772.22
504.089	1808.07
504.296	1754.59
504.503	1682.9
504.71	1697.44
504.917	1688.91
505.125	1741.42
505.332	1741.22
505.539	1743.74
505.746	1826.08
505.953	1835.77
506.16	1766.02
506.367	1842.36
506.574	1881.88
506.781	1892.35
506.988	1800.7
507.195	1813.68
507.402	1796.44
507.609	1850.69
507.816	1803.22
508.023	1773.77
508.23	1795.67
508.437	1711.19
508.644	1811.17
508.851	1838.68
509.058	1855.92
509.265	1829.57
509.472	1859.8
509.679	1939.81
509.885	1878.98
510.092	1849.72
510.299	1867.16
510.506	1843.33
510.713	1866
510.92	1870.84
511.126	1877.43
511.333	1872.39
511.54	1906.3
511.746	1935.55
511.953	1939.23
512.16	1931.68
512.367	1903.78
512.573	1910.95
512.78	1888.28
512.987	1874.13
513.193	1886.15
513.4	1806.9
513.606	1866
513.813	1885.37
514.02	1860.96
514.226	1958.61
514.433	1922.18
514.639	1806.9
514.846	1872.58
515.052	1849.91
515.259	1881.69
515.465	1899.71
515.672	1892.15
515.878	1998.91
516.085	1906.3
516.291	1936.71
516.497	1891.18
516.704	1874.91
516.91	1834.8
517.117	1750.72
517.323	1701.89
517.529	1721.85
517.736	1715.84
517.942	1723.98
518.148	1768.93
518.354	1806.13
518.561	1823.37
518.767	1777.07
518.973	1837.51
519.179	1823.37
519.386	1817.75
519.592	1824.92
519.798	1839.06
520.004	1997.55
520.21	1901.45
520.417	1962.09
520.623	2006.46
520.829	1974.3
521.035	1981.66
521.241	2006.07
521.447	2006.07
521.653	2132.59
521.859	2013.63
522.065	2084.54
522.271	2159.91
522.477	2089
522.683	2160.88
522.889	2085.51
523.095	2056.26
523.301	2056.06
523.507	1989.03
523.713	2035.14
523.919	1992.51
524.125	2111.67
524.331	2143.44
524.537	2219.97
524.742	2186.45
524.948	2167.47
525.154	2174.25
525.36	2297.86
525.566	2207.38
525.772	2218.81
525.977	2191.68
526.183	2203.5
526.389	2252.72
526.595	2136.47
526.8	2127.55
527.006	2051.99
527.212	1974.69
527.417	1976.63
527.623	1993.48
527.829	2054.32
528.034	2072.72
528.24	2094.62
528.446	2123.49
528.651	2209.7
528.857	2213.97
529.062	2243.22
529.268	2220.36
529.473	2296.7
529.679	2293.98
529.884	2391.44
530.09	2376.91
530.295	2306.77
530.501	2326.92
530.706	2299.41
530.912	2289.91
531.117	2283.33
531.323	2367.22
531.528	2378.84
531.733	2395.7
531.939	2353.08
532.144	2358.69
532.35	2355.01
532.555	2405.19
532.76	2337
532.966	2332.15
533.171	2296.11
533.376	2218.81
533.581	2221.13
533.787	2267.44
533.992	2333.7
534.197	2360.24
534.402	2333.31
534.607	2367.22
534.813	2441.62
535.018	2344.16
535.223	2369.54
535.428	2355.01
535.633	2464.29
535.838	2437.74
536.043	2444.52
536.249	2538.49
536.454	2446.85
536.659	2493.54
536.864	2431.54
537.069	2415.85
537.274	2455.96
537.479	2463.71
537.684	2432.9
537.889	2346.3
538.094	2525.12
538.299	2432.71
538.504	2458.47
538.708	2459.44
538.913	2496.26
539.118	2475.91
539.323	2507.88
539.528	2420.31
539.733	2418.37
539.938	2438.33
540.142	2413.33
540.347	2447.04
540.552	2409.84
540.757	2384.08
540.962	2387.56
541.166	2303.48
541.371	2331.96
541.576	2370.32
541.781	2271.9
541.985	2436.58
542.19	2394.73
542.395	2501.29
542.599	2522.41
542.804	2457.31
543.008	2511.56
543.213	2443.75
543.418	2408.68
543.622	2491.99
543.827	2423.02
544.031	2480.37
544.236	2517.37
544.44	2547.6
544.645	2581.12
544.849	2466.81
545.054	2547.6
545.258	2593.32
545.463	2552.25
545.667	2499.55
545.872	2532.87
546.076	2541.01
546.281	2563.49
546.485	2490.83
546.689	2499.36
546.894	2571.43
547.098	2530.55
547.302	2480.56
547.507	2522.8
547.711	2533.45
547.915	2584.41
548.119	2470.49
548.324	2472.81
548.528	2545.47
548.732	2494.9
548.936	2581.7
549.141	2586.54
549.345	2508.85
549.549	2524.16
549.753	2554.96
549.957	2634.01
550.161	2609.02
550.366	2585.77
550.57	2499.74
550.774	2551.28
550.978	2549.92
551.182	2521.64
551.386	2479.4
551.59	2526.67
551.794	2489.86
551.998	2589.45
552.202	2523.57
552.406	2498.97
552.61	2597
552.814	2576.66
553.018	2639.82
553.222	2549.73
553.426	2509.43
553.63	2598.55
553.833	2564.45
554.037	2494.9
554.241	2553.8
554.445	2559.42
554.649	2538.1
554.853	2532.1
555.056	2590.22
555.26	2586.54
555.464	2580.15
555.668	2578.99
555.871	2601.85
556.075	2594.68
556.279	2504.39
556.483	2494.71
556.686	2529.58
556.89	2487.15
557.094	2524.74
557.297	2461.77
557.501	2525.12
557.704	2386.98
557.908	2546.05
558.112	2453.82
558.315	2545.85
558.519	2466.22
558.722	2454.6
558.926	2431.16
559.129	2386.79
559.333	2364.89
559.536	2405.78
559.74	2324.6
559.943	2362.57
560.147	2342.42
560.35	2367.41
560.553	2365.86
560.757	2293.79
560.96	2417.79
561.164	2359.47
561.367	2471.65
561.57	2391.44
561.774	2449.37
561.977	2390.47
562.18	2322.08
562.384	2463.9
562.587	2403.64
562.79	2360.24
562.993	2349.78
563.197	2381.56
563.4	2445.49
563.603	2453.63
563.806	2456.15
564.009	2331.76
564.212	2437.16
564.416	2317.62
564.619	2382.53
564.822	2303.48
565.025	2409.65
565.228	2348.43
565.431	2333.9
565.634	2281.78
565.837	2316.85
566.04	2280.03
566.243	2254.85
566.446	2172.12
566.649	2286.62
566.852	2231.02
567.055	2254.85
567.258	2291.85
567.461	2341.84
567.664	2345.52
567.867	2235.86
568.07	2269.96
568.273	2275.96
568.475	2292.24
568.678	2233.73
568.881	2215.52
569.084	2237.02
569.287	2106.82
569.489	2150.03
569.692	2200.6
569.895	2226.37
570.098	2129.69
570.3	2151.19
570.503	2063.04
570.706	2128.72
570.909	2141.12
571.111	2056.84
571.314	2039.21
571.516	2087.64
571.719	2079.12
571.922	2086.29
572.124	2085.12
572.327	2103.14
572.529	2060.13
572.732	2045.02
572.935	2107.4
573.137	2173.67
573.34	2066.14
573.542	2143.44
573.745	2126
573.947	2108.37
574.15	2104.11
574.352	2058.97
574.554	2112.05
574.757	2067.11
574.959	2047.34
575.162	2046.96
575.364	2030.1
575.566	2159.91
575.769	2027
575.971	2056.06
576.173	1919.08
576.376	1984.96
576.578	2031.46
576.78	2062.65
576.982	1971.01
577.185	2026.03
577.387	1954.93
577.589	1972.75
577.791	2001.62
577.993	2044.05
578.196	1962.29
578.398	2038.24
578.6	2015.57
578.802	1909.98
579.004	1926.83
579.206	1952.79
579.408	1954.54
579.61	1940.2
579.812	1995.42
580.014	1939.62
580.216	1921.41
580.418	1917.34
580.62	1930.32
580.822	1929.93
581.024	1940.39
581.226	1984.96
581.428	1942.91
581.63	2043.27
581.832	1924.31
582.034	2021.77
582.236	1931.68
582.438	2040.17
582.64	2025.84
582.841	2045.02
583.043	2051.61
583.245	1949.5
583.447	2020.99
583.649	1960.74
583.85	1992.9
584.052	2027.97
584.254	1895.25
584.456	1988.44
584.657	1923.34
584.859	1965.97
585.061	1929.35
585.262	1908.43
585.464	1913.66
585.666	1966.16
585.867	1869.48
586.069	1979.53
586.27	1900.48
586.472	1910.95
586.674	1899.13
586.875	1836.35
587.077	1866.38
587.278	1884.98
587.48	1873.36
587.681	1996
587.883	1913.85
588.084	1848.17
588.285	1902.61
588.487	1894.09
588.688	1898.74
588.89	1789.66
589.091	1769.7
589.292	1766.8
589.494	1685.81
589.695	1707.51
589.896	1595.33
590.098	1613.16
590.299	1698.21
590.5	1660.82
590.702	1651.32
590.903	1750.72
591.104	1771.06
591.305	1784.62
591.507	1812.33
591.708	1802.83
591.909	1760.21
592.11	1838.87
592.311	1811.36
592.512	1796.83
592.714	1729.02
592.915	1757.3
593.116	1775.71
593.317	1775.32
593.518	1768.54
593.719	1756.72
593.92	1755.37
594.121	1840.81
594.322	1791.6
594.523	1756.33
594.724	1732.89
594.925	1733.67
595.126	1760.21
595.327	1761.37
595.528	1795.08
595.729	1774.35
595.929	1722.43
596.13	1772.42
596.331	1791.4
596.532	1786.95
596.733	1824.34
596.934	1776.87
597.135	1811.75
597.335	1796.63
597.536	1725.72
597.737	1771.83
597.938	1729.02
598.138	1791.02
598.339	1735.41
598.54	1754.78
598.74	1700.73
598.941	1723.01
599.142	1785.78
599.342	1739.29
599.543	1712.35
599.744	1754.4
599.944	1711.39
600.145	1740.45
600.345	1786.95
600.546	1797.02
600.746	1820.47
600.947	1822.98
601.147	1760.79
601.348	1785.78
601.548	1710.03
601.749	1756.33
601.949	1692.59
602.15	1694.92
602.35	1693.95
602.551	1759.43
602.751	1690.65
602.951	1731.15
603.152	1624.78
603.352	1757.3
603.552	1738.32
603.753	1769.12
603.953	1745.1
604.153	1746.84
604.354	1723.98
604.554	1739.67
604.754	1734.44
604.954	1709.25
605.155	1750.13
605.355	1738.7
605.555	1729.21
605.755	1784.23
605.955	1719.14
606.155	1795.86
606.356	1717.2
606.556	1767.38
606.756	1742.58
606.956	1678.06
607.156	1749.94
607.356	1665.08
607.556	1724.95
607.756	1694.92
607.956	1746.65
608.156	1710.61
608.356	1692.01
608.556	1737.93
608.756	1676.9
608.956	1668.18
609.156	1700.73
609.356	1618.58
609.556	1630.98
609.755	1673.22
609.955	1605.21
610.155	1675.15
610.355	1658.69
610.555	1623.23
610.755	1654.62
610.954	1557.55
611.154	1621.1
611.354	1698.4
611.554	1601.14
611.753	1618.97
611.953	1550.38
612.153	1637.96
612.352	1624.59
612.552	1584.48
612.752	1524.23
612.951	1570.34
613.151	1590.68
613.351	1552.51
613.55	1580.22
613.75	1597.07
613.949	1594.56
614.149	1590.68
614.348	1567.62
614.548	1540.69
614.747	1539.34
614.947	1535.46
615.146	1526.36
615.346	1589.13
615.545	1568.4
615.745	1549.99
615.944	1602.89
616.144	1537.79
616.343	1562.78
616.542	1553.09
616.742	1537.79
616.941	1526.36
617.14	1450.21
617.34	1504.27
617.539	1501.94
617.738	1497.68
617.938	1604.44
618.137	1517.25
618.336	1450.99
618.535	1536.82
618.734	1539.53
618.934	1536.82
619.133	1540.89
619.332	1563.56
619.531	1485.67
619.73	1552.9
619.929	1580.99
620.128	1553.09
620.328	1596.69
620.527	1497.29
620.726	1509.31
620.925	1576.15
621.124	1501.17
621.323	1528.68
621.522	1477.34
621.721	1490.13
621.92	1462.03
622.119	1539.34
622.318	1475.79
622.517	1519.19
622.715	1499.43
622.914	1423.86
623.113	1504.08
623.312	1413.4
623.511	1493.61
623.71	1459.32
623.909	1440.33
624.107	1548.44
624.306	1482.96
624.505	1446.15
624.704	1457
624.902	1421.35
625.101	1498.46
625.3	1450.41
625.499	1432.2
625.697	1450.8
625.896	1404.3
626.095	1418.83
626.293	1397.71
626.492	1390.73
626.69	1431.03
626.889	1430.84
627.088	1453.51
627.286	1396.93
627.485	1401.2
627.683	1413.98
627.882	1410.5
628.08	1378.92
628.279	1370.78
628.477	1449.05
628.676	1371.75
628.874	1412.82
629.073	1336.87
629.271	1339.2
629.469	1424.83
629.668	1374.85
629.866	1393.45
630.065	1372.91
630.263	1413.6
630.461	1343.27
630.66	1377.95
630.858	1390.35
631.056	1412.63
631.254	1412.63
631.453	1349.27
631.651	1411.66
631.849	1374.65
632.047	1370.97
632.245	1352.76
632.444	1399.45
632.642	1384.73
632.84	1365.35
633.038	1362.25
633.236	1306.45
633.434	1354.89
633.632	1315.56
633.83	1318.27
634.028	1364.38
634.227	1372.91
634.425	1422.12
634.623	1374.46
634.821	1355.67
635.019	1348.88
635.216	1338.03
635.414	1403.13
635.612	1391.7
635.81	1350.05
636.008	1404.88
636.206	1376.01
636.404	1366.32
636.602	1297.35
636.8	1358.57
636.997	1359.54
637.195	1348.69
637.393	1354.31
637.591	1403.91
637.789	1351.6
637.986	1348.3
638.184	1387.44
638.382	1402.55
638.58	1371.75
638.777	1433.36
638.975	1329.9
639.173	1377.37
639.37	1359.35
639.568	1345.01
639.765	1345.59
639.963	1340.17
640.161	1398.1
640.358	1346.75
640.556	1303.35
640.753	1272.16
640.951	1294.05
641.148	1342.3
641.346	1325.44
641.543	1282.82
641.741	1323.31
641.938	1299.09
642.136	1296.38
642.333	1270.42
642.531	1346.37
642.728	1358.38
642.925	1321.18
643.123	1283.2
643.32	1314.2
643.517	1287.47
643.715	1313.62
643.912	1274.1
644.109	1315.56
644.306	1286.69
644.504	1256.66
644.701	1239.61
644.898	1333.38
645.095	1258.6
645.293	1308.58
645.49	1279.33
645.687	1287.85
645.884	1311.3
646.081	1198.54
646.278	1232.25
646.475	1237.67
646.672	1219.65
646.87	1260.54
647.067	1239.22
647.264	1253.56
647.461	1195.05
647.658	1194.66
647.855	1246.97
648.052	1196.79
648.249	1122.01
648.446	1208.42
648.642	1187.11
648.839	1150.49
649.036	1153.2
649.233	1139.06
649.43	1140.41
649.627	1125.3
649.824	1168.51
650.021	1114.26
650.217	1139.25
650.414	1109.99
650.611	1180.91
650.808	1187.3
651.004	1164.63
651.201	1186.52
651.398	1242.32
651.595	1166.96
651.791	1121.04
651.988	1231.47
652.185	1154.75
652.381	1184.78
652.578	1113.87
652.775	1167.73
652.971	1181.49
653.168	1125.11
653.364	1208.81
653.561	1145.06
653.757	1128.4
653.954	1178
654.15	1109.8
654.347	1208.81
654.543	1152.04
654.74	1119.88
654.936	1118.71
655.133	1131.5
655.329	1136.15
655.525	1103.79
655.722	1156.69
655.918	1088.49
656.115	1095.85
656.311	1020.68
656.507	1001.5
656.704	944.53
656.9	950.73
657.096	981.73
657.292	980.18
657.489	1033.85
657.685	1045.09
657.881	1061.75
658.077	1036.76
658.273	1087.52
658.47	1135.37
658.666	1061.56
658.862	1123.36
659.058	1061.36
659.254	1125.11
659.45	1093.53
659.646	1107.48
659.842	1095.66
660.038	1162.89
660.234	1083.84
660.43	1075.12
660.626	1152.04
660.822	1141.38
661.018	1164.24
661.214	1101.86
661.41	1103.21
661.606	1099.73
661.802	1134.79
661.998	1137.51
662.194	1114.26
662.39	1133.63
662.586	1111.16
662.781	1148.55
662.977	1131.5
663.173	1142.54
663.369	1102.05
663.564	1097.4
663.76	1153.2
663.956	1093.53
664.152	1169.86
664.347	1045.48
664.543	1102.05
664.739	1087.71
664.934	1039.66
665.13	1012.35
665.326	1102.05
665.521	1080.54
665.717	1064.66
665.912	1075.51
666.108	1023.78
666.304	1036.76
666.499	1097.59
666.695	1015.64
666.89	1093.91
667.086	1126.27
667.281	1056.13
667.477	1136.54
667.672	1094.69
667.867	1080.74
668.063	1101.47
668.258	999.75
668.454	1049.35
668.649	1143.12
668.844	1098.56
669.04	1096.24
669.235	1041.6
669.43	1060.01
669.626	996.65
669.821	1024.75
670.016	1015.25
670.211	1061.17
670.407	1003.05
670.602	1058.65
670.797	1043.15
670.992	1066.01
671.187	1017.77
671.382	1068.73
671.578	1019.32
671.773	1063.69
671.968	1009.25
672.163	1016.61
672.358	1065.43
672.553	1014.09
672.748	1015.25
672.943	1137.51
673.138	1040.44
673.333	1056.71
673.528	977.66
673.723	1044.89
673.918	1010.99
674.113	968.95
674.308	1135.57
674.503	1026.68
674.698	1061.75
674.892	1031.53
675.087	1049.16
675.282	1042.57
675.477	1006.15
675.672	1053.61
675.867	1023.58
676.061	973.98
676.256	961.97
676.451	983.86
676.646	1004.21
676.84	1007.31
677.035	957.71
677.23	955.19
677.424	1018.35
677.619	1060.2
677.814	1029.4
678.008	1063.88
678.203	947.83
678.397	970.88
678.592	1007.11
678.787	1057.68
678.981	994.91
679.176	1019.32
679.37	1004.79
679.565	958.48
679.759	985.22
679.954	1024.75
680.148	1043.93
680.342	1061.36
680.537	1001.11
680.731	984.83
680.926	1006.34
681.12	1037.34
681.314	980.18
681.509	1021.26
681.703	1006.53
681.897	1004.6
682.092	977.86
682.286	999.56
682.48	1052.45
682.674	1045.09
682.869	995.3
683.063	1018.55
683.257	1052.45
683.451	970.5
683.645	1025.52
683.839	1001.69
684.034	978.44
684.228	1007.31
684.422	922.45
684.616	940.66
684.81	1021.84
685.004	963.91
685.198	981.54
685.392	1000.33
685.586	938.14
685.78	981.35
685.974	986
686.168	1003.24
686.362	1046.25
686.556	938.14
686.75	895.32
686.944	918.18
687.138	907.53
687.331	796.51
687.525	794.77
687.719	763.38
687.913	817.24
688.107	847.08
688.301	797.29
688.494	837.78
688.688	785.66
688.882	765.9
689.076	764.74
689.269	816.47
689.463	923.61
689.657	804.26
689.85	793.02
690.044	844.56
690.238	822.67
690.431	837.78
690.625	830.61
690.818	841.85
691.012	856.19
691.205	891.06
691.399	807.55
691.593	867.62
691.786	938.72
691.98	930
692.173	966.62
692.366	915.28
692.56	936.78
692.753	955.19
692.947	910.43
693.14	957.9
693.333	956.93
693.527	895.71
693.72	919.54
693.914	929.23
694.107	887.57
694.3	920.7
694.493	894.16
694.687	952.28
694.88	919.93
695.073	1022.03
695.266	963.52
695.46	921.87
695.653	975.15
695.846	987.16
696.039	911.79
696.232	927.29
696.425	968.95
696.618	982.51
696.812	994.52
697.005	1054.97
697.198	1068.14
697.391	1023.97
697.584	1059.23
697.777	1107.48
697.97	1099.73
698.163	1070.08
698.356	1060.59
698.549	1165.21
698.742	1089.84
698.935	1053.61
699.127	1123.36
699.32	1079.96
699.513	1079.58
699.706	1098.18
699.899	1127.63
700.092	1057.1
700.285	1138.86
700.477	1041.41
700.67	1130.34
700.863	1169.28
701.056	1232.44
701.248	1211.71
701.441	1200.09
701.634	1158.62
701.826	1246.2
702.019	1159.59
702.212	1234.38
702.404	1171.8
702.597	1185.75
702.79	1174.9
702.982	1248.52
703.175	1282.24
703.367	1281.85
703.56	1306.45
703.752	1353.15
703.945	1318.27
704.137	1314.4
704.33	1365.93
704.522	1344.62
704.715	1382.02
704.907	1395.77
705.1	1450.6
705.292	1453.51
705.484	1434.91
705.677	1466.88
705.869	1482.38
706.061	1503.11
706.254	1552.13
706.446	1521.51
706.638	1502.72
706.831	1562.2
707.023	1511.83
707.215	1600.37
707.407	1629.82
707.599	1591.46
707.792	1671.09
707.984	1632.14
708.176	1680.19
708.368	1632.72
708.56	1680.97
708.752	1630.98
708.944	1654.04
709.136	1707.32
709.329	1689.69
709.521	1839.65
709.713	1769.7
709.905	1787.92
710.097	1824.15
710.289	1784.04
710.481	1810.78
710.672	1875.1
710.864	1847.98
711.056	1880.91
711.248	1886.73
711.44	1911.14
711.632	1912.88
711.824	1907.85
712.016	1962.09
712.207	2002.2
712.399	2010.34
712.591	2068.85
712.783	2013.44
712.975	2069.62
713.166	2022.35
713.358	2046.37
713.55	2107.4
713.741	2143.64
713.933	2083.19
714.125	2129.88
714.316	2141.31
714.508	2187.81
714.7	2225.01
714.891	2170.57
715.083	2231.98
715.274	2180.06
715.466	2234.7
715.657	2268.8
715.849	2147.7
716.04	2262.4
716.232	2201.57
716.423	2278.68
716.615	2202.73
716.806	2196.53
716.998	2149.45
717.189	2100.62
717.381	2045.6
717.572	2022.74
717.763	2071.37
717.955	2016.92
718.146	2024.67
718.337	1935.16
718.528	1985.93
718.72	1884.79
718.911	1958.61
719.102	1881.88
719.293	1946.4
719.485	1931.29
719.676	1922.96
719.867	1900.29
720.058	1901.65
720.249	1942.33
720.44	1944.66
720.632	1988.25
720.823	2049.09
721.014	2128.14
721.205	2176.77
721.396	2233.34
721.587	2336.41
721.778	2366.44
721.969	2405.78
722.16	2487.73
722.351	2444.72
722.542	2629.75
722.733	2615.99
722.924	2565.23
723.115	2594.49
723.305	2588.29
723.496	2609.4
723.687	2482.89
723.878	2529.19
724.069	2537.72
724.26	2558.45
724.45	2444.33
724.641	2454.21
724.832	2470.87
725.023	2485.6
725.213	2479.01
725.404	2470.1
725.595	2485.6
725.785	2487.54
725.976	2562.32
726.167	2555.93
726.357	2558.06
726.548	2652.42
726.739	2575.69
726.929	2705.11
727.12	2697.75
727.31	2721
727.501	2668.5
727.691	2714.41
727.882	2683.42
728.072	2740.57
728.263	2704.34
728.453	2786.49
728.644	2768.66
728.834	2761.5
729.024	2740.38
729.215	2752.2
729.405	2797.34
729.596	2855.08
729.786	2860.89
729.976	2922.11
730.167	2924.05
730.357	2880.07
730.547	2858.95
730.737	2937.03
730.928	2934.12
731.118	3059.87
731.308	2972.49
731.498	2997.67
731.688	3092.03
731.879	3081.37
732.069	3122.06
732.259	3111.98
732.449	3192.97
732.639	3293.33
732.829	3274.93
733.019	3317.94
733.209	3388.66
733.399	3377.61
733.589	3427.6
733.779	3465.38
733.969	3448.91
734.159	3522.34
734.349	3599.45
734.539	3618.63
734.729	3654.09
734.919	3668.62
735.109	3729.84
735.299	3625.61
735.488	3725.58
735.678	3694.78
735.868	3702.53
736.058	3686.25
736.248	3663
736.437	3669.39
736.627	3663.78
736.817	3783.51
737.007	3731.78
737.196	3796.49
737.386	3701.36
737.576	3716.86
737.765	3807.54
737.955	3682.76
738.144	3923.4
738.334	3849.19
738.524	3759.49
738.713	3843.57
738.903	3769.17
739.092	3835.63
739.282	3891.62
739.471	3867.02
739.661	3875.74
739.85	3916.23
740.04	3889.1
740.229	3966.22
740.419	3969.51
740.608	3980.94
740.797	3969.12
740.987	4012.91
741.176	4030.35
741.365	3936.77
741.555	3991.21
741.744	4024.34
741.933	3984.43
742.123	4071.03
742.312	4034.22
742.501	4049.14
742.69	4090.41
742.88	3986.95
743.069	4139.81
743.258	4106.49
743.447	4143.88
743.636	4128.96
743.825	4070.06
744.014	4121.99
744.204	4151.63
744.393	4086.34
744.582	4187.47
744.771	4221.38
744.96	4140.59
745.149	4159.77
745.338	4173.53
745.527	4205.3
745.716	4140.01
745.905	4186.7
746.094	4214.79
746.283	4223.71
746.471	4200.26
746.66	4270.98
746.849	4251.22
747.038	4236.11
747.227	4197.36
747.416	4299.07
747.604	4154.73
747.793	4203.94
747.982	4198.52
748.171	4250.25
748.359	4265.75
748.548	4226.81
748.737	4245.79
748.926	4230.29
749.114	4109.01
749.303	4201.81
749.491	4202.97
749.68	4145.04
749.869	4248.51
750.057	4213.24
750.246	4163.45
750.434	4165.19
750.623	4197.36
750.811	4176.04
751	4231.84
751.188	4169.65
751.377	4156.28
751.565	4171.59
751.754	4167.91
751.942	4129.16
752.131	4185.15
752.319	4167.71
752.507	4116.18
752.696	4193.87
752.884	4213.05
753.072	4149.11
753.261	4165.19
753.449	4121.6
753.637	4156.48
753.825	4234.17
754.014	4106.49
754.202	4078.2
754.39	4230.1
754.578	4178.76
754.766	4104.36
754.955	4133.61
755.143	4223.32
755.331	4123.93
755.519	4159.77
755.707	4146.79
755.895	4088.28
756.083	4138.07
756.271	4083.05
756.459	4117.73
756.647	4127.41
756.835	4071.61
757.023	4078.01
757.211	4059.41
757.399	4078.01
757.587	4062.12
757.775	3950.52
757.963	4046.62
758.151	4029.57
758.339	3986.95
758.526	3986.75
758.714	4023.18
758.902	3932.5
759.09	3889.69
759.278	3680.05
759.465	3472.55
759.653	3105.98
759.841	2865.73
760.028	2530.74
760.216	2232.76
760.404	2113.99
760.591	1818.14
760.779	1538.56
760.967	1450.6
761.154	1240.58
761.342	1278.94
761.529	1294.05
761.717	1362.06
761.905	1366.71
762.092	1525.58
762.28	1458.55
762.467	1505.82
762.655	1460.68
762.842	1475.4
763.029	1540.11
763.217	1552.13
763.404	1578.09
763.592	1579.44
763.779	1564.53
763.966	1579.64
764.154	1637.37
764.341	1727.27
764.528	1683.29
764.716	1789.85
764.903	1837.32
765.09	1903.78
765.277	1911.72
765.465	2151
765.652	2200.6
765.839	2238.38
766.026	2368.58
766.213	2425.15
766.4	2505.94
766.588	2681.48
766.775	2686.32
766.962	2797.53
767.149	2865.34
767.336	3000
767.523	2947.69
767.71	3074.2
767.897	3225.52
768.084	3284.03
768.271	3293.14
768.458	3334.79
768.645	3383.04
768.832	3381.87
769.019	3399.51
769.206	3457.24
769.392	3503.93
769.579	3624.83
769.766	3544.82
769.953	3531.25
770.14	3603.52
770.327	3568.26
770.513	3598.87
770.7	3692.26
770.887	3600.61
771.073	3622.51
771.26	3620.57
771.447	3607.78
771.634	3554.7
771.82	3644.4
772.007	3609.91
772.193	3582.79
772.38	3650.21
772.567	3628.51
772.753	3629.48
772.94	3676.95
773.126	3632
773.313	3629.87
773.499	3615.34
773.686	3599.26
773.872	3573.49
774.059	3588.41
774.245	3549.08
774.432	3568.26
774.618	3493.47
774.804	3563.42
774.991	3457.82
775.177	3560.7
775.363	3520.79
775.55	3575.62
775.736	3469.25
775.922	3543.46
776.109	3528.35
776.295	3510.52
776.481	3530.09
776.667	3556.83
776.853	3528.73
777.04	3462.67
777.226	3518.08
777.412	3578.14
777.598	3451.04
777.784	3477.97
777.97	3436.51
778.156	3472.16
778.342	3495.02
778.528	3429.54
778.715	3381.68
778.901	3400.28
779.087	3483.98
779.272	3397.76
779.458	3375.48
779.644	3404.15
779.83	3329.76
780.016	3493.08
780.202	3350.68
780.388	3409
780.574	3281.13
780.76	3366.76
780.946	3397.57
781.131	3318.91
781.317	3289.46
781.503	3296.63
781.689	3291.01
781.874	3429.15
782.06	3307.48
782.246	3333.44
782.432	3321.23
782.617	3303.02
782.803	3394.27
782.989	3223
783.174	3297.79
783.36	3203.24
783.545	3247.99
783.731	3244.89
783.916	3132.33
784.102	3271.44
784.288	3195.68
784.473	3203.24
784.659	3162.75
784.844	3243.15
785.029	3176.11
785.215	3148.99
785.4	3139.3
785.586	3203.24
785.771	3115.47
785.956	3176.11
786.142	3142.6
786.327	3126.13
786.512	3130.39
786.698	3116.44
786.883	3071.68
787.068	3083.89
787.254	3119.54
787.439	3076.33
787.624	3080.79
787.809	3076.14
787.994	3051.15
788.18	3087.38
788.365	3008.91
788.55	3025.96
788.735	3009.88
788.92	3003.68
789.105	3005.81
789.29	3065.29
789.475	2935.67
789.66	2938.77
789.845	2970.74
790.03	2955.44
790.215	2960.67
790.4	2999.42
790.585	2993.8
790.77	2963.38
790.955	2911.07
791.14	2924.44
791.325	3010.46
791.51	2862.05
791.695	2909.71
791.879	2877.16
792.064	2838.8
792.249	2976.75
792.434	2887.43
792.618	2889.17
792.803	2960.86
792.988	2901.77
793.173	2924.05
793.357	2948.46
793.542	2855.27
793.727	2900.41
793.911	2943.04
794.096	2903.51
794.281	2931.22
794.465	2984.89
794.65	2923.66
794.834	2967.45
795.019	2937.22
795.203	2978.69
795.388	2978.1
795.572	2996.7
795.757	2951.17
795.941	2966.67
796.126	2962.02
796.31	2862.05
796.494	2964.93
796.679	2908.55
796.863	2866.31
797.048	3008.14
797.232	2956.99
797.416	3003.49
797.601	2946.52
797.785	3016.66
797.969	3048.44
798.153	2956.79
798.338	3024.22
798.522	3041.46
798.706	3005.81
798.89	2992.44
799.074	3110.82
799.258	3070.91
799.443	2975.78
799.627	2965.32
799.811	3074.01
799.995	2954.47
800.179	2977.33
800.363	2929.47
800.547	2981.98
800.731	3003.49
800.915	2911.65
801.099	2939.74
801.283	2954.66
801.467	2998.06
801.651	2978.3
801.835	3005.42
802.019	2965.9
802.202	2987.79
802.386	2893.63
802.57	2926.76
802.754	2925.79
802.938	2942.65
803.121	2939.16
803.305	3029.84
803.489	2970.16
803.673	2975.78
803.856	2962.8
804.04	2956.99
804.224	3033.32
804.407	2948.07
804.591	2945.75
804.775	2928.89
804.958	2946.52
805.142	3028.29
805.326	2938.77
805.509	2980.24
805.693	3014.92
805.876	2967.06
806.06	2939.55
806.243	2980.04
806.427	2973.07
806.61	2998.45
806.794	2925.99
806.977	3002.9
807.16	2991.86
807.344	3000.19
807.527	2958.54
807.71	2929.28
807.894	2929.09
808.077	2993.8
808.26	2910.68
808.444	2913.2
808.627	2960.09
808.81	2885.49
808.993	2855.85
809.177	2873.68
809.36	2852.17
809.543	2891.89
809.726	2795.98
809.909	2794.24
810.092	2787.65
810.276	2812.06
810.459	2825.04
810.642	2785.33
810.825	2772.73
811.008	2728.36
811.191	2640.4
811.374	2703.37
811.557	2706.08
811.74	2775.06
811.923	2648.35
812.106	2664.43
812.289	2616.38
812.472	2631.88
812.654	2651.64
812.837	2593.13
813.02	2553.22
813.203	2516.02
813.386	2416.82
813.569	2433.87
813.751	2373.23
813.934	2445.3
814.117	2374.19
814.3	2311.23
814.482	2299.21
814.665	2253.68
814.848	2214.74
815.03	2186.07
815.213	2178.12
815.396	2172.31
815.578	2138.79
815.761	2081.06
815.943	2183.93
816.126	2024.48
816.309	2049.28
816.491	1934.19
816.674	1934.78
816.856	1923.93
817.039	1930.13
817.221	2014.21
817.403	1969.65
817.586	1977.01
817.768	2019.44
817.951	1915.59
818.133	1875.88
818.315	1961.13
818.498	1988.25
818.68	2011.5
818.862	2014.6
819.045	2064.59
819.227	2003.75
819.409	1978.76
819.591	1983.99
819.774	1983.41
819.956	1946.01
820.138	2006.46
820.32	2002.2
820.502	2052.77
820.684	2122.13
820.866	2144.22
821.048	2192.27
821.231	2182.38
821.413	2192.07
821.595	2162.62
821.777	2144.99
821.959	2136.85
822.141	2237.02
822.323	2099.65
822.505	2028.36
822.686	1985.54
822.868	1902.23
823.05	1830.54
823.232	1756.53
823.414	1690.46
823.596	1764.67
823.778	1737.74
823.96	1793.92
824.141	1795.28
824.323	1786.17
824.505	1863.67
824.687	1931.48
824.868	1985.34
825.05	2023.9
825.232	2091.13
825.413	2174.83
825.595	2105.85
825.777	2070.21
825.958	2089.58
826.14	2046.76
826.321	2096.36
826.503	2066.14
826.685	2098.69
826.866	2120.97
827.048	2171.73
827.229	2046.76
827.411	1968.29
827.592	1989.03
827.773	1968.29
827.955	1915.79
828.136	1922.76
828.318	1918.5
828.499	1934
828.68	1876.85
828.862	1914.24
829.043	1962.09
829.224	1911.91
829.406	1860.76
829.587	1862.12
829.768	1858.83
829.949	1903.39
830.131	1874.91
830.312	1916.76
830.493	1891.96
830.674	1900.68
830.855	1888.08
831.036	1841.58
831.218	1944.46
831.399	1982.83
831.58	1942.33
831.761	1886.15
831.942	1938.84
832.123	1910.36
832.304	1821.82
832.485	1865.41
832.666	1883.05
832.847	1934.39
833.028	1864.45
833.209	1885.37
833.389	1861.93
833.57	1813.49
833.751	1829.38
833.932	1943.69
834.113	1838.29
834.294	1847.78
834.475	1890.41
834.655	1906.68
834.836	1920.05
835.017	1908.43
835.198	1879.75
835.378	1877.62
835.559	1932.84
835.74	1858.25
835.92	1883.43
836.101	1845.46
836.281	1940.2
836.462	1907.07
836.643	1951.24
836.823	1898.55
837.004	1953.18
837.184	1982.83
837.365	1957.64
837.545	1952.02
837.726	1895.45
837.906	1959.58
838.087	1927.41
838.267	1903.58
838.448	1850.88
838.628	1915.21
838.808	1895.83
838.989	1970.23
839.169	1897.38
839.349	1915.59
839.53	1928.58
839.71	1934.97
839.89	1887.89
840.07	1964.42
840.251	1886.15
840.431	1940.2
840.611	1905.71
840.791	1852.82
840.971	1902.23
841.151	1860.96
841.332	1853.98
841.512	1920.05
841.692	1849.72
841.872	1886.34
842.052	1889.25
842.232	1922.76
842.412	1832.28
842.592	1858.63
842.772	1860.76
842.952	1885.56
843.132	1806.9
843.312	1858.44
843.492	1806.71
843.672	1881.3
843.851	1815.23
844.031	1855.15
844.211	1863.48
844.391	1829.38
844.571	1825.31
844.751	1846.81
844.93	1868.9
845.11	1800.9
845.29	1842.94
845.47	1847.2
845.649	1843.33
845.829	1840.81
846.009	1786.95
846.188	1849.33
846.368	1831.9
846.547	1805.74
846.727	1877.43
846.907	1762.15
847.086	1811.36
847.266	1824.73
847.445	1793.15
847.625	1772.42
847.804	1766.02
847.984	1808.84
848.163	1778.62
848.343	1801.28
848.522	1784.04
848.701	1783.27
848.881	1766.6
849.06	1749.94
849.239	1758.08
849.419	1753.43
849.598	1658.69
849.777	1706.35
849.957	1674.19
850.136	1620.71
850.315	1659.27
850.494	1609.47
850.674	1599.4
850.853	1687.94
851.032	1670.7
851.211	1668.18
851.39	1688.33
851.569	1635.05
851.748	1625.36
851.927	1668.37
852.107	1674.38
852.286	1596.11
852.465	1606.96
852.644	1675.93
852.823	1624.97
853.002	1615.87
853.181	1629.43
853.359	1664.3
853.538	1571.89
853.717	1653.26
853.896	1560.26
854.075	1475.21
854.254	1457.19
854.433	1370.97
854.611	1440.33
854.79	1360.51
854.969	1418.25
855.148	1440.14
855.327	1374.85
855.505	1453.12
855.684	1437.81
855.863	1502.53
856.041	1459.13
856.22	1494
856.399	1437.81
856.577	1591.46
856.756	1572.66
856.934	1675.15
857.113	1657.33
857.291	1578.86
857.47	1565.3
857.648	1581.57
857.827	1599.79
858.005	1593.97
858.184	1525.58
858.362	1649.39
858.541	1566.27
858.719	1544.38
858.898	1539.92
859.076	1519.96
859.254	1609.67
859.433	1543.02
859.611	1527.13
859.789	1452.54
859.967	1580.02
860.146	1589.52
860.324	1474.43
860.502	1502.91
860.68	1478.31
860.859	1451.38
861.037	1490.32
861.215	1504.27
861.393	1525.78
861.571	1516.86
861.749	1475.6
861.927	1512.79
862.105	1521.13
862.283	1482.96
862.461	1450.6
862.639	1425.03
862.817	1487.03
862.995	1444.79
863.173	1458.74
863.351	1480.24
863.529	1462.61
863.707	1512.99
863.885	1500.98
864.063	1415.53
864.241	1418.83
864.418	1503.11
864.596	1423.67
864.774	1396.74
864.952	1440.91
865.129	1453.51
865.307	1411.27
865.485	1367.68
865.663	1440.72
865.84	1329.32
866.018	1357.8
866.196	1216.75
866.373	1293.67
866.551	1219.46
866.728	1187.49
866.906	1223.72
867.084	1238.06
867.261	1285.14
867.439	1277.59
867.616	1324.47
867.794	1330.09
867.971	1287.08
868.149	1283.4
868.326	1383.18
868.503	1362.45
868.681	1361.28
868.858	1311.1
869.035	1298.12
869.213	1373.1
869.39	1335.71
869.567	1400.03
869.745	1278.55
869.922	1336.68
870.099	1356.25
870.276	1363.61
870.454	1343.85
870.631	1331.25
870.808	1330.09
870.985	1403.13
871.162	1386.86
871.339	1354.7
871.517	1272.94
871.694	1218.3
871.871	1293.28
872.048	1277.97
872.225	1267.9
872.402	1290.57
872.579	1240
872.756	1289.99
872.933	1246.97
873.11	1263.44
873.287	1302.58
873.463	1288.44
873.64	1227.6
873.817	1309.55
873.994	1258.6
874.171	1241.35
874.348	1256.85
874.524	1189.43
874.701	1295.99
874.878	1167.15
875.055	1284.37
875.231	1249.1
875.408	1262.47
875.585	1179.94
875.762	1223.92
875.938	1218.3
876.115	1206.29
876.291	1219.07
876.468	1190.79
876.645	1167.92
876.821	1207.64
876.998	1184.01
877.174	1220.04
877.351	1171.41
877.527	1153.78
877.704	1193.89
877.88	1192.34
878.057	1150.68
878.233	1226.05
878.409	1172.77
878.586	1150.87
878.762	1182.84
878.938	1164.82
879.115	1108.64
879.291	1160.56
879.467	1122.39
879.644	1162.11
879.82	1164.82
879.996	1142.35
880.172	1114.26
880.349	1143.9
880.525	1187.3
880.701	1106.51
880.877	1109.22
881.053	1118.91
881.229	1104.57
881.405	1165.21
881.581	1096.43
881.757	1091.59
881.933	1119.49
882.109	1156.3
882.285	1117.36
882.461	1073.96
882.637	1099.92
882.813	1093.72
882.989	1105.54
883.165	1150.68
883.341	1109.61
883.517	1171.8
883.693	1114.45
883.869	1112.71
884.044	1125.49
884.22	1107.09
884.396	1184.59
884.572	1141.57
884.747	1139.44
884.923	1119.68
885.099	1139.25
885.275	1189.82
885.45	1093.53
885.626	1101.08
885.801	1106.7
885.977	1100.31
886.153	1037.15
886.328	1116.58
886.504	1060.01
886.679	1114.45
886.855	1068.14
887.03	1121.81
887.206	1109.8
887.381	1099.73
887.557	1111.16
887.732	1130.72
887.908	1125.88
888.083	1134.99
888.258	1087.52
888.434	1108.44
888.609	1090.23
888.784	1129.76
888.96	1105.15
889.135	1100.11
889.31	1072.41
889.485	1105.34
889.661	1081.71
889.836	1154.56
890.011	1121.81
890.186	1099.53
890.361	1069.89
890.537	1138.28
890.712	1140.8
890.887	1111.93
891.062	1148.94
891.237	1169.28
891.412	1081.32
891.587	1116
891.762	1130.92
891.937	1166.18
892.112	1071.24
892.287	1085
892.462	1051.48
892.637	1018.35
892.812	1003.05
892.987	1039.86
893.161	1024.55
893.336	1038.31
893.511	1024.75
893.686	1050.9
893.861	1022.81
894.035	1038.11
894.21	1011.96
894.385	991.42
894.56	1017.77
894.734	957.32
894.909	947.63
895.084	976.31
895.258	952.87
895.433	943.57
895.608	911.02
895.782	910.63
895.957	884.86
896.131	921.67
896.306	866.07
896.48	841.46
896.655	853.86
896.829	770.74
897.004	796.7
897.178	812.2
897.353	793.22
897.527	838.55
897.701	847.08
897.876	748.07
898.05	839.52
898.224	811.82
898.399	873.62
898.573	790.89
898.747	691.31
898.921	763.38
899.096	688.79
899.27	659.73
899.444	672.13
899.618	699.44
899.792	725.21
899.967	713.59
900.141	766.48
900.315	667.67
900.489	707.19
900.663	706.42
900.837	725.21
901.011	677.16
901.185	775.39
901.359	705.64
901.533	723.47
901.707	715.14
901.881	706.22
902.055	675.42
902.229	669.99
902.403	770.55
902.576	716.88
902.75	726.76
902.924	794.57
903.098	759.31
903.272	781.01
903.446	850.37
903.619	793.22
903.793	845.53
903.967	800.97
904.14	904.62
904.314	901.13
904.488	849.79
904.661	875.17
904.835	829.45
905.009	904.82
905.182	931.75
905.356	868.97
905.529	871.68
905.703	847.27
905.876	809.49
906.05	824.41
906.223	772.29
906.397	739.36
906.57	733.35
906.744	690.92
906.917	743.04
907.09	683.94
907.264	725.79
907.437	677.55
907.61	643.84
907.784	671.35
907.957	683.75
908.13	619.04
908.304	697.89
908.477	629.31
908.65	639.77
908.823	626.21
908.996	690.14
909.17	631.63
909.343	620.59
909.516	645.58
909.689	635.31
909.862	613.42
910.035	659.34
910.208	619.62
910.381	599.86
910.554	701.77
910.727	619.81
910.9	630.28
911.073	615.74
911.246	679.29
911.419	657.4
911.592	657.4
911.765	626.21
911.938	589.4
912.11	599.66
912.283	640.74
912.456	681.43
912.629	630.86
912.802	574.67
912.974	562.27
913.147	539.21
913.32	488.65
913.493	502.79
913.665	555.88
913.838	552
914.01	514.42
914.183	547.16
914.356	548.13
914.528	607.8
914.701	626.79
914.873	586.68
915.046	525.65
915.218	515.38
915.391	448.93
915.563	473.15
915.736	544.25
915.908	542.51
916.081	526.04
916.253	551.23
916.425	544.25
916.598	565.56
916.77	546.58
916.942	506.67
917.115	444.08
917.287	546.58
917.459	515.77
917.632	485.74
917.804	431.68
917.976	519.84
918.148	515.38
918.32	532.05
918.493	533.79
918.665	608.19
918.837	545.22
919.009	608.19
919.181	567.89
919.353	567.89
919.525	551.23
919.697	567.89
919.869	534.95
920.041	609.16
920.213	651.2
920.385	590.95
920.557	568.86
920.729	583.97
920.901	557.04
921.073	534.76
921.244	565.95
921.416	607.03
921.588	548.51
921.76	527.59
921.932	574.48
922.103	551.42
922.275	569.25
922.447	584.16
922.619	485.55
922.79	537.86
922.962	524.3
923.134	581.06
923.305	498.33
923.477	446.8
923.648	482.06
923.82	520.61
923.991	447.96
924.163	438.47
924.335	484
924.506	475.67
924.677	512.48
924.849	480.51
925.02	499.69
925.192	515.77
925.363	503.57
925.535	509.18
925.706	446.41
925.877	533.79
926.049	498.53
926.22	492.13
926.391	504.53
926.562	519.26
926.734	464.04
926.905	528.36
927.076	428.97
927.247	463.07
927.419	432.27
927.59	429.55
927.761	422
927.932	433.04
928.103	434.2
928.274	381.89
928.445	365.04
928.616	395.26
928.787	382.47
928.958	372.2
929.129	381.89
929.3	357.87
929.471	313.5
929.642	289.09
929.813	258.28
929.984	337.91
930.155	260.61
930.326	297.42
930.496	293.16
930.667	215.27
930.838	277.07
931.009	211.78
931.18	243.36
931.35	240.84
931.521	250.34
931.692	168.58
931.863	129.05
932.033	211.78
932.204	198.99
932.374	180.01
932.545	146.68
932.716	216.04
932.886	199.77
933.057	118.01
933.227	130.02
933.398	204.03
933.568	80.23
933.739	64.73
933.909	74.61
934.08	129.05
934.25	46.32
934.421	68.99
934.591	122.66
934.761	84.88
934.932	31.6
935.102	109.48
935.272	100.18
935.443	91.08
935.613	83.52
935.783	111.42
935.953	90.5
936.123	240.46
936.294	61.24
936.464	67.05
936.634	75.58
936.804	34.89
936.974	37.22
937.144	111.23
937.314	75.77
937.484	33.92
937.655	64.34
937.825	127.11
937.995	63.76
938.165	126.92
938.334	78.48
938.504	87.78
938.674	81.2
938.844	103.48
939.014	166.06
939.184	153.27
939.354	196.86
939.524	176.33
939.694	146.3
939.863	118.59
940.033	207.52
940.203	190.86
940.373	198.22
940.542	192.21
940.712	159.28
940.882	164.31
941.051	193.96
941.221	188.14
941.391	194.54
941.56	114.52
941.73	106.96
941.899	270.29
942.069	126.15
942.238	149.59
942.408	130.21
942.577	171.48
942.747	127.11
942.916	104.25
943.086	104.64
943.255	185.43
943.425	127.5
943.594	105.03
943.763	40.12
943.933	89.91
944.102	45.16
944.271	123.05
944.441	101.73
944.61	66.86
944.779	119.56
944.948	191.24
945.117	66.67
945.287	84.88
945.456	32.37
945.625	106
945.794	102.31
945.963	62.02
946.132	148.62
946.301	82.55
946.47	107.35
946.639	46.13
946.808	92.82
946.977	135.06
947.146	147.26
947.315	115.88
947.484	111.23
947.653	106.58
947.822	95.53
947.991	56.59
948.16	182.33
948.329	153.85
948.498	101.15
948.666	114.33
948.835	152.11
949.004	68.02
949.173	57.75
949.341	113.36
949.51	134.09
949.679	151.72
949.847	117.81
950.016	191.83
950.185	154.24
950.353	89.33
950.522	101.35
950.69	170.71
950.859	95.34
951.028	154.05
951.196	135.06
951.365	90.3
951.533	106.38
951.701	125.18
951.87	149.01
952.038	69.57
952.207	104.64
952.375	161.02
952.543	108.71
952.712	108.32
952.88	70.15
953.048	177.88
953.217	133.9
953.385	126.53
953.553	166.45
953.721	86.04
953.89	99.8
954.058	68.8
954.226	80.81
954.394	107.16
954.562	63.76
954.73	96.11
954.898	101.93
955.067	115.88
955.235	101.93
955.403	144.36
955.571	166.45
955.739	119.75
955.907	91.85
956.075	78.29
956.243	81
956.41	130.02
956.578	62.21
956.746	57.95
956.914	110.45
957.082	145.91
957.25	122.27
957.418	80.03
957.585	109.29
957.753	173.23
957.921	80.03
958.089	111.23
958.256	120.91
958.424	111.42
958.592	128.86
958.759	92.05
958.927	113.94
959.095	82.75
959.262	119.56
959.43	141.84
959.597	75
959.765	107.93
959.932	71.7
960.1	134.67
960.267	100.18
960.435	130.8
960.602	135.83
960.77	124.4
960.937	57.75
961.104	120.72
961.272	61.05
961.439	108.32
961.606	139.9
961.774	124.79
961.941	91.46
962.108	108.51
962.275	132.35
962.443	143.2
962.61	141.26
962.777	186.01
962.944	156.18
963.111	121.69
963.278	157.34
963.446	121.3
963.613	122.08
963.78	122.85
963.947	143.78
964.114	128.47
964.281	197.64
964.448	171.48
964.615	114.52
964.782	142.61
964.949	145.91
965.116	128.47
965.282	192.02
965.449	130.02
965.616	80.81
965.783	133.7
965.95	124.98
966.117	86.23
966.283	127.31
966.45	118.4
966.617	135.06
966.784	175.74
966.95	172.45
967.117	145.71
967.284	86.43
967.45	116.65
967.617	189.11
967.784	149.4
967.95	182.53
968.117	129.25
968.283	169.35
968.45	231.74
968.616	161.6
968.783	192.21
968.949	171.48
969.116	192.6
969.282	163.54
969.449	138.16
969.615	129.05
969.781	98.05
969.948	109.87
970.114	96.5
970.28	179.04
970.447	143
970.613	179.62
970.779	117.23
970.945	168.38
971.112	155.79
971.278	139.13
971.444	134.67
971.61	182.53
971.776	130.02
971.942	145.52
972.108	171.29
972.275	131.18
972.441	158.89
972.607	197.44
972.773	129.44
972.939	156.56
973.105	132.15
973.271	87.98
973.437	87.2
973.602	94.18
973.768	134.86
973.934	94.18
974.1	147.85
974.266	61.05
974.432	112.2
974.598	104.45
974.763	149.01
974.929	112.58
975.095	182.91
975.261	61.63
975.426	105.61
975.592	110.84
975.758	170.9
975.923	67.44
976.089	115.3
976.255	157.53
976.42	128.08
976.586	127.11
976.751	144.75
976.917	202.29
977.082	141.45
977.248	66.67
977.413	51.17
977.579	100.76
977.744	141.65
977.91	86.62
978.075	103.67
978.24	148.04
978.406	127.11
978.571	81.39
978.736	105.22
978.902	159.08
979.067	94.56
979.232	66.28
979.397	127.89
979.563	154.82
979.728	114.52
979.893	114.52
980.058	67.63
980.223	162.18
980.388	115.49
980.554	126.53
980.719	110.84
980.884	119.56
981.049	167.41
981.214	101.54
981.379	123.82
981.544	74.22
981.709	104.83
981.874	87.01
982.039	95.15
982.204	127.7
982.368	122.27
982.533	83.13
982.698	110.45
982.863	161.8
983.028	121.11
983.193	111.42
983.357	102.12
983.522	133.9
983.687	106.58
983.852	110.06
984.016	111.81
984.181	114.71
984.346	140.48
984.51	132.35
984.675	105.22
984.839	140.29
985.004	120.91
985.168	140.48
985.333	115.68
985.498	103.86
985.662	138.35
985.827	119.36
985.991	125.95
986.155	105.41
986.32	172.64
986.484	162.76
986.649	110.45
986.813	31.6
986.977	124.4
987.142	139.51
987.306	69.57
987.47	71.51
987.634	96.89
987.799	118.98
987.963	111.03
988.127	122.08
988.291	185.04
988.455	106.77
988.62	97.86
988.784	151.14
988.948	125.37
989.112	62.02
989.276	125.37
989.44	104.06
989.604	69.77
989.768	97.66
989.932	192.79
990.096	70.54
990.26	53.1
990.424	67.83
990.588	107.35
990.752	175.55
990.915	155.4
991.079	109.1
991.243	72.09
991.407	146.3
991.571	105.41
991.734	131.76
991.898	108.71
992.062	201.13
992.226	93.21
992.389	69.96
992.553	46.13
992.717	50.58
992.88	76.55
993.044	115.88
993.207	93.79
993.371	109.87
993.535	103.48
993.698	83.71
993.862	109.29
994.025	119.17
994.189	113.16
994.352	90.3
994.515	94.95
994.679	128.86
994.842	68.99
995.006	103.67
995.169	85.07
995.332	57.37
995.496	110.84
995.659	42.64
995.822	83.52
995.985	82.55
996.149	140.29
996.312	96.5
996.475	150.36
996.638	90.69
996.801	149.4
996.964	164.7
997.128	96.89
997.291	69.38
997.454	88.95
997.617	39.35
997.78	141.84
997.943	57.75
998.106	87.01
998.269	61.05
998.432	106.19
998.595	66.86
998.758	40.7
998.92	54.27
999.083	28.11
999.246	82.75
999.409	39.35
999.572	28.69
999.735	92.24
999.897	103.28
1000.06	53.88
1000.223	63.57
1000.386	92.82
1000.548	96.89
1000.711	72.09
1000.874	100.96
1001.036	17.26
1001.199	100.18
1001.361	60.85
1001.524	67.25
1001.687	100.76
1001.849	47.87
1002.012	67.05
1002.174	70.15
1002.337	113.75
1002.499	72.09
1002.661	90.69
1002.824	31.6
1002.986	56.01
1003.149	78.87
1003.311	30.05
1003.473	120.14
1003.636	55.43
1003.798	78.29
1003.96	78.68
1004.123	69.77
1004.285	60.85
1004.447	64.73
1004.609	67.25
1004.771	116.46
1004.933	26.56
1005.096	50.39
1005.258	52.52
1005.42	52.91
1005.582	86.23
1005.744	78.29
1005.906	35.28
1006.068	67.05
1006.23	10.48
1006.392	-10.06
1006.554	31.21
1006.716	107.93
1006.878	91.08
1007.04	26.56
1007.202	32.76
1007.363	77.71
1007.525	48.07
1007.687	72.87
1007.849	136.41
1008.011	2.34
1008.172	26.17
1008.334	28.5
1008.496	97.86
1008.658	14.55
1008.819	22.1
1008.981	3.12
1009.143	35.08
1009.304	64.53
1009.466	56.01
1009.627	133.12
1009.789	136.03
1009.95	62.79
1010.112	39.35
1010.273	77.32
1010.435	48.45
1010.596	65.5
1010.758	47.29
1010.919	26.17
1011.081	3.7
1011.242	31.6
1011.403	63.76
1011.565	53.88
1011.726	66.47
1011.887	25.78
1012.049	48.65
1012.21	118.59
1012.371	108.32
1012.532	-49
1012.693	51.55
1012.855	25.4
1013.016	71.12
1013.177	105.03
1013.338	33.92
1013.499	108.32
1013.66	70.54
1013.821	93.6
1013.982	56.59
1014.143	24.23
1014.304	15.71
1014.465	61.82
1014.626	75.38
1014.787	40.12
1014.948	129.05
1015.109	-8.7
1015.27	103.09
1015.431	32.18
1015.592	18.42
1015.752	77.71
1015.913	43.42
1016.074	70.15
1016.235	28.3
1016.395	48.07
1016.556	30.63
1016.717	20.55
1016.877	98.05
1017.038	-13.16
1017.199	73.64
1017.359	37.6
1017.52	41.67
1017.681	48.65
1017.841	24.82
1018.002	41.67
1018.162	46.13
1018.323	99.21
1018.483	33.92
1018.644	60.08
1018.804	-7.15
1018.964	0.02
1019.125	38.38
1019.285	57.56
1019.446	-0.76
1019.606	27.33
1019.766	-56.36
1019.926	70.15
1020.087	47.29
1020.247	6.22
1020.407	31.02
1020.567	84.1
1020.728	32.18
1020.888	6.99
1021.048	21.52
1021.208	4.08
1021.368	2.34
1021.528	85.26
1021.688	71.12
1021.848	57.75
1022.008	41.09
1022.168	17.84
1022.328	49.81
1022.488	47.48
1022.648	8.54
1022.808	25.98
1022.968	40.32
1023.128	11.45
1023.288	24.43
1023.448	38.77
1023.608	64.92
1023.767	48.65
1023.927	20.55
1024.087	6.99
1024.247	1.95
1024.406	12.42
1024.566	-0.18
1024.726	6.8
1024.885	39.15
1025.045	66.47
1025.205	12.42
1025.364	35.67
1025.524	37.6
1025.683	2.53
1025.843	68.41
1026.003	33.53
1026.162	58.53
1026.321	69.57
1026.481	20.75
1026.64	26.56
1026.8	42.25
1026.959	22.1
1027.119	33.34
1027.278	8.35
1027.437	-16.26
1027.597	25.01
1027.756	35.86
1027.915	44.58
1028.074	65.31
1028.234	3.7
1028.393	16.29
1028.552	10.09
1028.711	-55.2
1028.87	71.7
1029.03	16.48
1029.189	26.95
1029.348	-45.9
1029.507	21.52
1029.666	31.6
1029.825	1.95
1029.984	12.03
1030.143	46.71
1030.302	1.37
1030.461	-50.16
1030.62	23.46
1030.779	54.07
1030.938	13.19
1031.097	-5.99
1031.255	53.49
1031.414	101.15
1031.573	65.89
1031.732	-40.67
1031.891	25.59
1032.049	90.5
1032.208	56.2
1032.367	5.05
1032.525	-3.28
1032.684	31.79
1032.843	4.47
1033.001	-23.23
1033.16	187.95
1033.319	59.11
1033.477	39.35
1033.636	7.38
1033.794	-38.54
1033.953	54.85
1034.111	74.42
1034.27	-4.25
1034.428	25.4
1034.587	-27.11
1034.745	18.81
1034.903	29.85
1035.062	56.01
1035.22	-12.77
1035.378	54.65
1035.537	-25.75
1035.695	49.62
1035.853	2.34
1036.011	54.27
1036.17	40.7
1036.328	-40.09
1036.486	33.92
1036.644	46.9
1036.802	-60.43
1036.96	-1.34
1037.119	2.73
1037.277	-17.03
1037.435	-15.87
1037.593	7.77
1037.751	3.7
1037.909	3.12
1038.067	3.12
