Data from gum_old_FLMT105791__181__15-48-08-249.txt Node

Date: Mon Mar 20 15:48:08 GMT 2023
User: antho
Spectrometer: FLMT10579
Trigger mode: 0
Integration Time (sec): 1.000000E-1
Scans to average: 10
Electric dark correction enabled: true
Nonlinearity correction enabled: false
Boxcar width: 0
XAxis mode: Wavelengths
Number of Pixels in Spectrum: 3648
>>>>>Begin Spectral Data<<<<<
345.248	-178.75
345.464	-178.75
345.681	-178.75
345.898	-189.4
346.114	-193.67
346.331	-49.91
346.548	30.89
346.764	-5.93
346.981	-9.99
347.197	4.54
347.414	27.59
347.631	-14.26
347.847	64.21
348.064	10.93
348.28	29.14
348.497	-62.11
348.713	-25.11
348.93	59.17
349.146	33.79
349.363	-2.24
349.579	37.67
349.796	20.04
350.012	-0.5
350.229	47.55
350.445	36.89
350.661	-9.61
350.878	25.85
351.094	27.4
351.311	41.74
351.527	33.99
351.743	-16.97
351.96	37.67
352.176	31.66
352.392	32.24
352.609	54.72
352.825	-8.06
353.041	21.78
353.257	10.16
353.474	48.52
353.69	27.79
353.906	47.16
354.122	-25.88
354.339	71.57
354.555	37.47
354.771	20.81
354.987	85.91
355.203	86.3
355.42	20.42
355.636	2.41
355.852	37.09
356.068	12.29
356.284	-46.42
356.5	100.64
356.716	30.89
356.932	18.68
357.148	44.64
357.364	29.14
357.58	75.84
357.796	90.75
358.012	83
358.228	51.62
358.444	-29.95
358.66	73.51
358.876	64.4
359.092	-14.64
359.308	40.38
359.524	55.69
359.74	17.13
359.956	10.16
360.172	36.89
360.388	66.54
360.604	46.58
360.819	115.17
361.035	43.09
361.251	63.63
361.467	6.67
361.683	81.07
361.898	56.46
362.114	69.25
362.33	42.9
362.546	75.25
362.762	72.54
362.977	40.96
363.193	-2.44
363.409	85.14
363.624	8.61
363.84	30.5
364.056	30.5
364.271	66.54
364.487	52.78
364.703	13.26
364.918	8.8
365.134	33.99
365.35	55.1
365.565	132.22
365.781	58.01
365.996	50.46
366.212	131.44
366.427	49.29
366.643	27.01
366.858	64.99
367.074	15.39
367.289	88.24
367.505	155.66
367.72	21.39
367.936	32.05
368.151	99.47
368.367	75.06
368.582	69.05
368.798	47.74
369.013	111.1
369.228	26.24
369.444	80.49
369.659	87.27
369.874	108.77
370.09	105.09
370.305	8.41
370.52	56.65
370.736	107.42
370.951	58.98
371.166	126.6
371.381	126.21
371.597	100.25
371.812	12.29
372.027	38.83
372.242	90.37
372.458	136.29
372.673	26.04
372.888	41.54
373.103	91.72
373.318	150.62
373.533	76.22
373.749	59.75
373.964	10.35
374.179	99.09
374.394	38.25
374.609	110.13
374.824	27.79
375.039	98.31
375.254	6.09
375.469	129.89
375.684	76.61
375.899	114.97
376.114	70.02
376.329	86.69
376.544	110.9
376.759	90.95
376.974	59.95
377.189	71.38
377.404	68.28
377.619	118.27
377.834	18.68
378.049	24.69
378.264	34.37
378.478	87.85
378.693	65.95
378.908	113.62
379.123	81.26
379.338	129.31
379.553	98.12
379.767	102.38
379.982	120.4
380.197	95.21
380.412	86.49
380.626	99.28
380.841	184.72
381.056	83.39
381.271	182.78
381.485	60.92
381.7	44.64
381.915	75.25
382.129	72.74
382.344	61.11
382.559	51.23
382.773	125.82
382.988	12.29
383.202	82.04
383.417	50.26
383.632	162.25
383.846	59.37
384.061	71.96
384.275	62.85
384.49	82.42
384.704	101.99
384.919	98.7
385.133	69.05
385.348	113.42
385.562	73.32
385.777	120.59
385.991	94.44
386.206	86.3
386.42	54.33
386.634	109.55
386.849	113.04
387.063	103.35
387.277	73.32
387.492	55.88
387.706	73.7
387.92	57.62
388.135	136.09
388.349	104.32
388.563	85.91
388.778	99.28
388.992	109.16
389.206	121.56
389.42	182.01
389.635	106.06
389.849	147.13
390.063	154.11
390.277	135.51
390.491	192.67
390.706	168.25
390.92	168.06
391.134	129.12
391.348	157.02
391.562	67.5
391.776	145.2
391.99	122.34
392.205	174.26
392.419	121.17
392.633	133.19
392.847	164.38
393.061	86.49
393.275	192.67
393.489	92.3
393.703	101.02
393.917	121.75
394.131	68.09
394.345	99.67
394.559	146.17
394.773	91.92
394.986	141.13
395.2	147.91
395.414	178.52
395.628	96.95
395.842	127.57
396.056	126.79
396.27	96.37
396.484	146.36
396.697	135.9
396.911	185.5
397.125	154.3
397.339	151.2
397.553	142.1
397.766	202.55
397.98	156.43
398.194	170.97
398.408	166.12
398.621	196.93
398.835	206.03
399.049	203.71
399.262	236.84
399.476	239.36
399.69	231.41
399.903	290.9
400.117	195.57
400.331	236.45
400.544	185.5
400.758	329.26
400.971	211.85
401.185	259.12
401.398	185.11
401.612	264.74
401.826	251.76
402.039	270.36
402.253	208.17
402.466	278.5
402.68	235.1
402.893	266.48
403.106	247.69
403.32	250.21
403.533	273.85
403.747	248.46
403.96	275.59
404.174	271.33
404.387	198.28
404.6	245.95
404.814	289.54
405.027	236.06
405.24	260.86
405.454	231.03
405.667	289.35
405.88	193.44
406.094	281.4
406.307	279.66
406.52	268.61
406.733	233.74
406.947	226.76
407.16	313.95
407.373	315.89
407.586	249.05
407.799	213.78
408.012	306.2
408.226	255.05
408.439	330.61
408.652	238.97
408.865	300.97
409.078	322.67
409.291	308.72
409.504	241.1
409.717	301.75
409.93	301.75
410.143	293.8
410.357	241.3
410.57	228.7
410.783	232.19
410.996	280.63
411.209	250.01
411.421	350.38
411.634	328.09
411.847	281.79
412.06	301.16
412.273	327.71
412.486	316.86
412.699	413.54
412.912	298.65
413.125	363.36
413.338	313.37
413.55	323.83
413.763	295.55
413.976	322.86
414.189	304.85
414.402	338.75
414.615	386.41
414.827	313.56
415.04	336.43
415.253	351.34
415.466	377.89
415.678	417.22
415.891	331.39
416.104	343.4
416.316	333.91
416.529	313.18
416.742	396.1
416.954	376.34
417.167	352.51
417.38	315.11
417.592	393.78
417.805	322.86
418.017	278.88
418.23	375.95
418.442	318.99
418.655	339.72
418.868	344.18
419.08	390.09
419.293	405.4
419.505	393.58
419.718	383.7
419.93	411.79
420.142	339.91
420.355	386.22
420.567	408.69
420.78	377.5
420.992	353.09
421.205	438.34
421.417	343.79
421.629	369.94
421.842	351.34
422.054	358.51
422.266	425.94
422.479	447.83
422.691	339.33
422.903	395.33
423.115	362.78
423.328	355.8
423.54	374.01
423.752	412.57
423.964	343.59
424.177	402.11
424.389	389.32
424.601	493.55
424.813	391.26
425.025	434.27
425.238	403.46
425.45	377.5
425.662	378.47
425.874	725.28
426.086	400.36
426.298	425.36
426.51	399.78
426.722	397.26
426.934	389.71
427.146	414.7
427.358	374.98
427.57	457.32
427.782	424.97
427.994	407.92
428.206	378.66
428.418	371.11
428.63	454.42
428.842	442.02
429.054	416.25
429.266	424.77
429.478	399.2
429.69	382.93
429.902	356.38
430.114	423.42
430.325	362
430.537	326.16
430.749	323.25
430.961	281.79
431.173	339.53
431.384	370.14
431.596	274.81
431.808	362.97
432.02	440.47
432.231	471.47
432.443	507.89
432.655	456.94
432.867	447.25
433.078	454.61
433.29	520.49
433.502	481.93
433.713	534.63
433.925	502.47
434.136	525.72
434.348	402.3
434.56	371.88
434.771	552.45
434.983	386.8
435.194	417.41
435.406	454.81
435.617	523.97
435.829	563.3
436.04	529.79
436.252	522.81
436.463	562.14
436.675	554.78
436.886	538.89
437.098	557.3
437.309	601.28
437.521	549.74
437.732	576.09
437.943	510.41
438.155	543.15
438.366	496.65
438.578	586.17
438.789	499.56
439	541.6
439.211	489.1
439.423	520.1
439.634	541.02
439.845	568.34
440.057	589.46
440.268	583.26
440.479	523.39
440.69	579.58
440.902	529.01
441.113	524.36
441.324	544.7
441.535	579.58
441.746	643.13
441.957	569.31
442.168	560.01
442.38	614.45
442.591	631.12
442.802	578.61
443.013	615.42
443.224	628.02
443.435	588.88
443.646	595.27
443.857	569.12
444.068	578.22
444.279	605.15
444.49	696.99
444.701	645.26
444.912	748.72
445.123	678.97
445.334	626.85
445.545	663.47
445.756	615.62
445.967	598.76
446.178	636.93
446.388	653.2
446.599	648.94
446.81	650.1
447.021	615.03
447.232	675.29
447.443	695.25
447.653	647.39
447.864	709.58
448.075	639.64
448.286	701.06
448.496	687.5
448.707	718.3
448.918	631.89
449.129	766.54
449.339	637.51
449.55	707.45
449.761	664.05
449.971	738.06
450.182	687.11
450.393	733.41
450.603	657.85
450.814	779.14
451.024	707.65
451.235	777.98
451.446	803.36
451.656	793.09
451.867	727.02
452.077	742.71
452.288	815.56
452.498	802.78
452.709	749.69
452.919	753.56
453.13	667.73
453.34	746.4
453.55	640.03
453.761	731.67
453.971	703.58
454.182	728.57
454.392	743.1
454.602	810.91
454.813	750.46
455.023	770.42
455.233	675.87
455.444	746.98
455.654	645.45
455.864	713.46
456.075	732.64
456.285	717.53
456.495	729.93
456.705	742.33
456.916	771.58
457.126	814.79
457.336	770.81
457.546	709.2
457.756	746.59
457.967	819.44
458.177	740.58
458.387	767.71
458.597	697.38
458.807	746.59
459.017	734.19
459.227	717.72
459.437	756.28
459.647	777.59
459.857	795.41
460.068	759.96
460.278	809.75
460.488	776.62
460.698	830.48
460.908	763.06
461.117	725.28
461.327	774.29
461.537	810.91
461.747	808.78
461.957	817.11
462.167	911.47
462.377	859.16
462.587	783.4
462.797	887.06
463.007	845.01
463.216	856.83
463.426	877.17
463.636	878.72
463.846	800.06
464.056	791.73
464.265	850.24
464.475	753.95
464.685	844.24
464.895	844.04
465.104	809.75
465.314	858.77
465.524	776.04
465.733	780.3
465.943	928.13
466.153	922.51
466.362	895.39
466.572	898.1
466.782	852.37
466.991	840.94
467.201	940.53
467.41	790.18
467.62	874.46
467.829	820.21
468.039	882.21
468.249	825.06
468.458	862.45
468.668	901.59
468.877	897.71
469.086	924.26
469.296	917.86
469.505	859.54
469.715	972.69
469.924	933.75
470.134	951.96
470.343	930.84
470.552	923.87
470.762	889.77
470.971	874.66
471.18	923.67
471.39	921.54
471.599	866.32
471.808	980.64
472.018	912.05
472.227	994.59
472.436	1045.35
472.645	965.14
472.855	978.7
473.064	1043.99
473.273	1021.13
473.482	1025.2
473.691	1027.91
473.901	1006.79
474.11	1030.62
474.319	1119.16
474.528	1027.72
474.737	1122.46
474.946	1038.18
475.155	1063.56
475.364	1115.1
475.573	1072.67
475.783	1091.07
475.992	1097.47
476.201	1127.88
476.41	1079.64
476.619	1066.27
476.828	1094.75
477.037	1056
477.245	1093.59
477.454	1136.99
477.663	1100.76
477.872	1103.47
478.081	1188.14
478.29	1127.11
478.499	1253.63
478.708	1210.61
478.917	1263.51
479.125	1172.64
479.334	1200.15
479.543	1192.01
479.752	1208.09
479.961	1235.03
480.169	1264.86
480.378	1241.61
480.587	1407.27
480.796	1251.88
481.004	1259.63
481.213	1323.96
481.422	1277.46
481.63	1260.99
481.839	1310.78
482.048	1367.94
482.256	1311.56
482.465	1362.32
482.674	1350.11
482.882	1372.2
483.091	1427.8
483.299	1350.5
483.508	1395.84
483.716	1378.79
483.925	1381.89
484.134	1327.44
484.342	1354.96
484.551	1441.17
484.759	1392.35
484.967	1413.47
485.176	1378.2
485.384	1436.33
485.593	1427.8
485.801	1379.95
486.01	1351.27
486.218	1322.02
486.426	1203.25
486.635	1218.94
486.843	1207.32
487.051	1236.58
487.26	1268.74
487.468	1277.46
487.676	1332.29
487.885	1335.39
488.093	1366.39
488.301	1401.84
488.509	1428
488.717	1489.42
488.926	1479.73
489.134	1443.11
489.342	1447.18
489.55	1403.2
489.758	1452.6
489.967	1457.25
490.175	1572.53
490.383	1520.8
490.591	1615.74
490.799	1496.97
491.007	1589.58
491.215	1576.21
491.423	1541.92
491.631	1529.13
491.839	1548.31
492.047	1565.95
492.255	1463.65
492.463	1470.62
492.671	1493.29
492.879	1565.36
493.087	1529.52
493.295	1585.51
493.503	1607.8
493.711	1642.28
493.919	1683.74
494.127	1649.45
494.334	1638.21
494.542	1551.22
494.75	1638.02
494.958	1582.61
495.166	1688.78
495.374	1709.71
495.581	1678.9
495.789	1662.43
495.997	1734.12
496.205	1614.77
496.412	1653.91
496.62	1665.53
496.828	1679.48
497.035	1646.74
497.243	1711.45
497.451	1693.24
497.658	1723.66
497.866	1698.47
498.074	1773.45
498.281	1686.46
498.489	1756.01
498.696	1699.05
498.904	1646.35
499.112	1686.46
499.319	1775.77
499.527	1710.68
499.734	1775.58
499.942	1655.07
500.149	1702.15
500.357	1724.82
500.564	1671.34
500.771	1714.16
500.979	1660.11
501.186	1671.73
501.394	1720.56
501.601	1677.35
501.808	1731.21
502.016	1669.99
502.223	1651.39
502.43	1715.32
502.638	1699.63
502.845	1651.97
503.052	1776.55
503.26	1688.39
503.467	1797.09
503.674	1760.66
503.881	1777.52
504.089	1855.4
504.296	1790.31
504.503	1704.48
504.71	1715.52
504.917	1725.21
505.125	1796.51
505.332	1773.64
505.539	1822.85
505.746	1855.4
505.953	1852.5
506.16	1849.79
506.367	1907.52
506.574	1941.62
506.781	1940.27
506.988	1847.65
507.195	1893.96
507.402	1842.42
507.609	1888.73
507.816	1797.28
508.023	1833.51
508.23	1820.92
508.437	1776.36
508.644	1852.89
508.851	1870.32
509.058	1941.62
509.265	1851.14
509.472	1903.07
509.679	1988.12
509.885	1920.5
510.092	1905.78
510.299	1926.32
510.506	1887.76
510.713	1926.9
510.92	1922.63
511.126	1936.78
511.333	1988.51
511.54	1957.12
511.746	1977.85
511.953	2013.7
512.16	2039.85
512.367	1986.18
512.573	1981.34
512.78	1987.54
512.987	1960.03
513.193	1949.57
513.4	1862.57
513.606	1942.78
513.813	1985.02
514.02	1920.31
514.226	2043.34
514.433	2014.66
514.639	1917.79
514.846	1942.78
515.052	1915.27
515.259	1989.67
515.465	1981.92
515.672	1986.96
515.878	2054.96
516.085	2043.34
516.291	2034.43
516.497	2001.1
516.704	1965.65
516.91	1944.72
517.117	1849.01
517.323	1762.02
517.529	1800.96
517.736	1803.48
517.942	1815.3
518.148	1851.72
518.354	1918.37
518.561	1922.05
518.767	1868
518.973	1947.05
519.179	1937.36
519.386	1912.17
519.592	1947.05
519.798	1980.76
520.004	2084.41
520.21	2035.2
520.417	2105.14
520.623	2124.13
520.829	2144.28
521.035	2152.22
521.241	2114.83
521.447	2135.37
521.653	2268.67
521.859	2178.38
522.065	2200.27
522.271	2266.73
522.477	2257.82
522.683	2294.82
522.889	2199.31
523.095	2231.47
523.301	2196.01
523.507	2165.4
523.713	2222.56
523.919	2186.71
524.125	2303.35
524.331	2291.72
524.537	2383.75
524.742	2370.19
524.948	2394.02
525.154	2409.72
525.36	2482.18
525.566	2360.12
525.772	2453.31
525.977	2337.06
526.183	2402.35
526.389	2422.7
526.595	2310.52
526.8	2323.88
527.006	2202.99
527.212	2167.72
527.417	2183.22
527.623	2159.2
527.829	2245.22
528.034	2257.43
528.24	2295.99
528.446	2283.59
528.651	2428.9
528.857	2424.05
529.062	2483.73
529.268	2456.6
529.473	2513.76
529.679	2493.61
529.884	2611.41
530.09	2572.46
530.295	2557.74
530.501	2562.39
530.706	2521.51
530.912	2496.32
531.117	2552.31
531.323	2525.96
531.528	2621.48
531.733	2630.2
531.939	2569.56
532.144	2628.84
532.35	2582.34
532.555	2620.9
532.76	2545.92
532.966	2578.08
533.171	2526.35
533.376	2496.9
533.581	2472.1
533.787	2516.66
533.992	2574.79
534.197	2597.65
534.402	2568.2
534.607	2577.5
534.813	2676.31
535.018	2573.24
535.223	2570.91
535.428	2635.24
535.633	2667.98
535.838	2704.99
536.043	2708.28
536.249	2810.58
536.454	2693.36
536.659	2735.4
536.864	2648.8
537.069	2699.17
537.274	2666.43
537.479	2674.95
537.684	2661.01
537.889	2605.4
538.094	2775.51
538.299	2679.22
538.504	2678.05
538.708	2686.58
538.913	2751.29
539.118	2676.12
539.323	2737.34
539.528	2674.18
539.733	2687.74
539.938	2705.18
540.142	2670.89
540.347	2646.28
540.552	2663.14
540.757	2633.88
540.962	2652.48
541.166	2580.79
541.371	2611.6
541.576	2603.66
541.781	2572.27
541.985	2654.22
542.19	2638.72
542.395	2761.95
542.599	2744.12
542.804	2725.33
543.008	2767.76
543.213	2716.61
543.418	2678.44
543.622	2685.03
543.827	2660.23
544.031	2764.47
544.236	2765.63
544.44	2748.19
544.645	2801.86
544.849	2729.2
545.054	2770.08
545.258	2843.71
545.463	2838.48
545.667	2728.24
545.872	2778.61
546.076	2775.32
546.281	2758.65
546.485	2754.78
546.689	2787.13
546.894	2806.12
547.098	2792.37
547.302	2746.45
547.507	2747.03
547.711	2780.35
547.915	2816.78
548.119	2729.79
548.324	2735.21
548.528	2813.29
548.732	2777.64
548.936	2800.89
549.141	2806.12
549.345	2769.89
549.549	2827.05
549.753	2823.75
549.957	2906.29
550.161	2898.54
550.366	2795.47
550.57	2779.19
550.774	2811.93
550.978	2787.52
551.182	2828.98
551.386	2791.78
551.59	2777.25
551.794	2772.22
551.998	2841
552.202	2799.73
552.406	2744.12
552.61	2840.22
552.814	2859.98
553.018	2884.2
553.222	2777.06
553.426	2814.26
553.63	2891.76
553.833	2779.97
554.037	2718.16
554.241	2795.27
554.445	2803.22
554.649	2830.15
554.853	2757.49
555.056	2864.83
555.26	2840.22
555.464	2823.56
555.668	2822.78
555.871	2833.83
556.075	2846.03
556.279	2782.87
556.483	2772.99
556.686	2779.19
556.89	2779
557.094	2802.83
557.297	2695.69
557.501	2778.22
557.704	2655.97
557.908	2752.07
558.112	2665.07
558.315	2808.45
558.519	2752.84
558.722	2695.49
558.926	2704.79
559.129	2600.94
559.333	2561.61
559.536	2602.49
559.74	2573.82
559.943	2547.66
560.147	2565.49
560.35	2570.91
560.553	2621.87
560.757	2532.74
560.96	2645.89
561.164	2629.42
561.367	2667.59
561.57	2644.34
561.774	2669.72
561.977	2610.24
562.18	2581.18
562.384	2706.15
562.587	2603.66
562.79	2584.48
562.993	2559.48
563.197	2611.6
563.4	2667.79
563.603	2671.08
563.806	2712.74
564.009	2528.09
564.212	2612.57
564.416	2543.98
564.619	2565.49
564.822	2505.81
565.025	2644.54
565.228	2588.35
565.431	2569.36
565.634	2444.2
565.837	2521.12
566.04	2475.01
566.243	2484.31
566.446	2388.98
566.649	2509.49
566.852	2407.2
567.055	2463.77
567.258	2511.63
567.461	2561.61
567.664	2555.41
567.867	2425.02
568.07	2469.2
568.273	2494.77
568.475	2573.63
568.678	2428.12
568.881	2406.23
569.084	2438
569.287	2331.44
569.489	2341.9
569.692	2411.07
569.895	2412.23
570.098	2304.12
570.3	2316.33
570.503	2238.83
570.706	2290.75
570.909	2298.31
571.111	2234.37
571.314	2240.57
571.516	2251.81
571.719	2254.33
571.922	2254.72
572.124	2304.7
572.327	2296.95
572.529	2248.52
572.732	2202.41
572.935	2285.72
573.137	2387.43
573.34	2273.7
573.542	2315.36
573.745	2325.63
573.947	2337.45
574.15	2232.63
574.352	2290.37
574.554	2330.67
574.757	2235.34
574.959	2229.53
575.162	2198.14
575.364	2217.13
575.566	2341.9
575.769	2194.27
575.971	2221.97
576.173	2083.44
576.376	2191.94
576.578	2240.77
576.78	2270.02
576.982	2128.2
577.185	2192.14
577.387	2159.59
577.589	2151.64
577.791	2199.89
577.993	2216.36
578.196	2172.57
578.398	2144.67
578.6	2157.46
578.802	2082.86
579.004	2076.47
579.206	2090.23
579.408	2104.95
579.61	2085.19
579.812	2165.01
580.014	2080.54
580.216	2091.78
580.418	2136.53
580.62	2091.39
580.822	2085.58
581.024	2101.27
581.226	2160.94
581.428	2111.73
581.63	2215.97
581.832	2098.75
582.034	2168.31
582.236	2123.55
582.438	2141.57
582.64	2156.87
582.841	2169.08
583.043	2209.57
583.245	2109.02
583.447	2168.11
583.649	2122.19
583.85	2116.58
584.052	2146.99
584.254	2098.36
584.456	2121.23
584.657	2046.44
584.859	2109.02
585.061	2054.96
585.262	2103.4
585.464	2021.25
585.666	2093.52
585.867	2024.16
586.069	2094.88
586.27	2067.17
586.472	2020.86
586.674	2037.72
586.875	2004.01
587.077	2042.37
587.278	2044.7
587.48	2049.35
587.681	2160.17
587.883	2062.13
588.084	1954.02
588.285	1998.58
588.487	2000.91
588.688	2029.2
588.89	1865.09
589.091	1873.81
589.292	1881.95
589.494	1812.39
589.695	1794.57
589.896	1766.47
590.098	1725.4
590.299	1808.71
590.5	1731.41
590.702	1806.97
590.903	1835.84
591.104	1933.87
591.305	1903.84
591.507	1964.1
591.708	1888.34
591.909	1858.89
592.11	1968.17
592.311	1932.52
592.512	1881.75
592.714	1819.37
592.915	1822.08
593.116	1858.12
593.317	1903.26
593.518	1899.58
593.719	1870.13
593.92	1929.8
594.121	1938.13
594.322	1900.74
594.523	1908.68
594.724	1814.14
594.925	1854.82
595.126	1884.66
595.327	1903.45
595.528	1892.8
595.729	1861.99
595.929	1824.79
596.13	1833.9
596.331	1917.79
596.532	1891.63
596.733	1936.78
596.934	1883.3
597.135	1935.62
597.335	1913.53
597.536	1864.7
597.737	1877.3
597.938	1845.72
598.138	1906.55
598.339	1905.97
598.54	1883.89
598.74	1858.5
598.941	1861.02
599.142	1921.67
599.342	1893.57
599.543	1813.55
599.744	1835.45
599.944	1863.15
600.145	1855.21
600.345	1854.24
600.546	1939.88
600.746	1929.42
600.947	1950.53
601.147	1854.44
601.348	1908.88
601.548	1804.45
601.749	1837.19
601.949	1781.78
602.15	1807.94
602.35	1817.82
602.551	1859.28
602.751	1825.95
602.951	1777.71
603.152	1756.21
603.352	1848.43
603.552	1831.96
603.753	1881.17
603.953	1884.66
604.153	1838.16
604.354	1854.05
604.554	1814.91
604.754	1837
604.954	1801.54
605.155	1830.8
605.355	1845.91
605.555	1845.91
605.755	1877.1
605.955	1836.42
606.155	1873.04
606.356	1845.72
606.556	1868.19
606.756	1842.62
606.956	1783.33
607.156	1931.55
607.356	1784.69
607.556	1811.62
607.756	1823.63
607.956	1861.99
608.156	1810.26
608.356	1799.02
608.556	1825.18
608.756	1769.38
608.956	1735.67
609.156	1775.58
609.356	1753.3
609.556	1713.97
609.755	1783.72
609.955	1730.82
610.155	1746.71
610.355	1783.52
610.555	1727.53
610.755	1747.68
610.954	1662.43
611.154	1721.52
611.354	1762.02
611.554	1687.43
611.753	1734.7
611.953	1670.96
612.153	1763.76
612.352	1701.76
612.552	1681.23
612.752	1620.39
612.951	1691.11
613.151	1681.61
613.351	1661.46
613.55	1711.64
613.75	1676.19
613.949	1670.18
614.149	1669.79
614.348	1679.48
614.548	1614.19
614.747	1604.89
614.947	1632.79
615.146	1582.03
615.346	1702.93
615.545	1656.04
615.745	1667.86
615.944	1654.49
616.144	1622.91
616.343	1648.48
616.542	1656.62
616.742	1587.65
616.941	1622.71
617.14	1538.05
617.34	1593.26
617.539	1582.61
617.738	1569.82
617.938	1670.96
618.137	1590.75
618.336	1541.73
618.535	1600.82
618.734	1583.19
618.934	1624.26
619.133	1629.3
619.332	1633.56
619.531	1566.33
619.73	1559.36
619.929	1606.63
620.128	1605.28
620.328	1619.42
620.527	1549.09
620.726	1600.82
620.925	1583.96
621.124	1593.46
621.323	1595.98
621.522	1538.43
621.721	1578.54
621.92	1517.32
622.119	1571.37
622.318	1514.99
622.517	1555.1
622.715	1522.35
622.914	1480.7
623.113	1523.13
623.312	1449.31
623.511	1533.2
623.71	1526.42
623.909	1501.82
624.107	1590.94
624.306	1467.33
624.505	1477.02
624.704	1480.7
624.902	1454.15
625.101	1535.92
625.3	1465.78
625.499	1449.89
625.697	1461.52
625.896	1400.68
626.095	1491.35
626.293	1448.92
626.492	1420.25
626.69	1479.53
626.889	1437.88
627.088	1511.89
627.286	1445.63
627.485	1439.82
627.683	1417.34
627.882	1472.75
628.08	1388.67
628.279	1422.77
628.477	1511.31
628.676	1392.54
628.874	1461.32
629.073	1409.98
629.271	1411.34
629.469	1428
629.668	1425.09
629.866	1397
630.065	1422.19
630.263	1398.16
630.461	1367.94
630.66	1422.77
630.858	1446.02
631.056	1442.14
631.254	1505.3
631.453	1363.87
631.651	1429.35
631.849	1405.52
632.047	1419.09
632.245	1375.3
632.444	1409.79
632.642	1413.66
632.84	1434
633.038	1367.16
633.236	1371.23
633.434	1332.09
633.632	1358.44
633.83	1350.5
634.028	1434.2
634.227	1373.36
634.425	1492.32
634.623	1416.95
634.821	1385.76
635.019	1406.1
635.216	1384.4
635.414	1420.05
635.612	1408.62
635.81	1359.41
636.008	1430.32
636.206	1377.04
636.404	1420.83
636.602	1343.72
636.8	1383.44
636.997	1431.87
637.195	1409.59
637.393	1375.69
637.591	1448.34
637.789	1412.89
637.986	1377.04
638.184	1423.93
638.382	1430.9
638.58	1427.42
638.777	1433.42
638.975	1395.25
639.173	1407.85
639.37	1397.58
639.568	1409.4
639.765	1391.77
639.963	1376.27
640.161	1428.19
640.358	1427.03
640.556	1316.98
640.753	1339.46
640.951	1318.92
641.148	1336.36
641.346	1322.02
641.543	1354.76
641.741	1370.65
641.938	1302.64
642.136	1348.37
642.333	1292.18
642.531	1371.42
642.728	1393.32
642.925	1343.14
643.123	1332.48
643.32	1318.72
643.517	1313.11
643.715	1324.34
643.912	1316.98
644.109	1323.57
644.306	1305.55
644.504	1268.93
644.701	1308.65
644.898	1338.1
645.095	1321.05
645.293	1292.76
645.49	1324.54
645.687	1329.19
645.884	1337.91
646.081	1227.08
646.278	1266.03
646.475	1254.59
646.672	1247.23
646.87	1286.37
647.067	1256.34
647.264	1233.67
647.461	1209.64
647.658	1207.32
647.855	1287.53
648.052	1216.43
648.249	1138.73
648.446	1222.63
648.642	1238.71
648.839	1183.49
649.036	1223.21
649.233	1154.81
649.43	1193.76
649.627	1171.09
649.824	1187.36
650.021	1157.91
650.217	1141.45
650.414	1155.4
650.611	1177.29
650.808	1212.55
651.004	1181.16
651.201	1237.54
651.398	1293.73
651.595	1176.51
651.791	1196.28
651.988	1227.08
652.185	1157.14
652.381	1225.53
652.578	1160.63
652.775	1180.2
652.971	1195.31
653.168	1168.57
653.364	1202.28
653.561	1135.25
653.757	1183.68
653.954	1222.43
654.15	1148.23
654.347	1264.67
654.543	1184.07
654.74	1121.68
654.936	1111.8
655.133	1164.31
655.329	1149.58
655.525	1135.25
655.722	1172.45
655.918	1104.05
656.115	1143
656.311	1022.29
656.507	1004.85
656.704	954.29
656.9	971.34
657.096	1000.4
657.292	1013.77
657.489	1079.83
657.685	1073.83
657.881	1018.42
658.077	1082.35
658.273	1036.63
658.47	1151.91
658.666	1067.24
658.862	1121.49
659.058	1091.85
659.254	1159.27
659.45	1080.03
659.646	1107.15
659.842	1113.55
660.038	1162.18
660.234	1053.48
660.43	1086.62
660.626	1143.38
660.822	1149.39
661.018	1145.51
661.214	1120.52
661.41	1058.52
661.606	1151.91
661.802	1179.61
661.998	1098.82
662.194	1067.63
662.39	1160.05
662.586	1122.26
662.781	1095.72
662.977	1109.86
663.173	1147.06
663.369	1098.24
663.564	1127.5
663.76	1152.49
663.956	1053.87
664.152	1145.51
664.347	1031.2
664.543	1072.86
664.739	1055.42
664.934	1014.35
665.13	999.62
665.326	1085.84
665.521	1079.25
665.717	1059.3
665.912	1011.64
666.108	969.01
666.304	1033.14
666.499	1033.33
666.695	976.37
666.89	1044.57
667.086	1069.37
667.281	1058.91
667.477	1109.09
667.672	1056.97
667.867	1040.7
668.063	1080.03
668.258	1002.34
668.454	1055.03
668.649	1144.35
668.844	1055.23
669.04	1067.82
669.235	1049.22
669.43	999.82
669.626	1010.47
669.821	987.22
670.016	969.98
670.211	1017.83
670.407	1012.41
670.602	1056.97
670.797	1013.38
670.992	1035.08
671.187	962.04
671.382	1044.38
671.578	980.44
671.773	1041.08
671.968	956.8
672.163	1015.32
672.358	1046.7
672.553	957.97
672.748	1000.98
672.943	1095.53
673.138	1004.66
673.333	1018.8
673.528	991.87
673.723	1010.28
673.918	988.19
674.113	957.58
674.308	1069.95
674.503	1009.89
674.698	1037.4
674.892	996.52
675.087	1025.2
675.282	1035.27
675.477	973.47
675.672	1010.67
675.867	971.92
676.061	954.48
676.256	939.75
676.451	947.89
676.646	971.72
676.84	925.03
677.035	935.49
677.23	950.6
677.424	983.74
677.619	1007.95
677.814	998.46
678.008	1021.32
678.203	890.54
678.397	952.35
678.592	994.39
678.787	1045.54
678.981	965.72
679.176	996.52
679.37	989.94
679.565	913.21
679.759	969.4
679.954	996.91
680.148	1045.35
680.342	1036.63
680.537	967.65
680.731	945.57
680.926	969.79
681.12	978.5
681.314	921.54
681.509	938.79
681.703	942.66
681.897	991.68
682.092	944.6
682.286	938.98
682.48	1025
682.674	1008.34
682.869	960.1
683.063	966.1
683.257	1015.12
683.451	933.36
683.645	994.2
683.839	947.7
684.034	916.89
684.228	972.69
684.422	906.04
684.616	938.4
684.81	951.19
685.004	937.62
685.198	950.02
685.392	1001.37
685.586	931.62
685.78	980.83
685.974	957
686.168	976.18
686.362	1028.88
686.556	907.01
686.75	906.04
686.944	918.25
687.138	927.55
687.331	792.12
687.525	824.48
687.719	741.75
687.913	824.09
688.107	789.41
688.301	757.05
688.494	835.71
688.688	791.15
688.882	750.85
689.076	733.41
689.269	791.15
689.463	899.84
689.657	826.41
689.85	816.73
690.044	842.69
690.238	838.04
690.431	844.04
690.625	832.81
690.818	874.66
691.012	845.59
691.205	898.1
691.399	861.09
691.593	889.38
691.786	934.72
691.98	927.16
692.173	963.2
692.366	937.62
692.56	950.41
692.753	993.62
692.947	914.76
693.14	969.59
693.333	976.95
693.527	899.07
693.72	946.15
693.914	918.83
694.107	917.28
694.3	927.94
694.493	919.61
694.687	966.3
694.88	942.66
695.073	1005.44
695.266	963
695.46	970.56
695.653	1006.79
695.846	1012.6
696.039	960.1
696.232	984.12
696.425	1020.55
696.618	1033.33
696.812	1033.14
697.005	1091.46
697.198	1136.6
697.391	1086.03
697.584	1118.39
697.777	1159.27
697.97	1132.53
698.163	1138.93
698.356	1090.1
698.549	1236.58
698.742	1181.94
698.935	1116.65
699.127	1179.61
699.32	1134.08
699.513	1104.25
699.706	1180.39
699.899	1189.88
700.092	1138.54
700.285	1185.43
700.477	1128.66
700.67	1218.17
700.863	1222.63
701.056	1303.03
701.248	1256.73
701.441	1271.64
701.634	1208.09
701.826	1363.48
702.019	1251.88
702.212	1290.44
702.404	1259.05
702.597	1281.72
702.79	1264.67
702.982	1322.6
703.175	1386.73
703.367	1372.59
703.56	1388.67
703.752	1469.46
703.945	1407.07
704.137	1427.61
704.33	1451.83
704.522	1481.47
704.715	1451.63
704.907	1499.49
705.1	1521.38
705.292	1568.66
705.484	1490.58
705.677	1591.71
705.869	1599.27
706.061	1638.99
706.254	1691.11
706.446	1598.3
706.638	1620
706.831	1700.41
707.023	1671.54
707.215	1723.27
707.407	1756.21
707.599	1709.9
707.792	1813.75
707.984	1761.05
708.176	1796.51
708.368	1813.75
708.56	1813.36
708.752	1826.73
708.944	1821.69
709.136	1902.29
709.329	1860.05
709.521	1999.16
709.713	1939.49
709.905	1957.9
710.097	2030.16
710.289	1979.4
710.481	1975.33
710.672	1998.58
710.864	2032.1
711.056	2088.29
711.248	2116.58
711.44	2097.78
711.632	2067.36
711.824	2132.85
712.016	2206.28
712.207	2192.33
712.399	2194.66
712.591	2261.89
712.783	2232.05
712.975	2275.45
713.166	2193.49
713.358	2250.45
713.55	2318.46
713.741	2336.67
713.933	2314.59
714.125	2318.65
714.316	2268.47
714.508	2421.15
714.7	2442.46
714.891	2398.48
715.083	2475.78
715.274	2407
715.466	2459.31
715.657	2501.55
715.849	2419.98
716.04	2499.42
716.232	2426.96
716.423	2519.76
716.615	2442.65
716.806	2404.68
716.998	2396.15
717.189	2348.49
717.381	2249.68
717.572	2200.08
717.763	2248.71
717.955	2231.47
718.146	2260.53
718.337	2186.13
718.528	2144.09
718.72	2113.86
718.911	2162.49
719.102	2100.49
719.293	2152.61
719.485	2143.51
719.676	2151.06
719.867	2093.13
720.058	2114.06
720.249	2136.14
720.44	2173.34
720.632	2213.64
720.823	2318.27
721.014	2383.37
721.205	2400.61
721.396	2507.94
721.587	2600.17
721.778	2623.81
721.969	2677.09
722.16	2745.09
722.351	2755.94
722.542	2894.08
722.733	2919.27
722.924	2868.9
723.115	2894.28
723.305	2858.43
723.496	2927.21
723.687	2766.02
723.878	2742.96
724.069	2780.93
724.26	2833.44
724.45	2779
724.641	2747.42
724.832	2781.13
725.023	2749.74
725.213	2732.69
725.404	2780.93
725.595	2785.58
725.785	2806.9
725.976	2898.93
726.167	2835.57
726.357	2820.27
726.548	3001.23
726.739	2905.51
726.929	3010.72
727.12	3011.11
727.31	3026.61
727.501	3001.23
727.691	3020.79
727.882	2989.21
728.072	3053.92
728.263	3067.68
728.453	3131.81
728.644	3143.05
728.834	3129.29
729.024	3094.61
729.215	3123.87
729.405	3111.66
729.596	3185.87
729.786	3221.13
729.976	3211.83
730.167	3242.44
730.357	3188
730.547	3270.73
730.737	3275.18
730.928	3288.16
731.118	3385.04
731.308	3351.71
731.498	3364.89
731.688	3462.54
731.879	3465.44
732.069	3489.66
732.259	3546.04
732.449	3596.8
732.639	3653.77
732.829	3681.28
733.019	3724.68
733.209	3791.71
733.399	3766.33
733.589	3869.02
733.779	3877.16
733.969	3854.1
734.159	4003.09
734.349	4035.06
734.539	4048.43
734.729	4042.04
734.919	4068.58
735.109	4156.15
735.299	4092.41
735.488	4106.17
735.678	4133.1
735.868	4130.77
736.058	4113.92
736.248	4076.91
736.437	4066.64
736.627	4060.25
736.817	4169.33
737.007	4159.83
737.196	4193.93
737.386	4176.11
737.576	4160.03
737.765	4215.44
737.955	4196.06
738.144	4370.82
738.334	4290.42
738.524	4232.88
738.713	4279.76
738.903	4244.89
739.092	4308.44
739.282	4313.28
739.471	4325.29
739.661	4289.64
739.85	4391.36
740.04	4353.58
740.229	4384.97
740.419	4427.59
740.608	4463.05
740.797	4407.25
740.987	4478.16
741.176	4429.34
741.365	4409.38
741.555	4319.29
741.744	4469.64
741.933	4406.09
742.123	4433.21
742.312	4524.85
742.501	4530.47
742.69	4541.9
742.88	4453.55
743.069	4619.6
743.258	4524.85
743.447	4588.6
743.636	4591.7
743.825	4523.88
744.014	4530.47
744.204	4586.85
744.393	4496.18
744.582	4633.93
744.771	4650.98
744.96	4595.18
745.149	4618.05
745.338	4541.52
745.527	4673.07
745.716	4617.08
745.905	4560.89
746.094	4669.58
746.283	4619.4
746.471	4621.15
746.66	4749.6
746.849	4723.44
747.038	4708.14
747.227	4648.08
747.416	4657.76
747.604	4684.69
747.793	4644.59
747.982	4671.91
748.171	4750.38
748.359	4726.93
748.548	4669.58
748.737	4669.39
748.926	4635.1
749.114	4535.9
749.303	4659.31
749.491	4629.67
749.68	4581.82
749.869	4716.08
750.057	4645.36
750.246	4587.24
750.434	4605.06
750.623	4646.72
750.811	4590.92
751	4673.07
751.188	4615.72
751.377	4629.09
751.565	4600.61
751.754	4578.13
751.942	4540.35
752.131	4653.31
752.319	4532.02
752.507	4529.31
752.696	4607
752.884	4596.93
753.072	4544.23
753.261	4599.25
753.449	4579.49
753.637	4524.08
753.825	4670.36
754.014	4581.23
754.202	4563.8
754.39	4603.51
754.578	4616.11
754.766	4528.53
754.955	4509.55
755.143	4610.68
755.331	4529.89
755.519	4550.23
755.707	4545
755.895	4477.97
756.083	4515.55
756.271	4445.42
756.459	4510.52
756.647	4535.9
756.835	4455.69
757.023	4497.92
757.211	4453.75
757.399	4431.08
757.587	4443.09
757.775	4372.57
757.963	4456.85
758.151	4446.77
758.339	4346.02
758.526	4393.69
758.714	4421
758.902	4295.07
759.09	4212.73
759.278	4032.74
759.465	3776.41
759.653	3390.66
759.841	3105.66
760.028	2769.5
760.216	2453.5
760.404	2266.54
760.591	1932.13
760.779	1682.78
760.967	1540.56
761.154	1344.49
761.342	1413.66
761.529	1417.34
761.717	1490.58
761.905	1524.68
762.092	1621.16
762.28	1558
762.467	1658.36
762.655	1564.01
762.842	1584.74
763.029	1616.51
763.217	1701.57
763.404	1660.11
763.592	1680.45
763.779	1661.85
763.966	1716.1
764.154	1778.1
764.341	1850.17
764.528	1812.59
764.716	1948.79
764.903	2017.38
765.09	2098.94
765.277	2096.23
765.465	2285.72
765.652	2346.75
765.839	2440.13
766.026	2625.94
766.213	2630.01
766.4	2718.35
766.588	2925.66
766.775	2917.33
766.962	3055.86
767.149	3100.81
767.336	3312.38
767.523	3243.22
767.71	3427.08
767.897	3505.94
768.084	3580.72
768.271	3626.64
768.458	3653.38
768.645	3749.86
768.832	3696.97
769.019	3719.83
769.206	3766.14
769.392	3844.22
769.579	3933.34
769.766	3917.07
769.953	3861.27
770.14	3935.09
770.327	3916.49
770.513	3917.26
770.7	4001.15
770.887	3887.23
771.073	3960.66
771.26	3997.47
771.447	3915.91
771.634	3906.22
771.82	4037.77
772.007	3872.89
772.193	3954.46
772.38	3970.74
772.567	3963.96
772.753	3915.91
772.94	3957.37
773.126	3950.78
773.313	3993.6
773.499	4024.6
773.686	3988.95
773.872	3900.79
774.059	3955.24
774.245	3891.88
774.432	3891.88
774.618	3797.33
774.804	3884.52
774.991	3808.18
775.177	3882
775.363	3896.14
775.55	3914.16
775.736	3825.62
775.922	3846.35
776.109	3819.23
776.295	3875.22
776.481	3827.75
776.667	3848.29
776.853	3845.38
777.04	3767.88
777.226	3849.84
777.412	3875.22
777.598	3786.48
777.784	3735.33
777.97	3734.56
778.156	3761.88
778.342	3760.91
778.528	3717.7
778.715	3679.53
778.901	3679.34
779.087	3765.36
779.272	3684.96
779.458	3689.42
779.644	3694.65
779.83	3657.83
780.016	3794.62
780.202	3719.25
780.388	3662.29
780.574	3630.9
780.76	3661.9
780.946	3671.98
781.131	3685.73
781.317	3636.72
781.503	3633.23
781.689	3639.04
781.874	3774.47
782.06	3605.72
782.246	3641.95
782.432	3645.63
782.617	3636.13
782.803	3649.7
782.989	3556.7
783.174	3543.72
783.36	3468.93
783.545	3543.33
783.731	3534.22
783.916	3473.19
784.102	3563.67
784.288	3488.89
784.473	3509.42
784.659	3459.44
784.844	3534.81
785.029	3435.99
785.215	3442.39
785.4	3401.89
785.586	3557.28
785.771	3395.5
785.956	3448.2
786.142	3420.49
786.327	3371.09
786.512	3448.59
786.698	3390.08
786.883	3326.33
787.068	3430.76
787.254	3380.78
787.439	3385.04
787.624	3347.84
787.809	3320.71
787.994	3332.15
788.18	3376.51
788.365	3271.7
788.55	3305.99
788.735	3318.97
788.92	3295.14
789.105	3259.88
789.29	3312.77
789.475	3203.88
789.66	3282.93
789.845	3238.37
790.03	3203.69
790.215	3263.95
790.4	3273.63
790.585	3269.37
790.77	3220.74
790.955	3182.77
791.14	3185.29
791.325	3246.9
791.51	3065.74
791.695	3164.75
791.879	3186.06
792.064	3154.48
792.249	3253.48
792.434	3140.92
792.618	3157.19
792.803	3242.83
792.988	3156.8
793.173	3188.77
793.357	3212.8
793.542	3142.08
793.727	3185.48
793.911	3190.32
794.096	3193.62
794.281	3211.25
794.465	3274.8
794.65	3194.39
794.834	3235.08
795.019	3260.27
795.203	3263.95
795.388	3214.54
795.572	3281
795.757	3223.26
795.941	3221.71
796.126	3250.77
796.31	3187.22
796.494	3233.92
796.679	3201.17
796.863	3144.79
797.048	3281.38
797.232	3218.03
797.416	3254.45
797.601	3244.96
797.785	3308.7
797.969	3287.2
798.153	3208.15
798.338	3278.48
798.522	3285.65
798.706	3295.72
798.89	3280.42
799.074	3367.21
799.258	3319.55
799.443	3286.03
799.627	3306.76
799.811	3315.1
799.995	3258.72
800.179	3224.81
800.363	3260.46
800.547	3270.34
800.731	3333.7
800.915	3181.6
801.099	3225.39
801.283	3263.75
801.467	3224.81
801.651	3235.27
801.835	3309.28
802.019	3263.75
802.202	3267.43
802.386	3209.7
802.57	3199.23
802.754	3182.96
802.938	3194.59
803.121	3195.17
803.305	3261.04
803.489	3223.07
803.673	3271.31
803.856	3220.74
804.04	3223.45
804.224	3264.53
804.407	3213.96
804.591	3240.7
804.775	3248.45
804.958	3216.09
805.142	3342.22
805.326	3228.88
805.509	3274.22
805.693	3262.2
805.876	3211.83
806.06	3235.85
806.243	3275.57
806.427	3319.75
806.61	3302.11
806.794	3265.11
806.977	3296.5
807.16	3252.13
807.344	3278.87
807.527	3257.17
807.71	3206.79
807.894	3252.71
808.077	3262.78
808.26	3211.44
808.444	3173.08
808.627	3256.39
808.81	3171.53
808.993	3122.32
809.177	3131.42
809.36	3130.84
809.543	3132.97
809.726	3055.28
809.909	3031.06
810.092	3070.59
810.276	3079.69
810.459	3056.06
810.642	2991.54
810.825	3027.19
811.008	3018.66
811.191	2924.5
811.374	2913.07
811.557	2946.01
811.74	3050.05
811.923	2885.56
812.106	2890.6
812.289	2847.39
812.472	2888.66
812.654	2893.7
812.837	2824.53
813.02	2789.27
813.203	2741.41
813.386	2662.94
813.569	2670.89
813.751	2596.49
813.934	2622.45
814.117	2571.11
814.3	2534.68
814.482	2490.7
814.665	2458.35
814.848	2415.91
815.03	2379.88
815.213	2366.9
815.396	2351.59
815.578	2319.43
815.761	2286.69
815.943	2332.8
816.126	2224.3
816.309	2171.99
816.491	2136.73
816.674	2076.66
816.856	2123.16
817.039	2131.49
817.221	2209.57
817.403	2160.75
817.586	2146.61
817.768	2172.76
817.951	2091.19
818.133	2102.82
818.315	2099.33
818.498	2155.32
818.68	2171.21
818.862	2204.34
819.045	2189.04
819.227	2146.8
819.409	2139.83
819.591	2141.38
819.774	2149.12
819.956	2119.87
820.138	2184.97
820.32	2173.92
820.502	2255.3
820.684	2323.5
820.866	2323.11
821.048	2357.02
821.231	2376.58
821.413	2373.48
821.595	2363.41
821.777	2384.33
821.959	2329.89
822.141	2423.08
822.323	2283.78
822.505	2228.37
822.686	2176.83
822.868	2096.04
823.05	1953.44
823.232	1937.55
823.414	1796.7
823.596	1913.92
823.778	1896.09
823.96	1908.3
824.141	1937.75
824.323	1984.83
824.505	2049.73
824.687	2120.26
824.868	2144.48
825.05	2218.29
825.232	2267.31
825.413	2330.47
825.595	2300.83
825.777	2232.82
825.958	2280.68
826.14	2229.72
826.321	2293.47
826.503	2279.32
826.685	2299.28
826.866	2322.92
827.048	2304.32
827.229	2253.55
827.411	2199.31
827.592	2177.41
827.773	2156.87
827.955	2119.68
828.136	2095.46
828.318	2078.99
828.499	2084.8
828.68	2050.31
828.862	2070.46
829.043	2081.31
829.224	2054
829.406	2027.45
829.587	2023.58
829.768	2035.2
829.949	2042.76
830.131	2066.01
830.312	2132.66
830.493	2077.24
830.674	2071.43
830.855	2032.1
831.036	2041.6
831.218	2107.66
831.399	2140.99
831.58	2062.13
831.761	2105.14
831.942	2083.44
832.123	2041.6
832.304	2023.19
832.485	2037.91
832.666	2041.6
832.847	2086.74
833.028	2027.06
833.209	2027.65
833.389	2025.9
833.57	1973.2
833.751	1996.65
833.932	2102.82
834.113	2042.76
834.294	1991.22
834.475	2054.96
834.655	2122.39
834.836	2128.39
835.017	2065.81
835.198	1981.53
835.378	2056.9
835.559	2088.68
835.74	2094.68
835.92	2042.76
836.101	2035.98
836.281	2135.37
836.462	2124.13
836.643	2102.63
836.823	2142.15
837.004	2147.19
837.184	2173.15
837.365	2125.49
837.545	2160.36
837.726	2089.45
837.906	2121.42
838.087	2116.77
838.267	2127.04
838.448	2046.63
838.628	2112.12
838.808	2104.95
838.989	2164.24
839.169	2031.52
839.349	2130.33
839.53	2129.36
839.71	2084.03
839.89	2052.83
840.07	2156.1
840.251	2089.84
840.431	2128.2
840.611	2107.28
840.791	2045.86
840.971	2076.47
841.151	2065.43
841.332	2037.53
841.512	2119.68
841.692	2013.5
841.872	2066.78
842.052	2050.12
842.232	2085.96
842.412	1959.64
842.592	2033.65
842.772	2049.54
842.952	2034.62
843.132	2024.35
843.312	2017.57
843.492	1954.6
843.672	2045.08
843.851	1966.62
844.031	2011.56
844.211	1964.29
844.391	1986.18
844.571	2006.53
844.751	2021.83
844.93	2005.95
845.11	1961.58
845.29	2007.88
845.47	2036.56
845.649	1992.19
845.829	2024.93
846.009	1968.75
846.188	1989.86
846.368	2009.43
846.547	1969.13
846.727	2014.66
846.907	1927.67
847.086	1954.22
847.266	2023.38
847.445	1955.18
847.625	1960.22
847.804	1956.73
847.984	1975.53
848.163	1893.96
848.343	1931.55
848.522	1961.97
848.701	1956.35
848.881	1896.48
849.06	1922.05
849.239	1955.38
849.419	1908.49
849.598	1855.4
849.777	1843.78
849.957	1812
850.136	1781.01
850.315	1760.47
850.494	1783.33
850.674	1798.44
850.853	1833.7
851.032	1760.66
851.211	1874.97
851.39	1800.38
851.569	1771.12
851.748	1752.33
851.927	1856.76
852.107	1809.29
852.286	1718.62
852.465	1755.04
852.644	1859.28
852.823	1771.12
853.002	1809.68
853.181	1787.79
853.359	1786.04
853.538	1750.01
853.717	1800.38
853.896	1715.52
854.075	1622.13
854.254	1599.27
854.433	1490.38
854.611	1583.38
854.79	1527.58
854.969	1561.1
855.148	1578.54
855.327	1569.43
855.505	1589.58
855.684	1601.4
855.863	1621.16
856.041	1613.41
856.22	1657.78
856.399	1631.63
856.577	1725.59
856.756	1711.84
856.934	1828.28
857.113	1806.39
857.291	1746.71
857.47	1721.33
857.648	1723.85
857.827	1712.81
858.005	1800.77
858.184	1689.94
858.362	1784.88
858.541	1712.81
858.719	1662.82
858.898	1684.71
859.076	1682.39
859.254	1780.23
859.433	1694.4
859.611	1657.78
859.789	1608.76
859.967	1763.37
860.146	1759.5
860.324	1601.98
860.502	1642.48
860.68	1619.23
860.859	1626.2
861.037	1649.06
861.215	1667.08
861.393	1674.83
861.571	1634.14
861.749	1567.3
861.927	1645.38
862.105	1665.34
862.283	1646.54
862.461	1559.75
862.639	1562.85
862.817	1599.85
862.995	1632.4
863.173	1606.63
863.351	1604.31
863.529	1615.74
863.707	1626.59
863.885	1608.96
864.063	1533.2
864.241	1539.4
864.418	1682.19
864.596	1562.85
864.774	1514.6
864.952	1545.41
865.129	1605.66
865.307	1546.76
865.485	1487.09
865.663	1591.33
865.84	1474.88
866.018	1478.57
866.196	1377.82
866.373	1366
866.551	1335.19
866.728	1291.02
866.906	1308.07
867.084	1388.47
867.261	1380.92
867.439	1417.54
867.616	1446.02
867.794	1429.55
867.971	1438.85
868.149	1466.75
868.326	1494.65
868.503	1479.34
868.681	1441.56
868.858	1454.73
869.035	1440.98
869.213	1440.79
869.39	1416.18
869.567	1525.65
869.745	1436.72
869.922	1455.9
870.099	1438.85
870.276	1490
870.454	1476.43
870.631	1464.42
870.808	1433.62
870.985	1481.67
871.162	1510.15
871.339	1466.55
871.517	1409.59
871.694	1407.27
871.871	1417.92
872.048	1428.19
872.225	1436.14
872.402	1412.69
872.579	1380.34
872.756	1442.34
872.933	1370.26
873.11	1376.46
873.287	1434.39
873.463	1383.24
873.64	1366.19
873.817	1424.7
873.994	1422.19
874.171	1346.04
874.348	1382.66
874.524	1331.51
874.701	1374.33
874.878	1293.34
875.055	1339.65
875.231	1350.89
875.408	1381.89
875.585	1311.94
875.762	1339.07
875.938	1299.35
876.115	1318.14
876.291	1332.87
876.468	1319.69
876.645	1278.42
876.821	1285.98
876.998	1298.96
877.174	1319.31
877.351	1322.02
877.527	1261.18
877.704	1341.97
877.88	1297.22
878.057	1288.11
878.233	1318.53
878.409	1295.47
878.586	1300.51
878.762	1259.63
878.938	1272.23
879.115	1201.12
879.291	1291.41
879.467	1208.09
879.644	1246.84
879.82	1241.23
879.996	1253.24
880.172	1189.69
880.349	1261.18
880.525	1251.11
880.701	1166.44
880.877	1178.26
881.053	1240.64
881.229	1205.58
881.405	1261.18
881.581	1209.64
881.757	1199.38
881.933	1252.27
882.109	1242.58
882.285	1237.93
882.461	1176.13
882.637	1216.81
882.813	1160.63
882.989	1198.02
883.165	1315.24
883.341	1192.98
883.517	1274.55
883.693	1210.42
883.869	1236.77
884.044	1209.26
884.22	1220.88
884.396	1299.93
884.572	1232.7
884.747	1300.51
884.923	1243.55
885.099	1260.99
885.275	1257.89
885.45	1183.1
885.626	1195.11
885.801	1188.14
885.977	1198.99
886.153	1146.87
886.328	1235.99
886.504	1191.04
886.679	1180.58
886.855	1182.91
887.03	1243.55
887.206	1248.01
887.381	1259.24
887.557	1265.83
887.732	1250.53
887.908	1207.71
888.083	1245.49
888.258	1200.93
888.434	1192.98
888.609	1219.72
888.784	1248.78
888.96	1193.56
889.135	1207.13
889.31	1169.54
889.485	1215.26
889.661	1157.53
889.836	1233.09
890.011	1212.36
890.186	1220.11
890.361	1166.25
890.537	1236.58
890.712	1222.63
890.887	1236.38
891.062	1197.05
891.237	1238.13
891.412	1173.61
891.587	1218.56
891.762	1253.63
891.937	1263.51
892.112	1142.03
892.287	1177.29
892.462	1161.6
892.637	1099.6
892.812	1124.78
892.987	1140.67
893.161	1115.1
893.336	1145.51
893.511	1149.39
893.686	1150.94
893.861	1122.85
894.035	1111.61
894.21	1137.96
894.385	1066.66
894.56	1108.12
894.734	1028.1
894.909	1036.63
895.084	1032.37
895.258	1008.73
895.433	1056.58
895.608	1031.2
895.782	961.45
895.957	1003.89
896.131	997.88
896.306	914.18
896.48	926.39
896.655	933.75
896.829	876.21
897.004	846.37
897.178	849.66
897.353	871.36
897.527	915.15
897.701	862.84
897.876	837.26
898.05	910.5
898.224	913.02
898.399	947.12
898.573	857.8
898.747	744.65
898.921	820.6
899.096	717.72
899.27	723.34
899.444	710.75
899.618	748.72
899.792	782.82
899.967	763.44
900.141	805.29
900.315	737.1
900.489	748.14
900.663	779.33
900.837	798.51
901.011	727.41
901.185	838.04
901.359	795.41
901.533	813.43
901.707	784.37
901.881	804.91
902.055	715.2
902.229	757.44
902.403	839.39
902.576	751.63
902.75	790.76
902.924	914.37
903.098	818.08
903.272	856.64
903.446	930.45
903.619	911.27
903.793	934.33
903.967	929.68
904.14	947.12
904.314	948.09
904.488	946.73
904.661	960.87
904.835	921.35
905.009	999.62
905.182	1014.93
905.356	952.54
905.529	920.19
905.703	895.39
905.876	894.61
906.05	887.64
906.223	848.69
906.397	798.32
906.57	816.53
906.744	774.1
906.917	769.45
907.09	801.81
907.264	765.96
907.437	748.91
907.61	695.05
907.784	714.62
907.957	762.09
908.13	681.49
908.304	747.17
908.477	675.68
908.65	746.4
908.823	671.03
908.996	741.55
909.17	646.23
909.343	670.45
909.516	686.14
909.689	665.6
909.862	660.76
910.035	691.95
910.208	668.7
910.381	667.93
910.554	753.56
910.727	674.9
910.9	677.81
911.073	657.66
911.246	736.32
911.419	733.8
911.592	714.43
911.765	653.01
911.938	639.06
912.11	698.73
912.283	676.65
912.456	759.76
912.629	710.94
912.802	668.9
912.974	671.41
913.147	587.72
913.32	541.41
913.493	531.72
913.665	611.55
913.838	612.71
914.01	610
914.183	628.4
914.356	589.07
914.528	660.37
914.701	721.01
914.873	649.72
915.046	625.69
915.218	573.77
915.391	519.13
915.563	530.17
915.736	588.1
915.908	615.23
916.081	619.3
916.253	586.17
916.425	581.13
916.598	610
916.77	593.72
916.942	573.57
917.115	508.86
917.287	584.23
917.459	559.04
917.632	513.12
917.804	470.5
917.976	573.77
918.148	546.06
918.32	530.17
918.493	581.32
918.665	638.09
918.837	612.9
919.009	665.8
919.181	593.72
919.353	614.84
919.525	590.62
919.697	597.21
919.869	624.72
920.041	672.38
920.213	737.1
920.385	689.43
920.557	603.6
920.729	619.49
920.901	605.35
921.073	603.22
921.244	599.73
921.416	649.52
921.588	613.68
921.76	571.64
921.932	681.3
922.103	575.12
922.275	583.07
922.447	607.48
922.619	548.19
922.79	572.41
922.962	583.07
923.134	624.33
923.305	561.17
923.477	501.89
923.648	547.03
923.82	533.66
923.991	487.94
924.163	490.26
924.335	569.89
924.506	492
924.677	575.12
924.849	517.39
925.02	515.45
925.192	565.05
925.363	531.34
925.535	543.15
925.706	491.42
925.877	566.79
926.049	501.3
926.22	522.62
926.391	517.97
926.562	581.52
926.734	510.8
926.905	571.44
927.076	448.41
927.247	480.38
927.419	467.98
927.59	429.42
927.761	481.74
927.932	445.51
928.103	471.08
928.274	419.54
928.445	383.31
928.616	397.84
928.787	378.86
928.958	424
929.129	420.51
929.3	400.17
929.471	342.24
929.642	310.66
929.813	264.35
929.984	356.38
930.155	302.71
930.326	339.91
930.496	290.51
930.667	211.27
930.838	281.21
931.009	231.22
931.18	250.01
931.35	242.65
931.521	254.86
931.692	167.87
931.863	124.66
932.033	196.35
932.204	202.55
932.374	194.22
932.545	145.39
932.716	214.75
932.886	216.11
933.057	118.65
933.227	120.59
933.398	208.75
933.568	89.79
933.739	78.16
933.909	93.66
934.08	152.37
934.25	57.43
934.421	74.48
934.591	114.2
934.761	95.4
934.932	38.83
935.102	122.34
935.272	91.53
935.443	70.6
935.613	66.54
935.783	113.23
935.953	78.55
936.123	237.03
936.294	56.85
936.464	110.71
936.634	83.59
936.804	74.48
936.974	33.02
937.144	98.12
937.314	103.74
937.484	82.81
937.655	51.23
937.825	123.5
937.995	70.8
938.165	134.35
938.334	97.54
938.504	122.53
938.674	96.57
938.844	104.32
939.014	180.27
939.184	166.32
939.354	208.17
939.524	212.04
939.694	130.47
939.863	148.49
940.033	216.11
940.203	222.5
940.373	179.88
940.542	185.88
940.712	160.7
940.882	182.4
941.051	225.02
941.221	192.86
941.391	219.79
941.56	146.55
941.73	126.02
941.899	281.98
942.069	144.62
942.238	159.92
942.408	141.71
942.577	186.66
942.747	129.12
942.916	108.58
943.086	99.67
943.255	195.77
943.425	143.26
943.594	126.4
943.763	78.94
943.933	102.19
944.102	41.93
944.271	123.3
944.441	148.3
944.61	109.55
944.779	152.75
944.948	234.51
945.117	84.36
945.287	84.75
945.456	71.96
945.625	68.47
945.794	128.73
945.963	113.42
946.132	150.82
946.301	78.94
946.47	126.99
946.639	52.59
946.808	111.87
946.977	133.77
947.146	165.73
947.315	88.43
947.484	144.81
947.653	103.93
947.822	115.17
947.991	63.05
948.16	192.28
948.329	151.4
948.498	102.38
948.666	127.37
948.835	148.1
949.004	78.94
949.173	73.51
949.341	122.92
949.51	159.15
949.679	183.37
949.847	147.13
950.016	183.95
950.185	187.63
950.353	88.62
950.522	110.13
950.69	172.32
950.859	104.32
951.028	151.78
951.196	133.19
951.365	100.64
951.533	118.27
951.701	160.12
951.87	168.25
952.038	80.1
952.207	103.35
952.375	200.22
952.543	78.55
952.712	120.79
952.88	73.32
953.048	188.4
953.217	124.85
953.385	108
953.553	183.56
953.721	89.2
953.89	134.93
954.058	50.07
954.226	102.57
954.394	101.41
954.562	54.14
954.73	102.96
954.898	118.65
955.067	159.15
955.235	105.29
955.403	146.36
955.571	176.58
955.739	142.87
955.907	79.71
956.075	86.69
956.243	56.65
956.41	124.47
956.578	66.54
956.746	70.02
956.914	109.55
957.082	129.7
957.25	145.58
957.418	90.37
957.585	116.91
957.753	174.65
957.921	105.29
958.089	108.39
958.256	119.62
958.424	167.87
958.592	140.93
958.759	93.08
958.927	130.28
959.095	79.32
959.262	120.98
959.43	112.84
959.597	97.34
959.765	93.08
959.932	58.4
960.1	152.95
960.267	131.44
960.435	108.39
960.602	144.42
960.77	94.63
960.937	49.29
961.104	115.75
961.272	55.1
961.439	90.37
961.606	139
961.774	159.34
961.941	96.18
962.108	136.29
962.275	132.6
962.443	170.77
962.61	135.7
962.777	191.89
962.944	169.42
963.111	145
963.278	133.57
963.446	112.84
963.613	108.77
963.78	143.26
963.947	165.54
964.114	151.59
964.281	204.68
964.448	139.97
964.615	122.72
964.782	128.34
964.949	165.93
965.116	171.74
965.282	171.35
965.449	115.94
965.616	92.69
965.783	150.04
965.95	145.39
966.117	67.31
966.283	144.03
966.45	141.52
966.617	138.61
966.784	200.03
966.95	161.47
967.117	162.44
967.284	115.75
967.45	112.84
967.617	184.53
967.784	156.82
967.95	197.51
968.117	111.29
968.283	161.86
968.45	256.21
968.616	163.99
968.783	206.81
968.949	163.6
969.116	183.37
969.282	164.77
969.449	176.39
969.615	148.1
969.781	91.34
969.948	120.4
970.114	118.65
970.28	205.07
970.447	138.61
970.613	203.32
970.779	132.02
970.945	173.48
971.112	159.53
971.278	132.99
971.444	176.39
971.61	186.66
971.776	125.24
971.942	171.74
972.108	171.55
972.275	146.55
972.441	157.02
972.607	224.44
972.773	139.58
972.939	181.23
973.105	130.28
973.271	91.92
973.437	121.56
973.602	114.2
973.768	163.99
973.934	159.53
974.1	152.75
974.266	85.14
974.432	122.34
974.598	110.52
974.763	181.43
974.929	101.8
975.095	218.05
975.261	117.1
975.426	85.33
975.592	100.05
975.758	168.64
975.923	82.62
976.089	96.95
976.255	160.7
976.42	146.17
976.586	156.43
976.751	145.39
976.917	214.37
977.082	139.19
977.248	67.31
977.413	53.94
977.579	111.29
977.744	137.84
977.91	98.7
978.075	118.65
978.24	129.89
978.406	110.71
978.571	112.07
978.736	89.4
978.902	136.09
979.067	59.17
979.232	65.37
979.397	139.58
979.563	199.64
979.728	97.73
979.893	130.09
980.058	100.05
980.223	151.01
980.388	133.57
980.554	119.04
980.719	82.04
980.884	118.07
981.049	137.64
981.214	98.89
981.379	126.4
981.544	91.72
981.709	128.34
981.874	113.81
982.039	114.39
982.204	165.15
982.368	126.99
982.533	93.66
982.698	161.47
982.863	154.3
983.028	82.62
983.193	129.7
983.357	145.2
983.522	127.76
983.687	93.85
983.852	118.46
984.016	103.54
984.181	159.34
984.346	153.14
984.51	136.09
984.675	98.5
984.839	152.95
985.004	125.05
985.168	138.22
985.333	112.84
985.498	112.65
985.662	147.91
985.827	142.68
985.991	132.22
986.155	109.16
986.32	148.68
986.484	173.1
986.649	143.26
986.813	67.89
986.977	121.17
987.142	141.71
987.306	66.92
987.47	83.39
987.634	97.15
987.799	115.55
987.963	117.69
988.127	163.22
988.291	201.58
988.455	131.25
988.62	76.61
988.784	154.88
988.948	126.21
989.112	89.59
989.276	121.75
989.44	110.9
989.604	81.26
989.768	88.43
989.932	206.03
990.096	71.96
990.26	54.33
990.424	45.22
990.588	101.22
990.752	182.2
990.915	139.38
991.079	95.6
991.243	93.08
991.407	140.16
991.571	91.34
991.734	117.69
991.898	148.88
992.062	194.6
992.226	101.8
992.389	64.21
992.553	55.1
992.717	68.09
992.88	80.1
993.044	103.35
993.207	116.52
993.371	125.63
993.535	128.15
993.698	108.19
993.862	156.63
994.025	120.98
994.189	99.47
994.352	101.99
994.515	109.35
994.679	151.78
994.842	93.47
995.006	116.72
995.169	63.24
995.332	76.61
995.496	143.65
995.659	47.16
995.822	91.53
995.985	73.12
996.149	125.24
996.312	88.04
996.475	154.69
996.638	70.02
996.801	137.64
996.964	174.26
997.128	95.4
997.291	97.92
997.454	88.43
997.617	39.41
997.78	135.9
997.943	55.1
998.106	117.1
998.269	57.43
998.432	81.07
998.595	101.6
998.758	38.25
998.92	59.17
999.083	35.15
999.246	74.29
999.409	41.35
999.572	28.37
999.735	79.32
999.897	108.97
1000.06	63.05
1000.223	93.27
1000.386	100.44
1000.548	96.76
1000.711	84.36
1000.874	69.64
1001.036	30.89
1001.199	112.65
1001.361	65.18
1001.524	80.29
1001.687	104.51
1001.849	45.22
1002.012	108.19
1002.174	88.43
1002.337	95.21
1002.499	72.35
1002.661	98.7
1002.824	43.09
1002.986	26.04
1003.149	106.45
1003.311	48.52
1003.473	132.8
1003.636	38.64
1003.798	89.98
1003.96	105.87
1004.123	79.13
1004.285	45.03
1004.447	63.05
1004.609	67.5
1004.771	112.45
1004.933	37.86
1005.096	37.86
1005.258	11.71
1005.42	61.89
1005.582	102.38
1005.744	88.62
1005.906	10.16
1006.068	51.42
1006.23	47.16
1006.392	20.81
1006.554	18.87
1006.716	126.4
1006.878	122.53
1007.04	14.61
1007.202	50.84
1007.363	64.79
1007.525	85.52
1007.687	103.74
1007.849	129.12
1008.011	-12.13
1008.172	27.98
1008.334	58.98
1008.496	87.27
1008.658	-3.21
1008.819	54.72
1008.981	14.81
1009.143	25.46
1009.304	51.42
1009.466	88.62
1009.627	83.2
1009.789	165.15
1009.95	79.32
1010.112	35.73
1010.273	64.99
1010.435	39.02
1010.596	57.04
1010.758	25.66
1010.919	49.68
1011.081	28.76
1011.242	38.25
1011.403	79.52
1011.565	45.42
1011.726	73.12
1011.887	14.42
1012.049	28.17
1012.21	79.71
1012.371	96.57
1012.532	4.34
1012.693	55.88
1012.855	33.21
1013.016	7.64
1013.177	100.44
1013.338	51.04
1013.499	120.2
1013.66	102.57
1013.821	77.77
1013.982	54.33
1014.143	56.27
1014.304	15.39
1014.465	49.87
1014.626	69.05
1014.787	38.25
1014.948	141.13
1015.109	-14.26
1015.27	87.65
1015.431	29.14
1015.592	16.94
1015.752	91.53
1015.913	39.99
1016.074	62.27
1016.235	56.07
1016.395	20.42
1016.556	24.3
1016.717	43.48
1016.877	88.43
1017.038	28.17
1017.199	48.71
1017.359	64.4
1017.52	52.78
1017.681	13.06
1017.841	24.49
1018.002	23.52
1018.162	18.29
1018.323	81.84
1018.483	41.35
1018.644	28.76
1018.804	-22.2
1018.964	-9.99
1019.125	17.71
1019.285	46.19
1019.446	-8.06
1019.606	-6.51
1019.766	-35.76
1019.926	64.99
1020.087	54.72
1020.247	-3.21
1020.407	62.66
1020.567	77.58
1020.728	70.02
1020.888	-4.57
1021.048	37.47
1021.208	31.86
1021.368	29.92
1021.528	118.85
1021.688	91.72
1021.848	59.75
1022.008	42.71
1022.168	19.46
1022.328	37.47
1022.488	54.52
1022.648	10.35
1022.808	37.47
1022.968	69.44
1023.128	-5.93
1023.288	-14.06
1023.448	13.45
1023.608	62.47
1023.767	58.98
1023.927	-15.03
1024.087	16.74
1024.247	-18.13
1024.406	34.37
1024.566	-15.23
1024.726	9.96
1024.885	19.84
1025.045	49.29
1025.205	37.47
1025.364	35.73
1025.524	25.85
1025.683	37.86
1025.843	51.42
1026.003	25.07
1026.162	81.65
1026.321	64.4
1026.481	34.37
1026.64	12.87
1026.8	34.18
1026.959	23.14
1027.119	40.19
1027.278	16.94
1027.437	8.02
1027.597	47.36
1027.756	33.79
1027.915	46.77
1028.074	62.27
1028.234	-1.28
1028.393	36.31
1028.552	31.27
1028.711	-57.66
1028.87	51.62
1029.03	-21.43
1029.189	14.81
1029.348	-49.32
1029.507	3.96
1029.666	21.78
1029.825	4.92
1029.984	3.96
1030.143	6.86
1030.302	10.93
1030.461	-40.99
1030.62	17.32
1030.779	66.92
1030.938	-11.16
1031.097	-14.84
1031.255	40.19
1031.414	100.05
1031.573	47.16
1031.732	-38.47
1031.891	0.86
1032.049	76.03
1032.208	52.97
1032.367	14.61
1032.525	9.38
1032.684	12.09
1032.843	12.29
1033.001	-40.02
1033.16	167.09
1033.319	69.44
1033.477	40.77
1033.636	-9.03
1033.794	-36.92
1033.953	43.87
1034.111	41.54
1034.27	4.15
1034.428	14.03
1034.587	-7.28
1034.745	61.3
1034.903	28.76
1035.062	26.04
1035.22	-26.27
1035.378	39.99
1035.537	25.46
1035.695	57.04
1035.853	24.69
1036.011	44.26
1036.17	30.5
1036.328	-31.31
1036.486	12.29
1036.644	28.37
1036.802	-79.94
1036.96	10.74
1037.119	25.46
1037.277	19.65
1037.435	-14.26
1037.593	-9.03
1037.751	28.76
1037.909	52.39
1038.067	52.39
