Data from gum_old_FLMT105791__155__15-47-42-250.txt Node

Date: Mon Mar 20 15:47:42 GMT 2023
User: antho
Spectrometer: FLMT10579
Trigger mode: 0
Integration Time (sec): 1.000000E-1
Scans to average: 10
Electric dark correction enabled: true
Nonlinearity correction enabled: false
Boxcar width: 0
XAxis mode: Wavelengths
Number of Pixels in Spectrum: 3648
>>>>>Begin Spectral Data<<<<<
345.248	-179.54
345.464	-179.54
345.681	-179.54
345.898	-185.55
346.114	-173.73
346.331	-26.48
346.548	30.48
346.764	-16.6
346.981	-9.82
347.197	-8.65
347.414	5.88
347.631	-6.91
347.847	69.81
348.064	20.8
348.28	3.16
348.497	-55.15
348.713	-6.52
348.93	10.72
349.146	2.2
349.363	-8.85
349.579	-1.68
349.796	2.2
350.012	12.27
350.229	51.41
350.445	28.74
350.661	-31.32
350.878	0.26
351.094	22.93
351.311	58
351.527	29.32
351.743	-2.26
351.96	30.68
352.176	65.55
352.392	17.31
352.609	23.9
352.825	14.6
353.041	20.21
353.257	6.07
353.474	18.47
353.69	26.22
353.906	13.63
354.122	2
354.339	51.6
354.555	16.34
354.771	-12.14
354.987	95.78
355.203	62.26
355.42	3.36
355.636	-5.75
355.852	4.71
356.068	44.43
356.284	-15.82
356.5	64.78
356.716	47.92
356.932	4.52
357.148	37.07
357.364	4.91
357.58	64.97
357.796	79.69
358.012	53.15
358.228	34.55
358.444	-45.08
358.66	65.74
358.876	15.76
359.092	-30.74
359.308	32.23
359.524	48.31
359.74	33.39
359.956	-1.29
360.172	32.61
360.388	55.09
360.604	9.56
360.819	112.44
361.035	28.35
361.251	75.63
361.467	7.04
361.683	88.22
361.898	55.67
362.114	66.33
362.33	32.23
362.546	76.4
362.762	6.07
362.977	21.18
363.193	15.18
363.409	47.92
363.624	5.3
363.84	-11.56
364.056	12.66
364.271	30.29
364.487	60.32
364.703	25.06
364.918	20.8
365.134	33
365.35	15.95
365.565	133.75
365.781	42.3
365.996	51.8
366.212	110.11
366.427	74.66
366.643	21.18
366.858	42.69
367.074	15.76
367.289	115.73
367.505	144.41
367.72	7.62
367.936	36.49
368.151	80.66
368.367	72.91
368.582	83.38
368.798	41.14
369.013	99.07
369.228	59.54
369.444	53.93
369.659	105.27
369.874	77.76
370.09	83.57
370.305	-0.9
370.52	30.68
370.736	68.46
370.951	65.55
371.166	92.09
371.381	124.06
371.597	100.43
371.812	12.08
372.027	20.99
372.242	43.27
372.458	131.04
372.673	48.7
372.888	37.07
373.103	67.29
373.318	135.69
373.533	79.11
373.749	66.13
373.964	2.58
374.179	91.51
374.394	26.41
374.609	89.96
374.824	11.5
375.039	105.85
375.254	28.16
375.469	111.66
375.684	65.74
375.899	88.99
376.114	47.92
376.329	48.5
376.544	94.03
376.759	93.84
376.974	51.8
377.189	62.45
377.404	31.26
377.619	77.18
377.834	4.52
378.049	15.76
378.264	30.48
378.478	83.38
378.693	71.17
378.908	105.46
379.123	56.45
379.338	137.43
379.553	63.42
379.767	57.03
379.982	91.71
380.197	92.87
380.412	49.86
380.626	95.39
380.841	147.12
381.056	109.14
381.271	146.54
381.485	32.42
381.7	45.98
381.915	99.07
382.129	39.01
382.344	49.86
382.559	49.86
382.773	115.93
382.988	6.85
383.202	45.6
383.417	7.04
383.632	193.23
383.846	37.07
384.061	66.33
384.275	47.15
384.49	81.24
384.704	94.23
384.919	89.96
385.133	88.22
385.348	92.09
385.562	28.35
385.777	100.43
385.991	86.09
386.206	74.85
386.42	51.99
386.634	135.11
386.849	101.59
387.063	78.73
387.277	57.8
387.492	58
387.706	73.3
387.92	31.06
388.135	111.66
388.349	95.39
388.563	81.44
388.778	66.71
388.992	104.3
389.206	125.23
389.42	174.05
389.635	76.21
389.849	130.65
390.063	137.43
390.277	114.38
390.491	157.19
390.706	115.73
390.92	146.15
391.134	112.05
391.348	130.46
391.562	58.19
391.776	100.04
391.99	85.89
392.205	152.16
392.419	91.51
392.633	96.94
392.847	134.33
393.061	77.95
393.275	166.69
393.489	82.21
393.703	96.94
393.917	93.84
394.131	50.05
394.345	93.26
394.559	128.33
394.773	91.71
394.986	139.76
395.2	126.19
395.414	142.66
395.628	88.03
395.842	129.68
396.056	104.3
396.27	65.16
396.484	117.86
396.697	118.25
396.911	147.12
397.125	123.29
397.339	113.41
397.553	118.25
397.766	179.47
397.98	148.09
398.194	180.44
398.408	126.78
398.621	186.06
398.835	178.7
399.049	161.07
399.262	191.1
399.476	187.03
399.69	222.1
399.903	237.02
400.117	192.46
400.331	209.12
400.544	158.16
400.758	302.7
400.971	237.99
401.185	202.14
401.398	171.34
401.612	250.19
401.826	233.72
402.039	247.48
402.253	184.71
402.466	229.07
402.68	208.73
402.893	242.83
403.106	232.17
403.32	206.99
403.533	237.02
403.747	211.06
403.96	213.19
404.174	243.22
404.387	180.44
404.6	214.93
404.814	272.86
405.027	239.34
405.24	196.72
405.454	187.81
405.667	275.77
405.88	155.64
406.094	238.76
406.307	272.67
406.52	223.07
406.733	197.11
406.947	155.45
407.16	278.67
407.373	254.26
407.586	241.09
407.799	156.61
408.012	264.53
408.226	232.95
408.439	309.87
408.652	212.02
408.865	256.2
409.078	310.06
409.291	293.59
409.504	227.72
409.717	254.65
409.93	258.91
410.143	263.75
410.357	199.24
410.57	201.56
410.783	233.14
410.996	258.14
411.209	244.19
411.421	285.07
411.634	261.04
411.847	240.89
412.06	278.48
412.273	287.59
412.486	316.65
412.699	367.22
412.912	281
413.125	297.85
413.338	282.74
413.55	291.46
413.763	286.23
413.976	295.14
414.189	247.87
414.402	291.85
414.615	348.23
414.827	236.82
415.04	344.16
415.253	298.44
415.466	330.21
415.678	350.36
415.891	321.3
416.104	315.87
416.316	295.14
416.529	273.44
416.742	338.73
416.954	330.02
417.167	296.3
417.38	289.14
417.592	351.13
417.805	271.5
418.017	248.45
418.23	321.3
418.442	258.14
418.655	283.71
418.868	325.75
419.08	348.23
419.293	339.9
419.505	316.84
419.718	361.98
419.93	340.48
420.142	315.1
420.355	361.21
420.567	369.73
420.78	344.16
420.992	307.54
421.205	392.4
421.417	300.76
421.629	305.41
421.842	293.4
422.054	277.9
422.266	386.59
422.479	390.66
422.691	306.96
422.903	359.27
423.115	331.57
423.328	306.57
423.54	331.57
423.752	328.85
423.964	317.04
424.177	346.1
424.389	342.8
424.601	458.66
424.813	360.63
425.025	381.75
425.238	398.99
425.45	326.33
425.662	343.97
425.874	689.61
426.086	358.11
426.298	367.22
426.51	365.28
426.722	355.01
426.934	327.69
427.146	394.15
427.358	315.87
427.57	393.18
427.782	331.18
427.994	343.77
428.206	304.83
428.418	329.82
428.63	400.35
428.842	409.06
429.054	376.32
429.266	408.68
429.478	354.82
429.69	355.2
429.902	300.37
430.114	388.53
430.325	345.9
430.537	290.69
430.749	315.49
430.961	243.41
431.173	269.37
431.384	299.21
431.596	229.85
431.808	309.87
432.02	390.27
432.231	424.76
432.443	453.24
432.655	423.21
432.867	361.21
433.078	438.13
433.29	479.4
433.502	448.78
433.713	451.5
433.925	429.99
434.136	477.85
434.348	361.02
434.56	358.69
434.771	510.78
434.983	355.4
435.194	408.87
435.406	438.13
435.617	510.98
435.829	529.77
436.04	489.08
436.252	472.42
436.463	500.13
436.675	504.97
436.886	506.91
437.098	517.76
437.309	564.26
437.521	483.27
437.732	498.38
437.943	466.61
438.155	506.13
438.366	444.33
438.578	539.65
438.789	473.58
439	473.39
439.211	457.7
439.423	469.32
439.634	486.56
439.845	512.53
440.057	497.41
440.268	540.04
440.479	490.25
440.69	497.41
440.902	464.86
441.113	490.83
441.324	467.77
441.535	524.73
441.746	592.74
441.957	484.43
442.168	538.68
442.38	559.99
442.591	565.42
442.802	506.91
443.013	519.5
443.224	563.68
443.435	538.29
443.646	518.14
443.857	530.35
444.068	523.96
444.279	519.69
444.49	623.74
444.701	547.4
444.912	666.94
445.123	590.02
445.334	576.66
445.545	616.57
445.756	588.86
445.967	533.06
446.178	560.58
446.388	604.56
446.599	587.89
446.81	606.88
447.021	541.98
447.232	624.71
447.443	657.64
447.653	586.54
447.864	636.91
448.075	611.14
448.286	664.42
448.496	613.86
448.707	654.54
448.918	620.83
449.129	690.97
449.339	570.26
449.55	647.96
449.761	614.63
449.971	656.29
450.182	588.28
450.393	666.94
450.603	588.09
450.814	663.65
451.024	677.6
451.235	712.47
451.446	695.04
451.656	693.49
451.867	628.97
452.077	653.38
452.288	732.04
452.498	721
452.709	651.83
452.919	671.98
453.13	600.49
453.34	652.61
453.55	570.65
453.761	652.99
453.971	664.42
454.182	668.88
454.392	651.44
454.602	769.63
454.813	687.48
455.023	711.89
455.233	615.02
455.444	674.11
455.654	579.56
455.864	680.12
456.075	668.49
456.285	662.68
456.495	633.81
456.705	704.72
456.916	737.27
457.126	752.77
457.336	708.4
457.546	582.86
457.756	668.11
457.967	744.05
458.177	676.44
458.387	696.59
458.597	645.05
458.807	667.14
459.017	645.63
459.227	655.9
459.437	652.22
459.647	734.37
459.857	737.85
460.068	685.74
460.278	748.51
460.488	699.1
460.698	769.82
460.908	679.92
461.117	662.1
461.327	709.76
461.537	776.41
461.747	714.22
461.957	724.1
462.167	851.2
462.377	779.51
462.587	732.82
462.797	806.25
463.007	729.14
463.216	758.97
463.426	810.32
463.636	794.23
463.846	685.54
464.056	733.4
464.265	773.89
464.475	717.51
464.685	751.22
464.895	788.42
465.104	719.25
465.314	776.22
465.524	718.09
465.733	742.7
465.943	846.35
466.153	849.06
466.362	789.2
466.572	789.39
466.782	753.74
466.991	791.91
467.201	807.41
467.41	709.18
467.62	760.33
467.829	751.22
468.039	812.06
468.249	784.35
468.458	794.23
468.668	836.08
468.877	826.01
469.086	884.13
469.296	858.75
469.505	813.22
469.715	860.11
469.924	836.08
470.134	886.46
470.343	874.45
470.552	823.1
470.762	844.8
470.971	790.17
471.18	805.67
471.39	807.22
471.599	823.1
471.808	884.52
472.018	801.4
472.227	903.12
472.436	916.1
472.645	873.28
472.855	888.2
473.064	1005.61
473.273	921.53
473.482	919.78
473.691	966.09
473.901	947.68
474.11	892.85
474.319	1021.89
474.528	948.46
474.737	1008.33
474.946	985.46
475.155	969.77
475.364	1023.63
475.573	1000.38
475.783	1003.29
475.992	996.31
476.201	1040.1
476.41	987.21
476.619	958.73
476.828	1007.36
477.037	988.76
477.245	989.14
477.454	1029.44
477.663	1003.68
477.872	1027.51
478.081	1118.18
478.29	1018.79
478.499	1155.77
478.708	1100.74
478.917	1167.97
479.125	1068.77
479.334	1088.92
479.543	1084.66
479.752	1119.54
479.961	1074.39
480.169	1142.98
480.378	1098.42
480.587	1248.77
480.796	1152.67
481.004	1152.28
481.213	1163.71
481.422	1188.7
481.63	1166.04
481.839	1218.15
482.048	1266.78
482.256	1168.94
482.465	1220.67
482.674	1244.31
482.882	1258.65
483.091	1312.51
483.299	1243.92
483.508	1269.88
483.716	1237.53
483.925	1271.24
484.134	1201.68
484.342	1276.08
484.551	1286.74
484.759	1303.4
484.967	1299.91
485.176	1323.75
485.384	1296.62
485.593	1337.31
485.801	1323.94
486.01	1219.12
486.218	1207.69
486.426	1115.85
486.635	1147.63
486.843	1104.62
487.051	1120.89
487.26	1134.26
487.468	1185.99
487.676	1241.98
487.885	1176.89
488.093	1255.93
488.301	1302.63
488.509	1302.63
488.717	1379.54
488.926	1345.64
489.134	1299.72
489.342	1328.98
489.55	1290.61
489.758	1303.79
489.967	1325.49
490.175	1450.65
490.383	1398.34
490.591	1506.26
490.799	1379.74
491.007	1451.23
491.215	1448.33
491.423	1402.41
491.631	1449.68
491.839	1438.25
492.047	1407.44
492.255	1383.61
492.463	1323.36
492.671	1350.29
492.879	1419.26
493.087	1445.23
493.295	1445.03
493.503	1458.21
493.711	1522.34
493.919	1505.29
494.127	1501.22
494.334	1516.91
494.542	1451.62
494.75	1501.61
494.958	1474.09
495.166	1552.17
495.374	1539.97
495.581	1545.2
495.789	1535.9
495.997	1611.46
496.205	1521.76
496.412	1489.98
496.62	1517.88
496.828	1563.02
497.035	1537.84
497.243	1565.35
497.451	1552.75
497.658	1586.66
497.866	1554.5
498.074	1645.56
498.281	1545
498.489	1667.65
498.696	1580.65
498.904	1532.22
499.112	1496.76
499.319	1646.53
499.527	1551.01
499.734	1628.12
499.942	1531.06
500.149	1557.21
500.357	1617.85
500.564	1543.26
500.771	1578.14
500.979	1520.4
501.186	1504.9
501.394	1602.16
501.601	1520.01
501.808	1578.52
502.016	1568.06
502.223	1570.58
502.43	1571.74
502.638	1528.92
502.845	1551.4
503.052	1670.94
503.26	1586.27
503.467	1695.74
503.674	1634.52
503.881	1643.82
504.089	1719.96
504.296	1653.5
504.503	1563.99
504.71	1601.97
504.917	1552.17
505.125	1631.61
505.332	1637.23
505.539	1672.3
505.746	1758.9
505.953	1710.85
506.16	1713.18
506.367	1779.44
506.574	1804.24
506.781	1765.68
506.988	1724.22
507.195	1731
507.402	1718.41
507.609	1751.93
507.816	1691.87
508.023	1681.21
508.23	1720.15
508.437	1639.75
508.644	1726.16
508.851	1779.83
509.058	1775.56
509.265	1760.65
509.472	1783.51
509.679	1850.16
509.885	1763.16
510.092	1777.89
510.299	1769.95
510.506	1782.93
510.713	1750.57
510.92	1783.31
511.126	1824.39
511.333	1888.91
511.54	1804.82
511.746	1870.11
511.953	1899.56
512.16	1911.38
512.367	1803.08
512.573	1793.78
512.78	1811.21
512.987	1840.47
513.193	1805.4
513.4	1714.73
513.606	1802.88
513.813	1845.31
514.02	1824.97
514.226	1869.14
514.433	1862.56
514.639	1766.85
514.846	1824.39
515.052	1799.98
515.259	1850.16
515.465	1879.22
515.672	1864.3
515.878	1939.86
516.085	1890.46
516.291	1906.54
516.497	1853.64
516.704	1852.68
516.91	1779.44
517.117	1727.9
517.323	1647.88
517.529	1661.06
517.736	1698.84
517.942	1670.94
518.148	1752.7
518.354	1754.64
518.561	1795.91
518.767	1777.11
518.973	1829.23
519.179	1845.7
519.386	1796.3
519.592	1809.08
519.798	1846.09
520.004	1951.29
520.21	1893.36
520.417	1999.73
520.623	2030.54
520.829	2015.04
521.035	1988.49
521.241	2025.69
521.447	2024.34
521.653	2148.92
521.859	2025.69
522.065	2051.27
522.271	2165
522.477	2108.62
522.683	2166.35
522.889	2087.88
523.095	2072.19
523.301	2111.13
523.507	2057.85
523.713	2110.17
523.919	2021.04
524.125	2148.72
524.331	2132.06
524.537	2260.32
524.742	2260.51
524.948	2245.79
525.154	2248.89
525.36	2362.62
525.566	2228.55
525.772	2346.92
525.977	2237.07
526.183	2248.69
526.389	2315.34
526.595	2202.78
526.8	2236.1
527.006	2121.98
527.212	2078.58
527.417	2056.89
527.623	2023.95
527.829	2107.84
528.034	2171.39
528.24	2195.61
528.446	2186.5
528.651	2308.95
528.857	2280.28
529.062	2354.67
529.268	2347.7
529.473	2413.57
529.679	2354.29
529.884	2459.3
530.09	2414.74
530.295	2424.23
530.501	2453.29
530.706	2407.57
530.912	2373.66
531.117	2443.41
531.323	2444.19
531.528	2487.78
531.733	2487.59
531.939	2442.25
532.144	2511.8
532.35	2472.09
532.555	2534.47
532.76	2459.88
532.966	2384.71
533.171	2414.16
533.376	2368.24
533.581	2312.24
533.787	2408.34
533.992	2462.59
534.197	2443.22
534.402	2432.75
534.607	2479.64
534.813	2526.72
535.018	2440.7
535.223	2443.41
535.428	2508.51
535.633	2537.96
535.838	2547.26
536.043	2567.41
536.249	2662.93
536.454	2536.22
536.659	2585.43
536.864	2539.32
537.069	2555.59
537.274	2537.38
537.479	2546.1
537.684	2563.53
537.889	2483.32
538.094	2630.38
538.299	2528.47
538.504	2552.3
538.708	2590.47
538.913	2649.36
539.118	2597.44
539.323	2628.63
539.528	2544.16
539.733	2573.61
539.938	2574.58
540.142	2589.3
540.347	2570.32
540.552	2527.69
540.757	2514.32
540.962	2485.65
541.166	2471.7
541.371	2470.73
541.576	2488.17
541.781	2425.39
541.985	2560.82
542.19	2537.18
542.395	2647.62
542.599	2644.52
542.804	2597.25
543.008	2642.78
543.213	2570.7
543.418	2526.53
543.622	2636
543.827	2497.27
544.031	2611.58
544.236	2646.07
544.44	2677.85
544.645	2704.19
544.849	2623.21
545.054	2680.36
545.258	2753.41
545.463	2746.04
545.667	2598.8
545.872	2704.19
546.076	2702.26
546.281	2639.48
546.485	2644.13
546.689	2652.66
546.894	2701.48
547.098	2646.65
547.302	2587.75
547.507	2677.46
547.711	2659.63
547.915	2713.88
548.119	2623.6
548.324	2629.8
548.528	2702.26
548.732	2665.64
548.936	2685.79
549.141	2716.4
549.345	2660.99
549.549	2678.23
549.753	2710.2
549.957	2782.27
550.161	2784.41
550.366	2744.69
550.57	2698.96
550.774	2724.15
550.978	2685.79
551.182	2691.99
551.386	2696.64
551.59	2670.87
551.794	2666.61
551.998	2743.53
552.202	2631.73
552.406	2675.91
552.61	2750.11
552.814	2686.56
553.018	2758.64
553.222	2675.91
553.426	2742.17
553.63	2775.49
553.833	2664.48
554.037	2641.42
554.241	2689.66
554.445	2736.94
554.649	2709.81
554.853	2695.09
555.056	2723.38
555.26	2768.91
555.464	2718.73
555.668	2731.51
555.871	2758.25
556.075	2759.22
556.279	2704.97
556.483	2649.75
556.686	2666.03
556.89	2694.7
557.094	2686.56
557.297	2565.47
557.501	2684.43
557.704	2581.75
557.908	2676.68
558.112	2588.33
558.315	2660.41
558.519	2648.98
558.722	2618.95
558.926	2599.76
559.129	2519.36
559.333	2505.22
559.536	2528.08
559.74	2475.57
559.943	2496.69
560.147	2486.62
560.35	2472.47
560.553	2499.21
560.757	2476.74
560.96	2570.7
561.164	2516.26
561.367	2616.23
561.57	2522.27
561.774	2569.35
561.977	2537.96
562.18	2444.96
562.384	2597.44
562.587	2491.65
562.79	2481.97
562.993	2496.89
563.197	2511.8
563.4	2578.65
563.603	2535.63
563.806	2591.05
564.009	2494.37
564.212	2538.15
564.416	2440.12
564.619	2506.38
564.822	2420.35
565.025	2489.52
565.228	2439.92
565.431	2479.45
565.634	2367.27
565.837	2473.05
566.04	2382.38
566.243	2388.97
566.446	2265.36
566.649	2442.64
566.852	2296.16
567.055	2343.82
567.258	2381.02
567.461	2463.17
567.664	2442.05
567.867	2373.66
568.07	2392.07
568.273	2363.97
568.475	2430.62
568.678	2314.76
568.881	2347.31
569.084	2360.29
569.287	2227.77
569.489	2245.79
569.692	2304.3
569.895	2298.88
570.098	2211.69
570.3	2249.66
570.503	2180.3
570.706	2217.31
570.909	2202.58
571.111	2134.97
571.314	2147.37
571.516	2167.13
571.719	2193.67
571.922	2178.95
572.124	2174.1
572.327	2172.75
572.529	2146.2
572.732	2148.53
572.935	2209.56
573.137	2267.49
573.34	2190.18
573.542	2224.09
573.745	2225.25
573.947	2228.55
574.15	2197.35
574.352	2161.7
574.554	2257.22
574.757	2170.03
574.959	2137.87
575.162	2153.18
575.364	2135.35
575.566	2224.28
575.769	2090.4
575.971	2150.47
576.173	2020.65
576.376	2098.54
576.578	2170.81
576.78	2157.63
576.982	2037.32
577.185	2073.55
577.387	2045.65
577.589	2079.75
577.791	2105.52
577.993	2083.04
578.196	2076.26
578.398	2085.56
578.6	2104.16
578.802	1965.82
579.004	1996.05
579.206	2020.65
579.408	2031.5
579.61	2030.34
579.812	2092.34
580.014	1992.56
580.216	2015.81
580.418	2030.15
580.62	2013.29
580.822	1968.92
581.024	2015.23
581.226	2049.72
581.428	1992.56
581.63	2096.8
581.832	2009.61
582.034	2043.52
582.236	2019.49
582.438	2047
582.64	2060.37
582.841	2095.05
583.043	2130.32
583.245	2053.4
583.447	2044.1
583.649	2051.65
583.85	2056.3
584.052	2062.5
584.254	1989.46
584.456	2070.64
584.657	1980.36
584.859	2005.54
585.061	2013.29
585.262	1980.94
585.464	1965.24
585.666	2037.12
585.867	1932.11
586.069	2043.13
586.27	1944.32
586.472	1949.74
586.674	1940.06
586.875	1919.52
587.077	1931.53
587.278	1958.07
587.48	1940.64
587.681	2023.95
587.883	1985.78
588.084	1880.19
588.285	1912.16
588.487	1901.31
588.688	1878.83
588.89	1829.04
589.091	1784.48
589.292	1785.06
589.494	1751.54
589.695	1706.78
589.896	1646.92
590.098	1627.35
590.299	1678.3
590.5	1695.35
590.702	1754.06
590.903	1763.36
591.104	1836.79
591.305	1800.36
591.507	1848.41
591.708	1807.92
591.909	1772.27
592.11	1903.24
592.311	1829.23
592.512	1794.55
592.714	1721.51
592.915	1754.25
593.116	1783.12
593.317	1778.86
593.518	1792.81
593.719	1766.26
593.92	1822.45
594.121	1814.89
594.322	1821.48
594.523	1823.42
594.724	1747.86
594.925	1781.76
595.126	1804.24
595.327	1793.2
595.528	1768.98
595.729	1795.13
595.929	1794.75
596.13	1762.58
596.331	1781.57
596.532	1797.46
596.733	1849.96
596.934	1813.73
597.135	1808.89
597.335	1815.67
597.536	1792.81
597.737	1792.61
597.938	1767.62
598.138	1807.92
598.339	1753.67
598.54	1782.93
598.74	1760.26
598.941	1775.76
599.142	1818.19
599.342	1791.26
599.543	1759.87
599.744	1761.23
599.944	1751.93
600.145	1761.42
600.345	1779.05
600.546	1852.87
600.746	1815.09
600.947	1814.31
601.147	1761.81
601.348	1806.56
601.548	1719.57
601.749	1757.16
601.949	1728.68
602.15	1710.08
602.35	1750.38
602.551	1781.38
602.751	1707.17
602.951	1721.12
603.152	1650.02
603.352	1775.56
603.552	1757.74
603.753	1801.14
603.953	1780.6
604.153	1750.76
604.354	1745.15
604.554	1723.64
604.754	1768.2
604.954	1693.22
605.155	1775.76
605.355	1713.18
605.555	1801.14
605.755	1805.01
605.955	1719.57
606.155	1764.71
606.356	1727.13
606.556	1767.23
606.756	1755.61
606.956	1705.82
607.156	1799.78
607.356	1689.35
607.556	1758.9
607.756	1728.87
607.956	1770.72
608.156	1764.71
608.356	1723.64
608.556	1755.8
608.756	1696.71
608.956	1658.15
609.156	1724.8
609.356	1639.55
609.556	1658.35
609.755	1675.98
609.955	1654.08
610.155	1681.6
610.355	1669.97
610.555	1634.52
610.755	1640.72
610.954	1591.12
611.154	1615.72
611.354	1671.72
611.554	1591.89
611.753	1622.89
611.953	1598.48
612.153	1658.93
612.352	1679.08
612.552	1600.42
612.752	1529.31
612.951	1640.91
613.151	1607.97
613.351	1576
613.55	1613.2
613.75	1612.62
613.949	1592.09
614.149	1608.94
614.348	1573.87
614.548	1561.67
614.747	1497.15
614.947	1526.21
615.146	1463.82
615.346	1592.86
615.545	1577.36
615.745	1571.74
615.944	1586.08
616.144	1570.39
616.343	1546.17
616.542	1543.46
616.742	1523.69
616.941	1488.43
617.14	1440.19
617.34	1499.86
617.539	1471.96
617.738	1494.05
617.938	1555.27
618.137	1518.27
618.336	1487.07
618.535	1546.17
618.734	1543.46
618.934	1482.81
619.133	1506.06
619.332	1531.44
619.531	1465.37
619.73	1499.28
619.929	1539.19
620.128	1531.64
620.328	1561.09
620.527	1488.82
620.726	1496.96
620.925	1481.07
621.124	1486.3
621.323	1523.31
621.522	1460.72
621.721	1442.51
621.92	1426.24
622.119	1505.87
622.318	1474.87
622.517	1448.33
622.715	1485.33
622.914	1428.95
623.113	1440.77
623.312	1369.47
623.511	1492.5
623.71	1431.47
623.909	1429.92
624.107	1522.72
624.306	1383.42
624.505	1400.47
624.704	1362.3
624.902	1412.09
625.101	1446.78
625.3	1417.33
625.499	1417.71
625.697	1377.99
625.896	1376.25
626.095	1440.77
626.293	1342.15
626.492	1341.38
626.69	1414.61
626.889	1393.11
627.088	1434.96
627.286	1377.03
627.485	1349.9
627.683	1358.62
627.882	1420.23
628.08	1302.82
628.279	1377.61
628.477	1443.09
628.676	1328.01
628.874	1381.87
629.073	1317.93
629.271	1291.58
629.469	1367.73
629.668	1318.32
629.866	1346.41
630.065	1346.41
630.263	1395.43
630.461	1282.48
630.66	1356.1
630.858	1371.02
631.056	1356.1
631.254	1399.5
631.453	1315.41
631.651	1367.15
631.849	1340.6
632.047	1311.35
632.245	1315.03
632.444	1317.35
632.642	1355.52
632.84	1364.43
633.038	1325.68
633.236	1269.5
633.434	1305.92
633.632	1301.66
633.83	1312.31
634.028	1321.42
634.227	1299.91
634.425	1402.41
634.623	1300.88
634.821	1303.98
635.019	1308.25
635.216	1317.16
635.414	1362.88
635.612	1330.33
635.81	1302.63
636.008	1373.54
636.206	1317.55
636.404	1318.9
636.602	1288.68
636.8	1288.48
636.997	1329.95
637.195	1347.58
637.393	1309.99
637.591	1389.23
637.789	1355.13
637.986	1294.68
638.184	1331.3
638.382	1355.52
638.58	1356.1
638.777	1401.05
638.975	1291.2
639.173	1345.64
639.37	1309.41
639.568	1350.87
639.765	1361.33
639.963	1306.31
640.161	1359.2
640.358	1331.69
640.556	1245.08
640.753	1248.18
640.951	1273.76
641.148	1269.88
641.346	1267.75
641.543	1252.45
641.741	1287.51
641.938	1240.05
642.136	1263.88
642.333	1222.03
642.531	1304.18
642.728	1327.62
642.925	1260.78
643.123	1229.58
643.32	1273.37
643.517	1256.71
643.715	1289.06
643.912	1223.77
644.109	1256.9
644.306	1240.05
644.504	1185.22
644.701	1224.35
644.898	1251.67
645.095	1208.47
645.293	1211.95
645.49	1246.25
645.687	1252.25
645.884	1275.7
646.081	1150.73
646.278	1211.57
646.475	1206.14
646.672	1127.67
646.87	1244.5
647.067	1213.89
647.264	1211.37
647.461	1149.95
647.658	1130.77
647.855	1196.07
648.052	1134.45
648.249	1075.75
648.446	1151.12
648.642	1118.57
648.839	1125.54
649.036	1109.46
649.233	1093.19
649.43	1069.55
649.627	1055.99
649.824	1097.06
650.021	1077.3
650.217	1062.38
650.414	1110.43
650.611	1143.95
650.808	1135.62
651.004	1114.3
651.201	1109.85
651.398	1210.6
651.595	1151.31
651.791	1090.09
651.988	1139.49
652.185	1056.57
652.381	1120.31
652.578	1016.85
652.775	1124.19
652.971	1083.89
653.168	1118.18
653.364	1136
653.561	1049.98
653.757	1100.36
653.954	1093.19
654.15	1055.99
654.347	1167.2
654.543	1086.41
654.74	1038.36
654.936	1039.32
655.133	1097.84
655.329	1079.62
655.525	1037.77
655.722	1100.36
655.918	1019.76
656.115	1054.44
656.311	958.53
656.507	922.88
656.704	892.08
656.9	917.85
657.096	920.56
657.292	907.19
657.489	977.91
657.685	953.49
657.881	968.61
658.077	981.2
658.273	1006.19
658.47	1059.28
658.666	996.51
658.862	1082.14
659.058	1024.41
659.254	1080.79
659.45	1008.52
659.646	1048.43
659.842	1036.22
660.038	1083.69
660.234	1006.97
660.43	1047.85
660.626	1113.34
660.822	1073.42
661.018	1054.82
661.214	1032.35
661.41	980.04
661.606	1057.15
661.802	1067.22
661.998	1004.06
662.194	983.72
662.39	1031.38
662.586	1044.75
662.781	1038.16
662.977	1055.79
663.173	1069.16
663.369	1008.33
663.564	1034.09
663.76	1062.19
663.956	1006.78
664.152	1063.35
664.347	959.5
664.543	1027.7
664.739	1004.06
664.934	945.74
665.13	941.48
665.326	1003.29
665.521	1000.96
665.717	969.19
665.912	958.34
666.108	896.73
666.304	962.21
666.499	967.83
666.695	913.58
666.89	986.63
667.086	1023.24
667.281	983.91
667.477	1003.29
667.672	995.15
667.867	988.95
668.063	984.3
668.258	918.43
668.454	982.94
668.649	1047.07
668.844	973.45
669.04	1024.21
669.235	991.86
669.43	932.96
669.626	930.05
669.821	907.38
670.016	912.81
670.211	960.28
670.407	915.33
670.602	984.69
670.797	927.92
670.992	971.32
671.187	916.49
671.382	974.61
671.578	915.91
671.773	932.38
671.968	887.23
672.163	948.65
672.358	942.06
672.553	903.31
672.748	919.78
672.943	1012.59
673.138	923.08
673.333	958.53
673.528	899.63
673.723	941.48
673.918	916.49
674.113	875.03
674.308	1003.29
674.503	954.85
674.698	979.07
674.892	909.71
675.087	972.48
675.282	929.08
675.477	899.83
675.672	943.42
675.867	880.06
676.061	857.2
676.256	879.1
676.451	905.45
676.646	904.09
676.84	885.3
677.035	869.02
677.23	840.93
677.424	948.26
677.619	947.49
677.814	974.42
678.008	937.22
678.203	816.32
678.397	881.81
678.592	871.35
678.787	962.6
678.981	880.26
679.176	888.01
679.37	898.86
679.565	860.69
679.759	864.37
679.954	915.71
680.148	943.81
680.342	942.06
680.537	907.19
680.731	878.32
680.926	916.88
681.12	940.51
681.314	859.53
681.509	886.26
681.703	899.63
681.897	926.37
682.092	887.23
682.286	859.33
682.48	977.91
682.674	908.74
682.869	897.5
683.063	910.1
683.257	928.11
683.451	862.24
683.645	885.3
683.839	907.77
684.034	880.84
684.228	900.02
684.422	838.02
684.616	843.06
684.81	890.14
685.004	873.48
685.198	895.18
685.392	925.79
685.586	848.48
685.78	886.65
685.974	903.51
686.168	909.71
686.362	949.62
686.556	853.71
686.75	768.85
686.944	814.38
687.138	844.61
687.331	727.78
687.525	735.53
687.719	685.54
687.913	763.82
688.107	776.8
688.301	713.05
688.494	751.8
688.688	710.34
688.882	696.59
689.076	742.31
689.269	750.45
689.463	874.45
689.657	763.82
689.85	745.41
690.044	763.04
690.238	768.66
690.431	771.95
690.625	794.62
690.818	801.21
691.012	828.72
691.205	853.71
691.399	767.5
691.593	820.78
691.786	906.61
691.98	896.53
692.173	900.21
692.366	888.4
692.56	884.71
692.753	919.59
692.947	816.71
693.14	904.67
693.333	930.25
693.527	832.98
693.72	890.14
693.914	850.03
694.107	850.61
694.3	917.85
694.493	859.33
694.687	943.03
694.88	879.48
695.073	945.55
695.266	924.82
695.46	937.22
695.653	956.79
695.846	957.76
696.039	901.96
696.232	921.53
696.425	984.3
696.618	985.85
696.812	997.67
697.005	1058.31
697.198	1077.3
697.391	1025.57
697.584	1072.07
697.777	1123.8
697.97	1068.58
698.163	1077.69
698.356	1059.28
698.549	1147.24
698.742	1148.21
698.935	1093.77
699.127	1139.3
699.32	1068.58
699.513	1094.74
699.706	1131.55
699.899	1141.62
700.092	1110.62
700.285	1155.57
700.477	1069.94
700.67	1164.68
700.863	1180.57
701.056	1276.28
701.248	1244.31
701.441	1223
701.634	1196.26
701.826	1350.68
702.019	1195.48
702.212	1287.71
702.404	1225.13
702.597	1231.33
702.79	1241.21
702.982	1307.47
703.175	1357.85
703.367	1363.85
703.56	1375.48
703.752	1454.91
703.945	1372.57
704.137	1424.69
704.33	1458.98
704.522	1439.22
704.715	1440.77
704.907	1497.92
705.1	1484.36
705.292	1507.61
705.484	1508
705.677	1542.49
705.869	1558.37
706.061	1569.22
706.254	1657.77
706.446	1603.52
706.638	1626.38
706.831	1703.3
707.023	1655.05
707.215	1761.42
707.407	1738.17
707.599	1717.63
707.792	1763.36
707.984	1749.41
708.176	1817.99
708.368	1782.93
708.56	1853.64
708.752	1788.35
708.944	1802.88
709.136	1846.28
709.329	1866.43
709.521	1985
709.713	1901.11
709.905	1943.35
710.097	1978.61
710.289	1958.85
710.481	1960.21
710.672	1990.04
710.864	2024.92
711.056	2068.7
711.248	2055.72
711.44	2118.3
711.632	2106.1
711.824	2124.89
712.016	2192.12
712.207	2203.36
712.399	2185.15
712.591	2252.76
712.783	2221.96
712.975	2254.31
713.166	2212.08
713.358	2253.73
713.55	2346.54
713.741	2340.14
713.933	2335.69
714.125	2320.19
714.316	2312.83
714.508	2464.92
714.7	2427.14
714.891	2443.8
715.083	2489.91
715.274	2474.22
715.466	2497.66
715.657	2525.75
715.849	2429.07
716.04	2505.41
716.232	2456.2
716.423	2548.62
716.615	2471.7
716.806	2440.7
716.998	2385.87
717.189	2374.44
717.381	2277.76
717.572	2256.83
717.763	2276.98
717.955	2295.39
718.146	2245.79
718.337	2190.96
718.528	2125.28
718.72	2068.32
718.911	2156.08
719.102	2130.51
719.293	2207.04
719.485	2176.81
719.676	2142.91
719.867	2123.73
720.058	2173.33
720.249	2143.68
720.44	2185.73
720.632	2233
720.823	2316.89
721.014	2399.82
721.205	2437.02
721.396	2538.93
721.587	2602.28
721.778	2674.94
721.969	2686.76
722.16	2756.89
722.351	2801.46
722.542	2903.56
722.733	2946.18
722.924	2904.34
723.115	2944.63
723.305	2932.04
723.496	2941.92
723.687	2825.48
723.878	2828
724.069	2852.02
724.26	2853.19
724.45	2772.2
724.641	2764.45
724.832	2858.22
725.023	2826.84
725.213	2816.57
725.404	2835.56
725.595	2796.22
725.785	2837.49
725.976	2915.57
726.167	2901.82
726.357	2884.19
726.548	3013.03
726.739	2891.74
726.929	3030.08
727.12	3016.13
727.31	3120.17
727.501	3008.38
727.691	3049.26
727.882	3084.33
728.072	3105.64
728.263	3109.71
728.453	3154.08
728.644	3179.07
728.834	3193.79
729.024	3134.12
729.215	3112.03
729.405	3151.36
729.596	3263.35
729.786	3269.36
729.976	3279.04
730.167	3368.75
730.357	3251.34
730.547	3307.91
730.737	3381.92
730.928	3404.2
731.118	3473.76
731.308	3390.25
731.498	3404.01
731.688	3522.39
731.879	3522.97
732.069	3563.27
732.259	3550.29
732.449	3616.16
732.639	3710.32
732.829	3731.44
733.019	3786.27
733.209	3811.27
733.399	3876.95
733.589	3942.63
733.779	3947.28
733.969	3986.61
734.159	4092.97
734.349	4081.16
734.539	4102.27
734.729	4130.17
734.919	4164.86
735.109	4230.54
735.299	4167.18
735.488	4177.45
735.678	4210
735.868	4160.79
736.058	4194.89
736.248	4163.69
736.437	4150.91
736.627	4147.61
736.817	4291.37
737.007	4202.25
737.196	4290.02
737.386	4285.95
737.576	4216.2
737.765	4327.41
737.955	4245.45
738.144	4476.4
738.334	4385.34
738.524	4271.22
738.713	4382.05
738.903	4321.79
739.092	4378.36
739.282	4394.25
739.471	4420.8
739.661	4354.53
739.85	4480.66
740.04	4454.89
740.229	4481.05
740.419	4522.71
740.608	4534.72
740.797	4507.01
740.987	4524.64
741.176	4504.11
741.365	4540.53
741.555	4478.34
741.744	4586.45
741.933	4523.87
742.123	4559.52
742.312	4589.74
742.501	4640.5
742.69	4651.74
742.88	4547.89
743.069	4673.64
743.258	4640.89
743.447	4695.14
743.636	4657.55
743.825	4649.03
744.014	4681.39
744.204	4724.4
744.393	4617.64
744.582	4757.53
744.771	4762.76
744.96	4699.98
745.149	4736.41
745.338	4690.3
745.527	4750.94
745.716	4724.2
745.905	4671.89
746.094	4792.6
746.283	4783.49
746.471	4740.09
746.66	4811.97
746.849	4777.87
747.038	4856.15
747.227	4756.37
747.416	4811.2
747.604	4755.78
747.793	4766.44
747.982	4782.13
748.171	4803.64
748.359	4804.8
748.548	4801.12
748.737	4761.02
748.926	4755.01
749.114	4657.55
749.303	4750.17
749.491	4787.95
749.68	4676.54
749.869	4814.49
750.057	4736.22
750.246	4713.35
750.434	4767.8
750.623	4716.26
750.811	4720.52
751	4769.93
751.188	4702.12
751.377	4705.6
751.565	4673.64
751.754	4670.15
751.942	4660.85
752.131	4737.18
752.319	4664.92
752.507	4662.79
752.696	4702.31
752.884	4719.75
753.072	4675.77
753.261	4682.35
753.449	4641.09
753.637	4664.72
753.825	4778.26
754.014	4694.56
754.202	4654.84
754.39	4690.3
754.578	4720.72
754.766	4590.13
754.955	4611.05
755.143	4691.27
755.331	4664.92
755.519	4635.08
755.707	4621.52
755.895	4604.47
756.083	4657.55
756.271	4544.99
756.459	4629.65
756.647	4611.64
756.835	4579.09
757.023	4573.08
757.211	4574.63
757.399	4591.29
757.587	4514.76
757.775	4505.66
757.963	4517.28
758.151	4568.62
758.339	4422.73
758.526	4513.21
758.714	4478.14
758.902	4400.06
759.09	4325.47
759.278	4147.03
759.465	3893.61
759.653	3485.58
759.841	3209.29
760.028	2848.92
760.216	2474.6
760.404	2310.5
760.591	2010.39
760.779	1707.95
760.967	1558.95
761.154	1386.13
761.342	1424.3
761.529	1441.74
761.717	1525.05
761.905	1526.02
762.092	1665.52
762.28	1648.85
762.467	1650.79
762.655	1618.82
762.842	1651.37
763.029	1678.88
763.217	1703.68
763.404	1705.62
763.592	1735.26
763.779	1747.86
763.966	1775.18
764.154	1805.79
764.341	1887.94
764.528	1889.68
764.716	1962.34
764.903	2050.49
765.09	2134.19
765.277	2146.78
765.465	2356.03
765.652	2427.52
765.839	2468.99
766.026	2642.58
766.213	2697.22
766.4	2815.41
766.588	2981.83
766.775	2975.83
766.962	3151.75
767.149	3211.04
767.336	3361.97
767.523	3356.93
767.71	3448.18
767.897	3607.25
768.084	3689.59
768.271	3673.51
768.458	3745.39
768.645	3835.29
768.832	3827.35
769.019	3762.44
769.206	3859.12
769.392	3935.85
769.579	4034.85
769.766	3959.1
769.953	3963.55
770.14	4040.28
770.327	3950.96
770.513	4100.92
770.7	4156.14
770.887	4017.99
771.073	4052.87
771.26	4048.03
771.447	4001.14
771.634	4015.86
771.82	4106.73
772.007	4008.31
772.193	4016.25
772.38	4054.23
772.567	4030.2
772.753	4014.12
772.94	4096.66
773.126	4056.36
773.313	4073.6
773.499	4062.94
773.686	4052.09
773.872	4018.38
774.059	4049.19
774.245	3992.03
774.432	4028.84
774.618	3917.44
774.804	3996.68
774.991	3928.87
775.177	4003.27
775.363	3990.1
775.55	3946.11
775.736	3893.8
775.922	3941.08
776.109	3917.44
776.295	3936.23
776.481	3926.35
776.667	3977.89
776.853	3930.61
777.04	3881.4
777.226	3925.58
777.412	3976.34
777.598	3857.18
777.784	3864.16
777.97	3846.14
778.156	3914.73
778.342	3881.6
778.528	3862.61
778.715	3800.22
778.901	3763.8
779.087	3849.43
779.272	3792.28
779.458	3756.82
779.644	3829.48
779.83	3806.62
780.016	3865.9
780.202	3799.84
780.388	3754.69
780.574	3694.44
780.76	3716.14
780.946	3767.09
781.131	3739.39
781.317	3735.51
781.503	3669.64
781.689	3669.06
781.874	3839.55
782.06	3716.52
782.246	3759.73
782.432	3690.17
782.617	3726.79
782.803	3779.1
782.989	3663.05
783.174	3655.69
783.36	3601.24
783.545	3675.84
783.731	3627.98
783.916	3546.8
784.102	3641.16
784.288	3572.18
784.473	3625.85
784.659	3527.23
784.844	3641.35
785.029	3584.39
785.215	3561.91
785.4	3443.73
785.586	3609.38
785.771	3516.77
785.956	3583.42
786.142	3489.06
786.327	3547.58
786.512	3503.98
786.698	3493.13
786.883	3449.15
787.068	3490.23
787.254	3460.97
787.439	3459.62
787.624	3431.72
787.809	3447.02
787.994	3442.76
788.18	3545.06
788.365	3376.69
788.55	3389.48
788.735	3407.3
788.92	3395.48
789.105	3395.29
789.29	3400.52
789.475	3320.89
789.66	3343.95
789.845	3330
790.03	3315.66
790.215	3334.65
790.4	3329.22
790.585	3356.93
790.77	3276.52
790.955	3216.27
791.14	3297.84
791.325	3346.85
791.51	3196.12
791.695	3280.21
791.879	3262.38
792.064	3230.02
792.249	3327.29
792.434	3245.14
792.618	3289.31
792.803	3273.81
792.988	3221.5
793.173	3287.96
793.357	3287.37
793.542	3245.91
793.727	3247.07
793.911	3264.32
794.096	3255.99
794.281	3317.4
794.465	3380.57
794.65	3275.36
794.834	3322.05
795.019	3300.16
795.203	3342.01
795.388	3327.67
795.572	3345.69
795.757	3278.07
795.941	3302.29
796.126	3316.44
796.31	3227.7
796.494	3275.75
796.679	3252.69
796.863	3260.06
797.048	3358.09
797.232	3285.44
797.416	3296.87
797.601	3323.6
797.785	3381.15
797.969	3382.7
798.153	3315.47
798.338	3352.47
798.522	3389.87
798.706	3380.57
798.89	3396.84
799.074	3466.01
799.258	3447.99
799.443	3341.62
799.627	3361
799.811	3442.95
799.995	3333.1
800.179	3330.39
800.363	3316.24
800.547	3369.14
800.731	3349.76
800.915	3263.35
801.099	3316.05
801.283	3344.34
801.467	3314.69
801.651	3327.48
801.835	3396.07
802.019	3353.64
802.202	3380.57
802.386	3289.51
802.57	3242.81
802.754	3334.07
802.938	3246.3
803.121	3282.34
803.305	3333.29
803.489	3319.54
803.673	3350.73
803.856	3320.89
804.04	3305.78
804.224	3332.52
804.407	3265.87
804.591	3274.01
804.775	3291.83
804.958	3337.36
805.142	3444.5
805.326	3260.44
805.509	3305.59
805.693	3362.16
805.876	3302.1
806.06	3321.09
806.243	3361.58
806.427	3376.3
806.61	3410.79
806.794	3311.59
806.977	3338.52
807.16	3332.52
807.344	3354.22
807.527	3326.7
807.71	3302.87
807.894	3280.21
808.077	3315.66
808.26	3218.98
808.444	3288.73
808.627	3339.1
808.81	3248.04
808.993	3210.65
809.177	3200.77
809.36	3194.96
809.543	3239.91
809.726	3114.16
809.909	3133.54
810.092	3134.51
810.276	3096.73
810.459	3094.79
810.642	3120.75
810.825	3103.51
811.008	3133.54
811.191	2991.13
811.374	3012.06
811.557	2995.59
811.74	3111.45
811.923	2986.1
812.106	2970.4
812.289	2923.52
812.472	2962.85
812.654	2989
812.837	2929.14
813.02	2862.29
813.203	2828.39
813.386	2745.85
813.569	2731.32
813.751	2653.43
813.934	2725.51
814.117	2671.06
814.3	2614.1
814.482	2586.98
814.665	2515.48
814.848	2468.99
815.03	2419.58
815.213	2420.94
815.396	2383.16
815.578	2363.39
815.761	2329.1
815.943	2402.14
816.126	2297.13
816.309	2299.84
816.491	2166.55
816.674	2128.57
816.856	2158.21
817.039	2100.87
817.221	2274.85
817.403	2207.62
817.586	2233.97
817.768	2214.4
817.951	2121.02
818.133	2121.4
818.315	2170.23
818.498	2206.26
818.68	2292.68
818.862	2208.59
819.045	2222.73
819.227	2232.03
819.409	2201.23
819.591	2199.48
819.774	2175.07
819.956	2176.23
820.138	2244.82
820.32	2253.54
820.502	2269.62
820.684	2370.76
820.866	2392.65
821.048	2408.92
821.231	2426.36
821.413	2430.24
821.595	2402.34
821.777	2423.45
821.959	2399.62
822.141	2463.17
822.323	2368.04
822.505	2247.14
822.686	2239.4
822.868	2143.3
823.05	1983.07
823.232	1971.06
823.414	1905.76
823.596	2010.77
823.778	1951.1
823.96	1969.51
824.141	1949.94
824.323	1997.4
824.505	2139.81
824.687	2154.53
824.868	2232.42
825.05	2286.48
825.232	2332.2
825.413	2402.14
825.595	2362.23
825.777	2276.79
825.958	2332.78
826.14	2305.27
826.321	2378.51
826.503	2320.58
826.685	2383.74
826.866	2390.13
827.048	2341.5
827.229	2303.53
827.411	2249.47
827.592	2208.98
827.773	2193.09
827.955	2162.86
828.136	2150.66
828.318	2124.89
828.499	2160.15
828.68	2117.33
828.862	2141.94
829.043	2170.61
829.224	2094.28
829.406	2117.72
829.587	2088.47
829.768	2115.01
829.949	2143.3
830.131	2075.1
830.312	2194.25
830.493	2111.33
830.674	2096.99
830.855	2098.35
831.036	2110.75
831.218	2173.52
831.399	2202.2
831.58	2128.57
831.761	2125.86
831.942	2132.64
832.123	2122.95
832.304	2073.93
832.485	2051.07
832.666	2106.1
832.847	2101.45
833.028	2131.28
833.209	2099.32
833.389	2092.34
833.57	1989.46
833.751	2032.28
833.932	2129.73
834.113	2103.19
834.294	2065.99
834.475	2086.14
834.655	2138.84
834.836	2136.13
835.017	2166.74
835.198	2059.4
835.378	2118.5
835.559	2199.87
835.74	2123.92
835.92	2114.43
836.101	2095.05
836.281	2156.47
836.462	2127.22
836.643	2167.51
836.823	2201.81
837.004	2156.08
837.184	2203.94
837.365	2163.64
837.545	2201.03
837.726	2136.32
837.906	2257.8
838.087	2184.95
838.267	2176.23
838.448	2086.14
838.628	2158.41
838.808	2112.3
838.989	2208.01
839.169	2086.33
839.349	2171.78
839.53	2182.63
839.71	2158.6
839.89	2094.67
840.07	2216.34
840.251	2117.72
840.431	2148.72
840.611	2126.63
840.791	2110.36
840.971	2133.03
841.151	2129.73
841.332	2121.79
841.512	2163.45
841.692	2072.58
841.872	2145.23
842.052	2072.19
842.232	2146.78
842.412	2076.65
842.592	2065.6
842.772	2117.33
842.952	2110.94
843.132	2050.3
843.312	2055.92
843.492	2048.55
843.672	2101.25
843.851	2011.16
844.031	2064.64
844.211	2071.03
844.391	2019.88
844.571	2084.59
844.751	2033.64
844.93	2080.72
845.11	2022.4
845.29	2053.2
845.47	2047.78
845.649	2038.09
845.829	2081.1
846.009	2020.65
846.188	2090.79
846.368	2023.56
846.547	2056.11
846.727	2066.57
846.907	1961.37
847.086	2029.95
847.266	2039.64
847.445	2016.59
847.625	1977.64
847.804	1989.27
847.984	2027.63
848.163	1977.45
848.343	1955.56
848.522	1997.79
848.701	1946.26
848.881	1922.81
849.06	1974.93
849.239	1985.39
849.419	2014.26
849.598	1869.53
849.777	1871.66
849.957	1864.3
850.136	1814.31
850.315	1767.23
850.494	1797.07
850.674	1822.64
850.853	1874.57
851.032	1815.28
851.211	1927.27
851.39	1851.32
851.569	1787.58
851.748	1820.13
851.927	1864.11
852.107	1839.69
852.286	1824.78
852.465	1797.65
852.644	1846.67
852.823	1865.66
853.002	1841.83
853.181	1823.61
853.359	1835.24
853.538	1789.51
853.717	1864.49
853.896	1758.51
854.075	1657.57
854.254	1690.12
854.433	1537.06
854.611	1543.65
854.79	1512.46
854.969	1624.05
855.148	1616.3
855.327	1580.65
855.505	1669.58
855.684	1650.21
855.863	1687.6
856.041	1614.17
856.22	1705.43
856.399	1657.57
856.577	1772.85
856.756	1788.93
856.934	1861.2
857.113	1874.18
857.291	1771.11
857.47	1731.78
857.648	1780.41
857.827	1772.46
858.005	1790.1
858.184	1721.7
858.362	1840.86
858.541	1743.4
858.719	1736.23
858.898	1780.02
859.076	1702.52
859.254	1826.33
859.433	1718.8
859.611	1680.82
859.789	1674.04
859.967	1789.9
860.146	1770.72
860.324	1655.63
860.502	1713.76
860.68	1666.48
860.859	1654.08
861.037	1688.18
861.215	1700
861.393	1687.99
861.571	1693.42
861.749	1673.46
861.927	1706.01
862.105	1706.01
862.283	1661.06
862.461	1632
862.639	1659.9
862.817	1635.68
862.995	1665.71
863.173	1645.95
863.351	1642.27
863.529	1625.6
863.707	1686.05
863.885	1667.65
864.063	1537.26
864.241	1618.05
864.418	1677.72
864.596	1596.93
864.774	1551.59
864.952	1577.17
865.129	1624.64
865.307	1580.07
865.485	1536.67
865.663	1622.7
865.84	1496.37
866.018	1516.14
866.196	1388.46
866.373	1434.57
866.551	1385.36
866.728	1323.55
866.906	1362.88
867.084	1390.39
867.261	1399.69
867.439	1478.16
867.616	1484.36
867.794	1461.11
867.971	1479.91
868.149	1439.41
868.326	1565.54
868.503	1528.73
868.681	1476.61
868.858	1469.64
869.035	1451.43
869.213	1515.36
869.39	1446
869.567	1564.38
869.745	1507.81
869.922	1515.17
870.099	1523.89
870.276	1501.02
870.454	1517.3
870.631	1540.55
870.808	1466.34
870.985	1537.64
871.162	1567.29
871.339	1473.51
871.517	1416.16
871.694	1444.06
871.871	1465.76
872.048	1436.89
872.225	1439.41
872.402	1455.49
872.579	1403.96
872.756	1459.17
872.933	1401.83
873.11	1403.57
873.287	1472.93
873.463	1399.11
873.64	1392.53
873.817	1452.59
873.994	1435.15
874.171	1384
874.348	1419.65
874.524	1343.9
874.701	1410.74
874.878	1323.55
875.055	1378.38
875.231	1361.14
875.408	1432.44
875.585	1300.11
875.762	1351.26
875.938	1319.68
876.115	1344.28
876.291	1355.71
876.468	1300.5
876.645	1307.08
876.821	1318.9
876.998	1325.68
877.174	1320.84
877.351	1312.9
877.527	1297.59
877.704	1348.35
877.88	1326.07
878.057	1309.8
878.233	1346.61
878.409	1307.28
878.586	1316.77
878.762	1319.48
878.938	1300.88
879.115	1231.13
879.291	1300.88
879.467	1236.17
879.644	1236.75
879.82	1318.71
879.996	1271.43
880.172	1220.48
880.349	1294.88
880.525	1316.77
880.701	1223.77
880.877	1218.35
881.053	1267.75
881.229	1251.48
881.405	1286.74
881.581	1240.82
881.757	1258.65
881.933	1272.02
882.109	1275.5
882.285	1248.77
882.461	1190.06
882.637	1236.95
882.813	1205.75
882.989	1215.25
883.165	1304.76
883.341	1214.86
883.517	1263.88
883.693	1264.46
883.869	1285.77
884.044	1208.66
884.22	1287.51
884.396	1278.8
884.572	1249.93
884.747	1301.46
884.923	1271.63
885.099	1286.35
885.275	1321.61
885.45	1251.48
885.626	1263.88
885.801	1222.22
885.977	1252.64
886.153	1205.37
886.328	1254.19
886.504	1217.38
886.679	1240.05
886.855	1223
887.03	1246.25
887.206	1289.45
887.381	1230.94
887.557	1267.56
887.732	1273.76
887.908	1260.78
888.083	1270.08
888.258	1247.02
888.434	1201.88
888.609	1242.37
888.784	1267.75
888.96	1226.1
889.135	1220.67
889.31	1218.35
889.485	1255.16
889.661	1229.39
889.836	1265.23
890.011	1266.01
890.186	1241.79
890.361	1183.86
890.537	1219.7
890.712	1221.25
890.887	1225.9
891.062	1263.88
891.237	1303.4
891.412	1190.45
891.587	1251.09
891.762	1266.4
891.937	1301.85
892.112	1231.52
892.287	1247.02
892.462	1163.13
892.637	1173.2
892.812	1164.68
892.987	1119.92
893.161	1158.87
893.336	1162.94
893.511	1163.52
893.686	1171.85
893.861	1148.99
894.035	1139.3
894.21	1130
894.385	1081.37
894.56	1150.54
894.734	1074.78
894.909	1073.42
895.084	1099.77
895.258	1056.96
895.433	1072.26
895.608	1036.03
895.782	1001.54
895.957	1010.46
896.131	1028.47
896.306	939.74
896.48	916.68
896.655	968.99
896.829	861.66
897.004	915.71
897.178	908.93
897.353	885.68
897.527	943.81
897.701	892.08
897.876	867.08
898.05	944
898.224	904.67
898.399	954.46
898.573	897.31
898.747	775.25
898.921	811.48
899.096	714.6
899.27	732.04
899.444	741.15
899.618	781.64
899.792	789.2
899.967	777.57
900.141	864.37
900.315	789
900.489	810.12
900.663	814
900.837	754.71
901.011	761.49
901.185	852.94
901.359	780.28
901.533	798.5
901.707	784.35
901.881	805.47
902.055	745.8
902.229	769.05
902.403	846.55
902.576	802.57
902.75	789.78
902.924	927.53
903.098	851.58
903.272	881.42
903.446	938.19
903.619	928.7
903.793	955.24
903.967	912.42
904.14	1011.62
904.314	971.13
904.488	913.39
904.661	977.52
904.835	943.42
905.009	989.92
905.182	1007.16
905.356	1005.42
905.529	956.4
905.703	882
905.876	930.44
906.05	891.11
906.223	897.89
906.397	838.41
906.57	810.12
906.744	792.1
906.917	805.86
907.09	781.83
907.264	748.12
907.437	730.1
907.61	724.1
907.784	726.04
907.957	751.03
908.13	702.98
908.304	776.02
908.477	677.4
908.65	725.26
908.823	659.39
908.996	771.37
909.17	677.4
909.343	699.69
909.516	720.8
909.689	681.47
909.862	668.69
910.035	698.33
910.208	664.81
910.381	655.71
910.554	750.64
910.727	698.72
910.9	685.15
911.073	663.65
911.246	747.74
911.419	727.39
911.592	738.63
911.765	668.49
911.938	704.34
912.11	685.15
912.283	688.25
912.456	734.95
912.629	702.59
912.802	654.74
912.974	671.4
913.147	615.02
913.32	542.36
913.493	578.01
913.665	606.49
913.838	584.41
914.01	585.57
914.183	602.81
914.356	622.38
914.528	648.92
914.701	687.87
914.873	687.67
915.046	621.8
915.218	582.08
915.391	539.26
915.563	535
915.736	600.49
915.908	599.91
916.081	580.14
916.253	576.27
916.425	621.99
916.598	636.14
916.77	637.88
916.942	581.69
917.115	498.77
917.287	593.32
917.459	581.69
917.632	523.38
917.804	492.38
917.976	563.29
918.148	580.14
918.32	568.71
918.493	623.35
918.665	617.92
918.837	618.12
919.009	677.4
919.181	646.02
919.353	629.36
919.525	621.02
919.697	619.86
919.869	597.77
920.041	688.45
920.213	759.55
920.385	654.35
920.557	626.26
920.729	644.86
920.901	653.96
921.073	593.32
921.244	614.63
921.416	621.8
921.588	606.3
921.76	588.47
921.932	662.1
922.103	602.62
922.275	611.53
922.447	605.52
922.619	546.63
922.79	621.02
922.962	587.7
923.134	608.04
923.305	541.98
923.477	528.03
923.648	521.44
923.82	577.43
923.991	511.75
924.163	495.28
924.335	535
924.506	496.44
924.677	575.49
924.849	487.53
925.02	538.29
925.192	575.11
925.363	548.56
925.535	514.85
925.706	514.66
925.877	577.63
926.049	534.23
926.22	540.23
926.391	554.38
926.562	570.26
926.734	496.44
926.905	547.4
927.076	460.02
927.247	523.57
927.419	463.31
927.59	470.29
927.761	467
927.932	427.28
928.103	491.99
928.274	412.16
928.445	392.98
928.616	441.23
928.787	407.32
928.958	461.57
929.129	425.73
929.3	396.28
929.471	368.18
929.642	325.95
929.813	293.79
929.984	357.33
930.155	276.74
930.326	329.82
930.496	304.64
930.667	222.87
930.838	300.18
931.009	222.1
931.18	227.91
931.35	240.12
931.521	278.67
931.692	144.21
931.863	144.21
932.033	195.17
932.204	187.42
932.374	210.47
932.545	129.29
932.716	219.39
932.886	215.51
933.057	99.84
933.227	126
933.398	212.61
933.568	90.93
933.739	33
933.909	68.26
934.08	138.01
934.25	44.63
934.421	72.14
934.591	132.78
934.761	71.75
934.932	41.91
935.102	120.96
935.272	98.1
935.443	90.35
935.613	99.84
935.783	113.41
935.953	76.21
936.123	246.9
936.294	78.73
936.464	85.89
936.634	109.34
936.804	28.35
936.974	5.88
937.144	106.82
937.314	120.58
937.484	92.29
937.655	18.86
937.825	127.74
937.995	62.45
938.165	120.58
938.334	98.68
938.504	112.44
938.674	89.96
938.844	162.62
939.014	173.27
939.184	163.59
939.354	216.09
939.524	232.76
939.694	142.08
939.863	143.63
940.033	208.34
940.203	209.31
940.373	191.87
940.542	200.4
940.712	148.28
940.882	187.03
941.051	193.04
941.221	180.25
941.391	219.77
941.56	144.02
941.73	148.47
941.899	266.08
942.069	141.5
942.238	181.02
942.408	143.05
942.577	184.9
942.747	140.73
942.916	77.56
943.086	102.75
943.255	176.57
943.425	171.92
943.594	113.99
943.763	47.73
943.933	111.08
944.102	18.86
944.271	116.51
944.441	140.53
944.61	101.78
944.779	112.05
944.948	224.23
945.117	103.72
945.287	99.07
945.456	41.91
945.625	86.28
945.794	110.69
945.963	92.68
946.132	119.61
946.301	67.88
946.47	155.06
946.639	52.38
946.808	87.64
946.977	113.02
947.146	201.37
947.315	101.59
947.484	140.53
947.653	98.49
947.822	95.97
947.991	82.41
948.16	176.76
948.329	127.55
948.498	84.73
948.666	111.66
948.835	151.19
949.004	65.36
949.173	79.69
949.341	114.76
949.51	153.51
949.679	141.89
949.847	117.86
950.016	201.37
950.185	181.02
950.353	95.58
950.522	130.65
950.69	171.53
950.859	103.72
951.028	160.49
951.196	158.94
951.365	103.72
951.533	80.86
951.701	138.4
951.87	143.44
952.038	73.88
952.207	99.65
952.375	206.21
952.543	89.58
952.712	126.78
952.88	102.17
953.048	176.37
953.217	157.58
953.385	95.58
953.553	165.91
953.721	87.83
953.89	98.49
954.058	80.47
954.226	96.36
954.394	146.34
954.562	68.65
954.73	108.18
954.898	102.17
955.067	163.59
955.235	86.28
955.403	147.31
955.571	180.83
955.739	112.05
955.907	76.4
956.075	94.23
956.243	87.44
956.41	126.78
956.578	72.33
956.746	50.05
956.914	68.84
957.082	146.15
957.25	146.92
957.418	95.78
957.585	129.68
957.753	164.56
957.921	77.95
958.089	112.24
958.256	126.19
958.424	132.39
958.592	121.74
958.759	77.56
958.927	132.78
959.095	56.45
959.262	107.98
959.43	107.98
959.597	74.85
959.765	123.87
959.932	78.53
960.1	120.96
960.267	143.63
960.435	139.37
960.602	141.69
960.77	86.28
960.937	69.04
961.104	130.46
961.272	35.13
961.439	86.67
961.606	125.61
961.774	139.95
961.941	100.43
962.108	126.19
962.275	119.99
962.443	156.42
962.61	126.78
962.777	206.02
962.944	148.28
963.111	160.49
963.278	121.16
963.446	104.3
963.613	114.76
963.78	141.89
963.947	155.06
964.114	141.89
964.281	194.78
964.448	147.7
964.615	106.04
964.782	126.78
964.949	153.51
965.116	148.28
965.282	166.11
965.449	116.12
965.616	80.86
965.783	141.69
965.95	138.98
966.117	92.48
966.283	113.41
966.45	141.5
966.617	151.19
966.784	190.32
966.95	173.66
967.117	171.92
967.284	144.99
967.45	110.69
967.617	179.86
967.784	166.3
967.95	195.56
968.117	142.28
968.283	176.57
968.45	217.64
968.616	155.84
968.783	167.07
968.949	164.56
969.116	193.62
969.282	144.99
969.449	144.6
969.615	148.47
969.781	100.43
969.948	140.34
970.114	101.39
970.28	198.66
970.447	164.56
970.613	215.9
970.779	157.19
970.945	167.85
971.112	147.12
971.278	140.53
971.444	160.87
971.61	186.06
971.776	106.24
971.942	180.83
972.108	174.82
972.275	137.24
972.441	154.87
972.607	244.96
972.773	124.64
972.939	189.16
973.105	133.94
973.271	118.83
973.437	101.98
973.602	104.69
973.768	176.18
973.934	151.38
974.1	147.12
974.266	75.43
974.432	159.32
974.598	119.99
974.763	160.29
974.929	129.88
975.095	203.5
975.261	120.38
975.426	81.24
975.592	138.21
975.758	192.65
975.923	76.4
976.089	127.94
976.255	174.05
976.42	161.84
976.586	164.94
976.751	140.14
976.917	223.65
977.082	165.52
977.248	91.32
977.413	61.29
977.579	118.06
977.744	110.31
977.91	82.6
978.075	73.88
978.24	128.33
978.406	131.43
978.571	117.48
978.736	89.77
978.902	138.4
979.067	94.03
979.232	30.87
979.397	125.42
979.563	161.46
979.728	74.66
979.893	95.78
980.058	87.06
980.223	165.72
980.388	132.78
980.554	141.31
980.719	92.87
980.884	117.48
981.049	149.25
981.214	86.28
981.379	133.36
981.544	110.89
981.709	101.2
981.874	101.39
982.039	136.08
982.204	148.28
982.368	99.46
982.533	104.69
982.698	154.48
982.863	176.76
983.028	91.71
983.193	136.85
983.357	130.65
983.522	127.74
983.687	113.6
983.852	98.1
984.016	92.09
984.181	138.79
984.346	147.7
984.51	139.76
984.675	133.17
984.839	129.1
985.004	132.59
985.168	171.34
985.333	108.37
985.498	97.91
985.662	132.2
985.827	134.33
985.991	120.96
986.155	97.33
986.32	165.14
986.484	172.31
986.649	129.29
986.813	54.51
986.977	134.53
987.142	138.4
987.306	74.85
987.47	96.55
987.634	91.13
987.799	117.86
987.963	117.48
988.127	138.79
988.291	193.23
988.455	101.59
988.62	104.11
988.784	132.78
988.948	123.48
989.112	69.62
989.276	120.58
989.44	98.1
989.604	107.21
989.768	82.99
989.932	207.57
990.096	58.38
990.26	79.31
990.424	59.16
990.588	115.73
990.752	197.11
990.915	151.38
991.079	78.34
991.243	84.93
991.407	135.69
991.571	98.88
991.734	132.2
991.898	142.47
992.062	179.47
992.226	88.61
992.389	77.56
992.553	41.33
992.717	68.26
992.88	88.99
993.044	103.33
993.207	92.29
993.371	139.56
993.535	104.49
993.698	113.21
993.862	120.38
994.025	130.65
994.189	94.61
994.352	117.48
994.515	119.03
994.679	130.07
994.842	71.94
995.006	119.22
995.169	65.16
995.332	50.44
995.496	117.67
995.659	9.36
995.822	84.73
995.985	79.31
996.149	137.04
996.312	62.26
996.475	165.72
996.638	96.16
996.801	138.01
996.964	161.46
997.128	77.56
997.291	74.08
997.454	95.97
997.617	32.03
997.78	132.98
997.943	51.8
998.106	148.47
998.269	55.67
998.432	93.64
998.595	99.84
998.758	61.87
998.92	48.7
999.083	15.18
999.246	70.2
999.409	42.5
999.572	-1.1
999.735	61.48
999.897	95.78
1000.06	48.11
1000.223	85.89
1000.386	108.37
1000.548	108.95
1000.711	93.45
1000.874	95
1001.036	17.5
1001.199	97.91
1001.361	43.46
1001.524	85.31
1001.687	118.83
1001.849	45.6
1002.012	77.95
1002.174	87.44
1002.337	123.68
1002.499	74.46
1002.661	125.81
1002.824	30.87
1002.986	42.69
1003.149	65.94
1003.311	52.18
1003.473	121.54
1003.636	47.73
1003.798	84.93
1003.96	88.99
1004.123	78.73
1004.285	50.63
1004.447	92.09
1004.609	55.86
1004.771	125.81
1004.933	5.1
1005.096	26.03
1005.258	-15.44
1005.42	52.96
1005.582	93.06
1005.744	79.11
1005.906	10.33
1006.068	83.38
1006.23	-5.75
1006.392	1.42
1006.554	39.59
1006.716	113.41
1006.878	66.71
1007.04	12.66
1007.202	45.4
1007.363	92.48
1007.525	63.61
1007.687	78.34
1007.849	104.49
1008.011	27.96
1008.172	28.74
1008.334	69.43
1008.496	76.21
1008.658	8.2
1008.819	25.06
1008.981	4.91
1009.143	34.55
1009.304	42.3
1009.466	71.75
1009.627	101.2
1009.789	154.67
1009.95	67.1
1010.112	46.95
1010.273	59.54
1010.435	24.28
1010.596	26.61
1010.758	41.72
1010.919	39.4
1011.081	11.5
1011.242	51.6
1011.403	57.41
1011.565	26.03
1011.726	72.53
1011.887	28.93
1012.049	9.95
1012.21	105.46
1012.371	105.66
1012.532	-34.03
1012.693	45.79
1012.855	37.85
1013.016	61.48
1013.177	93.84
1013.338	32.23
1013.499	122.13
1013.66	58.58
1013.821	73.88
1013.982	37.85
1014.143	45.6
1014.304	17.5
1014.465	53.54
1014.626	67.49
1014.787	37.07
1014.948	127.36
1015.109	-38.88
1015.27	61.68
1015.431	19.25
1015.592	11.88
1015.752	103.91
1015.913	26.41
1016.074	53.73
1016.235	60.9
1016.395	52.76
1016.556	31.26
1016.717	53.15
1016.877	97.91
1017.038	-16.02
1017.199	44.24
1017.359	41.72
1017.52	33.58
1017.681	37.85
1017.841	31.65
1018.002	45.21
1018.162	10.72
1018.323	85.12
1018.483	41.72
1018.644	33.2
1018.804	-0.9
1018.964	-14.27
1019.125	-10.4
1019.285	59.74
1019.446	-4.39
1019.606	-14.27
1019.766	-29.38
1019.926	73.69
1020.087	54.7
1020.247	-6.52
1020.407	60.71
1020.567	53.15
1020.728	29.13
1020.888	-13.11
1021.048	13.24
1021.208	9.17
1021.368	-4.97
1021.528	68.26
1021.688	70.98
1021.848	82.21
1022.008	20.21
1022.168	38.04
1022.328	16.73
1022.488	52.57
1022.648	-0.9
1022.808	16.53
1022.968	30.87
1023.128	-5.36
1023.288	24.09
1023.448	38.23
1023.608	34.55
1023.767	25.25
1023.927	8.4
1024.087	10.91
1024.247	-13.11
1024.406	13.82
1024.566	3.55
1024.726	-5.17
1024.885	36.1
1025.045	63.23
1025.205	14.6
1025.364	-2.26
1025.524	33.78
1025.683	26.8
1025.843	45.01
1026.003	12.66
1026.162	65.74
1026.321	85.89
1026.481	36.49
1026.64	-6.33
1026.8	49.08
1026.959	14.4
1027.119	10.91
1027.278	9.75
1027.437	-10.79
1027.597	9.36
1027.756	35.33
1027.915	44.24
1028.074	61.29
1028.234	1.42
1028.393	18.47
1028.552	14.4
1028.711	-47.98
1028.87	33.39
1029.03	-25.9
1029.189	-2.45
1029.348	-55.35
1029.507	5.3
1029.666	37.07
1029.825	-8.27
1029.984	-9.82
1030.143	31.45
1030.302	-17.37
1030.461	-39.85
1030.62	32.81
1030.779	59.93
1030.938	8.98
1031.097	-37.52
1031.255	38.43
1031.414	91.9
1031.573	61.29
1031.732	-25.7
1031.891	-2.84
1032.049	91.13
1032.208	59.93
1032.367	-8.27
1032.525	4.33
1032.684	16.15
1032.843	39.2
1033.001	-44.69
1033.16	155.06
1033.319	57.22
1033.477	34.55
1033.636	17.7
1033.794	-29.97
1033.953	31.65
1034.111	57.61
1034.27	-7.88
1034.428	28.35
1034.587	-12.92
1034.745	8.01
1034.903	-0.71
1035.062	35.71
1035.22	-36.94
1035.378	35.52
1035.537	-15.82
1035.695	26.03
1035.853	21.38
1036.011	41.91
1036.17	39.59
1036.328	-59.42
1036.486	35.52
1036.644	10.33
1036.802	-90.42
1036.96	-5.94
1037.119	1.81
1037.277	-28.22
1037.435	-47.02
1037.593	-4.97
1037.751	-10.01
1037.909	48.7
1038.067	48.7
