Data from gum_old_FLMT105791__29__15-42-51-259.txt Node

Date: Mon Mar 20 15:42:51 GMT 2023
User: antho
Spectrometer: FLMT10579
Trigger mode: 0
Integration Time (sec): 1.000000E-1
Scans to average: 10
Electric dark correction enabled: true
Nonlinearity correction enabled: false
Boxcar width: 0
XAxis mode: Wavelengths
Number of Pixels in Spectrum: 3648
>>>>>Begin Spectral Data<<<<<
345.248	-162.78
345.464	-162.78
345.681	-162.78
345.898	-169.37
346.114	-165.88
346.331	-50.21
346.548	17.99
346.764	21.09
346.981	4.42
347.197	-14.76
347.414	9.66
347.631	-30.84
347.847	60.8
348.064	11.59
348.28	6.36
348.497	-34.33
348.713	-1.78
348.93	16.82
349.146	23.8
349.363	15.08
349.579	45.89
349.796	45.69
350.012	19.92
350.229	66.42
350.445	45.11
350.661	10.43
350.878	53.64
351.094	34.26
351.311	56.35
351.527	67.2
351.743	29.42
351.96	59.84
352.176	52.47
352.392	42.2
352.609	84.44
352.825	28.64
353.041	57.7
353.257	42.4
353.474	56.74
353.69	40.65
353.906	44.14
354.122	19.92
354.339	81.73
354.555	67.2
354.771	25.74
354.987	106.53
355.203	115.25
355.42	50.92
355.636	14.31
355.852	25.54
356.068	19.15
356.284	27.48
356.5	103.62
356.716	57.7
356.932	34.84
357.148	76.69
357.364	45.11
357.58	94.32
357.796	102.65
358.012	79.99
358.228	72.62
358.444	-15.92
358.66	107.88
358.876	51.12
359.092	23.22
359.308	56.35
359.524	63.52
359.74	47.24
359.956	29.03
360.172	77.08
360.388	98.78
360.604	69.91
360.819	149.93
361.035	67.78
361.251	80.37
361.467	24.96
361.683	92.97
361.898	81.92
362.114	92
362.33	94.32
362.546	83.28
362.762	56.93
362.977	91.8
363.193	28.25
363.409	99.17
363.624	38.91
363.84	42.59
364.056	39.88
364.271	83.67
364.487	91.42
364.703	66.81
364.918	45.3
365.134	60.42
365.35	79.99
365.565	181.32
365.781	87.54
365.996	104.59
366.212	176.47
366.427	116.99
366.643	84.83
366.858	101.49
367.074	72.24
367.289	160.97
367.505	186.16
367.72	59.45
367.936	100.72
368.151	135.2
368.367	119.12
368.582	99.55
368.798	97.62
369.013	168.33
369.228	111.18
369.444	124.55
369.659	148.77
369.874	95.68
370.09	158.45
370.305	46.47
370.52	85.99
370.736	167.56
370.951	111.37
371.166	123.19
371.381	144.12
371.597	143.92
371.812	78.44
372.027	96.26
372.242	104.4
372.458	185.19
372.673	102.46
372.888	102.85
373.103	120.48
373.318	190.61
373.533	107.3
373.749	98.39
373.964	56.93
374.179	135.78
374.394	101.3
374.609	152.25
374.824	46.27
375.039	127.84
375.254	63.9
375.469	160.58
375.684	142.76
375.899	156.52
376.114	129.97
376.329	118.54
376.544	148.57
376.759	167.17
376.974	77.08
377.189	86.57
377.404	111.95
377.619	156.13
377.834	82.5
378.049	64.1
378.264	108.27
378.478	148.38
378.693	143.73
378.908	160.97
379.123	145.86
379.338	177.83
379.553	167.75
379.767	142.76
379.982	137.92
380.197	127.07
380.412	132.68
380.626	151.09
380.841	226.26
381.056	186.93
381.271	240.8
381.485	119.32
381.7	120.48
381.915	169.3
382.129	133.46
382.344	139.08
382.559	134.62
382.773	176.86
382.988	63.71
383.202	127.45
383.417	82.31
383.632	195.65
383.846	107.5
384.061	132.88
384.275	110.98
384.49	149.54
384.704	160.39
384.919	177.83
385.133	163.88
385.348	169.3
385.562	116.99
385.777	199.53
385.991	163.3
386.206	145.67
386.42	149.35
386.634	172.6
386.849	183.45
387.063	189.84
387.277	147.41
387.492	129
387.706	139.66
387.92	138.5
388.135	193.71
388.349	165.23
388.563	156.71
388.778	179.57
388.992	181.9
389.206	191.58
389.42	244.48
389.635	191.58
389.849	217.74
390.063	247.19
390.277	240.99
390.491	271.21
390.706	234.98
390.92	268.11
391.134	211.35
391.348	247.96
391.562	179.96
391.776	217.55
391.99	223.94
392.205	271.02
392.419	207.86
392.633	205.73
392.847	244.48
393.061	192.55
393.275	239.44
393.489	157.48
393.703	166.98
393.917	182.87
394.131	115.25
394.345	170.08
394.559	205.53
394.773	182.09
394.986	225.68
395.2	220.45
395.414	293.11
395.628	228.98
395.842	278.38
396.056	253.58
396.27	214.83
396.484	267.73
396.697	250.68
396.911	249.13
397.125	207.66
397.339	205.34
397.553	170.66
397.766	250.1
397.98	251.45
398.194	291.17
398.408	280.13
398.621	327.79
398.835	347.16
399.049	339.03
399.262	417.88
399.476	386.88
399.69	372.93
399.903	457.4
400.117	366.73
400.331	411.68
400.544	367.89
400.758	507.2
400.971	416.33
401.185	435.71
401.398	350.84
401.612	445.78
401.826	457.99
402.039	446.75
402.253	398.51
402.466	463.22
402.68	411.1
402.893	478.14
403.106	451.21
403.32	440.94
403.533	477.94
403.747	425.05
403.96	440.36
404.174	457.79
404.387	426.02
404.6	459.15
404.814	482.79
405.027	459.54
405.24	456.82
405.454	409.74
405.667	490.15
405.88	411.49
406.094	465.54
406.307	503.32
406.52	466.7
406.733	381.84
406.947	433.96
407.16	515.53
407.373	504.87
407.586	455.08
407.799	419.62
408.012	511.07
408.226	470.19
408.439	561.64
408.652	432.61
408.865	497.12
409.078	565.52
409.291	513.59
409.504	468.25
409.717	541.49
409.93	540.52
410.143	510.88
410.357	424.27
410.57	419.24
410.783	461.86
410.996	488.21
411.209	481.82
411.421	563
411.634	536.26
411.847	519.21
412.06	565.13
412.273	527.93
412.486	552.34
412.699	643.6
412.912	552.15
413.125	590.32
413.338	527.93
413.55	577.92
413.763	559.9
413.976	562.61
414.189	523.67
414.402	546.72
414.615	643.01
414.827	532.77
415.04	589.15
415.253	593.61
415.466	634.1
415.678	657.93
415.891	574.82
416.104	546.33
416.316	578.5
416.529	563.19
416.742	655.03
416.954	644.18
417.167	587.99
417.38	597.29
417.592	621.7
417.805	550.6
418.017	539.17
418.23	598.07
418.442	539.94
418.655	571.72
418.868	614.92
419.08	614.15
419.293	650.38
419.505	611.24
419.718	626.35
419.93	659.68
420.142	591.09
420.355	632.55
420.567	616.28
420.78	635.65
420.992	617.63
421.205	667.23
421.417	639.91
421.629	639.53
421.842	616.86
422.054	616.08
422.266	727.68
422.479	708.11
422.691	604.07
422.903	661.42
423.115	582.18
423.328	606.01
423.54	612.79
423.752	638.75
423.964	627.71
424.177	675.18
424.389	646.89
424.601	761.78
424.813	681.57
425.025	721.09
425.238	690.87
425.45	663.75
425.662	651.54
425.874	948.75
426.086	661.81
426.298	679.05
426.51	685.83
426.722	683.31
426.934	659.29
427.146	708.89
427.358	638.17
427.57	702.88
427.782	614.92
427.994	655.61
428.206	609.3
428.418	645.15
428.63	735.43
428.842	752.87
429.054	680.02
429.266	716.44
429.478	640.69
429.69	671.3
429.902	603.3
430.114	674.21
430.325	621.32
430.537	603.88
430.749	561.45
430.961	499.84
431.173	527.54
431.384	557.77
431.596	497.9
431.808	602.33
432.02	691.06
432.231	774.76
432.443	859.24
432.655	797.43
432.867	743.76
433.078	767.59
433.29	792.01
433.502	808.47
433.713	830.76
433.925	816.81
434.136	843.35
434.348	714.31
434.56	689.32
434.771	831.34
434.983	681.18
435.194	770.89
435.406	791.62
435.617	842.96
435.829	940.8
436.04	869.7
436.252	866.02
436.463	909.03
436.675	941.97
436.886	947.97
437.098	938.48
437.309	958.82
437.521	897.4
437.732	915.42
437.943	856.33
438.155	905.93
438.366	824.17
438.578	929.95
438.789	850.52
439	837.92
439.211	838.51
439.423	849.36
439.634	899.92
439.845	883.65
440.057	920.07
440.268	925.5
440.479	907.67
440.69	927.82
440.902	921.24
441.113	881.91
441.324	899.54
441.535	966.57
441.746	1035.74
441.957	944.49
442.168	973.94
442.38	1038.65
442.591	1037.87
442.802	933.05
443.013	1027.02
443.224	1052.79
443.435	1016.75
443.646	1016.56
443.857	1003.19
444.068	993.5
444.279	1001.64
444.49	1102.58
444.701	1024.31
444.912	1151.6
445.123	1081.46
445.334	1062.48
445.545	1060.93
445.756	1044.46
445.967	1024.89
446.178	1035.35
446.388	1035.74
446.599	1031.09
446.81	1032.25
447.021	1026.25
447.232	1062.09
447.443	1084.76
447.653	1046.2
447.864	1125.83
448.075	1096.19
448.286	1140.36
448.496	1093.09
448.707	1116.34
448.918	1051.82
449.129	1172.33
449.339	1102.97
449.55	1150.83
449.761	1104.52
449.971	1135.91
450.182	1115.56
450.393	1171.94
450.603	1112.85
450.814	1182.99
451.024	1204.49
451.235	1217.86
451.446	1263.2
451.656	1266.11
451.867	1174.85
452.077	1188.61
452.288	1213.79
452.498	1225.42
452.709	1163.81
452.919	1136.1
453.13	1121.18
453.34	1134.55
453.55	1065
453.761	1140.95
453.971	1125.45
454.182	1141.72
454.392	1157.8
454.602	1238.4
454.813	1188.03
455.023	1203.14
455.233	1137.46
455.444	1185.7
455.654	1074.88
455.864	1141.91
456.075	1174.46
456.285	1134.55
456.495	1201.59
456.705	1192.87
456.916	1252.74
457.126	1298.66
457.336	1229.88
457.546	1166.13
457.756	1212.44
457.967	1271.53
458.177	1202.17
458.387	1241.5
458.597	1205.27
458.807	1191.13
459.017	1181.63
459.227	1165.74
459.437	1191.32
459.647	1236.85
459.857	1259.13
460.068	1214.38
460.278	1282.57
460.488	1231.23
460.698	1310.09
460.908	1210.89
461.117	1238.79
461.327	1249.06
461.537	1285.29
461.747	1301.76
461.957	1271.14
462.167	1420.33
462.377	1390.88
462.587	1299.43
462.797	1373.64
463.007	1288.39
463.216	1406.57
463.426	1425.37
463.636	1351.35
463.846	1276.37
464.056	1282.77
464.265	1347.87
464.475	1274.44
464.685	1331.98
464.895	1356.59
465.104	1296.14
465.314	1373.25
465.524	1305.05
465.733	1260.68
465.943	1403.28
466.153	1416.65
466.362	1423.04
466.572	1380.61
466.782	1335.47
466.991	1383.71
467.201	1396.5
467.41	1296.33
467.62	1360.65
467.829	1371.89
468.039	1385.07
468.249	1397.08
468.458	1385.65
468.668	1425.95
468.877	1448.81
469.086	1484.85
469.296	1480.58
469.505	1451.33
469.715	1525.92
469.924	1480.78
470.134	1537.16
470.343	1469.93
470.552	1445.13
470.762	1443.38
470.971	1418.58
471.18	1495.5
471.39	1481.55
471.599	1436.99
471.808	1532.9
472.018	1542.58
472.227	1599.35
472.436	1607.1
472.645	1573.97
472.855	1577.07
473.064	1673.36
473.273	1664.84
473.482	1646.63
473.691	1651.86
473.901	1659.22
474.11	1578.43
474.319	1696.42
474.528	1650.5
474.737	1752.02
474.946	1710.56
475.155	1757.64
475.364	1752.22
475.573	1735.36
475.783	1780.5
475.992	1729.55
476.201	1783.8
476.41	1765.59
476.619	1677.62
476.828	1739.43
477.037	1740.01
477.245	1736.33
477.454	1768.3
477.663	1748.73
477.872	1825.26
478.081	1873.31
478.29	1831.07
478.499	1921.36
478.708	1921.55
478.917	1944.41
479.125	1871.37
479.334	1881.64
479.543	1896.56
479.752	1924.85
479.961	1965.15
480.169	1984.71
480.378	1951.39
480.587	2089.14
480.796	2014.16
481.004	1993.05
481.213	2013.39
481.422	2020.95
481.63	2074.23
481.839	2084.88
482.048	2180.98
482.256	2075.97
482.465	2186.79
482.674	2154.82
482.882	2172.07
483.091	2185.05
483.299	2131.38
483.508	2189.89
483.716	2222.64
483.925	2184.66
484.134	2129.44
484.342	2189.7
484.551	2202.68
484.759	2201.9
484.967	2278.24
485.176	2245.11
485.384	2293.55
485.593	2219.34
485.801	2227.09
486.01	2154.24
486.218	2039.54
486.426	1971.35
486.635	1911.87
486.843	1869.05
487.051	1955.65
487.26	1978.32
487.468	2083.53
487.676	2128.28
487.885	2154.63
488.093	2183.11
488.301	2251.7
488.509	2304.98
488.717	2353.22
488.926	2330.75
489.134	2320.09
489.342	2333.07
489.55	2273.98
489.758	2284.44
489.967	2334.43
490.175	2459.01
490.383	2393.71
490.591	2536.31
490.799	2468.69
491.007	2462.11
491.215	2475.09
491.423	2436.92
491.631	2454.55
491.839	2403.4
492.047	2437.11
492.255	2365.82
492.463	2315.63
492.671	2340.82
492.879	2419.68
493.087	2402.05
493.295	2457.46
493.503	2449.71
493.711	2550.07
493.919	2557.04
494.127	2569.64
494.334	2548.52
494.542	2454.55
494.75	2579.32
494.958	2539.22
495.166	2665.15
495.374	2661.67
495.581	2687.05
495.789	2663.22
495.997	2685.69
496.205	2586.3
496.412	2618.66
496.62	2605.29
496.828	2629.89
497.035	2640.55
497.243	2722.31
497.451	2665.15
497.658	2685.69
497.866	2649.27
498.074	2738.97
498.281	2635.71
498.489	2724.44
498.696	2671.55
498.904	2600.83
499.112	2599.09
499.319	2664.77
499.527	2651.59
499.734	2713.4
499.942	2628.92
500.149	2633.19
500.357	2691.89
500.564	2619.43
500.771	2648.88
500.979	2568.67
501.186	2572.74
501.394	2625.82
501.601	2599.86
501.808	2571.38
502.016	2595.02
502.223	2558.79
502.43	2648.3
502.638	2616.52
502.845	2601.22
503.052	2712.43
503.26	2661.67
503.467	2793.8
503.674	2749.05
503.881	2767.65
504.089	2822.48
504.296	2752.34
504.503	2667.67
504.71	2673.1
504.917	2686.66
505.125	2679.69
505.332	2724.63
505.539	2749.24
505.746	2834.68
505.953	2831.97
506.16	2819.18
506.367	2891.26
506.574	2923.81
506.781	2893
506.988	2851.35
507.195	2880.41
507.402	2809.5
507.609	2852.12
507.816	2783.15
508.023	2787.99
508.23	2785.86
508.437	2716.11
508.644	2777.53
508.851	2818.02
509.058	2870.91
509.265	2799.81
509.472	2896.68
509.679	2934.08
509.885	2850.76
510.092	2857.16
510.299	2880.6
510.506	2820.93
510.713	2830.03
510.92	2839.53
511.126	2868.59
511.333	2937.76
511.54	2887.96
511.746	2965.08
511.953	2954.03
512.16	2984.84
512.367	2917.03
512.573	2923.03
512.78	2893.39
512.987	2900.36
513.193	2865.1
513.4	2790.32
513.606	2828.1
513.813	2884.28
514.02	2844.95
514.226	2918.58
514.433	2882.35
514.639	2793.8
514.846	2850.38
515.052	2778.3
515.259	2830.61
515.465	2851.54
515.672	2912.76
515.878	2985.23
516.085	2960.04
516.291	2956.55
516.497	2880.99
516.704	2876.73
516.91	2747.3
517.117	2663.6
517.323	2600.83
517.529	2592.69
517.736	2565.37
517.942	2558.21
518.148	2661.86
518.354	2686.66
518.561	2724.44
518.767	2707.97
518.973	2742.27
519.179	2781.02
519.386	2816.28
519.592	2737.81
519.798	2823.64
520.004	2941.83
520.21	2929.43
520.417	2975.15
520.623	2990.65
520.829	3027.46
521.035	3004.21
521.241	3001.11
521.447	3032.11
521.653	3161.53
521.859	2985.23
522.065	3041.02
522.271	3177.62
522.477	3136.74
522.683	3161.73
522.889	3079.39
523.095	3115.04
523.301	3049.94
523.507	3016.42
523.713	3048
523.919	3024.94
524.125	3160.18
524.331	3159.99
524.537	3250.66
524.742	3294.64
524.948	3266.16
525.154	3287.86
525.36	3376.98
525.566	3234.77
525.772	3306.46
525.977	3225.86
526.183	3240.2
526.389	3315.76
526.595	3202.22
526.8	3159.4
527.006	3040.25
527.212	2993.56
527.417	2958.29
527.623	2967.01
527.829	3067.57
528.034	3102.44
528.24	3114.65
528.446	3131.12
528.651	3316.92
528.857	3292.51
529.062	3343.85
529.268	3350.24
529.473	3378.14
529.679	3423.87
529.884	3459.71
530.09	3486.64
530.295	3423.09
530.501	3418.44
530.706	3457.97
530.912	3402.17
531.117	3440.14
531.323	3445.37
531.528	3532.75
531.733	3525.2
531.939	3437.04
532.144	3496.33
532.35	3496.72
532.555	3572.67
532.76	3458.36
532.966	3423.87
533.171	3398.1
533.376	3329.71
533.581	3313.05
533.787	3366.13
533.992	3440.14
534.197	3443.82
534.402	3474.44
534.607	3466.88
534.813	3501.37
535.018	3471.34
535.223	3511.05
535.428	3517.64
535.633	3539.34
535.838	3517.45
536.043	3600.57
536.249	3679.42
536.454	3591.46
536.659	3623.43
536.864	3601.92
537.069	3512.22
537.274	3525.39
537.479	3521.52
537.684	3463.2
537.889	3437.82
538.094	3659.47
538.299	3539.92
538.504	3532.37
538.708	3583.32
538.913	3636.8
539.118	3628.85
539.323	3558.52
539.528	3556
539.733	3522.29
539.938	3538.57
540.142	3550.77
540.347	3501.56
540.552	3509.51
540.757	3453.12
540.962	3512.99
541.166	3369.62
541.371	3382.41
541.576	3444.99
541.781	3376.21
541.985	3536.44
542.19	3506.99
542.395	3675.35
542.599	3678.84
542.804	3619.17
543.008	3649.78
543.213	3565.89
543.418	3524.62
543.622	3626.53
543.827	3536.24
544.031	3647.65
544.236	3638.15
544.44	3669.73
544.645	3762.35
544.849	3656.17
545.054	3694.73
545.258	3782.3
545.463	3717.01
545.667	3638.93
545.872	3730.18
546.076	3673.22
546.281	3685.43
546.485	3636.41
546.689	3695.11
546.894	3693.18
547.098	3704.61
547.302	3620.91
547.507	3664.12
547.711	3674.38
547.915	3729.99
548.119	3644.74
548.324	3644.55
548.528	3688.33
548.732	3586.62
548.936	3708.1
549.141	3684.27
549.345	3633.7
549.549	3700.73
549.753	3750.33
549.957	3788.89
550.161	3781.14
550.366	3730.57
550.57	3676.9
550.774	3676.52
550.978	3707.9
551.182	3717.01
551.386	3650.17
551.59	3682.33
551.794	3636.41
551.998	3731.15
552.202	3669.15
552.406	3620.91
552.61	3730.38
552.814	3748.2
553.018	3722.82
553.222	3643.97
553.426	3658.69
553.63	3732.12
553.833	3682.13
554.037	3599.4
554.241	3673.61
554.445	3674
554.649	3634.08
554.853	3616.07
555.056	3716.04
555.26	3707.51
555.464	3659.27
555.668	3696.08
555.871	3690.46
556.075	3706.74
556.279	3606.77
556.483	3594.75
556.686	3635.44
556.89	3649.39
557.094	3621.88
557.297	3529.65
557.501	3603.28
557.704	3463.78
557.908	3556
558.112	3531.2
558.315	3630.6
558.519	3502.14
558.722	3530.82
558.926	3509.51
559.129	3424.45
559.333	3481.02
559.536	3441.5
559.74	3417.09
559.943	3387.64
560.147	3411.66
560.35	3373.88
560.553	3419.03
560.757	3350.44
560.96	3497.11
561.164	3446.73
561.367	3579.25
561.57	3512.99
561.774	3423.87
561.977	3486.26
562.18	3442.47
562.384	3559.49
562.587	3410.69
562.79	3427.55
562.993	3406.43
563.197	3408.37
563.4	3494.2
563.603	3481.02
563.806	3503.89
564.009	3431.04
564.212	3487.42
564.416	3378.92
564.619	3399.07
564.822	3358.58
565.025	3399.84
565.228	3349.86
565.431	3378.14
565.634	3271.39
565.837	3283.79
566.04	3273.52
566.243	3265.38
566.446	3139.45
566.649	3325.45
566.852	3194.08
567.055	3220.82
567.258	3260.54
567.461	3294.45
567.664	3325.06
567.867	3248.33
568.07	3230.32
568.273	3270.23
568.475	3301.81
568.678	3262.48
568.881	3227.22
569.084	3220.24
569.287	3040.06
569.489	3150.3
569.692	3189.05
569.895	3201.25
570.098	3153.59
570.3	3108.25
570.503	3066.21
570.706	3073.77
570.909	3070.67
571.111	2969.34
571.314	3009.64
571.516	3049.55
571.719	3070.28
571.922	3003.44
572.124	3060.79
572.327	3063.31
572.529	3077.25
572.732	3056.33
572.935	3057.3
573.137	3142.55
573.34	3095.66
573.542	3153.2
573.745	3092.17
573.947	3082.68
574.15	3064.86
574.352	3038.31
574.554	3143.13
574.757	3034.63
574.959	3022.23
575.162	3034.05
575.364	2978.64
575.566	3111.55
575.769	2966.04
575.971	2990.07
576.173	2853.67
576.376	2970.5
576.578	3034.05
576.78	3013.12
576.982	2904.43
577.185	2959.84
577.387	2923.81
577.589	2931.17
577.791	2987.36
577.993	2945.51
578.196	2924.78
578.398	2943.18
578.6	2952.68
578.802	2841.08
579.004	2867.81
579.206	2865.88
579.408	2905.21
579.61	2835.46
579.812	2909.08
580.014	2887.38
580.216	2904.04
580.418	2874.21
580.62	2847.86
580.822	2849.41
581.024	2875.76
581.226	2880.02
581.428	2862.2
581.63	2962.17
581.832	2841.27
582.034	2920.9
582.236	2876.73
582.438	2917.8
582.64	2954.03
582.841	3001.11
583.043	3016.81
583.245	2903.85
583.447	2921.48
583.649	2923.23
583.85	2898.23
584.052	2926.91
584.254	2868.4
584.456	2976.7
584.657	2876.73
584.859	2941.05
585.061	2888.74
585.262	2873.63
585.464	2838.75
585.666	2904.24
585.867	2798.84
586.069	2908.89
586.27	2832.55
586.472	2790.12
586.674	2772.68
586.875	2843.6
587.077	2812.98
587.278	2820.15
587.48	2836.23
587.681	2926.91
587.883	2837.78
588.084	2725.41
588.285	2821.12
588.487	2782.57
588.688	2822.28
588.89	2699.06
589.091	2670
589.292	2608.77
589.494	2519.84
589.695	2503.18
589.896	2416
590.098	2438.47
590.299	2499.31
590.5	2468.31
590.702	2520.62
590.903	2565.76
591.104	2638.61
591.305	2681.24
591.507	2719.79
591.708	2656.05
591.909	2615.94
592.11	2661.67
592.311	2675.42
592.512	2614.78
592.714	2563.63
592.915	2624.27
593.116	2626.02
593.317	2638.42
593.518	2642.1
593.719	2655.85
593.92	2685.11
594.121	2682.4
594.322	2653.72
594.523	2662.05
594.724	2593.08
594.925	2635.71
595.126	2598.51
595.327	2620.79
595.528	2628.92
595.729	2655.27
595.929	2598.7
596.13	2650.04
596.331	2642.1
596.532	2631.06
596.733	2688.79
596.934	2663.22
597.135	2687.63
597.335	2619.82
597.536	2612.46
597.737	2601.22
597.938	2598.89
598.138	2643.07
598.339	2571.96
598.54	2628.34
598.74	2588.62
598.941	2604.12
599.142	2640.55
599.342	2626.21
599.543	2560.14
599.744	2584.75
599.944	2575.06
600.145	2605.67
600.345	2610.52
600.546	2686.27
600.746	2601.99
600.947	2686.27
601.147	2600.83
601.348	2652.56
601.548	2538.06
601.749	2590.37
601.949	2514.81
602.15	2549.68
602.35	2524.11
602.551	2577.58
602.751	2586.69
602.951	2545.81
603.152	2517.33
603.352	2640.74
603.552	2560.72
603.753	2669.8
603.953	2609.94
604.153	2613.23
604.354	2604.32
604.554	2592.11
604.754	2639
604.954	2569.83
605.155	2615.75
605.355	2555.69
605.555	2628.54
605.755	2648.3
605.955	2606.84
606.155	2629.89
606.356	2576.22
606.556	2619.04
606.756	2600.44
606.956	2558.21
607.156	2601.02
607.356	2521.78
607.556	2580.49
607.756	2587.07
607.956	2599.47
608.156	2553.36
608.356	2512.68
608.556	2592.89
608.756	2532.24
608.956	2527.21
609.156	2555.69
609.356	2504.73
609.556	2496.59
609.755	2498.53
609.955	2499.5
610.155	2512.87
610.355	2523.33
610.555	2525.85
610.755	2502.02
610.954	2437.11
611.154	2512.48
611.354	2483.61
611.554	2438.66
611.753	2496.21
611.953	2430.14
612.153	2516.74
612.352	2502.6
612.552	2406.31
612.752	2431.88
612.951	2435.76
613.151	2454.94
613.351	2417.35
613.55	2406.7
613.75	2457.85
613.949	2428.4
614.149	2467.34
614.348	2404.56
614.548	2368.33
614.747	2354.38
614.947	2379.18
615.146	2354.77
615.346	2459.98
615.545	2396.04
615.745	2409.21
615.944	2455.91
616.144	2367.56
616.343	2400.88
616.542	2370.85
616.742	2380.54
616.941	2356.9
617.14	2268.75
617.34	2322.42
617.539	2349.15
617.738	2339.08
617.938	2430.33
618.137	2356.9
618.336	2360
618.535	2410.38
618.734	2394.49
618.934	2413.28
619.133	2403.4
619.332	2416.19
619.531	2323.38
619.73	2409.21
619.929	2425.88
620.128	2429.75
620.328	2416.19
620.527	2373.18
620.726	2397.98
620.925	2416.96
621.124	2401.08
621.323	2396.43
621.522	2339.85
621.721	2367.95
621.92	2324.55
622.119	2395.26
622.318	2341.4
622.517	2333.07
622.715	2307.5
622.914	2270.88
623.113	2333.07
623.312	2212.75
623.511	2322.22
623.71	2298.97
623.909	2217.6
624.107	2312.92
624.306	2183.5
624.505	2213.92
624.704	2268.36
624.902	2217.21
625.101	2303.23
625.3	2237.36
625.499	2221.86
625.697	2199.77
625.896	2162.57
626.095	2222.83
626.293	2160.06
626.492	2171.49
626.69	2164.71
626.889	2190.47
627.088	2232.13
627.286	2163.74
627.485	2154.44
627.683	2110.46
627.882	2160.44
628.08	2147.46
628.279	2106.97
628.477	2162.19
628.676	2093.21
628.874	2148.04
629.073	2086.24
629.271	2107.16
629.469	2140.29
629.668	2102.9
629.866	2093.6
630.065	2057.18
630.263	2132.35
630.461	2084.49
630.66	2110.84
630.858	2085.85
631.056	2106.78
631.254	2150.76
631.453	2036.44
631.651	2144.94
631.849	2064.93
632.047	2083.53
632.245	2087.98
632.444	2101.35
632.642	2081.2
632.84	2179.43
633.038	2079.65
633.236	2064.15
633.434	2068.03
633.632	2067.64
633.83	2076.55
634.028	2128.86
634.227	2095.54
634.425	2189.12
634.623	2075.39
634.821	2094.57
635.019	2124.79
635.216	2133.12
635.414	2142.62
635.612	2077.71
635.81	2113.17
636.008	2153.47
636.206	2115.88
636.404	2158.51
636.602	2085.08
636.8	2118.01
636.997	2158.7
637.195	2119.17
637.393	2129.25
637.591	2175.75
637.789	2160.83
637.986	2132.74
638.184	2097.09
638.382	2177.3
638.58	2166.84
638.777	2194.54
638.975	2099.03
639.173	2148.04
639.37	2095.93
639.568	2125.37
639.765	2122.27
639.963	2077.91
640.161	2112.39
640.358	2105.61
640.556	2053.49
640.753	2043.61
640.951	2017.46
641.148	2055.82
641.346	2053.88
641.543	2044.78
641.741	2045.94
641.938	1954.49
642.136	2068.99
642.333	1970.76
642.531	2077.33
642.728	2105.42
642.925	2052.91
643.123	2051.94
643.32	2066.09
643.517	2038.77
643.715	2008.16
643.912	2032.76
644.109	2045.74
644.306	2003.9
644.504	1974.83
644.701	2025.01
644.898	2047.1
645.095	2017.07
645.293	1975.61
645.49	1992.46
645.687	2012.42
645.884	2003.9
646.081	1923.68
646.278	1941.9
646.475	1925.62
646.672	1932.02
646.87	1947.51
647.067	1913.03
647.264	1980.06
647.461	1939.57
647.658	1855.1
647.855	1931.05
648.052	1859.94
648.249	1844.44
648.446	1876.6
648.642	1898.3
648.839	1850.45
649.036	1886.48
649.233	1815.96
649.43	1839.4
649.627	1792.71
649.824	1882.03
650.021	1831.65
650.217	1806.47
650.414	1846.57
650.611	1887.07
650.808	1896.37
651.004	1858.2
651.201	1890.75
651.398	1933.76
651.595	1901.4
651.791	1867.88
651.988	1931.43
652.185	1834.56
652.381	1875.25
652.578	1814.41
652.775	1871.76
652.971	1870.4
653.168	1839.6
653.364	1888.42
653.561	1833.4
653.757	1871.76
653.954	1859.17
654.15	1837.27
654.347	1943.25
654.543	1890.75
654.74	1819.45
654.936	1847.54
655.133	1823.52
655.329	1834.37
655.525	1812.86
655.722	1818.29
655.918	1757.84
656.115	1757.26
656.311	1658.83
656.507	1590.05
656.704	1552.66
656.9	1575.91
657.096	1651.86
657.292	1592.38
657.489	1654.96
657.685	1685.57
657.881	1659.03
658.077	1707.66
658.273	1735.36
658.47	1793.68
658.666	1758.22
658.862	1819.84
659.058	1767.33
659.254	1821.58
659.45	1809.76
659.646	1831.07
659.842	1781.47
660.038	1824.1
660.234	1761.32
660.43	1818.67
660.626	1900.05
660.822	1843.67
661.018	1822.35
661.214	1832.82
661.41	1790
661.606	1849.67
661.802	1874.67
661.998	1847.93
662.194	1804.14
662.39	1823.13
662.586	1814.8
662.781	1838.44
662.977	1857.81
663.173	1835.92
663.369	1783.99
663.564	1838.05
663.76	1828.55
663.956	1782.64
664.152	1780.7
664.347	1699.13
664.543	1756.09
664.739	1769.27
664.934	1693.32
665.13	1696.22
665.326	1770.24
665.521	1772.95
665.717	1717.92
665.912	1689.25
666.108	1691.38
666.304	1747.37
666.499	1758.61
666.695	1672.39
666.89	1738.85
667.086	1774.11
667.281	1746.21
667.477	1815.57
667.672	1699.71
667.867	1732.46
668.063	1746.02
668.258	1692.35
668.454	1735.56
668.649	1795.62
668.844	1753.57
669.04	1734.97
669.235	1715.41
669.43	1691.19
669.626	1632.29
669.821	1702.42
670.016	1713.86
670.211	1712.31
670.407	1665.61
670.602	1705.72
670.797	1681.69
670.992	1718.51
671.187	1694.87
671.382	1750.28
671.578	1692.74
671.773	1708.43
671.968	1623.96
672.163	1684.99
672.358	1722.57
672.553	1643.33
672.748	1676.66
672.943	1766.17
673.138	1661.93
673.333	1662.9
673.528	1610.01
673.723	1690.99
673.918	1637.13
674.113	1660.96
674.308	1781.86
674.503	1700.1
674.698	1707.66
674.892	1669.68
675.087	1667.74
675.282	1678.01
675.477	1637.91
675.672	1699.13
675.867	1630.35
676.061	1643.33
676.256	1591.79
676.451	1613.88
676.646	1654.38
676.84	1648.76
677.035	1614.85
677.23	1648.95
677.424	1672.39
677.619	1634.61
677.814	1722.38
678.008	1704.56
678.203	1597.03
678.397	1619.5
678.592	1656.7
678.787	1685.76
678.981	1617.56
679.176	1651.28
679.37	1657.09
679.565	1636.55
679.759	1632.87
679.954	1646.82
680.148	1674.72
680.342	1691.77
680.537	1622.02
680.731	1610.98
680.926	1677.62
681.12	1639.07
681.314	1646.63
681.509	1615.82
681.703	1583.66
681.897	1659.99
682.092	1565.25
682.286	1580.17
682.48	1663.87
682.674	1633.84
682.869	1572.61
683.063	1653.79
683.257	1691.77
683.451	1574.36
683.645	1599.93
683.839	1587.15
684.034	1582.69
684.228	1613.3
684.422	1514.88
684.616	1534.83
684.81	1570.1
685.004	1546.26
685.198	1558.66
685.392	1575.52
685.586	1568.16
685.78	1584.24
685.974	1608.84
686.168	1609.04
686.362	1629.19
686.556	1511.58
686.75	1457.33
686.944	1432.92
687.138	1386.62
687.331	1306.6
687.525	1265.72
687.719	1219.99
687.913	1303.11
688.107	1305.05
688.301	1254.48
688.494	1350.97
688.688	1288.97
688.882	1264.56
689.076	1267.27
689.269	1325.97
689.463	1401.73
689.657	1307.37
689.85	1323.46
690.044	1332.17
690.238	1316.67
690.431	1341.28
690.625	1309.31
690.818	1393.79
691.012	1367.63
691.205	1408.7
691.399	1356
691.593	1405.02
691.786	1428.85
691.98	1467.41
692.173	1491.05
692.366	1405.22
692.56	1445.32
692.753	1488.92
692.947	1404.44
693.14	1500.73
693.333	1465.86
693.527	1414.52
693.72	1499.57
693.914	1462.57
694.107	1433.89
694.3	1465.67
694.493	1428.66
694.687	1490.27
694.88	1380.22
695.073	1481.36
695.266	1459.27
695.46	1446.29
695.653	1481.55
695.846	1492.79
696.039	1413.93
696.232	1433.89
696.425	1508.48
696.618	1503.06
696.812	1521.66
697.005	1577.26
697.198	1668.13
697.391	1567
697.584	1604
697.777	1647.98
697.97	1606.13
698.163	1612.53
698.356	1601.87
698.549	1674.91
698.742	1662.51
698.935	1587.73
699.127	1645.08
699.32	1581.33
699.513	1596.83
699.706	1647.79
699.899	1646.24
700.092	1607.49
700.285	1631.13
700.477	1589.08
700.67	1664.06
700.863	1655.73
701.056	1764.81
701.248	1710.17
701.441	1744.47
701.634	1658.83
701.826	1789.03
702.019	1663.87
702.212	1737.88
702.404	1711.14
702.597	1690.22
702.79	1714.05
702.982	1719.67
703.175	1797.36
703.367	1802.98
703.56	1783.02
703.752	1904.7
703.945	1864.2
704.137	1856.26
704.33	1914.77
704.522	1926.98
704.715	1916.71
704.907	1960.3
705.1	1998.47
705.292	1990.33
705.484	1995.56
705.677	2040.51
705.869	2038.38
706.061	2048.84
706.254	2096.7
706.446	2037.41
706.638	2066.09
706.831	2146.69
707.023	2083.72
707.215	2209.07
707.407	2224.38
707.599	2195.32
707.792	2246.85
707.984	2262.16
708.176	2271.46
708.368	2228.06
708.56	2280.37
708.752	2259.84
708.944	2226.51
709.136	2332.88
709.329	2318.54
709.521	2395.46
709.713	2353.61
709.905	2395.26
710.097	2439.63
710.289	2412.31
710.481	2440.41
710.672	2442.54
710.864	2476.64
711.056	2542.32
711.248	2495.24
711.44	2526.82
711.632	2526.63
711.824	2548.52
712.016	2625.82
712.207	2599.86
712.399	2600.64
712.591	2681.24
712.783	2701.97
712.975	2701.19
713.166	2654.3
713.358	2675.81
713.55	2750.98
713.741	2765.13
713.933	2756.41
714.125	2755.44
714.316	2729.09
714.508	2837.4
714.7	2804.85
714.891	2818.41
715.083	2849.99
715.274	2825.19
715.466	2832.94
715.657	2907.92
715.849	2785.47
716.04	2855.61
716.232	2811.05
716.423	2856.19
716.615	2822.67
716.806	2761.25
716.998	2716.11
717.189	2685.5
717.381	2628.15
717.572	2606.45
717.763	2604.9
717.955	2566.73
718.146	2540.38
718.337	2463.46
718.528	2426.46
718.72	2367.95
718.911	2476.25
719.102	2392.94
719.293	2483.61
719.485	2458.04
719.676	2447.96
719.867	2393.71
720.058	2406.89
720.249	2419.68
720.44	2454.75
720.632	2475.86
720.823	2562.08
721.014	2668.06
721.205	2709.91
721.396	2784.5
721.587	2896.68
721.778	2915.86
721.969	3001.89
722.16	3043.54
722.351	3081.9
722.542	3249.88
722.733	3259.96
722.924	3142.16
723.115	3197.96
723.305	3167.54
723.496	3202.42
723.687	3075.51
723.878	3115.04
724.069	3071.25
724.26	3122.79
724.45	3010.8
724.641	3025.72
724.832	3045.29
725.023	3075.7
725.213	3061.37
725.404	3078.61
725.595	3059.24
725.785	3057.69
725.976	3184.2
726.167	3135.96
726.357	3146.42
726.548	3309.75
726.739	3144.49
726.929	3244.65
727.12	3288.44
727.31	3337.07
727.501	3220.24
727.691	3272.55
727.882	3282.43
728.072	3289.6
728.263	3300.45
728.453	3367.68
728.644	3410.69
728.834	3341.91
729.024	3419.22
729.215	3339.59
729.405	3362.64
729.596	3493.23
729.786	3457.77
729.976	3514.74
730.167	3529.07
730.357	3508.34
730.547	3530.04
730.737	3549.03
730.928	3601.34
731.118	3658.88
731.308	3624.59
731.498	3636.22
731.688	3700.54
731.879	3707.9
732.069	3761.38
732.259	3831.51
732.449	3884.21
732.639	3905.91
732.829	3991.74
733.019	3974.11
733.209	4049.67
733.399	4086.29
733.589	4180.06
733.779	4132.6
733.969	4192.66
734.159	4278.1
734.349	4304.06
734.539	4364.12
734.729	4369.55
734.919	4421.86
735.109	4532.49
735.299	4385.82
735.488	4413.92
735.678	4446.85
735.868	4454.41
736.058	4428.64
736.248	4408.49
736.437	4395.7
736.627	4365.48
736.817	4499.17
737.007	4442.79
737.196	4489.09
737.386	4494.13
737.576	4512.34
737.765	4583.83
737.955	4514.67
738.144	4675.67
738.334	4639.05
738.524	4545.08
738.713	4660.94
738.903	4558.45
739.092	4621.61
739.282	4636.92
739.471	4601.08
739.661	4640.41
739.85	4708.8
740.04	4673.93
740.229	4708.41
740.419	4729.34
740.608	4746.97
740.797	4741.35
740.987	4782.81
741.176	4773.71
741.365	4737.86
741.555	4701.83
741.744	4827.18
741.933	4726.04
742.123	4823.11
742.312	4821.75
742.501	4845.39
742.69	4882.2
742.88	4738.25
743.069	4918.82
743.258	4851.2
743.447	4872.71
743.636	4926.96
743.825	4896.15
744.014	4888.02
744.204	4895.57
744.393	4828.73
744.582	4965.71
744.771	5020.54
744.96	4902.16
745.149	4952.92
745.338	4976.17
745.527	4995.93
745.716	4969.2
745.905	4927.73
746.094	5037.59
746.283	4991.28
746.471	5015.31
746.66	5019.57
746.849	5037.98
747.038	5031
747.227	4979.08
747.416	5040.11
747.604	4950.6
747.793	5010.66
747.982	5003.68
748.171	5070.53
748.359	4997.87
748.548	5057.93
748.737	4996.51
748.926	5005.81
749.114	4957.38
749.303	4981.6
749.491	4983.73
749.68	4944.01
749.869	5026.93
750.057	4959.51
750.246	4964.35
750.434	4969.2
750.623	4954.08
750.811	4951.95
751	4994.97
751.188	4912.04
751.377	4965.9
751.565	4888.79
751.754	4906.62
751.942	4866.7
752.131	5004.07
752.319	4944.98
752.507	4875.81
752.696	4954.08
752.884	4999.81
753.072	4906.23
753.261	4914.37
753.449	4937.62
753.637	4886.66
753.825	4993.03
754.014	4895.19
754.202	4901.19
754.39	4990.32
754.578	4944.78
754.766	4857.21
754.955	4888.6
755.143	4984.12
755.331	4923.67
755.519	4934.71
755.707	4852.95
755.895	4876.97
756.083	4854.5
756.271	4829.89
756.459	4846.75
756.647	4872.52
756.835	4848.69
757.023	4847.72
757.211	4781.84
757.399	4826.79
757.587	4784.94
757.775	4714.81
757.963	4747.94
758.151	4809.74
758.339	4724.11
758.526	4668.11
758.714	4767.31
758.902	4634.6
759.09	4585.77
759.278	4385.05
759.465	4141.7
759.653	3688.53
759.841	3380.66
760.028	2959.84
760.216	2658.57
760.404	2447.96
760.591	2140.1
760.779	1837.27
760.967	1673.36
761.154	1517.2
761.342	1513.91
761.529	1520.69
761.717	1647.59
761.905	1653.41
762.092	1794.26
762.28	1765.78
762.467	1783.6
762.655	1699.13
762.842	1770.62
763.029	1818.87
763.217	1858.58
763.404	1842.31
763.592	1863.04
763.779	1815.19
763.966	1923.1
764.154	1992.85
764.341	2028.89
764.528	2032.76
764.716	2126.34
764.903	2156.57
765.09	2246.27
765.277	2316.22
765.465	2506.86
765.652	2570.61
765.839	2690.15
766.026	2800.39
766.213	2831
766.4	2971.28
766.588	3168.12
766.775	3210.55
766.962	3299.29
767.149	3359.54
767.336	3534.11
767.523	3474.63
767.71	3634.67
767.897	3783.46
768.084	3819.31
768.271	3884.21
768.458	3953.77
768.645	3986.9
768.832	4013.44
769.019	4052.19
769.206	4058.97
769.392	4171.73
769.579	4190.72
769.766	4151.58
769.953	4114.77
770.14	4189.36
770.327	4181.42
770.513	4204.86
770.7	4312.78
770.887	4221.14
771.073	4271.51
771.26	4299.99
771.447	4215.52
771.634	4204.48
771.82	4334.87
772.007	4197.89
772.193	4250.2
772.38	4250.01
772.567	4232.76
772.753	4235.86
772.94	4257.18
773.126	4251.56
773.313	4276.74
773.499	4248.26
773.686	4291.28
773.872	4228.69
774.059	4240.32
774.245	4225.01
774.432	4267.44
774.618	4100.63
774.804	4182
774.991	4122.71
775.177	4204.67
775.363	4158.17
775.55	4189.36
775.736	4112.06
775.922	4156.62
776.109	4168.44
776.295	4143.83
776.481	4194.98
776.667	4117.48
776.853	4114.77
777.04	4107.6
777.226	4121.55
777.412	4221.14
777.598	4074.86
777.784	4047.15
777.97	4061.3
778.156	4082.03
778.342	4058.58
778.528	4020.61
778.715	3980.89
778.901	3997.36
779.087	4043.67
779.272	4025.07
779.458	3984.38
779.644	3997.75
779.83	3949.31
780.016	4052.77
780.202	3987.67
780.388	3960.16
780.574	3871.81
780.76	3895.64
780.946	3949.31
781.131	3951.83
781.317	3904.17
781.503	3881.69
781.689	3887.51
781.874	4031.85
782.06	3855.34
782.246	3918.12
782.432	3882.08
782.617	3896.22
782.803	3951.64
782.989	3848.18
783.174	3851.08
783.36	3756.34
783.545	3828.22
783.731	3817.76
783.916	3738.71
784.102	3834.03
784.288	3791.6
784.473	3827.64
784.659	3720.3
784.844	3830.93
785.029	3714.1
785.215	3729.41
785.4	3663.34
785.586	3769.32
785.771	3649.78
785.956	3760.41
786.142	3722.63
786.327	3712.94
786.512	3687.95
786.698	3607.73
786.883	3613.93
787.068	3641.83
787.254	3637.57
787.439	3611.42
787.624	3602.7
787.809	3556.78
787.994	3567.82
788.18	3639.7
788.365	3506.99
788.55	3583.32
788.735	3574.02
788.92	3589.91
789.105	3535.85
789.29	3589.91
789.475	3471.72
789.66	3490.32
789.845	3427.55
790.03	3459.71
790.215	3501.56
790.4	3504.47
790.585	3549.8
790.77	3527.91
790.955	3375.24
791.14	3467.27
791.325	3526.94
791.51	3333
791.695	3438.59
791.879	3445.37
792.064	3364.39
792.249	3461.26
792.434	3406.63
792.618	3413.41
792.803	3453.9
792.988	3379.69
793.173	3414.76
793.357	3470.76
793.542	3386.67
793.727	3385.31
793.911	3461.46
794.096	3409.92
794.281	3461.07
794.465	3557.75
794.65	3412.83
794.834	3474.24
795.019	3495.75
795.203	3502.53
795.388	3482.19
795.572	3528.49
795.757	3496.72
795.941	3467.07
796.126	3477.73
796.31	3423.67
796.494	3484.32
796.679	3414.76
796.863	3384.34
797.048	3550.39
797.232	3469.01
797.416	3485.67
797.601	3490.91
797.785	3525.78
797.969	3532.37
798.153	3433.94
798.338	3527.52
798.522	3543.8
798.706	3514.74
798.89	3558.72
799.074	3624.2
799.258	3620.91
799.443	3535.27
799.627	3488
799.811	3592.43
799.995	3495.56
800.179	3521.13
800.363	3444.99
800.547	3498.46
800.731	3597.66
800.915	3439.95
801.099	3458.55
801.283	3458.74
801.467	3475.99
801.651	3492.65
801.835	3572.86
802.019	3500.01
802.202	3492.84
802.386	3415.54
802.57	3451.96
802.754	3498.46
802.938	3451.96
803.121	3425.22
803.305	3507.18
803.489	3474.44
803.673	3477.92
803.856	3509.31
804.04	3424.84
804.224	3491.49
804.407	3454.29
804.591	3484.51
804.775	3443.05
804.958	3428.91
805.142	3567.63
805.326	3482.96
805.509	3518.8
805.693	3516.48
805.876	3482.96
806.06	3469.98
806.243	3482.96
806.427	3530.43
806.61	3524.62
806.794	3513.96
806.977	3532.37
807.16	3475.41
807.344	3458.16
807.527	3516.48
807.71	3444.79
807.894	3491.87
808.077	3468.82
808.26	3419.61
808.444	3409.53
808.627	3519.19
808.81	3417.67
808.993	3347.73
809.177	3327.19
809.36	3368.46
809.543	3387.44
809.726	3252.21
809.909	3319.63
810.092	3244.07
810.276	3317.5
810.459	3288.44
810.642	3267.32
810.825	3191.37
811.008	3230.12
811.191	3119.3
811.374	3169.67
811.557	3152.24
811.74	3225.86
811.923	3130.54
812.106	3151.46
812.289	3064.66
812.472	3084.62
812.654	3080.55
812.837	3025.52
813.02	3007.89
813.203	2983.87
813.386	2860.06
813.569	2840.5
813.751	2819.18
813.934	2808.14
814.117	2776.75
814.3	2714.95
814.482	2661.09
814.665	2630.28
814.848	2607.61
815.03	2538.25
815.213	2542.32
815.396	2527.59
815.578	2470.24
815.761	2467.14
815.943	2482.64
816.126	2385.77
816.309	2387.71
816.491	2330.17
816.674	2259.84
816.856	2298.2
817.039	2267.59
817.221	2349.93
817.403	2316.02
817.586	2274.17
817.768	2320.28
817.951	2214.89
818.133	2218.95
818.315	2245.89
818.498	2291.03
818.68	2375.7
818.862	2305.95
819.045	2353.61
819.227	2345.08
819.409	2298.78
819.591	2314.67
819.774	2298.2
819.956	2279.6
820.138	2366.78
820.32	2318.73
820.502	2399.91
820.684	2455.91
820.866	2451.65
821.048	2516.16
821.231	2515.39
821.413	2524.88
821.595	2508.99
821.777	2522.75
821.959	2516.74
822.141	2575.84
822.323	2407.86
822.505	2396.81
822.686	2296.45
822.868	2226.51
823.05	2098.83
823.232	2044.39
823.414	1962.82
823.596	2027.92
823.778	2012.61
823.96	2076.36
824.141	2106.58
824.323	2088.56
824.505	2154.24
824.687	2261
824.868	2286.96
825.05	2400.88
825.232	2462.69
825.413	2483.42
825.595	2454.94
825.777	2369.5
825.958	2447.38
826.14	2413.09
826.321	2467.73
826.503	2393.33
826.685	2458.23
826.866	2481.87
827.048	2461.33
827.229	2393.71
827.411	2384.03
827.592	2302.46
827.773	2285.02
827.955	2248.21
828.136	2224.57
828.318	2203.65
828.499	2246.66
828.68	2194.93
828.862	2227.67
829.043	2217.02
829.224	2141.46
829.406	2157.15
829.587	2178.27
829.768	2199.58
829.949	2209.85
830.131	2202.49
830.312	2262.35
830.493	2204.23
830.674	2255.38
830.855	2220.89
831.036	2186.79
831.218	2223.99
831.399	2252.28
831.58	2175.36
831.761	2205.78
831.942	2220.5
832.123	2189.7
832.304	2128.47
832.485	2145.91
832.666	2149.59
832.847	2202.87
833.028	2188.34
833.209	2141.65
833.389	2142.04
833.57	2086.24
833.751	2152.5
833.932	2189.31
834.113	2154.63
834.294	2151.72
834.475	2201.52
834.655	2191.06
834.836	2247.05
835.017	2207.91
835.198	2154.44
835.378	2176.91
835.559	2173.62
835.74	2187.37
835.92	2204.81
836.101	2166.45
836.281	2233.29
836.462	2217.02
836.643	2243.37
836.823	2256.35
837.004	2247.24
837.184	2280.95
837.365	2288.12
837.545	2260.42
837.726	2233.87
837.906	2321.83
838.087	2207.72
838.267	2200.94
838.448	2198.81
838.628	2231.16
838.808	2236.2
838.989	2280.18
839.169	2171.29
839.349	2199
839.53	2257.7
839.71	2250.54
839.89	2225.35
840.07	2263.13
840.251	2227.87
840.431	2252.28
840.611	2236.39
840.791	2160.83
840.971	2248.6
841.151	2183.5
841.332	2162.19
841.512	2231.55
841.692	2141.07
841.872	2239.3
842.052	2165.67
842.232	2225.35
842.412	2100.38
842.592	2175.17
842.772	2190.09
842.952	2211.79
843.132	2126.73
843.312	2107.94
843.492	2120.34
843.672	2202.68
843.851	2079.26
844.031	2133.12
844.211	2110.46
844.391	2103.87
844.571	2139.71
844.751	2075
844.93	2138.74
845.11	2080.23
845.29	2120.92
845.47	2140.87
845.649	2126.73
845.829	2154.05
846.009	2075.78
846.188	2127.12
846.368	2111.62
846.547	2111.23
846.727	2138.94
846.907	2057.37
847.086	2104.45
847.266	2109.49
847.445	2082.75
847.625	2072.68
847.804	2046.71
847.984	2066.48
848.163	2076.94
848.343	2050.39
848.522	2088.18
848.701	2062.02
848.881	2044
849.06	2046.52
849.239	2081.01
849.419	2066.28
849.598	1981.61
849.777	1986.85
849.957	1910.32
850.136	1889.78
850.315	1837.27
850.494	1855.1
850.674	1886.48
850.853	1928.92
851.032	1896.95
851.211	1951
851.39	1935.7
851.569	1871.95
851.748	1880.87
851.927	1948.68
852.107	1910.7
852.286	1902.37
852.465	1859.94
852.644	1934.15
852.823	1928.33
853.002	1896.17
853.181	1933.18
853.359	1927.56
853.538	1823.71
853.717	1928.14
853.896	1784.96
854.075	1720.44
854.254	1669.68
854.433	1627.25
854.611	1647.79
854.79	1564.09
854.969	1655.73
855.148	1669.49
855.327	1655.15
855.505	1695.84
855.684	1674.72
855.863	1710.95
856.041	1693.32
856.22	1742.72
856.399	1696.03
856.577	1819.84
856.756	1818.48
856.934	1950.42
857.113	1920.2
857.291	1797.55
857.47	1819.64
857.648	1863.04
857.827	1859.55
858.005	1868.27
858.184	1771.98
858.362	1894.43
858.541	1814.8
858.719	1794.26
858.898	1821
859.076	1803.37
859.254	1859.94
859.433	1811.7
859.611	1786.9
859.789	1715.79
859.967	1835.34
860.146	1844.64
860.324	1753.96
860.502	1762.87
860.68	1740.01
860.859	1750.09
861.037	1740.59
861.215	1741.76
861.393	1740.01
861.571	1734.2
861.749	1736.33
861.927	1759.39
862.105	1782.05
862.283	1717.34
862.461	1670.07
862.639	1698.55
862.817	1700.49
862.995	1728.77
863.173	1674.91
863.351	1723.16
863.529	1715.99
863.707	1751.44
863.885	1731.29
864.063	1631.71
864.241	1686.15
864.418	1756.48
864.596	1656.12
864.774	1628.61
864.952	1668.33
865.129	1701.65
865.307	1630.16
865.485	1588.5
865.663	1678.59
865.84	1584.05
866.018	1583.46
866.196	1432.92
866.373	1441.25
866.551	1461.79
866.728	1362.98
866.906	1434.67
867.084	1436.02
867.261	1484.27
867.439	1482.91
867.616	1539.68
867.794	1515.46
867.971	1542.78
868.149	1540.06
868.326	1565.06
868.503	1575.52
868.681	1593.15
868.858	1521.85
869.035	1525.34
869.213	1577.07
869.39	1558.08
869.567	1610.59
869.745	1508.48
869.922	1552.66
870.099	1568.55
870.276	1554.01
870.454	1575.91
870.631	1554.4
870.808	1520.5
870.985	1581.91
871.162	1640.23
871.339	1554.01
871.517	1489.3
871.694	1495.5
871.871	1517.2
872.048	1489.11
872.225	1490.27
872.402	1482.33
872.579	1466.25
872.756	1544.33
872.933	1446.68
873.11	1482.33
873.287	1498.22
873.463	1442.22
873.64	1446.48
873.817	1495.7
873.994	1485.82
874.171	1452.1
874.348	1461.21
874.524	1424.98
874.701	1449
874.878	1380.03
875.055	1448.62
875.231	1434.28
875.408	1461.21
875.585	1364.53
875.762	1396.11
875.938	1390.1
876.115	1399.4
876.291	1398.44
876.468	1403.47
876.645	1351.35
876.821	1379.45
876.998	1371.5
877.174	1380.61
877.351	1355.23
877.527	1378.48
877.704	1425.37
877.88	1375.77
878.057	1346.32
878.233	1428.27
878.409	1361.62
878.586	1399.6
878.762	1356
878.938	1359.69
879.115	1288.77
879.291	1383.9
879.467	1306.6
879.644	1318.42
879.82	1376.93
879.996	1314.35
880.172	1292.26
880.349	1335.47
880.525	1352.32
880.701	1266.3
880.877	1275.79
881.053	1320.74
881.229	1271.14
881.405	1340.7
881.581	1289.74
881.757	1288
881.933	1312.41
882.109	1354.84
882.285	1309.89
882.461	1227.36
882.637	1311.44
882.813	1270.56
882.989	1303.89
883.165	1351.16
883.341	1274.44
883.517	1347.87
883.693	1329.85
883.869	1331.4
884.044	1279.67
884.22	1330.24
884.396	1372.09
884.572	1296.14
884.747	1338.37
884.923	1325.01
885.099	1317.64
885.275	1331.98
885.45	1286.45
885.626	1270.37
885.801	1276.37
885.977	1287.61
886.153	1248.67
886.328	1307.18
886.504	1246.92
886.679	1295.94
886.855	1268.82
887.03	1267.66
887.206	1296.14
887.381	1278.51
887.557	1304.27
887.732	1295.36
887.908	1325.97
888.083	1313.57
888.258	1274.82
888.434	1262.62
888.609	1258.55
888.784	1315.71
888.96	1288.19
889.135	1254.48
889.31	1275.41
889.485	1263.59
889.661	1308.73
889.836	1298.07
890.011	1290.32
890.186	1281.22
890.361	1252.35
890.537	1279.09
890.712	1271.72
890.887	1302.14
891.062	1259.91
891.237	1351.55
891.412	1240.53
891.587	1275.99
891.762	1314.93
891.937	1313.57
892.112	1255.45
892.287	1254.09
892.462	1224.06
892.637	1214.96
892.812	1170.98
892.987	1204.49
893.161	1152.76
893.336	1164.19
893.511	1199.26
893.686	1192.48
893.861	1181.05
894.035	1206.24
894.21	1187.25
894.385	1136.1
894.56	1159.54
894.734	1111.5
894.909	1127.77
895.084	1114.01
895.258	1088.05
895.433	1121.57
895.608	1095.61
895.782	1022.37
895.957	1048.14
896.131	1032.25
896.306	976.07
896.48	976.65
896.655	987.5
896.829	930.92
897.004	911.94
897.178	903.8
897.353	912.32
897.527	964.25
897.701	916.59
897.876	890.04
898.05	966.57
898.224	930.34
898.399	946.42
898.573	919.3
898.747	803.82
898.921	863.11
899.096	717.8
899.27	761.01
899.444	752.29
899.618	796.85
899.792	826.69
899.967	822.81
900.141	870.09
900.315	764.69
900.489	806.54
900.663	829.4
900.837	815.64
901.011	766.82
901.185	854.39
901.359	813.71
901.533	831.14
901.707	829.01
901.881	814.87
902.055	781.35
902.229	810.02
902.403	875.32
902.576	810.41
902.75	823.78
902.924	944.68
903.098	885.59
903.272	935.38
903.446	981.88
903.619	955.72
903.793	993.5
903.967	950.49
904.14	1033.42
904.314	999.32
904.488	971.8
904.661	984.4
904.835	992.15
905.009	1027.8
905.182	1047.75
905.356	1008.23
905.529	984.4
905.703	938.87
905.876	958.82
906.05	926.85
906.223	885.78
906.397	867.57
906.57	843.35
906.744	818.74
906.917	819.13
907.09	833.86
907.264	816.81
907.437	781.93
907.61	763.72
907.784	746.28
907.957	784.84
908.13	757.13
908.304	794.72
908.477	739.89
908.65	732.53
908.823	688.74
908.996	789.88
909.17	718.58
909.343	722.64
909.516	732.33
909.689	711.99
909.862	710.83
910.035	729.62
910.208	667.04
910.381	681.38
910.554	764.11
910.727	730.78
910.9	690.29
911.073	688.55
911.246	773.02
911.419	792.01
911.592	743.57
911.765	719.35
911.938	700.95
912.11	743.57
912.283	711.41
912.456	768.95
912.629	729.81
912.802	677.31
912.974	653.67
913.147	617.83
913.32	570.55
913.493	616.47
913.665	600.39
913.838	631.2
914.01	623.45
914.183	645.15
914.356	635.85
914.528	665.88
914.701	754.42
914.873	705.98
915.046	648.63
915.218	611.63
915.391	527.35
915.563	543.04
915.736	596.71
915.908	636.62
916.081	637.2
916.253	616.28
916.425	631
916.598	642.82
916.77	642.63
916.942	649.02
917.115	527.15
917.287	619.57
917.459	592.83
917.632	533.35
917.804	545.56
917.976	614.34
918.148	599.03
918.32	619.77
918.493	656.77
918.665	668.78
918.837	622.09
919.009	672.46
919.181	676.15
919.353	631.78
919.525	653.86
919.697	644.37
919.869	625.77
920.041	711.6
920.213	750.35
920.385	702.69
920.557	648.63
920.729	684.48
920.901	667.81
921.073	658.13
921.244	643.6
921.416	677.7
921.588	670.33
921.76	629.06
921.932	700.75
922.103	610.08
922.275	650.76
922.447	633.52
922.619	595.16
922.79	648.05
922.962	579.66
923.134	633.91
923.305	582.76
923.477	564.55
923.648	567.45
923.82	588.18
923.991	519.02
924.163	543.82
924.335	566.29
924.506	537.42
924.677	605.23
924.849	532.58
925.02	592.25
925.192	607.37
925.363	558.54
925.535	570.94
925.706	525.99
925.877	599.23
926.049	545.56
926.22	561.64
926.391	562.8
926.562	588.57
926.734	533.94
926.905	594.77
927.076	537.62
927.247	540.52
927.419	500.8
927.59	462.25
927.761	489.57
927.932	492.86
928.103	481.43
928.274	460.89
928.445	424.47
928.616	445.97
928.787	427.57
928.958	455.47
929.129	431.64
929.3	429.31
929.471	370.41
929.642	337.86
929.813	310.54
929.984	367.31
930.155	258.04
930.326	332.83
930.496	307.06
930.667	257.85
930.838	307.83
931.009	246.03
931.18	265.21
931.35	245.45
931.521	262.88
931.692	193.91
931.863	166.01
932.033	216.19
932.204	218.71
932.374	203.6
932.545	156.13
932.716	220.06
932.886	221.23
933.057	107.88
933.227	140.05
933.398	207.28
933.568	96.65
933.739	61.19
933.909	99.94
934.08	146.25
934.25	62.16
934.421	92.77
934.591	150.51
934.761	102.46
934.932	53.05
935.102	97.23
935.272	105.56
935.443	114.67
935.613	86.77
935.783	73.4
935.953	77.85
936.123	277.03
936.294	75.92
936.464	101.69
936.634	86.96
936.804	62.16
936.974	38.14
937.144	118.54
937.314	95.29
937.484	75.34
937.655	67
937.825	140.24
937.995	71.46
938.165	148.96
938.334	94.9
938.504	128.62
938.674	125.32
938.844	154
939.014	175.12
939.184	205.34
939.354	228.98
939.524	238.66
939.694	167.75
939.863	193.71
940.033	224.52
940.203	219.48
940.373	197.01
940.542	219.1
940.712	148.38
940.882	203.98
941.051	202.05
941.221	203.79
941.391	217.35
941.56	152.25
941.73	170.47
941.899	275.28
942.069	165.82
942.238	181.12
942.408	166.98
942.577	197.01
942.747	144.5
942.916	123.77
943.086	130.75
943.255	198.75
943.425	168.14
943.594	125.52
943.763	64.1
943.933	114.08
944.102	43.56
944.271	140.24
944.441	160.97
944.61	119.32
944.779	145.67
944.948	203.01
945.117	101.3
945.287	118.35
945.456	58.09
945.625	90.84
945.794	148.38
945.963	100.52
946.132	140.43
946.301	101.69
946.47	142.37
946.639	79.21
946.808	134.04
946.977	135.59
947.146	175.7
947.315	108.66
947.484	148.96
947.653	98.2
947.822	123
947.991	102.07
948.16	201.08
948.329	176.08
948.498	134.43
948.666	171.05
948.835	198.17
949.004	85.41
949.173	98.78
949.341	141.79
949.51	139.66
949.679	146.63
949.847	166.2
950.016	194.68
950.185	194.88
950.353	125.13
950.522	112.53
950.69	163.68
950.859	112.34
951.028	162.91
951.196	150.12
951.365	108.08
951.533	104.2
951.701	147.6
951.87	162.91
952.038	95.29
952.207	131.91
952.375	182.67
952.543	117.38
952.712	142.37
952.88	105.56
953.048	197.78
953.217	139.47
953.385	147.41
953.553	186.35
953.721	113.5
953.89	123.38
954.058	62.74
954.226	112.73
954.394	126.48
954.562	73.59
954.73	110.79
954.898	134.43
955.067	127.84
955.235	95.1
955.403	131.91
955.571	191.97
955.739	144.89
955.907	82.7
956.075	112.73
956.243	92.97
956.41	142.57
956.578	85.6
956.746	67.2
956.914	117.57
957.082	148.77
957.25	155.16
957.418	102.65
957.585	144.12
957.753	180.54
957.921	76.69
958.089	138.3
958.256	115.44
958.424	149.93
958.592	162.91
958.759	89.87
958.927	150.12
959.095	84.64
959.262	143.92
959.43	126.87
959.597	81.34
959.765	110.21
959.932	103.04
960.1	159.81
960.267	138.3
960.435	120.28
960.602	135.4
960.77	110.02
960.937	85.6
961.104	146.63
961.272	82.5
961.439	96.65
961.606	132.49
961.774	163.1
961.941	115.44
962.108	144.5
962.275	142.37
962.443	156.9
962.61	157.87
962.777	218.9
962.944	150.12
963.111	143.34
963.278	153.61
963.446	146.44
963.613	150.51
963.78	144.31
963.947	162.52
964.114	147.02
964.281	241.38
964.448	164.65
964.615	111.76
964.782	148.38
964.949	161.94
965.116	176.86
965.282	203.21
965.449	143.73
965.616	134.62
965.783	173.18
965.95	141.21
966.117	103.82
966.283	133.07
966.45	170.27
966.617	140.82
966.784	155.16
966.95	183.06
967.117	179.57
967.284	125.71
967.45	132.88
967.617	185.77
967.784	161.94
967.95	212.9
968.117	171.43
968.283	180.15
968.45	245.25
968.616	202.24
968.783	168.14
968.949	188.48
969.116	210.38
969.282	196.04
969.449	155.93
969.615	150.9
969.781	134.23
969.948	138.5
970.114	132.49
970.28	202.82
970.447	179.77
970.613	217.35
970.779	142.95
970.945	180.15
971.112	168.33
971.278	167.75
971.444	150.12
971.61	202.43
971.776	154.58
971.942	174.34
972.108	163.68
972.275	135.4
972.441	151.87
972.607	228.4
972.773	118.93
972.939	183.64
973.105	147.99
973.271	107.11
973.437	123
973.602	142.57
973.768	162.91
973.934	127.84
974.1	170.27
974.266	74.75
974.432	157.87
974.598	149.54
974.763	176.86
974.929	122.8
975.095	217.93
975.261	115.44
975.426	115.05
975.592	135.78
975.758	206.89
975.923	93.16
976.089	118.15
976.255	170.08
976.42	177.25
976.586	151.48
976.751	133.85
976.917	195.07
977.082	143.15
977.248	118.54
977.413	86.38
977.579	99.36
977.744	157.1
977.91	92.77
978.075	123.77
978.24	167.95
978.406	131.91
978.571	139.66
978.736	114.08
978.902	150.9
979.067	97.62
979.232	83.67
979.397	150.32
979.563	198.95
979.728	97.81
979.893	126.29
980.058	101.1
980.223	177.05
980.388	170.27
980.554	133.27
980.719	94.32
980.884	124.93
981.049	157.48
981.214	116.6
981.379	124.16
981.544	108.27
981.709	116.22
981.874	132.1
982.039	137.92
982.204	163.1
982.368	140.63
982.533	120.87
982.698	154.77
982.863	172.98
983.028	137.72
983.193	138.11
983.357	114.47
983.522	136.37
983.687	116.41
983.852	120.28
984.016	125.71
984.181	143.34
984.346	147.8
984.51	166.59
984.675	149.35
984.839	143.92
985.004	131.72
985.168	183.64
985.333	146.44
985.498	130.75
985.662	139.66
985.827	151.09
985.991	122.8
986.155	114.28
986.32	164.46
986.484	181.51
986.649	129.58
986.813	79.79
986.977	124.74
987.142	149.73
987.306	95.68
987.47	105.75
987.634	130.75
987.799	143.15
987.963	149.15
988.127	135.01
988.291	180.35
988.455	125.9
988.62	116.22
988.784	120.28
988.948	133.85
989.112	96.65
989.276	133.46
989.44	107.3
989.604	99.36
989.768	106.33
989.932	194.68
990.096	90.84
990.26	92
990.424	72.24
990.588	90.84
990.752	164.65
990.915	155.74
991.079	106.14
991.243	98.39
991.407	138.11
991.571	113.12
991.734	142.57
991.898	127.07
992.062	197.2
992.226	110.98
992.389	75.53
992.553	66.04
992.717	83.86
992.88	82.12
993.044	123
993.207	96.07
993.371	110.79
993.535	124.55
993.698	92.97
993.862	145.28
994.025	142.57
994.189	122.42
994.352	118.35
994.515	127.65
994.679	136.95
994.842	87.15
995.006	136.17
995.169	51.12
995.332	91.8
995.496	126.87
995.659	73.98
995.822	118.35
995.985	102.65
996.149	152.45
996.312	87.54
996.475	178.22
996.638	66.23
996.801	125.71
996.964	150.32
997.128	82.5
997.291	110.79
997.454	110.02
997.617	17.21
997.78	147.99
997.943	57.9
998.106	131.52
998.269	76.11
998.432	79.99
998.595	92.97
998.758	69.91
998.92	51.89
999.083	25.93
999.246	63.52
999.409	69.14
999.572	30
999.735	48.99
999.897	110.6
1000.06	70.1
1000.223	86.96
1000.386	105.17
1000.548	126.29
1000.711	109.24
1000.874	84.64
1001.036	51.12
1001.199	114.47
1001.361	74.75
1001.524	112.15
1001.687	116.99
1001.849	38.14
1002.012	89.87
1002.174	50.92
1002.337	96.45
1002.499	67.59
1002.661	96.07
1002.824	38.91
1002.986	61
1003.149	109.82
1003.311	44.72
1003.473	135.2
1003.636	47.05
1003.798	67
1003.96	101.1
1004.123	83.28
1004.285	58.67
1004.447	82.89
1004.609	76.3
1004.771	126.48
1004.933	8.3
1005.096	50.54
1005.258	16.44
1005.42	52.86
1005.582	102.07
1005.744	74.56
1005.906	25.35
1006.068	88.9
1006.23	49.37
1006.392	7.14
1006.554	33.29
1006.716	110.98
1006.878	91.42
1007.04	28.45
1007.202	57.7
1007.363	41.62
1007.525	68.94
1007.687	89.67
1007.849	99.36
1008.011	17.4
1008.172	19.34
1008.334	73.98
1008.496	95.49
1008.658	8.3
1008.819	48.02
1008.981	34.07
1009.143	25.93
1009.304	34.45
1009.466	71.27
1009.627	124.35
1009.789	171.24
1009.95	84.44
1010.112	71.07
1010.273	72.43
1010.435	59.45
1010.596	72.24
1010.758	42.01
1010.919	57.9
1011.081	17.99
1011.242	32.71
1011.403	87.54
1011.565	44.53
1011.726	89.67
1011.887	25.35
1012.049	40.07
1012.21	76.11
1012.371	112.34
1012.532	-8.36
1012.693	47.82
1012.855	32.9
1013.016	49.18
1013.177	66.62
1013.338	58.87
1013.499	115.83
1013.66	70.69
1013.821	77.47
1013.982	52.86
1014.143	55.77
1014.304	6.75
1014.465	76.3
1014.626	72.82
1014.787	39.88
1014.948	123.38
1015.109	-47.11
1015.27	82.5
1015.431	21.47
1015.592	17.21
1015.752	74.37
1015.913	52.47
1016.074	73.98
1016.235	52.67
1016.395	47.63
1016.556	28.06
1016.717	54.02
1016.877	75.14
1017.038	10.43
1017.199	44.72
1017.359	53.44
1017.52	44.72
1017.681	58.29
1017.841	14.11
1018.002	48.21
1018.162	46.08
1018.323	101.3
1018.483	47.82
1018.644	28.06
1018.804	-10.88
1018.964	15.85
1019.125	39.49
1019.285	35.62
1019.446	19.73
1019.606	17.6
1019.766	-8.56
1019.926	45.11
1020.087	67.2
1020.247	-16.5
1020.407	72.04
1020.567	73.4
1020.728	30.97
1020.888	15.47
1021.048	8.69
1021.208	12.76
1021.368	22.25
1021.528	75.53
1021.688	73.4
1021.848	68.94
1022.008	50.34
1022.168	32.32
1022.328	34.65
1022.488	30.77
1022.648	15.66
1022.808	35.62
1022.968	41.04
1023.128	40.46
1023.288	5.39
1023.448	31.55
1023.608	46.85
1023.767	44.72
1023.927	6.75
1024.087	10.82
1024.247	-1.78
1024.406	21.28
1024.566	-13.98
1024.726	0.74
1024.885	27.29
1025.045	67.2
1025.205	32.71
1025.364	25.74
1025.524	38.33
1025.683	23.99
1025.843	49.37
1026.003	20.31
1026.162	72.04
1026.321	91.22
1026.481	33.1
1026.64	11.98
1026.8	55.77
1026.959	46.66
1027.119	42.01
1027.278	48.99
1027.437	-5.84
1027.597	25.15
1027.756	56.54
1027.915	69.14
1028.074	66.62
1028.234	10.24
1028.393	17.6
1028.552	1.71
1028.711	-47.89
1028.87	76.3
1029.03	2.49
1029.189	26.12
1029.348	-36.07
1029.507	6.75
1029.666	0.36
1029.825	13.92
1029.984	8.49
1030.143	20.5
1030.302	17.6
1030.461	-30.64
1030.62	25.35
1030.779	44.72
1030.938	0.55
1031.097	-38.59
1031.255	46.27
1031.414	84.25
1031.573	52.28
1031.732	-18.05
1031.891	36.39
1032.049	76.5
1032.208	17.4
1032.367	4.42
1032.525	21.28
1032.684	-3.52
1032.843	17.79
1033.001	-21.73
1033.16	161.36
1033.319	67.39
1033.477	49.76
1033.636	37.17
1033.794	-31.23
1033.953	61.97
1034.111	56.74
1034.27	8.88
1034.428	52.47
1034.587	-7.39
1034.745	44.14
1034.903	47.63
1035.062	52.47
1035.22	-32.58
1035.378	39.3
1035.537	-13.01
1035.695	43.17
1035.853	20.31
1036.011	37.75
1036.17	32.13
1036.328	-25.03
1036.486	44.14
1036.644	36.97
1036.802	-67.46
1036.96	-13.79
1037.119	7.91
1037.277	-4.88
1037.435	-28.51
1037.593	-30.84
1037.751	35.42
1037.909	51.7
1038.067	51.7
