Data from gum_old_FLMT105791__41__15-43-03-258.txt Node

Date: Mon Mar 20 15:43:03 GMT 2023
User: antho
Spectrometer: FLMT10579
Trigger mode: 0
Integration Time (sec): 1.000000E-1
Scans to average: 10
Electric dark correction enabled: true
Nonlinearity correction enabled: false
Boxcar width: 0
XAxis mode: Wavelengths
Number of Pixels in Spectrum: 3648
>>>>>Begin Spectral Data<<<<<
345.248	-179.89
345.464	-179.89
345.681	-179.89
345.898	-172.34
346.114	-177.18
346.331	-35.55
346.548	23.93
346.764	-11.14
346.981	-6.49
347.197	-5.72
347.414	27.42
347.631	-38.85
347.847	54.54
348.064	0.87
348.28	12.3
348.497	-36.52
348.713	15.21
348.93	31.1
349.146	14.05
349.363	15.02
349.579	45.05
349.796	4.36
350.012	16.57
350.229	51.25
350.445	24.12
350.661	-1.45
350.878	26.83
351.094	63.45
351.311	39.43
351.527	41.75
351.743	9.01
351.96	49.11
352.176	82.83
352.392	52.6
352.609	32.84
352.825	9.59
353.041	46.98
353.257	-5.72
353.474	31.48
353.69	51.44
353.906	60.74
354.122	23.93
354.339	87.28
354.555	47.76
354.771	26.45
354.987	91.93
355.203	90
355.42	9.98
355.636	24.9
355.852	9.98
356.068	36.72
356.284	-9.4
356.5	99.88
356.716	34.58
356.932	36.13
357.148	67.71
357.364	13.66
357.58	76.43
357.796	85.93
358.012	69.26
358.228	56.86
358.444	-14.05
358.66	106.08
358.876	60.35
359.092	19.28
359.308	54.93
359.524	58.41
359.74	57.06
359.956	34.2
360.172	52.21
360.388	115.96
360.604	36.33
360.819	146.96
361.035	72.75
361.251	71.78
361.467	13.47
361.683	88.64
361.898	60.93
362.114	90.38
362.33	53.57
362.546	86.9
362.762	63.84
362.977	49.11
363.193	36.52
363.409	119.45
363.624	47.76
363.84	36.13
364.056	44.27
364.271	97.36
364.487	62.68
364.703	51.44
364.918	32.65
365.134	53.18
365.35	58.41
365.565	181.64
365.781	89.8
365.996	104.53
366.212	164.98
366.427	104.72
366.643	83.8
366.858	92.13
367.074	46.01
367.289	130.3
367.505	168.08
367.72	46.01
367.936	69.07
368.151	113.05
368.367	120.03
368.582	88.83
368.798	71.01
369.013	121
369.228	86.31
369.444	101.04
369.659	150.83
369.874	120.03
370.09	169.04
370.305	48.73
370.52	91.74
370.736	147.34
370.951	93.48
371.166	130.1
371.381	160.71
371.597	115.57
371.812	72.36
372.027	88.45
372.242	103.17
372.458	162.46
372.673	79.92
372.888	78.37
373.103	138.04
373.318	161.68
373.533	137.08
373.749	79.73
373.964	39.82
374.179	149.09
374.394	48.92
374.609	139.98
374.824	55.7
375.039	134.75
375.254	95.81
375.469	150.83
375.684	109.95
375.899	160.52
376.114	121.19
376.329	111.7
376.544	138.04
376.759	127.78
376.974	89.61
377.189	89.41
377.404	101.62
377.619	138.04
377.834	82.63
378.049	100.46
378.264	120.03
378.478	160.33
378.693	111.5
378.908	174.86
379.123	140.56
379.338	194.81
379.553	123.32
379.767	127.78
379.982	156.26
380.197	140.95
380.412	117.51
380.626	131.07
380.841	199.08
381.056	169.24
381.271	220.58
381.485	131.84
381.7	126.42
381.915	155.29
382.129	130.1
382.344	136.11
382.559	123.9
382.773	167.49
382.988	78.18
383.202	122.35
383.417	83.21
383.632	185.9
383.846	111.31
384.061	99.3
384.275	79.15
384.49	160.52
384.704	163.81
384.919	122.74
385.133	145.21
385.348	161.68
385.562	129.91
385.777	195.59
385.991	133.78
386.206	134.36
386.42	123.51
386.634	183.19
386.849	190.16
387.063	159.74
387.277	113.63
387.492	135.14
387.706	116.93
387.92	117.51
388.135	185.13
388.349	198.88
388.563	149.86
388.778	173.5
388.992	179.31
389.206	162.84
389.42	225.42
389.635	181.25
389.849	211.86
390.063	236.27
390.277	196.36
390.491	259.33
390.706	215.16
390.92	265.72
391.134	193.46
391.348	257.59
391.562	175.63
391.776	214.58
391.99	224.26
392.205	265.92
392.419	197.14
392.633	204.31
392.847	256.23
393.061	161.1
393.275	232.01
393.489	153.16
393.703	127.78
393.917	160.71
394.131	93.1
394.345	163.23
394.559	218.84
394.773	176.02
394.986	226.01
395.2	213.41
395.414	273.47
395.628	230.66
395.842	257.39
396.056	264.56
396.27	198.3
396.484	245.19
396.697	248.48
396.911	239.57
397.125	191.13
397.339	196.75
397.553	174.86
397.766	236.86
397.98	249.45
398.194	285.29
398.408	275.61
398.621	324.82
398.835	323.27
399.049	318.81
399.262	387.59
399.476	371.7
399.69	392.24
399.903	446.1
400.117	366.47
400.331	384.1
400.544	371.9
400.758	496.48
400.971	373.84
401.185	440.1
401.398	349.42
401.612	442.81
401.826	387.01
402.039	442.42
402.253	403.09
402.466	446.49
402.68	402.32
402.893	479.82
403.106	424.79
403.32	418.78
403.533	437.19
403.747	422.27
403.96	433.32
404.174	445.72
404.387	418.01
404.6	443.39
404.814	471.1
405.027	425.95
405.24	431.57
405.454	406.77
405.667	474.97
405.88	399.22
406.094	454.05
406.307	484.85
406.52	431.77
406.733	409.29
406.947	399.41
407.16	508.68
407.373	483.11
407.586	438.74
407.799	426.34
408.012	491.63
408.226	441.84
408.439	480.78
408.652	433.12
408.865	501.51
409.078	543.75
409.291	537.94
409.504	481.95
409.717	515.27
409.93	546.27
410.143	478.65
410.357	425.37
410.57	408.32
410.783	449.2
410.996	480.01
411.209	469.35
411.421	553.25
411.634	532.71
411.847	521.47
412.06	553.63
412.273	547.05
412.486	568.36
412.699	665.81
412.912	576.69
413.125	569.91
413.338	553.83
413.55	593.74
413.763	551.7
413.976	548.21
414.189	536.2
414.402	550.92
414.615	612.92
414.827	542.78
415.04	593.74
415.253	570.1
415.466	614.28
415.678	626.68
415.891	588.89
416.104	563.71
416.316	566.61
416.529	584.24
416.742	635.98
416.954	666.97
417.167	599.55
417.38	590.06
417.592	630.74
417.805	568.94
418.017	564.68
418.23	571.26
418.442	557.7
418.655	588.89
418.868	574.56
419.08	598.78
419.293	650.31
419.505	616.99
419.718	595.09
419.93	660.19
420.142	616.41
420.355	664.26
420.567	630.36
420.78	614.86
420.992	588.31
421.205	690.22
421.417	605.94
421.629	630.94
421.842	627.26
422.054	603.62
422.266	659.03
422.479	675.89
422.691	605.94
422.903	659.81
423.115	614.28
423.328	626.09
423.54	605.17
423.752	613.5
423.964	621.06
424.177	622.22
424.389	630.74
424.601	745.05
424.813	661.74
425.025	695.07
425.238	668.52
425.45	649.54
425.662	598.39
425.874	948.1
426.086	646.44
426.298	701.85
426.51	664.84
426.722	643.73
426.934	647.79
427.146	678.41
427.358	624.35
427.57	714.64
427.782	644.11
427.994	638.69
428.206	610.01
428.418	645.28
428.63	723.55
428.842	725.1
429.054	677.63
429.266	688.29
429.478	649.93
429.69	651.09
429.902	583.08
430.114	653.99
430.325	629.97
430.537	563.71
430.749	553.05
430.961	506.94
431.173	526.31
431.384	538.33
431.596	474.2
431.808	602.26
432.02	670.46
432.231	749.7
432.443	797.37
432.655	747.96
432.867	727.04
433.078	777.02
433.29	801.82
433.502	764.24
433.713	790.78
433.925	818.1
434.136	841.73
434.348	716.77
434.56	684.61
434.771	828.75
434.983	697.39
435.194	734.4
435.406	817.13
435.617	861.69
435.829	891.92
436.04	839.02
436.252	868.28
436.463	927.37
436.675	927.76
436.886	923.88
437.098	944.61
437.309	980.46
437.521	935.31
437.732	890.37
437.943	868.47
438.155	866.15
438.366	813.25
438.578	887.46
438.789	841.35
439	839.8
439.211	795.43
439.423	838.05
439.634	882.03
439.845	904.7
440.057	906.45
440.268	939
440.479	907.42
440.69	960.89
440.902	875.45
441.113	888.82
441.324	901.8
441.535	955.46
441.746	1014.36
441.957	933.96
442.168	949.65
442.38	990.15
442.591	1026.18
442.802	978.71
443.013	999.45
443.224	1025.41
443.435	968.45
443.646	961.28
443.857	962.83
444.068	982.59
444.279	961.47
444.49	1104.84
444.701	1032.96
444.912	1125.38
445.123	1049.43
445.334	1065.13
445.545	1033.16
445.756	1024.63
445.967	967.86
446.178	1021.73
446.388	1021.92
446.599	1047.88
446.81	1028.12
447.021	991.5
447.232	1044.78
447.443	1093.99
447.653	1057.18
447.864	1093.61
448.075	1086.05
448.286	1098.45
448.496	1101.16
448.707	1150.37
448.918	1074.81
449.129	1167.04
449.339	1090.89
449.55	1118.79
449.761	1101.74
449.971	1154.83
450.182	1092.83
450.393	1161.03
450.603	1092.06
450.814	1207.34
451.024	1166.46
451.235	1233.69
451.446	1262.75
451.656	1264.69
451.867	1153.28
452.077	1161.81
452.288	1257.71
452.498	1214.5
452.709	1159.29
452.919	1132.16
453.13	1089.15
453.34	1141.27
453.55	1055.24
453.761	1147.47
453.971	1114.34
454.182	1163.16
454.392	1137.59
454.602	1251.7
454.813	1205.98
455.023	1190.09
455.233	1133.13
455.444	1217.02
455.654	1081.98
455.864	1159.67
456.075	1166.07
456.285	1158.51
456.495	1160.45
456.705	1186.02
456.916	1261.78
457.126	1284.64
457.336	1222.06
457.546	1164.13
457.756	1194.55
457.967	1278.63
458.177	1226.71
458.387	1252.67
458.597	1167.04
458.807	1210.82
459.017	1178.27
459.227	1195.32
459.437	1180.99
459.647	1203.85
459.857	1234.27
460.068	1191.45
460.278	1267.2
460.488	1208.11
460.698	1278.63
460.908	1245.31
461.117	1193.19
461.327	1222.06
461.537	1306.53
461.747	1280.57
461.957	1279.6
462.167	1385.39
462.377	1336.76
462.587	1290.45
462.797	1377.45
463.007	1291.62
463.216	1372.6
463.426	1376.86
463.636	1341.99
463.846	1253.25
464.056	1304.79
464.265	1299.37
464.475	1278.63
464.685	1310.99
464.895	1344.12
465.104	1276.31
465.314	1340.05
465.524	1308.08
465.733	1257.32
465.943	1387.33
466.153	1410.58
466.362	1417.36
466.572	1378.22
466.782	1340.63
466.991	1376.09
467.201	1420.65
467.41	1260.42
467.62	1361.17
467.829	1358.65
468.039	1363.5
468.249	1342.38
468.458	1376.86
468.668	1403.99
468.877	1414.84
469.086	1486.33
469.296	1503.19
469.505	1450.29
469.715	1501.64
469.924	1432.28
470.134	1498.15
470.343	1490.4
470.552	1425.69
470.762	1414.26
470.971	1414.45
471.18	1441.38
471.39	1440.61
471.599	1436.73
471.808	1477.81
472.018	1491.18
472.227	1554.14
472.436	1607.42
472.645	1584.17
472.855	1529.34
473.064	1642.3
473.273	1642.49
473.482	1605.87
473.691	1654.12
473.901	1622.15
474.11	1580.49
474.319	1687.05
474.528	1594.64
474.737	1764.94
474.946	1660.51
475.155	1705.85
475.364	1729.68
475.573	1711.27
475.783	1755.64
475.992	1731.42
476.201	1743.63
476.41	1721.35
476.619	1669.23
476.828	1714.37
477.037	1716.5
477.245	1742.66
477.454	1798.07
477.663	1774.05
477.872	1822.29
478.081	1876.54
478.29	1774.63
478.499	1935.05
478.708	1922.26
478.917	1947.26
479.125	1867.82
479.334	1848.83
479.543	1847.48
479.752	1915.87
479.961	1908.12
480.169	1971.67
480.378	1949.39
480.587	2092.76
480.796	2012.94
481.004	1982.32
481.213	1955.59
481.422	2023.79
481.63	2039.29
481.839	2068.74
482.048	2104.97
482.256	2066.02
482.465	2155.92
482.674	2157.08
482.882	2140.81
483.091	2185.57
483.299	2137.52
483.508	2184.98
483.716	2192.73
483.925	2207.46
484.134	2126.47
484.342	2159.22
484.551	2182.08
484.759	2200.48
484.967	2255.12
485.176	2247.37
485.384	2272.17
485.593	2220.05
485.801	2211.14
486.01	2153.79
486.218	2084.43
486.426	1932.53
486.635	1888.55
486.843	1897.66
487.051	1952.29
487.26	1989.69
487.468	2055.37
487.676	2142.36
487.885	2164.06
488.093	2217.34
488.301	2312.47
488.509	2339.98
488.717	2358.39
488.926	2337.27
489.134	2334.56
489.342	2334.36
489.55	2313.63
489.758	2347.73
489.967	2404.11
490.175	2475.61
490.383	2472.51
490.591	2576.74
490.799	2466.5
491.007	2525.79
491.215	2517.84
491.423	2512.61
491.631	2512.61
491.839	2469.21
492.047	2509.12
492.255	2410.89
492.463	2390.16
492.671	2350.64
492.879	2430.46
493.087	2438.99
493.295	2476.96
493.503	2532.76
493.711	2575
493.919	2580.42
494.127	2517.65
494.334	2570.74
494.542	2514.94
494.75	2593.21
494.958	2544.39
495.166	2682.14
495.374	2665.09
495.581	2680.59
495.789	2672.26
495.997	2704.42
496.205	2564.92
496.412	2579.45
496.62	2606
496.828	2613.17
497.035	2649.01
497.243	2688.53
497.451	2675.16
497.658	2633.51
497.866	2645.52
498.074	2730.77
498.281	2623.82
498.489	2702.48
498.696	2623.82
498.904	2592.43
499.112	2522.3
499.319	2668
499.527	2635.83
499.734	2696.86
499.942	2633.32
500.149	2655.79
500.357	2659.67
500.564	2599.6
500.771	2661.6
500.979	2541.48
501.186	2541.29
501.394	2635.64
501.601	2559.3
501.808	2579.65
502.016	2558.34
502.223	2549.42
502.43	2604.06
502.638	2552.33
502.845	2572.67
503.052	2668.77
503.26	2621.88
503.467	2741.62
503.674	2679.23
503.881	2674.97
504.089	2743.95
504.296	2706.94
504.503	2637.58
504.71	2629.83
504.917	2595.53
505.125	2646.3
505.332	2710.23
505.539	2674.2
505.746	2783.66
505.953	2816.41
506.16	2773.39
506.367	2865.23
506.574	2897.59
506.781	2884.8
506.988	2800.91
507.195	2841.4
507.402	2807.11
507.609	2855.16
507.816	2773.98
508.023	2758.28
508.23	2740.46
508.437	2711.01
508.644	2753.24
508.851	2807.3
509.058	2847.99
509.265	2877.05
509.472	2874.72
509.679	2963.85
509.885	2881.7
510.092	2883.44
510.299	2887.12
510.506	2853.61
510.713	2863.29
510.92	2868.52
511.126	2878.6
511.333	2907.27
511.54	2883.06
511.746	2944.28
511.953	2970.05
512.16	3009.77
512.367	2938.08
512.573	2918.71
512.78	2931.88
512.987	2927.81
513.193	2882.28
513.4	2761.19
513.606	2904.17
513.813	2885.96
514.02	2873.37
514.226	2934.98
514.433	2947.77
514.639	2854.96
514.846	2892.74
515.052	2858.84
515.259	2924.91
515.465	2892.74
515.672	2887.12
515.878	3021.97
516.085	3011.12
516.291	2992.91
516.497	2996.59
516.704	2931.49
516.91	2836.17
517.117	2704.23
517.323	2602.12
517.529	2638.35
517.736	2645.52
517.942	2642.62
518.148	2687.37
518.354	2742.2
518.561	2776.3
518.767	2718.18
518.973	2739.1
519.179	2770.49
519.386	2803.23
519.592	2806.14
519.798	2820.48
520.004	2994.27
520.21	2905.92
520.417	3049.1
520.623	3033.98
520.829	3057.43
521.035	3022.36
521.241	3002.99
521.447	3059.17
521.653	3156.82
521.859	3039.22
522.065	3092.11
522.271	3183.95
522.477	3139.77
522.683	3154.11
522.889	3115.75
523.095	3091.92
523.301	3090.95
523.507	2998.14
523.713	3093.85
523.919	3065.76
524.125	3189.95
524.331	3155.85
524.537	3281.4
524.742	3258.73
524.948	3263.19
525.154	3254.47
525.36	3333.71
525.566	3250.01
525.772	3312.79
525.977	3234.71
526.183	3243.81
526.389	3316.08
526.595	3162.83
526.8	3160.11
527.006	2990.2
527.212	2953.97
527.417	2921.81
527.623	2936.34
527.829	3068.28
528.034	3108
528.24	3114.39
528.446	3114
528.651	3314.34
528.857	3237.61
529.062	3333.91
529.268	3317.24
529.473	3369.75
529.679	3378.08
529.884	3484.64
530.09	3396.87
530.295	3354.06
530.501	3393.97
530.706	3336.42
530.912	3301.74
531.117	3401.72
531.323	3376.72
531.528	3485.61
531.733	3523.58
531.939	3435.24
532.144	3455
532.35	3466.62
532.555	3497.82
532.76	3380.02
532.966	3395.32
533.171	3356.38
533.376	3282.95
533.581	3246.72
533.787	3329.64
533.992	3411.21
534.197	3367.04
534.402	3468.17
534.607	3415.47
534.813	3486
535.018	3379.05
535.223	3465.46
535.428	3471.27
535.633	3441.44
535.838	3519.71
536.043	3609.41
536.249	3675.29
536.454	3520.87
536.659	3618.52
536.864	3554.2
537.069	3553.23
537.274	3531.14
537.479	3521.26
537.684	3513.9
537.889	3428.84
538.094	3637.7
538.299	3527.85
538.504	3550.32
538.708	3581.51
538.913	3687.69
539.118	3572.8
539.323	3556.91
539.528	3549.93
539.733	3539.08
539.938	3590.62
540.142	3525.52
540.347	3530.17
540.552	3486.97
540.757	3512.54
540.962	3479.41
541.166	3409.08
541.371	3388.93
541.576	3444.73
541.781	3374.2
541.985	3519.71
542.19	3509.83
542.395	3598.37
542.599	3651.26
542.804	3579.38
543.008	3626.46
543.213	3573.96
543.418	3546.25
543.622	3561.17
543.827	3488.13
544.031	3627.24
544.236	3651.46
544.44	3637.89
544.645	3744.07
544.849	3620.46
545.054	3656.3
545.258	3771.39
545.463	3674.32
545.667	3574.35
545.872	3664.63
546.076	3641.19
546.281	3635.57
546.485	3586.55
546.689	3621.62
546.894	3663.28
547.098	3631.11
547.302	3610.96
547.507	3606.31
547.711	3627.63
547.915	3583.06
548.119	3520.29
548.324	3487.74
548.528	3539.08
548.732	3456.55
548.936	3614.45
549.141	3597.4
549.345	3597.21
549.549	3588.88
549.753	3609.03
549.957	3651.46
550.161	3643.9
550.366	3622.59
550.57	3586.94
550.774	3583.26
550.978	3540.05
551.182	3573.38
551.386	3530.75
551.59	3519.71
551.794	3541.6
551.998	3593.72
552.202	3575.51
552.406	3510.02
552.61	3591.4
552.814	3592.95
553.018	3594.69
553.222	3535.02
553.426	3505.37
553.63	3637.31
553.833	3570.86
554.037	3502.27
554.241	3551.87
554.445	3534.82
554.649	3550.71
554.853	3533.66
555.056	3620.26
555.26	3634.99
555.464	3596.82
555.668	3613.87
555.871	3630.73
556.075	3634.6
556.279	3592.95
556.483	3531.53
556.686	3554.97
556.89	3552.06
557.094	3611.55
557.297	3515.06
557.501	3541.99
557.704	3439.3
557.908	3574.73
558.112	3482.51
558.315	3599.73
558.519	3533.66
558.722	3473.4
558.926	3482.12
559.129	3384.47
559.333	3400.36
559.536	3357.16
559.74	3367.23
559.943	3386.02
560.147	3348.63
560.35	3372.07
560.553	3419.54
560.757	3392.22
560.96	3486.38
561.164	3437.37
561.367	3559.43
561.57	3463.72
561.774	3468.56
561.977	3458.1
562.18	3386.6
562.384	3532.11
562.587	3406.37
562.79	3416.25
562.993	3424
563.197	3422.64
563.4	3492
563.603	3507.7
563.806	3537.34
564.009	3410.24
564.212	3475.34
564.416	3404.24
564.619	3438.72
564.822	3405.2
565.025	3447.83
565.228	3400.55
565.431	3419.35
565.634	3275.59
565.837	3345.92
566.04	3338.17
566.243	3282.37
566.446	3178.52
566.649	3338.75
566.852	3231.8
567.055	3302.52
567.258	3298.64
567.461	3377.5
567.664	3379.44
567.867	3281.59
568.07	3291.47
568.273	3298.45
568.475	3370.14
568.678	3249.82
568.881	3265.32
569.084	3247.49
569.287	3150.43
569.489	3227.73
569.692	3278.49
569.895	3241.68
570.098	3157.6
570.3	3149.26
570.503	3101.41
570.706	3119.23
570.909	3137.25
571.111	3041.35
571.314	3014.22
571.516	3050.07
571.719	3085.13
571.922	3047.35
572.124	3015.77
572.327	3117.1
572.529	3033.79
572.732	3043.48
572.935	3103.73
573.137	3197.12
573.34	3085.52
573.542	3176.58
573.745	3161.47
573.947	3086.1
574.15	3083
574.352	3095.98
574.554	3119.04
574.757	3000.66
574.959	2986.52
575.162	3024.88
575.364	2977.99
575.566	3074.09
575.769	2940.4
575.971	2986.9
576.173	2824.16
576.376	2946.02
576.578	2985.94
576.78	2987.49
576.982	2833.84
577.185	2930.91
577.387	2891
577.589	2927.04
577.791	2973.54
577.993	2925.68
578.196	2910.57
578.398	2894.49
578.6	2867.75
578.802	2796.26
579.004	2817.57
579.206	2872.01
579.408	2872.79
579.61	2824.54
579.812	2915.8
580.014	2855.16
580.216	2826.48
580.418	2892.74
580.62	2863.29
580.822	2804.59
581.024	2881.31
581.226	2923.55
581.428	2864.26
581.63	2943.5
581.832	2874.92
582.034	2933.24
582.236	2917.93
582.438	2914.64
582.64	2993.3
582.841	2952.42
583.043	3027.01
583.245	2876.47
583.447	2953.77
583.649	2910.96
583.85	2904.17
584.052	2952.8
584.254	2873.37
584.456	2942.54
584.657	2844.69
584.859	2950.67
585.061	2880.34
585.262	2885.57
585.464	2858.84
585.666	2952.22
585.867	2844.69
586.069	2868.14
586.27	2834.43
586.472	2814.08
586.674	2859.42
586.875	2787.15
587.077	2813.69
587.278	2875.69
587.48	2850.89
587.681	2919.67
587.883	2805.36
588.084	2775.91
588.285	2789.48
588.487	2791.03
588.688	2764.09
588.89	2699
589.091	2617.23
589.292	2633.32
589.494	2529.08
589.695	2523.27
589.896	2401.4
590.098	2418.26
590.299	2506.22
590.5	2471.54
590.702	2541.29
590.903	2540.9
591.104	2652.3
591.305	2684.66
591.507	2671.48
591.708	2678.46
591.909	2645.72
592.11	2708.88
592.311	2647.65
592.512	2644.17
592.714	2596.7
592.915	2629.63
593.116	2651.53
593.317	2681.75
593.518	2673.61
593.719	2654.24
593.92	2683.3
594.121	2734.06
594.322	2688.34
594.523	2668.77
594.724	2631.96
594.925	2635.06
595.126	2631.77
595.327	2636.8
595.528	2651.53
595.729	2637
595.929	2665.67
596.13	2631.38
596.331	2687.95
596.532	2698.41
596.733	2742.2
596.934	2669.55
597.135	2696.86
597.335	2674.39
597.536	2641.65
597.737	2657.73
597.938	2611.62
598.138	2670.71
598.339	2690.47
598.54	2664.12
598.74	2652.5
598.941	2618.2
599.142	2711.2
599.342	2643
599.543	2579.07
599.744	2616.27
599.944	2631.38
600.145	2603.48
600.345	2661.99
600.546	2697.06
600.746	2683.69
600.947	2714.3
601.147	2582.75
601.348	2691.83
601.548	2562.6
601.749	2625.37
601.949	2552.14
602.15	2579.65
602.35	2597.86
602.551	2623.05
602.751	2531.79
602.951	2558.92
603.152	2526.95
603.352	2640.68
603.552	2588.37
603.753	2624.02
603.953	2664.51
604.153	2610.65
604.354	2596.7
604.554	2624.21
604.754	2656.37
604.954	2582.17
605.155	2624.98
605.355	2598.63
605.555	2623.82
605.755	2651.33
605.955	2606.19
606.155	2609.48
606.356	2615.49
606.556	2578.1
606.756	2636.22
606.956	2551.75
607.156	2581
607.356	2513.19
607.556	2591.27
607.756	2608.32
607.956	2594.37
608.156	2606.58
608.356	2545.35
608.556	2559.3
608.756	2516.29
608.956	2526.17
609.156	2528.5
609.356	2499.63
609.556	2507.19
609.755	2521.52
609.955	2462.82
610.155	2511.06
610.355	2515.13
610.555	2484.32
610.755	2485.68
610.954	2416.32
611.154	2497.11
611.354	2494.98
611.554	2436.86
611.753	2498.08
611.953	2430.07
612.153	2507.77
612.352	2522.88
612.552	2398.88
612.752	2396.56
612.951	2426.78
613.151	2469.21
613.351	2447.32
613.55	2446.16
613.75	2476.57
613.949	2447.9
614.149	2464.56
614.348	2428.52
614.548	2393.65
614.747	2347.73
614.947	2369.43
615.146	2340.76
615.346	2447.9
615.545	2438.21
615.745	2392.88
615.944	2432.4
616.144	2398.88
616.343	2386.09
616.542	2361.88
616.742	2380.48
616.941	2337.27
617.14	2270.81
617.34	2324.68
617.539	2332.23
617.738	2293.29
617.938	2442.86
618.137	2337.46
618.336	2315.96
618.535	2356.26
618.734	2367.3
618.934	2374.28
619.133	2371.76
619.332	2395.01
619.531	2305.88
619.73	2368.66
619.929	2396.56
620.128	2399.27
620.328	2432.79
620.527	2412.06
620.726	2375.24
620.925	2407.99
621.124	2371.37
621.323	2354.51
621.522	2286.31
621.721	2327.39
621.92	2291.35
622.119	2391.33
622.318	2292.13
622.517	2309.37
622.715	2306.66
622.914	2246.21
623.113	2287.48
623.312	2209.78
623.511	2288.64
623.71	2303.17
623.909	2277.6
624.107	2314.21
624.306	2222.38
624.505	2256.48
624.704	2241.95
624.902	2237.49
625.101	2312.28
625.3	2258.8
625.499	2215.79
625.697	2215.6
625.896	2153.4
626.095	2227.22
626.293	2133.25
626.492	2179.75
626.69	2188.28
626.889	2184.6
627.088	2233.81
627.286	2193.51
627.485	2139.65
627.683	2175.1
627.882	2152.82
628.08	2133.45
628.279	2130.54
628.477	2152.24
628.676	2085.79
628.874	2134.22
629.073	2091.99
629.271	2054.98
629.469	2108.07
629.668	2116.01
629.866	2094.12
630.065	2097.41
630.263	2085.2
630.461	2048.97
630.66	2099.74
630.858	2098.38
631.056	2116.4
631.254	2099.74
631.453	2087.34
631.651	2143.52
631.849	2041.81
632.047	2059.44
632.245	2024.76
632.444	2082.1
632.642	2096.05
632.84	2119.5
633.038	2067.77
633.236	2072.22
633.434	2063.7
633.632	2045.49
633.83	2039.29
634.028	2117.75
634.227	2122.02
634.425	2190.41
634.623	2114.07
634.821	2133.06
635.019	2133.64
635.216	2100.7
635.414	2143.72
635.612	2128.22
635.81	2096.25
636.008	2150.3
636.206	2060.21
636.404	2105.74
636.602	2084.24
636.8	2078.62
636.997	2103.61
637.195	2118.34
637.393	2085.98
637.591	2145.46
637.789	2146.82
637.986	2107.1
638.184	2088.3
638.382	2159.02
638.58	2112.52
638.777	2160.38
638.975	2094.31
639.173	2108.65
639.37	2147.4
639.568	2178.4
639.765	2140.42
639.963	2086.75
640.161	2111.75
640.358	2101.09
640.556	1994.34
640.753	2017.2
640.951	2016.42
641.148	2050.52
641.346	2031.15
641.543	1989.11
641.741	2058.85
641.938	1965.86
642.136	2002.86
642.333	1941.64
642.531	2034.25
642.728	2093.54
642.925	2017.01
643.123	1988.72
643.32	2007.71
643.517	1974.38
643.715	1985.81
643.912	2012.36
644.109	1973.22
644.306	2000.92
644.504	1940.67
644.701	2007.9
644.898	1988.52
645.095	1931.76
645.293	1997.44
645.49	2017.78
645.687	1969.73
645.884	1993.95
646.081	1932.73
646.278	1940.86
646.475	1893.2
646.672	1911.41
646.87	1949.78
647.067	1913.54
647.264	1903.66
647.461	1861.04
647.658	1841.28
647.855	1926.72
648.052	1890.88
648.249	1792.26
648.446	1875.18
648.642	1876.73
648.839	1858.91
649.036	1886.61
649.233	1821.71
649.43	1812.41
649.627	1801.56
649.824	1835.46
650.021	1772.11
650.217	1786.06
650.414	1799.43
650.611	1855.23
650.808	1910.44
651.004	1911.22
651.201	1911.22
651.398	1947.06
651.595	1879.44
651.791	1835.66
651.988	1913.35
652.185	1814.54
652.381	1887.58
652.578	1818.03
652.775	1856.2
652.971	1824.61
653.168	1822.1
653.364	1893.2
653.561	1783.73
653.757	1857.75
653.954	1861.43
654.15	1799.04
654.347	1905.41
654.543	1857.36
654.74	1793.42
654.936	1759.9
655.133	1805.82
655.329	1796.33
655.525	1742.08
655.722	1815.31
655.918	1665.94
656.115	1742.66
656.311	1618.27
656.507	1568.09
656.704	1536.51
656.9	1571.39
657.096	1558.79
657.292	1581.66
657.489	1642.88
657.685	1643.27
657.881	1590.57
658.077	1630.67
658.273	1699.26
658.47	1800.2
658.666	1727.93
658.862	1742.85
659.058	1695.97
659.254	1802.53
659.45	1750.8
659.646	1730.07
659.842	1715.92
660.038	1787.42
660.234	1706.43
660.43	1742.08
660.626	1851.74
660.822	1794
661.018	1791.1
661.214	1781.8
661.41	1744.98
661.606	1771.92
661.802	1768.43
661.998	1747.7
662.194	1753.12
662.39	1805.24
662.586	1802.53
662.781	1808.15
662.977	1803.5
663.173	1770.75
663.369	1799.62
663.564	1770.37
663.76	1800.59
663.956	1733.36
664.152	1779.28
664.347	1652.57
664.543	1763.2
664.739	1736.27
664.934	1668.65
665.13	1692.29
665.326	1774.63
665.521	1730.07
665.717	1708.37
665.912	1699.84
666.108	1647.53
666.304	1706.62
666.499	1701.78
666.695	1646.56
666.89	1691.7
667.086	1726
667.281	1704.88
667.477	1761.65
667.672	1734.91
667.867	1742.47
668.063	1734.52
668.258	1697.32
668.454	1711.27
668.649	1788
668.844	1692.29
669.04	1703.14
669.235	1674.27
669.43	1666.32
669.626	1670.59
669.821	1680.08
670.016	1655.67
670.211	1688.02
670.407	1616.72
670.602	1721.15
670.797	1686.09
670.992	1762.62
671.187	1688.99
671.382	1703.72
671.578	1653.73
671.773	1691.7
671.968	1614.79
672.163	1650.44
672.358	1704.3
672.553	1639.97
672.748	1679.3
672.943	1744.98
673.138	1701.97
673.333	1687.64
673.528	1628.15
673.723	1679.11
673.918	1638.42
674.113	1677.95
674.308	1737.04
674.503	1685.31
674.698	1690.15
674.892	1684.15
675.087	1731.03
675.282	1678.92
675.477	1621.37
675.672	1683.57
675.867	1598.12
676.061	1641.14
676.256	1611.11
676.451	1634.35
676.646	1672.33
676.84	1633
677.035	1636.68
677.23	1622.54
677.424	1705.46
677.619	1704.49
677.814	1722.7
678.008	1680.66
678.203	1607.04
678.397	1611.88
678.592	1647.92
678.787	1684.15
678.981	1645.2
679.176	1647.92
679.37	1637.65
679.565	1624.47
679.759	1645.01
679.954	1665.35
680.148	1665.74
680.342	1746.53
680.537	1668.26
680.731	1646.37
680.926	1653.34
681.12	1690.54
681.314	1601.22
681.509	1626.6
681.703	1614.4
681.897	1643.85
682.092	1612.66
682.286	1608.2
682.48	1668.84
682.674	1664
682.869	1575.07
683.063	1688.8
683.257	1709.33
683.451	1609.36
683.645	1657.8
683.839	1623.12
684.034	1601.42
684.228	1635.13
684.422	1574.29
684.616	1568.67
684.81	1583.98
685.004	1558.21
685.198	1594.06
685.392	1616.92
685.586	1599.48
685.78	1584.95
685.974	1608.78
686.168	1582.24
686.362	1650.44
686.556	1479.16
686.75	1445.64
686.944	1445.64
687.138	1421.23
687.331	1313.9
687.525	1288.52
687.719	1265.07
687.913	1312.54
688.107	1311.18
688.301	1261.59
688.494	1306.15
688.688	1327.65
688.882	1270.11
689.076	1289.29
689.269	1287.93
689.463	1384.81
689.657	1328.04
689.85	1328.62
690.044	1340.63
690.238	1309.44
690.431	1345.67
690.625	1303.24
690.818	1389.85
691.012	1386.36
691.205	1432.47
691.399	1362.33
691.593	1362.14
691.786	1436.35
691.98	1422.98
692.173	1461.53
692.366	1453.78
692.56	1435.76
692.753	1474.32
692.947	1362.72
693.14	1449.71
693.333	1453.01
693.527	1392.95
693.72	1452.81
693.914	1450.1
694.107	1444.68
694.3	1413.68
694.493	1373.38
694.687	1468.7
694.88	1373.96
695.073	1495.63
695.266	1454.75
695.46	1415.81
695.653	1469.09
695.846	1454.17
696.039	1433.44
696.232	1446.81
696.425	1463.86
696.618	1488.08
696.812	1503.96
697.005	1558.99
697.198	1634.94
697.391	1531.47
697.584	1576.04
697.777	1659.35
697.97	1588.44
698.163	1591.73
698.356	1578.94
698.549	1665.55
698.742	1630.67
698.935	1570.61
699.127	1599.87
699.32	1588.24
699.513	1586.5
699.706	1630.29
699.899	1629.32
700.092	1587.86
700.285	1639
700.477	1575.46
700.67	1651.21
700.863	1651.99
701.056	1735.49
701.248	1701
701.441	1707.4
701.634	1687.64
701.826	1769.4
702.019	1663.22
702.212	1741.11
702.404	1711.47
702.597	1699.07
702.79	1734.13
702.982	1745.95
703.175	1761.84
703.367	1793.23
703.56	1801.36
703.752	1896.88
703.945	1847.48
704.137	1885.26
704.33	1856
704.522	1862.98
704.715	1902.31
704.907	1939.7
705.1	1947.06
705.292	1977.87
705.484	1971.47
705.677	2010.03
705.869	2023.4
706.061	2038.9
706.254	2093.34
706.446	2038.71
706.638	2029.6
706.831	2147.4
707.023	2077.45
707.215	2197.19
707.407	2167.35
707.599	2173.75
707.792	2236.71
707.984	2231.1
708.176	2259.58
708.368	2241.17
708.56	2255.9
708.752	2263.06
708.944	2224.7
709.136	2288.25
709.329	2301.81
709.521	2376.21
709.713	2355.68
709.905	2368.27
710.097	2405.47
710.289	2356.45
710.481	2383.96
710.672	2446.16
710.864	2443.64
711.056	2507.38
711.248	2513.77
711.44	2515.13
711.632	2511.64
711.824	2555.43
712.016	2566.86
712.207	2603.48
712.399	2608.13
712.591	2660.44
712.783	2633.51
712.975	2650.17
713.166	2644.94
713.358	2656.57
713.55	2722.63
713.741	2733.87
713.933	2764.09
714.125	2756.54
714.316	2753.05
714.508	2837.33
714.7	2801.88
714.891	2824.54
715.083	2870.66
715.274	2825.9
715.466	2853.41
715.657	2897.97
715.849	2800.13
716.04	2875.89
716.232	2795.29
716.423	2911.34
716.615	2807.11
716.806	2833.65
716.998	2746.08
717.189	2677.49
717.381	2628.47
717.572	2567.83
717.763	2578.48
717.955	2538.38
718.146	2532.57
718.337	2474.83
718.528	2452.36
718.72	2377.76
718.911	2433.17
719.102	2379.12
719.293	2457.59
719.485	2423.87
719.676	2424.46
719.867	2385.71
720.058	2421.36
720.249	2409.92
720.44	2466.11
720.632	2511.06
720.823	2559.3
721.014	2664.9
721.205	2706.94
721.396	2784.83
721.587	2914.25
721.778	2888.48
721.969	2974.7
722.16	3040.18
722.351	3064.02
722.542	3225.02
722.733	3212.04
722.924	3135.12
723.115	3191.69
723.305	3205.06
723.496	3216.69
723.687	3066.34
723.878	3060.92
724.069	3077
724.26	3078.16
724.45	3052.97
724.641	3019.26
724.832	3097.92
725.023	3026.23
725.213	3051.23
725.404	3024.3
725.595	3056.65
725.785	3008.02
725.976	3075.06
726.167	3093.85
726.357	3167.48
726.548	3241.1
726.739	3168.25
726.929	3225.41
727.12	3297.09
727.31	3335.65
727.501	3249.24
727.691	3284.69
727.882	3232.77
728.072	3352.31
728.263	3300.19
728.453	3364.52
728.644	3418.77
728.834	3347.66
729.024	3308.14
729.215	3337.2
729.405	3367.23
729.596	3472.05
729.786	3471.08
729.976	3520.68
730.167	3517.77
730.357	3472.43
730.547	3518.74
730.737	3616
730.928	3603.02
731.118	3645.45
731.308	3593.14
731.498	3622.78
731.688	3676.84
731.879	3720.82
732.069	3782.62
732.259	3799.09
732.449	3837.45
732.639	3931.23
732.829	3975.98
733.019	4009.7
733.209	4041.47
733.399	4054.65
733.589	4186.78
733.779	4189.3
733.969	4193.37
734.159	4224.17
734.349	4283.46
734.539	4325.12
734.729	4357.47
734.919	4408.43
735.109	4426.45
735.299	4372.2
735.488	4429.55
735.678	4441.56
735.868	4475.66
736.058	4436.71
736.248	4416.95
736.437	4389.05
736.627	4379.17
736.817	4504.53
737.007	4470.04
737.196	4521.19
737.386	4532.81
737.576	4484.57
737.765	4578.34
737.955	4544.05
738.144	4683.74
738.334	4632.79
738.524	4587.26
738.713	4586.48
738.903	4563.62
739.092	4597.91
739.282	4604.89
739.471	4611.28
739.661	4628.52
739.85	4677.15
740.04	4648.09
740.229	4715.32
740.419	4739.74
740.608	4764.15
740.797	4711.84
740.987	4793.79
741.176	4785.65
741.365	4741.67
741.555	4651.58
741.744	4785.46
741.933	4795.53
742.123	4806.19
742.312	4760.47
742.501	4839.32
742.69	4865.67
742.88	4747.68
743.069	4881.95
743.258	4840.87
743.447	4936.58
743.636	4909.26
743.825	4868.19
744.014	4900.55
744.204	4948.4
744.393	4844.17
744.582	4979.21
744.771	4928.06
744.96	4879.81
745.149	4966.03
745.338	4890.86
745.527	5005.75
745.716	4985.6
745.905	4947.43
746.094	5047.6
746.283	5001.49
746.471	4936.97
746.66	5003.04
746.849	5026.87
747.038	5066.2
747.227	4985.99
747.416	5045.66
747.604	4987.73
747.793	4999.74
747.982	5019.51
748.171	5022.41
748.359	5003.43
748.548	5016.6
748.737	4999.16
748.926	4984.24
749.114	4911.59
749.303	5012.73
749.491	5011.95
749.68	4905
749.869	5060.97
750.057	4957.7
750.246	4965.84
750.434	4960.8
750.623	4946.08
750.811	4932.13
751	5009.04
751.188	4935.42
751.377	4940.26
751.565	4948.59
751.754	4945.49
751.942	4883.11
752.131	4995.87
752.319	4923.41
752.507	4904.03
752.696	4907.13
752.884	4956.93
753.072	4894.73
753.261	4943.36
753.449	4963.9
753.637	4867.22
753.825	4980.95
754.014	4917.6
754.202	4926.31
754.39	4974.75
754.578	4987.34
754.766	4902.68
754.955	4885.24
755.143	4945.49
755.331	4877.68
755.519	4888.73
755.707	4928.64
755.895	4851.53
756.083	4862.57
756.271	4827.5
756.459	4834.87
756.647	4845.72
756.835	4794.57
757.023	4857.53
757.211	4806.19
757.399	4777.71
757.587	4789.53
757.775	4708.15
757.963	4771.7
758.151	4815.68
758.339	4729.66
758.526	4751.17
758.714	4757.37
758.902	4622.13
759.09	4589.19
759.278	4416.76
759.465	4108.12
759.653	3674.32
759.841	3381.18
760.028	2978.96
760.216	2621.69
760.404	2459.52
760.591	2111.17
760.779	1857.94
760.967	1677.56
761.154	1465.02
761.342	1530.7
761.529	1502.99
761.717	1618.08
761.905	1655.09
762.092	1780.05
762.28	1736.27
762.467	1754.87
762.655	1698.1
762.842	1733.17
763.029	1787.03
763.217	1807.37
763.404	1824.81
763.592	1858.33
763.779	1822.87
763.966	1869.95
764.154	1915.48
764.341	2020.3
764.528	2023.4
764.716	2114.46
764.903	2145.65
765.09	2237.1
765.277	2306.27
765.465	2501.57
765.652	2566.28
765.839	2663.35
766.026	2775.33
766.213	2846.24
766.4	2987.29
766.588	3158.37
766.775	3167.67
766.962	3313.17
767.149	3404.24
767.336	3570.08
767.523	3504.4
767.71	3677.03
767.897	3807.62
768.084	3898.1
768.271	3891.12
768.458	3946.15
768.645	4059.88
768.832	3957.38
769.019	4016.28
769.206	4084.87
769.392	4128.85
769.579	4191.43
769.766	4169.34
769.953	4129.04
770.14	4217.78
770.327	4183.68
770.513	4297.41
770.7	4316.59
770.887	4211.97
771.073	4277.26
771.26	4312.72
771.447	4233.67
771.634	4225.53
771.82	4326.47
772.007	4246.26
772.193	4317.17
772.38	4331.32
772.567	4254.2
772.753	4222.82
772.94	4328.8
773.126	4289.27
773.313	4277.84
773.499	4200.73
773.686	4324.15
773.872	4192.79
774.059	4239.09
774.245	4200.15
774.432	4244.71
774.618	4130.59
774.804	4193.95
774.991	4153.65
775.177	4177.29
775.363	4179.22
775.55	4180
775.736	4145.32
775.922	4163.92
776.109	4139.51
776.295	4143.77
776.481	4147.64
776.667	4108.89
776.853	4109.67
777.04	4078.67
777.226	4111.61
777.412	4200.54
777.598	4067.04
777.784	4054.84
777.97	4066.27
778.156	4121.88
778.342	4091.65
778.528	4048.25
778.715	3926.58
778.901	3973.47
779.087	4057.94
779.272	4013.96
779.458	3971.14
779.644	3971.53
779.83	3982.18
780.016	4077.12
780.202	3992.26
780.388	3970.75
780.574	3918.05
780.76	3920.38
780.946	3949.83
781.131	3962.62
781.317	3911.47
781.503	3870.59
781.689	3875.04
781.874	4017.83
782.06	3884.54
782.246	3853.15
782.432	3871.94
782.617	3926.77
782.803	3898.68
782.989	3845.2
783.174	3824.28
783.36	3798.9
783.545	3826.6
783.731	3814.98
783.916	3701.06
784.102	3827.96
784.288	3748.91
784.473	3765.96
784.659	3707.84
784.844	3760.92
785.029	3705.32
785.215	3754.14
785.4	3689.82
785.586	3757.44
785.771	3661.53
785.956	3713.65
786.142	3713.84
786.327	3653.2
786.512	3678.78
786.698	3668.51
786.883	3621.81
787.068	3630.92
787.254	3627.24
787.439	3624.14
787.624	3604.96
787.809	3584.81
787.994	3600.5
788.18	3654.75
788.365	3548.96
788.55	3544.7
788.735	3584.81
788.92	3541.41
789.105	3500.92
789.29	3535.4
789.475	3457.9
789.66	3476.5
789.845	3487.93
790.03	3477.28
790.215	3507.5
790.4	3534.24
790.585	3520.48
790.77	3430.97
790.955	3394.94
791.14	3433.88
791.325	3508.28
791.51	3340.3
791.695	3388.74
791.879	3411.4
792.064	3370.14
792.249	3454.03
792.434	3371.49
792.618	3367.81
792.803	3456.74
792.988	3429.23
793.173	3393
793.357	3404.04
793.542	3379.24
793.727	3421.67
793.911	3441.63
794.096	3410.05
794.281	3418.57
794.465	3456.35
794.65	3382.73
794.834	3476.12
795.019	3483.09
795.203	3490.07
795.388	3460.23
795.572	3516.22
795.757	3446.28
795.941	3462.75
796.126	3472.82
796.31	3409.47
796.494	3462.36
796.679	3444.15
796.863	3413.92
797.048	3509.63
797.232	3441.82
797.416	3488.71
797.601	3496.85
797.785	3539.86
797.969	3562.72
798.153	3449.38
798.338	3524.75
798.522	3541.02
798.706	3567.95
798.89	3528.04
799.074	3609.61
799.258	3621.62
799.443	3505.76
799.627	3518.35
799.811	3594.11
799.995	3494.72
800.179	3486.38
800.363	3453.06
800.547	3509.25
800.731	3517
800.915	3421.87
801.099	3456.93
801.283	3447.25
801.467	3481.73
801.651	3490.26
801.835	3502.66
802.019	3513.12
802.202	3508.28
802.386	3430.59
802.57	3425.16
802.754	3423.61
802.938	3422.64
803.121	3421.67
803.305	3507.5
803.489	3479.22
803.673	3486.97
803.856	3520.87
804.04	3446.28
804.224	3511.38
804.407	3476.7
804.591	3456.74
804.775	3462.75
804.958	3506.34
805.142	3578.61
805.326	3406.95
805.509	3481.15
805.693	3502.66
805.876	3506.53
806.06	3467.4
806.243	3508.28
806.427	3508.08
806.61	3518.16
806.794	3483.48
806.977	3503.24
807.16	3489.87
807.344	3496.65
807.527	3496.46
807.71	3450.93
807.894	3418.38
808.077	3503.05
808.26	3436.79
808.444	3401.52
808.627	3487.16
808.81	3380.4
808.993	3336.23
809.177	3369.94
809.36	3370.14
809.543	3386.8
809.726	3283.72
809.909	3284.5
810.092	3283.14
810.276	3286.24
810.459	3310.46
810.642	3280.62
810.825	3217.08
811.008	3237.81
811.191	3148.49
811.374	3200.03
811.557	3184.72
811.74	3220.76
811.923	3117.1
812.106	3139.58
812.289	3083.97
812.472	3135.12
812.654	3067.89
812.837	3084.75
813.02	2981.29
813.203	2994.46
813.386	2857.67
813.569	2834.43
813.751	2776.3
813.934	2827.26
814.117	2800.71
814.3	2689.89
814.482	2680.01
814.665	2635.25
814.848	2568.22
815.03	2522.88
815.213	2527.34
815.396	2528.89
815.578	2471.15
815.761	2433.76
815.943	2520.36
816.126	2358.19
816.309	2364.98
816.491	2305.88
816.674	2246.01
816.856	2277.01
817.039	2266.16
817.221	2365.17
817.403	2279.73
817.586	2301.04
817.768	2314.99
817.951	2221.41
818.133	2217.73
818.315	2240.59
818.498	2302.98
818.68	2325.45
818.862	2294.45
819.045	2379.89
819.227	2303.17
819.409	2272.17
819.591	2296.2
819.774	2265.58
819.956	2304.91
820.138	2349.28
820.32	2309.37
820.502	2382.61
820.684	2491.49
820.866	2452.55
821.048	2510.87
821.231	2533.73
821.413	2510.29
821.595	2526.56
821.777	2553.1
821.959	2520.17
822.141	2540.12
822.323	2457.97
822.505	2397.33
822.686	2315.38
822.868	2226.64
823.05	2056.72
823.232	2081.52
823.414	1988.14
823.596	2066.6
823.778	2029.02
823.96	2072.61
824.141	2106.9
824.323	2098.38
824.505	2207.46
824.687	2206.1
824.868	2318.67
825.05	2374.28
825.232	2468.05
825.413	2516.87
825.595	2417.09
825.777	2387.84
825.958	2467.47
826.14	2426.2
826.321	2474.44
826.503	2412.64
826.685	2461.07
826.866	2488.97
827.048	2469.6
827.229	2377.57
827.411	2350.83
827.592	2279.15
827.773	2305.5
827.955	2256.09
828.136	2235.55
828.318	2235.16
828.499	2253.76
828.68	2196.03
828.862	2223.73
829.043	2273.72
829.224	2222.77
829.406	2176.46
829.587	2208.62
829.768	2206.88
829.949	2201.65
830.131	2223.73
830.312	2242.33
830.493	2210.17
830.674	2212.3
830.855	2182.27
831.036	2162.7
831.218	2246.21
831.399	2296.97
831.58	2221.41
831.761	2188.28
831.942	2217.92
832.123	2225.28
832.304	2167.16
832.485	2144.1
832.666	2174.33
832.847	2233.81
833.028	2191.57
833.209	2199.13
833.389	2184.02
833.57	2115.43
833.751	2122.79
833.932	2221.22
834.113	2156.5
834.294	2153.98
834.475	2221.6
834.655	2217.53
834.836	2239.04
835.017	2234.58
835.198	2157.86
835.378	2203
835.559	2267.91
835.74	2179.56
835.92	2177.04
836.101	2185.18
836.281	2225.28
836.462	2242.33
836.643	2266.36
836.823	2257.25
837.004	2302.4
837.184	2286.31
837.365	2296.58
837.545	2288.83
837.726	2202.62
837.906	2323.9
838.087	2211.92
838.267	2242.72
838.448	2203
838.628	2241.95
838.808	2208.23
838.989	2271.78
839.169	2180.14
839.349	2227.42
839.53	2267.71
839.71	2279.34
839.89	2219.28
840.07	2259.77
840.251	2213.85
840.431	2296.97
840.611	2213.27
840.791	2160.18
840.971	2249.11
841.151	2173.36
841.332	2191.57
841.512	2205.33
841.692	2137.9
841.872	2215.6
842.052	2171.03
842.232	2236.91
842.412	2153.79
842.592	2125.31
842.772	2201.45
842.952	2204.36
843.132	2150.11
843.312	2141.2
843.492	2136.55
843.672	2167.35
843.851	2085.98
844.031	2123.76
844.211	2107.29
844.391	2124.54
844.571	2145.27
844.751	2114.07
844.93	2131.12
845.11	2120.47
845.29	2154.57
845.47	2120.47
845.649	2088.11
845.829	2122.4
846.009	2109.81
846.188	2123.37
846.368	2102.06
846.547	2092.95
846.727	2197
846.907	2022.62
847.086	2075.9
847.266	2134.22
847.445	2098.77
847.625	2031.54
847.804	2045.1
847.984	2099.15
848.163	2073.19
848.343	2055.95
848.522	2032.7
848.701	2060.21
848.881	2021.27
849.06	2030.96
849.239	2031.92
849.419	2021.46
849.598	1995.11
849.777	1994.53
849.957	1926.91
850.136	1888.74
850.315	1844.76
850.494	1878.48
850.674	1913.54
850.853	1941.44
851.032	1898.82
851.211	1971.67
851.39	1934.66
851.569	1890.1
851.748	1896.49
851.927	1944.16
852.107	1928.46
852.286	1887.97
852.465	1857.55
852.644	1932.73
852.823	1937.76
853.002	1910.25
853.181	1910.06
853.359	1909.48
853.538	1827.33
853.717	1899.4
853.896	1806.98
854.075	1701.78
854.254	1678.92
854.433	1622.54
854.611	1607.81
854.79	1595.99
854.969	1652.95
855.148	1698.87
855.327	1654.12
855.505	1687.83
855.684	1705.46
855.863	1719.22
856.041	1695
856.22	1746.92
856.399	1751.38
856.577	1830.23
856.756	1807.56
856.934	1944.93
857.113	1948.23
857.291	1862.78
857.47	1816.67
857.648	1823.84
857.827	1819.58
858.005	1878.28
858.184	1791.87
858.362	1895.72
858.541	1814.15
858.719	1823.65
858.898	1791.29
859.076	1783.35
859.254	1869.37
859.433	1776.76
859.611	1792.26
859.789	1711.27
859.967	1854.06
860.146	1834.11
860.324	1757.38
860.502	1751.57
860.68	1716.12
860.859	1736.27
861.037	1737.82
861.215	1754.48
861.393	1739.17
861.571	1754.67
861.749	1717.28
861.927	1750.8
862.105	1750.6
862.283	1701
862.461	1685.89
862.639	1693.84
862.817	1712.63
862.995	1731.23
863.173	1666.71
863.351	1714.95
863.529	1691.9
863.707	1740.72
863.885	1714.18
864.063	1617.89
864.241	1655.86
864.418	1721.93
864.596	1673.1
864.774	1622.34
864.952	1638.23
865.129	1665.16
865.307	1628.93
865.485	1585.53
865.663	1672.52
865.84	1542.71
866.018	1591.34
866.196	1423.36
866.373	1459.59
866.551	1418.52
866.728	1354
866.906	1398.18
867.084	1443.9
867.261	1459.01
867.439	1521.59
867.616	1537.67
867.794	1477.23
867.971	1526.05
868.149	1530.31
868.326	1590.37
868.503	1595.61
868.681	1531.67
868.858	1514.04
869.035	1524.31
869.213	1556.66
869.39	1514.04
869.567	1598.12
869.745	1513.46
869.922	1509.78
870.099	1571.39
870.276	1547.94
870.454	1558.99
870.631	1569.06
870.808	1541.36
870.985	1566.93
871.162	1614.79
871.339	1551.82
871.517	1496.6
871.694	1469.09
871.871	1523.92
872.048	1493.5
872.225	1500.48
872.402	1509.19
872.579	1484.01
872.756	1517.14
872.933	1418.33
873.11	1491.76
873.287	1514.81
873.463	1446.81
873.64	1445.26
873.817	1469.09
873.994	1479.16
874.171	1416.39
874.348	1438.09
874.524	1376.86
874.701	1447.78
874.878	1384.42
875.055	1444.68
875.231	1412.9
875.408	1425.5
875.585	1357.49
875.762	1400.11
875.938	1373.76
876.115	1378.8
876.291	1403.99
876.468	1395.27
876.645	1364.85
876.821	1375.51
876.998	1384.23
877.174	1403.6
877.351	1375.51
877.527	1383.84
877.704	1380.74
877.88	1400.7
878.057	1361.56
878.233	1424.14
878.409	1380.74
878.586	1376.86
878.762	1345.67
878.938	1351.29
879.115	1287.74
879.291	1372.21
879.467	1283.48
879.644	1317.97
879.82	1339.08
879.996	1284.64
880.172	1281.15
880.349	1309.63
880.525	1366.4
880.701	1287.16
880.877	1268.17
881.053	1316.42
881.229	1292.39
881.405	1350.52
881.581	1242.02
881.757	1306.73
881.933	1321.65
882.109	1292.78
882.285	1304.6
882.461	1242.21
882.637	1275.53
882.813	1262.94
882.989	1258.68
883.165	1303.82
883.341	1266.04
883.517	1329.59
883.693	1280.96
883.869	1293.17
884.044	1261.39
884.22	1336.95
884.396	1328.82
884.572	1335.21
884.747	1329.98
884.923	1330.75
885.099	1313.9
885.275	1332.5
885.45	1293.94
885.626	1287.35
885.801	1261.59
885.977	1300.53
886.153	1222.45
886.328	1276.89
886.504	1272.05
886.679	1285.22
886.855	1256.94
887.03	1279.6
887.206	1288.52
887.381	1290.07
887.557	1286.19
887.732	1281.54
887.908	1311.38
888.083	1270.5
888.258	1281.15
888.434	1232.91
888.609	1280.77
888.784	1310.99
888.96	1264.49
889.135	1242.6
889.31	1238.53
889.485	1304.21
889.661	1261.39
889.836	1316.42
890.011	1290.65
890.186	1283.67
890.361	1257.71
890.537	1305.18
890.712	1276.7
890.887	1297.23
891.062	1276.7
891.237	1316.61
891.412	1244.34
891.587	1254.8
891.762	1291.62
891.937	1329.78
892.112	1268.37
892.287	1242.21
892.462	1240.66
892.637	1183.5
892.812	1201.14
892.987	1189.51
893.161	1176.92
893.336	1201.52
893.511	1179.44
893.686	1210.24
893.861	1167.23
894.035	1195.71
894.21	1172.85
894.385	1134.1
894.56	1155.99
894.734	1107.56
894.909	1108.91
895.084	1102.52
895.258	1099.61
895.433	1088.38
895.608	1081.01
895.782	1021.34
895.957	1013.78
896.131	1016.69
896.306	974.65
896.48	963.8
896.655	979.68
896.829	892.88
897.004	924.66
897.178	914.58
897.353	929.31
897.527	939.38
897.701	951.98
897.876	899.47
898.05	987.24
898.224	943.45
898.399	962.44
898.573	922.53
898.747	798.72
898.921	875.06
899.096	731.88
899.27	782.45
899.444	757.07
899.618	815.39
899.792	811.32
899.967	845.22
900.141	894.24
900.315	782.45
900.489	805.5
900.663	839.02
900.837	830.5
901.011	780.9
901.185	869.63
901.359	832.05
901.533	805.89
901.707	818.87
901.881	821
902.055	772.76
902.229	809.38
902.403	869.63
902.576	833.02
902.75	839.6
902.924	929.7
903.098	852.2
903.272	927.95
903.446	961.66
903.619	962.44
903.793	955.46
903.967	946.16
904.14	1017.85
904.314	1000.8
904.488	976.39
904.661	996.35
904.835	968.64
905.009	1024.63
905.182	1061.06
905.356	1004.68
905.529	977.36
905.703	934.93
905.876	911.29
906.05	941.51
906.223	888.04
906.397	843.87
906.57	816.16
906.744	833.98
906.917	809.77
907.09	820.04
907.264	783.8
907.437	769.47
907.61	768.5
907.784	737.11
907.957	775.09
908.13	732.07
908.304	786.32
908.477	735.76
908.65	745.25
908.823	701.27
908.996	780.51
909.17	711.15
909.343	728.97
909.516	721.81
909.689	706.89
909.862	696.62
910.035	706.5
910.208	682.47
910.381	699.72
910.554	784.97
910.727	688.29
910.9	708.05
911.073	683.83
911.246	752.22
911.419	761.52
911.592	748.93
911.765	716.77
911.938	723.94
912.11	737.11
912.283	731.49
912.456	771.21
912.629	721.81
912.802	677.63
912.974	608.85
913.147	615.24
913.32	569.91
913.493	614.66
913.665	653.22
913.838	624.54
914.01	608.85
914.183	660.39
914.356	646.24
914.528	674.34
914.701	753.58
914.873	689.84
915.046	630.16
915.218	613.11
915.391	524.38
915.563	580.37
915.736	602.26
915.908	611.76
916.081	624.35
916.253	618.15
916.425	616.79
916.598	633.65
916.77	635.2
916.942	584.05
917.115	558.09
917.287	601.88
917.459	577.08
917.632	551.89
917.804	510.81
917.976	578.43
918.148	596.84
918.32	572.04
918.493	632.29
918.665	657.48
918.837	627.84
919.009	660.97
919.181	691.77
919.353	616.02
919.525	633.65
919.697	625.32
919.869	643.53
920.041	715.41
920.213	741.37
920.385	708.82
920.557	619.31
920.729	681.89
920.901	638.3
921.073	646.44
921.244	623.96
921.416	659.61
921.588	613.5
921.76	619.12
921.932	681.7
922.103	622.8
922.275	616.6
922.447	639.27
922.619	566.61
922.79	616.6
922.962	582.31
923.134	636.56
923.305	562.55
923.477	581.53
923.648	585.99
923.82	586.76
923.991	507.52
924.163	513.33
924.335	561.96
924.506	561.38
924.677	622.41
924.849	518.95
925.02	539.3
925.192	598.39
925.363	548.01
925.535	574.56
925.706	549.95
925.877	578.63
926.049	543.56
926.22	578.43
926.391	572.04
926.562	591.41
926.734	518.56
926.905	596.26
927.076	514.88
927.247	525.93
927.419	468.38
927.59	480.01
927.761	518.56
927.932	469.55
928.103	469.35
928.274	436.03
928.445	425.37
928.616	434.09
928.787	419.75
928.958	467.42
929.129	414.72
929.3	427.89
929.471	378.29
929.642	313.97
929.813	297.31
929.984	390.89
930.155	265.53
930.326	328.5
930.496	319.59
930.667	242.09
930.838	295.17
931.009	220.58
931.18	260.49
931.35	272.12
931.521	259.33
931.692	197.33
931.863	163.43
932.033	193.84
932.204	200.82
932.374	199.66
932.545	132.62
932.716	213.8
932.886	196.94
933.057	115.96
933.227	138.04
933.398	227.94
933.568	93.1
933.739	77.4
933.909	78.76
934.08	128.55
934.25	42.72
934.421	88.64
934.591	116.73
934.761	95.23
934.932	80.89
935.102	119.64
935.272	109.37
935.443	95.03
935.613	94.84
935.783	126.03
935.953	84.57
936.123	240.15
936.294	83.41
936.464	88.64
936.634	107.43
936.804	45.43
936.974	21.6
937.144	114.8
937.314	90
937.484	71.59
937.655	53.18
937.825	120.03
937.995	71.2
938.165	118.09
938.334	102.2
938.504	108.79
938.674	90.38
938.844	145.6
939.014	189.39
939.184	167.69
939.354	231.82
939.524	223.29
939.694	146.18
939.863	154.71
940.033	241.89
940.203	231.62
940.373	184.35
940.542	214.77
940.712	146.96
940.882	209.73
941.051	202.37
941.221	197.33
941.391	188.81
941.56	153.74
941.73	141.53
941.899	268.05
942.069	187.26
942.238	187.64
942.408	121.96
942.577	220.97
942.747	163.23
942.916	125.45
943.086	137.46
943.255	190.16
943.425	198.3
943.594	116.73
943.763	75.66
943.933	96
944.102	58.03
944.271	119.45
944.441	117.31
944.61	100.26
944.779	127.2
944.948	216.71
945.117	67.13
945.287	92.51
945.456	69.85
945.625	89.03
945.794	139.79
945.963	88.45
946.132	146.18
946.301	85.35
946.47	131.84
946.639	79.15
946.808	86.7
946.977	147.15
947.146	170.21
947.315	99.88
947.484	154.9
947.653	89.61
947.822	94.06
947.991	97.36
948.16	193.46
948.329	145.79
948.498	122.16
948.666	127.78
948.835	155.29
949.004	59.96
949.173	82.25
949.341	112.28
949.51	126.03
949.679	163.23
949.847	138.24
950.016	231.62
950.185	178.73
950.353	103.95
950.522	130.1
950.69	207.21
950.859	109.76
951.028	191.52
951.196	159.36
951.365	110.92
951.533	120.22
951.701	151.8
951.87	151.61
952.038	53.38
952.207	114.8
952.375	154.13
952.543	99.49
952.712	85.54
952.88	92.51
953.048	196.94
953.217	126.23
953.385	130.3
953.553	186.48
953.721	106.08
953.89	117.12
954.058	55.7
954.226	97.36
954.394	118.09
954.562	56.28
954.73	99.1
954.898	119.64
955.067	149.67
955.235	80.7
955.403	144.83
955.571	197.72
955.739	122.74
955.907	95.61
956.075	95.61
956.243	90.77
956.41	145.6
956.578	65.2
956.746	85.54
956.914	91.16
957.082	134.75
957.25	158.58
957.418	94.65
957.585	119.45
957.753	171.95
957.921	96.39
958.089	121.58
958.256	154.13
958.424	144.05
958.592	126.03
958.759	98.13
958.927	142.11
959.095	87.67
959.262	135.72
959.43	124.68
959.597	103.17
959.765	98.33
959.932	120.03
960.1	162.84
960.267	114.99
960.435	121.19
960.602	164.59
960.77	121.96
960.937	73.53
961.104	143.86
961.272	44.08
961.439	80.89
961.606	132.43
961.774	156.06
961.941	98.91
962.108	124.87
962.275	151.8
962.443	153.74
962.61	142.31
962.777	191.13
962.944	168.27
963.111	154.71
963.278	151.22
963.446	133.2
963.613	119.45
963.78	134.56
963.947	143.08
964.114	119.83
964.281	221.16
964.448	158.97
964.615	107.43
964.782	149.48
964.949	158.19
965.116	141.53
965.282	171.18
965.449	121
965.616	79.73
965.783	151.41
965.95	153.93
966.117	90.58
966.283	154.71
966.45	127.39
966.617	140.56
966.784	210.12
966.95	175.24
967.117	178.15
967.284	117.12
967.45	144.63
967.617	206.05
967.784	170.21
967.95	201.79
968.117	151.99
968.283	167.88
968.45	246.93
968.616	160.13
968.783	187.64
968.949	183.38
969.116	196.17
969.282	162.65
969.449	177.18
969.615	177.96
969.781	112.47
969.948	171.18
970.114	101.43
970.28	203.92
970.447	140.76
970.613	205.28
970.779	183.77
970.945	177.57
971.112	157.42
971.278	153.93
971.444	112.08
971.61	187.84
971.776	160.71
971.942	177.96
972.108	180.86
972.275	117.9
972.441	163.23
972.607	233.76
972.773	105.5
972.939	169.24
973.105	145.79
973.271	91.16
973.437	131.26
973.602	144.44
973.768	182.8
973.934	133.01
974.1	147.15
974.266	57.45
974.432	188.42
974.598	117.9
974.763	167.69
974.929	134.17
975.095	215.93
975.261	138.24
975.426	91.74
975.592	139.98
975.758	225.23
975.923	77.01
976.089	95.42
976.255	183.96
976.42	153.54
976.586	147.54
976.751	122.16
976.917	214.77
977.082	157.03
977.248	71.59
977.413	77.4
977.579	126.23
977.744	142.69
977.91	83.6
978.075	103.56
978.24	137.85
978.406	129.33
978.571	96.2
978.736	115.18
978.902	141.53
979.067	103.36
979.232	57.83
979.397	137.85
979.563	152.38
979.728	86.51
979.893	134.36
980.058	120.41
980.223	153.35
980.388	130.1
980.554	127.2
980.719	94.45
980.884	152.96
981.049	168.85
981.214	97.55
981.379	133.98
981.544	103.56
981.709	113.44
981.874	116.54
982.039	120.22
982.204	136.11
982.368	131.65
982.533	101.04
982.698	147.15
982.863	168.66
983.028	93.68
983.193	145.6
983.357	140.37
983.522	143.86
983.687	127.78
983.852	123.13
984.016	93.1
984.181	127.78
984.346	154.32
984.51	151.99
984.675	118.48
984.839	120.22
985.004	120.22
985.168	191.33
985.333	124.48
985.498	119.83
985.662	109.37
985.827	125.84
985.991	119.06
986.155	126.23
986.32	126.61
986.484	167.69
986.649	140.37
986.813	63.26
986.977	113.25
987.142	162.65
987.306	72.95
987.47	80.11
987.634	112.86
987.799	132.62
987.963	137.85
988.127	143.08
988.291	176.79
988.455	104.72
988.62	105.88
988.784	137.27
988.948	122.16
989.112	97.36
989.276	109.56
989.44	115.76
989.604	71.78
989.768	77.79
989.932	173.31
990.096	63.84
990.26	63.84
990.424	85.93
990.588	103.36
990.752	155.29
990.915	121.77
991.079	93.68
991.243	100.26
991.407	130.3
991.571	104.33
991.734	110.92
991.898	127.97
992.062	183.58
992.226	109.37
992.389	73.33
992.553	55.9
992.717	72.56
992.88	93.29
993.044	118.86
993.207	106.27
993.371	133.39
993.535	90.19
993.698	101.81
993.862	126.81
994.025	151.03
994.189	97.36
994.352	138.43
994.515	125.06
994.679	146.57
994.842	94.65
995.006	158.58
995.169	60.74
995.332	69.65
995.496	115.96
995.659	56.48
995.822	101.62
995.985	79.15
996.149	143.28
996.312	112.08
996.475	123.51
996.638	83.6
996.801	128.36
996.964	171.56
997.128	108.21
997.291	96.78
997.454	92.71
997.617	19.86
997.78	113.44
997.943	65.97
998.106	117.9
998.269	48.92
998.432	110.53
998.595	77.01
998.758	19.67
998.92	66.16
999.083	14.82
999.246	70.62
999.409	46.79
999.572	4.36
999.735	72.95
999.897	104.33
1000.06	85.54
1000.223	80.7
1000.386	122.16
1000.548	104.33
1000.711	109.95
1000.874	109.95
1001.036	33.62
1001.199	108.6
1001.361	56.28
1001.524	52.8
1001.687	101.23
1001.849	40.2
1002.012	100.07
1002.174	90.19
1002.337	128.55
1002.499	72.75
1002.661	123.9
1002.824	42.53
1002.986	50.08
1003.149	88.06
1003.311	31.48
1003.473	135.14
1003.636	54.15
1003.798	93.1
1003.96	82.25
1004.123	62.68
1004.285	59.19
1004.447	55.7
1004.609	96.78
1004.771	118.86
1004.933	47.95
1005.096	28.58
1005.258	25.28
1005.42	34.39
1005.582	90
1005.744	78.56
1005.906	42.72
1006.068	64.61
1006.23	-1.84
1006.392	0.1
1006.554	18.5
1006.716	93.68
1006.878	97.55
1007.04	35.17
1007.202	61.51
1007.363	51.63
1007.525	66.94
1007.687	88.45
1007.849	119.25
1008.011	23.54
1008.172	14.43
1008.334	27.61
1008.496	68.68
1008.658	19.86
1008.819	33.62
1008.981	6.3
1009.143	47.18
1009.304	42.53
1009.466	84.76
1009.627	119.64
1009.789	167.3
1009.95	55.51
1010.112	50.86
1010.273	59.96
1010.435	18.5
1010.596	42.72
1010.758	30.71
1010.919	35.55
1011.081	-4.94
1011.242	38.27
1011.403	63.84
1011.565	67.13
1011.726	64.81
1011.887	17.73
1012.049	30.52
1012.21	85.35
1012.371	116.15
1012.532	-27.42
1012.693	57.25
1012.855	53.18
1013.016	36.33
1013.177	60.55
1013.338	40.4
1013.499	91.35
1013.66	78.56
1013.821	59.77
1013.982	59.19
1014.143	48.53
1014.304	49.5
1014.465	91.16
1014.626	50.47
1014.787	4.94
1014.948	131.84
1015.109	-19.67
1015.27	69.65
1015.431	34.97
1015.592	38.27
1015.752	98.52
1015.913	61.71
1016.074	54.54
1016.235	25.87
1016.395	54.54
1016.556	35.94
1016.717	42.53
1016.877	83.41
1017.038	11.72
1017.199	58.03
1017.359	30.32
1017.52	66.75
1017.681	21.99
1017.841	34.39
1018.002	35.94
1018.162	9.78
1018.323	85.73
1018.483	33.03
1018.644	23.35
1018.804	15.6
1018.964	15.98
1019.125	34.78
1019.285	33.23
1019.446	-16.57
1019.606	7.46
1019.766	-31.48
1019.926	64.23
1020.087	44.66
1020.247	-6.49
1020.407	59.19
1020.567	79.34
1020.728	24.9
1020.888	10.95
1021.048	-10.37
1021.208	31.48
1021.368	2.23
1021.528	61.13
1021.688	68.1
1021.848	95.23
1022.008	39.43
1022.168	16.37
1022.328	12.11
1022.488	53.18
1022.648	21.99
1022.808	19.28
1022.968	60.93
1023.128	24.7
1023.288	24.9
1023.448	45.63
1023.608	59.38
1023.767	55.7
1023.927	1.26
1024.087	-2.81
1024.247	-22.77
1024.406	25.09
1024.566	-16.37
1024.726	-3
1024.885	44.08
1025.045	51.44
1025.205	13.85
1025.364	20.25
1025.524	46.21
1025.683	16.18
1025.843	34
1026.003	24.7
1026.162	61.51
1026.321	40.98
1026.481	36.13
1026.64	-12.3
1026.8	46.01
1026.959	11.92
1027.119	30.13
1027.278	3.39
1027.437	-5.13
1027.597	40.98
1027.756	24.7
1027.915	36.33
1028.074	34.2
1028.234	-23.93
1028.393	17.15
1028.552	5.91
1028.711	-38.07
1028.87	48.34
1029.03	-21.41
1029.189	51.63
1029.348	-51.25
1029.507	-13.66
1029.666	30.71
1029.825	8.23
1029.984	-19.86
1030.143	30.52
1030.302	-19.28
1030.461	-26.06
1030.62	19.28
1030.779	35.36
1030.938	-16.95
1031.097	-32.07
1031.255	31.87
1031.414	46.98
1031.573	60.74
1031.732	-40.4
1031.891	17.73
1032.049	60.93
1032.208	38.27
1032.367	-10.95
1032.525	-4.75
1032.684	21.22
1032.843	11.33
1033.001	-19.28
1033.16	184.93
1033.319	59.96
1033.477	48.92
1033.636	-15.21
1033.794	-20.44
1033.953	81.08
1034.111	51.25
1034.27	-6.1
1034.428	53.38
1034.587	-24.51
1034.745	11.72
1034.903	5.52
1035.062	35.94
1035.22	-39.62
1035.378	52.6
1035.537	-2.42
1035.695	48.15
1035.853	-7.27
1036.011	29.35
1036.17	34.58
1036.328	-45.82
1036.486	-1.26
1036.644	3.78
1036.802	-89.22
1036.96	-14.63
1037.119	-5.13
1037.277	-3.2
1037.435	-36.72
1037.593	-18.31
1037.751	5.52
1037.909	32.07
1038.067	32.07
