Data from gum_old_FLMT105791__55__15-43-43-257.txt Node

Date: Mon Mar 20 15:43:43 GMT 2023
User: antho
Spectrometer: FLMT10579
Trigger mode: 0
Integration Time (sec): 1.000000E-1
Scans to average: 10
Electric dark correction enabled: true
Nonlinearity correction enabled: false
Boxcar width: 0
XAxis mode: Wavelengths
Number of Pixels in Spectrum: 3648
>>>>>Begin Spectral Data<<<<<
345.248	-163.15
345.464	-163.15
345.681	-163.15
345.898	-195.31
346.114	-180.01
346.331	-41.87
346.548	16.84
346.764	-1.18
346.981	-17.26
347.197	-27.53
347.414	36.8
347.631	-20.17
347.847	75.55
348.064	32.15
348.28	-5.63
348.497	-35.67
348.713	-12.03
348.93	20.13
349.146	66.25
349.363	5.02
349.579	6.77
349.796	15.48
350.012	0.18
350.229	58.69
350.445	36.02
350.661	-11.25
350.878	10.06
351.094	34.86
351.311	33.5
351.527	30.01
351.743	47.84
351.96	68.38
352.176	54.23
352.392	54.43
352.609	64.7
352.825	24.78
353.041	31.56
353.257	1.15
353.474	11.61
353.69	27.69
353.906	55.4
354.122	14.32
354.339	63.34
354.555	28.27
354.771	3.67
354.987	93.76
355.203	87.17
355.42	33.11
355.636	29.24
355.852	13.93
356.068	31.56
356.284	9.09
356.5	48.23
356.716	45.32
356.932	31.18
357.148	41.83
357.364	18.78
357.58	91.05
357.796	67.41
358.012	61.6
358.228	68.57
358.444	-20.94
358.66	86.78
358.876	60.05
359.092	35.63
359.308	20.91
359.524	54.81
359.74	29.24
359.956	24.78
360.172	29.82
360.388	99.38
360.604	34.08
360.819	117.39
361.035	53.85
361.251	62.56
361.467	30.79
361.683	71.28
361.898	62.18
362.114	66.44
362.33	50.94
362.546	104.61
362.762	35.44
362.977	49.58
363.193	31.76
363.409	65.86
363.624	11.22
363.84	37.57
364.056	13.93
364.271	105.58
364.487	54.81
364.703	18.97
364.918	7.93
365.134	45.71
365.35	48.42
365.565	159.24
365.781	59.08
365.996	80.78
366.212	120.3
366.427	67.41
366.643	53.85
366.858	52.68
367.074	42.41
367.289	109.84
367.505	149.56
367.72	9.09
367.936	51.91
368.151	98.6
368.367	88.33
368.582	84.85
368.798	41.83
369.013	122.24
369.228	44.35
369.444	80.58
369.659	126.31
369.874	76.9
370.09	111.58
370.305	-16.48
370.52	64.5
370.736	104.8
370.951	35.44
371.166	122.63
371.381	127.66
371.597	96.66
371.812	45.13
372.027	43.96
372.242	64.31
372.458	169.32
372.673	52.1
372.888	54.81
373.103	99.38
373.318	148.39
373.533	83.1
373.749	62.95
373.964	12.58
374.179	80.97
374.394	44.35
374.609	109.64
374.824	8.51
375.039	89.3
375.254	53.85
375.469	107.51
375.684	64.7
375.899	123.21
376.114	76.32
376.329	66.63
376.544	126.31
376.759	105.38
376.974	37.76
377.189	92.4
377.404	52.68
377.619	128.83
377.834	14.13
378.049	39.7
378.264	67.41
378.478	92.21
378.693	73.8
378.908	97.44
379.123	77.87
379.338	98.99
379.553	70.9
379.767	90.27
379.982	94.92
380.197	89.3
380.412	74.96
380.626	132.89
380.841	175.71
381.056	91.82
381.271	163.51
381.485	83.68
381.7	47.45
381.915	90.46
382.129	66.63
382.344	95.31
382.559	67.8
382.773	116.43
382.988	22.65
383.202	72.25
383.417	53.07
383.632	173.78
383.846	72.06
384.061	95.69
384.275	60.63
384.49	99.57
384.704	119.91
384.919	129.6
385.133	107.13
385.348	149.94
385.562	71.67
385.777	127.66
385.991	96.47
386.206	79.23
386.42	81.16
386.634	150.53
386.849	120.49
387.063	116.81
387.277	76.9
387.492	81.16
387.706	62.95
387.92	81.55
388.135	127.28
388.349	109.26
388.563	117.2
388.778	119.33
388.992	110.42
389.206	153.82
389.42	185.4
389.635	92.21
389.849	133.48
390.063	146.26
390.277	126.5
390.491	182.11
390.706	142.97
390.92	157.11
391.134	133.67
391.348	156.34
391.562	106.74
391.776	126.31
391.99	127.47
392.205	177.26
392.419	132.89
392.633	138.71
392.847	163.89
393.061	91.24
393.275	172.81
393.489	119.91
393.703	85.23
393.917	100.54
394.131	61.01
394.345	124.37
394.559	154.4
394.773	107.32
394.986	157.5
395.2	120.69
395.414	176.1
395.628	117.01
395.842	151.11
396.056	133.48
396.27	103.06
396.484	173.19
396.697	165.64
396.911	174.74
397.125	141.03
397.339	154.98
397.553	103.25
397.766	178.04
397.98	190.24
398.194	184.24
398.408	162.15
398.621	204.77
398.835	235.58
399.049	196.44
399.262	283.24
399.476	257.47
399.69	243.14
399.903	280.53
400.117	219.11
400.331	274.52
400.544	219.89
400.758	325.87
400.971	228.61
401.185	269.68
401.398	208.84
401.612	301.45
401.826	258.06
402.039	283.05
402.253	247.4
402.466	278.79
402.68	270.07
402.893	269.29
403.106	256.51
403.32	265.22
403.533	285.76
403.747	247.79
403.96	274.91
404.174	286.92
404.387	260.57
404.6	273.94
404.814	324.32
405.027	247.98
405.24	236.55
405.454	262.9
405.667	303.59
405.88	200.9
406.094	275.49
406.307	279.75
406.52	292.93
406.733	215.24
406.947	218.34
407.16	329.94
407.373	330.71
407.586	264.45
407.799	251.66
408.012	305.14
408.226	310.56
408.439	334.97
408.652	258.06
408.865	317.73
409.078	343.69
409.291	338.46
409.504	274.52
409.717	317.92
409.93	340.4
410.143	307.46
410.357	234.22
410.57	238.68
410.783	250.89
410.996	327.61
411.209	304.36
411.421	348.54
411.634	337.3
411.847	326.06
412.06	330.52
412.273	351.44
412.486	334.78
412.699	421.19
412.912	359.19
413.125	334.39
413.338	327.22
413.55	379.15
413.763	334.2
413.976	340.01
414.189	302.81
414.402	329.55
414.615	400.65
414.827	323.15
415.04	375.08
415.253	380.7
415.466	397.17
415.678	409.18
415.891	354.35
416.104	375.47
416.316	375.85
416.529	354.54
416.742	391.16
416.954	429.52
417.167	352.02
417.38	361.52
417.592	412.28
417.805	349.5
418.017	312.5
418.23	381.47
418.442	357.06
418.655	368.1
418.868	361.52
419.08	390.19
419.293	432.23
419.505	374.88
419.718	393.87
419.93	408.21
420.142	349.5
420.355	408.02
420.567	423.13
420.78	396.78
420.992	383.99
421.205	434.95
421.417	352.41
421.629	376.82
421.842	359.38
422.054	373.33
422.266	447.73
422.479	446.96
422.691	370.62
422.903	405.88
423.115	348.92
423.328	376.82
423.54	404.72
423.752	391.55
423.964	387.28
424.177	412.86
424.389	391.93
424.601	502.95
424.813	433.4
425.025	435.72
425.238	415.96
425.45	402.2
425.662	392.13
425.874	715.88
426.086	433.01
426.298	429.91
426.51	428.94
426.722	404.14
426.934	380.12
427.146	413.83
427.358	365.78
427.57	456.45
427.782	410.73
427.994	390.97
428.206	359.58
428.418	361.9
428.63	442.5
428.842	446.76
429.054	449.09
429.266	446.96
429.478	365
429.69	387.09
429.902	366.36
430.114	419.06
430.325	384.96
430.537	345.24
430.749	344.27
430.961	293.51
431.173	326.45
431.384	343.11
431.596	275.3
431.808	401.04
432.02	425.45
432.231	453.74
432.443	490.55
432.655	486.29
432.867	444.44
433.078	485.51
433.29	531.24
433.502	499.85
433.713	516.9
433.925	497.33
434.136	530.46
434.348	432.43
434.56	420.8
434.771	558.17
434.983	389.22
435.194	476.41
435.406	482.8
435.617	542.86
435.829	578.71
436.04	549.06
436.252	504.89
436.463	555.84
436.675	557.78
436.886	557.01
437.098	540.54
437.309	578.9
437.521	544.03
437.732	556.43
437.943	567.28
438.155	533.18
438.366	482.03
438.578	583.74
438.789	524.26
439	539.76
439.211	504.31
439.423	495.01
439.634	522.13
439.845	551.19
440.057	550.81
440.268	610.48
440.479	536.66
440.69	564.18
440.902	552.94
441.113	549.84
441.324	555.07
441.535	596.14
441.746	631.41
441.957	543.44
442.168	590.33
442.38	626.17
442.591	643.22
442.802	568.44
443.013	594.4
443.224	635.67
443.435	586.26
443.646	578.13
443.857	588.98
444.068	587.23
444.279	564.37
444.49	704.45
444.701	622.69
444.912	746.3
445.123	685.27
445.334	635.28
445.545	665.12
445.756	618.81
445.967	593.04
446.178	604.28
446.388	630.63
446.599	625.4
446.81	648.26
447.021	600.79
447.232	639.93
447.443	690.31
447.653	618.43
447.864	706.97
448.075	649.42
448.286	696.7
448.496	675.19
448.707	700.77
448.918	645.74
449.129	733.12
449.339	636.44
449.55	699.22
449.761	665.51
449.971	715.88
450.182	681.01
450.393	684.88
450.603	658.72
450.814	719.17
451.024	685.27
451.235	743.78
451.446	751.92
451.656	792.02
451.867	689.92
452.077	705.42
452.288	757.73
452.498	765.29
452.709	669.38
452.919	731.19
453.13	700.19
453.34	711.23
453.55	630.24
453.761	691.47
453.971	697.86
454.182	730.02
454.392	706.58
454.602	785.44
454.813	717.62
455.023	698.64
455.233	667.44
455.444	727.5
455.654	641.29
455.864	701.93
456.075	680.62
456.285	679.46
456.495	693.6
456.705	758.7
456.916	779.82
457.126	796.48
457.336	716.07
457.546	673.26
457.756	687.4
457.967	759.47
458.177	714.72
458.387	744.17
458.597	697.28
458.807	699.22
459.017	672.67
459.227	707.16
459.437	715.3
459.647	761.99
459.857	755.4
460.068	704.64
460.278	785.82
460.488	743.97
460.698	821.08
460.908	767.8
461.117	728.67
461.327	731.77
461.537	810.62
461.747	775.17
461.957	778.85
462.167	854.02
462.377	819.73
462.587	763.74
462.797	811.4
463.007	783.69
463.216	867.78
463.426	863.32
463.636	829.03
463.846	754.63
464.056	783.3
464.265	813.92
464.475	773.62
464.685	771.68
464.895	782.92
465.104	777.1
465.314	822.83
465.524	795.32
465.733	782.53
465.943	866.23
466.153	887.54
466.362	861.38
466.572	826.32
466.782	796.28
466.991	820.31
467.201	875.72
467.41	734.29
467.62	832.32
467.829	827.09
468.039	858.28
468.249	848.6
468.458	817.21
468.668	845.69
468.877	900.52
469.086	897.03
469.296	916.8
469.505	841.23
469.715	957.87
469.924	890.06
470.134	912.15
470.343	919.12
470.552	855.57
470.762	868.75
470.971	857.32
471.18	865.26
471.39	880.57
471.599	820.7
471.808	904.98
472.018	874.17
472.227	967.56
472.436	959.23
472.645	938.88
472.855	899.36
473.064	1011.54
473.273	979.76
473.482	968.33
473.691	987.32
473.901	954.96
474.11	923
474.319	1045.44
474.528	1015.22
474.737	1077.22
474.946	1029.94
475.155	1034.21
475.364	1053.97
475.573	1040.21
475.783	1060.56
475.992	1067.72
476.201	1084.77
476.41	1062.3
476.619	992.16
476.828	1021.81
477.037	1016.38
477.245	1045.06
477.454	1103.96
477.663	1044.67
477.872	1109.96
478.081	1139.99
478.29	1092.14
478.499	1197.73
478.708	1139.99
478.917	1173.7
479.125	1113.06
479.334	1131.47
479.543	1132.24
479.752	1153.17
479.961	1133.02
480.169	1225.82
480.378	1198.5
480.587	1320.37
480.796	1226.4
481.004	1202.19
481.213	1214
481.422	1199.86
481.63	1285.11
481.839	1264.57
482.048	1293.83
482.256	1289.18
482.465	1299.83
482.674	1263.99
482.882	1304.87
483.091	1383.53
483.299	1278.72
483.508	1347.11
483.716	1319.98
483.925	1329.48
484.134	1289.95
484.342	1273.1
484.551	1359.31
484.759	1332.77
484.967	1354.28
485.176	1382.37
485.384	1377.72
485.593	1367.65
485.801	1346.33
486.01	1340.91
486.218	1224.08
486.426	1125.07
486.635	1146.77
486.843	1153.36
487.051	1223.69
487.26	1171.77
487.468	1244.81
487.676	1313.59
487.885	1270.19
488.093	1346.14
488.301	1363.96
488.509	1370.94
488.717	1434.68
488.926	1401.16
489.134	1373.65
489.342	1397.87
489.55	1368.03
489.758	1362.22
489.967	1387.6
490.175	1511.02
490.383	1443.01
490.591	1546.47
490.799	1449.02
491.007	1519.35
491.215	1499.97
491.423	1510.24
491.631	1495.13
491.839	1493.58
492.047	1492.61
492.255	1427.13
492.463	1401.94
492.671	1412.59
492.879	1495.32
493.087	1487.58
493.295	1495.91
493.503	1485.64
493.711	1571.66
493.919	1580.96
494.127	1601.69
494.334	1572.63
494.542	1498.23
494.75	1565.07
494.958	1553.26
495.166	1620.49
495.374	1622.42
495.581	1616.61
495.789	1608.86
495.997	1657.3
496.205	1547.06
496.412	1576.51
496.62	1584.25
496.828	1584.25
497.035	1593.55
497.243	1660.2
497.451	1611.19
497.658	1626.3
497.866	1627.07
498.074	1687.52
498.281	1576.7
498.489	1706.7
498.696	1627.27
498.904	1596.65
499.112	1557.13
499.319	1658.65
499.527	1608.47
499.734	1649.74
499.942	1568.95
500.149	1590.07
500.357	1631.72
500.564	1582.12
500.771	1650.9
500.979	1554.81
501.186	1543.57
501.394	1616.22
501.601	1535.62
501.808	1604.99
502.016	1597.82
502.223	1598.2
502.43	1590.84
502.638	1590.65
502.845	1556.94
503.052	1679.19
503.26	1621.07
503.467	1716.39
503.674	1660.79
503.881	1682.1
504.089	1721.43
504.296	1665.82
504.503	1578.44
504.71	1633.47
504.917	1575.34
505.125	1663.11
505.332	1667.37
505.539	1667.18
505.746	1740.03
505.953	1754.37
506.16	1709.42
506.367	1807.06
506.574	1805.13
506.781	1806.29
506.988	1731.12
507.195	1729.95
507.402	1747.78
507.609	1739.06
507.816	1690.82
508.023	1692.75
508.23	1694.3
508.437	1658.27
508.644	1722.4
508.851	1737.9
509.058	1766.76
509.265	1733.25
509.472	1729.57
509.679	1840.78
509.885	1757.08
510.092	1754.56
510.299	1788.08
510.506	1732.28
510.713	1732.47
510.92	1756.5
511.126	1768.9
511.333	1811.52
511.54	1806.1
511.746	1824.7
511.953	1832.06
512.16	1872.94
512.367	1786.33
512.573	1758.82
512.78	1805.51
512.987	1826.25
513.193	1790.01
513.4	1712.13
513.606	1754.95
513.813	1796.8
514.02	1749.72
514.226	1792.15
514.433	1845.43
514.639	1733.05
514.846	1801.83
515.052	1744.1
515.259	1818.5
515.465	1775.68
515.672	1776.84
515.878	1879.72
516.085	1847.94
516.291	1851.04
516.497	1811.52
516.704	1778
516.91	1742.55
517.117	1677.83
517.323	1604.99
517.529	1623.97
517.736	1619.9
517.942	1616.22
518.148	1657.3
518.354	1702.05
518.561	1718.52
518.767	1694.11
518.973	1713.29
519.179	1745.65
519.386	1731.7
519.592	1723.75
519.798	1746.62
520.004	1857.83
520.21	1795.44
520.417	1896.38
520.623	1903.55
520.829	1901.23
521.035	1917.31
521.241	1913.24
521.447	1959.93
521.653	1999.84
521.859	1902.78
522.065	1917.31
522.271	2022.51
522.477	1952.18
522.683	2027.35
522.889	1957.22
523.095	1972.72
523.301	1968.46
523.507	1931.64
523.713	1952.18
523.919	1933.58
524.125	1985.51
524.331	1989.57
524.537	2113.18
524.742	2094.78
524.948	2099.24
525.154	2056.03
525.36	2211.03
525.566	2075.02
525.772	2128.88
525.977	2013.21
526.183	2096.33
526.389	2124.62
526.595	2025.42
526.8	2012.05
527.006	1974.46
527.212	1906.07
527.417	1883.4
527.623	1898.71
527.829	1980.86
528.034	2010.31
528.24	1997.52
528.446	2020.77
528.651	2141.67
528.857	2132.17
529.062	2189.13
529.268	2175.77
529.473	2180.42
529.679	2199.21
529.884	2279.23
530.09	2244.93
530.295	2219.16
530.501	2210.45
530.706	2186.62
530.912	2180.42
531.117	2235.25
531.323	2215.87
531.528	2279.42
531.733	2263.34
531.939	2210.64
532.144	2270.9
532.35	2254.04
532.555	2294.14
532.76	2210.25
532.966	2230.01
533.171	2174.6
533.376	2166.27
533.581	2093.81
533.787	2194.36
533.992	2241.06
534.197	2290.85
534.402	2239.7
534.607	2254.23
534.813	2322.43
535.018	2251.91
535.223	2252.68
535.428	2281.16
535.633	2316.81
535.838	2326.31
536.043	2317.78
536.249	2411.56
536.454	2351.88
536.659	2385.01
536.864	2319.53
537.069	2301.89
537.274	2326.31
537.479	2297.44
537.684	2279.42
537.889	2253.46
538.094	2413.11
538.299	2302.86
538.504	2324.56
538.708	2320.49
538.913	2392.76
539.118	2366.41
539.323	2375.91
539.528	2335.99
539.733	2319.91
539.938	2356.14
540.142	2376.29
540.347	2321.46
540.552	2271.67
540.757	2293.37
540.962	2261.4
541.166	2218.97
541.371	2221.68
541.576	2285.81
541.781	2202.31
541.985	2317.59
542.19	2323.79
542.395	2416.4
542.599	2386.37
542.804	2372.42
543.008	2396.83
543.213	2299.76
543.418	2305.96
543.622	2359.05
543.827	2288.91
544.031	2422.02
544.236	2431.51
544.44	2376.49
544.645	2462.12
544.849	2398.57
545.054	2442.75
545.258	2481.11
545.463	2456.7
545.667	2336.19
545.872	2452.05
546.076	2434.61
546.281	2423.37
546.485	2369.71
546.689	2407.49
546.894	2423.96
547.098	2431.32
547.302	2361.18
547.507	2394.89
547.711	2441.01
547.915	2496.8
548.119	2365.83
548.324	2348.59
548.528	2430.54
548.732	2426.86
548.936	2419.5
549.141	2425.89
549.345	2354.01
549.549	2413.69
549.753	2453.99
549.957	2485.76
550.161	2459.02
550.366	2426.47
550.57	2388.11
550.774	2412.52
550.978	2392.57
551.182	2441.2
551.386	2377.07
551.59	2363.31
551.794	2390.63
551.998	2419.11
552.202	2419.11
552.406	2370.67
552.61	2424.92
552.814	2427.83
553.018	2466.39
553.222	2373.58
553.426	2407.49
553.63	2469.1
553.833	2410.2
554.037	2335.41
554.241	2422.02
554.445	2435
554.649	2378.04
554.853	2400.51
555.056	2413.69
555.26	2493.12
555.464	2406.13
555.668	2414.85
555.871	2420.86
556.075	2420.08
556.279	2366.99
556.483	2378.23
556.686	2399.35
556.89	2394.51
557.094	2371.06
557.297	2311.19
557.501	2396.25
557.704	2288.33
557.908	2353.82
558.112	2326.89
558.315	2378.62
558.519	2343.55
558.722	2337.93
558.926	2324.18
559.129	2232.34
559.333	2221.68
559.536	2266.05
559.74	2223.04
559.943	2233.7
560.147	2223.81
560.35	2246.1
560.553	2268.38
560.757	2208.12
560.96	2297.44
561.164	2219.75
561.367	2338.9
561.57	2288.72
561.774	2318.56
561.977	2280.58
562.18	2246.48
562.384	2332.7
562.587	2197.46
562.79	2254.04
562.993	2217.42
563.197	2250.75
563.4	2325.14
563.603	2312.16
563.806	2352.08
564.009	2226.91
564.212	2259.85
564.416	2179.64
564.619	2256.36
564.822	2165.11
565.025	2267.41
565.228	2220.91
565.431	2227.11
565.634	2125.97
565.837	2163.56
566.04	2129.46
566.243	2175.38
566.446	2099.62
566.649	2168.02
566.852	2100.79
567.055	2129.46
567.258	2132.95
567.461	2199.6
567.664	2200.76
567.867	2106.21
568.07	2118.22
568.273	2089.16
568.475	2225.56
568.678	2111.83
568.881	2133.14
569.084	2101.37
569.287	1998.49
569.489	2069.01
569.692	2089.55
569.895	2097.49
570.098	2043.24
570.3	2035.1
570.503	2013.02
570.706	2018.64
570.909	1994.81
571.111	1973.3
571.314	1965.55
571.516	1965.74
571.719	2005.85
571.922	1951.41
572.124	1971.17
572.327	2006.82
572.529	1961.48
572.732	1934.74
572.935	1994.81
573.137	2055.45
573.34	1979.5
573.542	2038.01
573.745	1987.64
573.947	2005.46
574.15	1981.05
574.352	1918.28
574.554	2020.96
574.757	1975.24
574.959	1946.76
575.162	1918.28
575.364	1885.14
575.566	2015.15
575.769	1906.84
575.971	1949.08
576.173	1804.55
576.376	1908.59
576.578	1965.74
576.78	1964
576.982	1837.1
577.185	1900.26
577.387	1841.36
577.589	1860.93
577.791	1924.86
577.993	1920.21
578.196	1894.44
578.398	1879.33
578.6	1918.08
578.802	1809.97
579.004	1834
579.206	1830.9
579.408	1869.84
579.61	1825.47
579.812	1908.59
580.014	1803.19
580.216	1845.04
580.418	1826.25
580.62	1836.13
580.822	1807.06
581.024	1864.99
581.226	1901.61
581.428	1852.4
581.63	1918.08
581.832	1833.41
582.034	1887.66
582.236	1834.58
582.438	1868.29
582.64	1896.58
582.841	1908.59
583.043	1955.09
583.245	1839.42
583.447	1887.08
583.649	1878.17
583.85	1856.28
584.052	1859.57
584.254	1805.13
584.456	1887.08
584.657	1782.26
584.859	1841.94
585.061	1783.62
585.262	1790.6
585.464	1801.06
585.666	1851.82
585.867	1771.61
586.069	1856.08
586.27	1823.53
586.472	1793.7
586.674	1815.98
586.875	1753.78
587.077	1759.21
587.278	1779.36
587.48	1785.95
587.681	1910.14
587.883	1835.35
588.084	1740.42
588.285	1765.99
588.487	1744.48
588.688	1794.28
588.89	1714.07
589.091	1686.94
589.292	1725.5
589.494	1646.06
589.695	1592.39
589.896	1576.51
590.098	1515.47
590.299	1611.19
590.5	1567.4
590.702	1580.19
590.903	1605.37
591.104	1700.89
591.305	1668.53
591.507	1740.61
591.708	1653.62
591.909	1675.9
592.11	1747.78
592.311	1683.45
592.512	1675.32
592.714	1603.82
592.915	1651.29
593.116	1670.47
593.317	1703.41
593.518	1692.37
593.719	1690.43
593.92	1743.52
594.121	1734.8
594.322	1700.5
594.523	1680.55
594.724	1642.77
594.925	1685.39
595.126	1653.42
595.327	1698.76
595.528	1687.72
595.729	1685.2
595.929	1626.69
596.13	1635.6
596.331	1705.35
596.532	1675.32
596.733	1727.82
596.934	1684.62
597.135	1719.49
597.335	1721.62
597.536	1622.23
597.737	1707.67
597.938	1672.02
598.138	1692.75
598.339	1672.99
598.54	1678.03
598.74	1623.2
598.941	1646.64
599.142	1740.8
599.342	1701.08
599.543	1639.47
599.744	1662.53
599.944	1638.7
600.145	1662.72
600.345	1647.22
600.546	1709.8
600.746	1661.95
600.947	1724.53
601.147	1672.02
601.348	1687.33
601.548	1617.39
601.749	1651.1
601.949	1603.44
602.15	1589.29
602.35	1604.6
602.551	1638.7
602.751	1576.12
602.951	1613.7
603.152	1567.21
603.352	1651.49
603.552	1615.45
603.753	1653.42
603.953	1649.35
604.153	1641.8
604.354	1632.11
604.554	1609.64
604.754	1643.15
604.954	1588.52
605.155	1635.6
605.355	1586.97
605.555	1642.77
605.755	1666.4
605.955	1625.33
606.155	1658.46
606.356	1608.28
606.556	1617.19
606.756	1642.19
606.956	1559.26
607.156	1657.69
607.356	1554.03
607.556	1619.13
607.756	1588.52
607.956	1647.42
608.156	1601.69
608.356	1581.54
608.556	1645.29
608.756	1586
608.956	1574.96
609.156	1596.27
609.356	1536.59
609.556	1553.45
609.755	1580.57
609.955	1570.11
610.155	1557.91
610.355	1597.62
610.555	1508.31
610.755	1551.51
610.954	1518.96
611.154	1538.34
611.354	1594.33
611.554	1520.71
611.753	1525.74
611.953	1502.88
612.153	1562.56
612.352	1583.67
612.552	1510.05
612.752	1449.6
612.951	1543.18
613.151	1500.56
613.351	1475.56
613.55	1523.81
613.75	1527.68
613.949	1515.28
614.149	1540.86
614.348	1495.91
614.548	1449.02
614.747	1424.41
614.947	1481.18
615.146	1419.18
615.346	1509.27
615.545	1500.94
615.745	1476.14
615.944	1499.01
616.144	1466.07
616.343	1505.4
616.542	1469.75
616.742	1430.42
616.941	1436.23
617.14	1406.01
617.34	1462.58
617.539	1450.96
617.738	1434.49
617.938	1531.75
618.137	1430.61
618.336	1406.39
618.535	1472.46
618.734	1442.24
618.934	1456.19
619.133	1461.03
619.332	1482.15
619.531	1411.63
619.73	1438.75
619.929	1493.77
620.128	1494.94
620.328	1524.58
620.527	1427.13
620.726	1434.68
620.925	1447.08
621.124	1437.2
621.323	1473.43
621.522	1386.25
621.721	1438.75
621.92	1398.06
622.119	1422.28
622.318	1402.91
622.517	1420.73
622.715	1429.26
622.914	1360.09
623.113	1441.08
623.312	1366.48
623.511	1457.16
623.71	1357.38
623.909	1370.94
624.107	1472.66
624.306	1370.16
624.505	1353.11
624.704	1377.33
624.902	1367.84
625.101	1424.22
625.3	1352.73
625.499	1312.43
625.697	1370.94
625.896	1331.03
626.095	1376.36
626.293	1287.43
626.492	1328.31
626.69	1385.08
626.889	1299.45
627.088	1389.93
627.286	1319.6
627.485	1327.73
627.683	1292.67
627.882	1348.27
628.08	1249.65
628.279	1309.52
628.477	1365.13
628.676	1276.78
628.874	1348.85
629.073	1280.27
629.271	1255.08
629.469	1317.66
629.668	1297.12
629.866	1292.28
630.065	1297.9
630.263	1327.15
630.461	1258.57
630.66	1293.25
630.858	1278.72
631.056	1317.66
631.254	1350.01
631.453	1265.15
631.651	1307.39
631.849	1259.73
632.047	1260.89
632.245	1295.38
632.444	1295.18
632.642	1295.57
632.84	1301
633.038	1294.22
633.236	1245.2
633.434	1265.54
633.632	1251.59
633.83	1264.18
634.028	1309.13
634.227	1326.38
634.425	1324.83
634.623	1276.58
634.821	1291.89
635.019	1265.15
635.216	1267.48
635.414	1286.66
635.612	1280.46
635.81	1270.58
636.008	1339.36
636.206	1298.87
636.404	1272.52
636.602	1271.74
636.8	1249.46
636.997	1283.17
637.195	1302.55
637.393	1278.91
637.591	1310.1
637.789	1310.3
637.986	1263.6
638.184	1264.38
638.382	1299.45
638.58	1327.15
638.777	1332.77
638.975	1273.68
639.173	1261.67
639.37	1251.2
639.568	1289.37
639.765	1267.28
639.963	1243.26
640.161	1289.57
640.358	1292.28
640.556	1218.07
640.753	1214.39
640.951	1178.55
641.148	1239.77
641.346	1199.47
641.543	1225.82
641.741	1231.44
641.938	1178.94
642.136	1201.99
642.333	1220.79
642.531	1222.53
642.728	1285.69
642.925	1224.08
643.123	1202.57
643.32	1221.56
643.517	1201.22
643.715	1211.87
643.912	1177.77
644.109	1213.42
644.306	1205.29
644.504	1184.36
644.701	1244.81
644.898	1237.25
645.095	1177.58
645.293	1194.44
645.49	1193.47
645.687	1180.49
645.884	1253.92
646.081	1109.96
646.278	1172.93
646.475	1177
646.672	1154.14
646.87	1207.61
647.067	1156.65
647.264	1183.2
647.461	1101.44
647.658	1111.51
647.855	1193.47
648.052	1135.73
648.249	1076.44
648.446	1137.47
648.642	1119.84
648.839	1076.06
649.036	1134.57
649.233	1074.7
649.43	1080.9
649.627	1046.99
649.824	1081.09
650.021	1061.91
650.217	1073.15
650.414	1065.01
650.611	1113.06
650.808	1106.47
651.004	1144.25
651.201	1165.76
651.398	1193.66
651.595	1109.38
651.791	1112.87
651.988	1139.02
652.185	1075.86
652.381	1117.32
652.578	1075.86
652.775	1105.31
652.971	1096.21
653.168	1103.96
653.364	1122.75
653.561	1024.71
653.757	1079.74
653.954	1079.16
654.15	1082.06
654.347	1171.38
654.543	1094.46
654.74	1060.75
654.936	1051.64
655.133	1038.86
655.329	1077.8
655.525	1057.84
655.722	1115.97
655.918	1018.71
656.115	1048.74
656.311	988.48
656.507	919.31
656.704	870.88
656.9	924.93
657.096	914.47
657.292	924.74
657.489	994.49
657.685	1001.66
657.881	993.33
658.077	992.55
658.273	995.65
658.47	1075.28
658.666	1036.73
658.862	1056.1
659.058	1043.51
659.254	1064.82
659.45	1024.33
659.646	1053.19
659.842	1035.37
660.038	1086.52
660.234	1008.83
660.43	1040.6
660.626	1101.24
660.822	1084
661.018	1087.68
661.214	1042.73
661.41	997.98
661.606	1077.99
661.802	1104.92
661.998	1054.36
662.194	1029.94
662.39	1069.08
662.586	1106.47
662.781	1079.74
662.977	1097.76
663.173	1101.24
663.369	1071.02
663.564	1070.44
663.76	1100.08
663.956	1026.07
664.152	1069.08
664.347	1013.48
664.543	1058.81
664.739	1034.01
664.934	994.68
665.13	978.41
665.326	1047.58
665.521	1063.27
665.717	996.62
665.912	995.84
666.108	942.56
666.304	1028.59
666.499	1003.21
666.695	931.71
666.89	1025.88
667.086	1037.11
667.281	1027.62
667.477	1060.36
667.672	1013.09
667.867	1025.88
668.063	1038.47
668.258	990.03
668.454	1023.16
668.649	1100.27
668.844	1013.86
669.04	1029.75
669.235	995.26
669.43	1000.3
669.626	964.46
669.821	979.18
670.016	957.48
670.211	985.96
670.407	932.49
670.602	1010.76
670.797	987.32
670.992	1012.89
671.187	938.5
671.382	1038.28
671.578	947.6
671.773	991.97
671.968	913.7
672.163	967.75
672.358	998.36
672.553	961.94
672.748	966.4
672.943	1060.36
673.138	987.13
673.333	1015.22
673.528	941.21
673.723	997.78
673.918	965.81
674.113	922.41
674.308	1043.31
674.503	987.9
674.698	975.89
674.892	977.44
675.087	992.94
675.282	992.94
675.477	944.5
675.672	980.15
675.867	958.84
676.061	926.87
676.256	939.46
676.451	945.47
676.646	960
676.84	904.98
677.035	889.86
677.23	943.92
677.424	966.4
677.619	986.93
677.814	1011.54
678.008	994.1
678.203	901.88
678.397	946.05
678.592	944.5
678.787	1025.68
678.981	919.12
679.176	960.97
679.37	967.56
679.565	935.01
679.759	937.72
679.954	983.44
680.148	993.52
680.342	965.43
680.537	978.79
680.731	926.68
680.926	970.46
681.12	965.23
681.314	903.04
681.509	937.14
681.703	947.6
681.897	977.83
682.092	914.28
682.286	944.11
682.48	998.75
682.674	976.86
682.869	917.96
683.063	941.79
683.257	995.26
683.451	885.6
683.645	951.67
683.839	948.96
684.034	947.02
684.228	975.31
684.422	887.73
684.616	896.45
684.81	956.32
685.004	925.9
685.198	919.9
685.392	953.61
685.586	900.91
685.78	930.75
685.974	960.39
686.168	949.35
686.362	984.61
686.556	883.08
686.75	826.9
686.944	834.45
687.138	837.94
687.331	749.01
687.525	756.95
687.719	695.73
687.913	786.79
688.107	775.94
688.301	744.17
688.494	806.75
688.688	733.9
688.882	735.25
689.076	770.71
689.269	750.37
689.463	850.73
689.657	755.6
689.85	793.77
690.044	807.52
690.238	774
690.431	792.8
690.625	786.6
690.818	788.34
691.012	828.06
691.205	836.78
691.399	794.93
691.593	811.78
691.786	890.06
691.98	857.51
692.173	888.7
692.366	837.36
692.56	871.46
692.753	919.31
692.947	820.5
693.14	879.6
693.333	872.62
693.527	811.2
693.72	881.15
693.914	863.71
694.107	838.52
694.3	901.1
694.493	882.5
694.687	924.74
694.88	847.82
695.073	906.72
695.266	901.3
695.46	857.7
695.653	938.5
695.846	934.62
696.039	847.24
696.232	881.34
696.425	934.81
696.618	940.05
696.812	907.11
697.005	998.17
697.198	1069.66
697.391	1010.96
697.584	972.01
697.777	1053.97
697.97	1043.51
698.163	1040.79
698.356	989.06
698.549	1144.06
698.742	1036.34
698.935	1006.5
699.127	1048.35
699.32	1022
699.513	1044.86
699.706	1075.86
699.899	1067.14
700.092	1041.96
700.285	1071.02
700.477	1053.78
700.67	1077.8
700.863	1114.22
701.056	1195.99
701.248	1158.4
701.441	1100.66
701.634	1110.54
701.826	1211.49
702.019	1109.19
702.212	1154.72
702.404	1134.37
702.597	1156.46
702.79	1164.99
702.982	1168.86
703.175	1208.58
703.367	1197.73
703.56	1245
703.752	1316.69
703.945	1250.82
704.137	1280.07
704.33	1321.53
704.522	1306.81
704.715	1337.03
704.907	1357.18
705.1	1332.38
705.292	1425.19
705.484	1360.86
705.677	1401.16
705.869	1380.05
706.061	1430.23
706.254	1514.31
706.446	1453.86
706.638	1423.25
706.831	1517.8
707.023	1443.98
707.215	1560.42
707.407	1543.18
707.599	1548.22
707.792	1589.68
707.984	1576.31
708.176	1620.87
708.368	1582.7
708.56	1626.49
708.752	1653.62
708.944	1637.15
709.136	1697.6
709.329	1674.35
709.521	1784.59
709.713	1737.7
709.905	1740.42
710.097	1799.7
710.289	1720.46
710.481	1751.46
710.672	1788.46
710.864	1830.9
711.056	1839.81
711.248	1855.89
711.44	1852.59
711.632	1845.04
711.824	1864.61
712.016	1934.55
712.207	1945.4
712.399	1946.17
712.591	1991.71
712.783	1988.02
712.975	2000.81
713.166	1965.55
713.358	1995.77
713.55	2072.89
713.741	2070.56
713.933	2097.69
714.125	2019.02
714.316	2045.57
714.508	2175.96
714.7	2111.63
714.891	2157.17
715.083	2211.8
715.274	2126.94
715.466	2155.23
715.657	2219.94
715.849	2141.86
716.04	2193.4
716.232	2105.82
716.423	2198.24
716.615	2133.33
716.806	2107.37
716.998	2120.74
717.189	2044.02
717.381	2020.96
717.572	1939.78
717.763	2027.74
717.955	1971.17
718.146	1962.26
718.337	1940.17
718.528	1916.34
718.72	1838.26
718.911	1909.17
719.102	1874.68
719.293	1900.45
719.485	1901.61
719.676	1904.52
719.867	1849.88
720.058	1880.3
720.249	1876.04
720.44	1893.86
720.632	1927.96
720.823	1987.83
721.014	2100.2
721.205	2129.27
721.396	2175.18
721.587	2297.44
721.778	2307.13
721.969	2372.61
722.16	2434.03
722.351	2404.77
722.542	2515.99
722.733	2569.65
722.924	2457.86
723.115	2566.36
723.305	2525.87
723.496	2546.79
723.687	2458.05
723.878	2486.15
724.069	2472.78
724.26	2491.57
724.45	2365.06
724.641	2428.22
724.832	2493.51
725.023	2457.67
725.213	2462.32
725.404	2464.64
725.595	2456.5
725.785	2444.3
725.976	2547.76
726.167	2522.38
726.357	2517.34
726.548	2664.01
726.739	2550.86
726.929	2661.3
727.12	2700.43
727.31	2713.61
727.501	2621
727.691	2652.19
727.882	2661.88
728.072	2695.59
728.263	2742.67
728.453	2752.16
728.644	2761.85
728.834	2741.89
729.024	2734.92
729.215	2751.58
729.405	2768.63
729.596	2814.16
729.786	2881.78
729.976	2871.51
730.167	2874.61
730.357	2871.32
730.547	2911.04
730.737	2886.82
730.928	2903.67
731.118	2993.57
731.308	2961.6
731.498	2964.7
731.688	3048.4
731.879	3054.02
732.069	3112.92
732.259	3151.67
732.449	3151.28
732.639	3238.66
732.829	3253.77
733.019	3288.26
733.209	3326.82
733.399	3381.84
733.589	3437.45
733.779	3455.08
733.969	3437.83
734.159	3535.29
734.349	3528.9
734.539	3572.68
734.729	3588.18
734.919	3654.64
735.109	3736.01
735.299	3598.26
735.488	3673.43
735.678	3704.62
735.868	3677.11
736.058	3667.43
736.248	3666.65
736.437	3651.54
736.627	3623.83
736.817	3775.92
737.007	3701.52
737.196	3744.15
737.386	3719.35
737.576	3726.71
737.765	3782.32
737.955	3757.91
738.144	3888.68
738.334	3858.07
738.524	3758.49
738.713	3843.93
738.903	3827.46
739.092	3884.81
739.282	3838.7
739.471	3829.2
739.661	3829.79
739.85	3899.34
740.04	3920.46
740.229	3924.33
740.419	3939.25
740.608	3956.3
740.797	3979.75
740.987	4027.6
741.176	4002.03
741.365	3977.42
741.555	3971.41
741.744	4020.24
741.933	3979.75
742.123	4036.71
742.312	4031.09
742.501	4063.83
742.69	4107.23
742.88	3997.96
743.069	4095.03
743.258	4064.41
743.447	4124.28
743.636	4150.63
743.825	4117.11
744.014	4111.11
744.204	4153.73
744.393	4081.46
744.582	4198.87
744.771	4219.99
744.96	4170.2
745.149	4147.34
745.338	4108.59
745.527	4210.5
745.716	4174.07
745.905	4177.56
746.094	4210.89
746.283	4220.38
746.471	4188.02
746.66	4282.57
746.849	4283.74
747.038	4251.38
747.227	4214.18
747.416	4262.62
747.604	4153.92
747.793	4170.01
747.982	4248.86
748.171	4219.41
748.359	4302.72
748.548	4245.76
748.737	4247.12
748.926	4204.3
749.114	4131.06
749.303	4201.59
749.491	4192.09
749.68	4112.08
749.869	4231.04
750.057	4177.95
750.246	4179.89
750.434	4199.46
750.623	4198.1
750.811	4136.49
751	4233.94
751.188	4175.82
751.377	4142.49
751.565	4095.99
751.754	4103.74
751.942	4139.97
752.131	4199.07
752.319	4137.26
752.507	4097.54
752.696	4191.51
752.884	4193.26
753.072	4124.86
753.261	4152.76
753.449	4154.12
753.637	4094.83
753.825	4218.64
754.014	4157.8
754.202	4144.82
754.39	4215.92
754.578	4201.01
754.766	4099.68
754.955	4074.49
755.143	4202.36
755.331	4140.94
755.519	4120.02
755.707	4127.19
755.895	4110.53
756.083	4133.97
756.271	4065.58
756.459	4109.94
756.647	4164.19
756.835	4085.53
757.023	4078.94
757.211	4047.56
757.399	4020.24
757.587	4068.29
757.775	4001.83
757.963	4043.49
758.151	4071.19
758.339	4021.4
758.526	3973.35
758.714	4097.93
758.902	3902.25
759.09	3866.4
759.278	3694.55
759.465	3462.05
759.653	3140.05
759.841	2888.37
760.028	2526.64
760.216	2220.33
760.404	2111.05
760.591	1757.08
760.779	1553.06
760.967	1443.21
761.154	1251.2
761.342	1270.58
761.529	1304.87
761.717	1384.7
761.905	1394.19
762.092	1476.73
762.28	1485.06
762.467	1511.79
762.655	1474.01
762.842	1490.68
763.029	1520.32
763.217	1559.65
763.404	1533.3
763.592	1567.79
763.779	1523.81
763.966	1594.33
764.154	1672.02
764.341	1717.94
764.528	1676.67
764.716	1825.08
764.903	1817.72
765.09	1904.33
765.277	1952.37
765.465	2140.5
765.652	2150.58
765.839	2260.82
766.026	2400.12
766.213	2399.16
766.4	2517.54
766.588	2698.69
766.775	2695.01
766.962	2804.47
767.149	2874.03
767.336	3057.7
767.523	2977.49
767.71	3087.35
767.897	3233.04
768.084	3290.01
768.271	3311.9
768.458	3368.47
768.645	3426.79
768.832	3366.54
769.019	3397.34
769.206	3476
769.392	3511.26
769.579	3595.93
769.766	3554.66
769.953	3542.46
770.14	3600.97
770.327	3596.51
770.513	3641.85
770.7	3666.26
770.887	3575.2
771.073	3687.19
771.26	3621.31
771.447	3624.22
771.634	3535.29
771.82	3684.09
772.007	3571.71
772.193	3623.64
772.38	3636.81
772.567	3597.68
772.753	3607.94
772.94	3654.44
773.126	3629.45
773.313	3643.59
773.499	3592.64
773.686	3624.8
773.872	3555.63
774.059	3592.25
774.245	3592.83
774.432	3531.22
774.618	3461.67
774.804	3588.38
774.991	3470.38
775.177	3561.83
775.363	3581.98
775.55	3583.34
775.736	3495.18
775.922	3495.96
776.109	3515.91
776.295	3551.37
776.481	3528.12
776.667	3516.5
776.853	3505.84
777.04	3468.64
777.226	3466.9
777.412	3548.27
777.598	3412.84
777.784	3458.37
777.97	3440.55
778.156	3457.98
778.342	3465.54
778.528	3420.4
778.715	3357.62
778.901	3422.14
779.087	3452.17
779.272	3401.22
779.458	3377.58
779.644	3389.59
779.83	3348.71
780.016	3460.31
780.202	3389.4
780.388	3413.42
780.574	3302.99
780.76	3341.93
780.946	3438.8
781.131	3339.99
781.317	3322.36
781.503	3267.92
781.689	3330.11
781.874	3394.82
782.06	3270.05
782.246	3311.32
782.432	3302.79
782.617	3315.39
782.803	3342.51
782.989	3239.44
783.174	3275.09
783.36	3178.41
783.545	3274.31
783.731	3239.63
783.916	3178.02
784.102	3252.42
784.288	3233.04
784.473	3242.54
784.659	3150.31
784.844	3220.26
785.029	3174.53
785.215	3161.74
785.4	3139.27
785.586	3236.73
785.771	3126.48
785.956	3174.73
786.142	3155.93
786.327	3135.78
786.512	3172.59
786.698	3127.06
786.883	3036.58
787.068	3112.92
787.254	3138.69
787.439	3090.83
787.624	3101.1
787.809	3048.98
787.994	3041.04
788.18	3134.62
788.365	3027.09
788.55	3003.65
788.735	3068.75
788.92	2982.14
789.105	3012.56
789.29	3055.96
789.475	2981.37
789.66	2967.22
789.845	2953.85
790.03	2943.2
790.215	3006.36
790.4	3010.04
790.585	3004.03
790.77	2959.86
790.955	2880.23
791.14	2970.9
791.325	2986.4
791.51	2835.67
791.695	2914.91
791.879	2890.11
792.064	2845.94
792.249	3000.16
792.434	2899.41
792.618	2906.39
792.803	2938.35
792.988	2902.7
793.173	2911.23
793.357	2967.03
793.542	2851.94
793.727	2899.6
793.911	2940.87
794.096	2886.24
794.281	2969.74
794.465	3008.49
794.65	2922.85
794.834	2989.89
795.019	2975.94
795.203	2972.65
795.388	2971.49
795.572	2993.38
795.757	2962.96
795.941	2972.26
796.126	2965.29
796.31	2897.28
796.494	2965.48
796.679	2944.17
796.863	2918.4
797.048	3061.77
797.232	2952.11
797.416	2950.75
797.601	2949.2
797.785	3007.33
797.969	3066.81
798.153	2906.39
798.338	3011.98
798.522	2993.57
798.706	3000.93
798.89	3032.52
799.074	3128.61
799.258	3055.18
799.443	3009.07
799.627	3003.84
799.811	3032.13
799.995	3006.55
800.179	2962.96
800.363	2980.01
800.547	3010.62
800.731	2998.22
800.915	2957.92
801.099	2941.65
801.283	2996.67
801.467	3007.52
801.651	2995.12
801.835	3038.91
802.019	2988.15
802.202	3005.2
802.386	2935.25
802.57	2946.88
802.754	2929.83
802.938	2913.17
803.121	2944.75
803.305	3036.78
803.489	2954.44
803.673	2987.57
803.856	2981.56
804.04	2945.14
804.224	2959.09
804.407	2940.49
804.591	2937.77
804.775	2949.2
804.958	2996.87
805.142	3066.61
805.326	2930.6
805.509	2953.08
805.693	2998.03
805.876	2989.89
806.06	2948.04
806.243	2978.27
806.427	2994.73
806.61	3057.9
806.794	3013.72
806.977	3020.5
807.16	2998.61
807.344	2973.62
807.527	2973.42
807.71	2918.79
807.894	2978.46
808.077	2979.82
808.26	2908.32
808.444	2929.44
808.627	2971.68
808.81	2933.9
808.993	2896.7
809.177	2833.15
809.36	2877.13
809.543	2918.98
809.726	2784.13
809.909	2817.07
810.092	2790.72
810.276	2773.28
810.459	2840.12
810.642	2835.86
810.825	2739.76
811.008	2777.35
811.191	2667.5
811.374	2687.84
811.557	2733.18
811.74	2765.53
811.923	2666.14
812.106	2680.86
812.289	2631.85
812.472	2652.96
812.654	2662.85
812.837	2606.27
813.02	2547.18
813.203	2548.73
813.386	2456.12
813.569	2459.6
813.751	2346.46
813.934	2440.81
814.117	2373.77
814.3	2295.89
814.482	2270.51
814.665	2247.26
814.848	2232.92
815.03	2199.01
815.213	2159.68
815.396	2141.67
815.578	2126.94
815.761	2079.67
815.943	2139.73
816.126	2057.19
816.309	2063
816.491	1968.84
816.674	1928.35
816.856	1959.93
817.039	1931.64
817.221	2016.31
817.403	1998.87
817.586	1976.59
817.768	2010.69
817.951	1945.4
818.133	1910.91
818.315	1916.73
818.498	1962.06
818.68	2034.91
818.862	1970.97
819.045	2019.41
819.227	1987.44
819.409	1949.66
819.591	2002.17
819.774	1974.46
819.956	1944.82
820.138	2018.05
820.32	1992.87
820.502	2070.75
820.684	2125.97
820.866	2120.74
821.048	2143.99
821.231	2183.9
821.413	2126.36
821.595	2137.4
821.777	2158.13
821.959	2153.68
822.141	2218.2
822.323	2075.6
822.505	2040.92
822.686	1999.07
822.868	1889.79
823.05	1817.72
823.232	1751.65
823.414	1701.47
823.596	1759.4
823.778	1742.35
823.96	1775.29
824.141	1787.11
824.323	1796.99
824.505	1854.92
824.687	1937.65
824.868	1948.31
825.05	2030.07
825.232	2075.99
825.413	2144.96
825.595	2089.35
825.777	2020.96
825.958	2065.14
826.14	2079.47
826.321	2113.38
826.503	2091.68
826.685	2093.04
826.866	2150.77
827.048	2108.73
827.229	2039.95
827.411	1999.84
827.592	1983.76
827.773	1989.77
827.955	1926.8
828.136	1933
828.318	1899.87
828.499	1914.79
828.68	1843.49
828.862	1881.46
829.043	1901.03
829.224	1886.31
829.406	1849.3
829.587	1908.39
829.768	1878.17
829.949	1896.77
830.131	1891.15
830.312	1933
830.493	1892.31
830.674	1893.28
830.855	1839.61
831.036	1862.28
831.218	1929.71
831.399	1945.79
831.58	1898.9
831.761	1911.69
831.942	1898.51
832.123	1895.99
832.304	1833.22
832.485	1833.61
832.666	1842.52
832.847	1916.73
833.028	1855.5
833.209	1884.95
833.389	1851.04
833.57	1830.51
833.751	1820.43
833.932	1908.2
834.113	1885.34
834.294	1836.13
834.475	1918.66
834.655	1953.92
834.836	1944.43
835.017	1896.58
835.198	1817.72
835.378	1902.97
835.559	1950.05
835.74	1876.81
835.92	1879.33
836.101	1854.34
836.281	1910.14
836.462	1915.95
836.643	1925.83
836.823	1936.1
837.004	1910.14
837.184	1965.55
837.365	1941.52
837.545	1977.17
837.726	1892.7
837.906	1968.65
838.087	1933.77
838.267	1893.48
838.448	1870.42
838.628	1897.54
838.808	1934.94
838.989	1970.78
839.169	1817.91
839.349	1953.73
839.53	1922.34
839.71	1931.06
839.89	1877.01
840.07	1963.03
840.251	1847.17
840.431	1916.34
840.611	1900.45
840.791	1863.06
840.971	1939.78
841.151	1889.6
841.332	1855.31
841.512	1944.82
841.692	1831.28
841.872	1875.46
842.052	1875.84
842.232	1893.67
842.412	1850.85
842.592	1850.08
842.772	1855.69
842.952	1875.84
843.132	1858.99
843.312	1861.7
843.492	1821.98
843.672	1882.43
843.851	1766.18
844.031	1836.32
844.211	1834.58
844.391	1811.33
844.571	1840.39
844.751	1850.66
844.93	1829.54
845.11	1785.17
845.29	1815.4
845.47	1871.97
845.649	1836.51
845.829	1834.38
846.009	1809.97
846.188	1818.88
846.368	1798.15
846.547	1799.7
846.727	1839.03
846.907	1781.49
847.086	1802.61
847.266	1826.44
847.445	1818.88
847.625	1812.49
847.804	1778.78
847.984	1782.46
848.163	1767.93
848.343	1760.95
848.522	1797.76
848.701	1781.88
848.881	1711.93
849.06	1762.11
849.239	1777.03
849.419	1768.31
849.598	1725.3
849.777	1708.06
849.957	1670.08
850.136	1623
850.315	1593.94
850.494	1624.94
850.674	1613.9
850.853	1713.48
851.032	1654
851.211	1692.37
851.39	1658.65
851.569	1603.24
851.748	1614.67
851.927	1673.57
852.107	1645.67
852.286	1603.05
852.465	1602.85
852.644	1670.08
852.823	1674.15
853.002	1644.9
853.181	1641.6
853.359	1650.13
853.538	1595.3
853.717	1673.18
853.896	1537.76
854.075	1495.71
854.254	1491.64
854.433	1362.61
854.611	1439.72
854.79	1350.6
854.969	1421.7
855.148	1443.21
855.327	1416.47
855.505	1456.19
855.684	1485.83
855.863	1468.39
856.041	1467.23
856.22	1516.64
856.399	1471.88
856.577	1572.05
856.756	1554.03
856.934	1654.78
857.113	1657.88
857.291	1578.25
857.47	1527.49
857.648	1598.59
857.827	1568.95
858.005	1584.84
858.184	1554.03
858.362	1645.67
858.541	1572.63
858.719	1541.82
858.898	1572.63
859.076	1548.02
859.254	1603.44
859.433	1536.4
859.611	1529.04
859.789	1493.77
859.967	1577.67
860.146	1566.04
860.324	1485.64
860.502	1521.48
860.68	1464.52
860.859	1501.14
861.037	1524.97
861.215	1507.92
861.393	1503.66
861.571	1509.66
861.749	1485.25
861.927	1491.45
862.105	1509.66
862.283	1480.6
862.461	1447.86
862.639	1431.19
862.817	1476.92
862.995	1517.61
863.173	1453.48
863.351	1444.37
863.529	1477.5
863.707	1481.38
863.885	1496.29
864.063	1414.92
864.241	1420.15
864.418	1515.47
864.596	1418.21
864.774	1415.11
864.952	1432.16
865.129	1441.08
865.307	1386.25
865.485	1349.43
865.663	1439.72
865.84	1325.41
866.018	1373.65
866.196	1254.3
866.373	1286.27
866.551	1246.75
866.728	1200.64
866.906	1212.84
867.084	1266.12
867.261	1244.23
867.439	1298.28
867.616	1339.94
867.794	1318.24
867.971	1317.27
868.149	1308.94
868.326	1360.67
868.503	1371.52
868.681	1339.16
868.858	1318.24
869.035	1309.33
869.213	1345.17
869.39	1340.52
869.567	1407.56
869.745	1308.17
869.922	1291.31
870.099	1345.17
870.276	1336.06
870.454	1337.42
870.631	1336.26
870.808	1289.76
870.985	1332.58
871.162	1414.53
871.339	1297.9
871.517	1285.88
871.694	1286.47
871.871	1304.29
872.048	1314.37
872.225	1248.3
872.402	1285.3
872.579	1227.18
872.756	1282.01
872.933	1274.26
873.11	1274.26
873.287	1316.88
873.463	1267.67
873.64	1223.11
873.817	1261.28
873.994	1229.5
874.171	1228.73
874.348	1246.55
874.524	1217.1
874.701	1257.21
874.878	1191.72
875.055	1251.2
875.231	1244.23
875.408	1212.65
875.585	1157.62
875.762	1230.47
875.938	1226.21
876.115	1195.6
876.291	1186.88
876.468	1200.44
876.645	1146.58
876.821	1180.1
876.998	1183.97
877.174	1212.45
877.351	1149.68
877.527	1142.71
877.704	1195.6
877.88	1185.52
878.057	1153.36
878.233	1242.29
878.409	1153.55
878.586	1189.01
878.762	1163.82
878.938	1154.72
879.115	1093.69
879.291	1161.3
879.467	1068.11
879.644	1108.8
879.82	1137.67
879.996	1104.34
880.172	1097.17
880.349	1150.26
880.525	1166.54
880.701	1075.09
880.877	1116.94
881.053	1131.08
881.229	1098.34
881.405	1125.46
881.581	1101.44
881.757	1101.82
881.933	1123.52
882.109	1164.99
882.285	1129.34
882.461	1078.77
882.637	1110.35
882.813	1057.46
882.989	1088.46
883.165	1134.37
883.341	1064.62
883.517	1145.03
883.693	1141.93
883.869	1149.1
884.044	1075.28
884.22	1106.86
884.396	1149.49
884.572	1134.57
884.747	1155.88
884.923	1133.6
885.099	1123.72
885.275	1148.13
885.45	1104.15
885.626	1093.49
885.801	1120.62
885.977	1085.36
886.153	1031.49
886.328	1094.07
886.504	1060.17
886.679	1116.94
886.855	1070.24
887.03	1124.49
887.206	1135.54
887.381	1110.54
887.557	1109.96
887.732	1137.67
887.908	1124.49
888.083	1151.81
888.258	1087.68
888.434	1087.29
888.609	1114.61
888.784	1118.68
888.96	1081.09
889.135	1072.57
889.31	1081.87
889.485	1093.88
889.661	1109.38
889.836	1138.25
890.011	1113.26
890.186	1097.95
890.361	1083.03
890.537	1123.14
890.712	1116.16
890.887	1098.14
891.062	1128.76
891.237	1188.82
891.412	1075.86
891.587	1107.64
891.762	1136.12
891.937	1157.43
892.112	1044.28
892.287	1083.42
892.462	1019.87
892.637	1012.12
892.812	1007.47
892.987	1007.28
893.161	1022.58
893.336	1019.09
893.511	1040.79
893.686	1042.15
893.861	1052.81
894.035	994.1
894.21	1035.18
894.385	982.86
894.56	1026.46
894.734	989.64
894.909	991.39
895.084	951.09
895.258	954.58
895.433	959.61
895.608	907.5
895.782	875.53
895.957	929.78
896.131	916.41
896.306	821.08
896.48	863.71
896.655	840.07
896.829	788.73
897.004	782.34
897.178	807.52
897.353	817.4
897.527	845.69
897.701	798.22
897.876	732.93
898.05	845.5
898.224	838.72
898.399	835.23
898.573	813.53
898.747	675.77
898.921	726.34
899.096	663.96
899.27	662.99
899.444	662.79
899.618	703.29
899.792	692.44
899.967	721.89
900.141	741.84
900.315	682.56
900.489	697.86
900.663	722.08
900.837	692.05
901.011	643.61
901.185	786.21
901.359	692.63
901.533	703.29
901.707	714.91
901.881	715.49
902.055	662.79
902.229	695.92
902.403	746.88
902.576	699.99
902.75	736.61
902.924	819.92
903.098	736.22
903.272	827.67
903.446	840.27
903.619	791.25
903.793	863.9
903.967	821.28
904.14	895.68
904.314	876.11
904.488	845.5
904.661	864.29
904.835	864.48
905.009	904.98
905.182	925.13
905.356	879.21
905.529	858.28
905.703	811.4
905.876	824.38
906.05	807.52
906.223	771.87
906.397	716.85
906.57	730.41
906.744	668.99
906.917	717.04
907.09	700.96
907.264	694.18
907.437	674.22
907.61	627.53
907.784	624.62
907.957	665.51
908.13	627.92
908.304	693.02
908.477	618.04
908.65	642.45
908.823	601.57
908.996	690.89
909.17	631.6
909.343	639.54
909.516	639.54
909.689	622.88
909.862	593.63
910.035	636.64
910.208	602.34
910.381	597.11
910.554	709.68
910.727	599.63
910.9	609.51
911.073	609.9
911.246	684.11
911.419	661.63
911.592	654.27
911.765	604.67
911.938	623.46
912.11	632.57
912.283	635.67
912.456	673.64
912.629	629.27
912.802	625.4
912.974	549.06
913.147	529.3
913.32	462.07
913.493	513.61
913.665	537.24
913.838	560.49
914.01	538.21
914.183	568.05
914.356	551.58
914.528	609.13
914.701	634.7
914.873	619.39
915.046	551
915.218	519.42
915.391	449.28
915.563	480.48
915.736	541.12
915.908	546.74
916.081	549.84
916.253	516.71
916.425	539.96
916.598	579.87
916.77	534.53
916.942	523.88
917.115	470.98
917.287	532.21
917.459	501.6
917.632	460.71
917.804	455.1
917.976	518.65
918.148	525.43
918.32	530.08
918.493	567.28
918.665	565.73
918.837	545.19
919.009	582.58
919.181	597.5
919.353	559.53
919.525	558.36
919.697	567.08
919.869	549.45
920.041	609.9
920.213	662.79
920.385	597.31
920.557	549.84
920.729	598.47
920.901	563.4
921.073	542.48
921.244	555.07
921.416	593.04
921.588	561.46
921.76	520.39
921.932	612.23
922.103	520.2
922.275	560.49
922.447	566.11
922.619	488.61
922.79	558.17
922.962	522.71
923.134	554.49
923.305	494.62
923.477	457.03
923.648	481.64
923.82	523.88
923.991	458
924.163	443.47
924.335	489.39
924.506	463.81
924.677	544.22
924.849	491.71
925.02	519.23
925.192	511.28
925.363	510.7
925.535	488.81
925.706	473.7
925.877	523.68
926.049	460.13
926.22	491.71
926.391	492.3
926.562	523.1
926.734	454.13
926.905	504.11
927.076	425.45
927.247	458.2
927.419	416.15
927.59	400.46
927.761	420.22
927.932	392.71
928.103	444.83
928.274	368.88
928.445	376.24
928.616	382.44
928.787	371.2
928.958	396.78
929.129	382.83
929.3	389.22
929.471	299.9
929.642	297
929.813	222.41
929.984	320.25
930.155	248.76
930.326	298.16
930.496	270.84
930.667	212.14
930.838	224.73
931.009	221.82
931.18	220.86
931.35	189.27
931.521	241.78
931.692	190.82
931.863	136.96
932.033	188.5
932.204	219.5
932.374	188.31
932.545	110.42
932.716	200.32
932.886	175.52
933.057	104.8
933.227	115.46
933.398	188.5
933.568	113.33
933.739	70.31
933.909	86.98
934.08	152.08
934.25	48.61
934.421	58.69
934.591	116.04
934.761	99.76
934.932	36.99
935.102	111
935.272	106.74
935.443	103.25
935.613	72.45
935.783	105.58
935.953	76.32
936.123	221.05
936.294	49.78
936.464	66.44
936.634	107.32
936.804	52.49
936.974	25.95
937.144	82.33
937.314	98.79
937.484	59.46
937.655	60.05
937.825	104.99
937.995	55.4
938.165	111.58
938.334	88.72
938.504	102.28
938.674	94.15
938.844	83.68
939.014	173.19
939.184	143.74
939.354	204.39
939.524	184.04
939.694	160.21
939.863	148.98
940.033	203.03
940.203	184.24
940.373	187.34
940.542	191.41
940.712	148.2
940.882	190.82
941.051	178.04
941.221	159.83
941.391	191.99
941.56	135.61
941.73	122.24
941.899	226.28
942.069	126.69
942.238	157.69
942.408	134.83
942.577	165.06
942.747	137.93
942.916	68.96
943.086	98.6
943.255	154.98
943.425	153.63
943.594	118.94
943.763	59.66
943.933	98.79
944.102	50.75
944.271	107.71
944.441	135.61
944.61	100.34
944.779	121.46
944.948	240.23
945.117	84.46
945.287	105.19
945.456	47.26
945.625	83.49
945.794	111.19
945.963	92.4
946.132	120.11
946.301	100.34
946.47	127.08
946.639	45.71
946.808	86.98
946.977	127.47
947.146	142.78
947.315	111.39
947.484	132.51
947.653	90.08
947.822	65.47
947.991	74.77
948.16	188.31
948.329	149.56
948.498	116.43
948.666	113.52
948.835	168.54
949.004	72.45
949.173	75.93
949.341	123.4
949.51	126.5
949.679	147.43
949.847	138.13
950.016	197.22
950.185	155.95
950.353	90.27
950.522	101.31
950.69	164.28
950.859	104.41
951.028	161.96
951.196	135.22
951.365	81.36
951.533	84.26
951.701	110.42
951.87	143.16
952.038	60.82
952.207	131.15
952.375	170.87
952.543	74.77
952.712	103.25
952.88	86.4
953.048	166.8
953.217	114.88
953.385	122.63
953.553	160.41
953.721	83.1
953.89	108.48
954.058	55.98
954.226	64.5
954.394	98.99
954.562	74.96
954.73	119.53
954.898	87.95
955.067	157.11
955.235	92.79
955.403	135.99
955.571	178.43
955.739	127.66
955.907	79.61
956.075	68.76
956.243	78.65
956.41	146.84
956.578	88.33
956.746	57.91
956.914	57.72
957.082	101.31
957.25	102.86
957.418	63.15
957.585	95.11
957.753	167.19
957.921	61.6
958.089	94.73
958.256	107.71
958.424	135.99
958.592	122.63
958.759	60.82
958.927	129.02
959.095	75.16
959.262	118.56
959.43	112.74
959.597	62.56
959.765	115.84
959.932	74.96
960.1	157.5
960.267	114.88
960.435	72.25
960.602	146.07
960.77	107.9
960.937	72.45
961.104	124.37
961.272	43.77
961.439	84.85
961.606	119.72
961.774	120.49
961.941	107.13
962.108	117.01
962.275	112.36
962.443	136.38
962.61	114.29
962.777	216.4
962.944	135.61
963.111	147.23
963.278	129.21
963.446	110.81
963.613	136.58
963.78	146.84
963.947	137.74
964.114	113.13
964.281	202.45
964.448	146.84
964.615	95.89
964.782	109.64
964.949	150.53
965.116	145.29
965.282	156.92
965.449	104.61
965.616	88.91
965.783	120.11
965.95	139.48
966.117	76.13
966.283	138.71
966.45	103.25
966.617	150.33
966.784	141.42
966.95	162.34
967.117	154.98
967.284	107.51
967.45	111
967.617	188.89
967.784	154.79
967.95	165.25
968.117	131.15
968.283	166.03
968.45	213.3
968.616	139.29
968.783	178.04
968.949	173.19
969.116	183.07
969.282	135.03
969.449	161.96
969.615	143.36
969.781	72.45
969.948	109.64
970.114	73.03
970.28	185.01
970.447	153.04
970.613	181.14
970.779	129.79
970.945	133.86
971.112	135.8
971.278	149.75
971.444	133.67
971.61	169.71
971.776	116.62
971.942	147.23
972.108	170.87
972.275	129.79
972.441	138.32
972.607	216.4
972.773	120.88
972.939	161.96
973.105	136.38
973.271	110.23
973.437	140.06
973.602	114.29
973.768	142
973.934	125.34
974.1	137.54
974.266	68.96
974.432	150.53
974.598	122.63
974.763	141.03
974.929	119.91
975.095	202.45
975.261	103.25
975.426	73.41
975.592	102.67
975.758	184.82
975.923	86.4
976.089	90.66
976.255	157.11
976.42	134.44
976.586	135.99
976.751	154.4
976.917	216.79
977.082	134.64
977.248	80.2
977.413	60.43
977.579	105.38
977.744	117.78
977.91	100.15
978.075	85.23
978.24	166.41
978.406	93.37
978.571	88.72
978.736	63.15
978.902	128.05
979.067	50.75
979.232	57.14
979.397	133.86
979.563	181.14
979.728	86.78
979.893	94.34
980.058	110.42
980.223	122.43
980.388	121.27
980.554	135.03
980.719	91.24
980.884	126.5
981.049	157.89
981.214	97.83
981.379	100.73
981.544	86.98
981.709	105.77
981.874	102.48
982.039	82.71
982.204	115.07
982.368	124.56
982.533	102.09
982.698	130.18
982.863	113.71
983.028	87.95
983.193	117.59
983.357	110.61
983.522	139.48
983.687	114.88
983.852	102.67
984.016	105.19
984.181	102.86
984.346	136.58
984.51	159.83
984.675	118.56
984.839	148.78
985.004	142
985.168	144.13
985.333	114.1
985.498	97.83
985.662	141.42
985.827	121.66
985.991	98.02
986.155	92.21
986.32	127.47
986.484	153.04
986.649	112.16
986.813	65.28
986.977	131.73
987.142	145.68
987.306	49.58
987.47	97.44
987.634	105.58
987.799	111.19
987.963	105.19
988.127	137.16
988.291	163.7
988.455	99.38
988.62	88.33
988.784	135.61
988.948	109.06
989.112	82.13
989.276	135.61
989.44	101.31
989.604	78.84
989.768	82.13
989.932	209.23
990.096	72.45
990.26	88.53
990.424	57.91
990.588	81.75
990.752	150.53
990.915	114.49
991.079	78.84
991.243	93.56
991.407	126.69
991.571	78.26
991.734	117.2
991.898	113.71
992.062	190.24
992.226	105.77
992.389	73.03
992.553	33.31
992.717	68.18
992.88	110.03
993.044	96.47
993.207	73.41
993.371	117.78
993.535	127.28
993.698	94.34
993.862	135.03
994.025	158.66
994.189	123.21
994.352	80.2
994.515	93.76
994.679	144.33
994.842	78.65
995.006	105.58
995.169	57.91
995.332	93.76
995.496	122.24
995.659	35.25
995.822	85.04
995.985	75.16
996.149	124.76
996.312	91.43
996.475	150.91
996.638	75.16
996.801	153.24
996.964	160.02
997.128	81.94
997.291	35.25
997.454	95.11
997.617	65.08
997.78	115.26
997.943	59.08
998.106	116.04
998.269	69.93
998.432	94.92
998.595	88.14
998.758	34.47
998.92	30.98
999.083	24.4
999.246	80.78
999.409	45.13
999.572	23.04
999.735	53.07
999.897	95.5
1000.06	64.11
1000.223	69.73
1000.386	95.11
1000.548	99.38
1000.711	92.01
1000.874	83.49
1001.036	21.49
1001.199	104.8
1001.361	51.71
1001.524	74.38
1001.687	114.1
1001.849	32.15
1002.012	73.41
1002.174	47.65
1002.337	100.15
1002.499	86.78
1002.661	103.64
1002.824	33.5
1002.986	43.19
1003.149	76.13
1003.311	45.51
1003.473	131.34
1003.636	38.35
1003.798	84.85
1003.96	65.86
1004.123	75.93
1004.285	52.49
1004.447	62.37
1004.609	56.17
1004.771	108.87
1004.933	5.8
1005.096	43.96
1005.258	8.9
1005.42	65.28
1005.582	69.93
1005.744	80
1005.906	29.63
1006.068	52.1
1006.23	1.73
1006.392	-0.79
1006.554	41.25
1006.716	102.67
1006.878	64.7
1007.04	30.01
1007.202	21.1
1007.363	69.15
1007.525	67.41
1007.687	59.66
1007.849	85.04
1008.011	5.41
1008.172	-1.57
1008.334	55.98
1008.496	59.66
1008.658	36.6
1008.819	18.58
1008.981	18
1009.143	21.3
1009.304	63.34
1009.466	36.41
1009.627	91.82
1009.789	152.27
1009.95	35.44
1010.112	45.32
1010.273	76.9
1010.435	21.68
1010.596	66.63
1010.758	38.54
1010.919	40.86
1011.081	18.78
1011.242	36.21
1011.403	63.92
1011.565	37.96
1011.726	72.83
1011.887	15.48
1012.049	36.02
1012.21	75.74
1012.371	133.09
1012.532	-11.45
1012.693	37.76
1012.855	43.96
1013.016	44.35
1013.177	92.21
1013.338	15.68
1013.499	99.76
1013.66	65.08
1013.821	97.44
1013.982	49
1014.143	58.88
1014.304	15.1
1014.465	65.28
1014.626	64.89
1014.787	52.68
1014.948	116.81
1015.109	-5.63
1015.27	91.24
1015.431	1.53
1015.592	12.77
1015.752	124.56
1015.913	56.36
1016.074	64.11
1016.235	53.07
1016.395	34.86
1016.556	18.97
1016.717	52.88
1016.877	113.91
1017.038	12.38
1017.199	37.18
1017.359	13.55
1017.52	78.65
1017.681	32.92
1017.841	36.6
1018.002	35.63
1018.162	30.01
1018.323	94.92
1018.483	41.83
1018.644	29.82
1018.804	-6.02
1018.964	23.43
1019.125	7.15
1019.285	49.58
1019.446	2.89
1019.606	2.5
1019.766	7.93
1019.926	70.7
1020.087	53.65
1020.247	18
1020.407	30.98
1020.567	78.26
1020.728	23.43
1020.888	-17.45
1021.048	10.83
1021.208	10.83
1021.368	-1.37
1021.528	66.63
1021.688	55.59
1021.848	74.58
1022.008	58.88
1022.168	30.4
1022.328	34.66
1022.488	70.7
1022.648	10.64
1022.808	48.23
1022.968	52.68
1023.128	7.35
1023.288	19.55
1023.448	23.23
1023.608	67.8
1023.767	27.88
1023.927	-3.31
1024.087	9.48
1024.247	-20.94
1024.406	11.61
1024.566	-11.25
1024.726	-6.02
1024.885	8.31
1025.045	50.75
1025.205	11.41
1025.364	13.55
1025.524	40.67
1025.683	32.92
1025.843	48.81
1026.003	25.36
1026.162	77.87
1026.321	60.05
1026.481	48.61
1026.64	6.77
1026.8	40.67
1026.959	13.93
1027.119	20.91
1027.278	1.34
1027.437	29.24
1027.597	18.39
1027.756	49.58
1027.915	20.33
1028.074	59.85
1028.234	12.19
1028.393	53.65
1028.552	-0.4
1028.711	-29.08
1028.87	76.51
1029.03	-31.02
1029.189	43.19
1029.348	-34.5
1029.507	21.1
1029.666	17.81
1029.825	-2.73
1029.984	3.86
1030.143	35.05
1030.302	16.65
1030.461	-37.41
1030.62	27.69
1030.779	23.43
1030.938	-24.23
1031.097	-17.65
1031.255	36.6
1031.414	67.8
1031.573	69.73
1031.732	-42.45
1031.891	22.07
1032.049	74.19
1032.208	27.3
1032.367	12.77
1032.525	3.08
1032.684	-3.31
1032.843	10.25
1033.001	-52.52
1033.16	153.63
1033.319	65.08
1033.477	30.01
1033.636	-4.86
1033.794	-15.13
1033.953	48.61
1034.111	33.7
1034.27	-9.51
1034.428	27.11
1034.587	7.73
1034.745	36.8
1034.903	10.64
1035.062	29.24
1035.22	-14.35
1035.378	63.92
1035.537	-0.98
1035.695	40.28
1035.853	32.92
1036.011	48.23
1036.17	12.38
1036.328	-28.5
1036.486	32.73
1036.644	12.38
1036.802	-81.2
1036.96	-27.53
1037.119	-26.75
1037.277	-10.48
1037.435	-16.68
1037.593	-30.43
1037.751	24.59
1037.909	36.99
1038.067	36.99
