Data from gum_old_FLMT105791__70__15-43-58-257.txt Node

Date: Mon Mar 20 15:43:58 GMT 2023
User: antho
Spectrometer: FLMT10579
Trigger mode: 0
Integration Time (sec): 1.000000E-1
Scans to average: 10
Electric dark correction enabled: true
Nonlinearity correction enabled: false
Boxcar width: 0
XAxis mode: Wavelengths
Number of Pixels in Spectrum: 3648
>>>>>Begin Spectral Data<<<<<
345.248	-192.15
345.464	-192.15
345.681	-192.15
345.898	-185.95
346.114	-153.98
346.331	-38.12
346.548	26.79
346.764	-1.11
346.981	-7.51
347.197	-17.78
347.414	26.4
347.631	-10.61
347.847	61.08
348.064	9.35
348.28	4.89
348.497	-54.01
348.713	0.63
348.93	31.24
349.146	23.88
349.363	-5.57
349.579	19.81
349.796	7.02
350.012	5.09
350.229	35.7
350.445	19.42
350.661	-11.19
350.878	17.87
351.094	19.81
351.311	24.65
351.527	51.2
351.743	1.79
351.96	56.82
352.176	49.07
352.392	26.2
352.609	48.49
352.825	25.04
353.041	-0.15
353.257	-1.31
353.474	30.66
353.69	16.13
353.906	30.85
354.122	16.9
354.339	96.53
354.555	18.26
354.771	13.61
354.987	105.25
355.203	62.24
355.42	22.72
355.636	17.68
355.852	10.7
356.068	0.44
356.284	-21.46
356.5	67.47
356.716	56.04
356.932	14
357.148	21.17
357.364	36.47
357.58	60.69
357.796	76.58
358.012	96.53
358.228	41.9
358.444	-11.38
358.66	68.83
358.876	48.87
359.092	8.57
359.308	69.8
359.524	40.35
359.74	12.06
359.956	6.25
360.172	39.19
360.388	59.53
360.604	4.89
360.819	111.65
361.035	35.5
361.251	51.2
361.467	21.36
361.683	101.18
361.898	53.52
362.114	94.98
362.33	53.52
362.546	88.98
362.762	36.28
362.977	63.99
363.193	30.47
363.409	70.57
363.624	7.6
363.84	12.45
364.056	35.31
364.271	63.79
364.487	66.12
364.703	23.49
364.918	30.08
365.134	32.21
365.35	41.12
365.565	132.38
365.781	51.39
365.996	90.33
366.212	120.37
366.427	73.67
366.643	21.55
366.858	34.34
367.074	41.7
367.289	99.63
367.505	162.41
367.72	15.35
367.936	55.65
368.151	98.47
368.367	65.92
368.582	65.15
368.798	27.75
369.013	83.55
369.228	43.45
369.444	43.84
369.659	88.59
369.874	85.3
370.09	140.32
370.305	8.77
370.52	34.15
370.736	116.1
370.951	66.12
371.166	89.95
371.381	130.63
371.597	98.28
371.812	24.46
372.027	10.51
372.242	43.06
372.458	138.19
372.673	44.61
372.888	59.14
373.103	66.7
373.318	149.23
373.533	61.66
373.749	57.01
373.964	-4.41
374.179	102.35
374.394	56.43
374.609	100.99
374.824	13.03
375.039	94.02
375.254	42.87
375.469	102.73
375.684	64.18
375.899	102.93
376.114	64.37
376.329	66.5
376.544	113
376.759	99.44
376.974	39.19
377.189	41.51
377.404	78.52
377.619	108.55
377.834	22.14
378.049	31.63
378.264	61.27
378.478	90.14
378.693	72.51
378.908	94.02
379.123	67.08
379.338	129.28
379.553	79.48
379.767	64.18
379.982	97.12
380.197	92.66
380.412	56.43
380.626	85.1
380.841	147.49
381.056	116.1
381.271	150.98
381.485	56.24
381.7	41.9
381.915	81.81
382.129	66.89
382.344	94.4
382.559	77.35
382.773	121.92
382.988	9.93
383.202	92.27
383.417	51.2
383.632	163.57
383.846	65.92
384.061	68.25
384.275	63.6
384.49	72.9
384.704	97.5
384.919	91.69
385.133	92.85
385.348	109.13
385.562	75.22
385.777	130.83
385.991	102.54
386.206	61.27
386.42	86.85
386.634	124.43
386.849	95.37
387.063	100.02
387.277	88.01
387.492	66.89
387.706	59.14
387.92	89.56
388.135	134.9
388.349	91.5
388.563	110.29
388.778	105.25
388.992	98.28
389.206	112.23
389.42	170.93
389.635	109.32
389.849	145.75
390.063	181.2
390.277	143.81
390.491	183.14
390.706	133.54
390.92	149.04
391.134	146.52
391.348	152.72
391.562	82.39
391.776	145.17
391.99	130.05
392.205	167.83
392.419	110.1
392.633	132.77
392.847	182.17
393.061	96.92
393.275	171.32
393.489	105.45
393.703	88.78
393.917	135.87
394.131	59.34
394.345	121.72
394.559	138
394.773	127.92
394.986	151.37
395.2	156.21
395.414	186.24
395.628	118.62
395.842	161.25
396.056	145.36
396.27	112.62
396.484	158.92
396.697	170.55
396.911	169.38
397.125	111.65
397.339	145.94
397.553	152.14
397.766	196.31
397.98	160.08
398.194	192.44
398.408	178.88
398.621	187.6
398.835	210.26
399.049	196.7
399.262	250.37
399.476	225.76
399.69	257.73
399.903	280.79
400.117	246.11
400.331	258.89
400.544	194.38
400.758	347.24
400.971	227.51
401.185	297.06
401.398	179.26
401.612	284.08
401.826	253.66
402.039	274.78
402.253	245.72
402.466	294.16
402.68	256.18
402.893	278.46
403.106	283.11
403.32	273.04
403.533	289.7
403.747	285.44
403.96	275.75
404.174	273.43
404.387	221.7
404.6	282.53
404.814	303.84
405.027	284.28
405.24	286.99
405.454	248.63
405.667	302.49
405.88	213.75
406.094	271.68
406.307	314.89
406.52	252.11
406.733	236.42
406.947	225.76
407.16	337.56
407.373	317.6
407.586	246.88
407.799	216.66
408.012	299.58
408.226	283.89
408.439	344.34
408.652	243.59
408.865	295.51
409.078	336.01
409.291	327.48
409.504	274.39
409.717	332.52
409.93	334.84
410.143	305.01
410.357	261.8
410.57	261.8
410.783	289.89
410.996	281.95
411.209	294.35
411.421	373.01
411.634	302.1
411.847	313.14
412.06	307.72
412.273	331.74
412.486	333.87
412.699	417.77
412.912	338.72
413.125	350.34
413.338	324.77
413.55	351.31
413.763	326.32
413.976	326.71
414.189	314.31
414.402	318.76
414.615	379.99
414.827	302.88
415.04	371.66
415.253	364.68
415.466	412.92
415.678	397.42
415.891	361
416.104	353.83
416.316	352.09
416.529	324.38
416.742	390.64
416.954	414.28
417.167	389.48
417.38	367.59
417.592	404.79
417.805	323.22
418.017	312.56
418.23	356.54
418.442	327.29
418.655	359.84
418.868	354.22
419.08	412.34
419.293	404.21
419.505	404.98
419.718	378.24
419.93	401.11
420.142	352.47
420.355	401.49
420.567	420.87
420.78	371.66
420.992	383.86
421.205	414.67
421.417	350.92
421.629	377.47
421.842	378.82
422.054	354.22
422.266	417.38
422.479	421.45
422.691	379.21
422.903	411.96
423.115	347.63
423.328	363.32
423.54	359.06
423.752	357.71
423.964	355.77
424.177	391.22
424.389	356.74
424.601	505.92
424.813	411.96
425.025	420.29
425.238	433.85
425.45	380.96
425.662	378.24
425.874	711.68
426.086	390.64
426.298	413.89
426.51	404.59
426.722	415.83
426.934	383.86
427.146	413.31
427.358	384.44
427.57	436.17
427.782	406.92
427.994	377.66
428.206	340.66
428.418	368.75
428.63	425.52
428.842	444.31
429.054	421.25
429.266	420.87
429.478	387.16
429.69	417.19
429.902	347.05
430.114	405.17
430.325	406.53
430.537	336.59
430.749	328.06
430.961	286.99
431.173	306.94
431.384	350.15
431.596	254.24
431.808	339.88
432.02	388.51
432.231	486.16
432.443	499.14
432.655	484.8
432.867	418.54
433.078	474.73
433.29	541.77
433.502	500.69
433.713	496.43
433.925	517.16
434.136	503.4
434.348	435.2
434.56	375.53
434.771	556.1
434.983	391.03
435.194	435.4
435.406	475.7
435.617	530.53
435.829	541.38
436.04	536.15
436.252	542.15
436.463	567.53
436.675	579.16
436.886	532.85
437.098	579.55
437.309	596.79
437.521	545.25
437.732	548.16
437.943	550.48
438.155	508.25
438.366	478.8
438.578	603.38
438.789	529.95
439	529.17
439.211	498.37
439.423	520.26
439.634	518.71
439.845	540.99
440.057	556.88
440.268	553.58
440.479	526.65
440.69	570.63
440.902	545.83
441.113	529.37
441.324	543.12
441.535	602.02
441.746	649.68
441.957	561.14
442.168	567.15
442.38	590.4
442.591	621.2
442.802	570.05
443.013	589.62
443.224	627.79
443.435	584.2
443.646	592.72
443.857	564.05
444.068	598.15
444.279	600.86
444.49	667.12
444.701	607.25
444.912	726.41
445.123	655.11
445.334	607.25
445.545	655.88
445.756	641.93
445.967	594.66
446.178	620.62
446.388	614.23
446.599	635.93
446.81	664.8
447.021	625.66
447.232	657.05
447.443	674.29
447.653	631.86
447.864	679.52
448.075	681.26
448.286	715.56
448.496	666.15
448.707	725.24
448.918	624.5
449.129	758.96
449.339	639.41
449.55	704.71
449.761	674.48
449.971	704.32
450.182	669.45
450.393	700.83
450.603	650.65
450.814	736.09
451.024	718.08
451.235	741.33
451.446	761.28
451.656	780.46
451.867	712.26
452.077	709.94
452.288	789.96
452.498	722.92
452.709	715.17
452.919	714.01
453.13	656.46
453.34	725.05
453.55	639.22
453.761	701.03
453.971	707.61
454.182	705.48
454.392	695.02
454.602	751.79
454.813	722.14
455.023	717.11
455.233	661.11
455.444	726.41
455.654	649.1
455.864	684.94
456.075	748.11
456.285	702.77
456.495	717.88
456.705	740.16
456.916	772.71
457.126	780.07
457.336	752.95
457.546	688.04
457.756	708
457.967	765.35
458.177	726.41
458.387	755.86
458.597	698.51
458.807	735.32
459.017	692.5
459.227	720.21
459.437	726.02
459.647	779.88
459.857	772.13
460.068	724.47
460.278	766.9
460.488	768.84
460.698	808.94
460.908	728.15
461.117	726.79
461.327	742.1
461.537	762.64
461.747	794.41
461.957	778.33
462.167	871.14
462.377	830.64
462.587	762.44
462.797	828.71
463.007	778.91
463.216	851.37
463.426	897.29
463.636	839.75
463.846	722.14
464.056	781.82
464.265	823.86
464.475	769.81
464.685	797.71
464.895	835.49
465.104	794.41
465.314	816.31
465.524	783.37
465.733	760.7
465.943	857.96
466.153	880.63
466.362	831.22
466.572	821.54
466.782	800.81
466.991	819.99
467.201	882.57
467.41	723.5
467.62	823.47
467.829	799.84
468.039	838.01
468.249	807.01
468.458	844.4
468.668	829.09
468.877	858.15
469.086	918.22
469.296	890.7
469.505	834.52
469.715	919.96
469.924	885.28
470.134	934.69
470.343	918.22
470.552	853.31
470.762	862.03
470.971	843.43
471.18	890.32
471.39	850.41
471.599	847.31
471.808	925.39
472.018	873.85
472.227	970.53
472.436	974.21
472.645	935.85
472.855	916.09
473.064	1022.45
473.273	951.15
473.482	932.94
473.691	1017.61
473.901	968.98
474.11	918.22
474.319	1070.31
474.528	967.82
474.737	1064.11
474.946	1043.96
475.155	986.61
475.364	1069.92
475.573	1044.15
475.783	1037.37
475.992	1061.98
476.201	1089.88
476.41	1037.76
476.619	1014.9
476.828	1045.7
477.037	1018.97
477.245	1036.4
477.454	1072.25
477.663	1060.62
477.872	1092.01
478.081	1170.67
478.29	1087.75
478.499	1194.5
478.708	1162.34
478.917	1226.66
479.125	1118.94
479.334	1157.11
479.543	1148
479.752	1166.02
479.961	1172.41
480.169	1176.87
480.378	1158.85
480.587	1336.9
480.796	1204.57
481.004	1213.49
481.213	1205.16
481.422	1245.65
481.63	1212.91
481.839	1255.53
482.048	1296.6
482.256	1266.77
482.465	1281.49
482.674	1312.69
482.882	1311.52
483.091	1332.64
483.299	1271.42
483.508	1305.13
483.716	1307.26
483.925	1346.98
484.134	1246.42
484.342	1276.46
484.551	1322.95
484.759	1312.49
484.967	1346.98
485.176	1370.62
485.384	1364.03
485.593	1353.76
485.801	1326.25
486.01	1297.57
486.218	1238.48
486.426	1154.98
486.635	1159.82
486.843	1184.43
487.051	1180.94
487.26	1168.34
487.468	1253.21
487.676	1304.94
487.885	1262.12
488.093	1310.55
488.301	1368.29
488.509	1392.9
488.717	1424.48
488.926	1415.57
489.134	1380.11
489.342	1371
489.55	1379.72
489.758	1372.36
489.967	1375.85
490.175	1524.45
490.383	1492.68
490.591	1587.61
490.799	1467.88
491.007	1533.95
491.215	1510.89
491.423	1498.49
491.631	1497.91
491.839	1481.25
492.047	1509.73
492.255	1422.35
492.463	1395.22
492.671	1411.5
492.879	1488.03
493.087	1448.12
493.295	1527.75
493.503	1518.45
493.711	1557.19
493.919	1565.72
494.127	1547.7
494.334	1588.97
494.542	1466.33
494.75	1557.39
494.958	1526
495.166	1605.05
495.374	1582.77
495.581	1606.99
495.789	1607.96
495.997	1628.11
496.205	1562.62
496.412	1581.8
496.62	1586.26
496.828	1577.73
497.035	1614.54
497.243	1625.2
497.451	1578.7
497.658	1606.6
497.866	1603.69
498.074	1708.12
498.281	1582.58
498.489	1693.21
498.696	1581.8
498.904	1556.81
499.112	1545.38
499.319	1657.17
499.527	1576.38
499.734	1659.49
499.942	1575.6
500.149	1563.78
500.357	1651.94
500.564	1573.47
500.771	1597.69
500.979	1559.33
501.186	1525.03
501.394	1611.06
501.601	1557.39
501.808	1555.06
502.016	1567.46
502.223	1529.1
502.43	1572.89
502.638	1592.84
502.845	1561.46
503.052	1698.63
503.26	1613.77
503.467	1712
503.674	1638.76
503.881	1672.86
504.089	1722.85
504.296	1674.41
504.503	1558.55
504.71	1598.46
504.917	1571.73
505.125	1633.73
505.332	1653.1
505.539	1690.49
505.746	1768.77
505.953	1703.86
506.16	1717.23
506.367	1757.34
506.574	1816.62
506.781	1817.2
506.988	1740.09
507.195	1728.27
507.402	1750.36
507.609	1820.88
507.816	1762.95
508.023	1705.8
508.23	1718.2
508.437	1647.29
508.644	1746.29
508.851	1806.35
509.058	1783.1
509.265	1766.05
509.472	1800.93
509.679	1878.04
509.885	1787.75
510.092	1810.04
510.299	1781.75
510.506	1771.87
510.713	1781.17
510.92	1792.21
511.126	1812.94
511.333	1834.64
511.54	1830.96
511.746	1875.33
511.953	1851.88
512.16	1879.4
512.367	1802.29
512.573	1823.02
512.78	1837.35
512.987	1815.85
513.193	1806.94
513.4	1734.09
513.606	1790.66
513.813	1826.5
514.02	1784.65
514.226	1837.74
514.433	1822.63
514.639	1767.02
514.846	1820.11
515.052	1774.19
515.259	1823.98
515.465	1799.38
515.672	1820.3
515.878	1931.9
516.085	1828.05
516.291	1864.09
516.497	1820.5
516.704	1770.32
516.91	1739.9
517.117	1663.17
517.323	1578.31
517.529	1647.48
517.736	1660.85
517.942	1624.81
518.148	1673.44
518.354	1732.15
518.561	1729.05
518.767	1720.91
518.973	1762.57
519.179	1769.35
519.386	1753.85
519.592	1742.03
519.798	1769.93
520.004	1918.15
520.21	1816.82
520.417	1908.46
520.623	1939.26
520.829	1914.08
521.035	1936.36
521.241	1947.01
521.447	1958.45
521.653	2087.67
521.859	1948.76
522.065	1989.06
522.271	2092.71
522.477	2021.03
522.683	2085.35
522.889	2029.94
523.095	1986.15
523.301	1985.57
523.507	1982.86
523.713	2035.75
523.919	1969.88
524.125	2097.75
524.331	2040.59
524.537	2129.91
524.742	2173.7
524.948	2159.56
525.154	2128.94
525.36	2243.06
525.566	2124.1
525.772	2169.82
525.977	2087.48
526.183	2173.5
526.389	2177.38
526.595	2091.16
526.8	2084.96
527.006	2028.19
527.212	1943.72
527.417	1929.19
527.623	1953.6
527.829	2002.23
528.034	2065.39
528.24	2061.71
528.446	2056.48
528.651	2184.74
528.857	2155.68
529.062	2176.8
529.268	2206.25
529.473	2207.02
529.679	2207.22
529.884	2305.06
530.09	2302.15
530.295	2262.24
530.501	2272.32
530.706	2275.03
530.912	2215.35
531.117	2292.85
531.323	2252.94
531.528	2322.88
531.733	2328.89
531.939	2303.51
532.144	2361.44
532.35	2304.67
532.555	2366.48
532.76	2322.5
532.966	2302.35
533.171	2253.52
533.376	2187.45
533.581	2195.59
533.787	2233.18
533.992	2315.33
534.197	2274.25
534.402	2289.95
534.607	2283.17
534.813	2389.53
535.018	2262.24
535.223	2298.47
535.428	2347.68
535.633	2378.68
535.838	2382.95
536.043	2401.74
536.249	2518.96
536.454	2377.33
536.659	2447.08
536.864	2375
537.069	2385.46
537.274	2403.68
537.479	2350.01
537.684	2362.21
537.889	2297.12
538.094	2422.66
538.299	2398.25
538.504	2366.67
538.708	2370.93
538.913	2434.29
539.118	2421.7
539.323	2434.29
539.528	2405.61
539.733	2368.41
539.938	2375.97
540.142	2411.81
540.347	2354.66
540.552	2345.16
540.757	2296.53
540.962	2322.3
541.166	2276
541.371	2281.23
541.576	2329.86
541.781	2206.25
541.985	2369.58
542.19	2370.16
542.395	2474.78
542.599	2506.36
542.804	2430.61
543.008	2473.43
543.213	2380.04
543.418	2354.66
543.622	2424.02
543.827	2344.39
544.031	2451.53
544.236	2464.51
544.44	2468.78
544.645	2529.81
544.849	2402.9
545.054	2478.46
545.258	2554.41
545.463	2516.82
545.667	2435.06
545.872	2463.35
546.076	2460.25
546.281	2449.98
546.485	2440.29
546.689	2472.07
546.894	2522.44
547.098	2441.84
547.302	2424.8
547.507	2472.26
547.711	2462.77
547.915	2496.48
548.119	2434.68
548.324	2422.86
548.528	2468.19
548.732	2466.45
548.936	2480.21
549.141	2490.28
549.345	2472.46
549.549	2503.46
549.753	2500.16
549.957	2560.03
550.161	2559.64
550.366	2487.57
550.57	2458.89
550.774	2487.38
550.978	2478.46
551.182	2478.85
551.386	2474.78
551.59	2462.38
551.794	2462.77
551.998	2504.81
552.202	2499.97
552.406	2476.72
552.61	2531.36
552.814	2501.52
553.018	2533.68
553.222	2455.41
553.426	2443.01
553.63	2584.06
553.833	2452.5
554.037	2402.32
554.241	2449.01
554.445	2497.26
554.649	2518.57
554.853	2478.85
555.056	2524.38
555.26	2555.19
555.464	2519.15
555.668	2523.02
555.871	2508.69
556.075	2558.67
556.279	2417.24
556.483	2457.93
556.686	2456.96
556.89	2476.33
557.094	2456.38
557.297	2383.33
557.501	2480.21
557.704	2371.71
557.908	2452.31
558.112	2392.25
558.315	2495.9
558.519	2435.26
558.722	2421.89
558.926	2338.96
559.129	2322.88
559.333	2310.1
559.536	2291.88
559.74	2276.19
559.943	2256.23
560.147	2299.44
560.35	2299.25
560.553	2336.06
560.757	2257.4
560.96	2352.33
561.164	2337.41
561.367	2398.25
561.57	2345.36
561.774	2347.3
561.977	2324.82
562.18	2339.74
562.384	2388.76
562.587	2285.68
562.79	2313.78
562.993	2281.03
563.197	2351.75
563.4	2337.22
563.603	2397.67
563.806	2436.61
564.009	2292.08
564.212	2319.2
564.416	2251.58
564.619	2300.22
564.822	2238.22
565.025	2366.28
565.228	2310.29
565.431	2309.71
565.634	2190.17
565.837	2240.54
566.04	2222.91
566.243	2224.27
566.446	2132.43
566.649	2269.99
566.852	2136.5
567.055	2196.17
567.258	2247.32
567.461	2288.78
567.664	2285.88
567.867	2205.28
568.07	2250.03
568.273	2251.2
568.475	2277.74
568.678	2204.5
568.881	2180.09
569.084	2212.84
569.287	2081.09
569.489	2121
569.692	2189.59
569.895	2218.84
570.098	2117.32
570.3	2093.1
570.503	2080.7
570.706	2057.84
570.909	2098.14
571.111	2035.17
571.314	2042.14
571.516	2065.78
571.719	2065.39
571.922	2036.53
572.124	2034.78
572.327	2090.58
572.529	2031.88
572.732	2086.71
572.935	2103.95
573.137	2177.38
573.34	2102.98
573.542	2121.58
573.745	2097.94
573.947	2121.19
574.15	2069.08
574.352	2064.62
574.554	2110.34
574.757	2052.41
574.959	2013.47
575.162	2038.27
575.364	2026.45
575.566	2122.74
575.769	1994.48
575.971	2034.78
576.173	1892.77
576.376	2015.79
576.578	2022.19
576.78	2096.97
576.982	1923.38
577.185	2027.61
577.387	1935.58
577.589	1953.8
577.791	1991.19
577.993	2026.64
578.196	1975.3
578.398	1994.29
578.6	1991.38
578.802	1897.42
579.004	1912.91
579.206	1938.1
579.408	1957.48
579.61	1911.75
579.812	2010.56
580.014	1917.95
580.216	1927.64
580.418	1961.16
580.62	1909.62
580.822	1861.38
581.024	1922.8
581.226	1984.21
581.428	1954.18
581.63	2027.61
581.832	1896.06
582.034	2001.07
582.236	1924.15
582.438	1994.68
582.64	1982.47
582.841	2017.15
583.043	2048.15
583.245	1972.59
583.447	1981.11
583.649	1922.02
583.85	1956.7
584.052	1986.15
584.254	1924.54
584.456	1949.73
584.657	1886.95
584.859	1942.17
585.061	1913.5
585.262	1942.36
585.464	1909.43
585.666	1941.01
585.867	1903.81
586.069	1943.33
586.27	1917.76
586.472	1902.45
586.674	1891.22
586.875	1851.88
587.077	1858.28
587.278	1922.6
587.48	1847.04
587.681	2009.59
587.883	1880.37
588.084	1848.01
588.285	1848.98
588.487	1804.42
588.688	1856.15
588.89	1781.55
589.091	1722.66
589.292	1777.49
589.494	1721.69
589.695	1693.98
589.896	1604.66
590.098	1581.61
590.299	1686.42
590.5	1629.08
590.702	1646.32
590.903	1705.41
591.104	1759.66
591.305	1757.92
591.507	1805.58
591.708	1812.94
591.909	1772.45
592.11	1817.01
592.311	1784.65
592.512	1753.46
592.714	1682.16
592.915	1695.92
593.116	1709.09
593.317	1714.91
593.518	1735.05
593.719	1749.78
593.92	1790.27
594.121	1768.77
594.322	1720.33
594.523	1749.97
594.724	1688.75
594.925	1741.64
595.126	1724.59
595.327	1776.13
595.528	1747.45
595.729	1727.3
595.929	1668.6
596.13	1740.29
596.331	1717.04
596.532	1703.47
596.733	1801.32
596.934	1787.37
597.135	1754.43
597.335	1759.85
597.536	1685.26
597.737	1733.31
597.938	1700.18
598.138	1750.17
598.339	1707.74
598.54	1712.58
598.74	1663.37
598.941	1688.94
599.142	1784.46
599.342	1741.64
599.543	1686.81
599.744	1699.6
599.944	1685.07
600.145	1688.94
600.345	1705.41
600.546	1748.81
600.746	1734.86
600.947	1785.04
601.147	1709.67
601.348	1742.61
601.548	1660.85
601.749	1721.88
601.949	1655.81
602.15	1658.52
602.35	1654.46
602.551	1719.36
602.751	1640.89
602.951	1670.34
603.152	1588.58
603.352	1706.57
603.552	1672.09
603.753	1695.53
603.953	1725.56
604.153	1685.84
604.354	1681.58
604.554	1693.79
604.754	1662.59
604.954	1627.14
605.155	1698.05
605.355	1666.27
605.555	1695.92
605.755	1765.67
605.955	1679.06
606.155	1716.65
606.356	1666.08
606.556	1703.67
606.756	1714.52
606.956	1647.09
607.156	1745.32
607.356	1627.33
607.556	1707.74
607.756	1701.92
607.956	1756.56
608.156	1672.28
608.356	1662.98
608.556	1680.61
608.756	1640.89
608.956	1589.74
609.156	1647.09
609.356	1602.73
609.556	1597.11
609.755	1654.26
609.955	1615.13
610.155	1636.05
610.355	1631.59
610.555	1618.23
610.755	1632.76
610.954	1538.4
611.154	1637.99
611.354	1608.73
611.554	1591.1
611.753	1593.23
611.953	1571.34
612.153	1628.49
612.352	1602.34
612.552	1553.13
612.752	1514.38
612.951	1571.14
613.151	1583.54
613.351	1556.42
613.55	1599.63
613.75	1597.69
613.949	1583.93
614.149	1567.85
614.348	1538.21
614.548	1547.31
614.747	1463.61
614.947	1556.03
615.146	1484.93
615.346	1549.64
615.545	1535.88
615.745	1539.76
615.944	1562.62
616.144	1506.24
616.343	1568.24
616.542	1505.08
616.742	1495.39
616.941	1484.73
617.14	1422.15
617.34	1508.95
617.539	1512.05
617.738	1452.77
617.938	1581.41
618.137	1491.9
618.336	1464.2
618.535	1518.45
618.734	1496.94
618.934	1489.19
619.133	1542.86
619.332	1534.33
619.531	1497.52
619.73	1470.4
619.929	1533.56
620.128	1510.11
620.328	1559.71
620.527	1471.75
620.726	1494.61
620.925	1522.9
621.124	1482.41
621.323	1488.41
621.522	1431.65
621.721	1471.95
621.92	1400.45
622.119	1500.23
622.318	1446.37
622.517	1476.21
622.715	1445.02
622.914	1400.07
623.113	1439.78
623.312	1393.87
623.511	1425.83
623.71	1417.89
623.909	1402.39
624.107	1510.31
624.306	1378.95
624.505	1377.98
624.704	1402.78
624.902	1383.79
625.101	1448.31
625.3	1411.11
625.499	1388.83
625.697	1373.52
625.896	1353.95
626.095	1396
626.293	1320.82
626.492	1315.79
626.69	1382.43
626.889	1343.1
627.088	1421.77
627.286	1378.75
627.485	1350.66
627.683	1367.32
627.882	1364.8
628.08	1271.81
628.279	1319.27
628.477	1394.83
628.676	1288.86
628.874	1376.62
629.073	1309.78
629.271	1260.57
629.469	1351.63
629.668	1299.7
629.866	1310.75
630.065	1289.44
630.263	1329.54
630.461	1298.15
630.66	1310.75
630.858	1345.04
631.056	1361.51
631.254	1339.62
631.453	1280.72
631.651	1352.02
631.849	1311.72
632.047	1322.18
632.245	1316.17
632.444	1301.25
632.642	1315.4
632.84	1354.34
633.038	1299.51
633.236	1263.09
633.434	1292.34
633.632	1275.49
633.83	1292.34
634.028	1308.04
634.227	1283.82
634.425	1371
634.623	1293.7
634.821	1304.74
635.019	1308.42
635.216	1285.17
635.414	1321.4
635.612	1275.68
635.81	1276.26
636.008	1351.24
636.206	1279.36
636.404	1334
636.602	1278.78
636.8	1282.46
636.997	1283.43
637.195	1305.13
637.393	1300.48
637.591	1350.27
637.789	1327.02
637.986	1299.51
638.184	1300.09
638.382	1335.74
638.58	1318.3
638.777	1344.46
638.975	1336.71
639.173	1293.7
639.37	1316.37
639.568	1329.74
639.765	1323.54
639.963	1292.34
640.161	1314.24
640.358	1320.44
640.556	1280.33
640.753	1240.22
640.951	1229.37
641.148	1295.25
641.346	1268.32
641.543	1260.37
641.741	1304.35
641.938	1238.48
642.136	1243.52
642.333	1224.14
642.531	1327.6
642.728	1309.39
642.925	1268.71
643.123	1244.29
643.32	1250.88
643.517	1233.83
643.715	1224.53
643.912	1216.97
644.109	1245.26
644.306	1233.64
644.504	1166.21
644.701	1242.16
644.898	1296.02
645.095	1188.69
645.293	1194.11
645.49	1230.34
645.687	1206.71
645.884	1237.9
646.081	1154.39
646.278	1188.69
646.475	1167.57
646.672	1192.56
646.87	1214.65
647.067	1181.71
647.264	1191.01
647.461	1139.86
647.658	1130.95
647.855	1203.8
648.052	1150.71
648.249	1068.37
648.446	1155.94
648.642	1134.63
648.839	1108.09
649.036	1113.13
649.233	1070.89
649.43	1090.65
649.627	1080.19
649.824	1094.72
650.021	1069.15
650.217	1099.95
650.414	1089.1
650.611	1115.26
650.808	1152.84
651.004	1147.81
651.201	1124.36
651.398	1191.21
651.595	1115.06
651.791	1080.96
651.988	1147.23
652.185	1105.38
652.381	1172.8
652.578	1054.03
652.775	1087.36
652.971	1108.28
653.168	1084.65
653.364	1130.37
653.561	1062.17
653.757	1103.05
653.954	1130.95
654.15	1065.27
654.347	1157.49
654.543	1105.76
654.74	1088.91
654.936	1035.24
655.133	1105.57
655.329	1117.19
655.525	1079.22
655.722	1102.28
655.918	1040.47
656.115	1059.65
656.311	962.97
656.507	949.6
656.704	880.63
656.9	930.42
657.096	929.26
657.292	916.86
657.489	1027.49
657.685	994.55
657.881	978.28
658.077	1011.02
658.273	995.13
658.47	1105.38
658.666	1031.95
658.862	1109.25
659.058	1037.18
659.254	1091.62
659.45	1055.2
659.646	1089.88
659.842	1042.41
660.038	1139.67
660.234	1043.76
660.43	1082.71
660.626	1169.89
660.822	1112.93
661.018	1161.18
661.214	1081.74
661.41	1047.45
661.606	1136.57
661.802	1126.88
661.998	1062.95
662.194	1061.01
662.39	1106.35
662.586	1121.07
662.781	1106.54
662.977	1137.93
663.173	1140.06
663.369	1133.28
663.564	1097.24
663.76	1117.58
663.956	1098.4
664.152	1125.14
664.347	1032.91
664.543	1082.13
664.739	1029.04
664.934	984.09
665.13	1012.57
665.326	1087.75
665.521	1072.63
665.717	1024
665.912	1045.12
666.108	977.7
666.304	1045.7
666.499	1047.64
666.695	976.73
666.89	1048.8
667.086	1096.27
667.281	1055.58
667.477	1081.74
667.672	1072.44
667.867	1024.78
668.063	1067.01
668.258	1001.92
668.454	1065.85
668.649	1083.87
668.844	1039.5
669.04	1051.51
669.235	1022.84
669.43	1006.37
669.626	970.33
669.821	1018.38
670.016	974.98
670.211	1013.54
670.407	965.49
670.602	1033.69
670.797	991.65
670.992	1044.73
671.187	970.53
671.382	1061.01
671.578	977.31
671.773	1023.62
671.968	963.36
672.163	999.78
672.358	1015.09
672.553	982.93
672.748	1019.35
672.943	1073.8
673.138	1007.34
673.333	1011.22
673.528	978.86
673.723	996.68
673.918	998.62
674.113	957.16
674.308	1069.34
674.503	1005.21
674.698	1006.37
674.892	976.92
675.087	994.75
675.282	997.85
675.477	972.08
675.672	1020.52
675.867	963.17
676.061	965.1
676.256	930.23
676.451	928.29
676.646	979.44
676.84	925.77
677.035	912.6
677.23	911.44
677.424	982.15
677.619	987.19
677.814	1021.68
678.008	979.25
678.203	914.54
678.397	939.14
678.592	949.41
678.787	1022.07
678.981	929.84
679.176	938.95
679.37	931
679.565	925.97
679.759	911.44
679.954	959.1
680.148	1026.91
680.342	996.49
680.537	971.69
680.731	915.12
680.926	968.2
681.12	995.52
681.314	924.22
681.509	926.16
681.703	966.07
681.897	968.01
682.092	940.5
682.286	961.81
682.48	1045.12
682.674	977.5
682.869	907.75
683.063	943.98
683.257	1030.98
683.451	927.52
683.645	966.65
683.839	960.84
684.034	905.04
684.228	974.21
684.422	875.01
684.616	880.05
684.81	934.69
685.004	908.72
685.198	944.57
685.392	974.21
685.586	912.6
685.78	897.49
685.974	934.49
686.168	960.45
686.362	968.98
686.556	867.45
686.75	853.89
686.944	844.4
687.138	862.61
687.331	755.08
687.525	797.71
687.719	710.13
687.913	747.14
688.107	780.66
688.301	763.99
688.494	782.4
688.688	746.36
688.882	711.1
689.076	712.07
689.269	737.64
689.463	903.3
689.657	790.73
689.85	760.12
690.044	784.34
690.238	759.54
690.431	795.57
690.625	785.89
690.818	820.57
691.012	844.98
691.205	836.65
691.399	789.37
691.593	812.82
691.786	906.4
691.98	912.99
692.173	893.61
692.366	891.09
692.56	884.89
692.753	973.24
692.947	869.97
693.14	947.08
693.333	932.75
693.527	857.57
693.72	929.45
693.914	912.4
694.107	877.92
694.3	915.12
694.493	883.92
694.687	950.57
694.88	851.96
695.073	983.51
695.266	945.15
695.46	926.74
695.653	988.55
695.846	968.2
696.039	896.9
696.232	932.17
696.425	984.28
696.618	987.38
696.812	1023.03
697.005	1055.58
697.198	1096.27
697.391	1067.98
697.584	1046.28
697.777	1095.3
697.97	1069.15
698.163	1098.6
698.356	1073.41
698.549	1163.89
698.742	1122.62
698.935	1067.98
699.127	1107.7
699.32	1103.83
699.513	1082.13
699.706	1135.6
699.899	1147.23
700.092	1094.72
700.285	1151.1
700.477	1099.76
700.67	1139.67
700.863	1150.52
701.056	1273.74
701.248	1220.85
701.441	1210
701.634	1173.58
701.826	1293.31
702.019	1184.62
702.212	1261.92
702.404	1206.9
702.597	1204.77
702.79	1212.13
702.982	1253.4
703.175	1304.55
703.367	1301.84
703.56	1348.14
703.752	1407.43
703.945	1365.77
704.137	1386.7
704.33	1398.9
704.522	1405.3
704.715	1449.28
704.907	1431.26
705.1	1497.71
705.292	1531.23
705.484	1462.84
705.677	1505.46
705.869	1509.34
706.061	1530.85
706.254	1578.7
706.446	1521.93
706.638	1541.7
706.831	1641.28
707.023	1560.49
707.215	1676.16
707.407	1655.42
707.599	1608.54
707.792	1708.9
707.984	1681.77
708.176	1719.56
708.368	1698.44
708.56	1731.95
708.752	1729.24
708.944	1713.55
709.136	1768.57
709.329	1758.11
709.521	1870.1
709.713	1855.76
709.905	1825.34
710.097	1890.25
710.289	1834.45
710.481	1860.22
710.672	1897.61
710.864	1884.63
711.056	1942.95
711.248	1937.13
711.44	1952.83
711.632	1932.48
711.824	1969.1
712.016	2082.44
712.207	2067.14
712.399	2007.66
712.591	2069.46
712.783	2087.48
712.975	2102.4
713.166	2056.29
713.358	2051.83
713.55	2180.48
713.741	2157.81
713.933	2184.16
714.125	2180.87
714.316	2145.8
714.508	2248.49
714.7	2270.57
714.891	2236.86
715.083	2266.12
715.274	2220.39
715.466	2257.01
715.657	2332.96
715.849	2233.76
716.04	2293.24
716.232	2241.32
716.423	2309.13
716.615	2250.23
716.806	2232.02
716.998	2213.42
717.189	2135.53
717.381	2064.04
717.572	2025.68
717.763	2089.42
717.955	2085.35
718.146	2027.42
718.337	1951.66
718.528	1948.18
718.72	1889.67
718.911	1982.08
719.102	1912.53
719.293	1930.55
719.485	1950.7
719.676	1922.6
719.867	1897.22
720.058	1953.41
720.249	1919.7
720.44	1926.28
720.632	1994.09
720.823	2039.63
721.014	2164.79
721.205	2158.2
721.396	2257.78
721.587	2329.67
721.778	2392.44
721.969	2392.25
722.16	2459.28
722.351	2438.16
722.542	2630.75
722.733	2616.6
722.924	2500.55
723.115	2627.65
723.305	2573.21
723.496	2585.41
723.687	2498.42
723.878	2472.07
724.069	2502.29
724.26	2503.46
724.45	2422.28
724.641	2441.46
724.832	2498.81
725.023	2471.1
725.213	2462.58
725.404	2487.38
725.595	2503.46
725.785	2477.3
725.976	2523.8
726.167	2510.82
726.357	2538.14
726.548	2687.13
726.739	2556.35
726.929	2645.67
727.12	2666.2
727.31	2678.99
727.501	2682.48
727.691	2648.38
727.882	2657.1
728.072	2748.35
728.263	2718.32
728.453	2787.49
728.644	2772.96
728.834	2737.5
729.024	2728.59
729.215	2709.99
729.405	2762.11
729.596	2831.08
729.786	2857.43
729.976	2852.59
730.167	2888.24
730.357	2835.15
730.547	2870.8
730.737	2882.62
730.928	2950.82
731.118	3008.17
731.308	2949.08
731.498	2929.51
731.688	3039.75
731.879	3059.12
732.069	3110.08
732.259	3075.79
732.449	3171.3
732.639	3227.88
732.829	3217.03
733.019	3257.33
733.209	3292.4
733.399	3308.48
733.589	3425.5
733.779	3403.8
733.969	3451.85
734.159	3474.32
734.349	3563.45
734.539	3570.81
734.729	3532.25
734.919	3612.66
735.109	3675.82
735.299	3558.8
735.488	3651.41
735.678	3631.84
735.868	3644.43
736.058	3586.89
736.248	3665.16
736.437	3610.92
736.627	3580.88
736.817	3699.26
737.007	3640.95
737.196	3676.4
737.386	3691.32
737.576	3687.64
737.765	3700.81
737.955	3697.13
738.144	3853.1
738.334	3742.66
738.524	3700.81
738.713	3767.85
738.903	3742.08
739.092	3793.04
739.282	3808.93
739.471	3763.39
739.661	3800.79
739.85	3844.77
740.04	3788.78
740.229	3899.02
740.419	3909.67
740.608	3920.72
740.797	3865.69
740.987	3958.89
741.176	3899.79
741.365	3916.45
741.555	3816.09
741.744	3927.69
741.933	3863.95
742.123	3948.81
742.312	3961.21
742.501	4005
742.69	3978.84
742.88	3902.31
743.069	4042.39
743.258	3908.51
743.447	4024.37
743.636	4057.7
743.825	3994.92
744.014	3991.24
744.204	4069.52
744.393	3969.93
744.582	4104
744.771	4071.84
744.96	4039.87
745.149	4103.42
745.338	4084.05
745.527	4099.93
745.716	4049.75
745.905	4023.98
746.094	4136.55
746.283	4080.37
746.471	4072.23
746.66	4154.18
746.849	4170.26
747.038	4160.77
747.227	4067.19
747.416	4153.21
747.604	4119.7
747.793	4104.39
747.982	4094.51
748.171	4164.06
748.359	4111.36
748.548	4136.16
748.737	4092.96
748.926	4141.4
749.114	4011.39
749.303	4136.94
749.491	4111.36
749.68	4032.51
749.869	4141.2
750.057	4077.46
750.246	4045.1
750.434	4098
750.623	4079.2
750.811	4055.57
751	4127.45
751.188	4108.65
751.377	4074.55
751.565	4026.7
751.754	3992.99
751.942	4041.81
752.131	4104
752.319	3986.2
752.507	3996.86
752.696	4084.24
752.884	4048.98
753.072	3993.18
753.261	4090.25
753.449	4002.48
753.637	3994.73
753.825	4114.08
754.014	4021.27
754.202	4040.84
754.39	4112.14
754.578	4071.84
754.766	4014.49
754.955	3982.14
755.143	4094.12
755.331	4027.47
755.519	4027.86
755.707	4020.88
755.895	4003.64
756.083	4016.43
756.271	3976.9
756.459	4037.74
756.647	4026.7
756.835	3997.64
757.023	3999.57
757.211	3980.39
757.399	3932.34
757.587	3955.79
757.775	3873.64
757.963	3917.23
758.151	3939.32
758.339	3874.8
758.526	3879.84
758.714	3908.32
758.902	3817.84
759.09	3784.71
759.278	3600.65
759.465	3391.4
759.653	3048.66
759.841	2801.44
760.028	2458.31
760.216	2166.92
760.404	2044.86
760.591	1771.48
760.779	1543.83
760.967	1383.4
761.154	1206.71
761.342	1252.43
761.529	1253.59
761.717	1347.17
761.905	1372.17
762.092	1476.21
762.28	1458.58
762.467	1459.55
762.655	1412.08
762.842	1423.9
763.029	1475.82
763.217	1478.34
763.404	1484.73
763.592	1566.3
763.779	1528.71
763.966	1539.56
764.154	1592.07
764.341	1683.32
764.528	1679.84
764.716	1720.52
764.903	1764.89
765.09	1842
765.277	1916.6
765.465	2036.91
765.652	2079.92
765.839	2207.99
766.026	2259.72
766.213	2342.45
766.4	2404.84
766.588	2588.12
766.775	2629.2
766.962	2714.06
767.149	2799.5
767.336	2893.66
767.523	2846.78
767.71	2976.78
767.897	3088.19
768.084	3139.53
768.271	3199.2
768.458	3249.38
768.645	3314.09
768.832	3258.1
769.019	3318.16
769.206	3342.58
769.392	3415.23
769.579	3502.03
769.766	3493.5
769.953	3442.74
770.14	3487.69
770.327	3445.65
770.513	3524.89
770.7	3575.46
770.887	3515.98
771.073	3521.4
771.26	3491.76
771.447	3482.85
771.634	3434.8
771.82	3590.96
772.007	3410.97
772.193	3501.84
772.38	3546.2
772.567	3498.93
772.753	3473.16
772.94	3551.63
773.126	3519.27
773.313	3556.47
773.499	3491.76
773.686	3535.55
773.872	3478.2
774.059	3511.33
774.245	3460.96
774.432	3482.46
774.618	3405.16
774.804	3466.96
774.991	3373.58
775.177	3460.57
775.363	3414.84
775.55	3453.79
775.736	3400.31
775.922	3454.76
776.109	3412.32
776.295	3417.94
776.481	3446.04
776.667	3453.21
776.853	3412.91
777.04	3376.09
777.226	3383.65
777.412	3500.09
777.598	3366.99
777.784	3363.69
777.97	3340.83
778.156	3361.18
778.342	3361.56
778.528	3357.49
778.715	3296.27
778.901	3295.69
779.087	3355.94
779.272	3326.88
779.458	3292.2
779.644	3311.38
779.83	3292.59
780.016	3394.31
780.202	3295.11
780.388	3266.24
780.574	3199.59
780.76	3253.06
780.946	3306.34
781.131	3256.16
781.317	3205.79
781.503	3230.01
781.689	3223.23
781.874	3350.33
782.06	3214.12
782.246	3227.3
782.432	3234.08
782.617	3240.47
782.803	3280.96
782.989	3166.07
783.174	3206.76
783.36	3100.59
783.545	3176.53
783.731	3134.68
783.916	3067.45
784.102	3162
784.288	3087.41
784.473	3116.86
784.659	3096.52
784.844	3114.34
785.029	3112.02
785.215	3075.4
785.4	3078.5
785.586	3170.33
785.771	3059.12
785.956	3086.25
786.142	3045.56
786.327	3059.7
786.512	3043.62
786.698	3023.47
786.883	2964.77
787.068	3078.69
787.254	3017.27
787.439	2996.54
787.624	2967.29
787.809	2962.25
787.994	2990.34
788.18	3036.84
788.365	2942.88
788.55	2957.79
788.735	2957.99
788.92	2921.76
789.105	2917.11
789.29	2959.34
789.475	2861.31
789.66	2932.61
789.845	2863.83
790.03	2876.61
790.215	2914.2
790.4	2925.24
790.585	2899.09
790.77	2873.9
790.955	2832.83
791.14	2855.88
791.325	2906.84
791.51	2779.74
791.695	2871.38
791.879	2822.75
792.064	2777.41
792.249	2894.24
792.434	2844.84
792.618	2820.04
792.803	2897.34
792.988	2841.16
793.173	2801.44
793.357	2882.62
793.542	2806.48
793.727	2826.24
793.911	2861.7
794.096	2805.9
794.281	2856.66
794.465	2899.28
794.65	2842.9
794.834	2888.24
795.019	2874.87
795.203	2883.39
795.388	2905.29
795.572	2921.95
795.757	2894.05
795.941	2932.8
796.126	2894.83
796.31	2839.8
796.494	2843.68
796.679	2883.98
796.863	2812.68
797.048	2908.97
797.232	2889.79
797.416	2914.98
797.601	2882.62
797.785	2978.14
797.969	2923.89
798.153	2864.79
798.338	2871.77
798.522	2920.79
798.706	2954.69
798.89	2961.67
799.074	3050.6
799.258	2949.66
799.443	2929.7
799.627	2928.73
799.811	2975.62
799.995	2911.49
800.179	2896.38
800.363	2880.88
800.547	2914.98
800.731	2948.3
800.915	2868.86
801.099	2851.23
801.283	2858.79
801.467	2909.55
801.651	2904.51
801.835	2954.5
802.019	2916.14
802.202	2916.91
802.386	2875.26
802.57	2869.25
802.754	2866.15
802.938	2838.25
803.121	2860.34
803.305	2958.76
803.489	2856.27
803.673	2901.22
803.856	2900.25
804.04	2901.8
804.224	2926.41
804.407	2889.59
804.591	2838.25
804.775	2855.3
804.958	2866.15
805.142	2999.64
805.326	2904.9
805.509	2858.79
805.693	2927.57
805.876	2902.19
806.06	2890.56
806.243	2954.11
806.427	2923.31
806.61	2905.68
806.794	2922.34
806.977	2928.34
807.16	2908.39
807.344	2899.48
807.527	2888.04
807.71	2876.42
807.894	2880.1
808.077	2900.06
808.26	2832.44
808.444	2875.26
808.627	2890.56
808.81	2807.06
808.993	2783.03
809.177	2771.41
809.36	2806.09
809.543	2847.16
809.726	2713.87
809.909	2694.1
810.092	2689.07
810.276	2758.62
810.459	2716.77
810.642	2732.08
810.825	2656.13
811.008	2700.69
811.191	2622.42
811.374	2635.2
811.557	2619.7
811.74	2693.52
811.923	2597.23
812.106	2571.66
812.289	2526.12
812.472	2584.25
812.654	2544.72
812.837	2552.09
813.02	2469.74
813.203	2459.09
813.386	2339.74
813.569	2357.56
813.751	2315.72
813.934	2329.86
814.117	2327.15
814.3	2255.65
814.482	2216.13
814.665	2171.76
814.848	2155.29
815.03	2097.56
815.213	2118.29
815.396	2031.49
815.578	2087.29
815.761	2025.48
815.943	2084.19
816.126	2005.14
816.309	2007.46
816.491	1907.68
816.674	1867
816.856	1883.08
817.039	1869.32
817.221	1982.28
817.403	1913.3
817.586	1911.56
817.768	1947.4
817.951	1866.22
818.133	1829.8
818.315	1868.74
818.498	1923.57
818.68	1980.73
818.862	1940.81
819.045	1961.74
819.227	1940.81
819.409	1901.1
819.591	1927.45
819.774	1911.17
819.956	1867.19
820.138	1979.18
820.32	1949.53
820.502	1984.41
820.684	2070.04
820.866	2060.94
821.048	2115.57
821.231	2106.86
821.413	2131.85
821.595	2059.39
821.777	2085.74
821.959	2095.23
822.141	2184.55
822.323	2026.84
822.505	1986.54
822.686	1928.22
822.868	1862.15
823.05	1731.37
823.232	1690.11
823.414	1653.87
823.596	1741.45
823.778	1701.54
823.96	1749.97
824.141	1753.46
824.323	1740.48
824.505	1833.67
824.687	1901.1
824.868	1894.51
825.05	2004.94
825.232	2017.54
825.413	2084.96
825.595	2079.92
825.777	1968.91
825.958	2025.09
826.14	2030.33
826.321	2071.01
826.503	2040.21
826.685	2043.69
826.866	2085.35
827.048	2054.93
827.229	2015.79
827.411	2005.72
827.592	1914.08
827.773	1972.4
827.955	1846.27
828.136	1899.74
828.318	1870.1
828.499	1922.6
828.68	1813.72
828.862	1863.51
829.043	1853.24
829.224	1857.31
829.406	1801.9
829.587	1795.7
829.768	1822.05
829.949	1815.85
830.131	1814.88
830.312	1884.43
830.493	1841.23
830.674	1846.46
830.855	1840.84
831.036	1833.48
831.218	1893.54
831.399	1914.66
831.58	1851.88
831.761	1852.47
831.942	1863.51
832.123	1854.02
832.304	1789.3
832.485	1792.4
832.666	1846.65
832.847	1853.24
833.028	1823.79
833.209	1834.83
833.389	1825.73
833.57	1744.94
833.751	1820.3
833.932	1871.07
834.113	1802.67
834.294	1793.18
834.475	1841.03
834.655	1861.57
834.836	1876.68
835.017	1831.54
835.198	1794.92
835.378	1824.76
835.559	1915.05
835.74	1827.67
835.92	1816.43
836.101	1826.7
836.281	1853.63
836.462	1837.55
836.643	1878.43
836.823	1848.59
837.004	1903.61
837.184	1911.95
837.365	1880.37
837.545	1910.4
837.726	1836
837.906	1936.94
838.087	1848.2
838.267	1879.98
838.448	1855.76
838.628	1847.04
838.808	1859.25
838.989	1928.22
839.169	1831.93
839.349	1866.42
839.53	1892.18
839.71	1877.07
839.89	1875.13
840.07	1929.96
840.251	1852.85
840.431	1906.91
840.611	1825.15
840.791	1804.03
840.971	1858.86
841.151	1817.4
841.332	1797.44
841.512	1893.35
841.692	1790.08
841.872	1843.17
842.052	1832.12
842.232	1830.18
842.412	1751.14
842.592	1815.27
842.772	1823.98
842.952	1797.44
843.132	1785.04
843.312	1767.02
843.492	1786.98
843.672	1829.8
843.851	1709.67
844.031	1798.8
844.211	1767.41
844.391	1771.09
844.571	1798.41
844.751	1799.38
844.93	1774.58
845.11	1773.42
845.29	1738.15
845.47	1833.87
845.649	1755.79
845.829	1815.27
846.009	1733.5
846.188	1771.29
846.368	1723.24
846.547	1784.85
846.727	1785.04
846.907	1707.74
847.086	1742.42
847.266	1800.54
847.445	1747.07
847.625	1730.99
847.804	1723.04
847.984	1721.3
848.163	1724.98
848.343	1744.16
848.522	1752.88
848.701	1735.64
848.881	1669.57
849.06	1720.14
849.239	1714.91
849.419	1728.08
849.598	1646.51
849.777	1638.96
849.957	1621.91
850.136	1559.91
850.315	1578.7
850.494	1543.44
850.674	1567.08
850.853	1611.06
851.032	1627.14
851.211	1664.53
851.39	1651.94
851.569	1544.6
851.748	1604.08
851.927	1634.5
852.107	1578.31
852.286	1568.63
852.465	1583.74
852.644	1641.86
852.823	1643.8
853.002	1576.38
853.181	1579.09
853.359	1610.28
853.538	1539.76
853.717	1595.17
853.896	1491.71
854.075	1433.39
854.254	1410.14
854.433	1347.37
854.611	1399.68
854.79	1303.58
854.969	1386.31
855.148	1439.98
855.327	1374.49
855.505	1432.03
855.684	1428.16
855.863	1477.76
856.041	1412.66
856.22	1486.86
856.399	1458.38
856.577	1530.07
856.756	1499.07
856.934	1623.46
857.113	1616.48
857.291	1528.71
857.47	1482.6
857.648	1505.85
857.827	1528.13
858.005	1573.28
858.184	1502.36
858.362	1569.4
858.541	1494.03
858.719	1507.21
858.898	1487.25
859.076	1494.03
859.254	1536.66
859.433	1517.28
859.611	1467.88
859.789	1440.75
859.967	1546.73
860.146	1559.33
860.324	1434.36
860.502	1456.83
860.68	1437.27
860.859	1444.05
861.037	1459.16
861.215	1433
861.393	1478.34
861.571	1461.68
861.749	1466.71
861.927	1477.76
862.105	1499.85
862.283	1453.54
862.461	1402
862.639	1426.42
862.817	1441.72
862.995	1423.51
863.173	1400.26
863.351	1426.03
863.529	1441.92
863.707	1476.4
863.885	1440.95
864.063	1362.67
864.241	1388.83
864.418	1471.56
864.596	1390.57
864.774	1387.47
864.952	1355.31
865.129	1418.86
865.307	1348.92
865.485	1328.38
865.663	1419.25
865.84	1286.92
866.018	1312.49
866.196	1187.53
866.373	1231.12
866.551	1183.46
866.728	1148.19
866.906	1185.01
867.084	1242.74
867.261	1228.41
867.439	1221.82
867.616	1299.32
867.794	1263.67
867.971	1357.83
868.149	1294.47
868.326	1313.46
868.503	1323.15
868.681	1292.34
868.858	1277.04
869.035	1242.16
869.213	1294.67
869.39	1282.27
869.567	1390.96
869.745	1261.54
869.922	1286.34
870.099	1318.89
870.276	1309.97
870.454	1308.04
870.631	1290.79
870.808	1258.05
870.985	1310.36
871.162	1347.95
871.339	1285.95
871.517	1204.96
871.694	1261.15
871.871	1256.5
872.048	1248.17
872.225	1247.39
872.402	1251.27
872.579	1211.36
872.756	1274.32
872.933	1227.05
873.11	1238.29
873.287	1298.54
873.463	1220.07
873.64	1210.97
873.817	1248.56
873.994	1220.46
874.171	1188.69
874.348	1231.7
874.524	1172.22
874.701	1210.39
874.878	1142.58
875.055	1241.97
875.231	1190.63
875.408	1211.16
875.585	1148
875.762	1181.33
875.938	1171.83
876.115	1166.79
876.291	1169.89
876.468	1169.7
876.645	1094.72
876.821	1140.06
876.998	1140.06
877.174	1180.36
877.351	1165.44
877.527	1165.63
877.704	1169.7
877.88	1148.39
878.057	1138.89
878.233	1163.69
878.409	1152.07
878.586	1161.95
878.762	1127.85
878.938	1156.53
879.115	1066.24
879.291	1129.01
879.467	1098.21
879.644	1085.23
879.82	1148.97
879.996	1081.16
880.172	1071.86
880.349	1107.12
880.525	1133.66
880.701	1049.96
880.877	1068.37
881.053	1095.3
881.229	1082.71
881.405	1153.43
881.581	1060.62
881.757	1070.89
881.933	1093.75
882.109	1126.11
882.285	1056.75
882.461	1038.53
882.637	1080.77
882.813	1064.88
882.989	1061.98
883.165	1124.75
883.341	1013.35
883.517	1101.89
883.693	1079.22
883.869	1134.05
884.044	1040.86
884.22	1073.99
884.396	1141.61
884.572	1109.83
884.747	1115.84
884.923	1089.1
885.099	1095.5
885.275	1118.36
885.45	1032.33
885.626	1063.72
885.801	1066.24
885.977	1068.56
886.153	996.3
886.328	1089.3
886.504	1051.9
886.679	1072.83
886.855	1040.47
887.03	1079.61
887.206	1121.65
887.381	1093.36
887.557	1104.8
887.732	1079.61
887.908	1092.01
888.083	1090.46
888.258	1072.25
888.434	1039.5
888.609	1063.91
888.784	1126.88
888.96	1080.96
889.135	1043.96
889.31	1051.71
889.485	1083.68
889.661	1064.88
889.836	1085.42
890.011	1099.56
890.186	1055.97
890.361	1059.65
890.537	1076.51
890.712	1092.98
890.887	1045.12
891.062	1068.56
891.237	1095.88
891.412	1036.01
891.587	1112.93
891.762	1091.23
891.937	1096.08
892.112	1015.87
892.287	1019.55
892.462	996.3
892.637	1027.49
892.812	1028.26
892.987	1033.11
893.161	1001.53
893.336	994.17
893.511	996.49
893.686	1006.57
893.861	972.85
894.035	982.54
894.21	998.23
894.385	921.12
894.56	989.71
894.734	932.75
894.909	946.7
895.084	943.6
895.258	903.69
895.433	928.87
895.608	906.2
895.782	858.15
895.957	896.71
896.131	859.7
896.306	805.65
896.48	834.52
896.655	828.51
896.829	760.12
897.004	745.01
897.178	751.98
897.353	736.68
897.527	809.72
897.701	777.17
897.876	717.49
898.05	788.99
898.224	790.92
898.399	820.76
898.573	772.91
898.747	684.56
898.921	736.87
899.096	641.55
899.27	624.5
899.444	631.28
899.618	661.5
899.792	692.31
899.967	698.89
900.141	730.48
900.315	652.59
900.489	690.56
900.663	676.23
900.837	674.87
901.011	637.48
901.185	733.96
901.359	696.96
901.533	686.11
901.707	713.81
901.881	683.2
902.055	628.56
902.229	678.94
902.403	749.08
902.576	688.24
902.75	690.18
902.924	808.56
903.098	729.51
903.272	760.7
903.446	812.62
903.619	785.31
903.793	810.3
903.967	772.91
904.14	826.96
904.314	826.57
904.488	817.08
904.661	873.07
904.835	800.42
905.009	850.79
905.182	914.73
905.356	840.52
905.529	828.71
905.703	800.61
905.876	772.71
906.05	749.66
906.223	776.01
906.397	714.78
906.57	678.36
906.744	649.1
906.917	665.38
907.09	706.26
907.264	670.03
907.437	666.73
907.61	615.97
907.784	656.46
907.957	670.41
908.13	593.5
908.304	655.5
908.477	613.65
908.65	628.56
908.823	583.42
908.996	648.33
909.17	590.59
909.343	588.85
909.516	593.69
909.689	595.05
909.862	582.65
910.035	599.11
910.208	570.83
910.381	562.11
910.554	669.25
910.727	595.24
910.9	581.48
911.073	576.06
911.246	611.51
911.419	639.61
911.592	628.76
911.765	597.56
911.938	578.38
912.11	597.56
912.283	605.31
912.456	654.91
912.629	590.4
912.802	602.6
912.974	528.78
913.147	506.7
913.32	459.04
913.493	493.72
913.665	516
913.838	542.35
914.01	510.77
914.183	528.78
914.356	528.01
914.528	568.31
914.701	591.56
914.873	577.42
915.046	521.03
915.218	515.22
915.391	460.97
915.563	471.44
915.736	529.56
915.908	558.04
916.081	512.9
916.253	525.1
916.425	502.63
916.598	542.35
916.77	547.19
916.942	505.92
917.115	440.63
917.287	516.19
917.459	468.34
917.632	485.39
917.804	416.41
917.976	494.69
918.148	490.42
918.32	491.39
918.493	524.13
918.665	592.91
918.837	559.4
919.009	559.4
919.181	577.03
919.353	509.8
919.525	523.75
919.697	517.74
919.869	530.33
920.041	585.94
920.213	627.21
920.385	566.37
920.557	539.25
920.729	573.15
920.901	547.97
921.073	544.28
921.244	512.51
921.416	549.52
921.588	534.79
921.76	517.93
921.932	586.52
922.103	513.09
922.275	516.77
922.447	551.84
922.619	451.87
922.79	515.61
922.962	513.67
923.134	519.1
923.305	457.49
923.477	464.46
923.648	445.47
923.82	491.39
923.991	420.09
924.163	429.59
924.335	470.47
924.506	467.75
924.677	529.75
924.849	487.32
925.02	447.22
925.192	486.16
925.363	456.52
925.535	471.05
925.706	425.9
925.877	504.76
926.049	435.01
926.22	469.3
926.391	475.31
926.562	469.11
926.734	409.24
926.905	479.77
927.076	410.99
927.247	407.89
927.419	409.05
927.59	411.96
927.761	412.34
927.932	381.15
928.103	388.9
928.274	355.96
928.445	339.11
928.616	370.49
928.787	351.31
928.958	369.33
929.129	368.17
929.3	351.89
929.471	293.38
929.642	260.83
929.813	234.29
929.984	305.59
930.155	217.63
930.326	281.18
930.496	261.8
930.667	167.06
930.838	252.89
931.009	191.47
931.18	202.32
931.35	233.71
931.521	222.47
931.692	144.39
931.863	127.92
932.033	190.31
932.204	172.87
932.374	168.61
932.545	123.08
932.716	199.03
932.886	181.2
933.057	103.12
933.227	130.05
933.398	181.59
933.568	91.5
933.739	55.46
933.909	86.85
934.08	135.87
934.25	32.4
934.421	41.51
934.591	101.38
934.761	62.44
934.932	40.15
935.102	101.57
935.272	81.62
935.443	78.71
935.613	98.67
935.783	117.27
935.953	43.45
936.123	228.48
936.294	58.95
936.464	87.62
936.634	84.52
936.804	58.95
936.974	28.92
937.144	95.18
937.314	91.3
937.484	31.44
937.655	46.94
937.825	102.35
937.995	71.35
938.165	96.73
938.334	86.27
938.504	111.26
938.674	77.16
938.844	90.33
939.014	139.55
939.184	125.6
939.354	203.48
939.524	174.23
939.694	122.3
939.863	114.94
940.033	188.76
940.203	178.88
940.373	139.16
940.542	170.74
940.712	119.78
940.882	173.65
941.051	188.37
941.221	151.95
941.391	152.72
941.56	107.77
941.73	125.02
941.899	240.68
942.069	124.43
942.238	164.54
942.408	120.56
942.577	131.02
942.747	112.62
942.916	73.87
943.086	82.39
943.255	179.85
943.425	139.93
943.594	97.31
943.763	60.11
943.933	71.15
944.102	38.41
944.271	94.98
944.441	123.27
944.61	82.39
944.779	93.43
944.948	192.83
945.117	51.39
945.287	91.3
945.456	32.99
945.625	74.64
945.794	114.17
945.963	76.19
946.132	107.97
946.301	99.83
946.47	132.38
946.639	74.83
946.808	61.27
946.977	129.86
947.146	142.26
947.315	75.22
947.484	119.98
947.653	108.16
947.822	96.34
947.991	67.28
948.16	177.52
948.329	142.65
948.498	104.87
948.666	77.93
948.835	125.02
949.004	43.84
949.173	70.96
949.341	107.97
949.51	147.49
949.679	132.57
949.847	122.3
950.016	164.54
950.185	165.31
950.353	100.8
950.522	91.11
950.69	170.93
950.859	78.52
951.028	143.23
951.196	129.47
951.365	69.99
951.533	88.78
951.701	139.35
951.87	110.29
952.038	58.17
952.207	104.87
952.375	142.84
952.543	77.55
952.712	93.82
952.88	47.13
953.048	170.74
953.217	98.47
953.385	85.1
953.553	142.45
953.721	44.03
953.89	93.82
954.058	30.66
954.226	76.77
954.394	116.68
954.562	44.61
954.73	96.53
954.898	76.19
955.067	121.53
955.235	71.73
955.403	141.87
955.571	160.28
955.739	94.4
955.907	59.53
956.075	57.2
956.243	60.69
956.41	109.71
956.578	35.12
956.746	62.82
956.914	82.39
957.082	121.92
957.25	100.99
957.418	63.21
957.585	89.17
957.753	126.37
957.921	78.71
958.089	80.07
958.256	132.38
958.424	106.42
958.592	104.28
958.759	77.93
958.927	99.44
959.095	65.92
959.262	95.95
959.43	103.9
959.597	69.41
959.765	69.22
959.932	64.95
960.1	112.81
960.267	127.34
960.435	105.83
960.602	131.8
960.77	96.34
960.937	58.56
961.104	105.45
961.272	56.62
961.439	91.5
961.606	108.35
961.774	129.47
961.941	95.37
962.108	143.03
962.275	107
962.443	132.18
962.61	123.08
962.777	168.03
962.944	134.12
963.111	112.03
963.278	119.2
963.446	132.38
963.613	92.66
963.78	135.87
963.947	116.49
964.114	109.32
964.281	181.59
964.448	141.68
964.615	90.53
964.782	122.69
964.949	136.83
965.116	157.95
965.282	170.93
965.449	107.19
965.616	104.87
965.783	173.26
965.95	130.05
966.117	57.2
966.283	109.32
966.45	107
966.617	127.73
966.784	145.75
966.95	151.75
967.117	133.35
967.284	82.78
967.45	102.15
967.617	173.45
967.784	131.99
967.95	169.96
968.117	122.69
968.283	187.6
968.45	221.5
968.616	122.5
968.783	181.98
968.949	134.9
969.116	149.23
969.282	94.02
969.449	150.59
969.615	118.82
969.781	57.59
969.948	112.62
970.114	74.06
970.28	153.3
970.447	111.07
970.613	182.56
970.779	132.96
970.945	150.01
971.112	145.55
971.278	144.2
971.444	145.17
971.61	156.79
971.776	123.47
971.942	138.77
972.108	154.08
972.275	106.22
972.441	139.55
972.607	194.96
972.773	84.33
972.939	125.79
973.105	105.45
973.271	85.68
973.437	108.74
973.602	82.39
973.768	133.73
973.934	100.6
974.1	131.22
974.266	55.65
974.432	139.16
974.598	105.06
974.763	146.13
974.929	93.63
975.095	194.18
975.261	83.55
975.426	74.45
975.592	106.61
975.758	171.51
975.923	55.85
976.089	85.1
976.255	144.58
976.42	103.51
976.586	96.53
976.751	129.28
976.917	198.83
977.082	117.27
977.248	74.06
977.413	59.53
977.579	90.92
977.744	111.84
977.91	86.46
978.075	91.88
978.24	154.27
978.406	70.18
978.571	96.15
978.736	47.52
978.902	88.4
979.067	50.81
979.232	33.57
979.397	130.44
979.563	140.13
979.728	57.79
979.893	87.62
980.058	80.07
980.223	151.95
980.388	91.88
980.554	96.73
980.719	77.93
980.884	117.07
981.049	138.77
981.214	89.75
981.379	122.11
981.544	89.17
981.709	117.85
981.874	110.48
982.039	75.42
982.204	117.65
982.368	93.82
982.533	63.02
982.698	141.29
982.863	137.42
983.028	94.21
983.193	128.31
983.357	107
983.522	118.62
983.687	75.03
983.852	66.12
984.016	107.97
984.181	120.75
984.346	147.88
984.51	145.94
984.675	86.85
984.839	115.52
985.004	117.27
985.168	127.34
985.333	124.43
985.498	73.09
985.662	102.35
985.827	117.07
985.991	80.45
986.155	78.13
986.32	119.98
986.484	122.5
986.649	129.08
986.813	42.29
986.977	93.82
987.142	105.25
987.306	67.08
987.47	86.46
987.634	105.06
987.799	95.57
987.963	94.79
988.127	142.84
988.291	154.27
988.455	98.47
988.62	88.2
988.784	120.56
988.948	128.12
989.112	59.53
989.276	112.81
989.44	94.4
989.604	71.93
989.768	101.57
989.932	163.57
990.096	55.07
990.26	71.73
990.424	41.9
990.588	96.73
990.752	162.41
990.915	134.7
991.079	82.39
991.243	68.63
991.407	117.46
991.571	93.43
991.734	109.71
991.898	115.52
992.062	182.56
992.226	68.83
992.389	89.37
992.553	29.11
992.717	50.23
992.88	81.23
993.044	82
993.207	89.75
993.371	99.44
993.535	107.38
993.698	98.08
993.862	131.6
994.025	131.6
994.189	85.68
994.352	97.12
994.515	101.18
994.679	104.87
994.842	70.77
995.006	107.77
995.169	38.41
995.332	52.94
995.496	94.4
995.659	28.53
995.822	51.97
995.985	70.57
996.149	130.44
996.312	69.99
996.475	130.05
996.638	57.79
996.801	130.05
996.964	144.39
997.128	88.78
997.291	54.3
997.454	90.14
997.617	26.79
997.78	122.3
997.943	32.02
998.106	113.58
998.269	48.1
998.432	45.58
998.595	72.7
998.758	25.62
998.92	43.25
999.083	-4.6
999.246	83.75
999.409	37.64
999.572	-17
999.735	36.28
999.897	107.38
1000.06	76.77
1000.223	71.35
1000.386	104.09
1000.548	114.17
1000.711	60.3
1000.874	79.1
1001.036	4.12
1001.199	96.73
1001.361	25.62
1001.524	58.75
1001.687	106.03
1001.849	42.29
1002.012	79.29
1002.174	68.25
1002.337	90.14
1002.499	73.87
1002.661	93.05
1002.824	30.08
1002.986	33.37
1003.149	80.45
1003.311	27.17
1003.473	113.39
1003.636	35.89
1003.798	55.85
1003.96	104.28
1004.123	86.46
1004.285	13.61
1004.447	61.66
1004.609	50.23
1004.771	100.99
1004.933	20.78
1005.096	2.18
1005.258	27.75
1005.42	42.48
1005.582	61.85
1005.744	50.42
1005.906	37.64
1006.068	54.1
1006.23	4.5
1006.392	-10.22
1006.554	10.9
1006.716	102.73
1006.878	53.52
1007.04	8.19
1007.202	16.52
1007.363	43.25
1007.525	71.35
1007.687	62.82
1007.849	92.08
1008.011	15.74
1008.172	20.2
1008.334	18.65
1008.496	92.66
1008.658	-17.58
1008.819	17.68
1008.981	6.83
1009.143	9.15
1009.304	29.89
1009.466	45.39
1009.627	128.5
1009.789	148.85
1009.95	55.46
1010.112	29.5
1010.273	64.76
1010.435	26.4
1010.596	61.85
1010.758	46.94
1010.919	28.72
1011.081	17.68
1011.242	49.65
1011.403	60.3
1011.565	21.75
1011.726	68.05
1011.887	-2.66
1012.049	26.79
1012.21	96.15
1012.371	95.37
1012.532	-34.83
1012.693	37.44
1012.855	10.9
1013.016	22.14
1013.177	58.37
1013.338	32.02
1013.499	79.68
1013.66	64.37
1013.821	67.28
1013.982	9.93
1014.143	67.08
1014.304	7.22
1014.465	54.49
1014.626	62.63
1014.787	25.04
1014.948	133.73
1015.109	-17.39
1015.27	58.17
1015.431	-1.89
1015.592	8.38
1015.752	95.76
1015.913	20
1016.074	37.44
1016.235	45.77
1016.395	38.22
1016.556	20.39
1016.717	11.87
1016.877	76.38
1017.038	21.36
1017.199	43.06
1017.359	49.84
1017.52	33.95
1017.681	14.97
1017.841	26.59
1018.002	36.28
1018.162	5.09
1018.323	97.89
1018.483	5.09
1018.644	3.54
1018.804	7.02
1018.964	-15.26
1019.125	33.37
1019.285	33.57
1019.446	-6.93
1019.606	12.25
1019.766	-9.06
1019.926	36.28
1020.087	36.67
1020.247	-13.51
1020.407	57.01
1020.567	75.61
1020.728	13.61
1020.888	0.44
1021.048	0.44
1021.208	-18.16
1021.368	7.22
1021.528	78.52
1021.688	62.05
1021.848	50.23
1022.008	30.27
1022.168	17.29
1022.328	41.12
1022.488	30.27
1022.648	2.95
1022.808	22.14
1022.968	32.99
1023.128	-5.76
1023.288	-8.28
1023.448	35.31
1023.608	41.32
1023.767	44.22
1023.927	-1.11
1024.087	-8.48
1024.247	-13.71
1024.406	19.62
1024.566	-3.63
1024.726	-7.9
1024.885	38.41
1025.045	55.46
1025.205	19.23
1025.364	-1.31
1025.524	34.15
1025.683	34.15
1025.843	44.22
1026.003	24.27
1026.162	51.39
1026.321	31.24
1026.481	33.57
1026.64	11.29
1026.8	27.95
1026.959	22.33
1027.119	11.67
1027.278	0.05
1027.437	-4.8
1027.597	24.46
1027.756	46.16
1027.915	10.51
1028.074	44.61
1028.234	4.12
1028.393	38.8
1028.552	3.54
1028.711	-55.56
1028.87	44.22
1029.03	-15.26
1029.189	32.6
1029.348	-57.3
1029.507	4.7
1029.666	27.95
1029.825	-18.94
1029.984	-10.22
1030.143	5.47
1030.302	-4.6
1030.461	-58.27
1030.62	2.57
1030.779	53.72
1030.938	-17.97
1031.097	-34.63
1031.255	35.5
1031.414	65.92
1031.573	73.87
1031.732	-58.08
1031.891	21.55
1032.049	54.49
1032.208	35.5
1032.367	10.7
1032.525	-1.89
1032.684	15.94
1032.843	-0.92
1033.001	-41.41
1033.16	148.65
1033.319	69.6
1033.477	52.36
1033.636	-29.21
1033.794	-45.87
1033.953	58.75
1034.111	18.26
1034.27	-3.44
1034.428	26.2
1034.587	-24.94
1034.745	15.74
1034.903	14.77
1035.062	21.17
1035.22	-30.56
1035.378	59.72
1035.537	8.77
1035.695	63.21
1035.853	-1.7
1036.011	53.14
1036.17	24.07
1036.328	-57.11
1036.486	-0.15
1036.644	13.61
1036.802	-69.89
1036.96	3.34
1037.119	-2.86
1037.277	-2.47
1037.435	-51.88
1037.593	-15.84
1037.751	16.71
1037.909	29.69
1038.067	29.69
