Data from gum_old_FLMT105791__2__15-42-24-260.txt Node

Date: Mon Mar 20 15:42:24 GMT 2023
User: antho
Spectrometer: FLMT10579
Trigger mode: 0
Integration Time (sec): 1.000000E-1
Scans to average: 10
Electric dark correction enabled: true
Nonlinearity correction enabled: false
Boxcar width: 0
XAxis mode: Wavelengths
Number of Pixels in Spectrum: 3648
>>>>>Begin Spectral Data<<<<<
345.248	-159.2
345.464	-159.2
345.681	-159.2
345.898	-154.16
346.114	-138.46
346.331	-10.2
346.548	13.43
346.764	2.2
346.981	-28.61
347.197	-7.69
347.414	9.56
347.631	-18.73
347.847	53.54
348.064	20.02
348.28	24.67
348.497	-34.81
348.713	-23.38
348.93	33.2
349.146	47.92
349.363	13.24
349.579	32.81
349.796	16.15
350.012	0.06
350.229	59.74
350.445	38.43
350.661	10.33
350.878	25.25
351.094	59.16
351.311	53.35
351.527	32.61
351.743	6.07
351.96	66.13
352.176	57.41
352.392	54.9
352.609	66.71
352.825	20.6
353.041	26.03
353.257	25.64
353.474	17.89
353.69	46.56
353.906	56.06
354.122	8.78
354.339	103.53
354.555	35.71
354.771	44.24
354.987	82.41
355.203	68.46
355.42	38.23
355.636	29.9
355.852	37.07
356.068	33.78
356.284	10.14
356.5	65.16
356.716	33.78
356.932	39.59
357.148	65.94
357.364	38.23
357.58	90.74
357.796	71.17
358.012	57.41
358.228	53.93
358.444	-42.17
358.66	70.78
358.876	43.66
359.092	29.13
359.308	32.81
359.524	35.52
359.74	42.5
359.956	36.68
360.172	44.05
360.388	78.53
360.604	31.84
360.819	147.51
361.035	71.36
361.251	82.02
361.467	26.03
361.683	96.16
361.898	56.25
362.114	88.99
362.33	61.68
362.546	86.28
362.762	92.48
362.977	65.94
363.193	28.16
363.409	111.47
363.624	36.3
363.84	33
364.056	29.9
364.271	78.73
364.487	78.14
364.703	64.39
364.918	8.98
365.134	37.26
365.35	66.13
365.565	168.62
365.781	77.37
365.996	68.46
366.212	122.32
366.427	95.39
366.643	48.31
366.858	53.35
367.074	44.24
367.289	102.94
367.505	177.54
367.72	39.59
367.936	89.19
368.151	98.1
368.367	83.96
368.582	100.23
368.798	73.88
369.013	126.58
369.228	56.06
369.444	102.36
369.659	112.05
369.874	82.79
370.09	117.67
370.305	33
370.52	84.73
370.736	137.63
370.951	59.93
371.166	143.63
371.381	163.97
371.597	120.96
371.812	68.65
372.027	38.43
372.242	71.94
372.458	183.74
372.673	48.7
372.888	56.64
373.103	99.84
373.318	162.23
373.533	116.12
373.749	91.9
373.964	38.43
374.179	119.22
374.394	37.85
374.609	124.06
374.824	48.31
375.039	116.7
375.254	65.16
375.469	149.44
375.684	92.09
375.899	123.29
376.114	96.55
376.329	94.03
376.544	137.43
376.759	118.64
376.974	73.11
377.189	82.99
377.404	82.41
377.619	141.69
377.834	56.06
378.049	91.13
378.264	96.74
378.478	114.57
378.693	116.51
378.908	137.63
379.123	102.17
379.338	144.99
379.553	124.45
379.767	105.27
379.982	136.08
380.197	159.71
380.412	119.22
380.626	115.54
380.841	180.83
381.056	139.95
381.271	178.89
381.485	86.09
381.7	89.58
381.915	126.58
382.129	78.53
382.344	113.99
382.559	100.23
382.773	139.76
382.988	27.19
383.202	96.55
383.417	73.49
383.632	168.43
383.846	109.34
384.061	78.92
384.275	81.83
384.49	106.24
384.704	141.5
384.919	130.65
385.133	131.43
385.348	161.26
385.562	75.43
385.777	171.14
385.991	136.66
386.206	114.18
386.42	84.15
386.634	151.57
386.849	130.46
387.063	169.4
387.277	131.43
387.492	102.75
387.706	101.98
387.92	101.01
388.135	168.62
388.349	128.91
388.563	130.65
388.778	131.04
388.992	141.31
389.206	138.79
389.42	223.07
389.635	134.91
389.849	159.32
390.063	176.76
390.277	206.41
390.491	220.36
390.706	183.16
390.92	200.4
391.134	165.33
391.348	197.88
391.562	150.8
391.776	201.56
391.99	147.7
392.205	190.91
392.419	126
392.633	198.27
392.847	212.8
393.061	135.88
393.275	189.36
393.489	126.39
393.703	110.5
393.917	141.5
394.131	105.27
394.345	162.23
394.559	179.47
394.773	158.36
394.986	173.47
395.2	157.97
395.414	200.98
395.628	194.01
395.842	205.44
396.056	200.01
396.27	162.42
396.484	220.74
396.697	206.41
396.911	183.93
397.125	179.47
397.339	190.13
397.553	126.58
397.766	208.34
397.98	210.47
398.194	230.24
398.408	210.28
398.621	278.87
398.835	303.67
399.049	272.28
399.262	327.88
399.476	302.7
399.69	302.31
399.903	354.04
400.117	301.15
400.331	326.72
400.544	248.64
400.758	383.1
400.971	314.9
401.185	330.79
401.398	280.8
401.612	354.43
401.826	333.5
402.039	368.57
402.253	323.62
402.466	356.37
402.68	323.43
402.893	379.62
403.106	342.61
403.32	330.02
403.533	369.54
403.747	325.95
403.96	355.98
404.174	362.57
404.387	317.23
404.6	350.94
404.814	378.65
405.027	320.14
405.24	347.26
405.454	338.93
405.667	398.99
405.88	297.27
406.094	360.05
406.307	377.48
406.52	370.9
406.733	312.19
406.947	307.54
407.16	424.37
407.373	391.63
407.586	347.07
407.799	326.14
408.012	394.15
408.226	398.41
408.439	425.53
408.652	343.77
408.865	413.52
409.078	441.61
409.291	389.88
409.504	368.38
409.717	418.36
409.93	433.09
410.143	389.69
410.357	334.28
410.57	318.2
410.783	370.32
410.996	370.7
411.209	348.03
411.421	428.44
411.634	397.83
411.847	376.32
412.06	420.88
412.273	411.2
412.486	436.58
412.699	503.23
412.912	436.19
413.125	448.98
413.338	448.78
413.55	467.77
413.763	416.43
413.976	437.55
414.189	403.64
414.402	423.98
414.615	507.49
414.827	432.51
415.04	449.17
415.253	458.66
415.466	472.81
415.678	498.77
415.891	430.18
416.104	440.65
416.316	473.2
416.529	437.55
416.742	510.59
416.954	506.71
417.167	485.79
417.38	472.61
417.592	502.84
417.805	438.71
418.017	412.16
418.23	480.75
418.442	437.55
418.655	429.02
418.868	499.35
419.08	515.63
419.293	500.51
419.505	489.28
419.718	495.28
419.93	498.38
420.142	451.88
420.355	517.76
420.567	510.98
420.78	485.98
420.992	450.33
421.205	553.79
421.417	473
421.629	486.18
421.842	485.79
422.054	460.41
422.266	535.97
422.479	551.28
422.691	456.15
422.903	528.61
423.115	453.05
423.328	492.38
423.54	492.57
423.752	473.78
423.964	479.59
424.177	511.17
424.389	513.3
424.601	594.29
424.813	547.79
425.025	548.37
425.238	527.64
425.45	530.16
425.662	532.48
425.874	823.68
426.086	473.39
426.298	556.7
426.51	528.41
426.722	502.06
426.934	517.18
427.146	559.61
427.358	493.35
427.57	547.98
427.782	504.78
427.994	510.2
428.206	456.15
428.418	520.28
428.63	554.57
428.842	548.37
429.054	510.01
429.266	537.13
429.478	501.29
429.69	522.6
429.902	488.31
430.114	516.4
430.325	476.68
430.537	447.23
430.749	441.61
430.961	378.07
431.173	421.27
431.384	437.93
431.596	389.88
431.808	495.48
432.02	530.35
432.231	590.02
432.443	652.8
432.655	612.11
432.867	551.47
433.078	589.44
433.29	644.66
433.502	610.76
433.713	633.42
433.925	643.69
434.136	634.59
434.348	552.44
434.56	516.59
434.771	668.49
434.983	510.59
435.194	552.24
435.406	631.68
435.617	697.36
435.829	725.45
436.04	686.51
436.252	669.46
436.463	721
436.675	731.85
436.886	695.42
437.098	735.92
437.309	747.15
437.521	705.5
437.732	695.04
437.943	690.97
438.155	701.43
438.366	642.72
438.578	691.16
438.789	657.45
439	676.24
439.211	627.81
439.423	678.37
439.634	668.49
439.845	702.59
440.057	702.59
440.268	777.38
440.479	689.42
440.69	739.21
440.902	692.9
441.113	672.95
441.324	691.74
441.535	748.32
441.746	782.61
441.957	724.49
442.168	758
442.38	803.92
442.591	790.17
442.802	777.96
443.013	768.08
443.224	815.55
443.435	776.02
443.646	764.01
443.857	784.55
444.068	762.65
444.279	765.37
444.49	857.59
444.701	779.9
444.912	906.41
445.123	839.38
445.334	822.91
445.545	826.2
445.756	812.06
445.967	754.32
446.178	769.63
446.388	778.54
446.599	805.86
446.81	799.08
447.021	753.35
447.232	827.17
447.443	832.98
447.653	822.52
447.864	909.71
448.075	852.55
448.286	889.17
448.496	871.54
448.707	905.45
448.918	847.32
449.129	914.75
449.339	813.22
449.55	886.26
449.761	844.8
449.971	890.53
450.182	861.08
450.393	872.9
450.603	845.19
450.814	947.1
451.024	911.65
451.235	940.9
451.446	967.25
451.656	981.2
451.867	890.91
452.077	893.43
452.288	979.07
452.498	931.6
452.709	915.13
452.919	909.9
453.13	863.6
453.34	896.92
453.55	828.14
453.761	922.11
453.971	877.74
454.182	921.33
454.392	903.12
454.602	967.44
454.813	949.04
455.023	947.29
455.233	841.7
455.444	902.93
455.654	825.04
455.864	900.21
456.075	895.56
456.285	879.1
456.495	916.88
456.705	921.33
456.916	975.58
457.126	995.54
457.336	959.89
457.546	863.6
457.756	922.5
457.967	993.99
458.177	931.99
458.387	968.41
458.597	915.52
458.807	928.7
459.017	925.79
459.227	937.99
459.437	917.46
459.647	948.26
459.857	972.48
460.068	943.61
460.278	989.53
460.488	997.09
460.698	1024.6
460.908	933.73
461.117	940.9
461.327	946.13
461.537	991.28
461.747	1004.06
461.957	1005.03
462.167	1077.69
462.377	1057.34
462.587	990.11
462.797	1033.32
463.007	1039.91
463.216	1043.01
463.426	1101.13
463.636	1055.99
463.846	1002.13
464.056	981.59
464.265	1047.46
464.475	994.76
464.685	1010.46
464.895	1020.92
465.104	1003.87
465.314	1045.91
465.524	952.91
465.733	961.44
465.943	1105.39
466.153	1087.18
466.362	1077.3
466.572	1078.07
466.782	1037.77
466.991	1076.33
467.201	1118.95
467.41	982.56
467.62	1037.39
467.829	1070.91
468.039	1063.74
468.249	1047.27
468.458	1094.16
468.668	1079.04
468.877	1111.01
469.086	1136.59
469.296	1163.13
469.505	1105.78
469.715	1153.83
469.924	1125.15
470.134	1149.95
470.343	1159.64
470.552	1143.37
470.762	1105.39
470.971	1087.37
471.18	1124.38
471.39	1136
471.599	1077.49
471.808	1180.57
472.018	1131.74
472.227	1215.83
472.436	1234.23
472.645	1199.55
472.855	1189.09
473.064	1293.91
473.273	1258.84
473.482	1222.8
473.691	1279.77
473.901	1221.06
474.11	1244.12
474.319	1317.74
474.528	1279.57
474.737	1372.96
474.946	1281.12
475.155	1300.11
475.364	1381.48
475.573	1319.29
475.783	1375.28
475.992	1364.43
476.201	1392.91
476.41	1329.95
476.619	1338.47
476.828	1323.75
477.037	1309.6
477.245	1325.3
477.454	1378.77
477.663	1394.27
477.872	1416.36
478.081	1461.69
478.29	1404.93
478.499	1511.87
478.708	1460.14
478.917	1535.32
479.125	1454.33
479.334	1466.92
479.543	1477.39
479.752	1494.24
479.961	1492.31
480.169	1561.86
480.378	1486.49
480.587	1647.3
480.796	1543.07
481.004	1541.13
481.213	1571.74
481.422	1555.66
481.63	1561.47
481.839	1637.23
482.048	1689.93
482.256	1604.49
482.465	1646.53
482.674	1662.42
482.882	1681.6
483.091	1732.36
483.299	1615.53
483.508	1684.7
483.716	1707.56
483.925	1673.85
484.134	1638.2
484.342	1657.77
484.551	1695.55
484.759	1705.82
484.967	1743.4
485.176	1712.79
485.384	1770.72
485.593	1775.18
485.801	1700.78
486.01	1654.08
486.218	1564.19
486.426	1503.16
486.635	1447.94
486.843	1451.23
487.051	1555.08
487.26	1514.78
487.468	1603.13
487.676	1649.43
487.885	1620.18
488.093	1695.35
488.301	1727.13
488.509	1780.8
488.717	1798.43
488.926	1789.32
489.134	1735.65
489.342	1774.98
489.55	1708.92
489.758	1796.68
489.967	1821.09
490.175	1911.96
490.383	1889.49
490.591	1979.39
490.799	1859.46
491.007	1932.11
491.215	1931.72
491.423	1849.77
491.631	1908.47
491.839	1883.87
492.047	1917.77
492.255	1858.29
492.463	1831.75
492.671	1770.53
492.879	1895.11
493.087	1851.71
493.295	1888.33
493.503	1935.41
493.711	2011.74
493.919	1991.98
494.127	1990.04
494.334	2013.68
494.542	1941.41
494.75	1983.65
494.958	1971.06
495.166	2079.55
495.374	2071.42
495.581	2082.07
495.789	2071.22
495.997	2120.05
496.205	2001.86
496.412	1995.85
496.62	2047.78
496.828	2040.03
497.035	2057.85
497.243	2088.27
497.451	2096.8
497.658	2058.63
497.866	2065.41
498.074	2146.01
498.281	2060.37
498.489	2132.25
498.696	2068.12
498.904	1998.37
499.112	2034.99
499.319	2090.02
499.527	2052.24
499.734	2101.25
499.942	2019.1
500.149	2041.19
500.357	2059.4
500.564	2044.68
500.771	2086.72
500.979	2006.7
501.186	2006.32
501.394	2061.73
501.601	2011.94
501.808	2066.77
502.016	2011.74
502.223	2026.27
502.43	2030.15
502.638	2018.91
502.845	2057.47
503.052	2091.95
503.26	2049.91
503.467	2162.28
503.674	2107.65
503.881	2156.28
504.089	2157.63
504.296	2156.47
504.503	2050.3
504.71	2057.85
504.917	2060.76
505.125	2104.93
505.332	2122.57
505.539	2146.01
505.746	2247.92
505.953	2190.38
506.16	2202.39
506.367	2258.77
506.574	2303.33
506.781	2284.73
506.988	2211.3
507.195	2230.68
507.402	2181.08
507.609	2255.48
507.816	2162.67
508.023	2143.88
508.23	2185.73
508.437	2139.23
508.644	2189.8
508.851	2227
509.058	2224.86
509.265	2213.63
509.472	2276.21
509.679	2315.34
509.885	2235.52
510.092	2264.19
510.299	2281.63
510.506	2210.33
510.713	2261.29
510.92	2234.75
511.126	2290.35
511.333	2327.16
511.54	2325.23
511.746	2325.23
511.953	2329.49
512.16	2371.14
512.367	2314.76
512.573	2281.63
512.78	2264.19
512.987	2274.85
513.193	2287.25
513.4	2177.98
513.606	2261.09
513.813	2267.1
514.02	2249.47
514.226	2298.49
514.433	2306.63
514.639	2235.52
514.846	2264.97
515.052	2199.87
515.259	2286.09
515.465	2261.09
515.672	2257.03
515.878	2362.62
516.085	2296.16
516.291	2318.83
516.497	2291.71
516.704	2252.76
516.91	2175.07
517.117	2112.88
517.323	2029.37
517.529	2054.17
517.736	2038.48
517.942	2036.93
518.148	2099.32
518.354	2179.72
518.561	2160.54
518.767	2146.98
518.973	2141.75
519.179	2214.98
519.386	2197.74
519.592	2200.06
519.798	2191.93
520.004	2316.89
520.21	2290.74
520.417	2353.12
520.623	2407.37
520.829	2417.84
521.035	2392.46
521.241	2387.81
521.447	2425.39
521.653	2529.82
521.859	2403.11
522.065	2427.72
522.271	2502.12
522.477	2475.57
522.683	2526.72
522.889	2485.65
523.095	2446.32
523.301	2461.04
523.507	2400.21
523.713	2422.49
523.919	2404.08
524.125	2529.43
524.331	2494.95
524.537	2575.55
524.742	2607.13
524.948	2637.35
525.154	2581.75
525.36	2686.18
525.566	2575.16
525.772	2652.66
525.977	2566.63
526.183	2599.18
526.389	2649.95
526.595	2555.98
526.8	2518.2
527.006	2437.4
527.212	2364.36
527.417	2358.16
527.623	2356.22
527.829	2438.37
528.034	2500.76
528.24	2491.46
528.446	2551.72
528.651	2641.03
528.857	2670.29
529.062	2689.86
529.268	2689.47
529.473	2709.23
529.679	2738.49
529.884	2815.99
530.09	2781.69
530.295	2766.39
530.501	2777.43
530.706	2716.79
530.912	2747.79
531.117	2724.34
531.323	2774.14
531.528	2840.21
531.733	2836.72
531.939	2815.99
532.144	2821.99
532.35	2831.49
532.555	2863.26
532.76	2807.46
532.966	2744.11
533.171	2714.46
533.376	2694.51
533.581	2665.45
533.787	2701.68
533.992	2774.33
534.197	2775.11
534.402	2770.84
534.607	2783.05
534.813	2846.21
535.018	2785.96
535.223	2810.37
535.428	2788.47
535.633	2911.31
535.838	2871.01
536.043	2882.05
536.249	3000.43
536.454	2858.61
536.659	2907.44
536.864	2861.9
537.069	2863.26
537.274	2903.37
537.479	2863.45
537.684	2849.31
537.889	2781.69
538.094	2966.72
538.299	2860.55
538.504	2872.95
538.708	2893.49
538.913	2937.85
539.118	2922.74
539.323	2937.85
539.528	2855.51
539.733	2894.07
539.938	2873.72
540.142	2889.8
540.347	2895.62
540.552	2821.22
540.757	2831.49
540.962	2840.4
541.166	2740.23
541.371	2763.87
541.576	2817.15
541.781	2734.03
541.985	2860.55
542.19	2845.05
542.395	2955.48
542.599	2974.67
542.804	2933.79
543.008	2952.19
543.213	2879.92
543.418	2860.35
543.622	2933.59
543.827	2850.67
544.031	2969.63
544.236	2934.56
544.44	2968.85
544.645	3005.28
544.849	2960.13
545.054	2980.87
545.258	3018.07
545.463	3012.64
545.667	2916.35
545.872	2970.4
546.076	2991.91
546.281	2977.57
546.485	2948.32
546.689	2974.47
546.894	2987.45
547.098	2965.37
547.302	2926.42
547.507	2986.29
547.711	3001.79
547.915	3047.13
548.119	2892.32
548.324	2930.88
548.528	2970.21
548.732	2927.39
548.936	2984.16
549.141	2965.56
549.345	2975.25
549.549	2959.75
549.753	2954.71
549.957	3071.93
550.161	3027.75
550.366	3017.87
550.57	2976.99
550.774	3012.45
550.978	2976.02
551.182	2995.4
551.386	2998.69
551.59	2977.96
551.794	2957.03
551.998	3024.46
552.202	3009.35
552.406	2970.79
552.61	3022.72
552.814	3008.18
553.018	3040.93
553.222	2990.17
553.426	2978.54
553.63	3052.36
553.833	3018.07
554.037	2850.86
554.241	2990.75
554.445	2999.85
554.649	2976.6
554.853	2953.93
555.056	3038.8
555.26	3014.19
555.464	3031.05
555.668	3023.1
555.871	3025.04
556.075	3013.61
556.279	2952
556.483	2948.7
556.686	2945.02
556.89	2916.93
557.094	2955.29
557.297	2858.22
557.501	2952.38
557.704	2854.35
557.908	2955.68
558.112	2881.28
558.315	2951.22
558.519	2847.18
558.722	2896.2
558.926	2870.62
559.129	2775.11
559.333	2800.49
559.536	2795.26
559.74	2740.81
559.943	2745.46
560.147	2743.72
560.35	2767.16
560.553	2837.3
560.757	2741.39
560.96	2869.85
561.164	2790.02
561.367	2895.23
561.57	2847.76
561.774	2822.96
561.977	2827.03
562.18	2785.57
562.384	2891.74
562.587	2780.92
562.79	2817.92
562.993	2787.31
563.197	2774.72
563.4	2844.27
563.603	2841.17
563.806	2884.19
564.009	2792.16
564.212	2825.09
564.416	2753.21
564.619	2797
564.822	2724.54
565.025	2820.64
565.228	2747.01
565.431	2757.86
565.634	2708.65
565.837	2705.16
566.04	2684.24
566.243	2624.18
566.446	2584.27
566.649	2713.88
566.852	2611.2
567.055	2618.36
567.258	2663.9
567.461	2713.49
567.664	2709.04
567.867	2633.09
568.07	2663.31
568.273	2689.08
568.475	2718.14
568.678	2601.9
568.881	2613.33
569.084	2587.95
569.287	2511.22
569.489	2534.67
569.692	2613.71
569.895	2624.95
570.098	2487.78
570.3	2524.98
570.503	2503.67
570.706	2502.5
570.909	2479.64
571.111	2422.1
571.314	2399.24
571.516	2425.78
571.719	2472.28
571.922	2428.88
572.124	2381.99
572.327	2491.46
572.529	2439.54
572.732	2451.16
572.935	2487.59
573.137	2557.33
573.34	2508.51
573.542	2536.6
573.745	2532.73
573.947	2494.75
574.15	2464.34
574.352	2421.71
574.554	2528.85
574.757	2440.12
574.959	2395.94
575.162	2424.23
575.364	2420.74
575.566	2502.7
575.769	2379.86
575.971	2406.41
576.173	2263.23
576.376	2369.01
576.578	2414.16
576.78	2436.82
576.982	2313.6
577.185	2355.84
577.387	2328.91
577.589	2376.18
577.791	2401.37
577.993	2364.36
578.196	2339.17
578.398	2337.24
578.6	2377.15
578.802	2263.61
579.004	2303.33
579.206	2253.93
579.408	2354.67
579.61	2277.76
579.812	2370.76
580.014	2289.96
580.216	2279.5
580.418	2319.61
580.62	2239.78
580.822	2246.76
581.024	2317.67
581.226	2355.26
581.428	2315.34
581.63	2368.62
581.832	2297.33
582.034	2356.61
582.236	2288.8
582.438	2344.21
582.64	2369.01
582.841	2370.95
583.043	2382.38
583.245	2328.52
583.447	2314.38
583.649	2293.26
583.85	2344.02
584.052	2322.71
584.254	2292.68
584.456	2352.54
584.657	2294.61
584.859	2319.99
585.061	2291.51
585.262	2265.94
585.464	2251.41
585.666	2285.51
585.867	2241.72
586.069	2315.93
586.27	2284.93
586.472	2247.73
586.674	2226.22
586.875	2229.71
587.077	2198.71
587.278	2256.44
587.48	2215.18
587.681	2338.4
587.883	2291.71
588.084	2167.71
588.285	2191.73
588.487	2235.71
588.688	2200.84
588.89	2124.7
589.091	2097.77
589.292	2066.77
589.494	2014.07
589.695	1984.81
589.896	1906.15
590.098	1957.11
590.299	1964.47
590.5	1948.97
590.702	1955.94
590.903	2017.94
591.104	2086.92
591.305	2082.27
591.507	2133.8
591.708	2114.23
591.909	2087.3
592.11	2167.51
592.311	2149.11
592.512	2042.35
592.714	2055.14
592.915	2042.74
593.116	2050.49
593.317	2082.46
593.518	2065.41
593.719	2083.23
593.92	2108.62
594.121	2129.54
594.322	2081.49
594.523	2115.78
594.724	2031.5
594.925	2088.08
595.126	2072.77
595.327	2102.61
595.528	2080.13
595.729	2088.27
595.929	2075.87
596.13	2078
596.331	2083.62
596.532	2080.52
596.733	2140.2
596.934	2124.31
597.135	2100.67
597.335	2136.9
597.536	2034.02
597.737	2115.98
597.938	2052.82
598.138	2081.1
598.339	2059.02
598.54	2094.28
598.74	2053.59
598.941	2080.72
599.142	2103.38
599.342	2058.44
599.543	1958.07
599.744	2049.33
599.944	2045.07
600.145	2041
600.345	2068.51
600.546	2134.97
600.746	2091.76
600.947	2110.75
601.147	2070.25
601.348	2108.42
601.548	1996.05
601.749	2050.1
601.949	1957.3
602.15	1996.63
602.35	1949.16
602.551	2034.99
602.751	1985.59
602.951	2006.12
603.152	1961.56
603.352	2038.67
603.552	2012.13
603.753	2091.18
603.953	2050.88
604.153	2038.09
604.354	2029.57
604.554	2039.84
604.754	2008.64
604.954	1991.4
605.155	2051.07
605.355	2014.26
605.555	2028.21
605.755	2123.15
605.955	2048.75
606.155	2077.03
606.356	2048.75
606.556	2083.04
606.756	2042.74
606.956	1960.98
607.156	2086.92
607.356	1944.9
607.556	2019.88
607.756	2011.55
607.956	2089.63
608.156	2037.7
608.356	1964.86
608.556	2026.66
608.756	1975.9
608.956	2003.6
609.156	1946.45
609.356	1960.59
609.556	1951.49
609.755	1977.64
609.955	1930.56
610.155	1944.9
610.355	1954.97
610.555	1922.42
610.755	1935.6
610.954	1873.02
611.154	1941.22
611.354	2007.48
611.554	1923.2
611.753	1924.94
611.953	1870.89
612.153	1945.48
612.352	1904.41
612.552	1891.04
612.752	1863.72
612.951	1907.12
613.151	1866.43
613.351	1882.13
613.55	1895.3
613.75	1909.44
613.949	1889.29
614.149	1866.43
614.348	1875.73
614.548	1819.35
614.747	1793.2
614.947	1843.38
615.146	1807.34
615.346	1885.42
615.545	1842.41
615.745	1867.98
615.944	1874.57
616.144	1850.74
616.343	1873.41
616.542	1867.98
616.742	1832.14
616.941	1879.41
617.14	1777.89
617.34	1821.29
617.539	1805.6
617.738	1791.26
617.938	1914.09
618.137	1795.33
618.336	1823.03
618.535	1861.78
618.734	1807.34
618.934	1835.82
619.133	1829.43
619.332	1881.93
619.531	1772.85
619.73	1822.45
619.929	1859.46
620.128	1866.82
620.328	1889.1
620.527	1834.66
620.726	1825.16
620.925	1817.8
621.124	1806.95
621.323	1821.09
621.522	1776.92
621.721	1804.24
621.92	1795.91
622.119	1848.22
622.318	1796.3
622.517	1837.76
622.715	1799.2
622.914	1753.86
623.113	1777.5
623.312	1705.04
623.511	1771.88
623.71	1782.35
623.909	1752.51
624.107	1795.33
624.306	1741.85
624.505	1731.97
624.704	1758.51
624.902	1702.72
625.101	1763.36
625.3	1751.15
625.499	1718.8
625.697	1725
625.896	1704.85
626.095	1708.53
626.293	1656.6
626.492	1745.34
626.69	1762.97
626.889	1669.39
627.088	1760.65
627.286	1694.77
627.485	1664.16
627.683	1700.78
627.882	1709.88
628.08	1652.92
628.279	1650.21
628.477	1700.2
628.676	1632.38
628.874	1669.39
629.073	1646.53
629.271	1645.37
629.469	1666.68
629.668	1653.5
629.866	1632
630.065	1611.27
630.263	1641.68
630.461	1610.69
630.66	1626.96
630.858	1642.07
631.056	1704.07
631.254	1667.07
631.453	1604.49
631.651	1658.15
631.849	1642.46
632.047	1650.98
632.245	1586.47
632.444	1662.42
632.642	1646.72
632.84	1647.69
633.038	1649.24
633.236	1617.27
633.434	1568.84
633.632	1576.59
633.83	1596.15
634.028	1632.58
634.227	1602.94
634.425	1696.9
634.623	1589.76
634.821	1620.95
635.019	1640.91
635.216	1617.85
635.414	1658.15
635.612	1618.05
635.81	1575.23
636.008	1692.83
636.206	1594.41
636.404	1621.34
636.602	1589.18
636.8	1594.02
636.997	1644.2
637.195	1615.53
637.393	1619.4
637.591	1665.13
637.789	1618.05
637.986	1632.38
638.184	1599.45
638.382	1646.72
638.58	1664.74
638.777	1663.19
638.975	1631.61
639.173	1616.89
639.37	1630.84
639.568	1635.48
639.765	1657.38
639.963	1598.09
640.161	1624.05
640.358	1658.35
640.556	1567.87
640.753	1542.68
640.951	1539.77
641.148	1565.54
641.346	1539.97
641.543	1568.25
641.741	1582.01
641.938	1525.24
642.136	1524.66
642.333	1509.94
642.531	1607.59
642.728	1649.24
642.925	1598.67
643.123	1564.96
643.32	1596.54
643.517	1560.7
643.715	1538.61
643.912	1580.65
644.109	1570.77
644.306	1554.5
644.504	1514.97
644.701	1521.17
644.898	1577.55
645.095	1503.54
645.293	1509.74
645.49	1532.61
645.687	1553.92
645.884	1583.56
646.081	1463.82
646.278	1476.03
646.475	1524.66
646.672	1481.46
646.87	1511.49
647.067	1474.29
647.264	1503.93
647.461	1446.58
647.658	1436.12
647.855	1471.38
648.052	1440.38
648.249	1387.29
648.446	1426.82
648.642	1448.52
648.839	1396.79
649.036	1424.88
649.233	1426.24
649.43	1375.86
649.627	1365.4
649.824	1393.11
650.021	1398.14
650.217	1363.46
650.414	1389.81
650.611	1387.29
650.808	1455.88
651.004	1423.53
651.201	1474.29
651.398	1515.94
651.595	1421.39
651.791	1411.51
651.988	1469.64
652.185	1366.76
652.381	1462.47
652.578	1358.23
652.775	1422.56
652.971	1403.57
653.168	1430.89
653.364	1456.27
653.561	1362.3
653.757	1400.86
653.954	1430.11
654.15	1380.51
654.347	1464.21
654.543	1424.88
654.74	1351.84
654.936	1350.48
655.133	1354.55
655.329	1376.83
655.525	1357.26
655.722	1382.26
655.918	1339.44
656.115	1319.48
656.311	1189.87
656.507	1166.81
656.704	1151.12
656.9	1185.6
657.096	1170.69
657.292	1158.67
657.489	1267.37
657.685	1251.28
657.881	1241.79
658.077	1266.2
658.273	1289.06
658.47	1370.24
658.666	1308.83
658.862	1365.4
659.058	1328.4
659.254	1362.3
659.45	1340.21
659.646	1356.1
659.842	1298.36
660.038	1414.23
660.234	1322.39
660.43	1332.46
660.626	1419.65
660.822	1364.24
661.018	1391.75
661.214	1361.72
661.41	1328.01
661.606	1396.4
661.802	1387.29
661.998	1340.02
662.194	1349.13
662.39	1376.83
662.586	1391.75
662.781	1371.6
662.977	1398.53
663.173	1415.97
663.369	1355.52
663.564	1364.82
663.76	1397.76
663.956	1343.31
664.152	1407.06
664.347	1279.18
664.543	1382.26
664.739	1330.33
664.934	1288.87
665.13	1285
665.326	1383.42
665.521	1352.23
665.717	1306.11
665.912	1334.21
666.108	1245.47
666.304	1337.31
666.499	1319.48
666.695	1230.36
666.89	1292.16
667.086	1312.51
667.281	1325.68
667.477	1391.75
667.672	1331.3
667.867	1318.32
668.063	1307.08
668.258	1255.74
668.454	1308.63
668.649	1415.97
668.844	1315.41
669.04	1331.5
669.235	1276.47
669.43	1263.68
669.626	1259.42
669.821	1306.5
670.016	1247.99
670.211	1271.82
670.407	1260.78
670.602	1298.36
670.797	1285
670.992	1328.4
671.187	1235.59
671.382	1343.9
671.578	1247.02
671.773	1294.3
671.968	1236.75
672.163	1241.6
672.358	1268.53
672.553	1231.52
672.748	1281.51
672.943	1328.01
673.138	1257.1
673.333	1270.66
673.528	1216.02
673.723	1280.54
673.918	1217.96
674.113	1222.42
674.308	1340.6
674.503	1271.43
674.698	1295.46
674.892	1253.22
675.087	1271.82
675.282	1271.24
675.477	1229.97
675.672	1312.51
675.867	1233.46
676.061	1203.04
676.256	1195.68
676.451	1225.71
676.646	1278.22
676.84	1217.38
677.035	1203.62
677.23	1215.83
677.424	1269.11
677.619	1269.88
677.814	1258.65
678.008	1288.29
678.203	1199.36
678.397	1219.7
678.592	1261.75
678.787	1278.41
678.981	1220.09
679.176	1246.83
679.37	1223.38
679.565	1220.09
679.759	1216.8
679.954	1253.61
680.148	1278.99
680.342	1274.73
680.537	1268.14
680.731	1231.13
680.926	1264.07
681.12	1252.83
681.314	1178.05
681.509	1226.1
681.703	1225.13
681.897	1233.85
682.092	1207.69
682.286	1192.97
682.48	1281.12
682.674	1251.87
682.869	1213.12
683.063	1209.82
683.257	1269.11
683.451	1196.07
683.645	1219.9
683.839	1196.65
684.034	1206.14
684.228	1233.85
684.422	1158.67
684.616	1172.82
684.81	1227.45
685.004	1189.87
685.198	1208.85
685.392	1218.54
685.586	1194.32
685.78	1209.43
685.974	1223.58
686.168	1207.11
686.362	1245.28
686.556	1151.31
686.75	1093.57
686.944	1099.77
687.138	1100.94
687.331	979.65
687.525	1012.39
687.719	924.63
687.913	1000.96
688.107	996.31
688.301	955.24
688.494	1013.36
688.688	959.11
688.882	954.46
689.076	950.78
689.269	996.89
689.463	1081.95
689.657	1014.53
689.85	1001.93
690.044	1028.67
690.238	1006.78
690.431	1009.49
690.625	969.77
690.818	1086.41
691.012	1038.94
691.205	1068.97
691.399	1002.51
691.593	1074.97
691.786	1091.06
691.98	1114.89
692.173	1164.87
692.366	1093.38
692.56	1142.4
692.753	1151.31
692.947	1056.37
693.14	1167.2
693.333	1150.73
693.527	1074.39
693.72	1104.81
693.914	1081.37
694.107	1085.44
694.3	1130.97
694.493	1057.15
694.687	1138.72
694.88	1069.94
695.073	1163.9
695.266	1164.49
695.46	1136.2
695.653	1168.94
695.846	1202.46
696.039	1069.94
696.232	1133.87
696.425	1190.45
696.618	1176.5
696.812	1188.51
697.005	1235.78
697.198	1288.68
697.391	1204.4
697.584	1280.93
697.777	1309.21
697.97	1263.68
698.163	1274.15
698.356	1273.18
698.549	1355.33
698.742	1300.69
698.935	1272.4
699.127	1322.39
699.32	1292.16
699.513	1253.8
699.706	1318.32
699.899	1317.16
700.092	1316.77
700.285	1338.08
700.477	1291.39
700.67	1329.56
700.863	1357.46
701.056	1477.97
701.248	1397.37
701.441	1385.94
701.634	1369.86
701.826	1502.96
702.019	1393.49
702.212	1471.77
702.404	1415
702.597	1452.01
702.79	1405.31
702.982	1444.84
703.175	1478.74
703.367	1513.23
703.56	1478.74
703.752	1593.83
703.945	1541.71
704.137	1571.55
704.33	1582.01
704.522	1622.89
704.715	1600.61
704.907	1637.23
705.1	1658.93
705.292	1664.55
705.484	1673.27
705.677	1676.95
705.869	1710.85
706.061	1749.41
706.254	1801.33
706.446	1764.71
706.638	1741.46
706.831	1818.19
707.023	1784.67
707.215	1873.6
707.407	1851.13
707.599	1877.28
707.792	1935.41
707.984	1913.9
708.176	1932.31
708.368	1926.49
708.56	1980.36
708.752	1988.88
708.944	1918.94
709.136	2008.64
709.329	2004.57
709.521	2103.77
709.713	2045.26
709.905	2082.65
710.097	2115.59
710.289	2088.08
710.481	2088.66
710.672	2147.56
710.864	2188.44
711.056	2203.94
711.248	2195.8
711.44	2222.73
711.632	2215.37
711.824	2274.27
712.016	2296.16
712.207	2333.94
712.399	2299.07
712.591	2392.07
712.783	2362.42
712.975	2363.39
713.166	2316.7
713.358	2373.47
713.55	2436.05
713.741	2442.44
713.933	2465.89
714.125	2450.39
714.316	2413.96
714.508	2517.81
714.7	2529.43
714.891	2499.6
715.083	2560.24
715.274	2541.83
715.466	2544.16
715.657	2575.93
715.849	2526.72
716.04	2566.25
716.232	2496.89
716.423	2588.53
716.615	2554.82
716.806	2475.96
716.998	2465.89
717.189	2425.78
717.381	2356.22
717.572	2319.03
717.763	2336.07
717.955	2288.03
718.146	2297.71
718.337	2253.34
718.528	2222.93
718.72	2148.72
718.911	2217.31
719.102	2170.42
719.293	2220.6
719.485	2220.41
719.676	2191.73
719.867	2168.29
720.058	2166.55
720.249	2200.26
720.44	2254.12
720.632	2245.01
720.823	2334.14
721.014	2478.09
721.205	2490.69
721.396	2538.15
721.587	2694.7
721.778	2704.78
721.969	2745.66
722.16	2809.79
722.351	2794.67
722.542	2968.47
722.733	2952.38
722.924	2899.1
723.115	2978.35
723.305	2929.33
723.496	2959.94
723.687	2822.96
723.878	2848.15
724.069	2841.56
724.26	2891.16
724.45	2790.8
724.641	2830.52
724.832	2840.59
725.023	2773.17
725.213	2839.62
725.404	2802.42
725.595	2790.61
725.785	2846.99
725.976	2866.94
726.167	2897.55
726.357	2867.14
726.548	3006.63
726.739	2903.95
726.929	3007.41
727.12	3030.08
727.31	3058.75
727.501	3030.08
727.691	3042.67
727.882	3058.17
728.072	3102.93
728.263	3070.38
728.453	3175.97
728.644	3186.82
728.834	3120.75
729.024	3149.04
729.215	3134.7
729.405	3126.56
729.596	3252.5
729.786	3242.62
729.976	3246.11
730.167	3290.86
730.357	3264.32
730.547	3257.34
730.737	3310.62
730.928	3332.32
731.118	3415.83
731.308	3347.44
731.498	3391.61
731.688	3526.07
731.879	3519.87
732.069	3528.78
732.259	3552.23
732.449	3609.77
732.639	3698.7
732.829	3706.64
733.019	3736.29
733.209	3801.97
733.399	3821.73
733.589	3926.16
733.779	3923.06
733.969	3921.7
734.159	3993.39
734.349	4091.23
734.539	4109.44
734.729	4100.53
734.919	4093.94
735.109	4213.1
735.299	4142.38
735.488	4176.87
735.678	4160.21
735.868	4190.62
736.058	4186.94
736.248	4176.48
736.437	4103.82
736.627	4135.41
736.817	4302.22
737.007	4198.76
737.196	4214.65
737.386	4250.69
737.576	4190.82
737.765	4293.12
737.955	4258.43
738.144	4404.71
738.334	4345.23
738.524	4259.02
738.713	4307.26
738.903	4354.53
739.092	4339.23
739.282	4331.67
739.471	4378.75
739.661	4354.73
739.85	4411.88
740.04	4366.93
740.229	4465.55
740.419	4481.05
740.608	4489.19
740.797	4451.21
740.987	4523.09
741.176	4481.44
741.365	4433.58
741.555	4450.44
741.744	4537.04
741.933	4475.43
742.123	4559.71
742.312	4554.67
742.501	4624.23
742.69	4607.57
742.88	4518.44
743.069	4631.01
743.258	4608.54
743.447	4715.87
743.636	4681.19
743.825	4606.21
744.014	4616.29
744.204	4652.13
744.393	4611.25
744.582	4738.93
744.771	4773.03
744.96	4754.23
745.149	4721.49
745.338	4665.11
745.527	4715.29
745.716	4695.53
745.905	4649.8
746.094	4801.12
746.283	4756.95
746.471	4739.7
746.66	4810.81
746.849	4759.47
747.038	4804.41
747.227	4704.05
747.416	4812.16
747.604	4736.99
747.793	4734.28
747.982	4763.53
748.171	4796.47
748.359	4759.66
748.548	4778.26
748.737	4738.15
748.926	4790.66
749.114	4682.55
749.303	4763.92
749.491	4741.64
749.68	4650.97
749.869	4784.85
750.057	4750.55
750.246	4699.4
750.434	4718
750.623	4710.45
750.811	4618.22
751	4754.04
751.188	4678.29
751.377	4673.83
751.565	4670.54
751.754	4696.88
751.942	4681.77
752.131	4762.57
752.319	4690.1
752.507	4599.82
752.696	4708.12
752.884	4711.42
753.072	4638.76
753.261	4694.17
753.449	4733.89
753.637	4617.64
753.825	4750.94
754.014	4686.81
754.202	4674.02
754.39	4710.06
754.578	4687.39
754.766	4609.89
754.955	4606.02
755.143	4713.93
755.331	4611.64
755.519	4664.14
755.707	4654.84
755.895	4621.71
756.083	4625.78
756.271	4578.89
756.459	4595.94
756.647	4630.82
756.835	4592.84
757.023	4574.44
757.211	4621.52
757.399	4585.29
757.587	4565.91
757.775	4526.97
757.963	4502.17
758.151	4576.96
758.339	4466.52
758.526	4497.91
758.714	4515.73
758.902	4358.41
759.09	4344.46
759.278	4125.14
759.465	3879.85
759.653	3463.88
759.841	3197.48
760.028	2865.59
760.216	2504.83
760.404	2299.46
760.591	2049.33
760.779	1727.51
760.967	1624.83
761.154	1396.4
761.342	1441.16
761.529	1490.95
761.717	1549.65
761.905	1585.3
762.092	1690.9
762.28	1680.05
762.467	1721.7
762.655	1664.74
762.842	1688.77
763.029	1715.12
763.217	1743.4
763.404	1751.54
763.592	1782.54
763.779	1743.6
763.966	1813.15
764.154	1843.18
764.341	1934.05
764.528	1916.42
764.716	2024.14
764.903	2083.23
765.09	2137.48
765.277	2185.15
765.465	2385.09
765.652	2426.36
765.839	2568.57
766.026	2667.96
766.213	2736.16
766.4	2831.29
766.588	3055.07
766.775	3020.39
766.962	3156.01
767.149	3191.86
767.336	3374.37
767.523	3304.23
767.71	3442.57
767.897	3576.06
768.084	3647.94
768.271	3700.44
768.458	3764.77
768.645	3850.79
768.832	3795.96
769.019	3801.77
769.206	3885.67
769.392	3946.89
769.579	4002.88
769.766	3961.23
769.953	3965.1
770.14	3961.03
770.327	3994.55
770.513	3985.83
770.7	4110.61
770.887	3978.66
771.073	4042.79
771.26	4016.06
771.447	4016.25
771.634	4035.63
771.82	4126.49
772.007	3913.95
772.193	4021.48
772.38	4023.61
772.567	4023.42
772.753	4005.4
772.94	4031.75
773.126	4068.56
773.313	4088.52
773.499	4064.69
773.686	4095.88
773.872	3962.58
774.059	4004.04
774.245	3993.58
774.432	3982.35
774.618	3937.98
774.804	3969.17
774.991	3946.7
775.177	4004.82
775.363	3943.98
775.55	3998.23
775.736	3914.34
775.922	3906.78
776.109	3940.88
776.295	3920.15
776.481	3951.15
776.667	3928.68
776.853	3844.59
777.04	3896.32
777.226	3865.52
777.412	3931.78
777.598	3881.98
777.784	3843.04
777.97	3831.61
778.156	3883.34
778.342	3865.71
778.528	3840.13
778.715	3768.25
778.901	3803.32
779.087	3833.55
779.272	3796.54
779.458	3766.51
779.644	3789.37
779.83	3781.82
780.016	3852.15
780.202	3749.85
780.388	3749.85
780.574	3683.78
780.76	3723.69
780.946	3765.74
781.131	3769.8
781.317	3691.72
781.503	3682.04
781.689	3724.66
781.874	3800.22
782.06	3678.36
782.246	3725.63
782.432	3686.49
782.617	3696.76
782.803	3711.87
782.989	3621.98
783.174	3676.61
783.36	3628.95
783.545	3662.66
783.731	3639.8
783.916	3532.08
784.102	3567.73
784.288	3569.28
784.473	3577.22
784.659	3532.66
784.844	3615.58
785.029	3577.8
785.215	3543.7
785.4	3478.41
785.586	3563.85
785.771	3498.17
785.956	3541.38
786.142	3520.26
786.327	3488.1
786.512	3478.41
786.698	3463.68
786.883	3450.51
787.068	3442.76
787.254	3497.98
787.439	3411.57
787.624	3416.99
787.809	3386.38
787.994	3382.89
788.18	3461.94
788.365	3357.7
788.55	3352.47
788.735	3396.26
788.92	3344.34
789.105	3304.81
789.29	3372.62
789.475	3272.84
789.66	3335.62
789.845	3266.84
790.03	3261.8
790.215	3300.94
790.4	3289.89
790.585	3380.37
790.77	3289.51
790.955	3230.61
791.14	3284.08
791.325	3391.61
791.51	3193.99
791.695	3256.76
791.879	3262.77
792.064	3181.78
792.249	3306.17
792.434	3269.74
792.618	3222.66
792.803	3287.76
792.988	3242.81
793.173	3205.03
793.357	3276.72
793.542	3222.27
793.727	3248.62
793.911	3240.68
794.096	3251.34
794.281	3287.76
794.465	3333.1
794.65	3220.14
794.834	3328.45
795.019	3282.53
795.203	3331.16
795.388	3311.01
795.572	3306.75
795.757	3240.1
795.941	3320.7
796.126	3324.19
796.31	3201.74
796.494	3323.6
796.679	3247.07
796.863	3221.11
797.048	3364.1
797.232	3305.2
797.416	3328.84
797.601	3296.09
797.785	3384.25
797.969	3382.5
798.153	3251.92
798.338	3316.63
798.522	3358.67
798.706	3351.7
798.89	3381.73
799.074	3451.67
799.258	3393.16
799.443	3317.02
799.627	3335.04
799.811	3332.9
799.995	3314.3
800.179	3261.99
800.363	3313.92
800.547	3338.52
800.731	3359.64
800.915	3274.39
801.099	3293.19
801.283	3283.31
801.467	3310.82
801.651	3282.72
801.835	3370.49
802.019	3329.61
802.202	3330.97
802.386	3285.82
802.57	3253.66
802.754	3261.02
802.938	3263.16
803.121	3312.37
803.305	3314.69
803.489	3258.51
803.673	3346.08
803.856	3340.07
804.04	3265.09
804.224	3269.94
804.407	3273.62
804.591	3287.76
804.775	3284.47
804.958	3293.38
805.142	3370.1
805.326	3263.93
805.509	3254.24
805.693	3345.3
805.876	3336
806.06	3305.97
806.243	3337.75
806.427	3328.45
806.61	3357.32
806.794	3287.76
806.977	3355.19
807.16	3342.4
807.344	3286.99
807.527	3303.07
807.71	3239.91
807.894	3299
808.077	3296.48
808.26	3234.67
808.444	3233.12
808.627	3321.09
808.81	3263.74
808.993	3204.64
809.177	3179.65
809.36	3203.87
809.543	3220.92
809.726	3101.96
809.909	3099.25
810.092	3097.5
810.276	3078.13
810.459	3114.94
810.642	3109.51
810.825	3060.88
811.008	3074.06
811.191	2972.34
811.374	3034.92
811.557	2982.8
811.74	3087.04
811.923	2992.68
812.106	2939.6
812.289	2909.57
812.472	2913.64
812.654	2923.52
812.837	2883.41
813.02	2833.62
813.203	2828.77
813.386	2699.93
813.569	2705.16
813.751	2580.97
813.934	2683.85
814.117	2617.78
814.3	2600.35
814.482	2537.18
814.665	2478.09
814.848	2437.99
815.03	2392.65
815.213	2361.07
815.396	2385.09
815.578	2369.79
815.761	2301.39
815.943	2379.28
816.126	2265.16
816.309	2253.34
816.491	2207.23
816.674	2115.59
816.856	2195.8
817.039	2161.31
817.221	2253.54
817.403	2198.9
817.586	2158.99
817.768	2191.15
817.951	2111.33
818.133	2114.04
818.315	2130.9
818.498	2169.06
818.68	2257.03
818.862	2207.23
819.045	2218.86
819.227	2182.82
819.409	2149.3
819.591	2206.85
819.774	2218.08
819.956	2154.53
820.138	2282.79
820.32	2200.65
820.502	2248.69
820.684	2334.72
820.866	2340.34
821.048	2382.96
821.231	2408.34
821.413	2378.89
821.595	2381.99
821.777	2395.17
821.959	2382.38
822.141	2463.75
822.323	2304.69
822.505	2223.9
822.686	2197.55
822.868	2120.43
823.05	1993.53
823.232	1974.54
823.414	1885.81
823.596	1958.07
823.778	1932.5
823.96	1973.38
824.141	1980.55
824.323	1987.52
824.505	2101.83
824.687	2097.96
824.868	2164.03
825.05	2279.89
825.232	2311.86
825.413	2377.54
825.595	2372.5
825.777	2271.56
825.958	2352.54
826.14	2288.99
826.321	2312.44
826.503	2307.59
826.685	2352.54
826.866	2312.05
827.048	2384.9
827.229	2302.75
827.411	2256.64
827.592	2215.95
827.773	2199.68
827.955	2141.36
828.136	2134.38
828.318	2121.21
828.499	2161.7
828.68	2054.56
828.862	2119.47
829.043	2112.49
829.224	2094.47
829.406	2043.71
829.587	2089.82
829.768	2062.31
829.949	2095.83
830.131	2074.13
830.312	2156.66
830.493	2102.61
830.674	2098.35
830.855	2074.32
831.036	2073.35
831.218	2103.19
831.399	2177.4
831.58	2141.36
831.761	2095.63
831.942	2103.97
832.123	2078.39
832.304	2019.1
832.485	2065.22
832.666	2072.38
832.847	2065.99
833.028	2049.91
833.209	2092.53
833.389	2068.7
833.57	2001.67
833.751	2009.22
833.932	2102.03
834.113	2089.24
834.294	2037.32
834.475	2090.79
834.655	2110.17
834.836	2146.2
835.017	2146.59
835.198	2048.17
835.378	2115.4
835.559	2151.63
835.74	2055.53
835.92	2100.48
836.101	2064.44
836.281	2160.15
836.462	2094.86
836.643	2131.48
836.823	2158.8
837.004	2171.39
837.184	2158.41
837.365	2180.11
837.545	2152.79
837.726	2090.98
837.906	2159.57
838.087	2134
838.267	2133.03
838.448	2116.17
838.628	2098.73
838.808	2103.77
838.989	2178.17
839.169	2088.66
839.349	2141.55
839.53	2135.55
839.71	2148.72
839.89	2136.9
840.07	2183.21
840.251	2110.75
840.431	2171.39
840.611	2135.55
840.791	2076.45
840.971	2091.57
841.151	2088.08
841.332	2054.56
841.512	2148.33
841.692	2032.09
841.872	2085.95
842.052	2087.3
842.232	2110.94
842.412	2030.92
842.592	2042.94
842.772	2117.14
842.952	2118.11
843.132	2065.02
843.312	2049.72
843.492	2035.19
843.672	2098.73
843.851	2000.7
844.031	2041
844.211	2030.15
844.391	1985.2
844.571	2025.5
844.751	2046.62
844.93	2025.89
845.11	2003.6
845.29	2031.12
845.47	2041.97
845.649	2022.98
845.829	2024.34
846.009	1984.23
846.188	2024.14
846.368	2014.65
846.547	2031.5
846.727	2059.99
846.907	1963.89
847.086	2012.71
847.266	2029.37
847.445	1948
847.625	1954.2
847.804	1948.97
847.984	1956.14
848.163	1952.65
848.343	1904.99
848.522	2010.39
848.701	1976.48
848.881	1908.47
849.06	1976.87
849.239	1959.62
849.419	1943.54
849.598	1892.59
849.777	1858.29
849.957	1865.85
850.136	1791.06
850.315	1764.71
850.494	1777.5
850.674	1775.76
850.853	1861.59
851.032	1819.93
851.211	1870.5
851.39	1834.46
851.569	1735.65
851.748	1775.37
851.927	1877.48
852.107	1827.49
852.286	1778.86
852.465	1808.11
852.644	1823.03
852.823	1846.86
853.002	1780.02
853.181	1808.69
853.359	1828.07
853.538	1750.57
853.717	1817.61
853.896	1696.71
854.075	1612.82
854.254	1604.49
854.433	1540.36
854.611	1563.02
854.79	1510.91
854.969	1565.74
855.148	1595.96
855.327	1566.32
855.505	1605.65
855.684	1610.3
855.863	1642.65
856.041	1639.17
856.22	1687.99
856.399	1660.09
856.577	1743.98
856.756	1713.37
856.934	1821.48
857.113	1857.33
857.291	1748.63
857.47	1738.75
857.648	1761.23
857.827	1707.37
858.005	1765.3
858.184	1719.38
858.362	1802.88
858.541	1740.5
858.719	1730.81
858.898	1682.37
859.076	1677.92
859.254	1749.99
859.433	1714.73
859.611	1699.62
859.789	1644.2
859.967	1726.55
860.146	1725.77
860.324	1655.44
860.502	1667.26
860.68	1623.47
860.859	1646.33
861.037	1649.43
861.215	1652.34
861.393	1644.78
861.571	1645.75
861.749	1635.48
861.927	1657.18
862.105	1662.03
862.283	1645.95
862.461	1641.1
862.639	1594.41
862.817	1610.49
862.995	1630.06
863.173	1594.8
863.351	1589.76
863.529	1628.32
863.707	1666.29
863.885	1602.16
864.063	1535.12
864.241	1545
864.418	1636.45
864.596	1576.78
864.774	1531.25
864.952	1582.98
865.129	1608.75
865.307	1565.93
865.485	1509.55
865.663	1598.29
865.84	1495.79
866.018	1526.02
866.196	1392.72
866.373	1405.7
866.551	1352.23
866.728	1309.21
866.906	1323.94
867.084	1369.47
867.261	1408.41
867.439	1416.55
867.616	1459.56
867.794	1425.27
867.971	1441.35
868.149	1422.56
868.326	1520.4
868.503	1497.92
868.681	1456.85
868.858	1438.06
869.035	1448.33
869.213	1495.21
869.39	1477.77
869.567	1566.32
869.745	1441.93
869.922	1468.09
870.099	1486.3
870.276	1473.51
870.454	1473.12
870.631	1501.02
870.808	1457.43
870.985	1471.19
871.162	1552.75
871.339	1492.31
871.517	1426.24
871.694	1403.76
871.871	1454.33
872.048	1436.31
872.225	1400.28
872.402	1421.78
872.579	1364.24
872.756	1483.59
872.933	1393.88
873.11	1423.72
873.287	1432.44
873.463	1388.26
873.64	1382.06
873.817	1421.78
873.994	1371.99
874.171	1345.25
874.348	1406.28
874.524	1331.5
874.701	1382.06
874.878	1332.66
875.055	1408.8
875.231	1381.87
875.408	1379.16
875.585	1301.46
875.762	1341.57
875.938	1347
876.115	1333.82
876.291	1357.07
876.468	1341.18
876.645	1285
876.821	1307.86
876.998	1317.35
877.174	1352.81
877.351	1297.59
877.527	1254.19
877.704	1317.35
877.88	1308.63
878.057	1259.81
878.233	1345.45
878.409	1300.69
878.586	1309.41
878.762	1240.82
878.938	1309.6
879.115	1187.93
879.291	1293.91
879.467	1219.51
879.644	1228.81
879.82	1281.51
879.996	1265.04
880.172	1212.53
880.349	1255.16
880.525	1279.18
880.701	1233.46
880.877	1183.67
881.053	1258.65
881.229	1201.88
881.405	1297.4
881.581	1203.04
881.757	1237.14
881.933	1253.42
882.109	1265.82
882.285	1253.42
882.461	1175.72
882.637	1201.3
882.813	1197.81
882.989	1230.17
883.165	1262.91
883.341	1193.35
883.517	1232.1
883.693	1231.52
883.869	1242.95
884.044	1221.06
884.22	1248.96
884.396	1293.71
884.572	1256.32
884.747	1294.88
884.923	1265.23
885.099	1275.12
885.275	1259.62
885.45	1216.99
885.626	1216.02
885.801	1191.42
885.977	1242.76
886.153	1154.02
886.328	1224.35
886.504	1196.07
886.679	1215.44
886.855	1175.14
887.03	1217.57
887.206	1242.57
887.381	1185.02
887.557	1236.95
887.732	1245.47
887.908	1233.27
888.083	1255.16
888.258	1205.95
888.434	1231.13
888.609	1229.39
888.784	1275.89
888.96	1221.25
889.135	1205.17
889.31	1188.32
889.485	1227.84
889.661	1208.66
889.836	1256.9
890.011	1232.68
890.186	1187.35
890.361	1174.37
890.537	1231.72
890.712	1237.72
890.887	1229.78
891.062	1222.61
891.237	1264.27
891.412	1160.61
891.587	1220.48
891.762	1220.09
891.937	1269.11
892.112	1198.2
892.287	1238.69
892.462	1150.73
892.637	1149.95
892.812	1141.43
892.987	1132.9
893.161	1131.94
893.336	1130.77
893.511	1158.67
893.686	1161.77
893.861	1133.29
894.035	1133.49
894.21	1119.15
894.385	1084.86
894.56	1099.77
894.734	1054.82
894.909	1023.24
895.084	1060.44
895.258	1052.31
895.433	1037.19
895.608	1023.44
895.782	980.43
895.957	985.27
896.131	1011.04
896.306	923.27
896.48	925.21
896.655	927.34
896.829	861.85
897.004	841.51
897.178	893.82
897.353	863.21
897.527	916.1
897.701	873.67
897.876	854.49
898.05	912.61
898.224	937.03
898.399	917.26
898.573	863.01
898.747	755.29
898.921	839.18
899.096	717.51
899.27	733.2
899.444	730.69
899.618	763.23
899.792	837.44
899.967	795.59
900.141	833.37
900.315	750.25
900.489	782.03
900.663	798.11
900.837	777.38
901.011	730.3
901.185	838.02
901.359	762.07
901.533	809.15
901.707	784.16
901.881	776.99
902.055	737.66
902.229	772.34
902.403	837.44
902.576	782.42
902.75	784.93
902.924	881.03
903.098	843.25
903.272	870.38
903.446	878.9
903.619	901.76
903.793	930.63
903.967	925.79
904.14	963.38
904.314	940.13
904.488	948.26
904.661	924.63
904.835	913.97
905.009	990.89
905.182	989.53
905.356	957.76
905.529	944.39
905.703	900.02
905.876	880.26
906.05	868.25
906.223	841.32
906.397	810.9
906.57	794.23
906.744	767.88
906.917	796.75
907.09	778.73
907.264	767.11
907.437	748.7
907.61	691.94
907.784	726.62
907.957	739.02
908.13	694.65
908.304	741.34
908.477	694.07
908.65	697.75
908.823	634.78
908.996	760.13
909.17	711.5
909.343	689.03
909.516	715.77
909.689	660.36
909.862	653.57
910.035	690
910.208	665.39
910.381	661.52
910.554	760.52
910.727	693.49
910.9	667.72
911.073	647.57
911.246	723.9
911.419	726.62
911.592	710.92
911.765	661.91
911.938	669.27
912.11	677.79
912.283	673.14
912.456	727
912.629	727
912.802	650.09
912.974	632.26
913.147	597.58
913.32	554.38
913.493	578.59
913.665	632.26
913.838	600.1
914.01	585.96
914.183	622.96
914.356	613.86
914.528	667.14
914.701	701.04
914.873	654.74
915.046	610.17
915.218	561.54
915.391	495.09
915.563	494.9
915.736	597.58
915.908	610.56
916.081	595.26
916.253	582.08
916.425	604.17
916.598	633.04
916.77	610.17
916.942	587.89
917.115	504.58
917.287	570.26
917.459	558.25
917.632	523.57
917.804	470.1
917.976	554.57
918.148	581.11
918.32	599.32
918.493	604.75
918.665	684.19
918.837	588.28
919.009	648.73
919.181	627.42
919.353	618.7
919.525	612.69
919.697	598.74
919.869	603.78
920.041	654.93
920.213	739.6
920.385	668.3
920.557	595.06
920.729	640.98
920.901	631.87
921.073	600.68
921.244	606.3
921.416	637.11
921.588	613.66
921.76	577.24
921.932	658.61
922.103	557.86
922.275	623.74
922.447	614.63
922.619	529.58
922.79	575.69
922.962	584.99
923.134	635.36
923.305	562.32
923.477	529.38
923.648	521.05
923.82	547.98
923.991	500.13
924.163	509.81
924.335	539.26
924.506	503.61
924.677	588.67
924.849	504.39
925.02	537.71
925.192	600.49
925.363	539.65
925.535	515.82
925.706	524.15
925.877	549.14
926.049	506.52
926.22	511.75
926.391	561.93
926.562	578.59
926.734	495.09
926.905	544.11
927.076	479.2
927.247	511.75
927.419	452.27
927.59	461.96
927.761	466.41
927.932	452.27
928.103	461.38
928.274	386.78
928.445	402.87
928.616	427.47
928.787	382.91
928.958	431.93
929.129	398.8
929.3	385.43
929.471	343.38
929.642	300.95
929.813	264.34
929.984	359.66
930.155	251.94
930.326	332.53
930.496	275.96
930.667	218.22
930.838	266.47
931.009	212.41
931.18	242.64
931.35	255.23
931.521	224.42
931.692	207.76
931.863	161.46
932.033	192.07
932.204	187.42
932.374	198.66
932.545	146.54
932.716	184.51
932.886	190.71
933.057	106.82
933.227	123.09
933.398	196.33
933.568	112.63
933.739	84.93
933.909	98.29
934.08	153.51
934.25	51.99
934.421	82.6
934.591	133.17
934.761	98.88
934.932	70.59
935.102	137.24
935.272	109.34
935.443	104.69
935.613	85.31
935.783	109.14
935.953	64.97
936.123	220.16
936.294	76.59
936.464	99.46
936.634	106.82
936.804	75.04
936.974	40.56
937.144	107.98
937.314	111.66
937.484	94.81
937.655	46.56
937.825	128.13
937.995	91.9
938.165	128.91
938.334	86.28
938.504	119.8
938.674	104.69
938.844	118.83
939.014	208.15
939.184	159.32
939.354	234.11
939.524	200.21
939.694	142.47
939.863	146.92
940.033	210.47
940.203	229.46
940.373	185.09
940.542	195.75
940.712	143.83
940.882	199.24
941.051	213.38
941.221	179.09
941.391	203.69
941.56	173.08
941.73	146.73
941.899	268.02
942.069	143.83
942.238	190.71
942.408	151.77
942.577	182.57
942.747	163.2
942.916	91.13
943.086	116.89
943.255	175.79
943.425	157.19
943.594	109.34
943.763	48.7
943.933	89.38
944.102	57.61
944.271	132.2
944.441	116.31
944.61	95.58
944.779	128.52
944.948	210.09
945.117	111.08
945.287	120.19
945.456	65.36
945.625	89.58
945.794	124.26
945.963	92.87
946.132	156.22
946.301	117.48
946.47	155.45
946.639	70.78
946.808	119.99
946.977	158.74
947.146	154.09
947.315	107.59
947.484	137.63
947.653	138.79
947.822	94.42
947.991	88.22
948.16	178.89
948.329	174.82
948.498	144.41
948.666	131.04
948.835	160.1
949.004	68.46
949.173	77.37
949.341	113.02
949.51	132.01
949.679	170.95
949.847	132.59
950.016	208.34
950.185	160.68
950.353	103.33
950.522	127.36
950.69	168.43
950.859	83.76
951.028	171.72
951.196	134.33
951.365	105.27
951.533	118.25
951.701	138.21
951.87	136.27
952.038	106.82
952.207	105.85
952.375	177.73
952.543	113.99
952.712	97.71
952.88	75.04
953.048	180.44
953.217	126
953.385	138.59
953.553	158.74
953.721	125.61
953.89	116.12
954.058	58.77
954.226	106.63
954.394	141.11
954.562	75.04
954.73	105.66
954.898	101.98
955.067	156.81
955.235	127.55
955.403	134.53
955.571	181.02
955.739	125.42
955.907	99.84
956.075	94.61
956.243	83.57
956.41	127.16
956.578	64.39
956.746	65.36
956.914	94.61
957.082	143.44
957.25	136.46
957.418	103.91
957.585	132.98
957.753	170.95
957.921	105.08
958.089	102.94
958.256	160.49
958.424	121.54
958.592	116.7
958.759	91.9
958.927	161.46
959.095	79.5
959.262	123.09
959.43	95.19
959.597	91.71
959.765	110.11
959.932	82.21
960.1	140.92
960.267	113.99
960.435	111.28
960.602	151.96
960.77	105.46
960.937	84.73
961.104	110.89
961.272	83.76
961.439	96.16
961.606	123.68
961.774	126.58
961.941	97.33
962.108	137.04
962.275	135.88
962.443	179.47
962.61	150.02
962.777	199.62
962.944	166.88
963.111	95.39
963.278	148.67
963.446	143.63
963.613	112.63
963.78	144.99
963.947	150.02
964.114	129.49
964.281	205.24
964.448	162.81
964.615	105.27
964.782	161.65
964.949	138.79
965.116	153.71
965.282	189.94
965.449	130.46
965.616	101.2
965.783	160.68
965.95	154.29
966.117	99.26
966.283	123.87
966.45	163.01
966.617	132.39
966.784	198.46
966.95	169.98
967.117	181.41
967.284	84.34
967.45	147.89
967.617	181.99
967.784	136.27
967.95	184.32
968.117	139.56
968.283	179.67
968.45	256.78
968.616	143.05
968.783	175.99
968.949	161.26
969.116	173.86
969.282	147.51
969.449	163.01
969.615	139.76
969.781	115.54
969.948	131.04
970.114	123.87
970.28	209.12
970.447	135.49
970.613	207.37
970.779	167.27
970.945	156.03
971.112	174.44
971.278	145.57
971.444	153.12
971.61	195.75
971.776	150.61
971.942	162.42
972.108	163.59
972.275	144.21
972.441	130.84
972.607	224.62
972.773	117.67
972.939	182.77
973.105	154.87
973.271	102.75
973.437	126.19
973.602	119.22
973.768	158.16
973.934	140.92
974.1	144.79
974.266	83.57
974.432	146.15
974.598	94.61
974.763	149.25
974.929	116.31
975.095	197.88
975.261	128.33
975.426	89.58
975.592	123.29
975.758	197.69
975.923	82.02
976.089	86.67
976.255	183.93
976.42	168.43
976.586	119.03
976.751	154.29
976.917	209.12
977.082	194.97
977.248	84.93
977.413	72.53
977.579	133.36
977.744	136.85
977.91	119.22
978.075	118.06
978.24	136.66
978.406	115.34
978.571	120.19
978.736	113.79
978.902	128.33
979.067	89.19
979.232	54.51
979.397	141.5
979.563	155.26
979.728	98.68
979.893	124.64
980.058	79.11
980.223	140.92
980.388	132.78
980.554	101.2
980.719	81.05
980.884	150.02
981.049	168.82
981.214	107.79
981.379	140.73
981.544	123.87
981.709	112.63
981.874	113.02
982.039	134.91
982.204	155.64
982.368	127.94
982.533	102.17
982.698	138.01
982.863	165.14
983.028	77.56
983.193	113.79
983.357	128.71
983.522	138.59
983.687	113.79
983.852	95.39
984.016	120.96
984.181	148.86
984.346	127.74
984.51	149.44
984.675	131.62
984.839	146.92
985.004	134.14
985.168	151.57
985.333	135.11
985.498	83.57
985.662	138.98
985.827	118.25
985.991	118.44
986.155	91.32
986.32	142.86
986.484	170.17
986.649	140.14
986.813	66.52
986.977	105.85
987.142	133.56
987.306	90.35
987.47	91.51
987.634	109.53
987.799	116.51
987.963	101.39
988.127	135.88
988.291	176.18
988.455	101.39
988.62	119.99
988.784	135.11
988.948	127.36
989.112	82.02
989.276	114.18
989.44	110.31
989.604	86.86
989.768	86.86
989.932	176.57
990.096	73.88
990.26	81.44
990.424	85.7
990.588	115.54
990.752	159.32
990.915	148.28
991.079	94.61
991.243	91.9
991.407	123.48
991.571	100.23
991.734	124.84
991.898	111.28
992.062	190.32
992.226	75.63
992.389	84.54
992.553	41.14
992.717	74.85
992.88	79.5
993.044	91.51
993.207	73.49
993.371	140.53
993.535	110.89
993.698	94.03
993.862	142.28
994.025	118.83
994.189	88.22
994.352	94.23
994.515	115.34
994.679	129.49
994.842	89.58
995.006	137.63
995.169	66.13
995.332	58.96
995.496	94.81
995.659	45.98
995.822	88.41
995.985	124.84
996.149	126
996.312	107.01
996.475	160.87
996.638	89.96
996.801	120.77
996.964	156.42
997.128	86.48
997.291	89.19
997.454	101.01
997.617	52.96
997.78	100.81
997.943	47.73
998.106	140.73
998.269	83.18
998.432	68.65
998.595	97.52
998.758	15.37
998.92	81.05
999.083	22.73
999.246	93.06
999.409	57.8
999.572	25.83
999.735	78.53
999.897	84.15
1000.06	79.5
1000.223	77.18
1000.386	121.54
1000.548	96.36
1000.711	80.28
1000.874	92.87
1001.036	17.89
1001.199	111.08
1001.361	67.1
1001.524	90.54
1001.687	99.07
1001.849	49.86
1002.012	82.6
1002.174	88.61
1002.337	98.88
1002.499	46.95
1002.661	93.45
1002.824	23.9
1002.986	31.06
1003.149	46.18
1003.311	50.63
1003.473	82.21
1003.636	40.95
1003.798	89.77
1003.96	106.04
1004.123	81.63
1004.285	48.11
1004.447	62.45
1004.609	64.19
1004.771	148.28
1004.933	18.86
1005.096	31.26
1005.258	10.53
1005.42	66.52
1005.582	113.79
1005.744	81.44
1005.906	16.92
1006.068	62.84
1006.23	27
1006.392	8.4
1006.554	41.53
1006.716	77.18
1006.878	94.23
1007.04	32.61
1007.202	52.96
1007.363	60.51
1007.525	91.32
1007.687	75.24
1007.849	122.32
1008.011	11.11
1008.172	28.35
1008.334	28.55
1008.496	76.98
1008.658	-6.14
1008.819	49.08
1008.981	34.55
1009.143	45.01
1009.304	47.34
1009.466	67.1
1009.627	113.79
1009.789	172.69
1009.95	76.79
1010.112	44.63
1010.273	71.17
1010.435	30.87
1010.596	57.8
1010.758	32.03
1010.919	27.58
1011.081	44.43
1011.242	53.35
1011.403	79.31
1011.565	57.41
1011.726	68.26
1011.887	-15.05
1012.049	32.23
1012.21	100.04
1012.371	100.81
1012.532	-19.5
1012.693	43.08
1012.855	40.95
1013.016	55.48
1013.177	77.76
1013.338	52.57
1013.499	105.85
1013.66	70.39
1013.821	57.41
1013.982	71.17
1014.143	46.18
1014.304	53.54
1014.465	63.42
1014.626	96.36
1014.787	7.04
1014.948	125.03
1015.109	-14.47
1015.27	98.68
1015.431	35.91
1015.592	40.75
1015.752	122.13
1015.913	62.84
1016.074	58
1016.235	72.53
1016.395	52.18
1016.556	56.45
1016.717	32.81
1016.877	88.8
1017.038	53.54
1017.199	50.05
1017.359	38.23
1017.52	43.27
1017.681	28.16
1017.841	45.01
1018.002	27.58
1018.162	19.25
1018.323	102.75
1018.483	41.53
1018.644	9.75
1018.804	5.3
1018.964	9.75
1019.125	29.32
1019.285	47.53
1019.446	10.72
1019.606	1.42
1019.766	-1.49
1019.926	56.06
1020.087	50.05
1020.247	-16.02
1020.407	64.19
1020.567	106.04
1020.728	35.52
1020.888	-14.85
1021.048	15.37
1021.208	-9.82
1021.368	1.42
1021.528	78.14
1021.688	52.76
1021.848	42.69
1022.008	34.16
1022.168	28.93
1022.328	36.3
1022.488	53.93
1022.648	49.08
1022.808	33
1022.968	58
1023.128	9.36
1023.288	4.13
1023.448	41.14
1023.608	64.58
1023.767	37.07
1023.927	12.08
1024.087	2.58
1024.247	3.16
1024.406	2
1024.566	-17.76
1024.726	-16.21
1024.885	35.33
1025.045	37.26
1025.205	21.57
1025.364	6.85
1025.524	16.15
1025.683	31.26
1025.843	23.51
1026.003	42.3
1026.162	80.28
1026.321	70.78
1026.481	14.6
1026.64	0.26
1026.8	39.4
1026.959	17.31
1027.119	49.86
1027.278	17.11
1027.437	15.18
1027.597	40.36
1027.756	20.8
1027.915	33.78
1028.074	23.9
1028.234	-3.81
1028.393	12.46
1028.552	19.44
1028.711	-51.28
1028.87	47.15
1029.03	-9.04
1029.189	33.39
1029.348	-34.42
1029.507	4.52
1029.666	6.46
1029.825	-12.72
1029.984	-0.52
1030.143	43.27
1030.302	26.41
1030.461	-38.68
1030.62	17.89
1030.779	45.21
1030.938	14.6
1031.097	-24.15
1031.255	30.48
1031.414	99.26
1031.573	39.4
1031.732	-19.12
1031.891	36.1
1032.049	98.68
1032.208	36.3
1032.367	-11.37
1032.525	0.65
1032.684	10.72
1032.843	44.82
1033.001	-15.82
1033.16	135.88
1033.319	66.71
1033.477	48.5
1033.636	2
1033.794	-31.71
1033.953	50.25
1034.111	42.88
1034.27	15.76
1034.428	33.58
1034.587	-24.54
1034.745	33.39
1034.903	18.86
1035.062	37.26
1035.22	-33.26
1035.378	53.54
1035.537	-32.87
1035.695	50.44
1035.853	16.53
1036.011	51.6
1036.17	34.16
1036.328	-33.26
1036.486	37.85
1036.644	32.23
1036.802	-60.58
1036.96	-36.36
1037.119	27.38
1037.277	5.49
1037.435	-25.32
1037.593	-16.4
1037.751	16.53
1037.909	33.39
1038.067	33.39
