Data from gum_old_FLMT105791__164__15-47-51-250.txt Node

Date: Mon Mar 20 15:47:51 GMT 2023
User: antho
Spectrometer: FLMT10579
Trigger mode: 0
Integration Time (sec): 1.000000E-1
Scans to average: 10
Electric dark correction enabled: true
Nonlinearity correction enabled: false
Boxcar width: 0
XAxis mode: Wavelengths
Number of Pixels in Spectrum: 3648
>>>>>Begin Spectral Data<<<<<
345.248	-167.7
345.464	-167.7
345.681	-167.7
345.898	-205.1
346.114	-196.38
346.331	-58.24
346.548	40.96
346.764	-18.52
346.981	14.22
347.197	-10.77
347.414	18.68
347.631	-17.55
347.847	50.84
348.064	15.97
348.28	15.97
348.497	-48.94
348.713	-2.63
348.93	37.09
349.146	17.91
349.363	25.46
349.579	8.41
349.796	17.32
350.012	-5.73
350.229	54.14
350.445	41.54
350.661	-12.32
350.878	6.09
351.094	27.21
351.311	31.27
351.527	41.35
351.743	-12.51
351.96	51.62
352.176	65.76
352.392	55.69
352.609	48.71
352.825	21.97
353.041	41.93
353.257	7.06
353.474	31.66
353.69	36.12
353.906	31.47
354.122	-14.64
354.339	58.79
354.555	15.58
354.771	23.33
354.987	70.8
355.203	91.92
355.42	7.25
355.636	5.31
355.852	40.96
356.068	39.99
356.284	-7.48
356.5	71.38
356.716	50.84
356.932	15
357.148	36.31
357.364	16.74
357.58	73.9
357.796	71.38
358.012	78.74
358.228	32.82
358.444	-68.31
358.66	80.1
358.876	64.4
359.092	6.28
359.308	47.55
359.524	50.26
359.74	25.46
359.956	-2.05
360.172	24.11
360.388	86.3
360.604	15.58
360.819	110.13
361.035	48.71
361.251	89.98
361.467	5.7
361.683	97.92
361.898	51.23
362.114	99.47
362.33	39.02
362.546	60.92
362.762	37.86
362.977	49.1
363.193	-4.96
363.409	73.32
363.624	15.19
363.84	15.97
364.056	20.04
364.271	56.27
364.487	52.78
364.703	9.57
364.918	15.97
365.134	50.65
365.35	8.99
365.565	127.37
365.781	66.54
365.996	91.72
366.212	115.17
366.427	78.94
366.643	21.59
366.858	27.79
367.074	26.62
367.289	104.12
367.505	152.95
367.72	-2.44
367.936	18.49
368.151	104.32
368.367	67.89
368.582	78.16
368.798	38.06
369.013	85.91
369.228	61.11
369.444	73.12
369.659	101.8
369.874	72.15
370.09	128.34
370.305	-11.93
370.52	43.29
370.736	116.33
370.951	89.2
371.166	95.21
371.381	107.61
371.597	72.15
371.812	9.57
372.027	37.09
372.242	62.66
372.458	123.89
372.673	33.99
372.888	35.73
373.103	83
373.318	153.72
373.533	62.27
373.749	92.3
373.964	14.61
374.179	101.22
374.394	33.99
374.609	88.04
374.824	9.77
375.039	95.79
375.254	74.09
375.469	111.49
375.684	54.91
375.899	105.29
376.114	75.64
376.329	84.75
376.544	96.37
376.759	77.39
376.974	48.13
377.189	44.06
377.404	56.85
377.619	120.98
377.834	-1.86
378.049	20.04
378.264	22.94
378.478	84.36
378.693	61.89
378.908	93.08
379.123	77.19
379.338	108.97
379.553	95.21
379.767	72.93
379.982	95.21
380.197	105.48
380.412	56.65
380.626	90.75
380.841	164.77
381.056	90.95
381.271	137.06
381.485	62.85
381.7	26.82
381.915	90.17
382.129	61.89
382.344	45.22
382.559	61.69
382.773	120.01
382.988	16.55
383.202	79.52
383.417	37.47
383.632	185.5
383.846	51.23
384.061	45.81
384.275	67.12
384.49	83.97
384.704	93.08
384.919	107.03
385.133	71.19
385.348	103.93
385.562	35.54
385.777	125.24
385.991	91.53
386.206	80.49
386.42	47.74
386.634	131.64
386.849	94.24
387.063	90.75
387.277	85.33
387.492	49.1
387.706	67.7
387.92	49.49
388.135	115.36
388.349	73.9
388.563	106.84
388.778	124.08
388.992	118.27
389.206	119.43
389.42	170
389.635	123.89
389.849	140.55
390.063	159.15
390.277	149.65
390.491	172.13
390.706	146.75
390.92	154.5
391.134	126.6
391.348	145.78
391.562	58.59
391.776	122.34
391.99	101.22
392.205	138.8
392.419	100.44
392.633	100.83
392.847	157.6
393.061	57.62
393.275	196.35
393.489	101.22
393.703	85.72
393.917	119.82
394.131	64.02
394.345	114.39
394.559	148.88
394.773	116.14
394.986	143.84
395.2	113.23
395.414	185.11
395.628	69.83
395.842	145.78
396.056	151.98
396.27	62.47
396.484	147.52
396.697	138.22
396.911	159.92
397.125	144.23
397.339	141.71
397.553	120.98
397.766	177.55
397.98	184.14
398.194	186.85
398.408	164.77
398.621	193.83
398.835	203.71
399.049	153.72
399.262	221.15
399.476	202.35
399.69	247.11
399.903	271.13
400.117	168.06
400.331	252.53
400.544	177.36
400.758	307.36
400.971	244.78
401.185	269.78
401.398	194.22
401.612	271.33
401.826	240.71
402.039	251.76
402.253	218.24
402.466	259.12
402.68	243.43
402.893	271.52
403.106	284.7
403.32	231.22
403.533	280.24
403.747	244.59
403.96	248.08
404.174	270.94
404.387	228.51
404.6	245.56
404.814	305.43
405.027	250.98
405.24	264.93
405.454	235.29
405.667	302.91
405.88	198.87
406.094	255.63
406.307	305.81
406.52	271.13
406.733	214.75
406.947	202.93
407.16	331
407.373	307.36
407.586	219.79
407.799	227.73
408.012	293.41
408.226	254.66
408.439	323.25
408.652	236.06
408.865	297.1
409.078	338.75
409.291	301.94
409.504	259.12
409.717	320.34
409.93	327.32
410.143	287.02
410.357	202.55
410.57	222.5
410.783	248.08
410.996	277.91
411.209	270.94
411.421	314.73
411.634	300.39
411.847	286.44
412.06	324.99
412.273	290.7
412.486	311.24
412.699	407.14
412.912	324.61
413.125	330.23
413.338	330.81
413.55	318.6
413.763	319.18
413.976	311.43
414.189	269.58
414.402	305.43
414.615	370.14
414.827	279.27
415.04	371.11
415.253	346.89
415.466	374.4
415.678	405.01
415.891	340.11
416.104	350.57
416.316	316.86
416.529	309.88
416.742	386.03
416.954	399.78
417.167	350.96
417.38	337.78
417.592	350.38
417.805	320.34
418.017	275.01
418.23	356.58
418.442	343.79
418.655	323.83
418.868	337.98
419.08	378.28
419.293	379.44
419.505	369.56
419.718	387.58
419.93	395.91
420.142	361.61
420.355	387.58
420.567	405.4
420.78	366.26
420.992	347.66
421.205	421.87
421.417	334.88
421.629	357.93
421.842	345.53
422.054	339.14
422.266	431.36
422.479	436.21
422.691	356.77
422.903	398.62
423.115	349.6
423.328	359.87
423.54	397.07
423.752	378.86
423.964	352.31
424.177	366.26
424.389	390.48
424.601	466.62
424.813	422.45
425.025	434.66
425.238	406.95
425.45	374.21
425.662	373.43
425.874	725.47
426.086	409.86
426.298	413.54
426.51	414.51
426.722	388.54
426.934	392.61
427.146	433.49
427.358	391.06
427.57	429.81
427.782	387.19
427.994	383.12
428.206	364.52
428.418	355.03
428.63	433.69
428.842	462.36
429.054	419.16
429.266	416.83
429.478	366.84
429.69	398.23
429.902	330.03
430.114	413.15
430.325	407.14
430.537	359.09
430.749	358.71
430.961	272.1
431.173	332.55
431.384	363.74
431.596	256.41
431.808	341.27
432.02	411.99
432.231	456.74
432.443	515.06
432.655	465.46
432.867	407.34
433.078	441.63
433.29	535.6
433.502	477.47
433.713	503.05
433.925	460.42
434.136	545.67
434.348	413.34
434.56	384.28
434.771	534.44
434.983	374.21
435.194	404.82
435.406	475.15
435.617	536.37
435.829	540.64
436.04	506.73
436.252	531.34
436.463	575.9
436.675	581.71
436.886	543.15
437.098	532.89
437.309	610.97
437.521	550.32
437.732	550.71
437.943	498.59
438.155	527.65
438.366	465.46
438.578	576.87
438.789	497.82
439	493.75
439.211	471.66
439.423	500.92
439.634	554
439.845	553.62
440.057	555.17
440.268	570.09
440.479	537.54
440.69	548.39
440.902	554.78
441.113	517.58
441.324	499.17
441.535	581.71
441.746	622.59
441.957	516.61
442.168	571.25
442.38	607.48
442.591	604.77
442.802	595.66
443.013	584.23
443.224	611.74
443.435	574.93
443.646	625.69
443.857	565.05
444.068	562.53
444.279	552.65
444.49	692.15
444.701	585
444.912	711.91
445.123	671.61
445.334	629.76
445.545	627.43
445.756	608.06
445.967	564.08
446.178	597.98
446.388	654.37
446.599	616
446.81	624.14
447.021	609.42
447.232	645.65
447.443	682.65
447.653	623.37
447.864	698.93
448.075	681.68
448.286	704.35
448.496	648.75
448.707	689.24
448.918	636.73
449.129	748.91
449.339	612.13
449.55	710.94
449.761	646.62
449.971	706.48
450.182	670.64
450.393	682.65
450.603	652.62
450.814	736.9
451.024	740.58
451.235	774.1
451.446	776.62
451.656	772.16
451.867	708.03
452.077	701.25
452.288	765.19
452.498	750.27
452.709	696.41
452.919	706.29
453.13	657.66
453.34	723.15
453.55	636.73
453.761	698.73
453.971	706.29
454.182	720.05
454.392	735.35
454.602	785.92
454.813	738.06
455.023	740.39
455.233	675.29
455.444	726.83
455.654	651.46
455.864	697.96
456.075	703
456.285	696.02
456.495	710.75
456.705	757.24
456.916	787.66
457.126	800.84
457.336	768.87
457.546	696.6
457.756	697.76
457.967	804.33
458.177	728.57
458.387	734.19
458.597	701.45
458.807	728.38
459.017	716.17
459.227	749.5
459.437	724.31
459.647	783.4
459.857	760.34
460.068	719.85
460.278	806.46
460.488	763.06
460.698	839.01
460.908	776.81
461.117	716.36
461.327	736.9
461.537	797.93
461.747	797.16
461.957	775.65
462.167	886.09
462.377	810.91
462.587	776.23
462.797	840.17
463.007	786.89
463.216	824.28
463.426	863.81
463.636	836.29
463.846	737.29
464.056	796.77
464.265	801.81
464.475	775.26
464.685	795.61
464.895	794.44
465.104	779.53
465.314	871.17
465.524	789.02
465.733	768.87
465.943	861.48
466.153	895.97
466.362	858.38
466.572	802.39
466.782	833.19
466.991	821.96
467.201	880.08
467.41	759.96
467.62	846.17
467.829	812.85
468.039	843.46
468.249	849.47
468.458	859.16
468.668	870.2
468.877	872.91
469.086	910.89
469.296	900.04
469.505	834.16
469.715	951.96
469.924	927.94
470.134	963.59
470.343	925.8
470.552	886.09
470.762	867.49
470.971	873.3
471.18	876.21
471.39	902.75
471.599	872.52
471.808	934.33
472.018	890.35
472.227	961.84
472.436	976.95
472.645	947.5
472.855	922.32
473.064	1051.35
473.273	995.36
473.482	980.44
473.691	1035.47
473.901	1033.33
474.11	947.31
474.319	1109.28
474.528	996.14
474.737	1087.58
474.946	1054.84
475.155	1037.98
475.364	1073.25
475.573	1059.88
475.783	1069.57
475.992	1106.96
476.201	1110.06
476.41	1036.43
476.619	1029.46
476.828	1031.98
477.037	1052.32
477.245	1050.58
477.454	1118.97
477.663	1079.06
477.872	1094.75
478.081	1184.07
478.29	1108.12
478.499	1211.19
478.708	1198.21
478.917	1230.38
479.125	1133.31
479.334	1186.4
479.543	1166.83
479.752	1199.18
479.961	1205.77
480.169	1253.82
480.378	1205.19
480.587	1363.09
480.796	1246.65
481.004	1225.73
481.213	1254.21
481.422	1256.34
481.63	1251.49
481.839	1272.61
482.048	1345.07
482.256	1294.51
482.465	1317.37
482.674	1328.99
482.882	1313.11
483.091	1422.19
483.299	1314.85
483.508	1359.02
483.716	1353.79
483.925	1356.7
484.134	1309.62
484.342	1287.53
484.551	1402.23
484.759	1364.84
484.967	1385.37
485.176	1372.39
485.384	1390.8
485.593	1398.35
485.801	1378.59
486.01	1351.08
486.218	1290.05
486.426	1170.7
486.635	1198.02
486.843	1176.32
487.051	1247.04
487.26	1217.2
487.468	1270.48
487.676	1319.5
487.885	1302.84
488.093	1363.67
488.301	1414.05
488.509	1406.49
488.717	1465.97
488.926	1408.43
489.134	1407.07
489.342	1415.99
489.55	1382.27
489.758	1425.09
489.967	1434
490.175	1547.73
490.383	1515.38
490.591	1573.7
490.799	1462.1
491.007	1583
491.215	1533.2
491.423	1506.27
491.631	1520.42
491.839	1520.61
492.047	1559.94
492.255	1436.72
492.463	1440.98
492.671	1430.32
492.879	1508.02
493.087	1488.83
493.295	1514.6
493.503	1556.26
493.711	1557.81
493.919	1618.84
494.127	1595.78
494.334	1612.45
494.542	1567.5
494.75	1575.83
494.958	1599.46
495.166	1690.72
495.374	1609.93
495.581	1647.71
495.789	1652.74
495.997	1707.58
496.205	1632.59
496.412	1613.61
496.62	1603.53
496.828	1650.23
497.035	1645.38
497.243	1678.32
497.451	1671.15
497.658	1696.92
497.866	1658.17
498.074	1751.94
498.281	1649.45
498.489	1779.26
498.696	1660.3
498.904	1624.65
499.112	1628.33
499.319	1701.96
499.527	1683.74
499.734	1752.52
499.942	1603.34
500.149	1689.17
500.357	1682.39
500.564	1637.44
500.771	1664.95
500.979	1614.19
501.186	1617.48
501.394	1694.98
501.601	1639.38
501.808	1681.61
502.016	1637.44
502.223	1640.15
502.43	1682.39
502.638	1656.23
502.845	1626.39
503.052	1730.24
503.26	1648.48
503.467	1788.95
503.674	1720.56
503.881	1750.39
504.089	1818.98
504.296	1759.31
504.503	1657.39
504.71	1697.11
504.917	1661.08
505.125	1725.01
505.332	1755.04
505.539	1745.55
505.746	1839.9
505.953	1809.29
506.16	1806
506.367	1905
506.574	1903.84
506.781	1872.26
506.988	1806.77
507.195	1856.18
507.402	1823.63
507.609	1843.78
507.816	1806
508.023	1794.57
508.23	1797.86
508.437	1753.3
508.644	1775.58
508.851	1845.91
509.058	1875.36
509.265	1853.08
509.472	1871.29
509.679	1950.73
509.885	1866.25
510.092	1863.74
510.299	1848.82
510.506	1847.07
510.713	1848.62
510.92	1838.16
511.126	1876.52
511.333	1893.57
511.54	1917.02
511.746	1950.92
511.953	1946.47
512.16	1994.51
512.367	1965.07
512.573	1907.13
512.78	1922.83
512.987	1890.47
513.193	1891.63
513.4	1795.54
513.606	1913.33
513.813	1909.07
514.02	1898.8
514.226	1961.97
514.433	1936.58
514.639	1861.6
514.846	1907.52
515.052	1863.93
515.259	1911.78
515.465	1926.32
515.672	1949.76
515.878	2023.38
516.085	1960.8
516.291	1974.56
516.497	1941.43
516.704	1899.38
516.91	1832.54
517.117	1803.09
517.323	1722.69
517.529	1747.68
517.736	1738.57
517.942	1747.29
518.148	1768.02
518.354	1858.7
518.561	1844.17
518.767	1813.55
518.973	1896.67
519.179	1911.4
519.386	1812.39
519.592	1867.03
519.798	1884.47
520.004	2027.45
520.21	1956.15
520.417	1997.42
520.623	2086.93
520.829	2115.61
521.035	2091
521.241	2063.88
521.447	2088.68
521.653	2202.02
521.859	2090.42
522.065	2100.11
522.271	2185.55
522.477	2166.17
522.683	2226.62
522.889	2170.24
523.095	2141.57
523.301	2154.55
523.507	2076.47
523.713	2120.84
523.919	2098.94
524.125	2247.94
524.331	2213.45
524.537	2291.92
524.742	2311.29
524.948	2290.56
525.154	2267.31
525.36	2392.08
525.566	2305.29
525.772	2329.7
525.977	2245.61
526.183	2289.79
526.389	2363.8
526.595	2233.21
526.8	2211.51
527.006	2133.63
527.212	2101.08
527.417	2058.06
527.623	2045.28
527.829	2152.03
528.034	2193.88
528.24	2181.67
528.446	2220.81
528.651	2355.27
528.857	2357.4
529.062	2414.36
529.268	2366.9
529.473	2414.75
529.679	2421.53
529.884	2516.86
530.09	2471.71
530.295	2441.1
530.501	2441.1
530.706	2432.58
530.912	2409.33
531.117	2486.05
531.323	2437.23
531.528	2540.69
531.733	2545.73
531.939	2464.74
532.144	2515.5
532.35	2527.32
532.555	2504.46
532.76	2466.68
532.966	2519.57
533.171	2433.93
533.376	2376.2
533.581	2359.15
533.787	2447.69
533.992	2517.05
534.197	2481.98
534.402	2469.78
534.607	2516.28
534.813	2588.54
535.018	2453.7
535.223	2506.98
535.428	2521.31
535.633	2552.7
535.838	2587.57
536.043	2566.65
536.249	2661.2
536.454	2585.64
536.659	2592.61
536.864	2592.42
537.069	2581.18
537.274	2606.95
537.479	2563.94
537.684	2535.26
537.889	2487.8
538.094	2659.65
538.299	2574.98
538.504	2535.46
538.708	2593
538.913	2667.4
539.118	2597.26
539.323	2611.21
539.528	2586.99
539.733	2559.68
539.938	2601.72
540.142	2634.27
540.347	2575.56
540.552	2541.08
540.757	2536.43
540.962	2542.63
541.166	2470.16
541.371	2470.75
541.576	2551.73
541.781	2417.85
541.985	2564.91
542.19	2549.41
542.395	2661.78
542.599	2694.14
542.804	2616.44
543.008	2665.46
543.213	2567.43
543.418	2580.41
543.622	2604.82
543.827	2523.25
544.031	2647.06
544.236	2680.57
544.44	2642.02
544.645	2716.61
544.849	2610.82
545.054	2661.39
545.258	2757.1
545.463	2723.97
545.667	2608.89
545.872	2698.2
546.076	2666.43
546.281	2675.92
546.485	2636.79
546.689	2661.97
546.894	2720.29
547.098	2678.83
547.302	2636.01
547.507	2652.87
547.711	2679.8
547.915	2722.81
548.119	2602.49
548.324	2624.39
548.528	2699.95
548.732	2687.74
548.936	2701.3
549.141	2697.04
549.345	2670.89
549.549	2687.94
549.753	2705.95
549.957	2758.46
550.161	2769.89
550.366	2737.15
550.57	2677.28
550.774	2692.59
550.978	2695.1
551.182	2695.88
551.386	2647.83
551.59	2662.17
551.794	2622.06
551.998	2698.01
552.202	2666.04
552.406	2711.96
552.61	2748
552.814	2703.44
553.018	2739.09
553.222	2665.46
553.426	2706.34
553.63	2777.64
553.833	2702.08
554.037	2605.21
554.241	2694.52
554.445	2727.07
554.649	2703.63
554.853	2665.66
555.056	2731.92
555.26	2746.25
555.464	2740.44
555.668	2736.76
555.871	2768.73
556.075	2779.77
556.279	2680.38
556.483	2619.16
556.686	2697.62
556.89	2711.96
557.094	2717
557.297	2574.21
557.501	2676.7
557.704	2569.75
557.908	2643.18
558.112	2592.42
558.315	2719.13
558.519	2627.1
558.722	2571.49
558.926	2573.43
559.129	2526.35
559.333	2513.76
559.536	2515.31
559.74	2508.14
559.943	2465.9
560.147	2496.32
560.35	2498.84
560.553	2500.19
560.757	2447.11
560.96	2554.64
561.164	2516.66
561.367	2638.14
561.57	2573.43
561.774	2569.56
561.977	2503.49
562.18	2498.45
562.384	2622.84
562.587	2519.18
562.79	2482.76
562.993	2516.86
563.197	2561.23
563.4	2556.19
563.603	2580.6
563.806	2637.17
564.009	2503.1
564.212	2564.71
564.416	2469.2
564.619	2530.61
564.822	2428.7
565.025	2536.23
565.228	2506.2
565.431	2509.3
565.634	2404.87
565.837	2430.64
566.04	2390.15
566.243	2391.31
566.446	2315.36
566.649	2450.6
566.852	2367.28
567.055	2416.5
567.258	2370
567.461	2466.48
567.664	2460.28
567.867	2363.02
568.07	2417.27
568.273	2416.69
568.475	2462.8
568.678	2348.88
568.881	2376.97
569.084	2387.24
569.287	2238.44
569.489	2291.53
569.692	2360.5
569.895	2347.33
570.098	2260.92
570.3	2251.62
570.503	2241.35
570.706	2226.82
570.909	2243.67
571.111	2190.01
571.314	2174.51
571.516	2205.12
571.719	2255.1
571.922	2177.99
572.124	2175.67
572.327	2200.47
572.529	2158.23
572.732	2196.79
572.935	2220.81
573.137	2329.7
573.34	2186.71
573.542	2270.22
573.745	2258.98
573.947	2246.39
574.15	2236.89
574.352	2165.98
574.554	2257.04
574.757	2212.09
574.959	2185.16
575.162	2151.26
575.364	2150.29
575.566	2251.81
575.769	2079.96
575.971	2128.2
576.173	2006.33
576.376	2158.23
576.578	2143.51
576.78	2214.42
576.982	2044.31
577.185	2127.43
577.387	2064.26
577.589	2085.19
577.791	2119.48
577.993	2103.01
578.196	2132.46
578.398	2094.29
578.6	2135.37
578.802	2052.83
579.004	2036.75
579.206	2031.52
579.408	2074.34
579.61	1999.75
579.812	2102.24
580.014	2026.1
580.216	2035.01
580.418	2041.98
580.62	2029.39
580.822	2026.1
581.024	2032.49
581.226	2070.27
581.428	2042.37
581.63	2131.69
581.832	2027.84
582.034	2105.34
582.236	2049.93
582.438	2094.29
582.64	2152.42
582.841	2139.24
583.043	2165.79
583.245	2085.58
583.447	2070.85
583.649	2069.49
583.85	2066.2
584.052	2091
584.254	2025.13
584.456	2107.66
584.657	2020.28
584.859	2042.95
585.061	2036.36
585.262	2026.1
585.464	1970.49
585.666	2058.06
585.867	2004.4
586.069	2050.9
586.27	2001.49
586.472	1992.19
586.674	1965.65
586.875	1975.14
587.077	1968.94
587.278	2009.63
587.48	1988.7
587.681	2109.21
587.883	1999.55
588.084	1912.75
588.285	1959.83
588.487	1947.05
588.688	1960.03
588.89	1869.16
589.091	1872.84
589.292	1850.95
589.494	1784.3
589.695	1785.85
589.896	1685.1
590.098	1709.13
590.299	1766.86
590.5	1726.76
590.702	1775
590.903	1771.71
591.104	1870.71
591.305	1861.8
591.507	1900.16
591.708	1859.67
591.909	1828.86
592.11	1970.3
592.311	1899.38
592.512	1838.55
592.714	1788.76
592.915	1796.12
593.116	1824.99
593.317	1885.82
593.518	1828.28
593.719	1848.43
593.92	1882.34
594.121	1894.54
594.322	1828.09
594.523	1859.47
594.724	1796.31
594.925	1825.18
595.126	1835.45
595.327	1841.07
595.528	1870.13
595.729	1862.19
595.929	1826.34
596.13	1851.53
596.331	1809.1
596.532	1875.36
596.733	1930.58
596.934	1871.87
597.135	1890.28
597.335	1855.4
597.536	1807.55
597.737	1840.29
597.938	1816.46
598.138	1832.93
598.339	1830.41
598.54	1855.99
598.74	1789.14
598.941	1842.04
599.142	1874.78
599.342	1853.47
599.543	1799.8
599.744	1793.02
599.944	1788.17
600.145	1812.97
600.345	1797.86
600.546	1886.21
600.746	1892.41
600.947	1906.94
601.147	1804.06
601.348	1864.12
601.548	1774.42
601.749	1823.44
601.949	1780.42
602.15	1808.32
602.35	1786.43
602.551	1857.34
602.751	1724.82
602.951	1775
603.152	1710.68
603.352	1857.15
603.552	1813.55
603.753	1808.32
603.953	1880.79
604.153	1854.05
604.354	1788.76
604.554	1789.72
604.754	1834.87
604.954	1759.11
605.155	1831.57
605.355	1790.69
605.555	1814.52
605.755	1895.12
605.955	1821.89
606.155	1807.16
606.356	1811.81
606.556	1787.21
606.756	1799.6
606.956	1720.17
607.156	1850.75
607.356	1760.08
607.556	1796.12
607.756	1796.51
607.956	1812
608.156	1780.42
608.356	1734.31
608.556	1789.14
608.756	1777.13
608.956	1691.69
609.156	1761.24
609.356	1695.37
609.556	1723.07
609.755	1750.2
609.955	1724.62
610.155	1721.14
610.355	1734.51
610.555	1662.24
610.755	1717.65
610.954	1627.94
611.154	1724.04
611.354	1741.48
611.554	1692.46
611.753	1678.13
611.953	1632.4
612.153	1702.54
612.352	1702.54
612.552	1644.22
612.752	1612.45
612.951	1650.23
613.151	1660.49
613.351	1672.31
613.55	1664.18
613.75	1705.64
613.949	1641.31
614.149	1655.84
614.348	1634.53
614.548	1590.16
614.747	1570.98
614.947	1587.45
615.146	1544.83
615.346	1640.15
615.545	1647.32
615.745	1629.11
615.944	1672.12
616.144	1631.82
616.343	1647.32
616.542	1587.06
616.742	1564.59
616.941	1561.68
617.14	1484.57
617.34	1558.78
617.539	1580.86
617.738	1495.42
617.938	1607.6
618.137	1572.15
618.336	1570.4
618.535	1595.78
618.734	1569.82
618.934	1597.14
619.133	1592.88
619.332	1567.5
619.531	1578.15
619.73	1590.36
619.929	1631.04
620.128	1567.5
620.328	1617.48
620.527	1561.88
620.726	1580.09
620.925	1597.72
621.124	1585.32
621.323	1592.88
621.522	1534.56
621.721	1547.54
621.92	1514.8
622.119	1569.24
622.318	1496.39
622.517	1522.55
622.715	1498.13
622.914	1476.82
623.113	1497.55
623.312	1466.55
623.511	1522.55
623.71	1509.18
623.909	1492.9
624.107	1575.63
624.306	1444.47
624.505	1425.29
624.704	1475.08
624.902	1464.03
625.101	1517.9
625.3	1473.53
625.499	1434.97
625.697	1482.83
625.896	1428.58
626.095	1503.17
626.293	1400.87
626.492	1401.26
626.69	1465.78
626.889	1450.28
627.088	1513.63
627.286	1450.47
627.485	1449.31
627.683	1447.76
627.882	1475.85
628.08	1387.89
628.279	1405.72
628.477	1502.2
628.676	1399.52
628.874	1455.51
629.073	1399.71
629.271	1365.61
629.469	1442.92
629.668	1406.1
629.866	1432.84
630.065	1384.21
630.263	1440.2
630.461	1350.69
630.66	1423.35
630.858	1413.27
631.056	1484.18
631.254	1465.58
631.453	1383.24
631.651	1422.57
631.849	1409.01
632.047	1385.18
632.245	1391.96
632.444	1392.35
632.642	1414.82
632.84	1407.65
633.038	1378.59
633.236	1361.35
633.434	1387.7
633.632	1363.29
633.83	1370.26
634.028	1426.45
634.227	1397.77
634.425	1461.71
634.623	1369.29
634.821	1395.25
635.019	1346.43
635.216	1382.27
635.414	1409.4
635.612	1410.37
635.81	1368.71
636.008	1456.87
636.206	1374.33
636.404	1425.87
636.602	1350.69
636.8	1351.86
636.997	1374.14
637.195	1383.05
637.393	1372.2
637.591	1434.39
637.789	1380.72
637.986	1352.05
638.184	1418.89
638.382	1434.39
638.58	1381.69
638.777	1445.24
638.975	1383.44
639.173	1352.82
639.37	1411.34
639.568	1375.3
639.765	1410.56
639.963	1349.92
640.161	1434.39
640.358	1386.15
640.556	1291.02
640.753	1329.96
640.951	1312.72
641.148	1317.37
641.346	1310.2
641.543	1297.41
641.741	1337.32
641.938	1285.4
642.136	1316.21
642.333	1309.23
642.531	1358.06
642.728	1362.51
642.925	1368.71
643.123	1318.14
643.32	1307.1
643.517	1327.64
643.715	1313.69
643.912	1315.04
644.109	1299.93
644.306	1279.2
644.504	1295.86
644.701	1283.27
644.898	1342.56
645.095	1274.55
645.293	1281.14
645.49	1325.89
645.687	1310.01
645.884	1338.49
646.081	1195.5
646.278	1255.37
646.475	1246.65
646.672	1242
646.87	1269.13
647.067	1279.97
647.264	1229.99
647.461	1218.56
647.658	1189.11
647.855	1268.54
648.052	1227.28
648.249	1114.13
648.446	1218.75
648.642	1184.07
648.839	1162.18
649.036	1165.86
649.233	1164.11
649.43	1163.53
649.627	1120.71
649.824	1159.27
650.021	1143.19
650.217	1125.56
650.414	1158.69
650.611	1198.41
650.808	1189.11
651.004	1189.49
651.201	1204.8
651.398	1252.27
651.595	1206.93
651.791	1152.1
651.988	1218.75
652.185	1151.71
652.381	1220.3
652.578	1100.18
652.775	1154.81
652.971	1167.6
653.168	1156.17
653.364	1187.36
653.561	1112.58
653.757	1160.24
653.954	1172.64
654.15	1128.08
654.347	1212.55
654.543	1165.28
654.74	1103.66
654.936	1115.29
655.133	1131.37
655.329	1155.59
655.525	1089.72
655.722	1177.87
655.918	1084.48
656.115	1118.58
656.311	1012.22
656.507	988.19
656.704	927.55
656.9	971.72
657.096	962.81
657.292	961.65
657.489	1033.14
657.685	1049.22
657.881	1020.16
658.077	1037.02
658.273	1087.2
658.47	1122.46
658.666	1073.25
658.862	1129.05
659.058	1071.7
659.254	1110.06
659.45	1051.35
659.646	1071.7
659.842	1106.18
660.038	1124.4
660.234	1055.23
660.43	1072.67
660.626	1160.24
660.822	1129.63
661.018	1154.62
661.214	1097.47
661.41	1057.55
661.606	1123.23
661.802	1141.64
661.998	1087.97
662.194	1069.76
662.39	1107.35
662.586	1116.26
662.781	1135.63
662.977	1149.39
663.173	1118.2
663.369	1096.11
663.564	1107.35
663.76	1127.3
663.956	1059.68
664.152	1125.17
664.347	1023.07
664.543	1076.54
664.739	1064.14
664.934	1020.35
665.13	987.22
665.326	1067.63
665.521	1072.47
665.717	1031.01
665.912	1044.96
666.108	986.84
666.304	1027.72
666.499	1046.9
666.695	1000.2
666.89	1033.72
667.086	1069.37
667.281	1043.22
667.477	1107.73
667.672	1037.98
667.867	1029.65
668.063	1068.79
668.258	994.59
668.454	1053.1
668.649	1104.25
668.844	1058.72
669.04	1060.65
669.235	1002.34
669.43	1025.39
669.626	989.16
669.821	1011.44
670.016	986.45
670.211	1024.62
670.407	986.06
670.602	1048.64
670.797	988
670.992	1054.07
671.187	983.15
671.382	1029.46
671.578	960.49
671.773	1047.67
671.968	934.52
672.163	1000.79
672.358	1030.43
672.553	967.07
672.748	963
672.943	1045.93
673.138	1012.99
673.333	1009.5
673.528	980.64
673.723	1016.67
673.918	988.97
674.113	965.33
674.308	1050.19
674.503	1014.54
674.698	1023.07
674.892	988.19
675.087	1046.7
675.282	1012.99
675.477	961.26
675.672	1016.67
675.867	949.05
676.061	947.89
676.256	930.65
676.451	953.9
676.646	983.93
676.84	951.96
677.035	911.47
677.23	933.36
677.424	1021.9
677.619	1004.66
677.814	1004.47
678.008	1019.19
678.203	882.99
678.397	949.83
678.592	987.42
678.787	1031.01
678.981	936.07
679.176	965.52
679.37	965.91
679.565	958.16
679.759	937.82
679.954	997.1
680.148	985.67
680.342	1016.09
680.537	976.37
680.731	952.15
680.926	972.5
681.12	988.77
681.314	949.05
681.509	954.48
681.703	965.72
681.897	976.18
682.092	945.95
682.286	942.27
682.48	1037.6
682.674	977.92
682.869	946.92
683.063	945.37
683.257	1018.03
683.451	966.88
683.645	1003.89
683.839	938.01
684.034	954.87
684.228	988.58
684.422	920.19
684.616	915.92
684.81	980.05
685.004	921.16
685.198	930.07
685.392	948.47
685.586	922.12
685.78	954.87
685.974	965.72
686.168	961.26
686.362	1017.06
686.556	918.44
686.75	866.13
686.944	870.39
687.138	896.55
687.331	742.33
687.525	776.23
687.719	747.95
687.913	838.04
688.107	814.98
688.301	797.35
688.494	839.39
688.688	803.94
688.882	750.66
689.076	748.91
689.269	799.48
689.463	901.01
689.657	787.47
689.85	805.29
690.044	832.61
690.238	809.56
690.431	815.18
690.625	821.57
690.818	889.57
691.012	850.24
691.205	898.68
691.399	823.12
691.593	869.23
691.786	927.16
691.98	912.63
692.173	985.29
692.366	936.85
692.56	959.52
692.753	988.97
692.947	886.67
693.14	958.35
693.333	961.84
693.527	900.23
693.72	968.62
693.914	894.81
694.107	908.95
694.3	962.23
694.493	901.97
694.687	933.55
694.88	885.12
695.073	995.55
695.266	964.55
695.46	946.54
695.653	1009.12
695.846	1002.34
696.039	932.78
696.232	936.46
696.425	984.7
696.618	1034.88
696.812	995.36
697.005	1066.08
697.198	1145.51
697.391	1062.4
697.584	1065.88
697.777	1118.97
697.97	1091.65
698.163	1118.2
698.356	1093.98
698.549	1167.99
698.742	1139.7
698.935	1096.3
699.127	1151.52
699.32	1121.49
699.513	1122.85
699.706	1135.05
699.899	1187.56
700.092	1118
700.285	1146.68
700.477	1097.08
700.67	1187.36
700.863	1204.8
701.056	1269.71
701.248	1273.97
701.441	1248.59
701.634	1199.57
701.826	1305.55
702.019	1198.99
702.212	1253.24
702.404	1249.17
702.597	1226.89
702.79	1272.03
702.982	1281.52
703.175	1356.12
703.367	1314.46
703.56	1324.34
703.752	1454.73
703.945	1407.85
704.137	1403.2
704.33	1435.75
704.522	1429.35
704.715	1438.46
704.907	1429.74
705.1	1523.9
705.292	1526.81
705.484	1502.4
705.677	1513.44
705.869	1553.35
706.061	1596.17
706.254	1627.75
706.446	1598.88
706.638	1594.62
706.831	1678.13
707.023	1634.14
707.215	1736.06
707.407	1749.23
707.599	1693.04
707.792	1729.08
707.984	1769.38
708.176	1820.72
708.368	1713.97
708.56	1804.84
708.752	1740.32
708.944	1771.51
709.136	1829.44
709.329	1813.36
709.521	1935.81
709.713	1901.52
709.905	1928.45
710.097	1959.25
710.289	1936.97
710.481	1967.58
710.672	1975.14
710.864	1982.7
711.056	2024.93
711.248	2030.75
711.44	2064.46
711.632	2049.15
711.824	2076.47
712.016	2114.06
712.207	2144.28
712.399	2133.63
712.591	2188.46
712.783	2192.14
712.975	2193.3
713.166	2164.62
713.358	2223.14
713.55	2269.64
713.741	2268.28
713.933	2254.33
714.125	2293.85
714.316	2274.67
714.508	2354.88
714.7	2350.43
714.891	2394.6
715.083	2436.06
715.274	2379.1
715.466	2420.76
715.657	2434.13
715.849	2358.37
716.04	2436.84
716.232	2342.68
716.423	2450.6
716.615	2408.36
716.806	2342.29
716.998	2347.13
717.189	2305.09
717.381	2235.54
717.572	2203.96
717.763	2267.89
717.955	2196.4
718.146	2175.47
718.337	2088.29
718.528	2108.83
718.72	2029.78
718.911	2098.56
719.102	2071.63
719.293	2118.51
719.485	2107.08
719.676	2078.6
719.867	2018.73
720.058	2066.98
720.249	2077.83
720.44	2069.11
720.632	2172.18
720.823	2224.69
721.014	2308.97
721.205	2375.23
721.396	2440.91
721.587	2511.82
721.778	2627.29
721.969	2645.7
722.16	2682.51
722.351	2687.35
722.542	2793.53
722.733	2845.65
722.924	2803.8
723.115	2851.65
723.305	2819.68
723.496	2838.28
723.687	2735.6
723.878	2741.8
724.069	2738.12
724.26	2750.9
724.45	2698.4
724.641	2673.21
724.832	2735.02
725.023	2700.34
725.213	2689.49
725.404	2658.49
725.595	2728.62
725.785	2690.45
725.976	2818.33
726.167	2760.98
726.357	2802.44
726.548	2928.18
726.739	2817.94
726.929	2958.41
727.12	2950.85
727.31	2949.88
727.501	2923.53
727.691	2933.22
727.882	2965.19
728.072	2990.18
728.263	3017.11
728.453	3070.2
728.644	3078.92
728.834	3072.91
729.024	3040.17
729.215	3028.16
729.405	3063.42
729.596	3143.44
729.786	3202.92
729.976	3211.63
730.167	3199.62
730.357	3152.74
730.547	3165.72
730.737	3259.68
730.928	3275.38
731.118	3333.31
731.308	3260.07
731.498	3290.3
731.688	3390.85
731.879	3384.07
732.069	3473.19
732.259	3500.12
732.449	3502.26
732.639	3558.25
732.829	3629.94
733.019	3624.9
733.209	3697.55
733.399	3701.23
733.589	3823.49
733.779	3834.34
733.969	3810.51
734.159	3900.21
734.349	3959.69
734.539	3987.79
734.729	4020.72
734.919	4027.12
735.109	4103.65
735.299	4015.3
735.488	4055.4
735.678	4049.01
735.868	4057.54
736.058	4073.23
736.248	4050.37
736.437	4050.37
736.627	4015.88
736.817	4155.96
737.007	4121.28
737.196	4153.25
737.386	4104.81
737.576	4085.63
737.765	4173.01
737.955	4167.78
738.144	4279.76
738.334	4246.05
738.524	4158.67
738.713	4257.87
738.903	4232.1
739.092	4241.01
739.282	4249.54
739.471	4265.81
739.661	4256.9
739.85	4316.96
740.04	4256.9
740.229	4347.96
740.419	4357.84
740.608	4358.23
740.797	4362.69
740.987	4376.06
741.176	4406.86
741.365	4374.12
741.555	4354.16
741.744	4467.31
741.933	4385.94
742.123	4465.57
742.312	4433.21
742.501	4526.79
742.69	4520.59
742.88	4444.64
743.069	4571.93
743.258	4459.75
743.447	4558.57
743.636	4573.48
743.825	4509.16
744.014	4516.13
744.204	4618.43
744.393	4524.66
744.582	4589.57
744.771	4633.35
744.96	4570
745.149	4583.17
745.338	4546.94
745.527	4633.74
745.716	4579.88
745.905	4543.26
746.094	4649.63
746.283	4608.16
746.471	4640.52
746.66	4686.05
746.849	4624.25
747.038	4644.98
747.227	4645.36
747.416	4699.81
747.604	4660.28
747.793	4632.38
747.982	4640.71
748.171	4660.09
748.359	4675.78
748.548	4652.92
748.737	4655.44
748.926	4642.65
749.114	4577.75
749.303	4690.31
749.491	4631.22
749.68	4539.97
749.869	4697.68
750.057	4597.31
750.246	4602.16
750.434	4613.78
750.623	4604.48
750.811	4551.4
751	4648.46
751.188	4580.27
751.377	4593.63
751.565	4608.36
751.754	4531.44
751.942	4505.09
752.131	4624.44
752.319	4582.59
752.507	4551.78
752.696	4619.01
752.884	4578.13
753.072	4603.9
753.261	4608.75
753.449	4543.26
753.637	4525.24
753.825	4616.69
754.014	4527.37
754.202	4581.04
754.39	4616.3
754.578	4597.7
754.766	4478.74
754.955	4480.1
755.143	4620.56
755.331	4526.79
755.519	4531.25
755.707	4507.03
755.895	4497.92
756.083	4531.44
756.271	4460.14
756.459	4488.24
756.647	4523.3
756.835	4444.45
757.023	4455.88
757.211	4460.14
757.399	4429.53
757.587	4430.11
757.775	4425.07
757.963	4460.14
758.151	4441.35
758.339	4418.49
758.526	4377.41
758.714	4444.25
758.902	4289.06
759.09	4238.88
759.278	4015.88
759.465	3769.43
759.653	3387.75
759.841	3139.75
760.028	2736.57
760.216	2418.82
760.404	2278.35
760.591	1970.68
760.779	1679.68
760.967	1534.95
761.154	1367.94
761.342	1413.08
761.529	1402.81
761.717	1530.68
761.905	1546.57
762.092	1635.11
762.28	1559.94
762.467	1640.93
762.655	1574.47
762.842	1603.92
763.029	1612.25
763.217	1684.91
763.404	1654.29
763.592	1708.74
763.779	1681.42
763.966	1730.44
764.154	1803.09
764.341	1851.92
764.528	1862.96
764.716	1953.83
764.903	2009.24
765.09	2071.24
765.277	2122.78
765.465	2287.65
765.652	2387.24
765.839	2454.66
766.026	2587.77
766.213	2601.72
766.4	2740.83
766.588	2952.01
766.775	2936.9
766.962	3069.42
767.149	3115.34
767.336	3293.2
767.523	3205.63
767.71	3333.5
767.897	3522.6
768.084	3549.14
768.271	3579.37
768.458	3686.51
768.645	3767.5
768.832	3665.58
769.019	3760.91
769.206	3772.34
769.392	3810.89
769.579	3933.92
769.766	3845.58
769.953	3869.99
770.14	3921.52
770.327	3895.95
770.513	3984.3
770.7	4056.95
770.887	3861.27
771.073	3976.74
771.26	3971.12
771.447	3933.92
771.634	3876.19
771.82	4060.05
772.007	3891.49
772.193	3964.54
772.38	3976.16
772.567	3923.66
772.753	3935.09
772.94	4003.29
773.126	4007.74
773.313	3989.72
773.499	3964.34
773.686	4002.9
773.872	3867.86
774.059	3975.39
774.245	3884.13
774.432	3894.59
774.618	3820.97
774.804	3877.74
774.991	3858.75
775.177	3919.59
775.363	3857.59
775.55	3902.15
775.736	3813.8
775.922	3871.54
776.109	3832.4
776.295	3842.67
776.481	3910.67
776.667	3900.02
776.853	3822.91
777.04	3749.28
777.226	3819.81
777.412	3864.76
777.598	3753.35
777.784	3791.33
777.97	3781.64
778.156	3793.65
778.342	3809.54
778.528	3746.57
778.715	3679.73
778.901	3746.76
779.087	3765.36
779.272	3711.89
779.458	3703.95
779.644	3722.93
779.83	3696.2
780.016	3839.57
780.202	3694.26
780.388	3695.23
780.574	3609.01
780.76	3655.7
780.946	3697.36
781.131	3689.42
781.317	3682.25
781.503	3615.99
781.689	3618.89
781.874	3757.61
782.06	3608.82
782.246	3682.25
782.432	3617.54
782.617	3620.44
782.803	3665.97
782.989	3563.29
783.174	3572
783.36	3504.77
783.545	3583.63
783.731	3563.09
783.916	3456.92
784.102	3514.46
784.288	3459.82
784.473	3508.07
784.659	3466.8
784.844	3528.61
785.029	3478.62
785.215	3481.72
785.4	3422.43
785.586	3540.81
785.771	3402.86
785.956	3511.56
786.142	3448.01
786.327	3450.33
786.512	3420.49
786.698	3413.71
786.883	3341.64
787.068	3340.09
787.254	3424.56
787.439	3369.54
787.624	3362.37
787.809	3350.94
787.994	3342.22
788.18	3399.57
788.365	3273.25
788.55	3316.84
788.735	3266.08
788.92	3281
789.105	3311.41
789.29	3287.2
789.475	3280.03
789.66	3281.77
789.845	3232.17
790.03	3215.32
790.215	3297.66
790.4	3244.96
790.585	3323.81
790.77	3238.37
790.955	3200.01
791.14	3240.31
791.325	3274.6
791.51	3122.32
791.695	3225.97
791.879	3226.55
792.064	3128.32
792.249	3279.64
792.434	3147.31
792.618	3165.14
792.803	3233.72
792.988	3164.94
793.173	3215.32
793.357	3265.5
793.542	3130.65
793.727	3118.64
793.911	3201.37
794.096	3159.9
794.281	3234.3
794.465	3293.2
794.65	3191.68
794.834	3265.69
795.019	3268.4
795.203	3273.63
795.388	3257.36
795.572	3323.62
795.757	3264.53
795.941	3276.93
796.126	3237.21
796.31	3207.76
796.494	3234.88
796.679	3223.07
796.863	3153.51
797.048	3308.9
797.232	3187.22
797.416	3244.77
797.601	3242.63
797.785	3304.63
797.969	3260.85
798.153	3196.52
798.338	3283.71
798.522	3343.58
798.706	3290.49
798.89	3272.67
799.074	3392.4
799.258	3338.73
799.443	3319.75
799.627	3270.92
799.811	3336.41
799.995	3263.95
800.179	3247.48
800.363	3246.9
800.547	3301.15
800.731	3326.72
800.915	3206.4
801.099	3243.22
801.283	3244.18
801.467	3253.87
801.651	3243.6
801.835	3290.49
802.019	3272.86
802.202	3280.8
802.386	3201.75
802.57	3204.27
802.754	3267.05
802.938	3191.1
803.121	3179.67
803.305	3284.48
803.489	3254.65
803.673	3228.3
803.856	3264.92
804.04	3276.54
804.224	3241.08
804.407	3243.22
804.591	3231.98
804.775	3256.2
804.958	3253.48
805.142	3341.06
805.326	3244.77
805.509	3252.32
805.693	3275.38
805.876	3276.73
806.06	3243.22
806.243	3287.39
806.427	3239.34
806.61	3342.03
806.794	3231.4
806.977	3274.8
807.16	3278.28
807.344	3287
807.527	3261.04
807.71	3239.92
807.894	3238.37
808.077	3260.46
808.26	3220.74
808.444	3209.12
808.627	3272.67
808.81	3211.44
808.993	3164.36
809.177	3107.79
809.36	3175.6
809.543	3144.4
809.726	3064
809.909	3080.27
810.092	3092.67
810.276	3082.02
810.459	3098.1
810.642	3068.84
810.825	3020.6
811.008	3014.01
811.191	2920.24
811.374	2943.88
811.557	2979.91
811.74	3068.46
811.923	2947.36
812.106	2908.23
812.289	2879.16
812.472	2919.46
812.654	2892.73
812.837	2818.91
813.02	2810.97
813.203	2797.79
813.386	2673.02
813.569	2633.88
813.751	2558.13
813.934	2617.02
814.117	2569.56
814.3	2538.17
814.482	2487.21
814.665	2466.1
814.848	2442.85
815.03	2386.85
815.213	2387.05
815.396	2355.47
815.578	2310.13
815.761	2258.4
815.943	2368.64
816.126	2211.71
816.309	2249.1
816.491	2149.71
816.674	2076.86
816.856	2145.64
817.039	2083.83
817.221	2240.38
817.403	2151.45
817.586	2174.89
817.768	2161.14
817.951	2135.56
818.133	2084.22
818.315	2125.1
818.498	2130.72
818.68	2193.11
818.862	2186.52
819.045	2204.34
819.227	2198.53
819.409	2165.4
819.591	2203.18
819.774	2117.93
819.956	2143.51
820.138	2223.33
820.32	2173.73
820.502	2241.93
820.684	2334.93
820.866	2317.1
821.048	2375.62
821.231	2388.4
821.413	2374.84
821.595	2334.93
821.777	2402.16
821.959	2339.58
822.141	2463.58
822.323	2247.74
822.505	2228.95
822.686	2182.64
822.868	2102.63
823.05	1955.57
823.232	1931.16
823.414	1842.23
823.596	1924.18
823.778	1918.76
823.96	1945.69
824.141	1963.71
824.323	1959.06
824.505	2042.37
824.687	2078.79
824.868	2143.12
825.05	2239.99
825.232	2314.78
825.413	2387.63
825.595	2301.6
825.777	2244.84
825.958	2289.98
826.14	2274.09
826.321	2273.12
826.503	2240.19
826.685	2280.68
826.866	2320.79
827.048	2308.77
827.229	2268.28
827.411	2192.33
827.592	2167.14
827.773	2177.61
827.955	2119.09
828.136	2111.34
828.318	2060.58
828.499	2109.6
828.68	2039.27
828.862	2064.46
829.043	2124.91
829.224	2068.72
829.406	2102.04
829.587	2056.32
829.768	2055.35
829.949	2071.43
830.131	2037.33
830.312	2120.64
830.493	2059.61
830.674	2093.52
830.855	2063.68
831.036	2029.58
831.218	2104.37
831.399	2164.62
831.58	2080.93
831.761	2097.01
831.942	2088.09
832.123	2073.76
832.304	2045.47
832.485	2011.95
832.666	2067.56
832.847	2058.26
833.028	2066.2
833.209	2088.48
833.389	2056.71
833.57	1989.67
833.751	2018.54
833.932	2093.91
834.113	2038.5
834.294	1995.29
834.475	2078.99
834.655	2103.98
834.836	2138.47
835.017	2100.69
835.198	2043.15
835.378	2070.08
835.559	2154.16
835.74	2072.21
835.92	2110.38
836.101	2051.86
836.281	2096.62
836.462	2103.01
836.643	2110.96
836.823	2116.38
837.004	2138.08
837.184	2155.91
837.365	2142.34
837.545	2115.41
837.726	2076.66
837.906	2173.34
838.087	2121.03
838.267	2148.54
838.448	2049.54
838.628	2086.16
838.808	2089.45
838.989	2130.72
839.169	2062.13
839.349	2075.89
839.53	2115.61
839.71	2117.16
839.89	2057.48
840.07	2132.27
840.251	2101.27
840.431	2133.82
840.611	2102.24
840.791	2017.96
840.971	2077.83
841.151	2064.46
841.332	2043.53
841.512	2102.63
841.692	2022.8
841.872	2070.66
842.052	2049.15
842.232	2052.25
842.412	2019.7
842.592	2083.06
842.772	2080.93
842.952	2055.35
843.132	2030.36
843.312	2009.43
843.492	2015.63
843.672	2029.97
843.851	1941.43
844.031	2000.13
844.211	2013.7
844.391	1978.43
844.571	1985.6
844.751	2023
844.93	2027.84
845.11	1978.24
845.29	2000.13
845.47	2031.91
845.649	2016.99
845.829	2065.62
846.009	1976.11
846.188	1993.55
846.368	2027.84
846.547	2012.34
846.727	2048.18
846.907	1970.68
847.086	1969.13
847.266	2026.68
847.445	1981.34
847.625	1938.91
847.804	1909.27
847.984	1924.18
848.163	1934.65
848.343	1913.92
848.522	1966.23
848.701	1939.68
848.881	1932.9
849.06	1944.72
849.239	1928.06
849.419	1941.04
849.598	1847.07
849.777	1842.81
849.957	1852.89
850.136	1777.13
850.315	1788.37
850.494	1749.23
850.674	1788.56
850.853	1850.37
851.032	1797.28
851.211	1870.52
851.39	1798.44
851.569	1749.42
851.748	1788.95
851.927	1839.13
852.107	1828.86
852.286	1805.22
852.465	1763.18
852.644	1872.65
852.823	1808.32
853.002	1810.84
853.181	1821.11
853.359	1784.3
853.538	1710.68
853.717	1808.32
853.896	1696.14
854.075	1610.51
854.254	1570.98
854.433	1491.16
854.611	1568.27
854.79	1499.1
854.969	1552.96
855.148	1586.1
855.327	1557.61
855.505	1616.71
855.684	1583
855.863	1631.24
856.041	1592.88
856.22	1663.4
856.399	1621.16
856.577	1771.9
856.756	1746.32
856.934	1812.59
857.113	1831.19
857.291	1752.91
857.47	1694.59
857.648	1732.76
857.827	1722.49
858.005	1772.48
858.184	1700.41
858.362	1818.01
858.541	1715.71
858.719	1719.01
858.898	1707.77
859.076	1710.68
859.254	1769.19
859.433	1663.59
859.611	1693.24
859.789	1632.79
859.967	1712.03
860.146	1776.74
860.324	1616.51
860.502	1694.79
860.68	1614.96
860.859	1611.86
861.037	1648.68
861.215	1614.58
861.393	1668.24
861.571	1630.46
861.749	1626.78
861.927	1646.35
862.105	1678.71
862.283	1640.73
862.461	1600.82
862.639	1571.18
862.817	1580.67
862.995	1631.63
863.173	1617.1
863.351	1645.96
863.529	1625.81
863.707	1638.21
863.885	1635.5
864.063	1561.3
864.241	1566.53
864.418	1659.33
864.596	1571.37
864.774	1533.2
864.952	1544.83
865.129	1610.31
865.307	1529.52
865.485	1522.35
865.663	1607.8
865.84	1495.81
866.018	1500.07
866.196	1351.47
866.373	1405.14
866.551	1347.79
866.728	1294.89
866.906	1340.04
867.084	1378.4
867.261	1382.66
867.439	1422.38
867.616	1445.44
867.794	1437.49
867.971	1433.81
868.149	1452.22
868.326	1484.57
868.503	1493.29
868.681	1468.1
868.858	1446.21
869.035	1456.28
869.213	1494.26
869.39	1482.83
869.567	1551.22
869.745	1431.68
869.922	1471.78
870.099	1484.96
870.276	1487.87
870.454	1458.42
870.631	1479.73
870.808	1426.64
870.985	1498.72
871.162	1540.37
871.339	1462.87
871.517	1413.85
871.694	1398.16
871.871	1431.1
872.048	1428.77
872.225	1369.49
872.402	1415.6
872.579	1362.7
872.756	1456.48
872.933	1375.69
873.11	1402.04
873.287	1391.19
873.463	1380.14
873.64	1355.92
873.817	1419.86
873.994	1393.32
874.171	1345.66
874.348	1398.55
874.524	1323.76
874.701	1374.72
874.878	1295.28
875.055	1365.22
875.231	1380.72
875.408	1344.88
875.585	1311.56
875.762	1349.14
875.938	1332.29
876.115	1325.12
876.291	1287.53
876.468	1295.86
876.645	1302.45
876.821	1312.72
876.998	1303.61
877.174	1329.19
877.351	1298.19
877.527	1259.63
877.704	1357.67
877.88	1327.44
878.057	1303.61
878.233	1354.57
878.409	1285.01
878.586	1284.82
878.762	1260.6
878.938	1267.38
879.115	1214.88
879.291	1252.66
879.467	1227.28
879.644	1238.9
879.82	1276.87
879.996	1263.12
880.172	1187.17
880.349	1242.97
880.525	1270.68
880.701	1206.16
880.877	1227.47
881.053	1249.94
881.229	1223.4
881.405	1264.48
881.581	1220.3
881.757	1226.5
881.933	1235.41
882.109	1278.62
882.285	1251.69
882.461	1161.4
882.637	1232.31
882.813	1180
882.989	1213.71
883.165	1243.55
883.341	1172.64
883.517	1246.07
883.693	1270.29
883.869	1252.08
884.044	1205.58
884.22	1247.43
884.396	1283.07
884.572	1248.39
884.747	1248.78
884.923	1233.48
885.099	1297.8
885.275	1269.13
885.45	1187.36
885.626	1219.72
885.801	1198.02
885.977	1231.93
886.153	1162.76
886.328	1208.48
886.504	1184.26
886.679	1237.93
886.855	1180.2
887.03	1244.91
887.206	1212.36
887.381	1242.78
887.557	1235.22
887.732	1234.06
887.908	1256.73
888.083	1280.17
888.258	1223.59
888.434	1186.59
888.609	1191.24
888.784	1280.17
888.96	1192.4
889.135	1199.76
889.31	1186.78
889.485	1186.2
889.661	1190.08
889.836	1244.91
890.011	1211.19
890.186	1175.55
890.361	1158.11
890.537	1256.14
890.712	1187.17
890.887	1221.46
891.062	1205.38
891.237	1276.87
891.412	1177.87
891.587	1210.81
891.762	1236.77
891.937	1234.83
892.112	1204.99
892.287	1201.12
892.462	1148.23
892.637	1141.83
892.812	1145.32
892.987	1142.22
893.161	1096.5
893.336	1122.46
893.511	1156.17
893.686	1151.13
893.861	1122.26
894.035	1150.94
894.21	1116.26
894.385	1055.03
894.56	1099.21
894.734	1062.59
894.909	1027.52
895.084	1074.99
895.258	1047.48
895.433	1044.18
895.608	1042.05
895.782	1018.61
895.957	978.31
896.131	969.01
896.306	916.51
896.48	906.62
896.655	943.82
896.829	845.21
897.004	870.2
897.178	898.87
897.353	863.22
897.527	941.5
897.701	889.38
897.876	846.76
898.05	935.3
898.224	883.18
898.399	929.68
898.573	876.21
898.747	745.43
898.921	831.26
899.096	693.11
899.27	713.65
899.444	691.56
899.618	762.67
899.792	786.5
899.967	789.02
900.141	810.72
900.315	798.51
900.489	736.13
900.663	776.81
900.837	752.79
901.011	751.24
901.185	857.99
901.359	788.83
901.533	797.93
901.707	785.92
901.881	765.96
902.055	720.63
902.229	759.38
902.403	845.59
902.576	760.73
902.75	770.23
902.924	925.03
903.098	843.07
903.272	881.24
903.446	919.22
903.619	905.46
903.793	907.21
903.967	896.16
904.14	948.86
904.314	977.34
904.488	931.23
904.661	965.52
904.835	938.79
905.009	979.67
905.182	998.07
905.356	966.88
905.529	933.75
905.703	886.86
905.876	901.78
906.05	905.27
906.223	863.42
906.397	781.66
906.57	771.78
906.744	781.08
906.917	756.47
907.09	765.77
907.264	770.23
907.437	700.86
907.61	721.4
907.784	724.31
907.957	753.56
908.13	704.74
908.304	751.04
908.477	724.89
908.65	726.63
908.823	647.39
908.996	767.9
909.17	720.05
909.343	675.48
909.516	671.03
909.689	686.53
909.862	699.12
910.035	687.88
910.208	618.72
910.381	671.61
910.554	742.91
910.727	667.93
910.9	689.43
911.073	643.13
911.246	749.11
911.419	748.33
911.592	708.81
911.765	648.17
911.938	643.52
912.11	694.28
912.283	679.55
912.456	709.58
912.629	684.01
912.802	667.54
912.974	664.83
913.147	579
913.32	535.4
913.493	571.25
913.665	583.84
913.838	595.66
914.01	575.7
914.183	634.22
914.356	625.69
914.528	660.57
914.701	701.64
914.873	670.83
915.046	590.62
915.218	579.19
915.391	527.46
915.563	518.55
915.736	584.42
915.908	608.45
916.081	622.2
916.253	601.86
916.425	600.7
916.598	637.7
916.77	613.48
916.942	579.58
917.115	524.94
917.287	584.42
917.459	553.42
917.632	528.62
917.804	499.95
917.976	577.25
918.148	581.71
918.32	547.03
918.493	595.08
918.665	662.31
918.837	603.41
919.009	649.33
919.181	628.4
919.353	610.58
919.525	625.88
919.697	603.99
919.869	587.13
920.041	690.79
920.213	726.05
920.385	640.03
920.557	595.85
920.729	644.87
920.901	638.48
921.073	610.58
921.244	602.25
921.416	619.3
921.588	646.23
921.76	582.48
921.932	672.58
922.103	606.12
922.275	605.54
922.447	618.33
922.619	524.75
922.79	586.17
922.962	569.7
923.134	625.11
923.305	561.95
923.477	531.53
923.648	554.2
923.82	545.29
923.991	500.53
924.163	479.8
924.335	532.3
924.506	500.72
924.677	569.12
924.849	500.53
925.02	541.22
925.192	562.72
925.363	520.29
925.535	519.13
925.706	488.71
925.877	565.05
926.049	527.46
926.22	528.82
926.391	561.75
926.562	547.42
926.734	500.72
926.905	568.34
927.076	473.6
927.247	492.2
927.419	452.09
927.59	472.63
927.761	440.47
927.932	482.71
928.103	451.51
928.274	390.68
928.445	369.75
928.616	400.94
928.787	404.62
928.958	410.05
929.129	424.19
929.3	407.14
929.471	330.42
929.642	302.33
929.813	254.66
929.984	353.09
930.155	261.64
930.326	321.31
930.496	302.33
930.667	220.76
930.838	281.79
931.009	202.16
931.18	257.57
931.35	234.13
931.521	245.36
931.692	196.73
931.863	145.39
932.033	212.04
932.204	198.87
932.374	205.84
932.545	134.35
932.716	211.07
932.886	203.71
933.057	85.33
933.227	134.93
933.398	208.94
933.568	96.57
933.739	84.17
933.909	116.14
934.08	142.48
934.25	64.99
934.421	95.79
934.591	138.61
934.761	78.74
934.932	46
935.102	100.64
935.272	80.68
935.443	85.52
935.613	100.25
935.783	91.34
935.953	56.27
936.123	265.71
936.294	76.03
936.464	68.67
936.634	97.73
936.804	60.53
936.974	55.88
937.144	82.23
937.314	101.41
937.484	88.62
937.655	48.52
937.825	99.28
937.995	61.3
938.165	138.42
938.334	102.19
938.504	148.49
938.674	95.4
938.844	136.29
939.014	166.9
939.184	181.62
939.354	257.18
939.524	223.28
939.694	169.8
939.863	146.75
940.033	219.4
940.203	236.65
940.373	185.69
940.542	182.4
940.712	185.5
940.882	184.33
941.051	195.77
941.221	176.39
941.391	214.17
941.56	143.45
941.73	134.93
941.899	282.37
942.069	156.24
942.238	202.93
942.408	131.25
942.577	170.77
942.747	141.13
942.916	65.18
943.086	111.1
943.255	173.29
943.425	165.15
943.594	142.87
943.763	62.27
943.933	91.53
944.102	45.03
944.271	111.68
944.441	140.16
944.61	73.7
944.779	133.77
944.948	225.6
945.117	97.92
945.287	97.15
945.456	88.24
945.625	70.02
945.794	149.85
945.963	92.3
946.132	137.45
946.301	91.92
946.47	157.79
946.639	77.19
946.808	89.4
946.977	145.58
947.146	187.43
947.315	106.84
947.484	148.49
947.653	148.68
947.822	103.54
947.991	100.83
948.16	211.65
948.329	164.57
948.498	112.65
948.666	142.29
948.835	145.78
949.004	88.43
949.173	57.04
949.341	121.95
949.51	149.07
949.679	129.5
949.847	135.9
950.016	198.87
950.185	194.02
950.353	109.74
950.522	123.3
950.69	176
950.859	111.68
951.028	142.1
951.196	132.6
951.365	101.8
951.533	114.78
951.701	165.35
951.87	144.62
952.038	99.67
952.207	105.87
952.375	188.6
952.543	125.63
952.712	130.67
952.88	76.22
953.048	199.25
953.217	105.87
953.385	147.52
953.553	185.11
953.721	65.57
953.89	129.89
954.058	67.12
954.226	68.86
954.394	105.09
954.562	83.2
954.73	103.54
954.898	106.45
955.067	166.32
955.235	79.13
955.403	163.6
955.571	201.58
955.739	119.62
955.907	62.85
956.075	103.93
956.243	91.72
956.41	132.8
956.578	67.7
956.746	61.89
956.914	74.67
957.082	148.3
957.25	162.44
957.418	89.79
957.585	137.64
957.753	180.27
957.921	65.57
958.089	102.19
958.256	165.93
958.424	151.2
958.592	129.5
958.759	65.57
958.927	138.22
959.095	96.95
959.262	85.91
959.43	124.47
959.597	87.85
959.765	116.14
959.932	92.11
960.1	172.9
960.267	121.75
960.435	124.27
960.602	141.71
960.77	101.41
960.937	77.97
961.104	106.45
961.272	48.52
961.439	84.75
961.606	141.13
961.774	141.52
961.941	128.92
962.108	97.92
962.275	122.92
962.443	156.82
962.61	150.43
962.777	183.56
962.944	179.88
963.111	137.64
963.278	145
963.446	119.62
963.613	101.99
963.78	167.09
963.947	157.79
964.114	129.31
964.281	210.88
964.448	159.34
964.615	87.65
964.782	155.66
964.949	164.77
965.116	143.84
965.282	157.4
965.449	145.58
965.616	108.77
965.783	158.18
965.95	126.21
966.117	69.64
966.283	127.57
966.45	149.27
966.617	153.14
966.784	161.86
966.95	145.78
967.117	163.6
967.284	95.6
967.45	129.7
967.617	201.97
967.784	156.63
967.95	204.1
968.117	123.5
968.283	198.87
968.45	262.8
968.616	145.97
968.783	192.08
968.949	167.09
969.116	190.73
969.282	160.89
969.449	169.61
969.615	156.82
969.781	94.44
969.948	128.54
970.114	86.49
970.28	200.03
970.447	150.04
970.613	186.27
970.779	146.36
970.945	138.22
971.112	140.74
971.278	126.6
971.444	135.32
971.61	188.98
971.776	146.55
971.942	156.43
972.108	160.12
972.275	144.81
972.441	153.53
972.607	232.77
972.773	124.47
972.939	158.18
973.105	141.9
973.271	99.28
973.437	138.03
973.602	128.92
973.768	142.29
973.934	130.67
974.1	165.93
974.266	52.78
974.432	150.43
974.598	107.42
974.763	145.78
974.929	136.67
975.095	200.03
975.261	113.23
975.426	85.72
975.592	126.79
975.758	189.18
975.923	85.33
976.089	118.27
976.255	168.25
976.42	148.49
976.586	129.31
976.751	137.64
976.917	218.43
977.082	140.16
977.248	107.03
977.413	47.16
977.579	118.46
977.744	138.42
977.91	90.95
978.075	97.92
978.24	143.65
978.406	119.62
978.571	106.64
978.736	92.89
978.902	133.96
979.067	100.05
979.232	85.52
979.397	120.01
979.563	170
979.728	92.11
979.893	123.5
980.058	90.17
980.223	156.24
980.388	120.01
980.554	109.74
980.719	105.67
980.884	130.47
981.049	152.56
981.214	85.52
981.379	149.85
981.544	85.14
981.709	101.41
981.874	125.63
982.039	106.45
982.204	126.79
982.368	106.84
982.533	106.06
982.698	167.28
982.863	133.96
983.028	123.5
983.193	128.73
983.357	113.42
983.522	150.62
983.687	102.96
983.852	107.8
984.016	90.56
984.181	105.48
984.346	157.4
984.51	132.41
984.675	131.05
984.839	121.95
985.004	141.32
985.168	145.97
985.333	136.67
985.498	98.12
985.662	152.56
985.827	132.99
985.991	104.32
986.155	93.66
986.32	160.5
986.484	190.53
986.649	137.84
986.813	70.6
986.977	136.67
987.142	134.35
987.306	98.89
987.47	89.2
987.634	82.42
987.799	124.08
987.963	123.5
988.127	127.37
988.291	180.07
988.455	110.9
988.62	121.17
988.784	115.55
988.948	123.5
989.112	69.05
989.276	135.51
989.44	117.1
989.604	104.12
989.768	93.27
989.932	171.55
990.096	102.38
990.26	74.29
990.424	83.97
990.588	102.57
990.752	161.86
990.915	128.92
991.079	97.34
991.243	72.74
991.407	131.64
991.571	88.82
991.734	110.71
991.898	115.55
992.062	187.63
992.226	96.37
992.389	77.97
992.553	45.42
992.717	58.98
992.88	91.14
993.044	96.57
993.207	110.13
993.371	126.99
993.535	103.15
993.698	115.94
993.862	113.81
994.025	121.95
994.189	119.82
994.352	111.49
994.515	78.16
994.679	118.65
994.842	68.86
995.006	143.26
995.169	60.72
995.332	83.59
995.496	124.08
995.659	33.99
995.822	92.5
995.985	87.07
996.149	143.26
996.312	105.48
996.475	155.66
996.638	61.5
996.801	142.87
996.964	160.12
997.128	99.47
997.291	107.22
997.454	77.39
997.617	33.02
997.78	151.4
997.943	40.96
998.106	120.4
998.269	60.34
998.432	72.35
998.595	83.59
998.758	33.41
998.92	34.37
999.083	31.86
999.246	89.01
999.409	25.46
999.572	16.36
999.735	47.16
999.897	98.89
1000.06	52.97
1000.223	73.12
1000.386	115.17
1000.548	95.79
1000.711	106.45
1000.874	109.16
1001.036	39.99
1001.199	80.29
1001.361	28.95
1001.524	90.17
1001.687	93.85
1001.849	68.09
1002.012	66.54
1002.174	106.84
1002.337	91.92
1002.499	59.17
1002.661	135.32
1002.824	55.49
1002.986	46.77
1003.149	83.97
1003.311	56.07
1003.473	131.05
1003.636	22.56
1003.798	80.87
1003.96	111.87
1004.123	70.6
1004.285	55.69
1004.447	40.77
1004.609	66.92
1004.771	136.48
1004.933	28.56
1005.096	48.13
1005.258	-3.99
1005.42	43.29
1005.582	111.49
1005.744	53.55
1005.906	20.23
1006.068	74.29
1006.23	4.73
1006.392	22.75
1006.554	12.67
1006.716	106.64
1006.878	78.74
1007.04	31.86
1007.202	59.37
1007.363	77.77
1007.525	83.78
1007.687	61.11
1007.849	121.17
1008.011	-16.58
1008.172	8.61
1008.334	21.78
1008.496	73.7
1008.658	2.41
1008.819	29.14
1008.981	2.99
1009.143	16.74
1009.304	43.87
1009.466	81.45
1009.627	132.02
1009.789	154.5
1009.95	70.22
1010.112	24.69
1010.273	92.11
1010.435	31.86
1010.596	49.68
1010.758	40.19
1010.919	35.34
1011.081	5.7
1011.242	43.09
1011.403	66.15
1011.565	34.76
1011.726	63.63
1011.887	14.42
1012.049	51.04
1012.21	100.64
1012.371	120.79
1012.532	-59.21
1012.693	40.57
1012.855	19.26
1013.016	48.52
1013.177	99.67
1013.338	36.89
1013.499	97.92
1013.66	56.85
1013.821	72.35
1013.982	78.16
1014.143	41.54
1014.304	40.57
1014.465	61.5
1014.626	86.1
1014.787	-9.22
1014.948	106.64
1015.109	-21.43
1015.27	98.7
1015.431	9.38
1015.592	37.09
1015.752	101.22
1015.913	40.77
1016.074	47.36
1016.235	52.2
1016.395	34.37
1016.556	21.2
1016.717	45.42
1016.877	82.62
1017.038	20.23
1017.199	33.02
1017.359	52.78
1017.52	61.89
1017.681	39.22
1017.841	23.52
1018.002	25.07
1018.162	36.7
1018.323	60.53
1018.483	43.48
1018.644	32.63
1018.804	-5.34
1018.964	-0.5
1019.125	35.92
1019.285	44.26
1019.446	-2.83
1019.606	19.84
1019.766	-13.09
1019.926	65.18
1020.087	55.88
1020.247	-0.69
1020.407	36.12
1020.567	72.93
1020.728	28.17
1020.888	-1.28
1021.048	46.58
1021.208	27.4
1021.368	1.24
1021.528	90.95
1021.688	55.49
1021.848	53.94
1022.008	63.24
1022.168	22.56
1022.328	20.42
1022.488	56.65
1022.648	12.48
1022.808	6.86
1022.968	38.25
1023.128	6.28
1023.288	19.26
1023.448	19.84
1023.608	60.34
1023.767	52.2
1023.927	-16.78
1024.087	4.15
1024.247	-31.31
1024.406	17.91
1024.566	16.55
1024.726	-9.8
1024.885	23.33
1025.045	45.81
1025.205	27.59
1025.364	25.46
1025.524	36.89
1025.683	22.75
1025.843	28.76
1026.003	22.75
1026.162	81.26
1026.321	66.15
1026.481	22.17
1026.64	17.71
1026.8	49.1
1026.959	22.94
1027.119	28.76
1027.278	6.86
1027.437	8.99
1027.597	17.32
1027.756	19.84
1027.915	60.14
1028.074	46
1028.234	2.02
1028.393	25.07
1028.552	23.33
1028.711	-40.99
1028.87	59.75
1029.03	-18.33
1029.189	43.87
1029.348	-36.34
1029.507	17.13
1029.666	16.16
1029.825	-27.82
1029.984	-10.38
1030.143	27.01
1030.302	4.15
1030.461	-26.85
1030.62	28.37
1030.779	64.99
1030.938	0.66
1031.097	-15.42
1031.255	39.99
1031.414	84.75
1031.573	68.09
1031.732	-30.34
1031.891	6.28
1032.049	76.03
1032.208	23.14
1032.367	-28.59
1032.525	8.99
1032.684	24.69
1032.843	16.94
1033.001	-44.87
1033.16	151.59
1033.319	64.99
1033.477	30.89
1033.636	-11.74
1033.794	-51.46
1033.953	68.28
1034.111	35.34
1034.27	-5.54
1034.428	36.31
1034.587	0.66
1034.745	36.89
1034.903	45.61
1035.062	32.63
1035.22	-11.54
1035.378	63.63
1035.537	-16.97
1035.695	47.94
1035.853	1.82
1036.011	50.26
1036.17	24.3
1036.328	-23.17
1036.486	43.67
1036.644	24.11
1036.802	-85.75
1036.96	-2.24
1037.119	9.77
1037.277	-9.61
1037.435	-15.81
1037.593	-19.29
1037.751	1.63
1037.909	33.79
1038.067	33.79
