Data from gum_old_FLMT105791__26__15-42-48-259.txt Node

Date: Mon Mar 20 15:42:48 GMT 2023
User: antho
Spectrometer: FLMT10579
Trigger mode: 0
Integration Time (sec): 1.000000E-1
Scans to average: 10
Electric dark correction enabled: true
Nonlinearity correction enabled: false
Boxcar width: 0
XAxis mode: Wavelengths
Number of Pixels in Spectrum: 3648
>>>>>Begin Spectral Data<<<<<
345.248	-151.22
345.464	-151.22
345.681	-151.22
345.898	-172.14
346.114	-176.21
346.331	-30.9
346.548	19.67
346.764	20.83
346.981	-3.58
347.197	-12.11
347.414	25.48
347.631	-25.87
347.847	59.96
348.064	-5.52
348.28	15.98
348.497	-47.76
348.713	-16.18
348.93	10.56
349.146	34.58
349.363	10.17
349.579	37.68
349.796	21.8
350.012	34.97
350.229	33.62
350.445	32.07
350.661	-9.78
350.878	6.3
351.094	64.42
351.311	23.54
351.527	40.4
351.743	-8.04
351.96	47.56
352.176	82.44
352.392	37.3
352.609	74.3
352.825	11.53
353.041	21.6
353.257	45.24
353.474	66.36
353.69	37.88
353.906	32.26
354.122	-0.48
354.339	81.28
354.555	39.04
354.771	19.28
354.987	106.66
355.203	109.76
355.42	31.87
355.636	29.93
355.852	17.92
356.068	50.28
356.284	11.92
356.5	84.76
356.716	39.04
356.932	31.48
357.148	75.08
357.364	48.34
357.58	72.75
357.796	89.22
358.012	81.28
358.228	48.53
358.444	-25.67
358.66	77.98
358.876	54.73
359.092	14.63
359.308	57.06
359.524	51.05
359.74	17.53
359.956	52.41
360.172	38.07
360.388	90.58
360.604	23.15
360.819	130.3
361.035	55.12
361.251	86.51
361.467	41.75
361.683	98.13
361.898	48.34
362.114	62.68
362.33	46.6
362.546	89.61
362.762	45.24
362.977	66.75
363.193	33.03
363.409	98.91
363.624	27.8
363.84	39.43
364.056	66.16
364.271	80.31
364.487	83.02
364.703	44.46
364.918	26.83
365.134	57.45
365.35	70.62
365.565	166.53
365.781	90.77
365.996	87.28
366.212	112.86
366.427	95.61
366.643	58.61
366.858	75.85
367.074	57.64
367.289	124.48
367.505	191.33
367.72	55.7
367.936	71.2
368.151	91.55
368.367	94.26
368.582	85.73
368.798	67.52
369.013	129.52
369.228	92.32
369.444	104.53
369.659	142.89
369.874	106.08
370.09	130.3
370.305	50.86
370.52	104.14
370.736	135.91
370.951	103.95
371.166	145.79
371.381	152.58
371.597	120.22
371.812	73.14
372.027	51.05
372.242	84.76
372.458	158
372.673	74.5
372.888	80.7
373.103	102.78
373.318	177.18
373.533	117.7
373.749	104.91
373.964	27.42
374.179	126.81
374.394	50.47
374.609	138.43
374.824	44.27
375.039	132.62
375.254	62.29
375.469	142.69
375.684	118.48
375.899	141.92
376.114	102.59
376.329	98.33
376.544	156.26
376.759	138.24
376.974	77.98
377.189	109.56
377.404	119.06
377.619	129.52
377.834	90.77
378.049	77.01
378.264	91.93
378.478	143.47
378.693	90.38
378.908	179.89
379.123	124.1
379.338	162.07
379.553	156.45
379.767	154.9
379.982	149.67
380.197	116.93
380.412	134.56
380.626	138.43
380.841	204.69
381.056	156.06
381.271	200.63
381.485	100.26
381.7	96.97
381.915	142.69
382.129	95.03
382.344	141.73
382.559	115.18
382.773	155.87
382.988	73.91
383.202	91.74
383.417	92.71
383.632	210.31
383.846	93.68
384.061	77.01
384.275	107.82
384.49	129.91
384.704	135.91
384.919	147.93
385.133	122.93
385.348	174.28
385.562	129.13
385.777	172.14
385.991	105.88
386.206	122.55
386.42	123.32
386.634	172.92
386.849	160.13
387.063	189.19
387.277	127.78
387.492	154.13
387.706	106.46
387.92	129.91
388.135	165.75
388.349	155.29
388.563	167.3
388.778	134.94
388.992	167.11
389.206	170.21
389.42	221.94
389.635	176.41
389.849	173.89
390.063	217.29
390.277	196.17
390.491	242.09
390.706	207.02
390.92	222.71
391.134	208.38
391.348	237.82
391.562	187.84
391.776	201.79
391.99	214.38
392.205	212.06
392.419	198.11
392.633	182.22
392.847	262.24
393.061	129.33
393.275	228.72
393.489	163.62
393.703	129.91
393.917	157.81
394.131	100.46
394.345	149.86
394.559	178.34
394.773	188.61
394.986	220.39
395.2	220.77
395.414	258.94
395.628	203.53
395.842	260.69
396.056	250.42
396.27	182.03
396.484	228.91
396.697	236.47
396.911	231.82
397.125	185.71
397.339	183.19
397.553	162.84
397.766	238.02
397.98	236.66
398.194	279.48
398.408	246.16
398.621	295.56
398.835	321.91
399.049	340.7
399.262	361.44
399.476	349.62
399.69	351.36
399.903	426.34
400.117	335.67
400.331	391.85
400.544	314.94
400.758	455.98
400.971	388.37
401.185	417.62
401.398	350.2
401.612	416.27
401.826	409.29
402.039	401.54
402.253	395.15
402.466	425.76
402.68	414.91
402.893	406
403.106	407.93
403.32	390.89
403.533	416.65
403.747	381.59
403.96	402.9
404.174	446.49
404.387	392.24
404.6	408.52
404.814	456.76
405.027	402.7
405.24	407.74
405.454	394.95
405.667	426.92
405.88	400.18
406.094	458.31
406.307	466.45
406.52	436.8
406.733	378.29
406.947	354.65
407.16	476.72
407.373	464.7
407.586	423.82
407.799	442.03
408.012	443.2
408.226	458.89
408.439	485.43
408.652	411.03
408.865	509.07
409.078	542.2
409.291	505
409.504	449.2
409.717	508.68
409.93	519.53
410.143	470.52
410.357	388.75
410.57	375.58
410.783	417.82
410.996	449.78
411.209	456.18
411.421	550.73
411.634	496.48
411.847	488.15
412.06	531.16
412.273	520.89
412.486	523.21
412.699	615.05
412.912	522.83
413.125	521.86
413.338	519.15
413.55	559.64
413.763	518.18
413.976	526.31
414.189	511.59
414.402	520.5
414.615	609.63
414.827	510.62
415.04	568.94
415.253	571.65
415.466	560.61
415.678	615.83
415.891	552.86
416.104	529.22
416.316	543.75
416.529	531.35
416.742	593.35
416.954	626.48
417.167	555.76
417.38	548.4
417.592	608.27
417.805	527.09
418.017	541.81
418.23	581.14
418.442	535.61
418.655	531.35
418.868	548.6
419.08	582.69
419.293	605.17
419.505	584.44
419.718	591.99
419.93	616.02
420.142	545.11
420.355	586.18
420.567	606.91
420.78	607.88
420.992	576.88
421.205	646.44
421.417	583.66
421.629	616.6
421.842	585.41
422.054	567.2
422.266	654.38
422.479	682.28
422.691	578.82
422.903	627.64
423.115	543.56
423.328	566.81
423.54	619.12
423.752	582.5
423.964	590.25
424.177	616.21
424.389	604.78
424.601	727.23
424.813	627.06
425.025	681.12
425.238	650.31
425.45	614.08
425.662	604.78
425.874	931.83
426.086	628.61
426.298	672.01
426.51	626.68
426.722	644.5
426.934	616.21
427.146	668.33
427.358	602.07
427.57	657.48
427.782	621.44
427.994	581.53
428.206	599.74
428.418	604.59
428.63	704.17
428.842	675.11
429.054	641.01
429.266	663.49
429.478	598.19
429.69	603.23
429.902	586.76
430.114	613.5
430.325	591.22
430.537	525.93
430.749	533.29
430.961	472.84
431.173	491.83
431.384	536.2
431.596	467.22
431.808	558.86
432.02	629
432.231	724.32
432.443	788.07
432.655	743.12
432.867	666.78
433.078	733.24
433.29	783.22
433.502	771.6
433.713	770.63
433.925	767.14
434.136	803.76
434.348	681.31
434.56	631.91
434.771	791.36
434.983	646.63
435.194	704.37
435.406	728.01
435.617	824.69
435.829	855.88
436.04	827.79
436.252	803.37
436.463	861.69
436.675	901.8
436.886	883.58
437.098	871.18
437.309	890.17
437.521	864.21
437.732	847.55
437.943	828.95
438.155	815.77
438.366	781.67
438.578	844.06
438.789	784.97
439	817.32
439.211	780.32
439.423	804.34
439.634	830.11
439.845	835.34
440.057	844.45
440.268	894.82
440.479	873.32
440.69	889.01
440.902	846.58
441.113	819.07
441.324	846.58
441.535	896.95
441.746	964.96
441.957	888.04
442.168	906.25
442.38	962.44
442.591	953.91
442.802	916.33
443.013	925.63
443.224	1005.84
443.435	952.95
443.646	930.66
443.857	924.27
444.068	934.54
444.279	905.09
444.49	1032.58
444.701	995.96
444.912	1069
445.123	1017.85
445.334	992.28
445.545	1009.13
445.756	964.76
445.967	945.58
446.178	977.16
446.388	952.56
446.599	960.11
446.81	974.84
447.021	949.46
447.232	1003.9
447.443	1016.69
447.653	974.84
447.864	1060.86
448.075	1039.36
448.286	1041.88
448.496	1038.58
448.707	1087.41
448.918	1015.14
449.129	1100.19
449.339	1011.84
449.55	1077.14
449.761	1031.03
449.971	1078.11
450.182	1050.21
450.393	1075.98
450.603	1063.38
450.814	1144.37
451.024	1119.57
451.235	1163.36
451.446	1199.2
451.656	1160.45
451.867	1122.47
452.077	1130.61
452.288	1177.69
452.498	1160.84
452.709	1115.31
452.919	1080.63
453.13	1025.41
453.34	1077.91
453.55	1016.69
453.761	1100
453.971	1079.46
454.182	1101.16
454.392	1104.46
454.602	1193.39
454.813	1104.07
455.023	1140.69
455.233	1048.46
455.444	1143.01
455.654	1028.51
455.864	1120.15
456.075	1092.06
456.285	1076.56
456.495	1123.06
456.705	1141.85
456.916	1198.62
457.126	1244.92
457.336	1157.93
457.546	1092.83
457.756	1163.74
457.967	1222.64
458.177	1166.65
458.387	1173.82
458.597	1140.3
458.807	1148.05
459.017	1118.02
459.227	1130.22
459.437	1129.64
459.647	1186.99
459.857	1182.54
460.068	1165.68
460.278	1233.1
460.488	1207.34
460.698	1250.15
460.908	1195.32
461.117	1166.46
461.327	1193.19
461.537	1249.19
461.747	1237.75
461.957	1200.55
462.167	1353.81
462.377	1246.28
462.587	1242.6
462.797	1280.38
463.007	1257.32
463.216	1313.32
463.426	1342.57
463.636	1272.82
463.846	1192.61
464.056	1220.32
464.265	1267.4
464.475	1181.37
464.685	1238.34
464.895	1263.52
465.104	1224.39
465.314	1299.95
465.524	1216.83
465.733	1196.68
465.943	1303.05
466.153	1320.1
466.362	1310.8
466.572	1304.6
466.782	1254.22
466.991	1285.61
467.201	1316.03
467.41	1197.45
467.62	1309.05
467.829	1298.2
468.039	1308.28
468.249	1292.58
468.458	1328.04
468.668	1348.19
468.877	1348.38
469.086	1403.8
469.296	1384.61
469.505	1360.4
469.715	1404.18
469.924	1373.57
470.134	1448.55
470.343	1431.11
470.552	1381.71
470.762	1344.32
470.971	1328.04
471.18	1376.28
471.39	1407.67
471.599	1374.35
471.808	1410.96
472.018	1400.11
472.227	1508.23
472.436	1523.14
472.645	1518.49
472.855	1440.03
473.064	1587.47
473.273	1532.83
473.482	1528.96
473.691	1565.96
473.901	1560.73
474.11	1506.48
474.319	1612.66
474.528	1526.44
474.737	1634.55
474.946	1617.89
475.155	1623.89
475.364	1654.5
475.573	1622.34
475.783	1652.18
475.992	1627.57
476.201	1664
476.41	1665.94
476.619	1602.77
476.828	1660.9
477.037	1564.02
477.245	1619.44
477.454	1684.34
477.663	1684.34
477.872	1718.05
478.081	1789.16
478.29	1690.35
478.499	1859.1
478.708	1795.94
478.917	1876.73
479.125	1760.1
479.334	1768.23
479.543	1781.41
479.752	1855.81
479.961	1821.32
480.169	1913.54
480.378	1881.58
480.587	2019.72
480.796	1925.56
481.004	1929.43
481.213	1912.96
481.422	1926.53
481.63	1960.24
481.839	1971.86
482.048	2030.18
482.256	1985.23
482.465	2030.18
482.674	2060.4
482.882	2037.93
483.091	2121.44
483.299	2037.54
483.508	2084.62
483.716	2080.17
483.925	2099.93
484.134	2061.37
484.342	2074.94
484.551	2097.41
484.759	2073
484.967	2175.49
485.176	2168.71
485.384	2177.23
485.593	2125.89
485.801	2158.83
486.01	2064.28
486.218	1965.86
486.426	1831.2
486.635	1847.28
486.843	1797.3
487.051	1892.23
487.26	1881.58
487.468	1982.71
487.676	2025.92
487.885	2035.8
488.093	2114.65
488.301	2162.7
488.509	2199.71
488.717	2242.72
488.926	2209.98
489.134	2212.3
489.342	2242.33
489.55	2163.87
489.758	2212.5
489.967	2245.43
490.175	2386.48
490.383	2337.46
490.591	2453.71
490.799	2333.78
491.007	2437.44
491.215	2370.59
491.423	2354.32
491.631	2378.15
491.839	2334.36
492.047	2325.06
492.255	2314.8
492.463	2269.85
492.671	2247.95
492.879	2369.82
493.087	2327.97
493.295	2369.24
493.503	2443.44
493.711	2475.8
493.919	2475.61
494.127	2460.49
494.334	2452.94
494.542	2407.41
494.75	2463.79
494.958	2444.02
495.166	2542.84
495.374	2559.3
495.581	2522.1
495.789	2554.46
495.997	2605.42
496.205	2486.46
496.412	2500.21
496.62	2499.05
496.828	2536.64
497.035	2556.4
497.243	2592.63
497.451	2590.69
497.658	2562.4
497.866	2595.73
498.074	2657.73
498.281	2527.72
498.489	2614.13
498.696	2502.73
498.904	2462.43
499.112	2477.16
499.319	2573.45
499.527	2588.75
499.734	2589.72
499.942	2549.81
500.149	2535.86
500.357	2599.99
500.564	2513.97
500.771	2530.63
500.979	2473.67
501.186	2450.22
501.394	2492.46
501.601	2465.53
501.808	2510.29
502.016	2455.65
502.223	2461.85
502.43	2499.63
502.638	2553.1
502.845	2519.59
503.052	2618.78
503.26	2484.91
503.467	2644.36
503.674	2586.23
503.881	2600.57
504.089	2689.5
504.296	2615.3
504.503	2494.98
504.71	2556.4
504.917	2496.34
505.125	2580.03
505.332	2577.32
505.539	2585.65
505.746	2714.88
505.953	2685.05
506.16	2702.68
506.367	2767.39
506.574	2812.34
506.781	2804.78
506.988	2719.53
507.195	2746.66
507.402	2688.34
507.609	2770.29
507.816	2676.33
508.023	2650.37
508.23	2642.23
508.437	2596.31
508.644	2661.8
508.851	2680.2
509.058	2717.98
509.265	2702.48
509.472	2746.46
509.679	2806.33
509.885	2770.88
510.092	2757.12
510.299	2728.64
510.506	2710.81
510.713	2754.6
510.92	2726.51
511.126	2750.15
511.333	2785.79
511.54	2786.96
511.746	2855.93
511.953	2851.28
512.16	2857.29
512.367	2816.41
512.573	2810.4
512.78	2838.88
512.987	2781.14
513.193	2798.19
513.4	2685.24
513.606	2747.24
513.813	2775.14
514.02	2773.2
514.226	2787.93
514.433	2810.59
514.639	2723.02
514.846	2759.44
515.052	2729.8
515.259	2791.99
515.465	2802.07
515.672	2817.57
515.878	2878.41
516.085	2803.81
516.291	2871.24
516.497	2802.26
516.704	2728.45
516.91	2673.23
517.117	2622.66
517.323	2504.86
517.529	2477.54
517.736	2460.69
517.942	2472.7
518.148	2567.64
518.354	2622.27
518.561	2618.59
518.767	2599.22
518.973	2641.26
519.179	2647.85
519.386	2669.93
519.592	2649.01
519.798	2672.06
520.004	2829
520.21	2780.37
520.417	2837.91
520.623	2872.59
520.829	2907.86
521.035	2885.38
521.241	2885.77
521.447	2906.89
521.653	2981.87
521.859	2910.37
522.065	2938.66
522.271	3047.55
522.477	2968.5
522.683	3034.18
522.889	3004.92
523.095	2975.28
523.301	2910.57
523.507	2901.46
523.713	2951.25
523.919	2889.64
524.125	3047.55
524.331	3027.2
524.537	3166.31
524.742	3139.77
524.948	3147.91
525.154	3165.93
525.36	3213.78
525.566	3112.84
525.772	3191.69
525.977	3041.93
526.183	3136.67
526.389	3180.65
526.595	3056.07
526.8	3063.63
527.006	2913.47
527.212	2869.49
527.417	2840.62
527.623	2837.33
527.829	2947.57
528.034	2992.91
528.24	3013.84
528.446	3015.77
528.651	3166.51
528.857	3173.1
529.062	3239.74
529.268	3259.12
529.473	3260.09
529.679	3254.47
529.884	3385.05
530.09	3308.52
530.295	3284.5
530.501	3295.74
530.706	3309.3
530.912	3260.48
531.117	3317.82
531.323	3279.07
531.528	3347.27
531.733	3396.49
531.939	3334.49
532.144	3342.24
532.35	3348.05
532.555	3346.31
532.76	3286.82
532.966	3286.63
533.171	3269.97
533.376	3164.18
533.581	3168.45
533.787	3243.62
533.992	3277.52
534.197	3268.81
534.402	3312.98
534.607	3285.47
534.813	3337.97
535.018	3314.72
535.223	3362.19
535.428	3326.16
535.633	3408.3
535.838	3469.53
536.043	3453.25
536.249	3541.21
536.454	3425.35
536.659	3525.72
536.864	3452.48
537.069	3407.34
537.274	3464.1
537.479	3376.34
537.684	3373.43
537.889	3321.7
538.094	3438.92
538.299	3374.98
538.504	3402.3
538.708	3421.87
538.913	3480.77
539.118	3478.25
539.323	3433.3
539.528	3367.04
539.733	3372.65
539.938	3403.46
540.142	3424.77
540.347	3398.23
540.552	3333.52
540.757	3327.32
540.962	3361.42
541.166	3258.34
541.371	3279.27
541.576	3304.26
541.781	3208.36
541.985	3435.24
542.19	3368.97
542.395	3498.01
542.599	3483.28
542.804	3413.34
543.008	3496.27
543.213	3451.32
543.418	3389.32
543.622	3433.1
543.827	3386.8
544.031	3475.15
544.236	3511.57
544.44	3474.57
544.645	3550.9
544.849	3465.27
545.054	3508.08
545.258	3587.52
545.463	3558.26
545.667	3484.25
545.872	3526.1
546.076	3503.82
546.281	3524.55
546.485	3471.66
546.689	3508.67
546.894	3542.57
547.098	3481.54
547.302	3420.51
547.507	3518.93
547.711	3504.21
547.915	3516.03
548.119	3362.58
548.324	3394.55
548.528	3479.02
548.732	3429.42
548.936	3489.48
549.141	3482.9
549.345	3473.21
549.549	3480.96
549.753	3532.11
549.957	3614.06
550.161	3574.73
550.366	3537.15
550.57	3479.8
550.774	3498.2
550.978	3477.08
551.182	3487.16
551.386	3424.77
551.59	3420.12
551.794	3431.36
551.998	3509.44
552.202	3441.05
552.406	3400.36
552.61	3519.32
552.814	3549.74
553.018	3531.33
553.222	3434.46
553.426	3437.75
553.63	3563.3
553.833	3483.48
554.037	3427.29
554.241	3441.63
554.445	3473.21
554.649	3495.49
554.853	3452.87
555.056	3506.15
555.26	3530.95
555.464	3472.24
555.668	3543.93
555.871	3510.8
556.075	3565.24
556.279	3497.04
556.483	3442.99
556.686	3400.94
556.89	3462.55
557.094	3488.71
557.297	3351.54
557.501	3443.95
557.704	3337.39
557.908	3400.94
558.112	3432.52
558.315	3485.61
558.519	3356.38
558.722	3348.63
558.926	3369.75
559.129	3250.98
559.333	3279.27
559.536	3281.59
559.74	3267.45
559.943	3217.27
560.147	3269
560.35	3245.94
560.553	3298.64
560.757	3234.71
560.96	3329.26
561.164	3281.21
561.367	3385.83
561.57	3349.02
561.774	3347.66
561.977	3322.28
562.18	3268.61
562.384	3312.79
562.587	3248.46
562.79	3232.58
562.993	3268.03
563.197	3286.82
563.4	3278.49
563.603	3347.86
563.806	3361.81
564.009	3291.09
564.212	3320.92
564.416	3216.11
564.619	3246.53
564.822	3182.59
565.025	3323.44
565.228	3229.09
565.431	3285.08
565.634	3142.1
565.837	3175.03
566.04	3156.82
566.243	3146.16
566.446	3029.72
566.649	3172.13
566.852	3064.98
567.055	3125.24
567.258	3126.6
567.461	3194.6
567.664	3181.23
567.867	3138.8
568.07	3125.82
568.273	3144.61
568.475	3179.88
568.678	3090.37
568.881	3130.86
569.084	3096.76
569.287	2983.22
569.489	3024.68
569.692	3088.23
569.895	3066.73
570.098	2998.72
570.3	2981.48
570.503	2931.69
570.706	2950.09
570.909	2939.44
571.111	2876.08
571.314	2856.71
571.516	2913.67
571.719	2940.02
571.922	2877.63
572.124	2884.99
572.327	2940.79
572.529	2884.22
572.732	2897.39
572.935	2918.51
573.137	3056.65
573.34	2903.59
573.542	2990.39
573.745	2979.15
573.947	2938.66
574.15	2916.57
574.352	2899.33
574.554	3013.84
574.757	2863.68
574.959	2878.41
575.162	2897.39
575.364	2859.03
575.566	2952.03
575.769	2798
575.971	2860.58
576.173	2740.26
576.376	2847.6
576.578	2900.3
576.78	2879.37
576.982	2765.06
577.185	2803.43
577.387	2791.22
577.589	2792.96
577.791	2844.89
577.993	2852.06
578.196	2791.03
578.398	2814.08
578.6	2795.09
578.802	2727.09
579.004	2682.14
579.206	2755.57
579.408	2801.1
579.61	2738.91
579.812	2828.61
580.014	2722.44
580.216	2728.83
580.418	2748.79
580.62	2726.12
580.822	2707.33
581.024	2780.76
581.226	2808.85
581.428	2793.74
581.63	2854.19
581.832	2737.75
582.034	2792.19
582.236	2808.85
582.438	2827.06
582.64	2873.95
582.841	2861.74
583.043	2895.26
583.245	2785.21
583.447	2835.78
583.649	2839.46
583.85	2826.68
584.052	2859.42
584.254	2806.72
584.456	2854.19
584.657	2747.63
584.859	2801.1
585.061	2783.08
585.262	2711.01
585.464	2707.52
585.666	2805.94
585.867	2737.55
586.069	2788.89
586.27	2738.52
586.472	2721.66
586.674	2714.69
586.875	2721.08
587.077	2659.67
587.278	2708.3
587.48	2667.8
587.681	2829.39
587.883	2697.25
588.084	2636.8
588.285	2690.28
588.487	2653.08
588.688	2628.08
588.89	2562.79
589.091	2530.05
589.292	2525.4
589.494	2406.82
589.695	2366.14
589.896	2321.58
590.098	2298.13
590.299	2355.29
590.5	2369.82
590.702	2394.62
590.903	2419.81
591.104	2481.61
591.305	2509.32
591.507	2555.82
591.708	2545.16
591.909	2473.86
592.11	2563.57
592.311	2549.81
592.512	2476.38
592.714	2460.88
592.915	2505.83
593.116	2486.26
593.317	2521.33
593.518	2504.47
593.719	2485.29
593.92	2557.95
594.121	2531.4
594.322	2505.44
594.523	2520.75
594.724	2470.96
594.925	2494.4
595.126	2510.87
595.327	2527.72
595.528	2500.99
595.729	2481.81
595.929	2467.47
596.13	2476.77
596.331	2485.49
596.532	2518.62
596.733	2589.53
596.934	2553.3
597.135	2553.49
597.335	2541.67
597.536	2487.81
597.737	2515.9
597.938	2512.61
598.138	2549.04
598.339	2503.7
598.54	2518.42
598.74	2492.65
598.941	2517.07
599.142	2563.18
599.342	2504.47
599.543	2440.15
599.744	2473.47
599.944	2488.39
600.145	2470.96
600.345	2482
600.546	2566.86
600.746	2517.26
600.947	2581
601.147	2476.77
601.348	2563.95
601.548	2453.52
601.749	2510.67
601.949	2451.19
602.15	2451.19
602.35	2457.78
602.551	2478.32
602.751	2418.84
602.951	2451.58
603.152	2394.81
603.352	2507.19
603.552	2425.81
603.753	2525.01
603.953	2477.74
604.153	2522.3
604.354	2528.5
604.554	2523.85
604.754	2502.34
604.954	2488.2
605.155	2559.11
605.355	2518.42
605.555	2517.26
605.755	2545.55
605.955	2547.68
606.155	2545.55
606.356	2504.28
606.556	2536.44
606.756	2521.91
606.956	2467.86
607.156	2538.19
607.356	2454.29
607.556	2523.46
607.756	2492.27
607.956	2511.45
608.156	2489.56
608.356	2432.98
608.556	2518.23
608.756	2401.98
608.956	2409.73
609.156	2458.36
609.356	2388.81
609.556	2397.33
609.755	2423.49
609.955	2393.84
610.155	2427.94
610.355	2454.49
610.555	2388.42
610.755	2364.2
610.954	2334.56
611.154	2352.77
611.354	2406.24
611.554	2360.71
611.753	2337.08
611.953	2349.09
612.153	2400.24
612.352	2389.39
612.552	2280.89
612.752	2288.83
612.951	2340.18
613.151	2345.41
613.351	2295.81
613.55	2337.85
613.75	2352.77
613.949	2283.41
614.149	2358.19
614.348	2328.36
614.548	2273.72
614.747	2243.88
614.947	2267.52
615.146	2188.67
615.346	2354.9
615.545	2308.98
615.745	2331.26
615.944	2325.84
616.144	2316.54
616.343	2265.78
616.542	2252.41
616.742	2242.72
616.941	2245.43
617.14	2165.03
617.34	2217.53
617.539	2250.28
617.738	2203.97
617.938	2302.78
618.137	2235.36
618.336	2205.52
618.535	2284.38
618.734	2250.08
618.934	2260.55
619.133	2274.11
619.332	2288.45
619.531	2222.38
619.73	2257.25
619.929	2302.01
620.128	2268.68
620.328	2309.76
620.527	2249.11
620.726	2256.67
620.925	2224.32
621.124	2286.31
621.323	2230.9
621.522	2210.75
621.721	2241.17
621.92	2179.37
622.119	2245.24
622.318	2178.78
622.517	2192.93
622.715	2199.32
622.914	2141.78
623.113	2189.63
623.312	2117.56
623.511	2204.17
623.71	2167.16
623.909	2096.83
624.107	2218.89
624.306	2136.55
624.505	2111.55
624.704	2092.95
624.902	2144.49
625.101	2179.95
625.3	2142.17
625.499	2102.84
625.697	2112.72
625.896	2064.09
626.095	2090.24
626.293	2054.79
626.492	2099.35
626.69	2120.66
626.889	2097.8
627.088	2095.67
627.286	2047.23
627.485	2051.88
627.683	2059.82
627.882	2051.3
628.08	1972.64
628.279	1992.98
628.477	2085.4
628.676	1962.56
628.874	2033.09
629.073	1982.71
629.271	1950.36
629.469	2026.69
629.668	1995.5
629.866	2001.89
630.065	1986.01
630.263	2035.99
630.461	1936.02
630.66	1998.41
630.858	1990.46
631.056	2027.47
631.254	2043.55
631.453	1953.46
631.651	2023.98
631.849	1974.77
632.047	1939.51
632.245	1941.44
632.444	1977.09
632.642	1979.42
632.84	2024.17
633.038	1957.53
633.236	1963.53
633.434	1955.59
633.632	1937.57
633.83	1939.51
634.028	2030.37
634.227	1961.4
634.425	2046.26
634.623	1988.33
634.821	1992.4
635.019	1982.32
635.216	1986.78
635.414	2014.1
635.612	1996.08
635.81	1966.24
636.008	2040.06
636.206	1984.07
636.404	1994.72
636.602	1945.13
636.8	1990.07
636.997	1972.25
637.195	1985.23
637.393	1972.06
637.591	2039.67
637.789	2026.5
637.986	1967.79
638.184	1961.01
638.382	2057.11
638.58	2036.38
638.777	2061.95
638.975	1995.31
639.173	1994.72
639.37	2003.25
639.568	2005.57
639.765	2017.2
639.963	1941.44
640.161	2011.39
640.358	2016.42
640.556	1938.54
640.753	1930.98
640.951	1919.94
641.148	1948.03
641.346	1921.49
641.543	1924.39
641.741	1976.71
641.938	1860.26
642.136	1906.18
642.333	1874.21
642.531	1957.91
642.728	1964.5
642.925	1909.48
643.123	1914.32
643.32	1965.08
643.517	1901.14
643.715	1932.92
643.912	1899.21
644.109	1947.45
644.306	1924.01
644.504	1884.68
644.701	1884.29
644.898	1904.63
645.095	1839.92
645.293	1899.01
645.49	1921.68
645.687	1879.06
645.884	1891.84
646.081	1814.93
646.278	1832.36
646.475	1830.81
646.672	1811.63
646.87	1875.38
647.067	1844.57
647.264	1872.66
647.461	1821.71
647.658	1781.02
647.855	1815.51
648.052	1777.73
648.249	1726.97
648.446	1789.93
648.642	1812.21
648.839	1766.68
649.036	1746.34
649.233	1772.69
649.43	1741.88
649.627	1720.38
649.824	1755.25
650.021	1717.67
650.217	1726.38
650.414	1717.47
650.611	1757.38
650.808	1796.13
651.004	1767.46
651.201	1819.58
651.398	1847.67
651.595	1787.61
651.791	1770.56
651.988	1819.58
652.185	1729.1
652.381	1773.66
652.578	1714.37
652.775	1778.5
652.971	1777.34
653.168	1744.6
653.364	1812.8
653.561	1730.84
653.757	1750.22
653.954	1776.95
654.15	1745.57
654.347	1843.41
654.543	1761.65
654.74	1670.59
654.936	1689.57
655.133	1695.58
655.329	1719.6
655.525	1684.54
655.722	1728.9
655.918	1652.57
656.115	1638.42
656.311	1552.01
656.507	1477.03
656.704	1453.78
656.9	1489.63
657.096	1471.8
657.292	1479.94
657.489	1571.19
657.685	1587.27
657.881	1541.74
658.077	1602
658.273	1633.77
658.47	1703.33
658.666	1655.86
658.862	1686.86
659.058	1650.44
659.254	1716.5
659.45	1671.75
659.646	1700.81
659.842	1670
660.038	1741.3
660.234	1628.93
660.43	1706.04
660.626	1772.11
660.822	1754.48
661.018	1751.57
661.214	1732
661.41	1651.21
661.606	1774.82
661.802	1759.32
661.998	1737.82
662.194	1710.5
662.39	1761.65
662.586	1733.94
662.781	1699.84
662.977	1770.75
663.173	1748.28
663.369	1700.04
663.564	1710.5
663.76	1746.73
663.956	1709.53
664.152	1703.72
664.347	1639.59
664.543	1695.39
664.739	1691.32
664.934	1621.76
665.13	1639
665.326	1684.92
665.521	1675.62
665.717	1630.67
665.912	1655.28
666.108	1578.75
666.304	1667.1
666.499	1640.55
666.695	1571.58
666.89	1669.62
667.086	1660.51
667.281	1668.65
667.477	1689.38
667.672	1674.85
667.867	1640.75
668.063	1624.67
668.258	1572.94
668.454	1639.97
668.649	1678.72
668.844	1629.9
669.04	1638.23
669.235	1630.09
669.43	1588.44
669.626	1539.22
669.821	1593.67
670.016	1571.39
670.211	1579.91
670.407	1520.82
670.602	1596.77
670.797	1547.94
670.992	1633.77
671.187	1552.4
671.382	1619.82
671.578	1542.32
671.773	1597.93
671.968	1479.36
672.163	1553.37
672.358	1576.23
672.553	1527.02
672.748	1554.53
672.943	1610.91
673.138	1577.01
673.333	1593.47
673.528	1516.36
673.723	1574.29
673.918	1528.38
674.113	1506.87
674.308	1636.68
674.503	1560.73
674.698	1592.12
674.892	1530.31
675.087	1561.31
675.282	1534.57
675.477	1496.21
675.672	1546.97
675.867	1560.34
676.061	1524.5
676.256	1486.53
676.451	1519.85
676.646	1556.47
676.84	1516.94
677.035	1486.33
677.23	1498.15
677.424	1555.31
677.619	1574.1
677.814	1559.18
678.008	1575.84
678.203	1483.62
678.397	1495.83
678.592	1523.14
678.787	1610.14
678.981	1528.18
679.176	1594.25
679.37	1560.15
679.565	1508.23
679.759	1524.69
679.954	1559.57
680.148	1580.3
680.342	1585.92
680.537	1547.94
680.731	1519.85
680.926	1532.25
681.12	1557.05
681.314	1511.33
681.509	1525.66
681.703	1497.57
681.897	1533.02
682.092	1488.85
682.286	1505.71
682.48	1572.16
682.674	1526.83
682.869	1515.01
683.063	1522.56
683.257	1525.28
683.451	1472.58
683.645	1505.71
683.839	1482.26
684.034	1467.93
684.228	1532.25
684.422	1432.08
684.616	1456.49
684.81	1470.06
685.004	1431.7
685.198	1450.49
685.392	1491.56
685.586	1480.91
685.78	1446.03
685.974	1485.75
686.168	1459.98
686.362	1524.69
686.556	1363.88
686.75	1356.91
686.944	1333.66
687.138	1320.1
687.331	1190.67
687.525	1204.24
687.719	1140.88
687.913	1191.25
688.107	1216.25
688.301	1170.14
688.494	1218.38
688.688	1178.08
688.882	1184.67
689.076	1166.07
689.269	1215.86
689.463	1288.13
689.657	1186.99
689.85	1178.66
690.044	1243.18
690.238	1212.76
690.431	1241.44
690.625	1234.46
690.818	1276.12
691.012	1271.66
691.205	1333.66
691.399	1267.78
691.593	1299.95
691.786	1363.5
691.98	1360.59
692.173	1357.1
692.366	1353.81
692.56	1378.41
692.753	1404.57
692.947	1311.77
693.14	1409.03
693.333	1407.67
693.527	1317.19
693.72	1363.11
693.914	1325.13
694.107	1362.33
694.3	1327.85
694.493	1295.49
694.687	1396.05
694.88	1343.15
695.073	1378.8
695.266	1379
695.46	1382.1
695.653	1398.18
695.846	1421.62
696.039	1321.65
696.232	1363.69
696.425	1425.3
696.618	1437.51
696.812	1419.68
697.005	1493.5
697.198	1562.47
697.391	1496.41
697.584	1508.42
697.777	1583.98
697.97	1542.32
698.163	1542.91
698.356	1507.45
698.549	1595.22
698.742	1584.95
698.935	1531.28
699.127	1584.17
699.32	1507.64
699.513	1513.07
699.706	1553.17
699.899	1587.08
700.092	1541.36
700.285	1600.26
700.477	1509.97
700.67	1587.66
700.863	1647.14
701.056	1702.36
701.248	1649.47
701.441	1665.55
701.634	1591.34
701.826	1719.8
702.019	1621.37
702.212	1700.04
702.404	1607.23
702.597	1617.89
702.79	1634.94
702.982	1700.42
703.175	1744.6
703.367	1735.68
703.56	1781.02
703.752	1856
703.945	1770.37
704.137	1840.5
704.33	1824.23
704.522	1863.56
704.715	1844.38
704.907	1886.42
705.1	1922.26
705.292	1961.59
705.484	1910.06
705.677	1950.36
705.869	1967.79
706.061	1969.73
706.254	2038.12
706.446	1987.94
706.638	2002.28
706.831	2043.16
707.023	2026.5
707.215	2140.62
707.407	2118.34
707.599	2115.24
707.792	2135.39
707.984	2172.39
708.176	2197.97
708.368	2130.93
708.56	2190.8
708.752	2193.7
708.944	2150.5
709.136	2212.69
709.329	2180.92
709.521	2353.74
709.713	2298.91
709.905	2318.09
710.097	2350.44
710.289	2291.93
710.481	2340.95
710.672	2353.16
710.864	2409.34
711.056	2433.76
711.248	2418.84
711.44	2425.62
711.632	2417.09
711.824	2465.14
712.016	2516.49
712.207	2535.47
712.399	2522.3
712.591	2597.47
712.783	2564.92
712.975	2571.32
713.166	2552.52
713.358	2593.98
713.55	2650.37
713.741	2645.52
713.933	2652.11
714.125	2654.63
714.316	2624.21
714.508	2737.94
714.7	2724.76
714.891	2651.53
715.083	2780.95
715.274	2709.46
715.466	2756.34
715.657	2866.59
715.849	2706.55
716.04	2774.56
716.232	2707.13
716.423	2822.22
716.615	2722.25
716.806	2693.38
716.998	2618.98
717.189	2578.1
717.381	2537.22
717.572	2501.57
717.763	2515.9
717.955	2492.65
718.146	2456.23
718.337	2401.21
718.528	2374.08
718.72	2294.45
718.911	2376.41
719.102	2300.65
719.293	2367.49
719.485	2382.8
719.676	2318.09
719.867	2311.31
720.058	2359.94
720.249	2381.06
720.44	2375.05
720.632	2451.39
720.823	2460.11
721.014	2615.68
721.205	2653.27
721.396	2713.14
721.587	2804.98
721.778	2846.44
721.969	2925.68
722.16	2978.57
722.351	2962.69
722.542	3109.16
722.733	3161.47
722.924	3095.79
723.115	3117.68
723.305	3081.84
723.496	3116.33
723.687	3024.88
723.878	2997.95
724.069	3010.74
724.26	3025.46
724.45	2974.5
724.641	2940.02
724.832	3008.02
725.023	2947.57
725.213	2968.11
725.404	2949.9
725.595	2958.81
725.785	2986.13
725.976	3039.6
726.167	3043.87
726.357	3056.07
726.548	3182.78
726.739	3086.49
726.929	3165.35
727.12	3176.39
727.31	3248.27
727.501	3189.56
727.691	3209.52
727.882	3214.36
728.072	3227.54
728.263	3262.41
728.453	3315.11
728.644	3333.32
728.834	3275.98
729.024	3267.26
729.215	3283.72
729.405	3326.35
729.596	3414.5
729.786	3452.48
729.976	3486.77
730.167	3408.5
730.357	3428.65
730.547	3435.24
730.737	3481.35
730.928	3554.78
731.118	3607.48
731.308	3548
731.498	3546.83
731.688	3606.51
731.879	3679.74
732.069	3694.47
732.259	3746.2
732.449	3823.89
732.639	3872.91
732.829	3869.04
733.019	3927.55
733.209	4009.5
733.399	4034.5
733.589	4097.27
733.779	4131.37
733.969	4131.18
734.159	4211.19
734.349	4231.54
734.539	4284.62
734.729	4265.05
734.919	4349.92
735.109	4369.48
735.299	4288.5
735.488	4388.67
735.678	4294.7
735.868	4331.9
736.058	4351.08
736.248	4361.93
736.437	4344.3
736.627	4298.77
736.817	4473.72
737.007	4374.72
737.196	4436.52
737.386	4411.72
737.576	4417.34
737.765	4508.01
737.955	4454.35
738.144	4579.12
738.334	4557.23
738.524	4472.95
738.713	4588.61
738.903	4465.78
739.092	4593.07
739.282	4576.99
739.471	4564.01
739.661	4542.11
739.85	4673.09
740.04	4645.19
740.229	4650.61
740.419	4643.44
740.608	4707.96
740.797	4638.6
740.987	4728.69
741.176	4738.38
741.365	4732.95
741.555	4644.02
741.744	4748.65
741.933	4700.4
742.123	4723.85
742.312	4763.95
742.501	4789.72
742.69	4865.67
742.88	4716.68
743.069	4842.03
743.258	4837
743.447	4893.96
743.636	4842.62
743.825	4827.5
744.014	4825.37
744.204	4899.96
744.393	4811.42
744.582	4938.33
744.771	4966.81
744.96	4879.23
745.149	4861.41
745.338	4884.85
745.527	4976.3
745.716	4919.73
745.905	4906.55
746.094	4946.27
746.283	4974.56
746.471	4920.89
746.66	5006.91
746.849	5018.73
747.038	5010.59
747.227	4955.57
747.416	4951.69
747.604	4930.58
747.793	4915.85
747.982	4901.9
748.171	4986.57
748.359	4952.08
748.548	5008.85
748.737	4944.14
748.926	4926.31
749.114	4828.47
749.303	4951.89
749.491	4917.4
749.68	4834.48
749.869	4948.79
750.057	4843.58
750.246	4864.31
750.434	4898.8
750.623	4874.2
750.811	4867.41
751	4930
751.188	4871.29
751.377	4917.01
751.565	4868.77
751.754	4847.65
751.942	4868.19
752.131	4928.25
752.319	4826.73
752.507	4817.43
752.696	4864.12
752.884	4898.03
753.072	4834.48
753.261	4874.78
753.449	4851.33
753.637	4811.81
753.825	4915.46
754.014	4873.03
754.202	4869.74
754.39	4936.97
754.578	4873.03
754.766	4780.03
754.955	4796.31
755.143	4925.15
755.331	4741.87
755.519	4873.03
755.707	4831.96
755.895	4770.73
756.083	4828.86
756.271	4697.3
756.459	4737.8
756.647	4792.43
756.835	4746.9
757.023	4731.99
757.211	4724.24
757.399	4743.42
757.587	4734.89
757.775	4689.17
757.963	4718.42
758.151	4748.26
758.339	4664.76
758.526	4637.63
758.714	4707.57
758.902	4564.39
759.09	4536.3
759.278	4280.36
759.465	4046.31
759.653	3641.19
759.841	3331
760.028	2898.56
760.216	2565.89
760.404	2434.34
760.591	2066.41
760.779	1847.86
760.967	1627.38
761.154	1471.22
761.342	1490.59
761.529	1477.42
761.717	1607.04
761.905	1619.05
762.092	1738.78
762.28	1680.66
762.467	1775.4
762.655	1696.55
762.842	1692.87
763.029	1757.19
763.217	1777.15
763.404	1782.18
763.592	1847.86
763.779	1802.14
763.966	1852.9
764.154	1907.93
764.341	1967.6
764.528	1968.76
764.716	2070.09
764.903	2132.29
765.09	2218.5
765.277	2271.78
765.465	2436.08
765.652	2517.07
765.839	2631.18
766.026	2722.25
766.213	2841.21
766.4	2925.1
766.588	3134.54
766.775	3129.7
766.962	3270.16
767.149	3312.59
767.336	3510.99
767.523	3429.81
767.71	3528.82
767.897	3709.19
768.084	3775.07
768.271	3834.16
768.458	3886.86
768.645	3942.66
768.832	3932.78
769.019	3958.93
769.206	3998.65
769.392	4038.18
769.579	4142.99
769.766	4093.59
769.953	4114.51
770.14	4161.4
770.327	4137.76
770.513	4207.12
770.7	4236.38
770.887	4164.11
771.073	4218.36
771.26	4175.35
771.447	4173.22
771.634	4141.44
771.82	4261.57
772.007	4107.93
772.193	4163.14
772.38	4235.61
772.567	4159.07
772.753	4182.32
772.94	4240.84
773.126	4235.22
773.313	4202.86
773.499	4179.42
773.686	4237.16
773.872	4132.14
774.059	4215.84
774.245	4131.95
774.432	4120.52
774.618	4060.07
774.804	4094.36
774.991	4069.76
775.177	4151.52
775.363	4136.21
775.55	4102.5
775.736	4042.83
775.922	4093.2
776.109	4056.78
776.295	4057.75
776.481	4069.37
776.667	4100.37
776.853	4063.75
777.04	4039.73
777.226	4027.33
777.412	4134.86
777.598	3984.7
777.784	3987.22
777.97	4009.5
778.156	4000.01
778.342	4033.53
778.528	3995.36
778.715	3876.01
778.901	3967.85
779.087	4003.11
779.272	3886.86
779.458	3934.91
779.644	3938.98
779.83	3901.78
780.016	4007.37
780.202	3922.12
780.388	3913.02
780.574	3823.12
780.76	3873.88
780.946	3885.89
781.131	3879.69
781.317	3855.67
781.503	3792.89
781.689	3867.87
781.874	3968.43
782.06	3778.56
782.246	3876.2
782.432	3802.19
782.617	3833.97
782.803	3873.69
782.989	3761.12
783.174	3810.52
783.36	3727.99
783.545	3765.19
783.731	3766.54
783.916	3655.72
784.102	3728.37
784.288	3702.99
784.473	3747.36
784.659	3695.24
784.844	3733.61
785.029	3680.33
785.215	3713.26
785.4	3628.79
785.586	3758.6
785.771	3654.17
785.956	3652.43
786.142	3684.59
786.327	3641.38
786.512	3638.48
786.698	3608.64
786.883	3576.28
787.068	3580.74
787.254	3587.52
787.439	3575.7
787.624	3514.28
787.809	3504.98
787.994	3504.21
788.18	3555.55
788.365	3450.54
788.55	3470.5
788.735	3518.93
788.92	3503.63
789.105	3512.93
789.29	3488.71
789.475	3437.56
789.66	3451.7
789.845	3435.62
790.03	3422.25
790.215	3438.53
790.4	3430
790.585	3419.54
790.77	3404.04
790.955	3355.61
791.14	3370.72
791.325	3472.82
791.51	3267.45
791.695	3386.41
791.879	3372.65
792.064	3345.34
792.249	3434.46
792.434	3304.26
792.618	3365.68
792.803	3389.51
792.988	3330.42
793.173	3381.37
793.357	3378.47
793.542	3284.89
793.727	3295.93
793.911	3378.85
794.096	3343.79
794.281	3370.33
794.465	3450.35
794.65	3352.51
794.834	3400.94
795.019	3444.73
795.203	3442.02
795.388	3438.34
795.572	3461.2
795.757	3422.45
795.941	3441.05
796.126	3399.39
796.31	3365.29
796.494	3465.46
796.679	3388.35
796.863	3368
797.048	3465.85
797.232	3411.21
797.416	3426.32
797.601	3411.99
797.785	3493.36
797.969	3455.19
798.153	3414.12
798.338	3494.33
798.522	3473.98
798.706	3513.51
798.89	3467.98
799.074	3558.85
799.258	3510.6
799.443	3468.95
799.627	3468.56
799.811	3511.18
799.995	3477.28
800.179	3443.37
800.363	3424
800.547	3472.24
800.731	3486
800.915	3395.9
801.099	3401.72
801.283	3443.57
801.467	3473.6
801.651	3460.23
801.835	3462.17
802.019	3440.27
802.202	3453.45
802.386	3400.36
802.57	3401.91
802.754	3411.6
802.938	3360.26
803.121	3360.26
803.305	3467.78
803.489	3417.8
803.673	3459.45
803.856	3405.79
804.04	3380.99
804.224	3407.53
804.407	3393.19
804.591	3390.87
804.775	3381.95
804.958	3389.9
805.142	3500.14
805.326	3409.27
805.509	3399.97
805.693	3434.65
805.876	3442.4
806.06	3421.09
806.243	3449.57
806.427	3457.32
806.61	3461.78
806.794	3378.08
806.977	3470.88
807.16	3403.07
807.344	3448.99
807.527	3430.59
807.71	3401.33
807.894	3414.89
808.077	3431.17
808.26	3365.68
808.444	3357.74
808.627	3415.47
808.81	3321.51
808.993	3301.55
809.177	3278.88
809.36	3331
809.543	3335.84
809.726	3225.41
809.909	3248.46
810.092	3220.95
810.276	3215.91
810.459	3209.33
810.642	3217.66
810.825	3158.18
811.008	3180.85
811.191	3117.1
811.374	3120.4
811.557	3108
811.74	3196.93
811.923	3108.77
812.106	3097.73
812.289	3028.17
812.472	3014.03
812.654	3046.19
812.837	2996.79
813.02	2952.22
813.203	2909.02
813.386	2831.52
813.569	2805.94
813.751	2711.2
813.934	2756.15
814.117	2714.11
814.3	2694.35
814.482	2649.2
814.665	2584.68
814.848	2568.22
815.03	2523.07
815.213	2482.77
815.396	2495.17
815.578	2437.24
815.761	2401.59
815.943	2469.41
816.126	2340.18
816.309	2352.96
816.491	2218.89
816.674	2197.77
816.856	2224.51
817.039	2234
817.221	2312.86
817.403	2275.85
817.586	2267.33
817.768	2308.01
817.951	2185.18
818.133	2200.48
818.315	2186.34
818.498	2239.62
818.68	2319.06
818.862	2289.41
819.045	2340.56
819.227	2292.71
819.409	2231.29
819.591	2282.44
819.774	2278.18
819.956	2229.74
820.138	2345.99
820.32	2299.49
820.502	2358
820.684	2457.97
820.866	2427.36
821.048	2522.49
821.231	2513.58
821.413	2481.61
821.595	2494.59
821.777	2477.74
821.959	2470.18
822.141	2544.39
822.323	2383.77
822.505	2342.5
822.686	2261.71
822.868	2182.27
823.05	2057.3
823.232	2028.05
823.414	1919.55
823.596	1992.79
823.778	2013.91
823.96	2047.04
824.141	2045.1
824.323	2040.06
824.505	2159.8
824.687	2210.17
824.868	2265.58
825.05	2330.1
825.232	2393.26
825.413	2479.48
825.595	2400.82
825.777	2315.38
825.958	2417.29
826.14	2398.69
826.321	2410.31
826.503	2384.35
826.685	2418.06
826.866	2412.44
827.048	2482.19
827.229	2387.64
827.411	2348.12
827.592	2311.11
827.773	2297.55
827.955	2250.08
828.136	2223.73
828.318	2155.73
828.499	2246.6
828.68	2152.05
828.862	2177.23
829.043	2216.18
829.224	2183.24
829.406	2140.42
829.587	2173.55
829.768	2202.03
829.949	2162.32
830.131	2172
830.312	2250.08
830.493	2176.07
830.674	2178.4
830.855	2137.9
831.036	2187.5
831.218	2224.7
831.399	2233.03
831.58	2191.77
831.761	2182.47
831.942	2171.03
832.123	2163.09
832.304	2110.97
832.485	2121.05
832.666	2135
832.847	2152.63
833.028	2159.99
833.209	2161.93
833.389	2148.95
833.57	2076.87
833.751	2100.7
833.932	2139.84
834.113	2110.59
834.294	2146.62
834.475	2182.85
834.655	2171.62
834.836	2172.39
835.017	2146.82
835.198	2125.89
835.378	2166.58
835.559	2236.52
835.74	2158.63
835.92	2146.23
836.101	2124.54
836.281	2207.65
836.462	2192.35
836.643	2196.8
836.823	2221.22
837.004	2204.55
837.184	2259.19
837.365	2215.79
837.545	2221.99
837.726	2215.21
837.906	2274.3
838.087	2229.55
838.267	2230.13
838.448	2188.47
838.628	2177.04
838.808	2192.93
838.989	2240.78
839.169	2163.28
839.349	2215.98
839.53	2247.56
839.71	2232.06
839.89	2179.37
840.07	2260.93
840.251	2175.88
840.431	2225.67
840.611	2178.98
840.791	2153.21
840.971	2177.82
841.151	2178.78
841.332	2115.24
841.512	2191.57
841.692	2114.27
841.872	2175.68
842.052	2160.77
842.232	2158.83
842.412	2138.29
842.592	2120.47
842.772	2184.6
842.952	2162.9
843.132	2123.18
843.312	2085.98
843.492	2093.34
843.672	2134.8
843.851	2054.59
844.031	2094.12
844.211	2089.27
844.391	2091.02
844.571	2114.65
844.751	2128.99
844.93	2106.9
845.11	2094.89
845.29	2110.59
845.47	2133.64
845.649	2073.97
845.829	2110.2
846.009	2079.78
846.188	2124.54
846.368	2075.52
846.547	2093.54
846.727	2126.67
846.907	2050.72
847.086	2031.15
847.266	2110.78
847.445	2057.69
847.625	2055.95
847.804	2046.65
847.984	2036.57
848.163	2059.24
848.343	2039.67
848.522	2008.29
848.701	1999.96
848.881	1972.25
849.06	2044.71
849.239	2048.39
849.419	2018.36
849.598	1935.44
849.777	1928.85
849.957	1943.19
850.136	1883.71
850.315	1857.36
850.494	1821.32
850.674	1849.61
850.853	1930.4
851.032	1906.76
851.211	1931.18
851.39	1905.6
851.569	1854.06
851.748	1827.13
851.927	1934.08
852.107	1885.26
852.286	1847.86
852.465	1830.43
852.644	1918.78
852.823	1898.63
853.002	1846.7
853.181	1902.11
853.359	1852.51
853.538	1804.46
853.717	1890.68
853.896	1721.93
854.075	1698.49
854.254	1668.65
854.433	1586.11
854.611	1628.93
854.79	1588.44
854.969	1657.41
855.148	1645.01
855.327	1637.45
855.505	1683.18
855.684	1648.5
855.863	1707.4
856.041	1656.64
856.22	1743.82
856.399	1717.08
856.577	1780.63
856.756	1808.73
856.934	1919.55
857.113	1895.53
857.291	1814.54
857.47	1800.59
857.648	1807.37
857.827	1808.73
858.005	1842.25
858.184	1793.23
858.362	1882.16
858.541	1789.55
858.719	1767.27
858.898	1767.27
859.076	1791.48
859.254	1862.4
859.433	1763.2
859.611	1799.04
859.789	1703.52
859.967	1790.32
860.146	1838.18
860.324	1725.03
860.502	1733.94
860.68	1710.5
860.859	1710.11
861.037	1723.28
861.215	1742.08
861.393	1754.87
861.571	1712.05
861.749	1667.29
861.927	1720.96
862.105	1720.18
862.283	1707.78
862.461	1676.98
862.639	1678.92
862.817	1664.39
862.995	1735.1
863.173	1684.92
863.351	1651.99
863.529	1695.77
863.707	1700.23
863.885	1685.12
864.063	1628.15
864.241	1669.42
864.418	1695.77
864.596	1615.56
864.774	1624.86
864.952	1661.67
865.129	1661.29
865.307	1593.09
865.485	1573.13
865.663	1623.12
865.84	1511.71
866.018	1576.62
866.196	1431.89
866.373	1443.13
866.551	1412.9
866.728	1334.05
866.906	1390.23
867.084	1444.68
867.261	1448.36
867.439	1457.85
867.616	1487.69
867.794	1480.33
867.971	1525.28
868.149	1500.86
868.326	1571.39
868.503	1574.87
868.681	1521.98
868.858	1533.61
869.035	1517.72
869.213	1511.52
869.39	1505.9
869.567	1579.14
869.745	1525.86
869.922	1519.66
870.099	1540.39
870.276	1539.81
870.454	1532.25
870.631	1565.96
870.808	1512.88
870.985	1556.47
871.162	1575.84
871.339	1571.39
871.517	1448.74
871.694	1474.9
871.871	1508.81
872.048	1479.36
872.225	1455.72
872.402	1504.54
872.579	1443.51
872.756	1501.64
872.933	1406.31
873.11	1426.66
873.287	1483.81
873.463	1440.03
873.64	1434.41
873.817	1472.58
873.994	1429.37
874.171	1431.31
874.348	1478.39
874.524	1391.4
874.701	1440.03
874.878	1366.79
875.055	1442.74
875.231	1396.82
875.408	1449.13
875.585	1368.73
875.762	1385.39
875.938	1402.25
876.115	1371.44
876.291	1350.71
876.468	1397.4
876.645	1372.21
876.821	1371.05
876.998	1360.59
877.174	1373.57
877.351	1331.72
877.527	1329.78
877.704	1394.11
877.88	1340.83
878.057	1352.26
878.233	1356.91
878.409	1342.96
878.586	1361.36
878.762	1318.16
878.938	1330.75
879.115	1244.73
879.291	1322.23
879.467	1261.59
879.644	1293.17
879.82	1318.55
879.996	1263.52
880.172	1254.42
880.349	1303.63
880.525	1295.68
880.701	1257.13
880.877	1254.22
881.053	1277.67
881.229	1264.49
881.405	1353.23
881.581	1263.52
881.757	1229.23
881.933	1290.65
882.109	1299.95
882.285	1289.29
882.461	1195.52
882.637	1286.77
882.813	1259.84
882.989	1242.99
883.165	1322.23
883.341	1251.7
883.517	1311.57
883.693	1302.08
883.869	1322.42
884.044	1246.09
884.22	1297.43
884.396	1339.08
884.572	1305.37
884.747	1304.79
884.923	1298.59
885.099	1322.81
885.275	1348.19
885.45	1250.93
885.626	1263.91
885.801	1224.97
885.977	1225.55
886.153	1189.9
886.328	1286.19
886.504	1205.79
886.679	1248.41
886.855	1218.38
887.03	1267.98
887.206	1311.57
887.381	1267.78
887.557	1251.51
887.732	1290.84
887.908	1257.71
888.083	1327.46
888.258	1253.06
888.434	1250.35
888.609	1268.56
888.784	1283.09
888.96	1227.49
889.135	1229.81
889.31	1243.37
889.485	1268.56
889.661	1240.27
889.836	1307.5
890.011	1280.57
890.186	1267.4
890.361	1228.65
890.537	1258.1
890.712	1285.22
890.887	1287.74
891.062	1265.46
891.237	1296.27
891.412	1226.9
891.587	1251.7
891.762	1292.97
891.937	1264.3
892.112	1225.35
892.287	1239.89
892.462	1200.75
892.637	1190.48
892.812	1131
892.987	1207.72
893.161	1178.86
893.336	1169.36
893.511	1198.81
893.686	1152.89
893.861	1167.42
894.035	1144.56
894.21	1162.97
894.385	1118.99
894.56	1154.25
894.734	1079.27
894.909	1083.34
895.084	1103.29
895.258	1090.31
895.433	1049.04
895.608	1057.57
895.782	1050.98
895.957	1031.8
896.131	1021.73
896.306	963.21
896.48	977.55
896.655	963.99
896.829	878.35
897.004	913.23
897.178	896.57
897.353	905.09
897.527	935.7
897.701	893.08
897.876	860.53
898.05	973.68
898.224	923.69
898.399	958.18
898.573	914.78
898.747	788.07
898.921	818.87
899.096	737.89
899.27	730.52
899.444	762.1
899.618	778.57
899.792	809.19
899.967	801.05
900.141	868.47
900.315	760.94
900.489	800.08
900.663	808.6
900.837	794.65
901.011	732.27
901.185	857.43
901.359	807.05
901.533	822.94
901.707	805.12
901.881	803.95
902.055	734.21
902.229	786.52
902.403	874.87
902.576	808.6
902.75	801.82
902.924	911.87
903.098	852.2
903.272	886.3
903.446	945.39
903.619	914.78
903.793	987.43
903.967	943.06
904.14	989.76
904.314	973.48
904.488	971.16
904.661	957.01
904.835	957.4
905.009	1002.74
905.182	1034.51
905.356	981.43
905.529	966.7
905.703	986.46
905.876	937.25
906.05	912.07
906.223	905.09
906.397	833.4
906.57	851.81
906.744	778.96
906.917	811.12
907.09	796.2
907.264	792.91
907.437	755.71
907.61	726.46
907.784	766.75
907.957	764.62
908.13	709.41
908.304	756.49
908.477	706.5
908.65	730.14
908.823	670.46
908.996	783.03
909.17	724.52
909.343	715.61
909.516	707.08
909.689	710.96
909.862	681.89
910.035	690.03
910.208	675.69
910.381	698.36
910.554	778.19
910.727	685.19
910.9	705.72
911.073	684.22
911.246	752.03
911.419	762.88
911.592	768.11
911.765	700.11
911.938	675.31
912.11	702.62
912.283	705.53
912.456	723.16
912.629	718.71
912.802	691
912.974	642.18
913.147	598.78
913.32	562.16
913.493	590.06
913.665	619.51
913.838	630.74
914.01	612.14
914.183	647.6
914.356	604.2
914.528	660.77
914.701	719.48
914.873	692.55
915.046	591.41
915.218	596.84
915.391	533.68
915.563	532.32
915.736	589.28
915.908	612.53
916.081	602.46
916.253	603.04
916.425	610.79
916.598	610.01
916.77	608.66
916.942	584.05
917.115	522.05
917.287	596.45
917.459	615.05
917.632	534.65
917.804	486.98
917.976	561.19
918.148	577.85
918.32	604.98
918.493	626.68
918.665	669.88
918.837	643.53
919.009	661.16
919.181	668.33
919.353	648.38
919.525	623.96
919.697	615.44
919.869	603.23
920.041	692.94
920.213	759.2
920.385	656.12
920.557	648.38
920.729	683.06
920.901	647.79
921.073	615.05
921.244	604.01
921.416	667.75
921.588	604.98
921.76	618.34
921.932	673.56
922.103	616.21
922.275	617.18
922.447	631.71
922.619	545.3
922.79	614.47
922.962	576.11
923.134	605.75
923.305	531.55
923.477	556.93
923.648	547.63
923.82	571.84
923.991	526.12
924.163	501.9
924.335	548.21
924.506	514.69
924.677	604.2
924.849	526.9
925.02	547.82
925.192	578.63
925.363	550.92
925.535	555.18
925.706	509.46
925.877	586.57
926.049	526.51
926.22	562.55
926.391	558.28
926.562	584.24
926.734	479.04
926.905	566.81
927.076	487.37
927.247	522.83
927.419	471.1
927.59	452.11
927.761	487.18
927.932	457.53
928.103	454.43
928.274	399.6
928.445	431.57
928.616	408.32
928.787	416.65
928.958	462.57
929.129	412.58
929.3	399.41
929.471	363.95
929.642	302.54
929.813	275.41
929.984	362.6
930.155	276.57
930.326	327.72
930.496	289.56
930.667	247.12
930.838	295.95
931.009	244.8
931.18	257.59
931.35	255.26
931.521	261.07
931.692	188.61
931.863	134.36
932.033	191.33
932.204	198.3
932.374	206.83
932.545	140.95
932.716	237.44
932.886	214.58
933.057	129.52
933.227	127.58
933.398	221.16
933.568	96.78
933.739	71.01
933.909	76.63
934.08	126.23
934.25	59
934.421	59.19
934.591	118.86
934.761	86.9
934.932	41.37
935.102	159.94
935.272	92.51
935.443	90.96
935.613	92.13
935.783	98.71
935.953	69.26
936.123	232.4
936.294	80.11
936.464	66.55
936.634	96.39
936.804	71.01
936.974	30.71
937.144	108.4
937.314	105.5
937.484	68.49
937.655	50.66
937.825	121.58
937.995	82.05
938.165	110.34
938.334	107.63
938.504	119.64
938.674	90.58
938.844	121.96
939.014	180.28
939.184	147.93
939.354	231.62
939.524	151.41
939.694	146.76
939.863	148.31
940.033	213.41
940.203	226.59
940.373	203.73
940.542	190.36
940.712	163.23
940.882	181.64
941.051	197.14
941.221	191.91
941.391	195.59
941.56	152.77
941.73	138.24
941.899	245.19
942.069	174.28
942.238	191.71
942.408	151.41
942.577	189
942.747	122.55
942.916	82.44
943.086	111.11
943.255	165.94
943.425	159.94
943.594	129.71
943.763	60.35
943.933	96.78
944.102	51.83
944.271	110.92
944.441	143.86
944.61	96.39
944.779	132.62
944.948	219.22
945.117	94.06
945.287	96.97
945.456	69.46
945.625	75.85
945.794	107.82
945.963	81.66
946.132	128.16
946.301	79.34
946.47	146.96
946.639	62.68
946.808	78.95
946.977	142.5
947.146	152.19
947.315	94.45
947.484	150.44
947.653	94.84
947.822	121.96
947.991	89.61
948.16	206.24
948.329	160.71
948.498	113.44
948.666	108.98
948.835	137.08
949.004	81.66
949.173	115.96
949.341	131.26
949.51	144.44
949.679	153.93
949.847	138.24
950.016	184.93
950.185	178.34
950.353	117.7
950.522	142.11
950.69	177.18
950.859	132.43
951.028	171.18
951.196	121.38
951.365	132.04
951.533	126.23
951.701	147.93
951.87	136.49
952.038	82.05
952.207	96.58
952.375	166.91
952.543	100.65
952.712	98.33
952.88	102.2
953.048	178.93
953.217	91.74
953.385	141.34
953.553	162.65
953.721	101.62
953.89	114.6
954.058	48.73
954.226	85.35
954.394	133.98
954.562	80.11
954.73	101.43
954.898	78.95
955.067	140.56
955.235	77.01
955.403	151.61
955.571	187.64
955.739	155.29
955.907	59.77
956.075	107.05
956.243	85.93
956.41	133.78
956.578	61.51
956.746	75.46
956.914	102.2
957.082	123.13
957.25	147.15
957.418	97.36
957.585	135.91
957.753	150.25
957.921	85.93
958.089	125.06
958.256	131.65
958.424	125.26
958.592	124.29
958.759	87.09
958.927	147.15
959.095	73.72
959.262	124.87
959.43	118.48
959.597	92.51
959.765	102.2
959.932	77.79
960.1	144.44
960.267	117.9
960.435	108.4
960.602	133.01
960.77	115.76
960.937	88.64
961.104	103.95
961.272	69.65
961.439	118.09
961.606	137.27
961.774	144.83
961.941	96
962.108	122.93
962.275	130.88
962.443	159.94
962.61	93.87
962.777	179.12
962.944	145.41
963.111	151.8
963.278	152.38
963.446	108.21
963.613	135.53
963.78	136.69
963.947	144.24
964.114	132.04
964.281	202.76
964.448	153.54
964.615	108.01
964.782	144.44
964.949	167.3
965.116	141.34
965.282	164.98
965.449	136.69
965.616	92.51
965.783	136.3
965.95	161.49
966.117	66.16
966.283	127
966.45	138.04
966.617	150.06
966.784	179.89
966.95	179.7
967.117	157.61
967.284	87.86
967.45	119.06
967.617	175.05
967.784	162.65
967.95	215.54
968.117	138.24
968.283	162.26
968.45	214.77
968.616	153.93
968.783	191.71
968.949	154.51
969.116	224.65
969.282	146.38
969.449	154.51
969.615	147.54
969.781	109.56
969.948	134.75
970.114	125.65
970.28	191.52
970.447	138.04
970.613	188.03
970.779	159.74
970.945	164.39
971.112	155.87
971.278	142.11
971.444	153.35
971.61	195.2
971.776	135.53
971.942	191.33
972.108	150.64
972.275	141.14
972.441	170.4
972.607	204.31
972.773	118.28
972.939	163.43
973.105	142.11
973.271	104.53
973.437	144.05
973.602	152.58
973.768	150.83
973.934	136.49
974.1	143.08
974.266	73.53
974.432	145.6
974.598	151.03
974.763	177.38
974.929	124.48
975.095	189.97
975.261	128.36
975.426	105.3
975.592	120.8
975.758	179.7
975.923	80.31
976.089	113.05
976.255	152.77
976.42	132.43
976.586	142.89
976.751	133.01
976.917	232.59
977.082	151.03
977.248	78.18
977.413	39.23
977.579	113.25
977.744	148.51
977.91	81.08
978.075	113.25
978.24	142.31
978.406	120.03
978.571	129.52
978.736	93.87
978.902	160.52
979.067	84.18
979.232	59
979.397	108.21
979.563	158.97
979.728	82.83
979.893	117.12
980.058	96.2
980.223	151.41
980.388	136.69
980.554	111.7
980.719	97.55
980.884	129.91
981.049	137.85
981.214	119.45
981.379	123.71
981.544	101.81
981.709	108.01
981.874	130.49
982.039	122.93
982.204	128.55
982.368	121.96
982.533	109.37
982.698	133.59
982.863	148.31
983.028	86.31
983.193	134.75
983.357	127.97
983.522	135.91
983.687	113.05
983.852	116.54
984.016	87.67
984.181	119.64
984.346	161.1
984.51	133.78
984.675	103.56
984.839	146.96
985.004	156.45
985.168	140.56
985.333	139.98
985.498	130.3
985.662	126.42
985.827	140.18
985.991	110.34
986.155	118.09
986.32	168.46
986.484	159.16
986.649	146.18
986.813	67.33
986.977	123.71
987.142	137.46
987.306	81.66
987.47	69.85
987.634	117.51
987.799	118.48
987.963	130.88
988.127	132.04
988.291	168.27
988.455	119.83
988.62	115.96
988.784	126.42
988.948	129.33
989.112	89.61
989.276	115.96
989.44	124.1
989.604	100.46
989.768	102.01
989.932	182.03
990.096	61.51
990.26	67.13
990.424	79.34
990.588	100.46
990.752	164.01
990.915	129.33
991.079	94.06
991.243	87.28
991.407	126.61
991.571	123.32
991.734	135.33
991.898	110.15
992.062	186.87
992.226	87.28
992.389	79.73
992.553	42.33
992.717	71.59
992.88	90.19
993.044	81.08
993.207	94.45
993.371	139.4
993.535	86.12
993.698	95.81
993.862	132.04
994.025	157.23
994.189	116.73
994.352	81.66
994.515	108.01
994.679	148.89
994.842	71.59
995.006	133.59
995.169	81.47
995.332	74.69
995.496	126.81
995.659	56.86
995.822	68.49
995.985	93.1
996.149	157.61
996.312	101.23
996.475	170.01
996.638	87.09
996.801	132.04
996.964	176.6
997.128	79.73
997.291	91.93
997.454	101.43
997.617	59
997.78	119.64
997.943	66.55
998.106	130.88
998.269	43.3
998.432	66.94
998.595	63.45
998.758	28.19
998.92	51.44
999.083	33.81
999.246	99.3
999.409	34.39
999.572	36.72
999.735	58.41
999.897	76.43
1000.06	83.41
1000.223	53.38
1000.386	121
1000.548	95.61
1000.711	101.43
1000.874	96.58
1001.036	18.12
1001.199	98.13
1001.361	45.43
1001.524	80.11
1001.687	114.02
1001.849	55.7
1002.012	94.84
1002.174	80.89
1002.337	110.34
1002.499	63.45
1002.661	101.62
1002.824	31.87
1002.986	63.84
1003.149	51.63
1003.311	48.92
1003.473	101.23
1003.636	40.78
1003.798	100.26
1003.96	95.23
1004.123	59.77
1004.285	47.56
1004.447	61.13
1004.609	54.15
1004.771	134.94
1004.933	10.37
1005.096	49.5
1005.258	-10.95
1005.42	41.17
1005.582	97.16
1005.744	65.97
1005.906	7.27
1006.068	53.38
1006.23	8.62
1006.392	-16.18
1006.554	45.24
1006.716	116.15
1006.878	82.05
1007.04	13.27
1007.202	55.7
1007.363	57.83
1007.525	69.46
1007.687	79.73
1007.849	94.84
1008.011	11.92
1008.172	2.81
1008.334	45.05
1008.496	67.33
1008.658	16.57
1008.819	45.05
1008.981	10.17
1009.143	30.9
1009.304	31.1
1009.466	60.93
1009.627	103.75
1009.789	140.56
1009.95	72.17
1010.112	18.5
1010.273	73.33
1010.435	-4.55
1010.596	50.47
1010.758	36.33
1010.919	34.58
1011.081	4.55
1011.242	49.11
1011.403	62.1
1011.565	33.42
1011.726	46.21
1011.887	23.73
1012.049	33.23
1012.21	85.35
1012.371	113.83
1012.532	-37.1
1012.693	30.52
1012.855	37.1
1013.016	30.9
1013.177	79.34
1013.338	54.35
1013.499	97.94
1013.66	77.01
1013.821	90.38
1013.982	66.55
1014.143	59.38
1014.304	24.12
1014.465	71.59
1014.626	61.71
1014.787	28.97
1014.948	137.46
1015.109	-25.09
1015.27	55.51
1015.431	12.3
1015.592	5.91
1015.752	89.03
1015.913	48.92
1016.074	45.82
1016.235	51.63
1016.395	40.59
1016.556	36.13
1016.717	42.53
1016.877	102.78
1017.038	35.17
1017.199	19.67
1017.359	17.73
1017.52	47.18
1017.681	29.16
1017.841	43.69
1018.002	24.32
1018.162	20.44
1018.323	99.68
1018.483	23.93
1018.644	42.53
1018.804	2.42
1018.964	-19.86
1019.125	17.34
1019.285	32.65
1019.446	5.91
1019.606	25.09
1019.766	-35.55
1019.926	26.06
1020.087	46.79
1020.247	-8.43
1020.407	38.46
1020.567	88.83
1020.728	40.59
1020.888	-0.68
1021.048	-9.4
1021.208	-18.12
1021.368	-4.75
1021.528	58.8
1021.688	58.61
1021.848	38.07
1022.008	39.04
1022.168	27.03
1022.328	38.65
1022.488	39.43
1022.648	11.53
1022.808	18.5
1022.968	54.35
1023.128	15.02
1023.288	18.89
1023.448	21.6
1023.608	55.7
1023.767	40.59
1023.927	-0.1
1024.087	-18.5
1024.247	1.65
1024.406	4.55
1024.566	-16.57
1024.726	20.25
1024.885	16.37
1025.045	43.3
1025.205	22.77
1025.364	12.5
1025.524	35.55
1025.683	23.35
1025.843	8.23
1026.003	28.58
1026.162	76.63
1026.321	71.98
1026.481	36.13
1026.64	-0.87
1026.8	14.63
1026.959	24.12
1027.119	16.18
1027.278	16.18
1027.437	13.47
1027.597	8.23
1027.756	35.75
1027.915	28.97
1028.074	44.85
1028.234	9.59
1028.393	0.1
1028.552	1.26
1028.711	-30.9
1028.87	46.4
1029.03	-30.32
1029.189	12.5
1029.348	-44.66
1029.507	3
1029.666	12.11
1029.825	-16.95
1029.984	-6.88
1030.143	3.39
1030.302	23.93
1030.461	-57.83
1030.62	12.3
1030.779	44.85
1030.938	-8.82
1031.097	-13.47
1031.255	38.85
1031.414	78.56
1031.573	69.85
1031.732	-49.89
1031.891	8.62
1032.049	62.1
1032.208	31.87
1032.367	15.21
1032.525	-9.59
1032.684	9.59
1032.843	18.5
1033.001	-37.68
1033.16	153.74
1033.319	63.65
1033.477	37.3
1033.636	0.1
1033.794	-29.35
1033.953	22.57
1034.111	20.83
1034.27	13.85
1034.428	43.5
1034.587	-20.44
1034.745	13.66
1034.903	31.48
1035.062	46.01
1035.22	-19.47
1035.378	26.83
1035.537	-9.01
1035.695	40.59
1035.853	30.9
1036.011	44.46
1036.17	30.71
1036.328	-41.37
1036.486	46.98
1036.644	9.98
1036.802	-71.59
1036.96	-11.14
1037.119	15.98
1037.277	-9.4
1037.435	-29.16
1037.593	-35.94
1037.751	8.23
1037.909	11.53
1038.067	11.53
