Data from gum_old_FLMT105791__17__15-42-39-259.txt Node

Date: Mon Mar 20 15:42:39 GMT 2023
User: antho
Spectrometer: FLMT10579
Trigger mode: 0
Integration Time (sec): 1.000000E-1
Scans to average: 10
Electric dark correction enabled: true
Nonlinearity correction enabled: false
Boxcar width: 0
XAxis mode: Wavelengths
Number of Pixels in Spectrum: 3648
>>>>>Begin Spectral Data<<<<<
345.248	-163.07
345.464	-163.07
345.681	-163.07
345.898	-170.63
346.114	-152.61
346.331	-12.34
346.548	39.2
346.764	-9.62
346.981	-14.66
347.197	3.55
347.414	11.11
347.631	-29.38
347.847	44.05
348.064	-7.69
348.28	32.61
348.497	-60.97
348.713	4.13
348.93	40.56
349.146	49.47
349.363	34.75
349.579	31.26
349.796	18.08
350.012	30.87
350.229	46.18
350.445	49.66
350.661	30.68
350.878	24.28
351.094	47.73
351.311	44.43
351.527	48.5
351.743	13.63
351.96	69.81
352.176	55.67
352.392	61.68
352.609	46.76
352.825	-0.9
353.041	31.45
353.257	11.69
353.474	48.31
353.69	37.46
353.906	49.28
354.122	35.71
354.339	71.75
354.555	39.98
354.771	28.35
354.987	108.37
355.203	97.91
355.42	38.23
355.636	45.98
355.852	12.85
356.068	14.6
356.284	24.28
356.5	85.31
356.716	78.92
356.932	32.42
357.148	65.94
357.364	33.97
357.58	101.2
357.796	105.46
358.012	57.61
358.228	78.73
358.444	-9.04
358.66	98.1
358.876	51.41
359.092	10.72
359.308	55.48
359.524	57.41
359.74	34.36
359.956	45.98
360.172	51.41
360.388	82.99
360.604	32.81
360.819	117.86
361.035	60.9
361.251	82.99
361.467	38.43
361.683	98.1
361.898	65.16
362.114	99.65
362.33	58.38
362.546	86.09
362.762	55.86
362.977	63.23
363.193	33.97
363.409	99.07
363.624	36.68
363.84	31.84
364.056	56.25
364.271	66.13
364.487	67.1
364.703	63.03
364.918	37.85
365.134	58.77
365.35	56.64
365.565	160.68
365.781	98.49
365.996	83.18
366.212	160.49
366.427	98.49
366.643	89.96
366.858	71.75
367.074	25.06
367.289	122.13
367.505	149.25
367.72	39.4
367.936	55.28
368.151	119.61
368.367	116.51
368.582	107.59
368.798	83.18
369.013	154.67
369.228	80.66
369.444	67.68
369.659	132.98
369.874	123.87
370.09	140.92
370.305	12.46
370.52	75.04
370.736	142.47
370.951	111.47
371.166	144.21
371.381	143.24
371.597	134.91
371.812	76.98
372.027	68.26
372.242	103.91
372.458	157
372.673	95.58
372.888	73.49
373.103	124.84
373.318	162.81
373.533	112.83
373.749	134.72
373.964	35.91
374.179	136.46
374.394	49.28
374.609	138.98
374.824	67.1
375.039	122.13
375.254	57.8
375.469	144.6
375.684	126.58
375.899	143.63
376.114	88.8
376.329	107.59
376.544	140.53
376.759	128.91
376.974	71.36
377.189	102.56
377.404	101.39
377.619	140.92
377.834	71.36
378.049	86.67
378.264	89.38
378.478	129.68
378.693	93.26
378.908	155.84
379.123	129.29
379.338	169.01
379.553	141.11
379.767	149.64
379.982	135.49
380.197	119.8
380.412	116.89
380.626	116.51
380.841	192.65
381.056	162.04
381.271	202.34
381.485	122.71
381.7	99.84
381.915	137.63
382.129	117.48
382.344	103.72
382.559	114.96
382.773	155.06
382.988	62.84
383.202	94.81
383.417	74.46
383.632	172.31
383.846	108.18
384.061	104.88
384.275	79.89
384.49	109.53
384.704	138.59
384.919	133.36
385.133	128.52
385.348	160.87
385.562	112.44
385.777	162.23
385.991	119.99
386.206	106.82
386.42	104.49
386.634	181.02
386.849	164.94
387.063	159.71
387.277	132.39
387.492	120.96
387.706	132.01
387.92	137.24
388.135	162.81
388.349	155.64
388.563	172.69
388.778	150.99
388.992	160.68
389.206	173.08
389.42	213.57
389.635	179.09
389.849	200.4
390.063	210.28
390.277	191.1
390.491	232.56
390.706	186.26
390.92	206.41
391.134	177.15
391.348	233.53
391.562	155.84
391.776	180.44
391.99	166.11
392.205	238.18
392.419	135.49
392.633	185.87
392.847	216.67
393.061	158.94
393.275	221.13
393.489	148.67
393.703	104.69
393.917	150.8
394.131	95.19
394.345	155.64
394.559	208.34
394.773	164.17
394.986	197.3
395.2	192.65
395.414	226.36
395.628	206.41
395.842	224.04
396.056	244.96
396.27	169.21
396.484	232.37
396.697	205.44
396.911	200.21
397.125	132.98
397.339	180.64
397.553	173.08
397.766	240.12
397.98	219.77
398.194	256.78
398.408	234.89
398.621	276.93
398.835	303.09
399.049	303.67
399.262	339.32
399.476	335.63
399.69	323.43
399.903	371.87
400.117	330.79
400.331	327.3
400.544	305.41
400.758	418.95
400.971	363.15
401.185	366.05
401.398	323.62
401.612	370.9
401.826	379.62
402.039	380.97
402.253	368.96
402.466	389.3
402.68	354.23
402.893	395.7
403.106	364.5
403.32	364.89
403.533	425.34
403.747	328.47
403.96	375.16
404.174	422.05
404.387	346.1
404.6	382.91
404.814	428.05
405.027	374
405.24	405.97
405.454	354.82
405.667	419.91
405.88	328.47
406.094	387.95
406.307	416.23
406.52	385.23
406.733	326.33
406.947	318.2
407.16	436.38
407.373	420.88
407.586	360.05
407.799	370.51
408.012	441.23
408.226	410.61
408.439	444.91
408.652	388.14
408.865	438.13
409.078	469.9
409.291	444.13
409.504	386.98
409.717	450.33
409.93	459.05
410.143	427.08
410.357	354.82
410.57	356.56
410.783	404.03
410.996	393.57
411.209	401.7
411.421	460.41
411.634	475.52
411.847	432.9
412.06	474.36
412.273	508.46
412.486	488.7
412.699	546.63
412.912	450.53
413.125	479.78
413.338	459.63
413.55	505.36
413.763	481.53
413.976	502.45
414.189	477.07
414.402	457.89
414.615	564.84
414.827	461.76
415.04	510.2
415.253	509.43
415.466	537.71
415.678	536.36
415.891	493.15
416.104	479.59
416.316	503.61
416.529	495.86
416.742	535.58
416.954	554.96
417.167	523.57
417.38	499.35
417.592	547.79
417.805	469.71
418.017	452.46
418.23	520.66
418.442	484.24
418.655	501.29
418.868	523.96
419.08	526.28
419.293	571.62
419.505	560.19
419.718	524.34
419.93	570.84
420.142	521.63
420.355	535
420.567	542.56
420.78	553.41
420.992	543.53
421.205	587.89
421.417	538.1
421.629	551.66
421.842	551.66
422.054	540.43
422.266	600.87
422.479	597.97
422.691	515.43
422.903	565.03
423.115	499.35
423.328	540.23
423.54	528.41
423.752	559.41
423.964	535
424.177	584.21
424.389	548.76
424.601	646.41
424.813	571.04
425.025	604.36
425.238	597.58
425.45	533.26
425.662	542.17
425.874	851
426.086	553.99
426.298	568.13
426.51	559.03
426.722	561.93
426.934	575.88
427.146	595.84
427.358	539.65
427.57	625.67
427.782	557.09
427.994	559.61
428.206	531.13
428.418	545.66
428.63	611.72
428.842	661.13
429.054	589.25
429.266	609.01
429.478	533.64
429.69	553.21
429.902	512.72
430.114	564.45
430.325	558.64
430.537	490.63
430.749	487.34
430.961	429.8
431.173	438.13
431.384	483.08
431.596	428.63
431.808	527.06
432.02	581.5
432.231	666.36
432.443	706.47
432.655	637.69
432.867	642.92
433.078	674.11
433.29	702.79
433.502	688.06
433.713	708.6
433.925	702.2
434.136	729.72
434.348	610.76
434.56	610.95
434.771	742.31
434.983	544.88
435.194	641.76
435.406	657.26
435.617	760.91
435.829	773.7
436.04	757.62
436.252	761.1
436.463	784.93
436.675	820.78
436.886	800.82
437.098	790.55
437.309	826.2
437.521	753.16
437.732	741.54
437.943	761.1
438.155	755.1
438.366	689.03
438.578	793.46
438.789	731.07
439	743.47
439.211	734.95
439.423	710.92
439.634	744.44
439.845	758.97
440.057	769.05
440.268	798.88
440.479	770.98
440.69	797.92
440.902	791.52
441.113	772.73
441.324	768.85
441.535	833.76
441.746	891.5
441.957	821.17
442.168	825.04
442.38	833.76
442.591	879.29
442.802	815.74
443.013	848.87
443.224	891.88
443.435	872.31
443.646	873.67
443.857	818.07
444.068	854.49
444.279	833.76
444.49	956.79
444.701	854.1
444.912	967.44
445.123	947.1
445.334	921.33
445.545	930.44
445.756	893.05
445.967	826.98
446.178	841.7
446.388	889.95
446.599	906.03
446.81	910.87
447.021	845.19
447.232	934.31
447.443	928.11
447.653	896.73
447.864	999.99
448.075	948.65
448.286	978.49
448.496	930.63
448.707	970.35
448.918	923.46
449.129	1029.25
449.339	913.78
449.55	978.49
449.761	931.6
449.971	1003.48
450.182	908.93
450.393	1004.26
450.603	944.97
450.814	1024.21
451.024	1028.09
451.235	1063.74
451.446	1068.97
451.656	1107.72
451.867	1014.53
452.077	992.24
452.288	1050.95
452.498	1034.48
452.709	1000.96
452.919	1013.75
453.13	942.84
453.34	978.1
453.55	929.28
453.761	982.94
453.971	959.5
454.182	1030.02
454.392	1002.9
454.602	1065.09
454.813	1040.68
455.023	1029.83
455.233	972.68
455.444	997.28
455.654	916.68
455.864	1010.07
456.075	998.06
456.285	978.68
456.495	992.83
456.705	1031.19
456.916	1054.63
457.126	1113.53
457.336	1065.09
457.546	950.59
457.756	1025.18
457.967	1110.24
458.177	1040.49
458.387	1070.52
458.597	996.7
458.807	1055.99
459.017	1008.91
459.227	1020.53
459.437	1026.34
459.647	1063.93
459.857	1064.71
460.068	1030.02
460.278	1114.5
460.488	1065.87
460.698	1129.22
460.908	1076.52
461.117	1023.24
461.327	1063.16
461.537	1129.61
461.747	1100.36
461.957	1101.52
462.167	1207.69
462.377	1131.94
462.587	1110.82
462.797	1150.15
463.007	1124.19
463.216	1171.85
463.426	1191.61
463.636	1185.41
463.846	1066.64
464.056	1123.99
464.265	1132.71
464.475	1102.1
464.685	1120.5
464.895	1146.85
465.104	1104.42
465.314	1185.02
465.524	1110.24
465.733	1072.65
465.943	1196.07
466.153	1212.15
466.362	1180.37
466.572	1176.89
466.782	1167
466.991	1181.34
467.201	1223
467.41	1095.32
467.62	1179.21
467.829	1193.35
468.039	1183.86
468.249	1168.75
468.458	1218.93
468.668	1201.49
468.877	1248.18
469.086	1263.49
469.296	1292.75
469.505	1211.57
469.715	1300.11
469.924	1243.34
470.134	1266.2
470.343	1285.38
470.552	1237.14
470.762	1217.18
470.971	1210.6
471.18	1249.93
471.39	1254.58
471.599	1228.62
471.808	1273.76
472.018	1283.83
472.227	1387.49
472.436	1378.58
472.645	1332.85
472.855	1315.22
473.064	1431.86
473.273	1401.44
473.482	1384.19
473.691	1421.78
473.901	1395.24
474.11	1344.48
474.319	1430.11
474.528	1382.06
474.737	1489.21
474.946	1452.39
475.155	1440.38
475.364	1497.92
475.573	1465.57
475.783	1505.87
475.992	1510.71
476.201	1505.67
476.41	1508.39
476.619	1438.25
476.828	1522.53
477.037	1463.05
477.245	1475.06
477.454	1533.19
477.663	1525.44
477.872	1550.82
478.081	1644.59
478.29	1571.35
478.499	1650.4
478.708	1645.56
478.917	1690.9
479.125	1569.03
479.334	1627.74
479.543	1627.74
479.752	1657.18
479.961	1647.11
480.169	1701.94
480.378	1630.64
480.587	1773.24
480.796	1746.31
481.004	1733.52
481.213	1738.36
481.422	1775.37
481.63	1776.73
481.839	1769.75
482.048	1842.41
482.256	1771.3
482.465	1813.73
482.674	1817.99
482.882	1830.01
483.091	1905.76
483.299	1804.82
483.508	1874.57
483.716	1867.01
483.925	1886.39
484.134	1807.73
484.342	1813.34
484.551	1877.09
484.759	1867.21
484.967	1916.81
485.176	1929.21
485.384	1942.77
485.593	1936.18
485.801	1882.51
486.01	1829.81
486.218	1737.78
486.426	1673.65
486.635	1652.73
486.843	1610.49
487.051	1692.45
487.26	1674.82
487.468	1745.15
487.676	1830.39
487.885	1811.6
488.093	1868.95
488.301	1913.51
488.509	1925.33
488.717	1979.58
488.926	1962.14
489.134	1960.79
489.342	1962.92
489.55	1938.7
489.758	1982.68
489.967	1979.77
490.175	2102.61
490.383	2038.09
490.591	2128.38
490.799	2077.42
491.007	2135.55
491.215	2131.28
491.423	2127.22
491.631	2121.02
491.839	2103.77
492.047	2122.95
492.255	1986.36
492.463	1975.9
492.671	1988.88
492.879	2072.19
493.087	2038.09
493.295	2091.18
493.503	2116.37
493.711	2200.84
493.919	2188.63
494.127	2165.58
494.334	2194.25
494.542	2084.2
494.75	2238.62
494.958	2133.61
495.166	2278.73
495.374	2273.49
495.581	2270.2
495.789	2247.34
495.997	2314.76
496.205	2222.93
496.412	2238.23
496.62	2238.23
496.828	2256.25
497.035	2266.13
497.243	2309.92
497.451	2287.25
497.658	2285.31
497.866	2284.73
498.074	2363.39
498.281	2256.44
498.489	2326
498.696	2226.61
498.904	2208.78
499.112	2191.93
499.319	2321.35
499.527	2294.61
499.734	2339.37
499.942	2255.67
500.149	2261.29
500.357	2324.26
500.564	2244.63
500.771	2252.57
500.979	2237.65
501.186	2184.18
501.394	2259.16
501.601	2201.81
501.808	2249.47
502.016	2243.27
502.223	2176.04
502.43	2233.97
502.638	2186.5
502.845	2232.23
503.052	2361.65
503.26	2289.38
503.467	2388.58
503.674	2320.38
503.881	2352.35
504.089	2388.39
504.296	2363.59
504.503	2238.81
504.71	2235.13
504.917	2245.98
505.125	2287.25
505.332	2316.31
505.539	2330.65
505.746	2430.82
505.953	2400.98
506.16	2390.71
506.367	2448.45
506.574	2519.94
506.781	2482.16
506.988	2440.89
507.195	2452.32
507.402	2416.87
507.609	2430.24
507.816	2382.19
508.023	2390.71
508.23	2340.72
508.437	2300.04
508.644	2392.26
508.851	2404.66
509.058	2427.33
509.265	2440.31
509.472	2458.14
509.679	2537.77
509.885	2460.07
510.092	2459.69
510.299	2453.49
510.506	2425.2
510.713	2471.5
510.92	2442.64
511.126	2431.2
511.333	2513.35
511.54	2491.85
511.746	2538.73
511.953	2555.01
512.16	2603.45
512.367	2525.37
512.573	2501.15
512.78	2502.89
512.987	2471.12
513.193	2470.73
513.4	2378.89
513.606	2470.54
513.813	2503.67
514.02	2470.34
514.226	2548.62
514.433	2507.15
514.639	2407.57
514.846	2439.15
515.052	2424.62
515.259	2488.36
515.465	2492.04
515.672	2468.21
515.878	2568.38
516.085	2507.54
516.291	2503.47
516.497	2532.15
516.704	2460.65
516.91	2424.04
517.117	2288.61
517.323	2199.29
517.529	2200.26
517.736	2251.99
517.942	2261.48
518.148	2241.53
518.354	2338.59
518.561	2311.08
518.767	2350.02
518.973	2388.58
519.179	2371.14
519.386	2382.96
519.592	2392.84
519.798	2413.57
520.004	2554.23
520.21	2484.87
520.417	2569.35
520.623	2597.44
520.829	2594.73
521.035	2608.48
521.241	2599.38
521.447	2634.25
521.653	2706.91
521.859	2648.4
522.065	2644.91
522.271	2747.59
522.477	2687.92
522.683	2698.77
522.889	2729.77
523.095	2689.66
523.301	2676.88
523.507	2619.53
523.713	2678.43
523.919	2596.28
524.125	2748.18
524.331	2730.93
524.537	2825.67
524.742	2860.35
524.948	2809.01
525.154	2846.79
525.36	2898.33
525.566	2791.57
525.772	2923.71
525.977	2799.71
526.183	2879.15
526.389	2903.37
526.595	2811.14
526.8	2737.33
527.006	2642.78
527.212	2576.9
527.417	2547.07
527.623	2545.71
527.829	2651.5
528.034	2719.31
528.24	2726.86
528.446	2774.14
528.651	2859
528.857	2879.73
529.062	2974.47
529.268	2920.42
529.473	2930.1
529.679	2951.03
529.884	3027.17
530.09	3027.95
530.295	2959.17
530.501	3010.7
530.706	2977.96
530.912	2954.52
531.117	2998.69
531.323	2988.42
531.528	3014.19
531.733	3038.21
531.939	3008.96
532.144	3079.29
532.35	3025.04
532.555	3107.96
532.76	3017.29
532.966	2996.75
533.171	2897.94
533.376	2906.85
533.581	2860.94
533.787	2959.17
533.992	2979.51
534.197	2993.27
534.402	3047.9
534.607	3047.9
534.813	3102.35
535.018	3022.33
535.223	3074.06
535.428	3041.12
535.633	3148.84
535.838	3186.04
536.043	3124.04
536.249	3220.92
536.454	3109.32
536.659	3193.02
536.864	3127.14
537.069	3137.8
537.274	3113.97
537.479	3103.9
537.684	3092.27
537.889	3056.62
538.094	3164.15
538.299	3133.73
538.504	3116.49
538.708	3136.25
538.913	3177.13
539.118	3171.9
539.323	3144
539.528	3098.47
539.733	3094.79
539.938	3122.49
540.142	3144
540.347	3076.38
540.552	3035.7
540.757	2997.72
540.962	3063.6
541.166	2960.13
541.371	2979.9
541.576	3021.94
541.781	2969.82
541.985	3076.38
542.19	3071.93
542.395	3153.11
542.599	3189.34
542.804	3126.76
543.008	3190.5
543.213	3112.42
543.418	3069.02
543.622	3166.28
543.827	3078.71
544.031	3124.82
544.236	3181.78
544.44	3134.7
544.645	3236.22
544.849	3131.99
545.054	3217.43
545.258	3222.66
545.463	3253.47
545.667	3161.24
545.872	3193.02
546.076	3173.06
546.281	3158.92
546.485	3158.53
546.689	3230.99
546.894	3204.64
547.098	3215.3
547.302	3154.85
547.507	3191.28
547.711	3192.83
547.915	3218.98
548.119	3117.65
548.324	3131.02
548.528	3197.67
548.732	3165.12
548.936	3231.57
549.141	3206
549.345	3179.65
549.549	3191.28
549.753	3220.53
549.957	3282.72
550.161	3265.09
550.366	3219.95
550.57	3176.55
550.774	3215.49
550.978	3187.59
551.182	3226.92
551.386	3204.26
551.59	3222.27
551.794	3169.96
551.998	3249.4
552.202	3215.88
552.406	3144
552.61	3218.21
552.814	3200.96
553.018	3228.67
553.222	3204.45
553.426	3190.5
553.63	3269.55
553.833	3214.14
554.037	3111.26
554.241	3223.05
554.445	3203.87
554.649	3219.17
554.853	3161.83
555.056	3227.12
555.26	3247.66
555.464	3204.84
555.668	3201.16
555.871	3242.62
556.075	3239.71
556.279	3186.82
556.483	3154.08
556.686	3119.98
556.89	3163.57
557.094	3190.89
557.297	3078.9
557.501	3197.48
557.704	3082
557.908	3160.86
558.112	3078.9
558.315	3176.74
558.519	3117.26
558.722	3063.6
558.926	3064.95
559.129	2985.52
559.333	2984.16
559.536	3011.28
559.74	2973.89
559.943	2963.62
560.147	2970.21
560.35	2975.25
560.553	3027.17
560.757	2949.67
560.96	3035.11
561.164	3001.21
561.367	3107.38
561.57	2996.95
561.774	3032.21
561.977	3021.94
562.18	2984.55
562.384	3067.66
562.587	2992.3
562.79	2972.73
562.993	2982.8
563.197	2980.48
563.4	3113.78
563.603	3067.86
563.806	3090.72
564.009	3019.23
564.212	3003.53
564.416	2922.55
564.619	3005.47
564.822	2927.78
565.025	3032.21
565.228	2943.47
565.431	2959.17
565.634	2847.37
565.837	2907.82
566.04	2884.77
566.243	2865.59
566.446	2805.33
566.649	2889.22
566.852	2784.79
567.055	2834.39
567.258	2840.21
567.461	2891.55
567.664	2929.33
567.867	2810.56
568.07	2865.39
568.273	2881.67
568.475	2898.91
568.678	2836.14
568.881	2828
569.084	2793.71
569.287	2659.25
569.489	2757.09
569.692	2808.62
569.895	2794.29
570.098	2672.61
570.3	2696.25
570.503	2654.79
570.706	2661.76
570.909	2672.81
571.111	2591.82
571.314	2596.86
571.516	2608.68
571.719	2645.3
571.922	2638.71
572.124	2592.4
572.327	2661.18
572.529	2600.73
572.732	2585.82
572.935	2649.36
573.137	2737.52
573.34	2622.82
573.542	2717.37
573.745	2657.7
573.947	2645.88
574.15	2672.81
574.352	2643.36
574.554	2737.71
574.757	2606.74
574.959	2598.6
575.162	2652.08
575.364	2590.66
575.566	2678.23
575.769	2610.03
575.971	2601.12
576.173	2456.78
576.376	2586.2
576.578	2596.28
576.78	2662.93
576.982	2532.34
577.185	2555.2
577.387	2551.13
577.589	2533.12
577.791	2612.75
577.993	2618.17
578.196	2572.64
578.398	2547.26
578.6	2546.68
578.802	2486.62
579.004	2471.12
579.206	2513.93
579.408	2569.35
579.61	2481.97
579.812	2555.78
580.014	2527.5
580.216	2474.41
580.418	2509.48
580.62	2505.8
580.822	2458.91
581.024	2518.97
581.226	2548.62
581.428	2478.09
581.63	2630.76
581.832	2496.11
582.034	2538.93
582.236	2513.16
582.438	2580
582.64	2549.39
582.841	2581.94
583.043	2648.01
583.245	2524.98
583.447	2530.98
583.649	2498.05
583.85	2532.15
584.052	2560.24
584.254	2504.83
584.456	2588.14
584.657	2487.97
584.859	2503.47
585.061	2485.84
585.262	2491.27
585.464	2474.41
585.666	2488.75
585.867	2442.25
586.069	2521.3
586.27	2455.81
586.472	2438.18
586.674	2437.6
586.875	2407.37
587.077	2433.53
587.278	2432.95
587.48	2416.29
587.681	2547.45
587.883	2450.39
588.084	2395.17
588.285	2434.11
588.487	2385.29
588.688	2406.6
588.89	2291.51
589.091	2270.98
589.292	2277.56
589.494	2200.65
589.695	2122.57
589.896	2085.95
590.098	2094.28
590.299	2146.59
590.5	2127.41
590.702	2150.27
590.903	2207.81
591.104	2271.94
591.305	2256.83
591.507	2307.59
591.708	2329.68
591.909	2237.07
592.11	2362.62
592.311	2338.21
592.512	2276.79
592.714	2184.95
592.915	2235.52
593.116	2266.33
593.317	2302.17
593.518	2292.09
593.719	2275.82
593.92	2282.99
594.121	2338.98
594.322	2287.64
594.523	2263.61
594.724	2249.47
594.925	2276.21
595.126	2285.31
595.327	2296.36
595.528	2271.56
595.729	2263.81
595.929	2241.14
596.13	2262.26
596.331	2305.27
596.532	2333.17
596.733	2345.96
596.934	2349.64
597.135	2340.34
597.335	2329.29
597.536	2262.26
597.737	2276.01
597.938	2262.26
598.138	2299.65
598.339	2287.25
598.54	2351.77
598.74	2308.95
598.941	2255.28
599.142	2314.18
599.342	2304.69
599.543	2274.66
599.744	2273.49
599.944	2280.08
600.145	2264.78
600.345	2253.15
600.546	2338.21
600.746	2304.49
600.947	2317.86
601.147	2270.01
601.348	2323.29
601.548	2207.81
601.749	2236.3
601.949	2203.55
602.15	2210.72
602.35	2213.82
602.551	2267.88
602.751	2163.06
602.951	2208.4
603.152	2158.41
603.352	2310.5
603.552	2228.93
603.753	2236.68
603.953	2283.96
604.153	2235.13
604.354	2266.33
604.554	2242.69
604.754	2283.76
604.954	2205.68
605.155	2235.33
605.355	2221.57
605.555	2280.47
605.755	2308.18
605.955	2232.03
606.155	2282.41
606.356	2211.88
606.556	2246.18
606.756	2264.58
606.956	2214.6
607.156	2277.76
607.356	2193.28
607.556	2218.66
607.756	2255.48
607.956	2279.69
608.156	2219.25
608.356	2186.11
608.556	2265.74
608.756	2178.36
608.956	2162.86
609.156	2191.15
609.356	2168.68
609.556	2161.51
609.755	2196.19
609.955	2192.9
610.155	2142.13
610.355	2130.12
610.555	2124.7
610.755	2153.57
610.954	2126.44
611.154	2141.36
611.354	2191.73
611.554	2125.67
611.753	2151.43
611.953	2077.62
612.153	2138.45
612.352	2138.65
612.552	2088.85
612.752	2063.09
612.951	2115.01
613.151	2111.72
613.351	2068.12
613.55	2115.2
613.75	2110.36
613.949	2107.45
614.149	2123.15
614.348	2067.15
614.548	2070.06
614.747	2023.75
614.947	2069.67
615.146	2014.84
615.346	2126.05
615.545	2085.56
615.745	2093.5
615.944	2090.98
616.144	2073.93
616.343	2082.27
616.542	2072.38
616.742	2029.76
616.941	2041.77
617.14	1968.73
617.34	2030.15
617.539	2023.56
617.738	1984.42
617.938	2124.5
618.137	2019.1
618.336	2021.43
618.535	2059.02
618.734	2014.07
618.934	2045.84
619.133	2029.95
619.332	2038.87
619.531	2012.13
619.73	2021.62
619.929	2091.76
620.128	2080.52
620.328	2098.54
620.527	2054.56
620.726	2047.97
620.925	2047.59
621.124	2010
621.323	2026.85
621.522	1965.63
621.721	2011.94
621.92	1965.44
622.119	2000.89
622.318	1963.69
622.517	2012.13
622.715	2007.09
622.914	1930.56
623.113	1974.35
623.312	1886.78
623.511	1974.35
623.71	1972.02
623.909	1923.59
624.107	2014.07
624.306	1908.67
624.505	1878.44
624.704	1938.89
624.902	1860.81
625.101	1982.87
625.3	1922.23
625.499	1885.23
625.697	1917.58
625.896	1847.06
626.095	1882.13
626.293	1830.78
626.492	1860.04
626.69	1898.98
626.889	1896.27
627.088	1920.1
627.286	1844.73
627.485	1858.29
627.683	1859.07
627.882	1861.59
628.08	1808.5
628.279	1824
628.477	1932.69
628.676	1819.54
628.874	1847.83
629.073	1718.6
629.271	1815.67
629.469	1845.51
629.668	1823.23
629.866	1788.74
630.065	1789.71
630.263	1822.06
630.461	1782.93
630.66	1775.95
630.858	1838.14
631.056	1829.23
631.254	1865.08
631.453	1784.48
631.651	1832.14
631.849	1779.83
632.047	1813.34
632.245	1761.03
632.444	1783.51
632.642	1792.42
632.84	1794.36
633.038	1771.5
633.236	1762.58
633.434	1762.2
633.632	1759.29
633.83	1734.88
634.028	1838.34
634.227	1788.55
634.425	1833.3
634.623	1799.2
634.821	1789.13
635.019	1821.48
635.216	1787.77
635.414	1848.99
635.612	1777.11
635.81	1773.82
636.008	1842.02
636.206	1784.48
636.404	1809.47
636.602	1751.35
636.8	1761.42
636.997	1800.75
637.195	1781.76
637.393	1784.86
637.591	1876.31
637.789	1816.25
637.986	1805.21
638.184	1811.41
638.382	1855.97
638.58	1811.41
638.777	1837.95
638.975	1774.79
639.173	1782.35
639.37	1799.01
639.568	1787.77
639.765	1786.61
639.963	1752.51
640.161	1782.15
640.358	1822.45
640.556	1753.86
640.753	1731.78
640.951	1671.72
641.148	1757.93
641.346	1700.58
641.543	1724.61
641.741	1771.11
641.938	1658.54
642.136	1732.94
642.333	1699.42
642.531	1764.91
642.728	1785.06
642.925	1715.5
643.123	1713.76
643.32	1731.58
643.517	1718.99
643.715	1741.27
643.912	1669.58
644.109	1709.3
644.306	1719.76
644.504	1676.95
644.701	1725
644.898	1735.85
645.095	1682.57
645.293	1676.37
645.49	1716.08
645.687	1682.76
645.884	1721.51
646.081	1629.87
646.278	1678.5
646.475	1654.86
646.672	1619.4
646.87	1672.3
647.067	1683.92
647.264	1669.2
647.461	1605.84
647.658	1601.19
647.855	1668.62
648.052	1598.48
648.249	1539.58
648.446	1598.09
648.642	1582.79
648.839	1568.25
649.036	1608.36
649.233	1537.06
649.43	1561.86
649.627	1500.64
649.824	1535.71
650.021	1537.06
650.217	1544.04
650.414	1570.77
650.611	1580.27
650.808	1602.35
651.004	1601.58
651.201	1615.92
651.398	1654.28
651.595	1601.77
651.791	1561.86
651.988	1625.8
652.185	1550.24
652.381	1600.42
652.578	1528.73
652.775	1587.63
652.971	1573.87
653.168	1561.67
653.364	1578.91
653.561	1500.83
653.757	1568.84
653.954	1583.37
654.15	1542.49
654.347	1624.83
654.543	1597.32
654.74	1501.8
654.936	1541.32
655.133	1532.41
655.329	1537.45
655.525	1519.04
655.722	1540.74
655.918	1450.26
656.115	1481.26
656.311	1391.36
656.507	1341.18
656.704	1311.93
656.9	1323.94
657.096	1349.9
657.292	1340.21
657.489	1372.57
657.685	1414.61
657.881	1401.05
658.077	1404.93
658.273	1428.95
658.47	1509.94
658.666	1447.55
658.862	1525.63
659.058	1456.27
659.254	1509.55
659.45	1480.1
659.646	1489.98
659.842	1514.59
660.038	1556.05
660.234	1462.08
660.43	1520.01
660.626	1576.97
660.822	1531.64
661.018	1557.4
661.214	1522.53
661.41	1445.61
661.606	1536.48
661.802	1575.81
661.998	1528.34
662.194	1488.04
662.39	1508.39
662.586	1539.58
662.781	1524.08
662.977	1526.02
663.173	1566.12
663.369	1511.87
663.564	1554.3
663.76	1551.79
663.956	1513.62
664.152	1526.79
664.347	1425.27
664.543	1479.13
664.739	1504.71
664.934	1426.82
665.13	1427.01
665.326	1484.36
665.521	1489.4
665.717	1419.07
665.912	1454.72
666.108	1375.86
666.304	1468.47
666.499	1472.54
666.695	1375.28
666.89	1461.31
667.086	1476.81
667.281	1466.92
667.477	1540.94
667.672	1478.55
667.867	1464.41
668.063	1471.77
668.258	1417.71
668.454	1476.42
668.649	1528.54
668.844	1469.06
669.04	1495.02
669.235	1469.06
669.43	1430.89
669.626	1398.34
669.821	1456.46
670.016	1404.54
670.211	1406.09
670.407	1382.26
670.602	1453.36
670.797	1408.22
670.992	1503.35
671.187	1379.35
671.382	1447.36
671.578	1378.58
671.773	1425.08
671.968	1362.69
672.163	1432.44
672.358	1423.53
672.553	1406.67
672.748	1416.36
672.943	1493.27
673.138	1427.79
673.333	1448.52
673.528	1383.61
673.723	1455.3
673.918	1387.88
674.113	1339.44
674.308	1501.61
674.503	1407.06
674.698	1427.4
674.892	1400.08
675.087	1435.15
675.282	1412.29
675.477	1388.46
675.672	1405.12
675.867	1337.31
676.061	1331.5
676.256	1326.65
676.451	1360.17
676.646	1436.89
676.84	1351.06
677.035	1347.19
677.23	1348.93
677.424	1401.05
677.619	1403.96
677.814	1443.09
678.008	1433.02
678.203	1332.85
678.397	1371.79
678.592	1390.98
678.787	1422.36
678.981	1388.07
679.176	1367.15
679.37	1387.49
679.565	1365.21
679.759	1368.31
679.954	1396.4
680.148	1419.65
680.342	1396.98
680.537	1378.58
680.731	1355.91
680.926	1384.19
681.12	1400.08
681.314	1379.74
681.509	1337.7
681.703	1365.6
681.897	1380.51
682.092	1339.25
682.286	1337.89
682.48	1433.21
682.674	1414.81
682.869	1309.6
683.063	1372.57
683.257	1368.7
683.451	1345.25
683.645	1331.5
683.839	1343.9
684.034	1328.4
684.228	1356.68
684.422	1292.16
684.616	1313.28
684.81	1372.57
685.004	1256.9
685.198	1300.88
685.392	1356.1
685.586	1296.04
685.78	1302.82
685.974	1313.67
686.168	1314.06
686.362	1377.61
686.556	1221.25
686.75	1189.29
686.944	1209.82
687.138	1174.95
687.331	1080.21
687.525	1098.61
687.719	1034.67
687.913	1085.44
688.107	1113.34
688.301	1060.44
688.494	1120.31
688.688	1067.81
688.882	1049.4
689.076	1061.02
689.269	1089.7
689.463	1174.95
689.657	1079.82
689.85	1107.52
690.044	1104.04
690.238	1123.99
690.431	1120.12
690.625	1116.82
690.818	1172.43
691.012	1161.39
691.205	1219.9
691.399	1147.24
691.593	1162.35
691.786	1200.52
691.98	1233.07
692.173	1237.53
692.366	1238.88
692.56	1199.17
692.753	1275.7
692.947	1194.52
693.14	1270.85
693.333	1276.08
693.527	1219.7
693.72	1271.82
693.914	1218.93
694.107	1175.72
694.3	1219.9
694.493	1185.41
694.687	1266.2
694.88	1164.1
695.073	1306.31
695.266	1276.28
695.46	1234.62
695.653	1278.41
695.846	1269.3
696.039	1215.25
696.232	1213.89
696.425	1302.43
696.618	1295.85
696.812	1335.95
697.005	1371.6
697.198	1434.38
697.391	1340.41
697.584	1386.91
697.777	1407.06
697.97	1364.24
698.163	1394.85
698.356	1380.9
698.549	1489.21
698.742	1425.08
698.935	1387.88
699.127	1419.84
699.32	1383.03
699.513	1370.63
699.706	1414.03
699.899	1436.51
700.092	1419.07
700.285	1478.74
700.477	1401.44
700.67	1445.61
700.863	1477.58
701.056	1572.52
701.248	1502.96
701.441	1502.19
701.634	1488.24
701.826	1587.05
702.019	1460.72
702.212	1571.16
702.404	1491.34
702.597	1495.99
702.79	1504.51
702.982	1545
703.175	1582.59
703.367	1577.17
703.56	1608.75
703.752	1695.16
703.945	1664.35
704.137	1645.37
704.33	1715.5
704.522	1692.64
704.715	1737.78
704.907	1719.96
705.1	1800.36
705.292	1791.65
705.484	1766.26
705.677	1814.89
705.869	1821.48
706.061	1849.58
706.254	1894.91
706.446	1853.06
706.638	1862.36
706.831	1934.82
707.023	1883.29
707.215	2002.05
707.407	1991.98
707.599	1956.33
707.792	2005.93
707.984	1998.95
708.176	2051.85
708.368	2012.13
708.56	2085.37
708.752	2045.65
708.944	2049.72
709.136	2092.73
709.329	2087.88
709.521	2235.13
709.713	2172.16
709.905	2175.26
710.097	2242.11
710.289	2209.95
710.481	2205.49
710.672	2229.9
710.864	2266.13
711.056	2332.39
711.248	2310.31
711.44	2334.52
711.632	2303.91
711.824	2346.54
712.016	2389.74
712.207	2370.76
712.399	2398.46
712.591	2451.74
712.783	2451.35
712.975	2462.98
713.166	2399.82
713.358	2452.13
713.55	2533.89
713.741	2545.71
713.933	2564.12
714.125	2533.31
714.316	2514.13
714.508	2600.73
714.7	2614.88
714.891	2584.46
715.083	2678.81
715.274	2598.02
715.466	2622.82
715.657	2691.79
715.849	2644.13
716.04	2683.27
716.232	2642.58
716.423	2700.32
716.615	2652.46
716.806	2626.11
716.998	2595.11
717.189	2507.73
717.381	2450.58
717.572	2384.32
717.763	2445.93
717.955	2408.92
718.146	2354.48
718.337	2362.42
718.528	2305.46
718.72	2228.74
718.911	2292.29
719.102	2222.93
719.293	2276.4
719.485	2283.38
719.676	2276.98
719.867	2234.94
720.058	2306.43
720.249	2256.06
720.44	2313.41
720.632	2350.22
720.823	2406.99
721.014	2568.57
721.205	2595.7
721.396	2627.47
721.587	2764.06
721.778	2760.96
721.969	2846.79
722.16	2912.28
722.351	2903.17
722.542	3053.33
722.733	3036.47
722.924	2990.55
723.115	3022.13
723.305	3008.18
723.496	3073.67
723.687	2905.11
723.878	2941.34
724.069	2953.55
724.26	2968.47
724.45	2891.55
724.641	2866.94
724.832	2895.04
725.023	2894.45
725.213	2913.05
725.404	2874.3
725.595	2896.59
725.785	2881.67
725.976	2983.97
726.167	2976.02
726.357	2970.4
726.548	3144.97
726.739	2982.61
726.929	3108.74
727.12	3156.01
727.31	3180.43
727.501	3066.31
727.691	3130.05
727.882	3151.56
728.072	3206.39
728.263	3152.33
728.453	3285.44
728.644	3251.34
728.834	3195.54
729.024	3187.79
729.215	3190.89
729.405	3235.64
729.596	3307.14
729.786	3326.12
729.976	3389.48
730.167	3438.69
730.357	3362.74
730.547	3368.55
730.737	3367.2
730.928	3459.23
731.118	3519.68
731.308	3450.51
731.498	3502.82
731.688	3551.26
731.879	3556.1
732.069	3613.26
732.259	3671.77
732.449	3738.8
732.639	3785.69
732.829	3794.8
733.019	3824.83
733.209	3921.9
733.399	3895.55
733.589	3945.34
733.779	4022.64
733.969	4013.73
734.159	4093.17
734.349	4165.44
734.539	4196.44
734.729	4203.22
734.919	4223.56
735.109	4284.2
735.299	4170.28
735.488	4240.42
735.678	4248.75
735.868	4292.92
736.058	4256.11
736.248	4256.69
736.437	4233.05
736.627	4196.05
736.817	4398.9
737.007	4299.12
737.196	4333.03
737.386	4328.57
737.576	4328.38
737.765	4368.68
737.955	4380.69
738.144	4520.19
738.334	4480.86
738.524	4406.85
738.713	4407.62
738.903	4415.18
739.092	4430.68
739.282	4483.96
739.471	4473.69
739.661	4432.42
739.85	4517.28
740.04	4535.49
740.229	4559.13
740.419	4591.29
740.608	4608.73
740.797	4569.79
740.987	4641.86
741.176	4654.07
741.365	4626.55
741.555	4530.84
741.744	4657.55
741.933	4607.37
742.123	4606.79
742.312	4648.45
742.501	4700.57
742.69	4711.03
742.88	4640.12
743.069	4784.65
743.258	4704.44
743.447	4747.26
743.636	4796.08
743.825	4713.35
744.014	4799.96
744.204	4761.4
744.393	4765.08
744.582	4795.31
744.771	4828.25
744.96	4747.45
745.149	4801.31
745.338	4798.8
745.527	4875.33
745.716	4800.54
745.905	4774
746.094	4894.7
746.283	4894.12
746.471	4811.39
746.66	4917.18
746.849	4918.53
747.038	4849.75
747.227	4823.98
747.416	4867.38
747.604	4843.16
747.793	4828.05
747.982	4879.78
748.171	4928.61
748.359	4850.91
748.548	4868.35
748.737	4891.79
748.926	4879.98
749.114	4724.2
749.303	4880.75
749.491	4876.68
749.68	4740.28
749.869	4849.56
750.057	4841.42
750.246	4786.78
750.434	4824.95
750.623	4776.9
750.811	4803.45
751	4852.66
751.188	4803.83
751.377	4841.23
751.565	4806.93
751.754	4745.32
751.942	4754.43
752.131	4830.57
752.319	4777.68
752.507	4724.78
752.696	4807.13
752.884	4808.87
753.072	4712.38
753.261	4764.31
753.449	4759.08
753.637	4728.85
753.825	4826.89
754.014	4801.7
754.202	4830.96
754.39	4786.78
754.578	4806.35
754.766	4725.37
754.955	4702.7
755.143	4829.6
755.331	4748.23
755.519	4757.14
755.707	4761.98
755.895	4709.67
756.083	4688.36
756.271	4681.39
756.459	4709.87
756.647	4766.05
756.835	4680.42
757.023	4673.05
757.211	4646.9
757.399	4667.24
757.587	4614.93
757.775	4596.33
757.963	4615.32
758.151	4683.32
758.339	4591.29
758.526	4588.19
758.714	4592.65
758.902	4498.68
759.09	4407.81
759.278	4232.67
759.465	3983.51
759.653	3570.24
759.841	3239.71
760.028	2880.5
760.216	2580.97
760.404	2390.52
760.591	2016.39
760.779	1810.63
760.967	1633.93
761.154	1449.29
761.342	1482.81
761.529	1496.18
761.717	1597.32
761.905	1626.96
762.092	1760.45
762.28	1705.62
762.467	1719.76
762.655	1677.53
762.842	1732.94
763.029	1742.24
763.217	1763.75
763.404	1769.36
763.592	1820.71
763.779	1814.12
763.966	1848.61
764.154	1902.08
764.341	1947.22
764.528	1977.26
764.716	2046.04
764.903	2112.68
765.09	2181.85
765.277	2262.45
765.465	2397.49
765.652	2472.86
765.839	2577.68
766.026	2721.05
766.213	2755.93
766.4	2872.75
766.588	3080.84
766.775	3124.82
766.962	3199.8
767.149	3286.79
767.336	3465.62
767.523	3404.2
767.71	3554.36
767.897	3646
768.084	3746.94
768.271	3783.17
768.458	3805.45
768.645	3920.35
768.832	3887.22
769.019	3918.8
769.206	3937.4
769.392	4027.49
769.579	4096.27
769.766	4064.88
769.953	4049.58
770.14	4122.23
770.327	4091.81
770.513	4100.72
770.7	4183.65
770.887	4123.78
771.073	4118.74
771.26	4166.21
771.447	4091.42
771.634	4075.15
771.82	4249.52
772.007	4051.13
772.193	4108.09
772.38	4152.65
772.567	4104.21
772.753	4089.87
772.94	4149.94
773.126	4180.55
773.313	4194.69
773.499	4175.7
773.686	4189.65
773.872	4071.08
774.059	4124.56
774.245	4058.68
774.432	4076.31
774.618	4007.14
774.804	4074.76
774.991	4019.74
775.177	4070.11
775.363	4067.59
775.55	4056.55
775.736	3958.51
775.922	4037.76
776.109	4012.57
776.295	3996.68
776.481	4059.07
776.667	4011.02
776.853	3996.29
777.04	3960.26
777.226	4021.87
777.412	4059.26
777.598	3949.21
777.784	3952.31
777.97	3914.53
778.156	3990.1
778.342	3953.67
778.528	3912.01
778.715	3887.02
778.901	3916.28
779.087	3896.32
779.272	3856.6
779.458	3834.52
779.644	3853.7
779.83	3869.58
780.016	3967.62
780.202	3852.34
780.388	3844.98
780.574	3748.3
780.76	3821.92
780.946	3838.58
781.131	3841.3
781.317	3804.1
781.503	3801.19
781.689	3785.69
781.874	3891.48
782.06	3745.78
782.246	3841.49
782.432	3788.4
782.617	3814.37
782.803	3801
782.989	3710.91
783.174	3720.59
783.36	3720.21
783.545	3707.22
783.731	3736.67
783.916	3628.76
784.102	3688.04
784.288	3694.24
784.473	3655.49
784.659	3646.39
784.844	3637.28
785.029	3638.44
785.215	3616.55
785.4	3604.54
785.586	3695.79
785.771	3600.47
785.956	3598.14
786.142	3568.89
786.327	3566.18
786.512	3570.83
786.698	3545.25
786.883	3507.08
787.068	3554.94
787.254	3553
787.439	3481.9
787.624	3479.57
787.809	3504.76
787.994	3505.73
788.18	3554.74
788.365	3426.1
788.55	3453.8
788.735	3465.62
788.92	3404.2
789.105	3440.24
789.29	3465.43
789.475	3341.24
789.66	3449.93
789.845	3404.01
790.03	3302.1
790.215	3424.16
790.4	3419.12
790.585	3420.67
790.77	3413.12
790.955	3279.24
791.14	3367.39
791.325	3414.67
791.51	3298.03
791.695	3335.81
791.879	3344.34
792.064	3244.75
792.249	3378.24
792.434	3337.94
792.618	3300.74
792.803	3377.08
792.988	3326.51
793.173	3348.79
793.357	3357.51
793.542	3319.92
793.727	3305
793.911	3380.37
794.096	3315.08
794.281	3376.89
794.465	3414.28
794.65	3365.84
794.834	3393.16
795.019	3386.38
795.203	3361.39
795.388	3384.44
795.572	3423.77
795.757	3392.77
795.941	3394.32
796.126	3390.83
796.31	3318.37
796.494	3374.17
796.679	3297.84
796.863	3304.62
797.048	3440.43
797.232	3396.07
797.416	3405.56
797.601	3377.85
797.785	3415.83
797.969	3439.08
798.153	3326.51
798.338	3393.55
798.522	3447.41
798.706	3466.2
798.89	3432.88
799.074	3538.28
799.258	3469.88
799.443	3381.15
799.627	3394.71
799.811	3461.55
799.995	3386.18
800.179	3366.62
800.363	3392.97
800.547	3425.9
800.731	3414.67
800.915	3333.87
801.099	3354.99
801.283	3355.57
801.467	3333.49
801.651	3367.2
801.835	3460.39
802.019	3403.62
802.202	3410.98
802.386	3340.46
802.57	3321.09
802.754	3389.67
802.938	3325.35
803.121	3335.42
803.305	3413.31
803.489	3332.71
803.673	3362.94
803.856	3392.38
804.04	3384.05
804.224	3352.09
804.407	3297.64
804.591	3339.69
804.775	3336.78
804.958	3427.65
805.142	3434.04
805.326	3344.34
805.509	3379.02
805.693	3371.46
805.876	3460.2
806.06	3375.14
806.243	3430.55
806.427	3468.33
806.61	3428.62
806.794	3372.82
806.977	3434.43
807.16	3389.87
807.344	3389.48
807.527	3377.85
807.71	3320.5
807.894	3403.04
808.077	3393.16
808.26	3341.43
808.444	3312.17
808.627	3369.91
808.81	3298.22
808.993	3268
809.177	3219.95
809.36	3239.32
809.543	3278.46
809.726	3199.03
809.909	3211.62
810.092	3173.64
810.276	3223.82
810.459	3214.33
810.642	3199.22
810.825	3136.44
811.008	3187.01
811.191	3086.07
811.374	3073.28
811.557	3103.51
811.74	3124.43
811.923	3011.67
812.106	2981.64
812.289	3028.72
812.472	3028.92
812.654	2995.78
812.837	2963.04
813.02	2925.26
813.203	2907.05
813.386	2769.87
813.569	2759.41
813.751	2693.93
813.934	2751.86
814.117	2681.33
814.3	2655.95
814.482	2598.99
814.665	2585.82
814.848	2523.23
815.03	2485.26
815.213	2441.28
815.396	2439.73
815.578	2406.6
815.761	2366.88
815.943	2447.87
816.126	2305.08
816.309	2313.79
816.491	2191.54
816.674	2188.44
816.856	2194.25
817.039	2203.94
817.221	2260.32
817.403	2255.48
817.586	2256.44
817.768	2261.48
817.951	2183.01
818.133	2167.9
818.315	2179.33
818.498	2244.24
818.68	2287.64
818.862	2243.85
819.045	2274.46
819.227	2285.51
819.409	2217.11
819.591	2274.66
819.774	2237.85
819.956	2228.16
820.138	2323.09
820.32	2276.98
820.502	2338.01
820.684	2378.51
820.866	2356.22
821.048	2476.15
821.231	2512
821.413	2494.75
821.595	2436.05
821.777	2420.74
821.959	2444.77
822.141	2525.56
822.323	2381.22
822.505	2320.77
822.686	2250.63
822.868	2197.74
823.05	2028.21
823.232	2003.6
823.414	1908.86
823.596	1998.18
823.778	1997.21
823.96	2022.59
824.141	2025.11
824.323	1999.15
824.505	2131.09
824.687	2195.61
824.868	2227.96
825.05	2360.1
825.232	2365.14
825.413	2444.19
825.595	2394.59
825.777	2346.54
825.958	2344.79
826.14	2341.31
826.321	2406.41
826.503	2333.17
826.685	2398.07
826.866	2410.47
827.048	2392.84
827.229	2331.04
827.411	2293.45
827.592	2276.01
827.773	2257.8
827.955	2189.99
828.136	2213.63
828.318	2173.91
828.499	2217.7
828.68	2101.83
828.862	2151.24
829.043	2223.12
829.224	2145.04
829.406	2142.52
829.587	2131.28
829.768	2120.05
829.949	2140.78
830.131	2139.62
830.312	2202.78
830.493	2154.15
830.674	2176.43
830.855	2136.9
831.036	2148.33
831.218	2169.26
831.399	2232.81
831.58	2155.12
831.761	2141.36
831.942	2160.35
832.123	2134
832.304	2078.78
832.485	2111.72
832.666	2119.08
832.847	2136.13
833.028	2123.15
833.209	2152.79
833.389	2112.49
833.57	2078.58
833.751	2115.2
833.932	2178.36
834.113	2117.92
834.294	2100.09
834.475	2164.03
834.655	2146.01
834.836	2168.1
835.017	2137.1
835.198	2132.64
835.378	2136.13
835.559	2209.36
835.74	2171.2
835.92	2103.38
836.101	2119.47
836.281	2205.88
836.462	2160.15
836.643	2190.38
836.823	2205.3
837.004	2198.51
837.184	2268.07
837.365	2243.66
837.545	2207.23
837.726	2178.95
837.906	2230.48
838.087	2219.44
838.267	2197.93
838.448	2154.53
838.628	2199.29
838.808	2169.06
838.989	2201.23
839.169	2137.29
839.349	2211.3
839.53	2236.1
839.71	2181.85
839.89	2171.78
840.07	2247.14
840.251	2176.43
840.431	2236.49
840.611	2150.66
840.791	2114.82
840.971	2195.22
841.151	2126.83
841.332	2161.51
841.512	2229.9
841.692	2073.55
841.872	2154.92
842.052	2160.15
842.232	2183.21
842.412	2093.31
842.592	2110.75
842.772	2105.52
842.952	2149.69
843.132	2110.75
843.312	2090.98
843.492	2080.13
843.672	2115.01
843.851	2030.92
844.031	2096.6
844.211	2074.32
844.391	2048.36
844.571	2069.28
844.751	2124.31
844.93	2093.12
845.11	2030.34
845.29	2048.94
845.47	2094.28
845.649	2071.03
845.829	2109.58
846.009	2019.3
846.188	2106.1
846.368	2065.8
846.547	2057.85
846.727	2116.75
846.907	2020.65
847.086	2077.03
847.266	2086.53
847.445	2028.79
847.625	2049.91
847.804	1997.99
847.984	2037.7
848.163	2020.46
848.343	1995.66
848.522	2022.98
848.701	2010.77
848.881	2015.62
849.06	2001.67
849.239	1985.39
849.419	2038.67
849.598	1912.74
849.777	1907.12
849.957	1907.51
850.136	1853.26
850.315	1809.66
850.494	1834.27
850.674	1851.71
850.853	1918.36
851.032	1876.51
851.211	1892.59
851.39	1935.6
851.569	1815.48
851.748	1847.83
851.927	1913.51
852.107	1877.09
852.286	1855.78
852.465	1839.89
852.644	1902.66
852.823	1881.93
853.002	1845.7
853.181	1889.68
853.359	1842.41
853.538	1821.09
853.717	1868.18
853.896	1754.45
854.075	1675.4
854.254	1648.66
854.433	1557.02
854.611	1623.67
854.79	1562.25
854.969	1607.39
855.148	1666.87
855.327	1604.49
855.505	1680.05
855.684	1628.12
855.863	1692.64
856.041	1688.38
856.22	1756
856.399	1675.2
856.577	1782.93
856.756	1773.43
856.934	1897.24
857.113	1885.42
857.291	1785.64
857.47	1780.8
857.648	1804.82
857.827	1793
858.005	1811.21
858.184	1780.8
858.362	1873.79
858.541	1775.76
858.719	1780.6
858.898	1746.5
859.076	1739.33
859.254	1813.15
859.433	1745.53
859.611	1713.18
859.789	1688.57
859.967	1781.96
860.146	1793.78
860.324	1685.28
860.502	1711.63
860.68	1651.18
860.859	1713.18
861.037	1688.96
861.215	1734.68
861.393	1694
861.571	1692.25
861.749	1664.74
861.927	1726.55
862.105	1711.63
862.283	1635.48
862.461	1683.53
862.639	1649.05
862.817	1640.13
862.995	1677.14
863.173	1651.57
863.351	1664.93
863.529	1669.58
863.707	1702.13
863.885	1672.49
864.063	1575.62
864.241	1640.13
864.418	1704.07
864.596	1621.34
864.774	1596.15
864.952	1607.59
865.129	1632
865.307	1570.77
865.485	1539
865.663	1625.8
865.84	1526.41
866.018	1539.19
866.196	1397.56
866.373	1417.13
866.551	1403.76
866.728	1341.96
866.906	1367.34
867.084	1440.19
867.261	1446.58
867.439	1476.22
867.616	1471.19
867.794	1475.06
867.971	1489.01
868.149	1472.54
868.326	1535.12
868.503	1549.65
868.681	1513.04
868.858	1500.06
869.035	1494.44
869.213	1533.57
869.39	1499.28
869.567	1541.52
869.745	1487.07
869.922	1502.96
870.099	1498.12
870.276	1566.7
870.454	1515.75
870.631	1532.8
870.808	1495.6
870.985	1538.42
871.162	1570.97
871.339	1505.09
871.517	1441.93
871.694	1469.25
871.871	1491.14
872.048	1463.44
872.225	1481.84
872.402	1487.85
872.579	1404.54
872.756	1470.8
872.933	1425.08
873.11	1434.18
873.287	1438.06
873.463	1445.23
873.64	1398.14
873.817	1446.39
873.994	1421.78
874.171	1411.13
874.348	1423.72
874.524	1371.21
874.701	1393.69
874.878	1340.21
875.055	1431.66
875.231	1401.44
875.408	1407.83
875.585	1339.05
875.762	1393.11
875.938	1327.04
876.115	1358.43
876.291	1383.61
876.468	1353.97
876.645	1321.61
876.821	1347.77
876.998	1385.55
877.174	1322.78
877.351	1369.08
877.527	1331.88
877.704	1353
877.88	1309.21
878.057	1334.79
878.233	1399.11
878.409	1293.71
878.586	1349.32
878.762	1344.48
878.938	1328.01
879.115	1307.08
879.291	1328.59
879.467	1226.1
879.644	1282.48
879.82	1320.06
879.996	1301.66
880.172	1280.54
880.349	1296.04
880.525	1321.03
880.701	1263.1
880.877	1286.74
881.053	1293.52
881.229	1273.76
881.405	1327.04
881.581	1209.82
881.757	1267.37
881.933	1311.54
882.109	1303.21
882.285	1293.13
882.461	1215.05
882.637	1252.83
882.813	1260.78
882.989	1294.3
883.165	1317.55
883.341	1232.3
883.517	1255.35
883.693	1268.33
883.869	1283.06
884.044	1237.72
884.22	1290.42
884.396	1332.27
884.572	1302.05
884.747	1354.75
884.923	1289.26
885.099	1294.49
885.275	1347.77
885.45	1257.48
885.626	1273.57
885.801	1214.86
885.977	1251.28
886.153	1214.28
886.328	1276.08
886.504	1243.15
886.679	1284.8
886.855	1231.72
887.03	1254.77
887.206	1256.52
887.381	1275.12
887.557	1278.02
887.732	1273.37
887.908	1298.75
888.083	1291.2
888.258	1249.35
888.434	1239.66
888.609	1256.32
888.784	1318.32
888.96	1236.37
889.135	1245.08
889.31	1224.93
889.485	1279.96
889.661	1250.9
889.836	1284.22
890.011	1281.9
890.186	1248.18
890.361	1237.72
890.537	1254.38
890.712	1288.68
890.887	1243.15
891.062	1274.53
891.237	1326.46
891.412	1243.92
891.587	1278.6
891.762	1273.76
891.937	1300.5
892.112	1198.58
892.287	1261.55
892.462	1198.58
892.637	1192.39
892.812	1189.09
892.987	1151.31
893.161	1143.17
893.336	1167.78
893.511	1181.54
893.686	1175.34
893.861	1149.37
894.035	1176.11
894.21	1201.3
894.385	1142.4
894.56	1144.14
894.734	1086.99
894.909	1085.82
895.084	1082.14
895.258	1031.96
895.433	1058.51
895.608	1069.55
895.782	1001.35
895.957	1026.73
896.131	1016.27
896.306	965.31
896.48	961.83
896.655	948.65
896.829	907.19
897.004	899.83
897.178	894.79
897.353	904.09
897.527	947.88
897.701	901.96
897.876	868.44
898.05	970.74
898.224	920.75
898.399	967.83
898.573	913
898.747	794.04
898.921	860.69
899.096	755.29
899.27	752
899.444	764.01
899.618	794.04
899.792	824.65
899.967	820.58
900.141	832.79
900.315	807.02
900.489	790.36
900.663	787.07
900.837	795.59
901.011	774.67
901.185	877.35
901.359	815.74
901.533	817.48
901.707	797.14
901.881	807.6
902.055	777.96
902.229	774.47
902.403	845.58
902.576	803.34
902.75	825.62
902.924	940.13
903.098	888.01
903.272	893.82
903.446	927.73
903.619	963.18
903.793	954.08
903.967	933.15
904.14	1012.39
904.314	983.91
904.488	973.45
904.661	960.86
904.835	951.94
905.009	1000.19
905.182	997.48
905.356	1024.41
905.529	992.83
905.703	933.54
905.876	923.46
906.05	925.6
906.223	901.38
906.397	853.91
906.57	802.57
906.744	793.27
906.917	804.31
907.09	796.75
907.264	805.28
907.437	770.4
907.61	706.66
907.784	749.87
907.957	791.33
908.13	734.37
908.304	759.17
908.477	717.32
908.65	702.79
908.823	665.78
908.996	763.62
909.17	677.02
909.343	736.3
909.516	727.39
909.689	701.62
909.862	679.92
910.035	703.37
910.208	673.34
910.381	659.39
910.554	776.99
910.727	715.38
910.9	686.32
911.073	665.78
911.246	791.52
911.419	770.21
911.592	774.28
911.765	707.63
911.938	690
912.11	720.8
912.283	713.83
912.456	764.01
912.629	716.15
912.802	657.84
912.974	623.74
913.147	618.12
913.32	560.96
913.493	580.34
913.665	609.79
913.838	613.08
914.01	606.49
914.183	672.75
914.356	621.99
914.528	682.64
914.701	728.36
914.873	679.34
915.046	610.95
915.218	601.65
915.391	508.46
915.563	550.11
915.736	602.23
915.908	630.52
916.081	585.57
916.253	593.71
916.425	636.72
916.598	646.99
916.77	599.13
916.942	581.69
917.115	503.03
917.287	613.08
917.459	575.69
917.632	533.45
917.804	500.13
917.976	601.65
918.148	590.61
918.32	598.94
918.493	630.32
918.665	683.22
918.837	620.83
919.009	683.6
919.181	688.25
919.353	608.82
919.525	633.42
919.697	655.32
919.869	626.45
920.041	660.36
920.213	729.72
920.385	676.82
920.557	658.03
920.729	656.87
920.901	670.24
921.073	629.74
921.244	636.52
921.416	656.29
921.588	615.99
921.76	583.24
921.932	635.36
922.103	594.09
922.275	642.14
922.447	634.01
922.619	554.38
922.79	594.67
922.962	603.01
923.134	637.49
923.305	538.88
923.477	572.39
923.648	546.63
923.82	592.35
923.991	527.44
924.163	492.18
924.335	547.21
924.506	528.99
924.677	599.91
924.849	509.62
925.02	546.24
925.192	569.68
925.363	541.98
925.535	521.83
925.706	534.42
925.877	598.55
926.049	520.86
926.22	547.4
926.391	545.46
926.562	586.92
926.734	546.04
926.905	562.9
927.076	497.22
927.247	505.74
927.419	489.28
927.59	479.78
927.761	497.61
927.932	474.16
928.103	505.16
928.274	413.13
928.445	396.08
928.616	423.98
928.787	402.48
928.958	441.42
929.129	431.93
929.3	399.57
929.471	358.5
929.642	325.95
929.813	251.35
929.984	399.77
930.155	273.64
930.326	350.17
930.496	292.43
930.667	233.72
930.838	315.68
931.009	244.57
931.18	253.87
931.35	233.34
931.521	257.75
931.692	203.5
931.863	162.23
932.033	210.47
932.204	195.17
932.374	219.97
932.545	142.08
932.716	235.27
932.886	211.83
933.057	125.03
933.227	129.49
933.398	217.26
933.568	110.31
933.739	71.17
933.909	85.31
934.08	160.87
934.25	48.5
934.421	82.99
934.591	151.19
934.761	97.91
934.932	63.23
935.102	116.12
935.272	82.21
935.443	117.86
935.613	136.27
935.783	124.45
935.953	69.23
936.123	222.87
936.294	87.83
936.464	106.43
936.634	101.2
936.804	64.78
936.974	24.48
937.144	99.26
937.314	103.91
937.484	78.14
937.655	73.11
937.825	179.67
937.995	106.82
938.165	151.96
938.334	99.26
938.504	131.62
938.674	111.28
938.844	97.13
939.014	188.58
939.184	185.67
939.354	233.72
939.524	202.34
939.694	150.61
939.863	161.07
940.033	218.81
940.203	196.52
940.373	186.84
940.542	200.98
940.712	159.91
940.882	181.02
941.051	222.87
941.221	179.67
941.391	219.58
941.56	161.46
941.73	129.49
941.899	285.84
942.069	154.87
942.238	170.17
942.408	145.76
942.577	190.91
942.747	149.64
942.916	75.24
943.086	123.87
943.255	190.91
943.425	156.42
943.594	122.32
943.763	87.83
943.933	79.69
944.102	52.96
944.271	130.26
944.441	123.48
944.61	130.65
944.779	131.62
944.948	194.2
945.117	94.81
945.287	102.56
945.456	80.47
945.625	97.71
945.794	126.78
945.963	113.21
946.132	131.62
946.301	89.58
946.47	136.85
946.639	56.25
946.808	110.5
946.977	158.36
947.146	159.13
947.315	92.29
947.484	146.92
947.653	109.73
947.822	97.33
947.991	104.49
948.16	194.97
948.329	162.62
948.498	113.41
948.666	135.88
948.835	148.28
949.004	100.81
949.173	76.21
949.341	110.69
949.51	130.46
949.679	164.56
949.847	140.14
950.016	213.96
950.185	196.91
950.353	128.52
950.522	132.59
950.69	192.07
950.859	138.98
951.028	154.29
951.196	136.27
951.365	112.24
951.533	110.89
951.701	154.09
951.87	163.59
952.038	97.13
952.207	101.2
952.375	168.82
952.543	108.56
952.712	146.73
952.88	84.93
953.048	197.3
953.217	118.06
953.385	119.41
953.553	191.1
953.721	101.01
953.89	128.13
954.058	76.01
954.226	110.89
954.394	117.67
954.562	91.9
954.73	108.18
954.898	139.95
955.067	170.17
955.235	106.24
955.403	146.54
955.571	200.59
955.739	125.42
955.907	94.42
956.075	113.79
956.243	92.87
956.41	138.98
956.578	76.59
956.746	88.41
956.914	83.38
957.082	134.91
957.25	138.79
957.418	84.93
957.585	106.04
957.753	167.85
957.921	90.16
958.089	125.23
958.256	141.5
958.424	108.18
958.592	126.97
958.759	101.2
958.927	132.98
959.095	88.8
959.262	123.09
959.43	115.34
959.597	101.39
959.765	124.06
959.932	78.73
960.1	129.1
960.267	147.7
960.435	107.59
960.602	188.58
960.77	82.02
960.937	91.51
961.104	144.99
961.272	65.74
961.439	126.39
961.606	115.73
961.774	154.87
961.941	122.13
962.108	120.77
962.275	122.32
962.443	190.32
962.61	137.24
962.777	216.09
962.944	145.18
963.111	137.04
963.278	152.93
963.446	140.92
963.613	137.82
963.78	140.14
963.947	136.08
964.114	138.98
964.281	237.4
964.448	141.69
964.615	128.91
964.782	168.04
964.949	150.02
965.116	191.49
965.282	175.79
965.449	108.56
965.616	90.35
965.783	181.02
965.95	154.29
966.117	105.46
966.283	134.72
966.45	150.8
966.617	154.87
966.784	192.46
966.95	157.77
967.117	198.46
967.284	115.54
967.45	100.04
967.617	175.41
967.784	147.7
967.95	216.67
968.117	158.74
968.283	189.55
968.45	246.12
968.616	163.39
968.783	193.23
968.949	179.86
969.116	201.17
969.282	152.74
969.449	153.71
969.615	170.17
969.781	119.03
969.948	135.88
970.114	111.28
970.28	232.76
970.447	162.04
970.613	203.89
970.779	139.37
970.945	177.34
971.112	157
971.278	161.46
971.444	159.32
971.61	199.24
971.776	139.95
971.942	184.51
972.108	190.71
972.275	150.41
972.441	151.38
972.607	211.25
972.773	137.82
972.939	170.37
973.105	176.18
973.271	129.88
973.437	126
973.602	132.98
973.768	172.89
973.934	125.03
974.1	163.01
974.266	91.9
974.432	135.3
974.598	130.84
974.763	146.54
974.929	131.43
975.095	205.24
975.261	121.74
975.426	112.24
975.592	136.85
975.758	187.61
975.923	96.55
976.089	109.92
976.255	185.67
976.42	145.18
976.586	172.5
976.751	159.13
976.917	206.79
977.082	157.97
977.248	88.61
977.413	69.04
977.579	106.04
977.744	146.34
977.91	102.36
978.075	118.83
978.24	168.62
978.406	145.76
978.571	112.83
978.736	116.7
978.902	140.34
979.067	100.23
979.232	79.31
979.397	121.35
979.563	178.12
979.728	93.26
979.893	135.69
980.058	114.18
980.223	158.74
980.388	131.23
980.554	124.84
980.719	107.59
980.884	117.86
981.049	172.31
981.214	126.39
981.379	148.47
981.544	138.79
981.709	91.9
981.874	112.63
982.039	123.68
982.204	161.46
982.368	111.66
982.533	100.43
982.698	156.42
982.863	163.01
983.028	98.88
983.193	131.43
983.357	144.21
983.522	124.06
983.687	106.63
983.852	110.89
984.016	110.31
984.181	130.07
984.346	166.69
984.51	141.69
984.675	136.27
984.839	144.79
985.004	117.09
985.168	185.09
985.333	146.54
985.498	114.96
985.662	156.61
985.827	150.61
985.991	129.29
986.155	127.94
986.32	141.89
986.484	199.82
986.649	131.81
986.813	55.28
986.977	124.64
987.142	150.8
987.306	105.46
987.47	114.76
987.634	114.18
987.799	134.72
987.963	137.63
988.127	164.75
988.291	192.26
988.455	125.42
988.62	106.04
988.784	146.92
988.948	129.68
989.112	108.37
989.276	138.59
989.44	125.03
989.604	103.14
989.768	135.69
989.932	161.46
990.096	78.73
990.26	59.35
990.424	92.48
990.588	111.66
990.752	181.41
990.915	131.62
991.079	116.51
991.243	72.33
991.407	157.58
991.571	97.71
991.734	167.66
991.898	129.68
992.062	222.68
992.226	124.26
992.389	110.11
992.553	47.73
992.717	93.06
992.88	93.64
993.044	115.54
993.207	95.97
993.371	125.03
993.535	110.5
993.698	104.3
993.862	134.53
994.025	128.71
994.189	134.14
994.352	127.55
994.515	110.89
994.679	159.91
994.842	84.34
995.006	153.12
995.169	56.83
995.332	61.68
995.496	167.46
995.659	64.97
995.822	86.09
995.985	91.71
996.149	165.72
996.312	74.27
996.475	155.64
996.638	92.68
996.801	168.82
996.964	156.22
997.128	68.65
997.291	68.84
997.454	110.69
997.617	69.43
997.78	141.89
997.943	70.98
998.106	131.43
998.269	81.63
998.432	88.99
998.595	106.24
998.758	86.09
998.92	46.37
999.083	31.06
999.246	95
999.409	46.95
999.572	30.87
999.735	74.85
999.897	107.21
1000.06	56.25
1000.223	102.94
1000.386	118.25
1000.548	111.08
1000.711	111.66
1000.874	115.93
1001.036	16.53
1001.199	109.34
1001.361	68.84
1001.524	89.38
1001.687	96.55
1001.849	74.27
1002.012	116.89
1002.174	64.39
1002.337	97.52
1002.499	90.35
1002.661	94.61
1002.824	68.26
1002.986	64.58
1003.149	97.52
1003.311	48.89
1003.473	133.56
1003.636	64.58
1003.798	123.48
1003.96	116.12
1004.123	67.29
1004.285	63.81
1004.447	67.1
1004.609	88.03
1004.771	132.59
1004.933	32.81
1005.096	49.28
1005.258	7.04
1005.42	84.54
1005.582	102.36
1005.744	103.53
1005.906	8.59
1006.068	87.06
1006.23	43.46
1006.392	1.42
1006.554	44.05
1006.716	113.79
1006.878	86.48
1007.04	23.31
1007.202	28.74
1007.363	79.69
1007.525	93.06
1007.687	108.95
1007.849	90.74
1008.011	1.42
1008.172	35.13
1008.334	55.67
1008.496	84.34
1008.658	14.79
1008.819	38.81
1008.981	43.66
1009.143	47.73
1009.304	49.66
1009.466	96.94
1009.627	121.16
1009.789	162.81
1009.95	78.14
1010.112	48.5
1010.273	59.54
1010.435	39.01
1010.596	36.68
1010.758	55.67
1010.919	37.46
1011.081	7.04
1011.242	65.55
1011.403	89.77
1011.565	51.8
1011.726	77.37
1011.887	21.18
1012.049	55.09
1012.21	92.09
1012.371	119.99
1012.532	1.23
1012.693	53.93
1012.855	27.58
1013.016	70.78
1013.177	80.86
1013.338	43.08
1013.499	102.17
1013.66	106.04
1013.821	71.94
1013.982	48.11
1014.143	72.72
1014.304	50.83
1014.465	83.76
1014.626	78.53
1014.787	38.62
1014.948	122.51
1015.109	-32.29
1015.27	87.06
1015.431	23.7
1015.592	42.5
1015.752	100.04
1015.913	62.84
1016.074	54.7
1016.235	46.37
1016.395	8.4
1016.556	58
1016.717	27.77
1016.877	100.04
1017.038	32.23
1017.199	69.04
1017.359	52.18
1017.52	47.53
1017.681	41.91
1017.841	62.64
1018.002	34.16
1018.162	19.83
1018.323	81.24
1018.483	30.68
1018.644	38.43
1018.804	3.16
1018.964	8.2
1019.125	35.71
1019.285	40.17
1019.446	-4.97
1019.606	6.07
1019.766	-10.59
1019.926	39.78
1020.087	68.84
1020.247	-6.91
1020.407	58
1020.567	97.13
1020.728	33.2
1020.888	5.68
1021.048	20.8
1021.208	5.49
1021.368	43.46
1021.528	99.07
1021.688	68.26
1021.848	93.45
1022.008	41.53
1022.168	2.78
1022.328	32.81
1022.488	73.69
1022.648	15.56
1022.808	16.15
1022.968	73.69
1023.128	20.8
1023.288	18.28
1023.448	28.55
1023.608	60.51
1023.767	60.32
1023.927	24.86
1024.087	5.49
1024.247	-10.59
1024.406	20.99
1024.566	17.89
1024.726	-1.68
1024.885	46.76
1025.045	55.09
1025.205	40.36
1025.364	14.01
1025.524	44.82
1025.683	38.04
1025.843	36.68
1026.003	29.9
1026.162	89.96
1026.321	57.8
1026.481	14.79
1026.64	-20.67
1026.8	63.42
1026.959	49.47
1027.119	32.03
1027.278	5.3
1027.437	-6.33
1027.597	19.44
1027.756	50.83
1027.915	40.75
1028.074	24.86
1028.234	15.95
1028.393	15.76
1028.552	7.04
1028.711	-33.07
1028.87	49.08
1029.03	-10.59
1029.189	27.96
1029.348	-18.73
1029.507	16.53
1029.666	17.89
1029.825	6.85
1029.984	8.2
1030.143	24.67
1030.302	-14.47
1030.461	-11.75
1030.62	59.74
1030.779	49.28
1030.938	9.36
1031.097	-29.58
1031.255	61.87
1031.414	77.76
1031.573	62.06
1031.732	-20.47
1031.891	27.38
1032.049	75.63
1032.208	40.17
1032.367	-13.89
1032.525	25.45
1032.684	4.13
1032.843	45.79
1033.001	-39.07
1033.16	181.8
1033.319	40.36
1033.477	48.7
1033.636	3.36
1033.794	6.26
1033.953	62.26
1034.111	35.52
1034.27	-11.75
1034.428	27.38
1034.587	-2.07
1034.745	11.88
1034.903	1.81
1035.062	56.83
1035.22	-23.38
1035.378	60.9
1035.537	-15.82
1035.695	54.12
1035.853	23.9
1036.011	50.25
1036.17	29.51
1036.328	-48.37
1036.486	31.26
1036.644	23.51
1036.802	-53.02
1036.96	0.26
1037.119	25.06
1037.277	-19.31
1037.435	-18.92
1037.593	-2.65
1037.751	4.52
1037.909	43.08
1038.067	43.08
