Data from gum_old_FLMT105791__66__15-43-54-257.txt Node

Date: Mon Mar 20 15:43:54 GMT 2023
User: antho
Spectrometer: FLMT10579
Trigger mode: 0
Integration Time (sec): 1.000000E-1
Scans to average: 10
Electric dark correction enabled: true
Nonlinearity correction enabled: false
Boxcar width: 0
XAxis mode: Wavelengths
Number of Pixels in Spectrum: 3648
>>>>>Begin Spectral Data<<<<<
345.248	-175.94
345.464	-175.94
345.681	-175.94
345.898	-165.28
346.114	-167.41
346.331	-50.97
346.548	43.77
346.764	-8.93
346.981	-29.66
347.197	3.67
347.414	27.88
347.631	-10.48
347.847	56.75
348.064	2.7
348.28	27.11
348.497	-46.52
348.713	-15.32
348.93	30.6
349.146	25.36
349.363	14.9
349.579	24.01
349.796	20.33
350.012	-7.96
350.229	36.21
350.445	19.55
350.661	-23.85
350.878	18
351.094	28.27
351.311	28.66
351.527	27.69
351.743	9.86
351.96	56.17
352.176	72.25
352.392	9.67
352.609	42.8
352.825	6.38
353.041	13.35
353.257	10.06
353.474	23.62
353.69	57.14
353.906	25.95
354.122	-6.8
354.339	65.66
354.555	46.29
354.771	7.54
354.987	84.85
355.203	59.85
355.42	-16.1
355.636	9.09
355.852	26.72
356.068	31.37
356.284	-27.33
356.5	55.4
356.716	28.08
356.932	30.79
357.148	46.48
357.364	10.06
357.58	59.08
357.796	75.55
358.012	66.63
358.228	32.92
358.444	-53.68
358.66	63.34
358.876	20.52
359.092	-8.73
359.308	22.07
359.524	58.3
359.74	33.7
359.956	-8.73
360.172	26.14
360.388	82.52
360.604	23.23
360.819	91.82
361.035	28.46
361.251	62.95
361.467	6.18
361.683	79.61
361.898	70.7
362.114	56.56
362.33	36.21
362.546	78.45
362.762	38.93
362.977	21.68
363.193	0.76
363.409	73.22
363.624	-2.15
363.84	18
364.056	12.38
364.271	75.55
364.487	15.1
364.703	2.7
364.918	19.94
365.134	56.75
365.35	27.88
365.565	135.22
365.781	59.66
365.996	69.35
366.212	123.79
366.427	62.95
366.643	21.1
366.858	52.88
367.074	12.19
367.289	86.98
367.505	145.68
367.72	16.26
367.936	21.3
368.151	88.33
368.367	69.73
368.582	53.07
368.798	24.98
369.013	112.74
369.228	40.67
369.444	46.29
369.659	102.67
369.874	74.38
370.09	105.19
370.305	3.86
370.52	33.31
370.736	126.89
370.951	72.06
371.166	118.94
371.381	104.22
371.597	108.29
371.812	43.19
372.027	31.56
372.242	60.05
372.458	137.16
372.673	56.56
372.888	82.71
373.103	85.04
373.318	163.31
373.533	108.09
373.749	93.95
373.964	11.03
374.179	87.36
374.394	3.67
374.609	110.23
374.824	15.29
375.039	81.55
375.254	55.59
375.469	114.49
375.684	66.44
375.899	108.29
376.114	67.02
376.329	61.98
376.544	101.12
376.759	85.23
376.974	50.36
377.189	73.61
377.404	58.11
377.619	98.41
377.834	3.47
378.049	26.72
378.264	56.17
378.478	101.31
378.693	42.03
378.908	113.52
379.123	73.41
379.338	116.43
379.553	85.04
379.767	81.94
379.982	107.9
380.197	99.38
380.412	65.66
380.626	79.61
380.841	174.36
381.056	119.33
381.271	163.89
381.485	73.03
381.7	59.08
381.915	107.51
382.129	79.61
382.344	66.05
382.559	52.1
382.773	119.53
382.988	5.99
383.202	86.4
383.417	30.6
383.632	150.91
383.846	56.36
384.061	94.34
384.275	44.93
384.49	65.28
384.704	103.25
384.919	100.15
385.133	60.63
385.348	102.48
385.562	67.02
385.777	125.14
385.991	98.79
386.206	74.77
386.42	53.07
386.634	143.36
386.849	98.21
387.063	119.91
387.277	59.85
387.492	58.69
387.706	46.29
387.92	77.87
388.135	129.02
388.349	91.63
388.563	112.36
388.778	97.24
388.992	132.51
389.206	132.31
389.42	179.2
389.635	110.03
389.849	157.5
390.063	152.85
390.277	133.67
390.491	189.47
390.706	134.83
390.92	142
391.134	147.43
391.348	143.16
391.562	102.67
391.776	134.83
391.99	129.41
392.205	169.13
392.419	128.44
392.633	159.24
392.847	169.71
393.061	93.56
393.275	185.4
393.489	80.78
393.703	109.64
393.917	125.14
394.131	45.32
394.345	143.55
394.559	131.54
394.773	117.59
394.986	144.33
395.2	141.42
395.414	184.43
395.628	120.11
395.842	171.64
396.056	145.29
396.27	85.62
396.484	187.14
396.697	185.21
396.911	157.31
397.125	116.62
397.339	144.33
397.553	109.26
397.766	183.46
397.98	178.23
398.194	196.44
398.408	173.19
398.621	177.07
398.835	220.86
399.049	223.57
399.262	242.56
399.476	247.21
399.69	246.62
399.903	285.95
400.117	233.26
400.331	258.83
400.544	210.2
400.758	336.14
400.971	276.46
401.185	249.72
401.398	225.31
401.612	315.21
401.826	280.72
402.039	279.75
402.253	252.44
402.466	282.08
402.68	247.98
402.893	288.86
403.106	280.92
403.32	286.92
403.533	274.52
403.747	243.91
403.96	255.92
404.174	300.87
404.387	240.23
404.6	278.4
404.814	293.12
405.027	290.22
405.24	287.12
405.454	263.48
405.667	313.08
405.88	214.46
406.094	295.84
406.307	316.37
406.52	300.87
406.733	250.31
406.947	257.47
407.16	340.98
407.373	305.14
407.586	262.51
407.799	252.44
408.012	301.45
408.226	293.51
408.439	334.39
408.652	269.87
408.865	320.25
409.078	362.68
409.291	336.52
409.504	284.21
409.717	327.61
409.93	332.07
410.143	326.64
410.357	244.69
410.57	252.63
410.783	276.27
410.996	328.19
411.209	289.64
411.421	347.57
411.634	324.12
411.847	327.03
412.06	333.23
412.273	361.32
412.486	349.5
412.699	451.03
412.912	351.25
413.125	356.48
413.338	346.4
413.55	367.91
413.763	343.11
413.976	384.18
414.189	324.9
414.402	339.04
414.615	404.14
414.827	320.44
415.04	359.38
415.253	362.1
415.466	407.05
415.678	403.75
415.891	384.77
416.104	346.21
416.316	354.54
416.529	335.17
416.742	412.47
416.954	432.62
417.167	402.4
417.38	366.36
417.592	417.51
417.805	348.54
418.017	283.82
418.23	387.67
418.442	329.74
418.655	340.59
418.868	376.05
419.08	397.17
419.293	414.6
419.505	382.44
419.718	379.73
419.93	439.02
420.142	382.05
420.355	418.09
420.567	415.38
420.78	404.72
420.992	407.43
421.205	440.76
421.417	371.4
421.629	405.69
421.842	387.09
422.054	398.91
422.266	435.72
422.479	463.62
422.691	393.87
422.903	427.97
423.115	349.5
423.328	369.65
423.54	389.61
423.752	389.22
423.964	412.47
424.177	443.67
424.389	389.61
424.601	531.82
424.813	424.1
425.025	466.72
425.238	462.07
425.45	406.08
425.662	409.57
425.874	749.79
426.086	431.46
426.298	469.24
426.51	439.4
426.722	409.76
426.934	428.17
427.146	411.89
427.358	389.22
427.57	474.08
427.782	446.38
427.994	411.5
428.206	383.02
428.418	377.02
428.63	463.04
428.842	494.04
429.054	455.87
429.266	463.23
429.478	412.28
429.69	433.4
429.902	401.23
430.114	451.03
430.325	405.3
430.537	387.09
430.749	351.05
430.961	299.32
431.173	356.29
431.384	362.87
431.596	286.15
431.808	383.02
432.02	423.71
432.231	510.31
432.443	538.02
432.655	481.25
432.867	460.52
433.078	515.55
433.29	538.79
433.502	519.23
433.713	539.38
433.925	494.81
434.136	537.63
434.348	460.52
434.56	414.8
434.771	575.22
434.983	421.97
435.194	463.81
435.406	489.58
435.617	560.3
435.829	578.51
436.04	531.24
436.252	577.93
436.463	602.34
436.675	612.03
436.886	594.01
437.098	578.71
437.309	624.62
437.521	570.76
437.732	590.33
437.943	542.86
438.155	560.69
438.366	480.09
438.578	622.69
438.789	547.13
439	576.19
439.211	487.45
439.423	533.76
439.634	559.53
439.845	590.14
440.057	593.82
440.268	613.97
440.479	591.88
440.69	591.3
440.902	553.71
441.113	562.24
441.324	579.29
441.535	628.11
441.746	668.61
441.957	582.39
442.168	592.27
442.38	680.23
442.591	650.78
442.802	579.09
443.013	644.39
443.224	656.21
443.435	632.18
443.646	627.53
443.857	655.82
444.068	599.05
444.279	615.13
444.49	707.74
444.701	643.03
444.912	737
445.123	718.01
445.334	673.45
445.545	664.92
445.756	677.32
445.967	617.84
446.178	632.96
446.388	647.1
446.599	685.27
446.81	666.86
447.021	612.81
447.232	702.12
447.443	696.12
447.653	666.47
447.864	713.55
448.075	695.73
448.286	691.66
448.496	699.99
448.707	740.87
448.918	663.96
449.129	770.52
449.339	680.81
449.55	728.86
449.761	690.89
449.971	755.21
450.182	720.53
450.393	751.53
450.603	701.35
450.814	735.45
451.024	736.8
451.235	786.4
451.446	837.75
451.656	806.36
451.867	721.5
452.077	746.69
452.288	794.73
452.498	788.54
452.709	727.12
452.919	729.05
453.13	660.08
453.34	750.56
453.55	676.55
453.761	736.42
453.971	694.57
454.182	744.75
454.392	734.67
454.602	819.34
454.813	754.44
455.023	764.12
455.233	709.68
455.444	776.14
455.654	662.79
455.864	756.76
456.075	684.88
456.285	714.52
456.495	746.3
456.705	789.89
456.916	817.79
457.126	822.05
457.336	768.77
457.546	705.22
457.756	723.05
457.967	824.57
458.177	767.61
458.387	773.23
458.597	732.74
458.807	777.88
459.017	744.36
459.227	759.28
459.437	763.93
459.647	810.04
459.857	819.34
460.068	751.53
460.278	858.67
460.488	807.91
460.698	816.82
460.908	762.96
461.117	773.23
461.327	775.55
461.537	833.87
461.747	808.68
461.957	816.05
462.167	908.66
462.377	844.33
462.587	796.48
462.797	860.8
463.007	797.06
463.216	871.27
463.426	906.72
463.636	886.96
463.846	804.03
464.056	790.28
464.265	830.77
464.475	812.75
464.685	845.69
464.895	851.7
465.104	840.85
465.314	836.2
465.524	815.85
465.733	791.64
465.943	920.28
466.153	907.3
466.362	891.61
466.572	898.58
466.782	854.6
466.991	877.47
467.201	895.1
467.41	778.07
467.62	869.72
467.829	885.99
468.039	883.47
468.249	861.19
468.458	867.58
468.668	905.95
468.877	920.09
469.086	959.03
469.296	950.7
469.505	880.95
469.715	957.87
469.924	928.81
470.134	992.74
470.343	939.46
470.552	915.83
470.762	903.04
470.971	895.29
471.18	951.09
471.39	897.61
471.599	905.17
471.808	948.76
472.018	929.97
472.227	1003.4
472.436	1015.22
472.645	1008.44
472.855	949.54
473.064	1054.74
473.273	1051.45
473.482	1011.93
473.691	1034.79
473.901	1057.07
474.11	979.38
474.319	1097.17
474.528	1022.97
474.737	1136.89
474.946	1098.92
475.155	1082.64
475.364	1171.38
475.573	1114.61
475.783	1102.21
475.992	1126.62
476.201	1158.2
476.41	1099.5
476.619	1060.56
476.828	1111.71
477.037	1058.62
477.245	1133.41
477.454	1145.61
477.663	1084.77
477.872	1139.8
478.081	1220.01
478.29	1118.68
478.499	1266.32
478.708	1215.75
478.917	1262.63
479.125	1161.89
479.334	1193.47
479.543	1158.98
479.752	1223.5
479.961	1232.41
480.169	1241.9
480.378	1209.35
480.587	1358.93
480.796	1289.95
481.004	1256.43
481.213	1276.78
481.422	1281.23
481.63	1288.4
481.839	1324.25
482.048	1369.78
482.256	1302.35
482.465	1352.34
482.674	1335.48
482.882	1354.28
483.091	1405.04
483.299	1353.7
483.508	1364.74
483.716	1382.18
483.925	1402.71
484.134	1382.18
484.342	1376.17
484.551	1435.65
484.759	1415.69
484.967	1438.36
485.176	1422.48
485.384	1441.66
485.593	1436.04
485.801	1425.38
486.01	1381.79
486.218	1292.28
486.426	1251.98
486.635	1227.95
486.843	1217.3
487.051	1257.02
487.26	1268.64
487.468	1319.21
487.676	1347.5
487.885	1365.71
488.093	1404.46
488.301	1433.52
488.509	1444.56
488.717	1512.96
488.926	1451.93
489.134	1439.72
489.342	1482.15
489.55	1402.71
489.758	1458.32
489.967	1466.07
490.175	1603.63
490.383	1531.36
490.591	1636.37
490.799	1501.33
491.007	1634.82
491.215	1567.21
491.423	1571.27
491.631	1547.06
491.839	1530.39
492.047	1602.47
492.255	1503.85
492.463	1483.7
492.671	1468.78
492.879	1570.69
493.087	1527.87
493.295	1526.91
493.503	1578.25
493.711	1645.67
493.919	1635.99
494.127	1655.94
494.334	1636.57
494.542	1581.35
494.75	1634.44
494.958	1572.82
495.166	1708.83
495.374	1677.25
495.581	1736.93
495.789	1694.5
495.997	1721.62
496.205	1617.39
496.412	1674.54
496.62	1679.77
496.828	1708.83
497.035	1678.22
497.243	1686.55
497.451	1725.88
497.658	1730.73
497.866	1710.19
498.074	1765.41
498.281	1647.03
498.489	1771.61
498.696	1673.96
498.904	1603.82
499.112	1648.19
499.319	1776.65
499.527	1695.27
499.734	1772.19
499.942	1687.13
500.149	1723.95
500.357	1736.15
500.564	1675.51
500.771	1732.08
500.979	1661.56
501.186	1670.67
501.394	1719.1
501.601	1668.92
501.808	1672.41
502.016	1664.85
502.223	1676.28
502.43	1685.78
502.638	1674.54
502.845	1646.64
503.052	1752.62
503.26	1691.98
503.467	1821.6
503.674	1750.68
503.881	1719.88
504.089	1784.98
504.296	1741.19
504.503	1690.82
504.71	1701.28
504.917	1674.93
505.125	1700.5
505.332	1734.99
505.539	1775.48
505.746	1837.48
505.953	1808.42
506.16	1809.78
506.367	1838.65
506.574	1901.61
506.781	1838.45
506.988	1808.42
507.195	1864.03
507.402	1823.53
507.609	1855.69
507.816	1811.71
508.023	1770.06
508.23	1810.16
508.437	1757.85
508.644	1809.97
508.851	1877.78
509.058	1841.94
509.265	1832.64
509.472	1856.28
509.679	1942.3
509.885	1897.35
510.092	1870.42
510.299	1863.06
510.506	1845.62
510.713	1882.82
510.92	1850.08
511.126	1894.06
511.333	1927.96
511.54	1946.95
511.746	1936.1
511.953	1985.89
512.16	1986.09
512.367	1917.11
512.573	1901.61
512.78	1934.36
512.987	1916.73
513.193	1886.5
513.4	1803.38
513.606	1893.48
513.813	1880.11
514.02	1887.47
514.226	1954.31
514.433	1907.04
514.639	1868.09
514.846	1863.83
515.052	1832.06
515.259	1883.01
515.465	1888.24
515.672	1856.28
515.878	2005.27
516.085	1922.93
516.291	1986.67
516.497	1906.46
516.704	1901.23
516.91	1821.4
517.117	1766.57
517.323	1685.2
517.529	1679.97
517.736	1723.75
517.942	1710.58
518.148	1722.2
518.354	1808.03
518.561	1808.61
518.767	1815.98
518.973	1832.45
519.179	1841.94
519.386	1828.96
519.592	1840.58
519.798	1878.17
520.004	2001.97
520.21	1922.34
520.417	1992.09
520.623	1995.97
520.829	2009.14
521.035	1987.25
521.241	1987.25
521.447	2011.08
521.653	2111.25
521.859	2015.34
522.065	2083.35
522.271	2159.88
522.477	2105.63
522.683	2165.88
522.889	2113.38
523.095	2053.12
523.301	2078.31
523.507	2023.29
523.713	2069.01
523.919	2049.05
524.125	2169.76
524.331	2076.18
524.537	2221.1
524.742	2213.93
524.948	2181
525.154	2186.23
525.36	2302.28
525.566	2211.8
525.772	2252.49
525.977	2199.98
526.183	2232.92
526.389	2238.15
526.595	2171.5
526.8	2172.28
527.006	2066.3
527.212	2005.46
527.417	1987.25
527.623	2018.05
527.829	2063.97
528.034	2088.58
528.24	2146.51
528.446	2144.77
528.651	2258.11
528.857	2263.73
529.062	2329.02
529.268	2255.01
529.473	2249.78
529.679	2316.23
529.884	2399.16
530.09	2362.15
530.295	2322.04
530.501	2349.17
530.706	2365.25
530.912	2313.52
531.117	2337.74
531.323	2345.1
531.528	2406.71
531.733	2419.5
531.939	2344.71
532.144	2406.71
532.35	2416.59
532.555	2468.71
532.76	2369.9
532.966	2379.59
533.171	2317.98
533.376	2256.75
533.581	2218.78
533.787	2283.68
533.992	2365.44
534.197	2370.48
534.402	2338.71
534.607	2364.67
534.813	2445.66
535.018	2384.04
535.223	2384.43
535.428	2356.14
535.633	2423.37
535.838	2434.42
536.043	2444.3
536.249	2505.33
536.454	2429.38
536.659	2485.18
536.864	2435.77
537.069	2432.09
537.274	2414.66
537.479	2420.66
537.684	2421.24
537.889	2340.26
538.094	2496.03
538.299	2428.41
538.504	2441.97
538.708	2484.99
538.913	2496.8
539.118	2448.37
539.323	2461.54
539.528	2456.12
539.733	2434.42
539.938	2446.82
540.142	2438.49
540.347	2428.99
540.552	2378.04
540.757	2390.05
540.962	2385.21
541.166	2307.9
541.371	2312.94
541.576	2357.31
541.781	2264.31
541.985	2406.91
542.19	2422.02
542.395	2482.47
542.599	2467.16
542.804	2459.41
543.008	2507.07
543.213	2448.17
543.418	2436.94
543.622	2473.36
543.827	2396.64
544.031	2472.39
544.236	2528.97
544.44	2501.45
544.645	2592.32
544.849	2501.07
545.054	2541.56
545.258	2583.99
545.463	2570.82
545.667	2476.27
545.872	2513.47
546.076	2559.97
546.281	2535.36
546.485	2502.04
546.689	2527.8
546.894	2513.85
547.098	2491.57
547.302	2479.56
547.507	2478.79
547.711	2536.72
547.915	2552.99
548.119	2472.39
548.324	2433.64
548.528	2565.58
548.732	2518.31
548.936	2566.36
549.141	2576.43
549.345	2496.8
549.549	2517.54
549.753	2529.55
549.957	2584.38
550.161	2572.56
550.366	2550.67
550.57	2477.04
550.774	2556.28
550.978	2550.08
551.182	2541.37
551.386	2520.64
551.59	2499.9
551.794	2489.64
551.998	2537.3
552.202	2516.76
552.406	2488.86
552.61	2508.24
552.814	2531.68
553.018	2578.37
553.222	2507.07
553.426	2503.97
553.63	2621.58
553.833	2529.55
554.037	2470.84
554.241	2544.08
554.445	2528.58
554.649	2501.07
554.853	2493.9
555.056	2540.59
555.26	2590.19
555.464	2535.36
555.668	2562.68
555.871	2586.7
556.075	2553.96
556.279	2508.62
556.483	2438.29
556.686	2510.56
556.89	2497.97
557.094	2498.35
557.297	2437.32
557.501	2525.87
557.704	2399.54
557.908	2472.97
558.112	2438.87
558.315	2512.3
558.519	2458.25
558.722	2453.79
558.926	2410.59
559.129	2372.03
559.333	2343.94
559.536	2376.68
559.74	2349.56
559.943	2335.61
560.147	2324.76
560.35	2397.61
560.553	2383.27
560.757	2322.63
560.96	2433.26
561.164	2388.31
561.367	2452.82
561.57	2401.09
561.774	2415.43
561.977	2378.62
562.18	2393.34
562.384	2407.68
562.587	2387.72
562.79	2378.23
562.993	2333.28
563.197	2405.55
563.4	2471.04
563.603	2461.74
563.806	2466
564.009	2380.36
564.212	2419.31
564.416	2312.55
564.619	2368.93
564.822	2301.12
565.025	2408.07
565.228	2323.4
565.431	2373.58
565.634	2264.7
565.837	2296.47
566.04	2257.33
566.243	2249.58
566.446	2176.15
566.649	2268.96
566.852	2215.48
567.055	2237.38
567.258	2290.66
567.461	2313.91
567.664	2323.21
567.867	2227.69
568.07	2300.93
568.273	2262.37
568.475	2320.88
568.678	2247.06
568.881	2201.92
569.084	2216.84
569.287	2102.34
569.489	2149.8
569.692	2245.13
569.895	2191.85
570.098	2124.42
570.3	2131.98
570.503	2086.84
570.706	2101.56
570.909	2091.68
571.111	2031.04
571.314	2029.1
571.516	2076.76
571.719	2075.21
571.922	2058.94
572.124	2087.03
572.327	2057.97
572.529	2058.35
572.732	2060.87
572.935	2073.47
573.137	2191.46
573.34	2083.74
573.542	2112.6
573.745	2140.5
573.947	2163.75
574.15	2081.02
574.352	2045.37
574.554	2174.99
574.757	2056.22
574.959	2057
575.162	2069.79
575.364	2069.79
575.566	2101.95
575.769	1990.35
575.971	2039.37
576.173	1937.26
576.376	2024.06
576.578	2049.44
576.78	2082.38
576.982	1961.09
577.185	1994.03
577.387	1965.55
577.589	1954.51
577.791	2051.57
577.993	2060.1
578.196	2013.41
578.398	2012.63
578.6	1994.03
578.802	1934.36
579.004	1911.3
579.206	1935.32
579.408	1977.95
579.61	1951.02
579.812	2005.07
580.014	1959.74
580.216	1932.22
580.418	1943.27
580.62	1927.96
580.822	1917.11
581.024	1987.25
581.226	1996.36
581.428	1982.02
581.63	2046.15
581.832	1968.46
582.034	2008.17
582.236	1939.01
582.438	2006.62
582.64	2032.59
582.841	2021.93
583.043	2078.5
583.245	1983.37
583.447	1961.09
583.649	1955.67
583.85	1981.24
584.052	2021.54
584.254	1933
584.456	1996.16
584.657	1899.09
584.859	1957.61
585.061	1943.46
585.262	1898.13
585.464	1854.53
585.666	1920.79
585.867	1840.58
586.069	1948.89
586.27	1902
586.472	1881.27
586.674	1840.58
586.875	1883.21
587.077	1874.49
587.278	1877.2
587.48	1856.86
587.681	1960.51
587.883	1909.75
588.084	1805.13
588.285	1856.86
588.487	1827.99
588.688	1851.82
588.89	1756.88
589.091	1772.58
589.292	1708.06
589.494	1705.15
589.695	1689.85
589.896	1628.04
590.098	1628.62
590.299	1679
590.5	1641.02
590.702	1670.08
590.903	1713.68
591.104	1765.41
591.305	1778.2
591.507	1812.3
591.708	1759.6
591.909	1755.91
592.11	1896.19
592.311	1747.78
592.512	1742.93
592.714	1688.68
592.915	1724.92
593.116	1737.51
593.317	1750.49
593.518	1752.04
593.719	1715.62
593.92	1783.23
594.121	1810.75
594.322	1759.6
594.523	1729.37
594.724	1702.44
594.925	1713.48
595.126	1725.3
595.327	1769.28
595.528	1756.69
595.729	1741.58
595.929	1735.57
596.13	1748.17
596.331	1732.86
596.532	1770.83
596.733	1799.51
596.934	1812.68
597.135	1792.92
597.335	1794.66
597.536	1706.32
597.737	1787.88
597.938	1728.4
598.138	1754.95
598.339	1750.3
598.54	1774.32
598.74	1749.13
598.941	1764.44
599.142	1813.85
599.342	1749.72
599.543	1696.05
599.744	1737.9
599.944	1715.81
600.145	1731.89
600.345	1748.55
600.546	1793.5
600.746	1783.62
600.947	1832.25
601.147	1744.48
601.348	1769.86
601.548	1690.43
601.749	1749.13
601.949	1709.61
602.15	1699.34
602.35	1665.63
602.551	1757.27
602.751	1672.99
602.951	1724.33
603.152	1655.17
603.352	1710
603.552	1707.87
603.753	1720.85
603.953	1725.5
604.153	1734.6
604.354	1721.23
604.554	1722.4
604.754	1753.4
604.954	1688.68
605.155	1733.25
605.355	1695.08
605.555	1753.4
605.755	1772.77
605.955	1658.27
606.155	1767.93
606.356	1692.95
606.556	1697.4
606.756	1722.78
606.956	1650.13
607.156	1762.5
607.356	1673.18
607.556	1692.56
607.756	1688.68
607.956	1732.47
608.156	1699.15
608.356	1668.73
608.556	1697.02
608.756	1659.43
608.956	1633.47
609.156	1655.75
609.356	1616.8
609.556	1615.64
609.755	1678.61
609.955	1624.55
610.155	1668.73
610.355	1640.05
610.555	1602.66
610.755	1633.47
610.954	1548.22
611.154	1660.4
611.354	1672.41
611.554	1579.99
611.753	1598.98
611.953	1537.95
612.153	1632.11
612.352	1631.14
612.552	1540.47
612.752	1553.06
612.951	1589.87
613.151	1609.25
613.351	1567.21
613.55	1552.67
613.75	1638.89
613.949	1552.09
614.149	1602.47
614.348	1543.96
614.548	1510.63
614.747	1506.95
614.947	1537.95
615.146	1492.42
615.346	1600.14
615.545	1587.74
615.745	1556.16
615.944	1543.18
616.144	1519.74
616.343	1571.47
616.542	1508.5
616.742	1512.57
616.941	1486.41
617.14	1454.83
617.34	1490.29
617.539	1501.52
617.738	1481.76
617.938	1563.33
618.137	1494.16
618.336	1433.52
618.535	1547.64
618.734	1520.32
618.934	1550.93
619.133	1515.47
619.332	1513.54
619.531	1485.06
619.73	1533.3
619.929	1572.05
620.128	1536.79
620.328	1579.61
620.527	1525.16
620.726	1490.68
620.925	1505.4
621.124	1507.34
621.323	1509.66
621.522	1432.16
621.721	1479.83
621.92	1440.88
622.119	1513.15
622.318	1476.34
622.517	1476.14
622.715	1472.08
622.914	1423.64
623.113	1477.5
623.312	1396.32
623.511	1471.49
623.71	1431.39
623.909	1466.07
624.107	1510.24
624.306	1403.68
624.505	1403.49
624.704	1396.13
624.902	1418.02
625.101	1454.06
625.3	1439.53
625.499	1402.13
625.697	1383.15
625.896	1396.32
626.095	1443.59
626.293	1360.09
626.492	1356.8
626.69	1443.59
626.889	1430.81
627.088	1462.58
627.286	1401.75
627.485	1378.69
627.683	1387.99
627.882	1397.68
628.08	1343.62
628.279	1363
628.477	1446.31
628.676	1325.99
628.874	1365.9
629.073	1351.95
629.271	1311.46
629.469	1389.93
629.668	1336.65
629.866	1366.1
630.065	1277.75
630.263	1417.83
630.461	1340.13
630.66	1346.14
630.858	1361.45
631.056	1400.58
631.254	1416.66
631.453	1294.41
631.651	1340.13
631.849	1347.3
632.047	1371.71
632.245	1339.94
632.444	1362.03
632.642	1355.05
632.84	1382.56
633.038	1346.91
633.236	1321.73
633.434	1300.42
633.632	1298.09
633.83	1331.61
634.028	1356.21
634.227	1356.41
634.425	1425.58
634.623	1340.71
634.821	1334.32
635.019	1337.23
635.216	1296.15
635.414	1379.66
635.612	1378.88
635.81	1360.67
636.008	1416.86
636.206	1347.11
636.404	1366.29
636.602	1284.92
636.8	1331.22
636.997	1324.63
637.195	1338.2
637.393	1320.76
637.591	1406.78
637.789	1373.85
637.986	1342.85
638.184	1371.33
638.382	1390.12
638.58	1351.18
638.777	1391.09
638.975	1345.17
639.173	1369.97
639.37	1378.88
639.568	1367.26
639.765	1377.33
639.963	1325.21
640.161	1368.23
640.358	1391.67
640.556	1306.03
640.753	1300.8
640.951	1288.79
641.148	1321.92
641.346	1301.19
641.543	1310.49
641.741	1365.71
641.938	1265.73
642.136	1297.9
642.333	1281.23
642.531	1350.4
642.728	1362.61
642.925	1308.94
643.123	1280.85
643.32	1355.63
643.517	1283.75
643.715	1277.94
643.912	1302.93
644.109	1319.6
644.306	1312.82
644.504	1253.14
644.701	1302.16
644.898	1306.62
645.095	1276.2
645.293	1280.27
645.49	1313.01
645.687	1274.65
645.884	1302.55
646.081	1232.02
646.278	1277.55
646.475	1260.89
646.672	1265.73
646.87	1285.69
647.067	1273.1
647.264	1282.59
647.461	1245
647.658	1183.59
647.855	1255.66
648.052	1204.7
648.249	1130.5
648.446	1216.72
648.642	1220.01
648.839	1164.4
649.036	1185.91
649.233	1133.6
649.43	1166.73
649.627	1133.02
649.824	1154.72
650.021	1132.82
650.217	1127.21
650.414	1184.75
650.611	1198.5
650.808	1213.23
651.004	1214.59
651.201	1221.95
651.398	1279.49
651.595	1224.85
651.791	1182.42
651.988	1247.91
652.185	1164.79
652.381	1209.16
652.578	1134.76
652.775	1176.03
652.971	1184.17
653.168	1171.38
653.364	1223.3
653.561	1120.04
653.757	1174.67
653.954	1188.04
654.15	1168.28
654.347	1232.99
654.543	1216.14
654.74	1114.81
654.936	1112.87
655.133	1142.9
655.329	1151.04
655.525	1130.31
655.722	1177.39
655.918	1102.02
656.115	1142.9
656.311	1024.52
656.507	970.85
656.704	906.53
656.9	996.04
657.096	979.38
657.292	983.06
657.489	1052.03
657.685	1041.38
657.881	1012.51
658.077	1068.31
658.273	1066.17
658.47	1119.07
658.666	1071.79
658.862	1136.51
659.058	1072.37
659.254	1149.49
659.45	1097.17
659.646	1124.49
659.842	1126.62
660.038	1173.51
660.234	1088.46
660.43	1104.34
660.626	1162.08
660.822	1131.08
661.018	1144.06
661.214	1114.42
661.41	1080.9
661.606	1142.71
661.802	1150.84
661.998	1077.8
662.194	1087.87
662.39	1136.7
662.586	1161.11
662.781	1148.71
662.977	1141.35
663.173	1135.73
663.369	1107.83
663.564	1142.71
663.76	1162.85
663.956	1093.88
664.152	1184.36
664.347	1056.1
664.543	1114.22
664.739	1112.48
664.934	1071.41
665.13	1078.96
665.326	1140.38
665.521	1123.52
665.717	1062.49
665.912	1065.98
666.108	1023.16
666.304	1106.86
666.499	1062.88
666.695	1012.89
666.89	1087.1
667.086	1104.92
667.281	1104.15
667.477	1154.33
667.672	1077.61
667.867	1096.59
668.063	1124.3
668.258	1035.95
668.454	1078.38
668.649	1156.27
668.844	1076.06
669.04	1107.83
669.235	1087.68
669.43	1036.73
669.626	1025.88
669.821	1047.38
670.016	1038.86
670.211	1076.64
670.407	1038.66
670.602	1091.56
670.797	1038.66
670.992	1093.11
671.187	1040.21
671.382	1079.93
671.578	1036.92
671.773	1030.72
671.968	1014.06
672.163	1067.14
672.358	1091.56
672.553	1002.43
672.748	1038.66
672.943	1129.53
673.138	1042.34
673.333	1044.86
673.528	1016.58
673.723	1059.78
673.918	1069.08
674.113	999.91
674.308	1096.59
674.503	1046.8
674.698	1071.41
674.892	1011.93
675.087	1058.42
675.282	1072.57
675.477	1008.24
675.672	1065.98
675.867	1016.19
676.061	970.27
676.256	960
676.451	1013.86
676.646	1048.35
676.84	999.14
677.035	971.04
677.23	986.74
677.424	1035.95
677.619	1021.61
677.814	1063.27
678.008	1047.96
678.203	943.92
678.397	957.68
678.592	998.36
678.787	1066.76
678.981	1012.89
679.176	1033.43
679.37	1011.15
679.565	1020.84
679.759	994.29
679.954	1007.08
680.148	1069.08
680.342	1058.81
680.537	1026.07
680.731	1015.03
680.926	1021.03
681.12	1051.06
681.314	1001.66
681.509	1004.18
681.703	1004.95
681.897	993.13
682.092	1000.11
682.286	980.15
682.48	1073.73
682.674	1041.18
682.869	980.15
683.063	991.39
683.257	1051.64
683.451	996.62
683.645	1033.82
683.839	1000.11
684.034	992.94
684.228	1019.48
684.422	931.91
684.616	955.16
684.81	989.06
685.004	957.48
685.198	969.88
685.392	1002.04
685.586	949.35
685.78	948.57
685.974	979.76
686.168	962.71
686.362	1033.04
686.556	933.65
686.75	890.64
686.944	893.35
687.138	885.21
687.331	766.45
687.525	799.19
687.719	766.84
687.913	816.05
688.107	790.67
688.301	782.72
688.494	812.37
688.688	755.02
688.882	762.19
689.076	769.55
689.269	818.18
689.463	891.41
689.657	811.01
689.85	822.83
690.044	834.07
690.238	809.46
690.431	854.41
690.625	790.28
690.818	836.78
691.012	862.35
691.205	875.72
691.399	837.55
691.593	855.57
691.786	908.85
691.98	905.95
692.173	954.58
692.366	916.99
692.56	933.26
692.753	938.11
692.947	868.17
693.14	956.51
693.333	944.31
693.527	863.52
693.72	960.97
693.914	923.19
694.107	890.25
694.3	916.21
694.493	893.74
694.687	946.63
694.88	880.57
695.073	962.52
695.266	948.57
695.46	922.61
695.653	968.53
695.846	943.92
696.039	862.93
696.232	943.15
696.425	960.58
696.618	957.29
696.812	964.46
697.005	1076.83
697.198	1094.07
697.391	1026.26
697.584	1022
697.777	1108.02
697.97	1034.98
698.163	1050.48
698.356	1045.25
698.549	1129.92
698.742	1099.5
698.935	1049.32
699.127	1072.37
699.32	1059.01
699.513	1053.39
699.706	1076.83
699.899	1108.61
700.092	1082.84
700.285	1135.15
700.477	1044.28
700.67	1143.67
700.863	1143.09
701.056	1205.67
701.248	1152.2
701.441	1202.96
701.634	1133.02
701.826	1237.64
702.019	1121.97
702.212	1205.87
702.404	1123.33
702.597	1140.19
702.79	1189.79
702.982	1238.8
703.175	1258.57
703.367	1272.13
703.56	1250.82
703.752	1355.44
703.945	1292.67
704.137	1329.67
704.33	1343.62
704.522	1354.66
704.715	1327.73
704.907	1392.45
705.1	1405.81
705.292	1435.65
705.484	1393.61
705.677	1453.09
705.869	1451.54
706.061	1435.26
706.254	1520.32
706.446	1450.18
706.638	1497.84
706.831	1535.04
707.023	1472.46
707.215	1612.15
707.407	1590.65
707.599	1591.04
707.792	1618.74
707.984	1593.94
708.176	1620.29
708.368	1586
708.56	1660.01
708.752	1647.03
708.944	1606.34
709.136	1712.52
709.329	1648.19
709.521	1816.17
709.713	1700.89
709.905	1748.94
710.097	1823.73
710.289	1754.95
710.481	1797.18
710.672	1789.43
710.864	1813.07
711.056	1912.08
711.248	1890.18
711.44	1881.08
711.632	1895.22
711.824	1899.68
712.016	1997.32
712.207	1954.12
712.399	1944.43
712.591	2037.43
712.783	1967.68
712.975	2012.05
713.166	2010.31
713.358	1982.79
713.55	2088
713.741	2073.85
713.933	2064.75
714.125	2082.96
714.316	2058.35
714.508	2137.4
714.7	2178.48
714.891	2181.19
715.083	2216.65
715.274	2179.25
715.466	2224.01
715.657	2268.38
715.849	2099.82
716.04	2219.16
716.232	2122.87
716.423	2246.1
716.615	2176.54
716.806	2145.54
716.998	2119
717.189	2110.67
717.381	2001.2
717.572	1984.92
717.763	2017.47
717.955	1989.96
718.146	1990.54
718.337	1925.25
718.528	1904.33
718.72	1852.98
718.911	1915.76
719.102	1848.14
719.293	1935.91
719.485	1922.93
719.676	1932.42
719.867	1880.11
720.058	1927.58
720.249	1887.47
720.44	1934.36
720.632	1984.73
720.823	1998.87
721.014	2115.32
721.205	2129.85
721.396	2187.2
721.587	2314.49
721.778	2320.88
721.969	2342.78
722.16	2388.31
722.351	2427.64
722.542	2599.88
722.733	2589.03
722.924	2478.2
723.115	2614.02
723.305	2566.17
723.496	2587.87
723.687	2468.71
723.878	2458.25
724.069	2491.38
724.26	2498.35
724.45	2436.36
724.641	2415.82
724.832	2455.92
725.023	2463.67
725.213	2452.24
725.404	2440.81
725.595	2463.09
725.785	2439.84
725.976	2527.42
726.167	2492.35
726.357	2524.51
726.548	2649.28
726.739	2515.99
726.929	2597.55
727.12	2673.31
727.31	2680.67
727.501	2657.61
727.691	2645.99
727.882	2715.35
728.072	2720.19
728.263	2687.84
728.453	2767.47
728.644	2799.24
728.834	2761.85
729.024	2744.61
729.215	2720.19
729.405	2767.66
729.596	2819.59
729.786	2860.86
729.976	2859.89
730.167	2882.56
730.357	2899.6
730.547	2906.58
730.737	2936.03
730.928	2960.25
731.118	3034.84
731.308	2946.69
731.498	2957.92
731.688	3035.81
731.879	3098.78
732.069	3090.25
732.259	3163.49
732.449	3146.25
732.639	3267.34
732.829	3262.49
733.019	3291.94
733.209	3385.33
733.399	3348.52
733.589	3419.82
733.779	3438.22
733.969	3436.87
734.159	3563.19
734.349	3543.62
734.539	3603.49
734.729	3583.15
734.919	3630.23
735.109	3744.34
735.299	3550.4
735.488	3639.33
735.678	3670.91
735.868	3661.42
736.058	3654.44
736.248	3669.17
736.437	3656.77
736.627	3616.08
736.817	3764.69
737.007	3719.93
737.196	3771.27
737.386	3754.81
737.576	3707.34
737.765	3788.32
737.955	3706.37
738.144	3894.88
738.334	3829.4
738.524	3730.2
738.713	3827.85
738.903	3799.37
739.092	3844.32
739.282	3853.62
739.471	3862.53
739.661	3851.68
739.85	3888.88
740.04	3898.57
740.229	3920.07
740.419	3934.22
740.608	3957.66
740.797	3961.15
740.987	4024.89
741.176	3946.03
741.365	3937.7
741.555	3911.74
741.744	4015.59
741.933	3945.26
742.123	4021.98
742.312	4018.5
742.501	4098.71
742.69	4012.49
742.88	3960.37
743.069	4120.21
743.258	4066.74
743.447	4117.11
743.636	4086.69
743.825	4061.89
744.014	4114.59
744.204	4155.28
744.393	4069.06
744.582	4135.52
744.771	4188.02
744.96	4104.52
745.149	4157.99
745.338	4124.67
745.527	4160.12
745.716	4145.59
745.905	4142.69
746.094	4172.91
746.283	4211.27
746.471	4133
746.66	4281.99
746.849	4180.66
747.038	4255.25
747.227	4210.5
747.416	4219.99
747.604	4189.19
747.793	4212.82
747.982	4197.32
748.171	4219.41
748.359	4219.22
748.548	4210.5
748.737	4194.81
748.926	4222.9
749.114	4092.7
749.303	4210.69
749.491	4163.61
749.68	4121.76
749.869	4236.27
750.057	4211.27
750.246	4154.12
750.434	4228.71
750.623	4168.84
750.811	4145.4
751	4208.37
751.188	4131.84
751.377	4137.65
751.565	4138.81
751.754	4118.66
751.942	4082.04
752.131	4186.47
752.319	4058.02
752.507	4121.76
752.696	4141.33
752.884	4158.96
753.072	4165.16
753.261	4119.24
753.449	4117.69
753.637	4069.64
753.825	4200.23
754.014	4124.67
754.202	4145.21
754.39	4177.17
754.578	4226
754.766	4147.72
754.955	4104.33
755.143	4179.11
755.331	4141.52
755.519	4137.84
755.707	4120.99
755.895	4089.02
756.083	4113.24
756.271	4042.13
756.459	4076.04
756.647	4103.55
756.835	4026.44
757.023	4073.33
757.211	4055.31
757.399	4022.37
757.587	4028.38
757.775	4005.13
757.963	4041.74
758.151	4011.52
758.339	3996.02
758.526	3970.25
758.714	4001.64
758.902	3909.03
759.09	3856.52
759.278	3687.96
759.465	3481.82
759.653	3098.39
759.841	2839.74
760.028	2526.45
760.216	2226.53
760.404	2072.69
760.591	1779.75
760.779	1563.33
760.967	1412.01
761.154	1214.59
761.342	1269.03
761.529	1291.5
761.717	1336.26
761.905	1367.84
762.092	1498.62
762.28	1450.38
762.467	1510.82
762.655	1420.15
762.842	1478.28
763.029	1480.6
763.217	1520.9
763.404	1538.72
763.592	1603.44
763.779	1515.86
763.966	1579.22
764.154	1658.85
764.341	1691.2
764.528	1718.91
764.716	1774.13
764.903	1824.7
765.09	1881.85
765.277	1944.43
765.465	2085.48
765.652	2177.9
765.839	2230.6
766.026	2333.28
766.213	2422.6
766.4	2485.37
766.588	2673.89
766.775	2713.61
766.962	2795.56
767.149	2864.92
767.336	2955.21
767.523	2961.41
767.71	3103.62
767.897	3205.14
768.084	3245.64
768.271	3276.44
768.458	3351.42
768.645	3404.12
768.832	3340.19
769.019	3397.54
769.206	3413.81
769.392	3499.06
769.579	3622.09
769.766	3538.39
769.953	3545.56
770.14	3592.44
770.327	3527.73
770.513	3614.92
770.7	3682.92
770.887	3560.48
771.073	3640.88
771.26	3623.64
771.447	3545.95
771.634	3561.64
771.82	3703.46
772.007	3513.59
772.193	3638.56
772.38	3629.06
772.567	3578.11
772.753	3599.61
772.94	3671.49
773.126	3619.38
773.313	3617.05
773.499	3625.96
773.686	3614.92
773.872	3597.48
774.059	3632.16
774.245	3576.17
774.432	3556.02
774.618	3491.89
774.804	3540.52
774.991	3478.52
775.177	3572.88
775.363	3504.68
775.55	3547.11
775.736	3463.8
775.922	3556.99
776.109	3498.28
776.295	3511.46
776.481	3533.74
776.667	3569.58
776.853	3513.4
777.04	3477.36
777.226	3456.43
777.412	3563.19
777.598	3417.68
777.784	3491.7
777.97	3411.87
778.156	3482.98
778.342	3398.12
778.528	3430.67
778.715	3381.07
778.901	3402.77
779.087	3389.59
779.272	3365.18
779.458	3376.22
779.644	3345.8
779.83	3356.07
780.016	3486.85
780.202	3379.52
780.388	3293.88
780.574	3239.24
780.76	3337.67
780.946	3345.03
781.131	3309.96
781.317	3365.95
781.503	3263.85
781.689	3315.58
781.874	3403.93
782.06	3311.12
782.246	3311.51
782.432	3281.29
782.617	3339.8
782.803	3353.17
782.989	3251.64
783.174	3198.17
783.36	3229.94
783.545	3230.53
783.731	3267.53
783.916	3131.33
784.102	3214.25
784.288	3175.31
784.473	3244.09
784.659	3134.62
784.844	3240.41
785.029	3162.52
785.215	3117.38
785.4	3098.2
785.586	3261.14
785.771	3135.98
785.956	3155.93
786.142	3167.17
786.327	3142.18
786.512	3109.63
786.698	3078.05
786.883	3057.32
787.068	3067
787.254	3061.58
787.439	3050.92
787.624	3064.68
787.809	3090.06
787.994	3043.37
788.18	3108.66
788.365	2983.11
788.55	3031.55
788.735	3047.24
788.92	3029.22
789.105	3027.87
789.29	3007.33
789.475	2952.11
789.66	2976.33
789.845	2952.89
790.03	2940.49
790.215	2998.42
790.4	2973.04
790.585	3007.72
790.77	2932.74
790.955	2917.24
791.14	2943.97
791.325	2987.57
791.51	2834.89
791.695	2894.37
791.879	2855.04
792.064	2841.87
792.249	2942.23
792.434	2908.71
792.618	2901.54
792.803	2943
792.988	2907.94
793.173	2909.29
793.357	2978.07
793.542	2866.47
793.727	2880.81
793.911	2925.18
794.096	2899.41
794.281	2953.66
794.465	2988.15
794.65	2901.93
794.834	2958.5
795.019	2979.62
795.203	2969.35
795.388	2963.15
795.572	3016.63
795.757	2974.97
795.941	2950.56
796.126	2987.76
796.31	2890.69
796.494	2926.73
796.679	2899.41
796.863	2895.54
797.048	2983.88
797.232	2957.15
797.416	2950.37
797.601	2970.71
797.785	3043.37
797.969	3003.45
798.153	2955.21
798.338	3004.42
798.522	3017.4
798.706	3038.72
798.89	2999.58
799.074	3140.43
799.258	3073.4
799.443	2980.78
799.627	3041.82
799.811	3022.83
799.995	2993.77
800.179	2936.42
800.363	2972.45
800.547	2972.45
800.731	3052.86
800.915	2925.57
801.099	2962.77
801.283	2954.82
801.467	2982.53
801.651	2947.07
801.835	3026.32
802.019	2999.38
802.202	2980.4
802.386	2929.83
802.57	2930.41
802.754	2945.33
802.938	2916.65
803.121	2940.29
803.305	3010.82
803.489	2961.6
803.673	2987.95
803.856	2973.62
804.04	2928.67
804.224	3006.75
804.407	2930.41
804.591	2943.59
804.775	2968.19
804.958	2980.01
805.142	3088.9
805.326	2945.14
805.509	2968.77
805.693	2979.82
805.876	2960.05
806.06	2976.33
806.243	2978.07
806.427	2999
806.61	3011.01
806.794	2918.59
806.977	2986.21
807.16	2987.18
807.344	2940.87
807.527	2922.27
807.71	2923.05
807.894	2936.61
808.077	2997.45
808.26	2889.53
808.444	2910.45
808.627	2982.92
808.81	2871.71
808.993	2847.87
809.177	2859.11
809.36	2857.76
809.543	2890.89
809.726	2784.91
809.909	2837.61
810.092	2812.81
810.276	2815.52
810.459	2807.77
810.642	2756.62
810.825	2768.63
811.008	2760.69
811.191	2645.02
811.374	2716.71
811.557	2675.05
811.74	2773.28
811.923	2675.44
812.106	2631.65
812.289	2609.37
812.472	2612.47
812.654	2619.06
812.837	2599.49
813.02	2569.07
813.203	2519.09
813.386	2428.99
813.569	2408.07
813.751	2310.61
813.934	2397.22
814.117	2324.95
814.3	2303.44
814.482	2284.07
814.665	2199.21
814.848	2202.31
815.03	2186.62
815.213	2163.17
815.396	2109.31
815.578	2110.08
815.761	2077.54
815.943	2188.55
816.126	2050.41
816.309	2013.99
816.491	1985.89
816.674	1844.46
816.856	1980.86
817.039	1937.65
817.221	2037.62
817.403	1962.84
817.586	1951.41
817.768	1961.67
817.951	1908.2
818.133	1882.04
818.315	1911.49
818.498	1959.35
818.68	2014.57
818.862	1945.4
819.045	2025.8
819.227	2002.36
819.409	1984.15
819.591	1988.99
819.774	1957.02
819.956	1920.41
820.138	1991.9
820.32	1962.06
820.502	2024.06
820.684	2103.3
820.866	2080.05
821.048	2181.97
821.231	2158.72
821.413	2156.39
821.595	2114.15
821.777	2116.67
821.959	2110.47
822.141	2204.63
822.323	2076.18
822.505	2022.51
822.686	1968.65
822.868	1894.83
823.05	1814.23
823.232	1763.08
823.414	1681.52
823.596	1800.86
823.778	1731.12
823.96	1794.86
824.141	1765.8
824.323	1798.54
824.505	1856.47
824.687	1904.91
824.868	1988.61
825.05	2040.92
825.232	2059.32
825.413	2180.22
825.595	2094.2
825.777	2048.67
825.958	2112.6
826.14	2069.59
826.321	2104.85
826.503	2027.16
826.685	2065.52
826.866	2126.36
827.048	2122.68
827.229	2056.03
827.411	2007.59
827.592	1994.42
827.773	1957.22
827.955	1939.39
828.136	1918.47
828.318	1912.85
828.499	1941.91
828.68	1865.19
828.862	1896.77
829.043	1925.64
829.224	1881.27
829.406	1862.28
829.587	1849.88
829.768	1894.44
829.949	1882.43
830.131	1890.96
830.312	1926.41
830.493	1858.79
830.674	1911.11
830.855	1837.87
831.036	1844.46
831.218	1923.51
831.399	1935.52
831.58	1875.65
831.761	1903.55
831.942	1901.23
832.123	1867.51
832.304	1846.78
832.485	1801.45
832.666	1860.34
832.847	1895.61
833.028	1858.6
833.209	1875.84
833.389	1837.68
833.57	1787.5
833.751	1789.24
833.932	1909.75
834.113	1877.2
834.294	1829.73
834.475	1890.76
834.655	1903.16
834.836	1921.96
835.017	1867.13
835.198	1840.39
835.378	1910.53
835.559	1913.82
835.74	1852.21
835.92	1878.17
836.101	1848.14
836.281	1927.77
836.462	1891.34
836.643	1931.64
836.823	1919.05
837.004	1909.94
837.184	1962.45
837.365	1921.57
837.545	1942.88
837.726	1877.39
837.906	1965.94
838.087	1906.46
838.267	1909.94
838.448	1859.38
838.628	1872.16
838.808	1921.76
838.989	1938.81
839.169	1865.96
839.349	1927.38
839.53	1938.23
839.71	1924.67
839.89	1851.82
840.07	1948.69
840.251	1856.66
840.431	1886.89
840.611	1916.92
840.791	1863.44
840.971	1881.46
841.151	1887.08
841.332	1877.01
841.512	1909.75
841.692	1808.81
841.872	1874.68
842.052	1884.18
842.232	1880.69
842.412	1821.79
842.592	1858.79
842.772	1865.77
842.952	1876.43
843.132	1816.36
843.312	1836.71
843.492	1820.43
843.672	1861.89
843.851	1817.91
844.031	1812.1
844.211	1808.03
844.391	1792.92
844.571	1833.41
844.751	1850.66
844.93	1832.25
845.11	1769.86
845.29	1817.91
845.47	1847.36
845.649	1829.93
845.829	1848.14
846.009	1755.14
846.188	1830.12
846.368	1818.5
846.547	1818.88
846.727	1836.32
846.907	1752.43
847.086	1813.85
847.266	1820.24
847.445	1803.38
847.625	1776.26
847.804	1760.37
847.984	1751.46
848.163	1711.74
848.343	1758.82
848.522	1768.7
848.701	1766.38
848.881	1737.51
849.06	1760.18
849.239	1737.12
849.419	1748.94
849.598	1690.04
849.777	1636.18
849.957	1676.48
850.136	1623.97
850.315	1594.52
850.494	1608.09
850.674	1578.83
850.853	1660.79
851.032	1623.39
851.211	1672.8
851.39	1635.6
851.569	1598.98
851.748	1596.07
851.927	1689.65
852.107	1619.32
852.286	1576.89
852.465	1583.29
852.644	1670.67
852.823	1633.85
853.002	1635.02
853.181	1618.55
853.359	1607.7
853.538	1553.26
853.717	1643.35
853.896	1536.59
854.075	1447.66
854.254	1451.93
854.433	1369
854.611	1408.53
854.79	1356.02
854.969	1433.33
855.148	1441.08
855.327	1414.14
855.505	1471.11
855.684	1448.63
855.863	1490.68
856.041	1437.2
856.22	1488.35
856.399	1464.71
856.577	1574.76
856.756	1563.72
856.934	1670.08
857.113	1689.46
857.291	1558.87
857.47	1487.38
857.648	1569.53
857.827	1566.62
858.005	1584.45
858.184	1522.64
858.362	1620.49
858.541	1546.67
858.719	1525.94
858.898	1531.94
859.076	1540.08
859.254	1606.73
859.433	1542.6
859.611	1488.35
859.789	1496.1
859.967	1564.3
860.146	1565.85
860.324	1475.37
860.502	1499.01
860.68	1456.19
860.859	1497.07
861.037	1461.03
861.215	1531.75
861.393	1512.76
861.571	1525.55
861.749	1464.13
861.927	1511.99
862.105	1521.09
862.283	1465.29
862.461	1465.88
862.639	1439.53
862.817	1424.03
862.995	1449.79
863.173	1465.88
863.351	1474.01
863.529	1456.58
863.707	1495.32
863.885	1452.12
864.063	1375.01
864.241	1416.28
864.418	1480.99
864.596	1430.81
864.774	1380.05
864.952	1391.28
865.129	1439.72
865.307	1407.36
865.485	1367.06
865.663	1406.2
865.84	1324.63
866.018	1370.94
866.196	1234.35
866.373	1235.12
866.551	1227.57
866.728	1181.84
866.906	1220.2
867.084	1220.4
867.261	1311.46
867.439	1280.27
867.616	1337.42
867.794	1317.08
867.971	1267.87
868.149	1318.43
868.326	1353.5
868.503	1348.27
868.681	1333.35
868.858	1291.89
869.035	1277.75
869.213	1348.46
869.39	1313.98
869.567	1400.39
869.745	1312.04
869.922	1309.52
870.099	1319.4
870.276	1351.76
870.454	1370.36
870.631	1348.46
870.808	1293.44
870.985	1357.38
871.162	1383.73
871.339	1344.01
871.517	1313.4
871.694	1284.53
871.871	1290.92
872.048	1295.96
872.225	1279.68
872.402	1285.3
872.579	1240.35
872.756	1310.3
872.933	1218.46
873.11	1231.63
873.287	1299.45
873.463	1253.53
873.64	1230.86
873.817	1277.17
873.994	1217.3
874.171	1231.05
874.348	1259.92
874.524	1178.55
874.701	1206.64
874.878	1190.37
875.055	1237.45
875.231	1219.43
875.408	1227.57
875.585	1139.02
875.762	1208
875.938	1190.17
876.115	1214
876.291	1189.59
876.468	1188.04
876.645	1163.44
876.821	1196.95
876.998	1149.29
877.174	1213.04
877.351	1185.33
877.527	1181.26
877.704	1146.97
877.88	1178.74
878.057	1121.01
878.233	1192.3
878.409	1147.55
878.586	1183.2
878.762	1154.33
878.938	1174.29
879.115	1090.2
879.291	1175.84
879.467	1098.34
879.644	1146.58
879.82	1163.24
879.996	1108.61
880.172	1084.97
880.349	1135.73
880.525	1130.31
880.701	1064.24
880.877	1099.5
881.053	1122.75
881.229	1096.01
881.405	1147.35
881.581	1058.23
881.757	1097.17
881.933	1129.14
882.109	1155.3
882.285	1126.82
882.461	1074.89
882.637	1113.84
882.813	1075.47
882.989	1101.44
883.165	1162.08
883.341	1058.81
883.517	1120.23
883.693	1081.09
883.869	1139.99
884.044	1089.81
884.22	1095.62
884.396	1144.84
884.572	1123.33
884.747	1130.31
884.923	1119.46
885.099	1114.61
885.275	1150.84
885.45	1061.72
885.626	1070.05
885.801	1070.82
885.977	1100.47
886.153	1032.27
886.328	1092.52
886.504	1066.17
886.679	1102.02
886.855	1067.14
887.03	1107.06
887.206	1103.37
887.381	1141.54
887.557	1100.27
887.732	1112.09
887.908	1132.24
888.083	1108.99
888.258	1077.99
888.434	1072.18
888.609	1084.58
888.784	1116.36
888.96	1096.59
889.135	1124.69
889.31	1060.75
889.485	1107.64
889.661	1060.94
889.836	1140.96
890.011	1109.77
890.186	1082.45
890.361	1050.87
890.537	1086.71
890.712	1113.26
890.887	1095.43
891.062	1058.23
891.237	1142.9
891.412	1056.68
891.587	1096.59
891.762	1128.95
891.937	1146.97
892.112	1039.44
892.287	1070.82
892.462	1030.53
892.637	1009.99
892.812	995.26
892.987	1011.73
893.161	1022.58
893.336	1020.64
893.511	1010.18
893.686	1054.55
893.861	1009.41
894.035	1017.16
894.21	1019.48
894.385	955.55
894.56	1007.08
894.734	955.35
894.909	933.85
895.084	969.88
895.258	941.79
895.433	957.29
895.608	922.41
895.782	860.42
895.957	876.88
896.131	886.38
896.306	843.95
896.48	826.32
896.655	820.89
896.829	785.44
897.004	784.27
897.178	821.47
897.353	766.25
897.527	843.56
897.701	806.55
897.876	755.4
898.05	833.48
898.224	825.93
898.399	849.18
898.573	811.01
898.747	711.23
898.921	742.23
899.096	635.28
899.27	647.87
899.444	678.87
899.618	684.49
899.792	683.14
899.967	719.75
900.141	752.11
900.315	663.76
900.489	723.63
900.663	736.42
900.837	687.4
901.011	627.72
901.185	781.95
901.359	705.81
901.533	739.71
901.707	686.04
901.881	723.63
902.055	646.91
902.229	699.22
902.403	746.49
902.576	704.26
902.75	682.56
902.924	788.54
903.098	769.16
903.272	786.21
903.446	829.8
903.619	810.43
903.793	833.1
903.967	789.31
904.14	874.75
904.314	836.39
904.488	859.83
904.661	857.7
904.835	844.72
905.009	867.97
905.182	910.21
905.356	844.92
905.529	893.93
905.703	820.12
905.876	824.18
906.05	772.45
906.223	763.15
906.397	707.74
906.57	722.08
906.744	653.69
906.917	694.76
907.09	703.29
907.264	707.16
907.437	638.19
907.61	620.56
907.784	681.2
907.957	673.26
908.13	643.61
908.304	648.07
908.477	622.88
908.65	641.29
908.823	599.24
908.996	695.15
909.17	599.83
909.343	612.03
909.516	642.06
909.689	625.79
909.862	602.54
910.035	619.01
910.208	599.83
910.381	582.19
910.554	664.15
910.727	583.94
910.9	588.2
911.073	589.56
911.246	651.56
911.419	664.92
911.592	662.79
911.765	594.79
911.938	602.15
912.11	605.25
912.283	616.29
912.456	646.52
912.629	613.58
912.802	592.46
912.974	534.14
913.147	532.59
913.32	459.75
913.493	514.38
913.665	520.39
913.838	551.78
914.01	531.05
914.183	517.29
914.356	547.51
914.528	589.56
914.701	642.45
914.873	605.25
915.046	542.86
915.218	486.1
915.391	446.96
915.563	449.09
915.736	506.25
915.908	550.23
916.081	561.08
916.253	524.65
916.425	549.06
916.598	537.05
916.77	530.27
916.942	489.97
917.115	459.94
917.287	546.93
917.459	501.79
917.632	475.44
917.804	408.98
917.976	500.82
918.148	521.36
918.32	498.5
918.493	554.29
918.665	564.76
918.837	551.39
919.009	602.54
919.181	563.4
919.353	579.09
919.525	560.88
919.697	526.2
919.869	509.73
920.041	565.73
920.213	672.09
920.385	572.89
920.557	537.44
920.729	563.4
920.901	541.51
921.073	556.62
921.244	549.84
921.416	558.94
921.588	541.12
921.76	528.53
921.932	584.71
922.103	524.85
922.275	556.62
922.447	550.42
922.619	498.3
922.79	536.66
922.962	520.39
923.134	558.36
923.305	485.13
923.477	460.52
923.648	465.17
923.82	499.08
923.991	440.95
924.163	427.2
924.335	483.38
924.506	456.06
924.677	530.66
924.849	421.19
925.02	491.52
925.192	514.77
925.363	466.33
925.535	478.73
925.706	440.57
925.877	510.12
926.049	464.59
926.22	486.29
926.391	479.7
926.562	515.74
926.734	447.15
926.905	477.57
927.076	431.46
927.247	446.76
927.419	421.97
927.59	408.6
927.761	384.38
927.932	376.82
928.103	413.83
928.274	347.76
928.445	314.82
928.616	366.94
928.787	367.33
928.958	421
929.129	403.75
929.3	334.59
929.471	292.93
929.642	288.86
929.813	194.89
929.984	310.17
930.155	247.59
930.326	290.41
930.496	256.7
930.667	185.98
930.838	247.98
931.009	205.94
931.18	236.36
931.35	202.06
931.521	219.5
931.692	158.47
931.863	115.46
932.033	162.34
932.204	166.41
932.374	172.23
932.545	122.82
932.716	191.6
932.886	173.39
933.057	69.73
933.227	132.89
933.398	182.49
933.568	113.91
933.739	88.33
933.909	79.42
934.08	126.31
934.25	20.33
934.421	34.28
934.591	93.76
934.761	83.49
934.932	50.16
935.102	98.79
935.272	65.66
935.443	112.55
935.613	88.33
935.783	86.78
935.953	42.22
936.123	223.18
936.294	49.78
936.464	58.3
936.634	106.35
936.804	22.65
936.974	7.73
937.144	107.32
937.314	80
937.484	57.14
937.655	47.06
937.825	100.54
937.995	39.9
938.165	127.08
938.334	56.36
938.504	90.08
938.674	70.31
938.844	109.06
939.014	141.61
939.184	140.45
939.354	182.69
939.524	171.64
939.694	125.14
939.863	102.48
940.033	220.08
940.203	191.79
940.373	152.66
940.542	184.62
940.712	122.82
940.882	171.64
941.051	179.59
941.221	163.51
941.391	188.31
941.56	113.71
941.73	123.59
941.899	258.83
942.069	124.18
942.238	171.64
942.408	114.68
942.577	156.73
942.747	116.81
942.916	83.1
943.086	87.75
943.255	182.11
943.425	125.53
943.594	88.91
943.763	55.59
943.933	68.76
944.102	30.6
944.271	83.68
944.441	119.14
944.61	74.19
944.779	101.31
944.948	178.81
945.117	82.33
945.287	98.21
945.456	44.35
945.625	77.29
945.794	108.68
945.963	68.76
946.132	117.98
946.301	78.06
946.47	114.68
946.639	18.2
946.808	69.93
946.977	101.51
947.146	137.16
947.315	92.01
947.484	114.29
947.653	109.64
947.822	84.85
947.991	62.76
948.16	186.17
948.329	146.07
948.498	105.77
948.666	115.65
948.835	112.16
949.004	48.61
949.173	67.99
949.341	68.76
949.51	134.25
949.679	142
949.847	128.05
950.016	183.85
950.185	176.29
950.353	94.53
950.522	90.85
950.69	171.45
950.859	113.33
951.028	131.93
951.196	126.89
951.365	71.48
951.533	82.91
951.701	140.06
951.87	123.21
952.038	51.33
952.207	99.38
952.375	169.9
952.543	100.34
952.712	103.83
952.88	87.36
953.048	152.46
953.217	102.86
953.385	92.01
953.553	158.28
953.721	51.33
953.89	100.73
954.058	31.76
954.226	49
954.394	92.6
954.562	60.43
954.73	116.43
954.898	67.21
955.067	145.88
955.235	58.88
955.403	128.44
955.571	160.41
955.739	132.51
955.907	74.19
956.075	69.73
956.243	70.51
956.41	126.31
956.578	29.24
956.746	48.81
956.914	83.3
957.082	135.03
957.25	130.38
957.418	59.85
957.585	84.85
957.753	168.93
957.921	73.8
958.089	82.71
958.256	125.34
958.424	105.96
958.592	95.31
958.759	77.48
958.927	84.46
959.095	86.98
959.262	86.4
959.43	98.21
959.597	36.99
959.765	102.48
959.932	59.46
960.1	144.13
960.267	77.48
960.435	98.99
960.602	139.68
960.77	85.43
960.937	36.02
961.104	99.18
961.272	67.41
961.439	78.26
961.606	87.75
961.774	139.87
961.941	79.03
962.108	104.03
962.275	103.44
962.443	144.52
962.61	91.05
962.777	176.68
962.944	142
963.111	124.37
963.278	141.23
963.446	88.72
963.613	105.58
963.78	125.92
963.947	122.04
964.114	102.86
964.281	185.98
964.448	144.91
964.615	83.68
964.782	104.99
964.949	144.13
965.116	128.83
965.282	164.28
965.449	106.35
965.616	81.16
965.783	123.79
965.95	125.34
966.117	63.73
966.283	125.53
966.45	95.89
966.617	112.36
966.784	152.08
966.95	131.73
967.117	149.56
967.284	67.02
967.45	84.85
967.617	164.48
967.784	147.43
967.95	179.98
968.117	102.48
968.283	169.71
968.45	233.84
968.616	184.62
968.783	134.44
968.949	133.09
969.116	164.28
969.282	145.49
969.449	154.98
969.615	154.4
969.781	94.73
969.948	139.48
970.114	49.39
970.28	173.97
970.447	117.39
970.613	165.06
970.779	107.13
970.945	146.46
971.112	123.01
971.278	124.76
971.444	123.98
971.61	142.19
971.776	86.2
971.942	167.77
972.108	154.79
972.275	117.2
972.441	129.6
972.607	199.74
972.773	106.16
972.939	149.94
973.105	98.02
973.271	78.26
973.437	129.6
973.602	90.46
973.768	145.88
973.934	111.58
974.1	133.86
974.266	27.11
974.432	151.49
974.598	80.78
974.763	120.11
974.929	92.21
975.095	182.3
975.261	91.82
975.426	75.16
975.592	126.5
975.758	182.11
975.923	55.59
976.089	70.51
976.255	142.78
976.42	136.77
976.586	127.47
976.751	123.59
976.917	167.96
977.082	130.57
977.248	88.33
977.413	27.11
977.579	100.34
977.744	109.45
977.91	61.21
978.075	74.19
978.24	162.15
978.406	121.46
978.571	87.36
978.736	73.03
978.902	114.1
979.067	61.79
979.232	59.46
979.397	113.33
979.563	140.64
979.728	48.81
979.893	87.17
980.058	103.06
980.223	150.91
980.388	119.33
980.554	126.31
980.719	93.18
980.884	116.81
981.049	129.41
981.214	107.13
981.379	118.94
981.544	95.11
981.709	97.24
981.874	73.41
982.039	104.99
982.204	139.29
982.368	104.41
982.533	77.29
982.698	116.81
982.863	142.78
983.028	98.21
983.193	111.97
983.357	118.94
983.522	98.79
983.687	100.15
983.852	89.88
984.016	98.21
984.181	95.11
984.346	129.99
984.51	127.47
984.675	92.01
984.839	101.31
985.004	122.04
985.168	142.58
985.333	96.08
985.498	86.01
985.662	99.18
985.827	135.22
985.991	105.19
986.155	82.91
986.32	146.65
986.484	140.84
986.649	126.89
986.813	44.55
986.977	89.11
987.142	124.37
987.306	74
987.47	81.94
987.634	92.6
987.799	113.33
987.963	98.02
988.127	114.29
988.291	174.55
988.455	119.91
988.62	102.48
988.784	106.16
988.948	142.58
989.112	77.68
989.276	98.21
989.44	86.98
989.604	57.72
989.768	95.89
989.932	148.01
990.096	49
990.26	31.76
990.424	41.06
990.588	75.55
990.752	120.88
990.915	138.51
991.079	47.26
991.243	63.34
991.407	122.82
991.571	82.52
991.734	117.59
991.898	88.14
992.062	145.29
992.226	88.72
992.389	65.86
992.553	48.42
992.717	69.15
992.88	67.41
993.044	89.11
993.207	96.47
993.371	109.45
993.535	95.69
993.698	79.03
993.862	101.89
994.025	117.98
994.189	76.71
994.352	83.88
994.515	79.42
994.679	99.38
994.842	77.87
995.006	89.88
995.169	43.19
995.332	66.44
995.496	102.28
995.659	25.75
995.822	67.41
995.985	73.22
996.149	112.94
996.312	60.43
996.475	150.53
996.638	91.63
996.801	132.89
996.964	169.32
997.128	51.71
997.291	74.96
997.454	79.81
997.617	18.2
997.78	119.53
997.943	51.13
998.106	118.56
998.269	44.93
998.432	74.38
998.595	67.21
998.758	12.19
998.92	25.56
999.083	16.84
999.246	69.15
999.409	11.22
999.572	18.78
999.735	40.48
999.897	86.59
1000.06	73.22
1000.223	80.39
1000.386	89.69
1000.548	85.23
1000.711	63.34
1000.874	83.68
1001.036	-2.53
1001.199	115.84
1001.361	47.45
1001.524	61.01
1001.687	100.54
1001.849	48.81
1002.012	83.88
1002.174	57.33
1002.337	85.23
1002.499	66.83
1002.661	117.59
1002.824	28.46
1002.986	36.99
1003.149	61.79
1003.311	16.45
1003.473	127.47
1003.636	36.8
1003.798	63.34
1003.96	71.09
1004.123	62.18
1004.285	34.28
1004.447	59.27
1004.609	50.75
1004.771	114.29
1004.933	-0.79
1005.096	38.93
1005.258	27.11
1005.42	35.25
1005.582	83.88
1005.744	67.41
1005.906	14.51
1006.068	85.43
1006.23	7.73
1006.392	-3.12
1006.554	14.51
1006.716	91.63
1006.878	61.79
1007.04	20.52
1007.202	17.42
1007.363	46.29
1007.525	53.07
1007.687	90.66
1007.849	84.26
1008.011	0.37
1008.172	11.61
1008.334	44.16
1008.496	74.19
1008.658	15.87
1008.819	14.51
1008.981	-4.86
1009.143	36.6
1009.304	37.76
1009.466	63.15
1009.627	103.64
1009.789	173.78
1009.95	49.2
1010.112	30.4
1010.273	69.73
1010.435	31.76
1010.596	31.37
1010.758	19.75
1010.919	32.73
1011.081	-5.25
1011.242	46.29
1011.403	64.89
1011.565	28.46
1011.726	80.39
1011.887	11.22
1012.049	50.75
1012.21	69.54
1012.371	94.15
1012.532	-42.06
1012.693	52.68
1012.855	28.08
1013.016	40.28
1013.177	57.91
1013.338	26.53
1013.499	91.24
1013.66	73.03
1013.821	56.95
1013.982	26.91
1014.143	29.05
1014.304	4.44
1014.465	42.22
1014.626	67.41
1014.787	24.4
1014.948	129.21
1015.109	-18.42
1015.27	69.15
1015.431	18.2
1015.592	28.27
1015.752	72.25
1015.913	40.09
1016.074	33.31
1016.235	27.5
1016.395	36.8
1016.556	15.1
1016.717	16.65
1016.877	64.5
1017.038	20.91
1017.199	40.86
1017.359	37.57
1017.52	52.49
1017.681	29.05
1017.841	18.2
1018.002	47.65
1018.162	15.68
1018.323	67.41
1018.483	22.07
1018.644	13.16
1018.804	5.41
1018.964	-6.99
1019.125	25.95
1019.285	32.73
1019.446	30.21
1019.606	-39.73
1019.766	-39.93
1019.926	50.75
1020.087	24.2
1020.247	-19.58
1020.407	36.8
1020.567	74.58
1020.728	30.6
1020.888	-4.67
1021.048	-8.93
1021.208	-13.19
1021.368	0.95
1021.528	79.03
1021.688	50.36
1021.848	35.44
1022.008	16.45
1022.168	9.28
1022.328	30.4
1022.488	-3.7
1022.648	23.43
1022.808	12.77
1022.968	31.95
1023.128	6.57
1023.288	29.43
1023.448	0.95
1023.608	44.35
1023.767	49.58
1023.927	-19.97
1024.087	7.93
1024.247	-31.02
1024.406	14.9
1024.566	-39.15
1024.726	-12.22
1024.885	16.65
1025.045	50.16
1025.205	12.19
1025.364	-10.28
1025.524	20.13
1025.683	-3.31
1025.843	42.8
1026.003	22.65
1026.162	82.13
1026.321	49.2
1026.481	34.66
1026.64	16.26
1026.8	33.5
1026.959	49.39
1027.119	16.26
1027.278	11.03
1027.437	-5.25
1027.597	12.96
1027.756	40.48
1027.915	58.3
1028.074	44.16
1028.234	-9.32
1028.393	31.76
1028.552	23.62
1028.711	-65.7
1028.87	44.16
1029.03	-29.08
1029.189	17.23
1029.348	-22.68
1029.507	-0.79
1029.666	48.03
1029.825	-8.15
1029.984	2.89
1030.143	22.65
1030.302	0.37
1030.461	-47.87
1030.62	13.35
1030.779	41.25
1030.938	-5.25
1031.097	-12.8
1031.255	45.9
1031.414	70.31
1031.573	80.97
1031.732	-43.42
1031.891	-17.84
1032.049	56.75
1032.208	27.11
1032.367	-12.22
1032.525	1.73
1032.684	-5.63
1032.843	20.13
1033.001	-29.66
1033.16	154.98
1033.319	65.86
1033.477	37.18
1033.636	-3.89
1033.794	-25.01
1033.953	55.2
1034.111	50.55
1034.27	-48.45
1034.428	53.65
1034.587	-27.53
1034.745	44.74
1034.903	16.06
1035.062	58.3
1035.22	-46.13
1035.378	44.93
1035.537	-13.58
1035.695	53.65
1035.853	5.02
1036.011	53.26
1036.17	1.15
1036.328	-79.07
1036.486	11.03
1036.644	17.42
1036.802	-61.05
1036.96	-9.7
1037.119	19.16
1037.277	-10.87
1037.435	-38.77
1037.593	-50.39
1037.751	-2.73
1037.909	36.6
1038.067	36.6
