Data from gum_old_FLMT105791__19__15-42-41-259.txt Node

Date: Mon Mar 20 15:42:41 GMT 2023
User: antho
Spectrometer: FLMT10579
Trigger mode: 0
Integration Time (sec): 1.000000E-1
Scans to average: 10
Electric dark correction enabled: true
Nonlinearity correction enabled: false
Boxcar width: 0
XAxis mode: Wavelengths
Number of Pixels in Spectrum: 3648
>>>>>Begin Spectral Data<<<<<
345.248	-160.79
345.464	-160.79
345.681	-160.79
345.898	-199.16
346.114	-169.51
346.331	-17.42
346.548	17.45
346.764	-8.51
346.981	-3.28
347.197	2.73
347.414	1.18
347.631	-31.56
347.847	56.2
348.064	-8.51
348.28	16.87
348.497	-26.91
348.713	1.76
348.93	37.22
349.146	36.25
349.363	10.67
349.579	36.63
349.796	17.65
350.012	8.93
350.229	35.08
350.445	33.73
350.661	-3.67
350.878	0.6
351.094	52.91
351.311	66.08
351.527	29.47
351.743	-9.67
351.96	56.01
352.176	54.46
352.392	37.02
352.609	41.28
352.825	45.93
353.041	2.53
353.257	31.79
353.474	38.77
353.69	54.27
353.906	48.65
354.122	22.3
354.339	94.56
354.555	30.43
354.771	17.84
354.987	89.33
355.203	64.34
355.42	41.87
355.636	33.15
355.852	-3.86
356.068	46.71
356.284	-9.67
356.5	91.08
356.716	43.61
356.932	24.82
357.148	82.16
357.364	70.35
357.58	72.28
357.796	74.61
358.012	90.69
358.228	68.22
358.444	-8.9
358.66	81.78
358.876	55.82
359.092	-4.83
359.308	49.42
359.524	31.79
359.74	52.33
359.956	19
360.172	38.96
360.388	94.76
360.604	45.93
360.819	115.88
361.035	66.28
361.251	66.47
361.467	3.7
361.683	97.47
361.898	69.57
362.114	71.51
362.33	42.64
362.546	94.18
362.762	77.9
362.977	59.69
363.193	38.38
363.409	88.17
363.624	15.71
363.84	43.42
364.056	32.95
364.271	65.31
364.487	83.71
364.703	64.34
364.918	50.78
365.134	59.3
365.35	50.78
365.565	163.15
365.781	67.05
365.996	91.66
366.212	128.28
366.427	100.38
366.643	62.6
366.858	75
367.074	41.87
367.289	105.41
367.505	180.2
367.72	47.1
367.936	46.71
368.151	96.89
368.367	101.54
368.582	85.07
368.798	44.58
369.013	134.67
369.228	79.26
369.444	66.08
369.659	141.06
369.874	100.57
370.09	133.9
370.305	27.72
370.52	48.26
370.736	139.13
370.951	62.98
371.166	146.68
371.381	144.36
371.597	102.7
371.812	45.55
372.027	64.73
372.242	74.8
372.458	143
372.673	62.79
372.888	68.41
373.103	93.4
373.318	159.86
373.533	111.81
373.749	84.1
373.964	47.87
374.179	128.66
374.394	51.55
374.609	124.6
374.824	53.68
375.039	146.49
375.254	69.57
375.469	129.44
375.684	92.82
375.899	136.61
376.114	99.99
376.329	117.81
376.544	160.63
376.759	109.29
376.974	85.46
377.189	64.73
377.404	91.27
377.619	145.33
377.834	58.33
378.049	91.85
378.264	81.58
378.478	128.47
378.693	98.25
378.908	145.33
379.123	150.95
379.338	159.47
379.553	122.08
379.767	107.55
379.982	132.35
380.197	123.24
380.412	101.93
380.626	149.4
380.841	193.96
381.056	125.18
381.271	189.31
381.485	108.71
381.7	72.48
381.915	142.23
382.129	128.28
382.344	128.66
382.559	97.66
382.773	134.09
382.988	56.2
383.202	129.25
383.417	49.62
383.632	187.95
383.846	85.85
384.061	121.11
384.275	83.91
384.49	128.86
384.704	135.45
384.919	126.53
385.133	125.56
385.348	159.86
385.562	71.32
385.777	166.83
385.991	99.8
386.206	136.61
386.42	131.18
386.634	156.56
386.849	146.1
387.063	146.68
387.277	113.75
387.492	112.2
387.706	107.55
387.92	84.88
388.135	178.46
388.349	137
388.563	141.26
388.778	155.4
388.992	154.24
389.206	178.07
389.42	223.41
389.635	138.93
389.849	160.05
390.063	201.71
390.277	196.09
390.491	228.25
390.706	221.08
390.92	206.55
391.134	214.49
391.348	213.14
391.562	160.05
391.776	190.86
391.99	180.98
392.205	236
392.419	160.25
392.633	175.55
392.847	193.96
393.061	124.6
393.275	189.5
393.489	112.39
393.703	151.14
393.917	151.33
394.131	75.19
394.345	135.64
394.559	176.71
394.773	170.71
394.986	192.6
395.2	160.63
395.414	253.24
395.628	167.22
395.842	242.98
396.056	223.6
396.27	162.57
396.484	224.18
396.697	221.86
396.911	210.23
397.125	142.03
397.339	188.14
397.553	161.6
397.766	200.54
397.98	189.69
398.194	246.85
398.408	227.48
398.621	261.19
398.835	305.17
399.049	268.36
399.262	323.96
399.476	347.99
399.69	338.49
399.903	388.29
400.117	316.02
400.331	363.87
400.544	296.84
400.758	430.13
400.971	359.42
401.185	358.84
401.398	306.52
401.612	361.74
401.826	366
402.039	352.44
402.253	351.09
402.466	391.19
402.68	354.77
402.893	381.12
403.106	372.01
403.32	346.05
403.533	338.3
403.747	349.92
403.96	386.93
404.174	382.86
404.387	310.59
404.6	382.67
404.814	422.39
405.027	372.79
405.24	349.34
405.454	327.84
405.667	405.34
405.88	327.26
406.094	374.92
406.307	414.83
406.52	370.07
406.733	333.26
406.947	304.59
407.16	431.88
407.373	414.44
407.586	371.24
407.799	355.74
408.012	416.19
408.226	386.35
408.439	452.42
408.652	369.69
408.865	435.75
409.078	480.9
409.291	449.7
409.504	377.63
409.717	444.08
409.93	470.63
410.143	403.59
410.357	366
410.57	309.04
410.783	389.06
410.996	405.34
411.209	412.31
411.421	470.82
411.634	420.06
411.847	425.87
412.06	465.01
412.273	471.79
412.486	475.47
412.699	541.73
412.912	461.72
413.125	494.85
413.338	473.73
413.55	455.32
413.763	479.35
413.976	471.6
414.189	459
414.402	451.25
414.615	546.58
414.827	459.78
415.04	488.26
415.253	493.88
415.466	526.23
415.678	561.11
415.891	527.78
416.104	495.82
416.316	476.44
416.529	472.95
416.742	541.54
416.954	535.15
417.167	496.98
417.38	484.19
417.592	537.28
417.805	462.88
418.017	449.51
418.23	522.75
418.442	445.83
418.655	481.67
418.868	506.47
419.08	525.46
419.293	546
419.505	515.19
419.718	527.4
419.93	530.3
420.142	502.98
420.355	553.16
420.567	552.58
420.78	528.95
420.992	520.42
421.205	602.57
421.417	509.38
421.629	536.7
421.842	509.38
422.054	509.38
422.266	579.32
422.479	608.96
422.691	520.03
422.903	548.71
423.115	509.38
423.328	511.32
423.54	534.56
423.752	504.92
423.964	527.2
424.177	513.06
424.389	527.2
424.601	628.53
424.813	594.05
425.025	583.58
425.238	564.6
425.45	532.24
425.662	551.42
425.874	844.17
426.086	536.31
426.298	558.59
426.51	556.85
426.722	566.34
426.934	524.1
427.146	551.61
427.358	537.47
427.57	572.15
427.782	528.75
427.994	532.43
428.206	516.55
428.418	532.82
428.63	615.94
428.842	645.19
429.054	550.65
429.266	583.58
429.478	536.11
429.69	537.47
429.902	525.65
430.114	561.88
430.325	533.01
430.537	484.77
430.749	456.48
430.961	422.39
431.173	451.83
431.384	502.6
431.596	408.63
431.808	528.17
432.02	552.97
432.231	661.28
432.443	694.99
432.655	644.23
432.867	589.01
433.078	623.49
433.29	672.32
433.502	654.69
433.713	693.44
433.925	668.83
434.136	714.56
434.348	595.4
434.56	546.38
434.771	715.33
434.983	557.62
435.194	638.99
435.406	672.13
435.617	726.57
435.829	746.14
436.04	733.74
436.252	707.97
436.463	751.95
436.675	779.85
436.886	750.79
437.098	773.46
437.309	833.13
437.521	740.91
437.732	772.29
437.943	718.43
438.155	730.44
438.366	682.78
438.578	794.96
438.789	683.94
439	713.2
439.211	705.06
439.423	689.56
439.634	734.71
439.845	744.2
440.057	742.46
440.268	834.49
440.479	721.14
440.69	784.11
440.902	730.25
441.113	744.2
441.324	738
441.535	795.15
441.746	852.89
441.957	781.59
442.168	781.59
442.38	859.29
442.591	856.57
442.802	775.2
443.013	825.57
443.224	888.93
443.435	839.14
443.646	837.78
443.857	841.46
444.068	822.28
444.279	817.24
444.49	916.25
444.701	857.15
444.912	955.19
445.123	924.19
445.334	877.3
445.545	878.66
445.756	847.08
445.967	818.6
446.178	852.5
446.388	869.17
446.599	899.39
446.81	868.2
447.021	821.89
447.232	913.34
447.443	924.19
447.653	876.72
447.864	941.63
448.075	930.97
448.286	946.28
448.496	912.18
448.707	957.9
448.918	871.68
449.129	983.28
449.339	895.71
449.55	941.82
449.761	909.08
449.971	974.76
450.182	920.7
450.393	957.71
450.603	919.93
450.814	1026.1
451.024	967.78
451.235	1043.15
451.446	1067.18
451.656	1086.74
451.867	965.46
452.077	966.81
452.288	1078.41
452.498	1011.18
452.709	940.47
452.919	973.01
453.13	925.55
453.34	957.13
453.55	905.2
453.761	957.13
453.971	933.1
454.182	945.7
454.392	979.99
454.602	1028.23
454.813	1002.46
455.023	1015.25
455.233	930.39
455.444	988.32
455.654	883.31
455.864	924.38
456.075	961.58
456.285	932.52
456.495	982.31
456.705	991.03
456.916	1021.45
457.126	1082.09
457.336	1008.47
457.546	941.43
457.756	1004.98
457.967	1089.46
458.177	984.83
458.387	1021.84
458.597	976.31
458.807	1012.15
459.017	977.08
459.227	983.48
459.437	961
459.647	1032.88
459.857	1037.34
460.068	984.64
460.278	1096.24
460.488	1023
460.698	1086.74
460.908	1025.52
461.117	1007.5
461.327	1022.03
461.537	1086.94
461.747	1086.16
461.957	1065.04
462.167	1167.92
462.377	1122.78
462.587	1068.92
462.797	1141.38
463.007	1093.53
463.216	1149.13
463.426	1194.66
463.636	1136.54
463.846	1046.25
464.056	1074.73
464.265	1084.03
464.475	1050.32
464.685	1119.29
464.895	1108.25
465.104	1058.46
465.314	1126.46
465.524	1084.23
465.733	1068.53
465.943	1164.63
466.153	1170.25
466.362	1163.86
466.572	1179.74
466.782	1131.69
466.991	1155.52
467.201	1188.66
467.41	1082.29
467.62	1136.92
467.829	1123.94
468.039	1148.94
468.249	1148.36
468.458	1170.64
468.668	1184.2
468.877	1224.11
469.086	1265.19
469.296	1249.1
469.505	1201.64
469.715	1286.3
469.924	1214.04
470.134	1267.32
470.343	1247.55
470.552	1181.87
470.762	1201.83
470.971	1165.79
471.18	1197.57
471.39	1206.67
471.599	1210.16
471.808	1249.1
472.018	1229.92
472.227	1314.98
472.436	1349.85
472.645	1298.32
472.855	1289.6
473.064	1356.63
473.273	1365.35
473.482	1322.92
473.691	1390.54
473.901	1342.68
474.11	1291.73
474.319	1391.12
474.528	1326.8
474.737	1434.52
474.946	1409.53
475.155	1421.93
475.364	1502.53
475.573	1421.93
475.783	1466.3
475.992	1444.98
476.201	1469.78
476.41	1447.11
476.619	1406.81
476.828	1453.9
477.037	1395.96
477.245	1419.02
477.454	1491.87
477.663	1447.31
477.872	1515.7
478.081	1550.19
478.29	1512.79
478.499	1609.28
478.708	1573.63
478.917	1624.01
479.125	1543.6
479.334	1564.33
479.543	1554.26
479.752	1614.32
479.961	1601.92
480.169	1689.69
480.378	1661.59
480.587	1743.74
480.796	1676.32
481.004	1683.29
481.213	1708.48
481.422	1696.27
481.63	1753.62
481.839	1719.33
482.048	1756.72
482.256	1746.45
482.465	1823.18
482.674	1777.84
482.882	1845.07
483.091	1858.05
483.299	1803.8
483.508	1852.05
483.716	1857.28
483.925	1829.57
484.134	1796.63
484.342	1785.59
484.551	1837.32
484.759	1822.4
484.967	1882.66
485.176	1839.26
485.384	1911.14
485.593	1865.61
485.801	1826.47
486.01	1753.04
486.218	1713.52
486.426	1594.75
486.635	1595.52
486.843	1555.03
487.051	1633.11
487.26	1682.52
487.468	1691.82
487.676	1737.35
487.885	1762.53
488.093	1814.07
488.301	1873.75
488.509	1873.94
488.717	1929.93
488.926	1911.33
489.134	1877.23
489.342	1905.71
489.55	1856.89
489.758	1915.21
489.967	1911.33
490.175	2036.49
490.383	2023.32
490.591	2137.63
490.799	2004.91
491.007	2062.07
491.215	2062.65
491.423	2055.48
491.631	2034.94
491.839	2047.92
492.047	2065.56
492.255	1996.58
492.463	1956.86
492.671	1928.19
492.879	2040.37
493.087	1993.68
493.295	2062.07
493.503	2103.53
493.711	2126.59
493.919	2122.32
494.127	2162.24
494.334	2143.44
494.542	2095.97
494.75	2158.36
494.958	2091.52
495.166	2222.88
495.374	2213.77
495.581	2220.55
495.789	2204.47
495.997	2257.17
496.205	2160.49
496.412	2141.12
496.62	2219
496.828	2230.24
497.035	2213.19
497.243	2244
497.451	2251.17
497.658	2227.92
497.866	2215.32
498.074	2290.3
498.281	2182.58
498.489	2286.62
498.696	2223.85
498.904	2178.12
499.112	2181.42
499.319	2294.18
499.527	2225.2
499.734	2284.3
499.942	2204.67
500.149	2229.47
500.357	2287.78
500.564	2181.8
500.771	2215.52
500.979	2184.71
501.186	2168.44
501.394	2170.95
501.601	2143.44
501.808	2195.56
502.016	2182.58
502.223	2131.82
502.43	2208.54
502.638	2143.05
502.845	2177.93
503.052	2267.44
503.26	2219.58
503.467	2320.72
503.674	2292.05
503.881	2285.46
504.089	2305.61
504.296	2304.06
504.503	2180.25
504.71	2200.79
504.917	2182.97
505.125	2240.32
505.332	2259.3
505.539	2274.41
505.746	2363.34
505.953	2383.3
506.16	2350.17
506.367	2410.04
506.574	2400.35
506.781	2423.6
506.988	2344.36
507.195	2359.28
507.402	2374.39
507.609	2392.6
507.816	2327.31
508.023	2311.42
508.23	2272.28
508.437	2231.79
508.644	2289.53
508.851	2355.4
509.058	2422.63
509.265	2394.34
509.472	2402.09
509.679	2484.82
509.885	2392.21
510.092	2418.18
510.299	2428.06
510.506	2390.28
510.713	2370.32
510.92	2387.76
511.126	2442.59
511.333	2449.37
511.54	2452.08
511.746	2476.69
511.953	2480.56
512.16	2520.67
512.367	2441.62
512.573	2467.58
512.78	2446.66
512.987	2417.98
513.193	2431.54
513.4	2322.66
513.606	2373.42
513.813	2424.57
514.02	2367.61
514.226	2438.13
514.433	2416.04
514.639	2349.01
514.846	2392.79
515.052	2350.36
515.259	2427.28
515.465	2396.09
515.672	2464.29
515.878	2536.75
516.085	2492.19
516.291	2536.36
516.497	2435.42
516.704	2397.64
516.91	2381.94
517.117	2279.65
517.323	2205.83
517.529	2181.8
517.736	2184.13
517.942	2194.59
518.148	2212.42
518.354	2356.95
518.561	2312.78
518.767	2340.29
518.973	2303.09
519.179	2346.49
519.386	2357.73
519.592	2360.24
519.798	2370.51
520.004	2500.91
520.21	2441.42
520.417	2507.49
520.623	2568.52
520.829	2563.1
521.035	2604.37
521.241	2576.66
521.447	2593.9
521.653	2728.17
521.859	2589.06
522.065	2631.88
522.271	2721.39
522.477	2716.93
522.683	2723.91
522.889	2621.61
523.095	2666.56
523.301	2636.72
523.507	2580.15
523.713	2637.5
523.919	2578.99
524.125	2717.13
524.331	2693.3
524.537	2792.3
524.742	2814.39
524.948	2834.15
525.154	2826.79
525.36	2903.32
525.566	2789.78
525.772	2857.98
525.977	2751.23
526.183	2814
526.389	2881.62
526.595	2700.27
526.8	2703.95
527.006	2609.6
527.212	2551.28
527.417	2550.12
527.623	2487.92
527.829	2634.4
528.034	2646.8
528.24	2668.88
528.446	2721.2
528.651	2789.98
528.857	2825.04
529.062	2887.24
529.268	2873.48
529.473	2887.62
529.679	2933.93
529.884	2982.56
530.09	2925.99
530.295	2912.04
530.501	2923.66
530.706	2900.41
530.912	2891.31
531.117	2960.09
531.323	2930.83
531.528	3007.55
531.733	2964.74
531.939	2935.48
532.144	3005.23
532.35	2993.8
532.555	2988.37
532.76	2919.21
532.966	2920.37
533.171	2905.84
533.376	2839.77
533.581	2810.9
533.787	2858.56
533.992	2919.01
534.197	2950.79
534.402	2912.04
534.607	2975
534.813	3020.92
535.018	2981.2
535.223	2966.09
535.428	2946.52
535.633	3015.3
535.838	3071.68
536.043	3053.67
536.249	3179.21
536.454	3068.39
536.659	3104.04
536.864	3060.64
537.069	3020.92
537.274	3047.85
537.479	3039.14
537.684	3038.55
537.889	2933.16
538.094	3149.96
538.299	3021.12
538.504	3066.26
538.708	3067.62
538.913	3107.14
539.118	3070.91
539.323	3085.44
539.528	3029.45
539.733	3048.24
539.938	3068.39
540.142	3062.97
540.347	3054.63
540.552	3002.71
540.757	2992.44
540.962	3013.95
541.166	2904.87
541.371	2929.28
541.576	2946.52
541.781	2887.04
541.985	3027.12
542.19	3011.24
542.395	3105.2
542.599	3121.87
542.804	3078.85
543.008	3150.35
543.213	3066.65
543.418	3025.38
543.622	3105.2
543.827	3039.72
544.031	3109.66
544.236	3132.91
544.44	3114.89
544.645	3158.1
544.849	3075.17
545.054	3148.8
545.258	3145.89
545.463	3168.75
545.667	3027.9
545.872	3142.4
546.076	3150.54
546.281	3169.53
546.485	3119.73
546.689	3192.39
546.894	3157.13
547.098	3135.62
547.302	3102.3
547.507	3117.02
547.711	3158.1
547.915	3145.5
548.119	3036.04
548.324	3094.93
548.528	3135.23
548.732	3084.86
548.936	3114.12
549.141	3159.45
549.345	3116.44
549.549	3126.71
549.753	3139.5
549.957	3225.52
550.161	3252.45
550.366	3155.58
550.57	3117.6
550.774	3104.23
550.978	3129.03
551.182	3176.11
551.386	3087.38
551.59	3134.65
551.794	3099.58
551.998	3189.48
552.202	3144.34
552.406	3087.18
552.61	3202.08
552.814	3227.26
553.018	3209.25
553.222	3121.87
553.426	3134.07
553.63	3272.02
553.833	3153.45
554.037	3091.83
554.241	3159.65
554.445	3158.87
554.649	3137.56
554.853	3113.92
555.056	3199.17
555.26	3213.9
555.464	3153.83
555.668	3197.43
555.871	3171.66
556.075	3221.65
556.279	3142.6
556.483	3093
556.686	3123.03
556.89	3131.55
557.094	3157.71
557.297	3013.37
557.501	3081.57
557.704	3028.87
557.908	3079.82
558.112	3035.45
558.315	3120.51
558.519	3032.74
558.722	3013.37
558.926	3028.48
559.129	2909.13
559.333	2886.27
559.536	2935.09
559.74	2908.74
559.943	2896.34
560.147	2891.5
560.35	2903.71
560.553	2931.99
560.757	2857.79
560.96	3009.1
561.164	2983.72
561.367	3047.66
561.57	2957.96
561.774	2995.54
561.977	2933.93
562.18	2943.81
562.384	2989.54
562.587	2906.03
562.79	2944.59
562.993	2917.07
563.197	2940.13
563.4	3028.67
563.603	3017.24
563.806	3047.47
564.009	2915.33
564.212	2927.73
564.416	2857.21
564.619	2907.77
564.822	2810.71
565.025	2951.76
565.228	2887.82
565.431	2880.84
565.634	2788.81
565.837	2823.49
566.04	2807.22
566.243	2809.74
566.446	2720.23
566.649	2814.78
566.852	2753.55
567.055	2801.41
567.258	2842.87
567.461	2839.38
567.664	2824.66
567.867	2771.96
568.07	2803.93
568.273	2812.26
568.475	2888.01
568.678	2737.47
568.881	2775.83
569.084	2761.69
569.287	2627.42
569.489	2722.36
569.692	2770.21
569.895	2759.95
570.098	2683.03
570.3	2641.37
570.503	2617.35
570.706	2602.62
570.909	2607.85
571.111	2550.12
571.314	2556.12
571.516	2556.32
571.719	2620.25
571.922	2588.87
572.124	2607.66
572.327	2628.58
572.529	2574.92
572.732	2578.6
572.935	2629.94
573.137	2715.58
573.34	2623.16
573.542	2681.28
573.745	2647.96
573.947	2663.46
574.15	2613.47
574.352	2603.4
574.554	2642.34
574.757	2591.97
574.959	2586.74
575.162	2583.05
575.364	2547.79
575.566	2645.05
575.769	2525.51
575.971	2538.3
576.173	2470.49
576.376	2503.23
576.578	2585.38
576.78	2602.43
576.982	2478.62
577.185	2489.86
577.387	2497.03
577.589	2515.44
577.791	2530.55
577.993	2555.93
578.196	2547.02
578.398	2510.79
578.6	2542.95
578.802	2445.69
579.004	2454.41
579.206	2459.06
579.408	2480.56
579.61	2449.56
579.812	2522.02
580.014	2484.24
580.216	2515.24
580.418	2469.52
580.62	2448.59
580.822	2476.88
581.024	2490.44
581.226	2529.97
581.428	2445.11
581.63	2571.43
581.832	2474.75
582.034	2528.22
582.236	2499.55
582.438	2542.17
582.64	2573.75
582.841	2614.63
583.043	2640.79
583.245	2506.33
583.447	2579.18
583.649	2542.75
583.85	2535.59
584.052	2552.05
584.254	2517.96
584.456	2528.42
584.657	2464.48
584.859	2533.84
585.061	2530.16
585.262	2499.16
585.464	2482.11
585.666	2505.75
585.867	2496.45
586.069	2500.32
586.27	2452.86
586.472	2462.93
586.674	2448.21
586.875	2400.74
587.077	2428.06
587.278	2470.49
587.48	2402.48
587.681	2530.55
587.883	2442.01
588.084	2382.14
588.285	2390.08
588.487	2393.76
588.688	2427.48
588.89	2304.83
589.091	2246.13
589.292	2281.78
589.494	2161.46
589.695	2154.49
589.896	2040.17
590.098	2050.83
590.299	2109.73
590.5	2116.7
590.702	2135.11
590.903	2207.57
591.104	2264.92
591.305	2244.77
591.507	2287.2
591.708	2276.55
591.909	2272.67
592.11	2300.57
592.311	2282.75
592.512	2207.57
592.714	2155.65
592.915	2218.42
593.116	2239.54
593.317	2218.23
593.518	2217.45
593.719	2237.99
593.92	2252.33
594.121	2263.76
594.322	2262.6
594.523	2205.25
594.724	2211.45
594.925	2257.95
595.126	2233.92
595.327	2241.28
595.528	2192.85
595.729	2245.74
595.929	2195.95
596.13	2216.29
596.331	2255.82
596.532	2266.08
596.733	2319.36
596.934	2252.33
597.135	2265.11
597.335	2298.05
597.536	2228.88
597.737	2223.46
597.938	2201.76
598.138	2242.25
598.339	2252.72
598.54	2241.67
598.74	2210.67
598.941	2217.65
599.142	2225.98
599.342	2239.54
599.543	2193.43
599.744	2213.19
599.944	2222.49
600.145	2195.17
600.345	2219
600.546	2254.46
600.746	2269.76
600.947	2304.25
601.147	2218.23
601.348	2237.99
601.548	2173.86
601.749	2211.25
601.949	2122.71
602.15	2194.4
602.35	2191.3
602.551	2204.47
602.751	2154.49
602.951	2126.39
603.152	2116.12
603.352	2224.62
603.552	2166.89
603.753	2232.37
603.953	2236.25
604.153	2207.77
604.354	2224.82
604.554	2181.61
604.754	2239.93
604.954	2212.22
605.155	2274.22
605.355	2238.77
605.555	2247.48
605.755	2305.8
605.955	2263.37
606.155	2265.11
606.356	2213.77
606.556	2231.4
606.756	2242.45
606.956	2173.28
607.156	2260.08
607.356	2175.8
607.556	2232.18
607.756	2195.37
607.956	2254.07
608.156	2183.35
608.356	2170.18
608.556	2204.47
608.756	2153.32
608.956	2165.14
609.156	2160.1
609.356	2101.01
609.556	2143.83
609.755	2166.69
609.955	2094.23
610.155	2115.74
610.355	2159.91
610.555	2098.3
610.755	2105.27
610.954	2027
611.154	2126.97
611.354	2136.27
611.554	2049.28
611.753	2081.06
611.953	2096.17
612.153	2100.04
612.352	2096.55
612.552	2045.02
612.752	2035.72
612.951	2089.19
613.151	2063.42
613.351	2011.31
613.55	2053.74
613.75	2057.42
613.949	2049.28
614.149	2043.86
614.348	2056.06
614.548	1988.25
614.747	1958.41
614.947	2009.95
615.146	1975.66
615.346	2062.46
615.545	2059.74
615.745	2027.97
615.944	2054.51
616.144	2038.62
616.343	2039.01
616.542	2005.49
616.742	1981.08
616.941	1993.48
617.14	1896.22
617.34	1988.44
617.539	2016.15
617.738	1978.37
617.938	2053.74
618.137	1978.18
618.336	1948.14
618.535	2021.96
618.734	2014.99
618.934	2020.8
619.133	2020.8
619.332	2051.61
619.531	1985.93
619.73	2003.36
619.929	2045.99
620.128	2035.33
620.328	2071.17
620.527	1988.25
620.726	2020.02
620.925	2005.3
621.124	1977.79
621.323	2001.43
621.522	1917.53
621.721	1942.72
621.92	1901.84
622.119	1956.67
622.318	1944.46
622.517	1911.72
622.715	1939.23
622.914	1880.72
623.113	1919.47
623.312	1864.64
623.511	1918.69
623.71	1882.46
623.909	1886.92
624.107	1945.82
624.306	1824.73
624.505	1842.55
624.704	1862.12
624.902	1825.31
625.101	1925.86
625.3	1844.68
625.499	1845.07
625.697	1836.16
625.896	1785.98
626.095	1837.9
626.293	1783.07
626.492	1835
626.69	1841.78
626.889	1813.88
627.088	1863.67
627.286	1824.34
627.485	1824.53
627.683	1825.12
627.882	1831.12
628.08	1746.45
628.279	1773.97
628.477	1875.3
628.676	1751.3
628.874	1775.9
629.073	1747.03
629.271	1765.05
629.469	1791.98
629.668	1783.85
629.866	1752.46
630.065	1779
630.263	1784.43
630.461	1734.05
630.66	1774.93
630.858	1778.62
631.056	1817.56
631.254	1832.09
631.453	1760.98
631.651	1797.02
631.849	1739.48
632.047	1744.13
632.245	1758.47
632.444	1747.23
632.642	1772.61
632.84	1777.65
633.038	1777.84
633.236	1707.51
633.434	1742.38
633.632	1732.89
633.83	1741.42
634.028	1756.33
634.227	1763.5
634.425	1854.56
634.623	1767.77
634.821	1778.62
635.019	1768.15
635.216	1727.66
635.414	1765.44
635.612	1787.14
635.81	1739.09
636.008	1816.4
636.206	1760.6
636.404	1773.19
636.602	1718.55
636.8	1721.46
636.997	1775.52
637.195	1795.67
637.393	1758.66
637.591	1798.57
637.789	1758.27
637.986	1779.2
638.184	1788.69
638.382	1806.32
638.58	1823.37
638.777	1821.43
638.975	1744.13
639.173	1773.77
639.37	1728.05
639.568	1752.27
639.765	1779.2
639.963	1724.17
640.161	1768.15
640.358	1776.29
640.556	1685.23
640.753	1667.6
640.951	1701.5
641.148	1714.1
641.346	1694.34
641.543	1665.66
641.741	1725.34
641.938	1676.7
642.136	1709.64
642.333	1665.66
642.531	1706.93
642.728	1716.81
642.925	1706.74
643.123	1671.67
643.32	1697.63
643.517	1672.64
643.715	1696.27
643.912	1655.59
644.109	1679.61
644.306	1660.62
644.504	1649
644.701	1660.04
644.898	1693.37
645.095	1637.96
645.293	1662.95
645.49	1674.38
645.687	1630.01
645.884	1665.85
646.081	1593.2
646.278	1615.87
646.475	1627.11
646.672	1633.89
646.87	1663.34
647.067	1625.56
647.264	1622.65
647.461	1581.57
647.658	1536.82
647.855	1617.61
648.052	1568.98
648.249	1508.14
648.446	1589.71
648.642	1571.5
648.839	1511.05
649.036	1550.77
649.233	1524.81
649.43	1529.46
649.627	1508.53
649.824	1497.88
650.021	1521.71
650.217	1484.12
650.414	1537.21
650.611	1558.13
650.808	1537.79
651.004	1537.79
651.201	1570.92
651.398	1635.82
651.595	1550.58
651.791	1498.26
651.988	1585.84
652.185	1480.83
652.381	1585.64
652.578	1526.55
652.775	1541.66
652.971	1526.36
653.168	1544.57
653.364	1606.57
653.561	1465.91
653.757	1512.41
653.954	1550.96
654.15	1482.96
654.347	1616.45
654.543	1556.39
654.74	1440.72
654.936	1482.38
655.133	1469.01
655.329	1510.08
655.525	1484.7
655.722	1507.95
655.918	1432
656.115	1458.16
656.311	1323.5
656.507	1276.62
656.704	1283.79
656.9	1317.3
657.096	1296.77
657.292	1308.78
657.489	1385.7
657.685	1408.95
657.881	1388.22
658.077	1396.35
658.273	1410.5
658.47	1498.26
658.666	1443.05
658.862	1526.16
659.058	1458.35
659.254	1499.43
659.45	1460.87
659.646	1495.94
659.842	1472.69
660.038	1555.81
660.234	1481.02
660.43	1522.87
660.626	1559.88
660.822	1531.59
661.018	1562.2
661.214	1458.74
661.41	1442.08
661.606	1504.27
661.802	1518.99
661.998	1508.14
662.194	1494
662.39	1525.19
662.586	1513.38
662.781	1520.74
662.977	1517.83
663.173	1537.98
663.369	1509.5
663.564	1513.18
663.76	1492.64
663.956	1520.74
664.152	1516.86
664.347	1422.31
664.543	1509.31
664.739	1476.76
664.934	1389.96
665.13	1446.53
665.326	1515.51
665.521	1507.56
665.717	1438.59
665.912	1440.33
666.108	1405.85
666.304	1441.11
666.499	1428.71
666.695	1371.17
666.89	1448.86
667.086	1469.59
667.281	1454.86
667.477	1525.58
667.672	1469.59
667.867	1461.06
668.063	1462.23
668.258	1386.28
668.454	1433.36
668.649	1507.76
668.844	1440.72
669.04	1483.34
669.235	1401.2
669.43	1448.28
669.626	1375.43
669.821	1415.92
670.016	1380.27
670.211	1445.95
670.407	1357.41
670.602	1425.61
670.797	1381.63
670.992	1441.11
671.187	1408.36
671.382	1457
671.578	1370.39
671.773	1399.84
671.968	1334.74
672.163	1394.03
672.358	1395.77
672.553	1356.83
672.748	1376.01
672.943	1463.97
673.138	1415.53
673.333	1417.28
673.528	1373.1
673.723	1440.72
673.918	1378.33
674.113	1351.02
674.308	1456.61
674.503	1406.43
674.698	1426.96
674.892	1374.27
675.087	1386.67
675.282	1392.86
675.477	1357.02
675.672	1438.01
675.867	1348.5
676.061	1345.59
676.256	1327.96
676.451	1351.02
676.646	1407.01
676.84	1358.77
677.035	1326.41
677.23	1327.38
677.424	1372.91
677.619	1401.58
677.814	1437.62
678.008	1401.78
678.203	1322.53
678.397	1350.63
678.592	1382.79
678.787	1420.57
678.981	1375.82
679.176	1378.72
679.37	1351.02
679.565	1335.52
679.759	1359.35
679.954	1419.8
680.148	1407.78
680.342	1439.17
680.537	1419.21
680.731	1357.8
680.926	1393.06
681.12	1398.1
681.314	1356.25
681.509	1358.57
681.703	1379.11
681.897	1400.61
682.092	1328.35
682.286	1373.68
682.48	1407.98
682.674	1387.25
682.869	1344.04
683.063	1380.47
683.257	1402.55
683.451	1303.55
683.645	1412.82
683.839	1346.75
684.034	1320.02
684.228	1372.52
684.422	1295.41
684.616	1330.48
684.81	1356.63
685.004	1304.52
685.198	1342.88
685.392	1363.61
685.586	1326.6
685.78	1334.74
685.974	1297.54
686.168	1331.06
686.362	1331.64
686.556	1263.05
686.75	1210.74
686.944	1229.34
687.138	1199.7
687.331	1086.74
687.525	1126.46
687.719	1012.15
687.913	1121.04
688.107	1103.02
688.301	1076.48
688.494	1139.06
688.688	1079.58
688.882	1066.98
689.076	1056.91
689.269	1105.54
689.463	1169.67
689.657	1083.26
689.85	1083.26
690.044	1138.67
690.238	1137.31
690.431	1102.05
690.625	1140.22
690.818	1170.44
691.012	1166.37
691.205	1196.41
691.399	1102.05
691.593	1172.77
691.786	1214.04
691.98	1214.62
692.173	1243.1
692.366	1225.27
692.56	1228.95
692.753	1285.34
692.947	1212.87
693.14	1255.89
693.333	1244.84
693.527	1198.34
693.72	1255.69
693.914	1206.48
694.107	1189.62
694.3	1235.15
694.493	1189.24
694.687	1250.85
694.88	1183.62
695.073	1300.45
695.266	1287.85
695.46	1226.63
695.653	1281.46
695.846	1298.12
696.039	1210.55
696.232	1215.59
696.425	1290.37
696.618	1288.24
696.812	1283.2
697.005	1343.65
697.198	1418.83
697.391	1357.8
697.584	1398.87
697.777	1426
697.97	1386.86
698.163	1378.53
698.356	1384.53
698.549	1486.64
698.742	1446.92
698.935	1353.73
699.127	1388.6
699.32	1364.58
699.513	1396.55
699.706	1412.24
699.899	1464.94
700.092	1389.57
700.285	1477.92
700.477	1369.62
700.67	1458.74
700.863	1460.87
701.056	1533.72
701.248	1503.88
701.441	1526.16
701.634	1450.8
701.826	1551.93
702.019	1466.68
702.212	1545.54
702.404	1493.42
702.597	1487.8
702.79	1513.57
702.982	1536.43
703.175	1599.59
703.367	1579.64
703.56	1597.66
703.752	1680.19
703.945	1610.25
704.137	1635.44
704.33	1678.45
704.522	1687.55
704.715	1713.71
704.907	1720.49
705.1	1768.35
705.292	1772.03
705.484	1730.18
705.677	1806.52
705.869	1766.02
706.061	1817.95
706.254	1875.1
706.446	1827.44
706.638	1814.85
706.831	1928.96
707.023	1861.54
707.215	1965.19
707.407	1968.88
707.599	1941.36
707.792	1979.14
707.984	2010.53
708.176	2048.12
708.368	1983.21
708.56	2051.41
708.752	2014.21
708.944	2017.12
709.136	2072.72
709.329	2078.15
709.521	2182
709.713	2153.52
709.905	2179.28
710.097	2250.97
710.289	2201.37
710.481	2167.47
710.672	2206.41
710.864	2234.12
711.056	2311.23
711.248	2279.06
711.44	2293.79
711.632	2265.5
711.824	2322.46
712.016	2382.14
712.207	2382.72
712.399	2396.67
712.591	2466.42
712.783	2461.38
712.975	2435.03
713.166	2395.51
713.358	2440.65
713.55	2526.67
713.741	2504.39
713.933	2494.71
714.125	2517.76
714.316	2490.64
714.508	2588.48
714.7	2597.78
714.891	2563.87
715.083	2645.05
715.274	2539.46
715.466	2653.97
715.657	2701.05
715.849	2565.81
716.04	2645.63
716.232	2584.8
716.423	2675.67
716.615	2595.84
716.806	2595.07
716.998	2564.26
717.189	2495.67
717.381	2410.43
717.572	2371.09
717.763	2411.01
717.955	2396.86
718.146	2386.59
718.337	2307.74
718.528	2257.56
718.72	2180.64
718.911	2302.12
719.102	2244.19
719.293	2272.09
719.485	2275.77
719.676	2284.68
719.867	2191.3
720.058	2239.15
720.249	2229.66
720.44	2291.08
720.632	2329.63
720.823	2406.36
721.014	2507.11
721.205	2539.65
721.396	2618.32
721.587	2720.23
721.778	2755.1
721.969	2840.35
722.16	2861.47
722.351	2853.72
722.542	3027.51
722.733	3017.82
722.924	2966.67
723.115	2991.09
723.305	3030.61
723.496	3044.75
723.687	2875.42
723.878	2931.8
724.069	2907.39
724.26	2881.04
724.45	2827.37
724.641	2835.7
724.832	2889.56
725.023	2866.51
725.213	2864.38
725.404	2845.97
725.595	2870.38
725.785	2856.82
725.976	2922.31
726.167	2948.27
726.357	2923.66
726.548	3017.05
726.739	2954.86
726.929	3043.01
727.12	3095.32
727.31	3121.09
727.501	3042.43
727.691	3065.87
727.882	3098.81
728.072	3130.39
728.263	3123.22
728.453	3231.33
728.644	3185.61
728.834	3169.14
729.024	3168.75
729.215	3160.23
729.405	3185.03
729.596	3275.12
729.786	3279.58
729.976	3333.24
730.167	3361.34
730.357	3303.99
730.547	3299.92
730.737	3363.08
730.928	3410.55
731.118	3454.72
731.308	3438.45
731.498	3441.55
731.688	3495.22
731.879	3514.78
732.069	3601.78
732.259	3643.43
732.449	3657
732.639	3730.23
732.829	3728.1
733.019	3796.3
733.209	3872.25
733.399	3857.14
733.589	3938.7
733.779	3970.67
733.969	3995.67
734.159	4058.25
734.349	4098.55
734.539	4161.9
734.729	4180.11
734.919	4158.22
735.109	4263.42
735.299	4164.42
735.488	4176.82
735.678	4225.84
735.868	4229.91
736.058	4212.27
736.248	4182.24
736.437	4175.66
736.627	4149.5
736.817	4325.23
737.007	4236.49
737.196	4319.42
737.386	4283.38
737.576	4259.16
737.765	4337.24
737.955	4316.9
738.144	4476.35
738.334	4404.28
738.524	4325.42
738.713	4352.94
738.903	4369.4
739.092	4406.41
739.282	4351
739.471	4420.17
739.661	4434.7
739.85	4488.56
740.04	4433.53
740.229	4512
740.419	4517.43
740.608	4579.23
740.797	4522.27
740.987	4588.14
741.176	4563.73
741.365	4497.66
741.555	4488.17
741.744	4605
741.933	4536.22
742.123	4615.85
742.312	4588.73
742.501	4632.32
742.69	4632.71
742.88	4541.84
743.069	4707.49
743.258	4601.32
743.447	4732.68
743.636	4685.41
743.825	4668.36
744.014	4685.02
744.204	4753.02
744.393	4667.39
744.582	4758.45
744.771	4757.48
744.96	4685.6
745.149	4782.47
745.338	4774.14
745.527	4821.22
745.716	4781.89
745.905	4703.81
746.094	4858.81
746.283	4816.57
746.471	4807.47
746.66	4865.2
746.849	4803.01
747.038	4883.8
747.227	4769.88
747.416	4848.54
747.604	4767.75
747.793	4774.53
747.982	4788.87
748.171	4852.8
748.359	4841.37
748.548	4816.18
748.737	4814.25
748.926	4796.42
749.114	4698.58
749.303	4814.05
749.491	4803.2
749.68	4735.39
749.869	4853
750.057	4723.96
750.246	4760.58
750.434	4794.87
750.623	4767.36
750.811	4750.31
751	4823.35
751.188	4802.04
751.377	4723.38
751.565	4737.52
751.754	4727.84
751.942	4715.63
752.131	4749.73
752.319	4707.69
752.507	4669.71
752.696	4753.8
752.884	4779.76
753.072	4701.29
753.261	4721.25
753.449	4729.77
753.637	4662.74
753.825	4808.63
754.014	4718.54
754.202	4726.29
754.39	4757.87
754.578	4725.32
754.766	4635.81
754.955	4638.71
755.143	4744.11
755.331	4704.59
755.519	4704.59
755.707	4665.84
755.895	4693.35
756.083	4651.69
756.271	4629.8
756.459	4655.18
756.647	4690.25
756.835	4647.62
757.023	4629.22
757.211	4629.02
757.399	4601.32
757.587	4605.97
757.775	4531.38
757.963	4554.63
758.151	4617.98
758.339	4519.17
758.526	4488.95
758.714	4570.51
758.902	4435.67
759.09	4372.89
759.278	4152.41
759.465	3908.67
759.653	3476.04
759.841	3239.28
760.028	2856.82
760.216	2571.43
760.404	2373.23
760.591	2016.15
760.779	1758.47
760.967	1614.9
761.154	1415.34
761.342	1490.13
761.529	1484.12
761.717	1548.64
761.905	1604.44
762.092	1683.68
762.28	1667.6
762.467	1679.03
762.655	1622.46
762.842	1642.61
763.029	1699.18
763.217	1722.82
763.404	1719.14
763.592	1776.1
763.779	1753.82
763.966	1849.91
764.154	1888.66
764.341	1958.03
764.528	1925.28
764.716	2005.69
764.903	2077.18
765.09	2143.05
765.277	2226.17
765.465	2368.77
765.652	2446.27
765.839	2552.25
766.026	2673.15
766.213	2745.22
766.4	2850.23
766.588	3054.25
766.775	3064.52
766.962	3156.55
767.149	3242.76
767.336	3421.4
767.523	3376.26
767.71	3503.74
767.897	3627.16
768.084	3705.24
768.271	3730.43
768.458	3762.01
768.645	3890.85
768.832	3797.27
769.019	3868.76
769.206	3873.22
769.392	3970.87
769.579	4042.75
769.766	3998.57
769.953	4005.55
770.14	4095.45
770.327	4021.43
770.513	4112.69
770.7	4152.41
770.887	4066.58
771.073	4119.86
771.26	4101.64
771.447	4032.09
771.634	4065.03
771.82	4101.64
772.007	4041.39
772.193	4055.73
772.38	4107.65
772.567	4083.24
772.753	4071.23
772.94	4092.73
773.126	4092.73
773.313	4157.06
773.499	4085.56
773.686	4100.29
773.872	4052.05
774.059	4066.77
774.245	3999.54
774.432	4080.53
774.618	3928.82
774.804	4001.87
774.991	3957.11
775.177	4027.25
775.363	3967.77
775.55	4047.2
775.736	3942.38
775.922	3946.84
776.109	3990.63
776.295	3956.14
776.481	3982.68
776.667	4010.78
776.853	3918.55
777.04	3943.16
777.226	4013.68
777.412	4037.71
777.598	3941.61
777.784	3905.57
777.97	3895.3
778.156	3929.6
778.342	3922.82
778.528	3861.01
778.715	3818.58
778.901	3863.53
779.087	3841.64
779.272	3843.77
779.458	3822.07
779.644	3867.21
779.83	3796.49
780.016	3912.35
780.202	3807.73
780.388	3812.19
780.574	3738.56
780.76	3762.78
780.946	3803.86
781.131	3817.03
781.317	3790.49
781.503	3724.61
781.689	3750.38
781.874	3830.59
782.06	3715.31
782.246	3762.78
782.432	3756.39
782.617	3723.84
782.803	3734.3
782.989	3669.78
783.174	3689.54
783.36	3608.56
783.545	3703.11
783.731	3650.8
783.916	3543.07
784.102	3630.65
784.288	3597.9
784.473	3632.78
784.659	3573.1
784.844	3644.98
785.029	3612.24
785.215	3526.99
785.4	3575.04
785.586	3607.2
785.771	3551.21
785.956	3594.41
786.142	3529.12
786.327	3560.9
786.512	3491.34
786.698	3508.97
786.883	3442.9
787.068	3511.49
787.254	3484.75
787.439	3481.65
787.624	3453.95
787.809	3424.5
787.994	3467.51
788.18	3532.61
788.365	3386.72
788.55	3381.68
788.735	3400.28
788.92	3402.6
789.105	3390.4
789.29	3441.94
789.475	3352.23
789.66	3414.81
789.845	3325.88
790.03	3313.67
790.215	3365.41
790.4	3368.7
790.585	3401.25
790.77	3341.57
790.955	3261.17
791.14	3307.48
791.325	3388.27
791.51	3222.61
791.695	3292.17
791.879	3284.81
792.064	3251.09
792.249	3311.35
792.434	3287.13
792.618	3245.67
792.803	3334.79
792.988	3298.18
793.173	3309.99
793.357	3319.68
793.542	3245.48
793.727	3298.95
793.911	3318.52
794.096	3221.65
794.281	3317.36
794.465	3394.86
794.65	3260.98
794.834	3351.84
795.019	3350.29
795.203	3344.29
795.388	3333.24
795.572	3375.48
795.757	3339.06
795.941	3350.87
796.126	3346.81
796.31	3300.69
796.494	3343.51
796.679	3317.55
796.863	3282.48
797.048	3366.57
797.232	3364.44
797.416	3344.67
797.601	3348.16
797.785	3411.52
797.969	3419.46
798.153	3363.08
798.338	3366.96
798.522	3402.8
798.706	3395.24
798.89	3382.26
799.074	3477.59
799.258	3455.5
799.443	3419.07
799.627	3393.5
799.811	3439.8
799.995	3365.02
800.179	3338.47
800.363	3323.36
800.547	3388.07
800.731	3430.5
800.915	3305.93
801.099	3343.71
801.283	3322.2
801.467	3389.04
801.651	3355.33
801.835	3404.15
802.019	3332.27
802.202	3368.51
802.386	3313.29
802.57	3305.15
802.754	3309.03
802.938	3313.09
803.121	3320.26
803.305	3421.2
803.489	3333.82
803.673	3358.24
803.856	3358.43
804.04	3331.69
804.224	3364.44
804.407	3327.82
804.591	3310.38
804.775	3332.08
804.958	3316
805.142	3403.38
805.326	3330.92
805.509	3344.87
805.693	3353.97
805.876	3358.43
806.06	3387.11
806.243	3386.91
806.427	3397.57
806.61	3427.6
806.794	3375.87
806.977	3425.85
807.16	3383.04
807.344	3365.41
807.527	3301.47
807.71	3332.27
807.894	3339.64
808.077	3354.94
808.26	3298.56
808.444	3281.9
808.627	3389.24
808.81	3284.03
808.993	3215.45
809.177	3186.58
809.36	3277.25
809.543	3266.21
809.726	3180.96
809.909	3168.75
810.092	3125.35
810.276	3161.78
810.459	3158.68
810.642	3174.37
810.825	3095.32
811.008	3154.41
811.191	3021.89
811.374	3035.45
811.557	3057.93
811.74	3091.25
811.923	3018.21
812.106	3035.84
812.289	2965.32
812.472	2988.57
812.654	2977.52
812.837	2920.95
813.02	2850.43
813.203	2864.18
813.386	2755.88
813.569	2746.38
813.751	2685.35
813.934	2702.21
814.117	2667.14
814.3	2618.32
814.482	2596.42
814.665	2526.87
814.848	2506.33
815.03	2443.36
815.213	2457.89
815.396	2409.84
815.578	2391.44
815.761	2356.56
815.943	2403.26
816.126	2280.23
816.309	2312.78
816.491	2157.59
816.674	2145.19
816.856	2197.88
817.039	2181.61
817.221	2283.91
817.403	2218.23
817.586	2206.8
817.768	2209.9
817.951	2162.62
818.133	2148.29
818.315	2162.82
818.498	2222.88
818.68	2251.17
818.862	2221.33
819.045	2262.4
819.227	2268.21
819.409	2211.25
819.591	2232.18
819.774	2232.37
819.956	2210.87
820.138	2291.08
820.32	2249.23
820.502	2314.33
820.684	2397.44
820.866	2370.71
821.048	2410.81
821.231	2415.46
821.413	2404.03
821.595	2420.89
821.777	2386.79
821.959	2407.13
822.141	2474.36
822.323	2352.49
822.505	2254.46
822.686	2252.52
822.868	2125.62
823.05	2025.26
823.232	2008.59
823.414	1886.53
823.596	1986.12
823.778	1961.51
823.96	2004.72
824.141	2009.76
824.323	2022.35
824.505	2113.99
824.687	2152.94
824.868	2217.65
825.05	2296.89
825.232	2329.25
825.413	2406.94
825.595	2363.54
825.777	2292.63
825.958	2352.3
826.14	2300.76
826.321	2360.63
826.503	2355.79
826.685	2373.03
826.866	2392.79
827.048	2340.87
827.229	2347.46
827.411	2282.16
827.592	2218.62
827.773	2239.73
827.955	2157.78
828.136	2142.67
828.318	2127.94
828.499	2188.78
828.68	2123.49
828.862	2160.49
829.043	2166.69
829.224	2115.93
829.406	2080.86
829.587	2064.01
829.768	2090.55
829.949	2142.28
830.131	2117.87
830.312	2195.17
830.493	2094.23
830.674	2130.85
830.855	2122.52
831.036	2102.95
831.218	2206.99
831.399	2172.7
831.58	2144.41
831.761	2155.84
831.942	2105.08
832.123	2124.45
832.304	2069.62
832.485	2067.88
832.666	2092.1
832.847	2122.52
833.028	2090.35
833.209	2108.37
833.389	2073.5
833.57	2033.78
833.751	2057.22
833.932	2125.42
834.113	2088.42
834.294	2097.72
834.475	2137.63
834.655	2133.95
834.836	2124.26
835.017	2121.16
835.198	2112.64
835.378	2156.81
835.559	2174.44
835.74	2127.17
835.92	2129.69
836.101	2077.37
836.281	2135.5
836.462	2168.63
836.643	2170.37
836.823	2168.44
837.004	2147.7
837.184	2195.37
837.365	2194.4
837.545	2182.97
837.726	2145.38
837.906	2199.24
838.087	2160.88
838.267	2157.59
838.448	2126.2
838.628	2161.46
838.808	2136.66
838.989	2195.56
839.169	2096.55
839.349	2163.98
839.53	2167.66
839.71	2171.15
839.89	2101.59
840.07	2192.07
840.251	2120.77
840.431	2198.27
840.611	2172.5
840.791	2079.51
840.971	2160.88
841.151	2112.25
841.332	2095.78
841.512	2171.73
841.692	2074.47
841.872	2150.61
842.052	2120.97
842.232	2146.74
842.412	2051.8
842.592	2066.14
842.772	2139.57
842.952	2132.98
843.132	2089.39
843.312	2103.72
843.492	2087.64
843.672	2107.21
843.851	2014.79
844.031	2077.96
844.211	2044.24
844.391	2018.86
844.571	2066.52
844.751	2110.7
844.93	2087.45
845.11	2029.32
845.29	2045.02
845.47	2069.82
845.649	2070.4
845.829	2065.75
846.009	2053.93
846.188	2078.54
846.368	2051.61
846.547	2052.57
846.727	2067.69
846.907	1963.84
847.086	2005.88
847.266	2010.72
847.445	2010.14
847.625	1985.73
847.804	2003.36
847.984	2013.24
848.163	1996.39
848.343	2009.56
848.522	1999.88
848.701	1961.51
848.881	1957.83
849.06	1958.61
849.239	2019.64
849.419	2027
849.598	1923.73
849.777	1890.21
849.957	1893.12
850.136	1820.66
850.315	1802.25
850.494	1821.24
850.674	1805.55
850.853	1858.83
851.032	1839.45
851.211	1895.83
851.39	1901.45
851.569	1784.23
851.748	1839.65
851.927	1859.41
852.107	1855.34
852.286	1814.85
852.465	1822.4
852.644	1874.91
852.823	1854.95
853.002	1837.51
853.181	1832.28
853.359	1855.34
853.538	1796.25
853.717	1846.62
853.896	1727.85
854.075	1645.12
854.254	1684.26
854.433	1562.39
854.611	1569.95
854.79	1538.18
854.969	1604.05
855.148	1616.06
855.327	1583.12
855.505	1630.98
855.684	1656.36
855.863	1667.4
856.041	1645.71
856.22	1674.57
856.399	1673.6
856.577	1802.25
856.756	1761.95
856.934	1844.68
857.113	1883.43
857.291	1763.31
857.47	1707.32
857.648	1789.27
857.827	1780.36
858.005	1792.37
858.184	1750.91
858.362	1833.06
858.541	1752.85
858.719	1759.43
858.898	1771.25
859.076	1741.61
859.254	1773.77
859.433	1715.45
859.611	1720.69
859.789	1656.17
859.967	1737.74
860.146	1748.2
860.324	1691.24
860.502	1657.52
860.68	1663.14
860.859	1677.87
861.037	1712.35
861.215	1686.39
861.393	1702.67
861.571	1667.99
861.749	1666.44
861.927	1691.82
862.105	1669.92
862.283	1660.24
862.461	1637.37
862.639	1631.95
862.817	1658.88
862.995	1677.67
863.173	1614.9
863.351	1673.02
863.529	1650.16
863.707	1723.2
863.885	1657.72
864.063	1583.51
864.241	1614.71
864.418	1678.06
864.596	1602.31
864.774	1546.51
864.952	1639.51
865.129	1591.65
865.307	1554.84
865.485	1528.29
865.663	1623.23
865.84	1504.08
866.018	1554.45
866.196	1401.39
866.373	1393.83
866.551	1403.71
866.728	1307.03
866.906	1394.03
867.084	1383.57
867.261	1452.73
867.439	1454.09
867.616	1521.71
867.794	1475.98
867.971	1500.98
868.149	1490.9
868.326	1543.79
868.503	1510.86
868.681	1507.56
868.858	1480.24
869.035	1429.48
869.213	1538.76
869.39	1494
869.567	1593.39
869.745	1471.91
869.922	1515.12
870.099	1521.71
870.276	1519.38
870.454	1494
870.631	1513.57
870.808	1498.84
870.985	1521.13
871.162	1564.14
871.339	1535.08
871.517	1438.4
871.694	1436.26
871.871	1463
872.048	1393.45
872.225	1454.48
872.402	1447.7
872.579	1426.96
872.756	1447.11
872.933	1398.68
873.11	1424.45
873.287	1438.78
873.463	1406.81
873.64	1376.78
873.817	1396.16
873.994	1407.2
874.171	1403.13
874.348	1418.25
874.524	1378.53
874.701	1388.22
874.878	1319.63
875.055	1394.61
875.231	1405.46
875.408	1395
875.585	1334.35
875.762	1374.27
875.938	1351.02
876.115	1345.98
876.291	1346.56
876.468	1348.5
876.645	1292.89
876.821	1300.06
876.998	1325.63
877.174	1335.32
877.351	1311.49
877.527	1328.93
877.704	1354.89
877.88	1323.12
878.057	1314.59
878.233	1352.95
878.409	1286.3
878.586	1346.56
878.762	1302
878.938	1295.8
879.115	1232.25
879.291	1300.06
879.467	1249.3
879.644	1268.67
879.82	1319.05
879.996	1265.77
880.172	1198.15
880.349	1291.54
880.525	1282.43
880.701	1219.27
880.877	1225.08
881.053	1268.29
881.229	1265.57
881.405	1267.12
881.581	1224.5
881.757	1225.85
881.933	1274.68
882.109	1277.78
882.285	1252.98
882.461	1177.22
882.637	1258.99
882.813	1200.09
882.989	1221.59
883.165	1301.42
883.341	1202.99
883.517	1290.95
883.693	1236.7
883.869	1279.91
884.044	1200.28
884.22	1252.2
884.396	1296.38
884.572	1286.11
884.747	1309.75
884.923	1284.17
885.099	1237.67
885.275	1291.54
885.45	1200.28
885.626	1238.06
885.801	1234.96
885.977	1263.25
886.153	1161.92
886.328	1255.5
886.504	1181.87
886.679	1254.72
886.855	1222.56
887.03	1245.04
887.206	1264.02
887.381	1235.93
887.557	1220.43
887.732	1251.24
887.908	1251.43
888.083	1276.62
888.258	1215.97
888.434	1185.36
888.609	1248.52
888.784	1284.17
888.96	1241.74
889.135	1227.79
889.31	1200.47
889.485	1251.82
889.661	1210.74
889.836	1280.69
890.011	1246.97
890.186	1210.36
890.361	1223.14
890.537	1246.97
890.712	1251.82
890.887	1226.63
891.062	1241.35
891.237	1303.16
891.412	1222.56
891.587	1239.42
891.762	1273.13
891.937	1305.68
892.112	1196.41
892.287	1211.32
892.462	1191.56
892.637	1182.07
892.812	1147
892.987	1157.85
893.161	1161.92
893.336	1177.42
893.511	1150.29
893.686	1171.61
893.861	1145.84
894.035	1160.37
894.21	1114.45
894.385	1121.23
894.56	1121.23
894.734	1074.34
894.909	1043.54
895.084	1068.73
895.258	1035.79
895.433	1060.78
895.608	1024.16
895.782	967.59
895.957	1012.35
896.131	1006.34
896.306	941.63
896.48	946.08
896.655	941.82
896.829	881.37
897.004	901.13
897.178	879.24
897.353	860.64
897.527	936.78
897.701	876.92
897.876	825.57
898.05	948.22
898.224	900.94
898.399	943.76
898.573	891.25
898.747	796.32
898.921	851.73
899.096	741.68
899.27	745.56
899.444	741.1
899.618	758.92
899.792	792.25
899.967	820.92
900.141	827.12
900.315	769
900.489	793.6
900.663	802.52
900.837	782.56
901.011	754.86
901.185	840.88
901.359	779.46
901.533	806.59
901.707	817.24
901.881	773.84
902.055	715.14
902.229	789.92
902.403	852.7
902.576	825.57
902.75	807.17
902.924	896.87
903.098	845.34
903.272	865.29
903.446	904.04
903.619	902.88
903.793	954.61
903.967	897.65
904.14	987.55
904.314	956.35
904.488	926.13
904.661	963.91
904.835	942.21
905.009	957.32
905.182	985.22
905.356	970.69
905.529	967.01
905.703	945.12
905.876	914.7
906.05	912.95
906.223	880.02
906.397	853.86
906.57	814.92
906.744	807.36
906.917	805.81
907.09	795.74
907.264	804.07
907.437	734.71
907.61	750.59
907.784	744.78
907.957	757.18
908.13	727.34
908.304	789.34
908.477	697.7
908.65	735.87
908.823	687.82
908.996	761.25
909.17	694.02
909.343	690.73
909.516	726.18
909.689	682.01
909.862	664.96
910.035	700.8
910.208	666.31
910.381	676.39
910.554	779.65
910.727	679.88
910.9	668.06
911.073	697.12
911.246	748.66
911.419	749.43
911.592	716.69
911.765	678.33
911.938	671.74
912.11	689.95
912.283	690.14
912.456	749.62
912.629	701.19
912.802	658.95
912.974	615.55
913.147	582.81
913.32	552.2
913.493	573.7
913.665	600.63
913.838	601.02
914.01	623.49
914.183	630.08
914.356	617.29
914.528	682.98
914.701	694.79
914.873	675.23
915.046	609.93
915.218	587.26
915.391	518.1
915.563	500.27
915.736	601.02
915.908	610.13
916.081	609.93
916.253	582.23
916.425	608.58
916.598	623.88
916.77	596.56
916.942	584.75
917.115	528.56
917.287	582.61
917.459	596.95
917.632	509.77
917.804	490.58
917.976	559.75
918.148	554.71
918.32	558.01
918.493	624.85
918.665	675.81
918.837	613.03
919.009	686.27
919.181	688.98
919.353	615.55
919.525	618.84
919.697	608.77
919.869	615.16
920.041	647.52
920.213	713.2
920.385	651.2
920.557	620.2
920.729	626.98
920.901	646.94
921.073	624.08
921.244	623.88
921.416	671.54
921.588	604.51
921.76	600.44
921.932	631.44
922.103	586.88
922.275	599.28
922.447	631.63
922.619	548.9
922.79	606.83
922.962	577.19
923.134	607.22
923.305	569.83
923.477	550.06
923.648	553.94
923.82	571.76
923.991	524.68
924.163	483.03
924.335	580.48
924.506	486.71
924.677	579.9
924.849	527.2
925.02	522.16
925.192	560.72
925.363	542.51
925.535	547.55
925.706	497.95
925.877	573.12
926.049	526.81
926.22	543.28
926.391	558.98
926.562	571.18
926.734	512.67
926.905	548.32
927.076	501.82
927.247	524.88
927.419	458.81
927.59	465.98
927.761	454.93
927.932	454.74
928.103	452.22
928.274	422.58
928.445	391.97
928.616	416.19
928.787	410.76
928.958	428.59
929.129	404.17
929.3	387.51
929.471	350.12
929.642	324.93
929.813	280.56
929.984	348.95
930.155	253.05
930.326	320.09
930.496	296.64
930.667	249.95
930.838	274.94
931.009	235.23
931.18	242.01
931.35	245.3
931.521	239.49
931.692	194.93
931.863	151.14
932.033	199.58
932.204	228.83
932.374	185.04
932.545	144.94
932.716	206.16
932.886	207.13
933.057	127.31
933.227	127.11
933.398	232.13
933.568	109.87
933.739	69.96
933.909	85.65
934.08	133.9
934.25	69.57
934.421	86.23
934.591	137.58
934.761	97.66
934.932	54.27
935.102	114.71
935.272	101.35
935.443	98.05
935.613	89.72
935.783	102.12
935.953	75.58
936.123	233.29
936.294	74.22
936.464	99.21
936.634	75.38
936.804	50.78
936.974	30.82
937.144	101.54
937.314	92.43
937.484	82.55
937.655	66.08
937.825	140.1
937.995	68.8
938.165	120.14
938.334	104.25
938.504	141.45
938.674	100.38
938.844	126.53
939.014	166.25
939.184	182.72
939.354	240.65
939.524	190.08
939.694	148.62
939.863	171.68
940.033	214.49
940.203	229.61
940.373	177.88
940.542	189.89
940.712	149.98
940.882	167.41
941.051	220.5
941.221	187.18
941.391	201.51
941.56	166.45
941.73	125.18
941.899	273.59
942.069	163.93
942.238	170.9
942.408	163.73
942.577	180.2
942.747	145.13
942.916	74.42
943.086	132.15
943.255	171.68
943.425	147.46
943.594	104.06
943.763	71.51
943.933	68.41
944.102	40.9
944.271	131.38
944.441	119.75
944.61	118.4
944.779	130.8
944.948	215.66
945.117	81.2
945.287	116.65
945.456	40.51
945.625	112.58
945.794	122.46
945.963	97.86
946.132	132.54
946.301	95.53
946.47	137.19
946.639	88.75
946.808	95.92
946.977	134.09
947.146	172.45
947.315	107.74
947.484	180.2
947.653	130.02
947.822	109.1
947.991	67.44
948.16	161.6
948.329	173.42
948.498	111.61
948.666	125.18
948.835	161.02
949.004	79.45
949.173	90.88
949.341	116.07
949.51	133.12
949.679	137
949.847	133.31
950.016	215.46
950.185	180.2
950.353	107.16
950.522	116.85
950.69	145.91
950.859	108.71
951.028	155.79
951.196	124.98
951.365	110.45
951.533	107.35
951.701	159.47
951.87	174
952.038	77.71
952.207	124.98
952.375	151.72
952.543	92.05
952.712	118.4
952.88	102.31
953.048	190.86
953.217	138.35
953.385	106.38
953.553	179.81
953.721	98.83
953.89	100.38
954.058	91.46
954.226	113.16
954.394	122.85
954.562	74.22
954.73	87.59
954.898	103.28
955.067	142.23
955.235	86.23
955.403	163.73
955.571	190.08
955.739	137.96
955.907	103.67
956.075	87.59
956.243	92.82
956.41	107.55
956.578	78.29
956.746	88.95
956.914	87.59
957.082	125.95
957.25	154.24
957.418	90.5
957.585	106.19
957.753	169.54
957.921	105.61
958.089	104.06
958.256	124.01
958.424	130.02
958.592	147.26
958.759	82.94
958.927	144.16
959.095	110.65
959.262	116.65
959.43	118.2
959.597	67.25
959.765	129.83
959.932	84.88
960.1	128.86
960.267	114.52
960.435	126.92
960.602	137.19
960.77	90.88
960.937	75.19
961.104	129.44
961.272	68.41
961.439	75.19
961.606	147.85
961.774	148.04
961.941	113.55
962.108	164.51
962.275	131.76
962.443	142.03
962.61	137.19
962.777	192.21
962.944	174.19
963.111	142.42
963.278	146.3
963.446	154.05
963.613	123.43
963.78	137
963.947	146.88
964.114	150.36
964.281	189.89
964.448	157.15
964.615	122.85
964.782	147.07
964.949	168.77
965.116	152.88
965.282	182.53
965.449	135.64
965.616	102.51
965.783	147.46
965.95	148.62
966.117	98.83
966.283	110.45
966.45	143.2
966.617	102.51
966.784	185.24
966.95	177.88
967.117	143.58
967.284	101.73
967.45	137.38
967.617	191.83
967.784	161.6
967.95	203.84
968.117	133.31
968.283	194.73
968.45	237.94
968.616	142.42
968.783	174.39
968.949	172.84
969.116	177.49
969.282	140.48
969.449	151.14
969.615	158.5
969.781	103.48
969.948	133.31
970.114	119.17
970.28	206.94
970.447	154.43
970.613	199.96
970.779	130.8
970.945	165.48
971.112	146.1
971.278	116.26
971.444	142.61
971.61	177.1
971.776	135.06
971.942	180.59
972.108	180.01
972.275	163.54
972.441	180.2
972.607	221.08
972.773	125.95
972.939	150.75
973.105	136.61
973.271	108.32
973.437	132.93
973.602	118.78
973.768	177.88
973.934	116.46
974.1	151.91
974.266	76.74
974.432	148.43
974.598	94.95
974.763	166.83
974.929	122.46
975.095	185.04
975.261	109.48
975.426	100.38
975.592	135.45
975.758	203.84
975.923	77.13
976.089	100.96
976.255	157.53
976.42	127.7
976.586	132.73
976.751	123.82
976.917	213.91
977.082	140.87
977.248	94.76
977.413	67.05
977.579	95.34
977.744	122.46
977.91	72.67
978.075	119.75
978.24	140.1
978.406	127.89
978.571	104.83
978.736	112.78
978.902	155.6
979.067	83.52
979.232	87.01
979.397	102.31
979.563	180.01
979.728	100.18
979.893	131.76
980.058	117.04
980.223	169.54
980.388	120.72
980.554	127.89
980.719	106.77
980.884	113.75
981.049	150.17
981.214	105.03
981.379	149.98
981.544	100.76
981.709	108.71
981.874	103.86
982.039	136.41
982.204	141.06
982.368	130.21
982.533	115.49
982.698	131.18
982.863	174
983.028	89.91
983.193	140.1
983.357	123.05
983.522	123.43
983.687	115.88
983.852	121.5
984.016	105.03
984.181	119.56
984.346	143.58
984.51	146.3
984.675	139.9
984.839	144.16
985.004	144.94
985.168	158.5
985.333	147.26
985.498	126.53
985.662	115.68
985.827	128.66
985.991	134.67
986.155	119.95
986.32	114.71
986.484	185.82
986.649	145.52
986.813	60.27
986.977	129.44
987.142	147.26
987.306	70.15
987.47	86.23
987.634	117.43
987.799	125.95
987.963	120.33
988.127	123.63
988.291	191.44
988.455	115.88
988.62	96.5
988.784	120.72
988.948	122.66
989.112	70.54
989.276	122.08
989.44	87.4
989.604	100.18
989.768	104.83
989.932	192.41
990.096	79.65
990.26	87.01
990.424	67.83
990.588	118.98
990.752	180.59
990.915	154.63
991.079	93.4
991.243	91.27
991.407	177.68
991.571	105.61
991.734	130.02
991.898	128.86
992.062	193.38
992.226	86.62
992.389	69.77
992.553	46.52
992.717	71.12
992.88	82.16
993.044	109.87
993.207	82.94
993.371	143
993.535	119.56
993.698	102.12
993.862	126.15
994.025	129.83
994.189	75.19
994.352	95.73
994.515	114.52
994.679	155.21
994.842	89.91
995.006	132.15
995.169	55.04
995.332	83.91
995.496	126.15
995.659	58.92
995.822	91.66
995.985	75.19
996.149	134.28
996.312	64.15
996.475	147.46
996.638	77.9
996.801	157.34
996.964	160.25
997.128	69.18
997.291	78.29
997.454	101.93
997.617	43.03
997.78	125.18
997.943	70.15
998.106	115.49
998.269	71.32
998.432	89.72
998.595	77.52
998.758	32.57
998.92	38.38
999.083	31.4
999.246	93.21
999.409	26.95
999.572	25.98
999.735	72.87
999.897	113.75
1000.06	53.1
1000.223	74.8
1000.386	80.61
1000.548	89.33
1000.711	85.65
1000.874	77.32
1001.036	32.18
1001.199	103.09
1001.361	36.25
1001.524	100.57
1001.687	111.42
1001.849	52.91
1002.012	96.11
1002.174	107.55
1002.337	101.73
1002.499	63.95
1002.661	118.4
1002.824	43.42
1002.986	58.14
1003.149	38.96
1003.311	38.77
1003.473	137
1003.636	18.42
1003.798	78.87
1003.96	112.78
1004.123	87.59
1004.285	55.23
1004.447	68.22
1004.609	83.71
1004.771	116.46
1004.933	26.17
1005.096	50.78
1005.258	25.98
1005.42	56.01
1005.582	137.58
1005.744	93.21
1005.906	26.56
1006.068	66.86
1006.23	40.9
1006.392	5.44
1006.554	33.53
1006.716	112.97
1006.878	60.27
1007.04	22.88
1007.202	48.26
1007.363	79.07
1007.525	72.48
1007.687	84.49
1007.849	91.66
1008.011	23.46
1008.172	4.47
1008.334	28.11
1008.496	83.33
1008.658	-1.34
1008.819	27.14
1008.981	-2.5
1009.143	19.58
1009.304	56.2
1009.466	69.96
1009.627	115.49
1009.789	168.38
1009.95	72.87
1010.112	28.88
1010.273	58.33
1010.435	26.75
1010.596	56.98
1010.758	34.7
1010.919	50.39
1011.081	27.33
1011.242	47.29
1011.403	79.84
1011.565	51.17
1011.726	62.4
1011.887	14.16
1012.049	14.74
1012.21	85.85
1012.371	116.65
1012.532	-37.96
1012.693	40.9
1012.855	14.55
1013.016	39.73
1013.177	120.14
1013.338	37.99
1013.499	102.7
1013.66	67.83
1013.821	54.46
1013.982	50.58
1014.143	36.83
1014.304	28.88
1014.465	77.32
1014.626	64.73
1014.787	32.18
1014.948	116.46
1015.109	-1.92
1015.27	70.35
1015.431	25.98
1015.592	28.88
1015.752	95.34
1015.913	61.24
1016.074	63.37
1016.235	50.97
1016.395	39.15
1016.556	43.03
1016.717	66.67
1016.877	80.61
1017.038	25.59
1017.199	64.15
1017.359	50.78
1017.52	50.39
1017.681	-0.95
1017.841	42.83
1018.002	74.61
1018.162	15.71
1018.323	93.01
1018.483	9.51
1018.644	13
1018.804	2.73
1018.964	6.6
1019.125	-4.25
1019.285	24.43
1019.446	20.36
1019.606	0.6
1019.766	-19.36
1019.926	66.08
1020.087	25.98
1020.247	-19.36
1020.407	78.1
1020.567	76.16
1020.728	27.92
1020.888	-21.49
1021.048	19.58
1021.208	-8.7
1021.368	27.14
1021.528	88.36
1021.688	73.45
1021.848	56.2
1022.008	41.67
1022.168	11.83
1022.328	37.02
1022.488	51.55
1022.648	44.19
1022.808	14.55
1022.968	54.65
1023.128	-17.42
1023.288	19.97
1023.448	70.73
1023.608	53.1
1023.767	63.76
1023.927	-4.83
1024.087	12.42
1024.247	-23.04
1024.406	16.87
1024.566	-7.15
1024.726	-40.67
1024.885	38.38
1025.045	59.69
1025.205	2.53
1025.364	38.57
1025.524	34.5
1025.683	-3.67
1025.843	37.6
1026.003	32.18
1026.162	82.94
1026.321	48.65
1026.481	27.33
1026.64	16.1
1026.8	35.47
1026.959	-6.96
1027.119	31.98
1027.278	10.28
1027.437	0.21
1027.597	-7.54
1027.756	40.12
1027.915	19.97
1028.074	56.59
1028.234	14.35
1028.393	17.45
1028.552	12.03
1028.711	-36.8
1028.87	70.93
1029.03	-8.31
1029.189	29.27
1029.348	-12
1029.507	11.83
1029.666	3.89
1029.825	2.73
1029.984	-3.47
1030.143	34.89
1030.302	-6.38
1030.461	-36.8
1030.62	9.12
1030.779	56.01
1030.938	-0.37
1031.097	-24.2
1031.255	41.28
1031.414	70.73
1031.573	67.44
1031.732	-30.98
1031.891	34.12
1032.049	51.75
1032.208	69.18
1032.367	-1.34
1032.525	-6.96
1032.684	2.73
1032.843	28.11
1033.001	-25.36
1033.16	161.6
1033.319	68.8
1033.477	38.38
1033.636	-4.44
1033.794	-36.41
1033.953	34.31
1034.111	40.32
1034.27	14.55
1034.428	36.25
1034.587	4.08
1034.745	34.7
1034.903	20.55
1035.062	46.9
1035.22	-24.01
1035.378	35.28
1035.537	-7.35
1035.695	34.12
1035.853	17.07
1036.011	49.23
1036.17	24.04
1036.328	-32.34
1036.486	-1.15
1036.644	41.67
1036.802	-35.44
1036.96	-9.67
1037.119	-1.15
1037.277	-10.83
1037.435	-34.08
1037.593	-9.67
1037.751	2.34
1037.909	35.47
1038.067	35.47
