Data from gum_old_FLMT105791__11__15-42-33-259.txt Node

Date: Mon Mar 20 15:42:33 GMT 2023
User: antho
Spectrometer: FLMT10579
Trigger mode: 0
Integration Time (sec): 1.000000E-1
Scans to average: 10
Electric dark correction enabled: true
Nonlinearity correction enabled: false
Boxcar width: 0
XAxis mode: Wavelengths
Number of Pixels in Spectrum: 3648
>>>>>Begin Spectral Data<<<<<
345.248	-177.42
345.464	-177.42
345.681	-177.42
345.898	-177.42
346.114	-174.71
346.331	-35.79
346.548	11.87
346.764	-17
346.981	17.1
347.197	6.05
347.414	18.26
347.631	-27.27
347.847	64.18
348.064	-5.18
348.28	23.1
348.497	-59.04
348.713	3.73
348.93	22.33
349.146	19.42
349.363	-0.15
349.579	37.25
349.796	28.34
350.012	22.72
350.229	37.25
350.445	38.41
350.661	13.42
350.878	39.19
351.094	43.84
351.311	48.87
351.527	30.85
351.743	10.12
351.96	79.29
352.176	73.09
352.392	51.2
352.609	59.14
352.825	-3.05
353.041	42.87
353.257	28.92
353.474	27.37
353.69	28.53
353.906	43.06
354.122	16.13
354.339	88.4
354.555	25.82
354.771	35.5
354.987	77.74
355.203	72.7
355.42	14.58
355.636	19.23
355.852	39.77
356.068	26.4
356.284	-8.09
356.5	82.39
356.716	53.52
356.932	25.04
357.148	58.37
357.364	8.77
357.58	65.92
357.796	71.73
358.012	54.1
358.228	29.5
358.444	-7.9
358.66	87.62
358.876	36.28
359.092	5.47
359.308	70.18
359.524	52.17
359.74	16.71
359.956	13.8
360.172	30.47
360.388	82.39
360.604	40.93
360.819	128.31
361.035	39.57
361.251	75.42
361.467	4.12
361.683	103.51
361.898	52.17
362.114	86.85
362.33	89.17
362.546	106.61
362.762	50.23
362.977	72.7
363.193	32.21
363.409	80.26
363.624	37.64
363.84	44.22
364.056	21.17
364.271	37.83
364.487	67.67
364.703	74.06
364.918	22.33
365.134	67.08
365.35	73.87
365.565	177.91
365.781	77.55
365.996	82
366.212	115.91
366.427	80.45
366.643	47.9
366.858	90.33
367.074	59.92
367.289	126.37
367.505	171.32
367.72	38.02
367.936	66.5
368.151	108.16
368.367	99.63
368.582	88.98
368.798	52.75
369.013	119.01
369.228	78.32
369.444	79.1
369.659	135.48
369.874	73.28
370.09	127.92
370.305	19.04
370.52	72.7
370.736	126.57
370.951	64.95
371.166	122.5
371.381	145.94
371.597	108.35
371.812	70.38
372.027	33.37
372.242	54.88
372.458	152.33
372.673	41.51
372.888	55.27
373.103	104.48
373.318	179.26
373.533	102.15
373.749	95.18
373.964	15.16
374.179	98.67
374.394	68.25
374.609	130.05
374.824	54.88
375.039	129.08
375.254	44.22
375.469	137.61
375.684	79.48
375.899	111.26
376.114	91.3
376.329	91.69
376.544	108.16
376.759	120.17
376.974	57.2
377.189	91.88
377.404	76.58
377.619	169.19
377.834	56.24
378.049	84.13
378.264	63.4
378.478	133.93
378.693	79.48
378.908	136.64
379.123	108.16
379.338	146.13
379.553	104.09
379.767	126.95
379.982	113.97
380.197	139.93
380.412	87.43
380.626	142.84
380.841	176.75
381.056	138.38
381.271	175.39
381.485	106.22
381.7	83.17
381.915	124.63
382.129	98.47
382.344	86.27
382.559	106.8
382.773	120.17
382.988	45.97
383.202	101.96
383.417	68.05
383.632	180.81
383.846	64.76
384.061	93.63
384.275	62.24
384.49	112.03
384.704	142.07
384.919	130.63
385.133	131.99
385.348	148.85
385.562	94.4
385.777	175.58
385.991	121.14
386.206	116.88
386.42	115.52
386.634	159.5
386.849	148.27
387.063	125.02
387.277	118.04
387.492	120.37
387.706	85.88
387.92	86.07
388.135	153.88
388.349	145.17
388.563	137.03
388.778	145.55
388.992	121.53
389.206	169.96
389.42	213.75
389.635	141.1
389.849	172.48
390.063	186.82
390.277	193.41
390.491	225.18
390.706	203.1
390.92	178.88
391.134	164.15
391.348	214.53
391.562	121.92
391.776	184.11
391.99	138.58
392.205	206.39
392.419	172.68
392.633	164.35
392.847	193.41
393.061	130.05
393.275	183.33
393.489	117.85
393.703	110.68
393.917	159.89
394.131	88.59
394.345	152.72
394.559	167.45
394.773	151.56
394.986	185.85
395.2	168.41
395.414	234.29
395.628	167.83
395.842	226.73
396.056	195.35
396.27	159.89
396.484	188.76
396.697	217.24
396.911	206.39
397.125	148.07
397.339	170.55
397.553	129.47
397.766	194.38
397.98	191.28
398.194	238.55
398.408	211.81
398.621	267.03
398.835	265.09
399.049	251.53
399.262	292.22
399.476	305.78
399.69	306.94
399.903	352.28
400.117	290.28
400.331	339.49
400.544	260.83
400.758	398.78
400.971	291.06
401.185	339.69
401.398	286.02
401.612	333.49
401.826	317.6
402.039	366.23
402.253	301.52
402.466	376.69
402.68	320.12
402.893	332.13
403.106	317.6
403.32	328.26
403.533	365.46
403.747	336.39
403.96	329.22
404.174	367.59
404.387	290.09
404.6	305.98
404.814	374.95
405.027	354.41
405.24	332.32
405.454	332.32
405.667	389.29
405.88	268.19
406.094	364.1
406.307	373.98
406.52	335.42
406.733	302.88
406.947	306.94
407.16	401.49
407.373	398.2
407.586	324.58
407.799	320.89
408.012	392.77
408.226	324.19
408.439	438.3
408.652	356.93
408.865	408.47
409.078	421.64
409.291	398.2
409.504	360.61
409.717	431.91
409.93	436.17
410.143	400.91
410.357	327.29
410.57	325.54
410.783	354.8
410.996	376.69
411.209	392.58
411.421	431.52
411.634	433.85
411.847	391.81
412.06	442.76
412.273	420.09
412.486	436.17
412.699	538.47
412.912	447.02
413.125	444.31
413.338	443.34
413.55	422.42
413.763	397.42
413.976	451.48
414.189	405.76
414.402	425.13
414.615	504.37
414.827	420.67
415.04	483.06
415.253	453.03
415.466	498.56
415.678	508.44
415.891	454.39
416.104	440.82
416.316	469.69
416.529	457.49
416.742	511.73
416.954	515.8
417.167	462.72
417.38	476.09
417.592	498.37
417.805	430.36
418.017	387.93
418.23	482.48
418.442	406.72
418.655	419.51
418.868	435.79
419.08	471.63
419.293	509.99
419.505	488.29
419.718	501.47
419.93	493.72
420.142	485.39
420.355	503.79
420.567	515.03
420.78	495.07
420.992	479.57
421.205	534.6
421.417	471.82
421.629	502.05
421.842	487.9
422.054	478.8
422.266	524.52
422.479	546.42
422.691	478.99
422.903	522.2
423.115	454
423.328	469.3
423.54	487.52
423.752	480.93
423.964	468.92
424.177	520.07
424.389	473.37
424.601	586.52
424.813	532.47
425.025	567.53
425.238	571.02
425.45	503.98
425.662	496.04
425.874	813.01
426.086	509.02
426.298	549.71
426.51	537.89
426.722	519.1
426.934	519.87
427.146	543.9
427.358	469.3
427.57	556.68
427.782	490.62
427.994	505.53
428.206	470.85
428.418	472.79
428.63	560.56
428.842	585.36
429.054	537.12
429.266	550.29
429.478	479.96
429.69	510.96
429.902	439.27
430.114	525.88
430.325	489.84
430.537	450.7
430.749	449.35
430.961	387.16
431.173	389.67
431.384	455.55
431.596	347.82
431.808	473.18
432.02	542.15
432.231	582.26
432.443	662.28
432.655	575.48
432.867	589.82
433.078	569.86
433.29	597.37
433.502	616.16
433.713	645.81
433.925	647.94
434.136	652.01
434.348	533.63
434.56	501.47
434.771	661.89
434.983	501.47
435.194	553
435.406	646
435.617	674.1
435.829	718.08
436.04	690.37
436.252	686.69
436.463	704.9
436.675	714.98
436.886	724.47
437.098	731.06
437.309	796.54
437.521	692.11
437.732	676.61
437.943	678.55
438.155	688.82
438.366	626.82
438.578	726.6
438.789	664.6
439	652.2
439.211	613.65
439.423	640.58
439.634	691.14
439.845	697.34
440.057	697.34
440.268	723.5
440.479	694.63
440.69	732.41
440.902	698.7
441.113	699.67
441.324	670.41
441.535	747.14
441.746	785.5
441.957	727.76
442.168	739.39
442.38	781.24
442.591	788.6
442.802	769.61
443.013	781.62
443.224	780.27
443.435	745.2
443.646	760.31
443.857	763.03
444.068	748.49
444.279	721.56
444.49	854.28
444.701	792.09
444.912	904.85
445.123	862.03
445.334	799.06
445.545	829.48
445.756	798.87
445.967	758.57
446.178	792.67
446.388	825.8
446.599	833.74
446.81	802.74
447.021	750.82
447.232	815.53
447.443	849.63
447.653	834.13
447.864	892.45
448.075	842.27
448.286	877.92
448.496	857.57
448.707	873.46
448.918	827.54
449.129	900.59
449.339	853.7
449.55	857.77
449.761	842.66
449.971	886.05
450.182	830.84
450.393	886.05
450.603	848.66
450.814	906.59
451.024	907.17
451.235	928.29
451.446	991.84
451.656	970.72
451.867	886.83
452.077	904.27
452.288	961.62
452.498	935.07
452.709	879.47
452.919	901.17
453.13	816.31
453.34	904.46
453.55	799.26
453.761	924.42
453.971	865.9
454.182	880.24
454.392	902.91
454.602	993.97
454.813	927.32
455.023	915.89
455.233	864.55
455.444	934.69
455.654	806.42
455.864	903.69
456.075	898.45
456.285	882.95
456.495	943.02
456.705	911.24
456.916	956.38
457.126	991.26
457.336	922.09
457.546	873.65
457.756	912.99
457.967	953.67
458.177	929.07
458.387	928.68
458.597	867.65
458.807	918.99
459.017	914.54
459.227	923.06
459.437	896.32
459.647	989.32
459.857	963.17
460.068	910.85
460.278	990.87
460.488	968.98
460.698	1015.28
460.908	955.22
461.117	950.96
461.327	941.08
461.537	968.01
461.747	993.2
461.957	975.18
462.167	1093.56
462.377	1023.62
462.587	981.57
462.797	1056.94
463.007	1018.38
463.216	1053.45
463.426	1072.05
463.636	1050.93
463.846	960.07
464.056	980.02
464.265	1014.32
464.475	953.67
464.685	1007.92
464.895	1022.07
465.104	979.44
465.314	1035.05
465.524	1000.75
465.733	985.83
465.943	1088.52
466.153	1107.7
466.362	1087.16
466.572	1067.01
466.782	1019.74
466.991	1048.61
467.201	1107.51
467.41	964.13
467.62	1046.28
467.829	1063.72
468.039	1052.29
468.249	1074.76
468.458	1053.06
468.668	1079.22
468.877	1104.02
469.086	1143.93
469.296	1142.96
469.505	1073.6
469.715	1144.71
469.924	1121.65
470.134	1164.66
470.343	1140.06
470.552	1077.48
470.762	1088.71
470.971	1095.11
471.18	1115.26
471.39	1125.14
471.599	1099.76
471.808	1138.51
472.018	1135.41
472.227	1202.25
472.436	1280.14
472.645	1187.33
472.855	1190.43
473.064	1286.92
473.273	1253.21
473.482	1256.31
473.691	1279.17
473.901	1235.77
474.11	1224.14
474.319	1352.6
474.528	1238.67
474.737	1352.99
474.946	1285.95
475.155	1299.51
475.364	1370.04
475.573	1351.82
475.783	1336.9
475.992	1346.79
476.201	1374.69
476.41	1324.7
476.619	1302.03
476.828	1333.03
477.037	1282.27
477.245	1326.25
477.454	1369.84
477.663	1353.95
477.872	1368.87
478.081	1455.67
478.29	1380.11
478.499	1483.57
478.708	1484.73
478.917	1483.76
479.125	1423.7
479.334	1478.73
479.543	1460.32
479.752	1485.9
479.961	1488.22
480.169	1548.28
480.378	1479.11
480.587	1679.26
480.796	1562.62
481.004	1517.48
481.213	1524.45
481.422	1554.68
481.63	1598.85
481.839	1588.39
482.048	1638.57
482.256	1606.41
482.465	1651.36
482.674	1667.05
482.882	1670.54
483.091	1723.04
483.299	1661.82
483.508	1698.05
483.716	1693.4
483.925	1703.86
484.134	1660.46
484.342	1694.56
484.551	1699.21
484.759	1698.24
484.967	1741.06
485.176	1747.84
485.384	1754.04
485.593	1713.74
485.801	1735.64
486.01	1686.42
486.218	1566.49
486.426	1463.81
486.635	1489.96
486.843	1434.55
487.051	1532.2
487.26	1533.36
487.468	1620.94
487.676	1645.16
487.885	1634.89
488.093	1719.56
488.301	1754.24
488.509	1734.09
488.717	1793.95
488.926	1769.93
489.134	1750.55
489.342	1735.25
489.55	1767.22
489.758	1763.54
489.967	1784.65
490.175	1895.67
490.383	1899.16
490.591	1970.46
490.799	1864.09
491.007	1947.6
491.215	1931.9
491.423	1856.15
491.631	1947.6
491.839	1877.65
492.047	1883.08
492.255	1815.46
492.463	1810.23
492.671	1790.66
492.879	1877.85
493.087	1829.6
493.295	1900.9
493.503	1911.17
493.711	1934.03
493.919	1971.23
494.127	1988.09
494.334	1980.15
494.542	1953.41
494.75	1986.35
494.958	1963.29
495.166	2054.54
495.374	2053.77
495.581	2054.74
495.789	2046.41
495.997	2081.28
496.205	1968.71
496.412	1978.79
496.62	2005.33
496.828	2017.54
497.035	2024.13
497.243	2062.29
497.451	2046.21
497.658	2053.19
497.866	2061.52
498.074	2132.24
498.281	2014.24
498.489	2101.82
498.696	2054.93
498.904	1990.41
499.112	1987.31
499.319	2070.43
499.527	2046.79
499.734	2108.99
499.942	2006.69
500.149	2018.31
500.357	2057.84
500.564	2015.21
500.771	2077.21
500.979	1992.93
501.186	1935.78
501.394	2070.24
501.601	1950.11
501.808	2002.81
502.016	1996.23
502.223	1969.49
502.43	2032.65
502.638	1988.09
502.845	2009.21
503.052	2114.02
503.26	2073.14
503.467	2170.4
503.674	2080.51
503.881	2094.65
504.089	2133.98
504.296	2126.04
504.503	2086.32
504.71	2063.46
504.917	2065.98
505.125	2062.1
505.332	2150.45
505.539	2129.72
505.746	2206.25
505.953	2215.94
506.16	2161.11
506.367	2235.31
506.574	2283.75
506.781	2250.81
506.988	2208.19
507.195	2210.51
507.402	2168.85
507.609	2232.6
507.816	2190.55
508.023	2171.37
508.23	2151.03
508.437	2100.27
508.644	2182.61
508.851	2242.09
509.058	2224.65
509.265	2217.1
509.472	2253.91
509.679	2281.62
509.885	2204.5
510.092	2240.93
510.299	2239.96
510.506	2245
510.713	2185.71
510.92	2206.64
511.126	2263.21
511.333	2268.83
511.54	2229.89
511.746	2297.31
511.953	2341.29
512.16	2346.52
512.367	2271.15
512.573	2283.55
512.78	2263.02
512.987	2265.92
513.193	2254.68
513.4	2151.61
513.606	2216.71
513.813	2242.67
514.02	2199.47
514.226	2261.27
514.433	2283.17
514.639	2203.34
514.846	2239.77
515.052	2170.02
515.259	2230.47
515.465	2246.94
515.672	2248.1
515.878	2387.79
516.085	2290.72
516.291	2309.71
516.497	2300.8
516.704	2261.27
516.91	2195.2
517.117	2089.61
517.323	2005.72
517.529	2036.33
517.736	2034.01
517.942	2024.71
518.148	2083.8
518.354	2120.22
518.561	2125.84
518.767	2147.35
518.973	2126.62
519.179	2212.45
519.386	2181.25
519.592	2184.55
519.798	2174.09
520.004	2316.1
520.21	2230.47
520.417	2330.25
520.623	2340.71
520.829	2383.33
521.035	2386.24
521.241	2349.23
521.447	2411.04
521.653	2504.23
521.859	2391.28
522.065	2428.28
522.271	2528.84
522.477	2452.69
522.683	2535.81
522.889	2451.34
523.095	2415.5
523.301	2406.2
523.507	2410.65
523.713	2455.6
523.919	2400.19
524.125	2508.3
524.331	2501.13
524.537	2566.62
524.742	2586.57
524.948	2580.57
525.154	2586.57
525.36	2678.02
525.566	2593.94
525.772	2621.64
525.977	2576.5
526.183	2579.6
526.389	2623
526.595	2567.2
526.8	2521.09
527.006	2410.65
527.212	2359.89
527.417	2351.17
527.623	2370.16
527.829	2419.56
528.034	2473.62
528.24	2511.79
528.446	2561.77
528.651	2619.7
528.857	2604.4
529.062	2699.33
529.268	2692.94
529.473	2698.37
529.679	2731.11
529.884	2802.21
530.09	2772.18
530.295	2769.86
530.501	2765.4
530.706	2750.29
530.912	2703.6
531.117	2775.86
531.323	2798.73
531.528	2846.78
531.733	2834.38
531.939	2803.96
532.144	2808.61
532.35	2822.75
532.555	2815
532.76	2773.73
532.966	2799.11
533.171	2725.88
533.376	2658.07
533.581	2668.92
533.787	2740.99
533.992	2767.15
534.197	2767.73
534.402	2790.98
534.607	2787.68
534.813	2837.86
535.018	2787.1
535.223	2801.63
535.428	2832.83
535.633	2887.08
535.838	2875.45
536.043	2865.18
536.249	2996.35
536.454	2870.99
536.659	2938.42
536.864	2905.29
537.069	2895.79
537.274	2848.33
537.479	2851.81
537.684	2858.4
537.889	2765.98
538.094	2942.1
538.299	2862.66
538.504	2872.93
538.708	2882.81
538.913	2957.21
539.118	2901.03
539.323	2935.13
539.528	2857.63
539.733	2858.01
539.938	2872.74
540.142	2854.91
540.347	2809.77
540.552	2782.26
540.757	2777.03
540.962	2789.62
541.166	2709.6
541.371	2706.12
541.576	2784.39
541.781	2701.66
541.985	2845.61
542.19	2821.4
542.395	2913.23
542.599	2932.03
542.804	2876.61
543.008	2904.9
543.213	2846.78
543.418	2806.48
543.622	2878.74
543.827	2830.5
544.031	2910.33
544.236	2895.21
544.44	2921.95
544.645	3021.15
544.849	2963.99
545.054	2976.78
545.258	3042.46
545.463	3009.14
545.667	2920.21
545.872	2951.79
546.076	2958.57
546.281	2950.43
546.485	2955.27
546.689	2954.31
546.894	3012.62
547.098	2991.31
547.302	2936.48
547.507	2925.63
547.711	2979.3
547.915	3030.84
548.119	2862.08
548.324	2890.18
548.528	2964.19
548.732	2912.84
548.936	2942.49
549.141	2957.6
549.345	2940.74
549.549	2929.51
549.753	2980.85
549.957	3057.77
550.161	3014.17
550.366	2994.8
550.57	2939.97
550.774	2929.31
550.978	2947.14
551.182	2969.61
551.386	2965.93
551.59	2918.85
551.794	2940.16
551.998	2993.06
552.202	2948.69
552.406	2903.16
552.61	2956.05
552.814	2980.85
553.018	3014.95
553.222	2976.2
553.426	2946.36
553.63	3018.82
553.833	2974.26
554.037	2900.44
554.241	2927.76
554.445	2933.19
554.649	2972.52
554.853	2935.51
555.056	2983.95
555.26	2974.65
555.464	2980.46
555.668	2986.86
555.871	3011.27
556.075	3004.87
556.279	2913.43
556.483	2893.66
556.686	2887.85
556.89	2923.31
557.094	2936.09
557.297	2850.65
557.501	2926.41
557.704	2807.25
557.908	2923.5
558.112	2839.41
558.315	2942.88
558.519	2850.46
558.722	2833.21
558.926	2845.23
559.129	2780.13
559.333	2756.88
559.536	2766.57
559.74	2761.72
559.943	2746.03
560.147	2753.2
560.35	2752.42
560.553	2758.04
560.757	2722.2
560.96	2812.87
561.164	2786.71
561.367	2856.66
561.57	2778
561.774	2809.96
561.977	2746.8
562.18	2743.51
562.384	2785.55
562.587	2688.48
562.79	2754.55
562.993	2732.66
563.197	2750.68
563.4	2832.83
563.603	2806.67
563.806	2871.58
564.009	2761.92
564.212	2778.77
564.416	2663.1
564.619	2735.37
564.822	2674.34
565.025	2759.59
565.228	2730.14
565.431	2709.22
565.634	2631.33
565.837	2655.74
566.04	2635.59
566.243	2603.04
566.446	2547.82
566.649	2644.5
566.852	2608.85
567.055	2612.54
567.258	2645.86
567.461	2699.72
567.664	2638.5
567.867	2569.72
568.07	2663.49
568.273	2629
568.475	2682.87
568.678	2536.01
568.881	2559.26
569.084	2571.46
569.287	2486.6
569.489	2503.46
569.692	2572.62
569.895	2528.26
570.098	2449.98
570.3	2472.46
570.503	2425.57
570.706	2463.16
570.909	2442.43
571.111	2386.05
571.314	2391.47
571.516	2395.35
571.719	2414.91
571.922	2384.3
572.124	2406.97
572.327	2441.26
572.529	2369.58
572.732	2376.94
572.935	2429.06
573.137	2510.04
573.34	2430.99
573.542	2498.61
573.745	2454.05
573.947	2454.24
574.15	2460.44
574.352	2400.96
574.554	2492.22
574.757	2424.6
574.959	2353.5
575.162	2391.47
575.364	2355.63
575.566	2469.36
575.769	2314.75
575.971	2362.6
576.173	2277.74
576.376	2354.85
576.578	2377.91
576.78	2413.95
576.982	2286.07
577.185	2323.47
577.387	2266.5
577.589	2352.53
577.791	2309.9
577.993	2377.33
578.196	2361.05
578.398	2324.43
578.6	2370.35
578.802	2273.67
579.004	2277.55
579.206	2291.69
579.408	2312.23
579.61	2228.34
579.812	2386.43
580.014	2253.91
580.216	2251.2
580.418	2282.97
580.62	2270.77
580.822	2234.34
581.024	2261.85
581.226	2328.89
581.428	2267.28
581.63	2387.4
581.832	2242.87
582.034	2314.17
582.236	2289.95
582.438	2338
582.64	2360.47
582.841	2343.61
583.043	2426.73
583.245	2298.67
583.447	2302.35
583.649	2277.93
583.85	2314.55
584.052	2337.22
584.254	2237.44
584.456	2329.28
584.657	2239.19
584.859	2294.98
585.061	2265.34
585.262	2261.47
585.464	2241.7
585.666	2287.23
585.867	2222.14
586.069	2317.07
586.27	2253.91
586.472	2241.9
586.674	2201.02
586.875	2177.77
587.077	2202.57
587.278	2230.47
587.48	2180.29
587.681	2311.45
587.883	2244.42
588.084	2160.52
588.285	2229.89
588.487	2194.24
588.688	2209.54
588.89	2157.04
589.091	2058.61
589.292	2075.08
589.494	2014.44
589.695	1989.06
589.896	1886.37
590.098	1885.6
590.299	1993.71
590.5	1949.15
590.702	1991.96
590.903	2026.06
591.104	2077.41
591.305	2109.18
591.507	2129.72
591.708	2066.36
591.909	2070.82
592.11	2152.39
592.311	2103.56
592.512	2091.94
592.714	2052.22
592.915	2055.71
593.116	2056.09
593.317	2086.9
593.518	2071.4
593.719	2082.64
593.92	2104.34
594.121	2182.03
594.322	2093.1
594.523	2083.99
594.724	2001.26
594.925	2079.54
595.126	2083.99
595.327	2097.17
595.528	2044.66
595.729	2067.33
595.929	2070.43
596.13	2033.62
596.331	2079.54
596.532	2051.83
596.733	2166.34
596.934	2117.71
597.135	2094.07
597.335	2112.28
597.536	2068.88
597.737	2055.32
597.938	2049.12
598.138	2057.64
598.339	2046.99
598.54	2061.52
598.74	2033.81
598.941	2050.28
599.142	2075.08
599.342	2051.25
599.543	2028.78
599.744	2080.12
599.944	2022.96
600.145	2027.23
600.345	2036.14
600.546	2094.07
600.746	2101.43
600.947	2131.46
601.147	2025.48
601.348	2035.56
601.548	2028
601.749	2011.92
601.949	1997
602.15	1974.53
602.35	2023.74
602.551	2053.96
602.751	1968.91
602.951	1988.86
603.152	1904.2
603.352	1989.06
603.552	1982.28
603.753	2016.76
603.953	2066.94
604.153	1986.15
604.354	2033.43
604.554	2046.21
604.754	2019.28
604.954	1999.13
605.155	2022.38
605.355	2028.39
605.555	2029.94
605.755	2067.14
605.955	2016.76
606.155	2039.24
606.356	1965.03
606.556	2017.15
606.756	2004.56
606.956	1976.08
607.156	2040.21
607.356	1974.91
607.556	2001.07
607.756	2034.98
607.956	2045.44
608.156	2031.29
608.356	1954.38
608.556	1991.19
608.756	1966.78
608.956	1928.61
609.156	1944.11
609.356	1947.98
609.556	1941.78
609.755	1927.83
609.955	1954.18
610.155	1965.03
610.355	1951.28
610.555	1940.04
610.755	1953.02
610.954	1872.62
611.154	1947.21
611.354	1954.18
611.554	1925.12
611.753	1896.06
611.953	1882.11
612.153	1966.2
612.352	1930.35
612.552	1878.04
612.752	1873
612.951	1902.84
613.151	1915.82
613.351	1889.47
613.55	1915.43
613.75	1914.66
613.949	1895.09
614.149	1904
614.348	1907.1
614.548	1853.24
614.747	1844.52
614.947	1882.88
615.146	1807.52
615.346	1904
615.545	1911.95
615.745	1881.92
615.944	1929
616.144	1891.6
616.343	1892.38
616.542	1854.79
616.742	1869.71
616.941	1842.2
617.14	1760.44
617.34	1810.62
617.539	1832.12
617.738	1797.64
617.938	1895.67
618.137	1795.89
618.336	1832.12
618.535	1858.08
618.734	1832.12
618.934	1826.89
619.133	1838.71
619.332	1887.92
619.531	1793.95
619.73	1830.57
619.929	1853.63
620.128	1868.35
620.328	1885.98
620.527	1799.96
620.726	1797.83
620.925	1856.53
621.124	1821.66
621.323	1835.22
621.522	1776.32
621.721	1801.51
621.92	1769.54
622.119	1824.57
622.318	1775.16
622.517	1767.41
622.715	1764.5
622.914	1743.19
623.113	1834.83
623.312	1704.25
623.511	1790.08
623.71	1763.73
623.909	1744.35
624.107	1835.42
624.306	1723.24
624.505	1729.63
624.704	1788.14
624.902	1725.56
625.101	1802.87
625.3	1743.19
625.499	1708.32
625.697	1737.19
625.896	1668.02
626.095	1722.27
626.293	1673.64
626.492	1691.07
626.69	1772.64
626.889	1701.15
627.088	1733.89
627.286	1715.1
627.485	1678.09
627.683	1712.77
627.882	1726.92
628.08	1636.83
628.279	1658.91
628.477	1751.33
628.676	1643.8
628.874	1687.39
629.073	1653.29
629.271	1612.99
629.469	1652.13
629.668	1643.61
629.866	1637.99
630.065	1637.99
630.263	1652.13
630.461	1601.37
630.66	1659.11
630.858	1650.77
631.056	1688.56
631.254	1699.02
631.453	1595.36
631.651	1703.09
631.849	1631.79
632.047	1651.55
632.245	1598.46
632.444	1642.25
632.642	1648.64
632.84	1704.83
633.038	1632.37
633.236	1581.03
633.434	1609.51
633.632	1624.04
633.83	1611.06
634.028	1638.57
634.227	1627.14
634.425	1676.35
634.623	1603.69
634.821	1631.79
635.019	1636.83
635.216	1639.54
635.414	1653.29
635.612	1628.11
635.81	1613.38
636.008	1691.85
636.206	1636.44
636.404	1676.16
636.602	1616.09
636.8	1585.87
636.997	1605.83
637.195	1657.75
637.393	1591.1
637.591	1718.97
637.789	1618.03
637.986	1632.95
638.184	1636.05
638.382	1680.42
638.58	1643.61
638.777	1696.89
638.975	1646.71
639.173	1668.02
639.37	1655.62
639.568	1652.71
639.765	1677.9
639.963	1597.3
640.161	1625.98
640.358	1637.99
640.556	1582.19
640.753	1576.57
640.951	1586.06
641.148	1581.03
641.346	1605.44
641.543	1589.55
641.741	1582.19
641.938	1507.6
642.136	1549.25
642.333	1521.55
642.531	1612.61
642.728	1636.63
642.925	1549.25
643.123	1573.47
643.32	1566.88
643.517	1552.54
643.715	1495.78
643.912	1558.94
644.109	1530.65
644.306	1525.61
644.504	1483.57
644.701	1523.1
644.898	1557.58
645.095	1517.86
645.293	1538.6
645.49	1557.19
645.687	1502.75
645.884	1574.63
646.081	1462.65
646.278	1522.51
646.475	1485.12
646.672	1479.89
646.87	1500.62
647.067	1503.14
647.264	1505.85
647.461	1478.53
647.658	1382.05
647.855	1512.83
648.052	1456.25
648.249	1386.12
648.446	1440.75
648.642	1485.51
648.839	1438.43
649.036	1436.88
649.233	1394.64
649.43	1413.24
649.627	1359.96
649.824	1417.7
650.021	1377.01
650.217	1383.6
650.414	1414.21
650.611	1416.53
650.808	1475.05
651.004	1435.72
651.201	1479.11
651.398	1480.28
651.595	1417.7
651.791	1433.97
651.988	1450.44
652.185	1399.48
652.381	1510.11
652.578	1396.19
652.775	1436.68
652.971	1429.13
653.168	1422.73
653.364	1459.93
653.561	1356.28
653.757	1401.81
653.954	1419.83
654.15	1407.04
654.347	1486.86
654.543	1411.11
654.74	1359.19
654.936	1370.42
655.133	1354.92
655.329	1395.03
655.525	1379.53
655.722	1387.67
655.918	1303.19
656.115	1335.35
656.311	1224.34
656.507	1188.69
656.704	1162.14
656.9	1186.36
657.096	1189.08
657.292	1213.49
657.489	1247.39
657.685	1258.82
657.881	1239.06
658.077	1246.81
658.273	1299.7
658.47	1377.78
658.666	1310.55
658.862	1375.27
659.058	1331.09
659.254	1375.65
659.45	1299.9
659.646	1329.54
659.842	1312.88
660.038	1375.27
660.234	1302.61
660.43	1344.07
660.626	1405.49
660.822	1414.4
661.018	1394.06
661.214	1356.86
661.41	1323.92
661.606	1375.27
661.802	1388.83
661.998	1348.72
662.194	1346.4
662.39	1382.63
662.586	1392.7
662.781	1380.11
662.977	1436.1
663.173	1393.67
663.369	1361.32
663.564	1340.97
663.76	1411.3
663.956	1344.46
664.152	1363.06
664.347	1281.88
664.543	1308.23
664.739	1320.24
664.934	1275.87
665.13	1282.27
665.326	1379.72
665.521	1323.73
665.717	1281.11
665.912	1338.07
666.108	1222.98
666.304	1307.65
666.499	1316.75
666.695	1251.85
666.89	1286.53
667.086	1342.14
667.281	1327.41
667.477	1354.34
667.672	1344.27
667.867	1310.17
668.063	1317.92
668.258	1291.95
668.454	1326.25
668.649	1370.81
668.844	1295.83
669.04	1336.9
669.235	1294.28
669.43	1287.89
669.626	1280.33
669.821	1311.72
670.016	1233.25
670.211	1298.93
670.407	1252.24
670.602	1317.14
670.797	1259.21
670.992	1370.23
671.187	1252.43
671.382	1324.5
671.578	1225.11
671.773	1291.76
671.968	1216.39
672.163	1254.76
672.358	1287.89
672.553	1251.85
672.748	1282.66
672.943	1337.68
673.138	1258.05
673.333	1272.58
673.528	1219.11
673.723	1315.98
673.918	1256.5
674.113	1219.3
674.308	1356.09
674.503	1291.76
674.698	1335.74
674.892	1241.58
675.087	1283.04
675.282	1276.46
675.477	1268.12
675.672	1276.46
675.867	1227.24
676.061	1205.16
676.256	1197.99
676.451	1226.86
676.646	1269.29
676.84	1208.26
677.035	1221.62
677.23	1215.62
677.424	1260.76
677.619	1286.34
677.814	1319.66
678.008	1278.78
678.203	1218.33
678.397	1218.33
678.592	1246.23
678.787	1263.86
678.981	1252.82
679.176	1240.03
679.37	1222.21
679.565	1206.51
679.759	1228.79
679.954	1238.29
680.148	1274.32
680.342	1312.1
680.537	1223.76
680.731	1254.56
680.926	1253.98
681.12	1250.49
681.314	1235.77
681.509	1215.23
681.703	1234.22
681.897	1259.99
682.092	1216.39
682.286	1257.86
682.48	1285.37
682.674	1241.19
682.869	1223.95
683.063	1241.58
683.257	1303.77
683.451	1161.56
683.645	1235.38
683.839	1190.82
684.034	1214.26
684.228	1253.21
684.422	1141.03
684.616	1154.59
684.81	1219.11
685.004	1194.5
685.198	1197.6
685.392	1242.16
685.586	1186.94
685.78	1165.05
685.974	1184.04
686.168	1235.77
686.362	1253.01
686.556	1134.05
686.75	1081.16
686.944	1092.98
687.138	1085.42
687.331	982.15
687.525	992.42
687.719	939.14
687.913	1010.83
688.107	980.8
688.301	951.54
688.494	1003.47
688.688	967.23
688.882	939.14
689.076	948.44
689.269	1011.22
689.463	1038.34
689.657	992.42
689.85	986.22
690.044	1011.22
690.238	1001.53
690.431	998.82
690.625	988.35
690.818	1032.91
691.012	1074.38
691.205	1072.83
691.399	1017.61
691.593	1069.92
691.786	1107.9
691.98	1101.31
692.173	1144.51
692.366	1096.08
692.56	1095.69
692.753	1160.4
692.947	1045.31
693.14	1148.78
693.333	1135.99
693.527	1064.11
693.72	1094.53
693.914	1112.93
694.107	1071.08
694.3	1115.06
694.493	1079.61
694.687	1152.84
694.88	1081.74
695.073	1175.9
695.266	1107.7
695.46	1126.69
695.653	1157.49
695.846	1141.61
696.039	1071.08
696.232	1113.51
696.425	1162.14
696.618	1209.42
696.812	1176.09
697.005	1221.62
697.198	1292.15
697.391	1205.35
697.584	1247.2
697.777	1320.24
697.97	1266.96
698.163	1268.71
698.356	1253.01
698.549	1351.44
698.742	1298.74
698.935	1266.57
699.127	1277.42
699.32	1257.08
699.513	1271.03
699.706	1301.45
699.899	1317.92
700.092	1293.89
700.285	1320.24
700.477	1281.49
700.67	1287.89
700.863	1330.51
701.056	1445.02
701.248	1396.97
701.441	1405.88
701.634	1363.64
701.826	1501.4
702.019	1367.52
702.212	1437.07
702.404	1387.28
702.597	1357.83
702.79	1391.35
702.982	1447.34
703.175	1465.36
703.367	1451.8
703.56	1511.28
703.752	1571.34
703.945	1547.51
704.137	1594.78
704.33	1594.39
704.522	1575.21
704.715	1618.81
704.907	1617.06
705.1	1644.19
705.292	1652.91
705.484	1656.97
705.677	1699.6
705.869	1698.24
706.061	1743
706.254	1774.19
706.446	1717.42
706.638	1732.15
706.831	1835.03
707.023	1775.35
707.215	1865.25
707.407	1864.28
707.599	1889.28
707.792	1936.55
707.984	1892.57
708.176	1924.93
708.368	1901.48
708.56	1962.32
708.752	1941.78
708.944	1934.23
709.136	1983.63
709.329	1974.14
709.521	2094.26
709.713	2053.58
709.905	2062.49
710.097	2132.62
710.289	2053.58
710.481	2082.83
710.672	2138.24
710.864	2122.55
711.056	2181.84
711.248	2165.75
711.44	2188.62
711.632	2169.24
711.824	2191.91
712.016	2279.1
712.207	2280.26
712.399	2246.16
712.591	2364.54
712.783	2344.97
712.975	2304.09
713.166	2298.67
713.358	2350.78
713.55	2394.38
713.741	2420.92
713.933	2431.19
714.125	2398.45
714.316	2473.23
714.508	2497.64
714.7	2511.01
714.891	2478.85
715.083	2573.98
715.274	2462.96
715.466	2532.91
715.657	2587.35
715.849	2490.48
716.04	2565.65
716.232	2506.36
716.423	2595.1
716.615	2509.66
716.806	2500.94
716.998	2418.98
717.189	2415.3
717.381	2327.53
717.572	2305.45
717.763	2287.23
717.955	2306.03
718.146	2258.75
718.337	2236.67
718.528	2183.39
718.72	2125.07
718.911	2202.18
719.102	2162.65
719.293	2207.8
719.485	2183.77
719.676	2191.72
719.867	2146.38
720.058	2167.5
720.249	2164.98
720.44	2241.12
720.632	2259.33
720.823	2283.17
721.014	2443.78
721.205	2476.53
721.396	2505.98
721.587	2638.89
721.778	2648.77
721.969	2693.13
722.16	2797.37
722.351	2814.42
722.542	2945.39
722.733	2944.62
722.924	2863.83
723.115	2908.78
723.305	2908.97
723.496	2937.26
723.687	2770.63
723.878	2787.49
724.069	2858.98
724.26	2842.9
724.45	2795.24
724.641	2782.65
724.832	2819.26
725.023	2825.46
725.213	2808.41
725.404	2790.4
725.595	2821.2
725.785	2798.53
725.976	2898.89
726.167	2890.95
726.357	2885.53
726.548	3004.29
726.739	2920.4
726.929	3018.82
727.12	3057.77
727.31	3041.49
727.501	3009.14
727.691	3038.39
727.882	3042.27
728.072	3091.48
728.263	3106.79
728.453	3154.25
728.644	3142.82
728.834	3128.48
729.024	3114.92
729.215	3150.18
729.405	3116.28
729.596	3253.84
729.786	3223.03
729.976	3294.53
730.167	3283.1
730.357	3278.45
730.547	3281.35
730.737	3306.73
730.928	3372.22
731.118	3407.87
731.308	3386.94
731.498	3378.23
731.688	3453.59
731.879	3464.06
732.069	3532.64
732.259	3566.93
732.449	3612.27
732.639	3692.68
732.829	3696.36
733.019	3775.6
733.209	3844.38
733.399	3844.19
733.589	3933.89
733.779	3919.55
733.969	3906.19
734.159	4023.6
734.349	4056.34
734.539	4110.01
734.729	4106.91
734.919	4160.38
735.109	4206.88
735.299	4107.1
735.488	4160
735.678	4159.03
735.868	4161.55
736.058	4164.26
736.248	4172.2
736.437	4107.1
736.627	4105.94
736.817	4275.08
737.007	4180.53
737.196	4215.6
737.386	4236.91
737.576	4214.44
737.765	4283.8
737.955	4234.01
738.144	4411.09
738.334	4332.62
738.524	4295.62
738.713	4330.88
738.903	4370.4
739.092	4349.29
739.282	4352.58
739.471	4429.5
739.661	4314.61
739.85	4426.79
740.04	4430.66
740.229	4445.19
740.419	4469.99
740.608	4469.41
740.797	4453.13
740.987	4514.36
741.176	4545.36
741.365	4436.28
741.555	4488.78
741.744	4556.98
741.933	4497.5
742.123	4513.2
742.312	4588.76
742.501	4561.05
742.69	4600.19
742.88	4488.2
743.069	4668.58
743.258	4630.22
743.447	4651.73
743.636	4641.84
743.825	4647.66
744.014	4675.94
744.204	4714.5
744.393	4618.79
744.582	4756.54
744.771	4754.02
744.96	4703.07
745.149	4685.63
745.338	4701.71
745.527	4730.19
745.716	4711.01
745.905	4705.59
746.094	4761
746.283	4728.45
746.471	4708.69
746.66	4792
746.849	4815.83
747.038	4786.77
747.227	4756.54
747.416	4806.14
747.604	4741.62
747.793	4754.8
747.982	4746.66
748.171	4818.93
748.359	4780.18
748.548	4811.57
748.737	4784.25
748.926	4762.16
749.114	4635.26
749.303	4749.76
749.491	4765.26
749.68	4697.84
749.869	4767.39
750.057	4742.4
750.246	4693.38
750.434	4760.22
750.623	4725.35
750.811	4719.54
751	4749.96
751.188	4733.68
751.377	4723.22
751.565	4730
751.754	4684.47
751.942	4652.31
752.131	4715.47
752.319	4673.23
752.507	4639.91
752.696	4653.08
752.884	4722.83
753.072	4645.33
753.261	4683.89
753.449	4714.5
753.637	4622.28
753.825	4730.19
754.014	4675.17
754.202	4682.34
754.39	4736.78
754.578	4728.26
754.766	4667.61
754.955	4634.87
755.143	4718.57
755.331	4644.56
755.519	4700.36
755.707	4681.76
755.895	4608.71
756.083	4638.16
756.271	4619.37
756.459	4613.36
756.647	4611.81
756.835	4585.85
757.023	4607.55
757.211	4580.43
757.399	4559.7
757.587	4587.21
757.775	4562.41
757.963	4574.42
758.151	4526.76
758.339	4510.29
758.526	4456.43
758.714	4527.34
758.902	4407.99
759.09	4339.41
759.278	4186.34
759.465	3901.73
759.653	3447.78
759.841	3205.98
760.028	2793.88
760.216	2490.09
760.404	2370.55
760.591	2005.53
760.779	1752.1
760.967	1612.03
761.154	1406.07
761.342	1476.6
761.529	1481.05
761.717	1524.45
761.905	1597.69
762.092	1705.61
762.28	1655.62
762.467	1680.22
762.655	1618.23
762.842	1706.19
763.029	1723.04
763.217	1721.49
763.404	1745.13
763.592	1766.25
763.779	1730.02
763.966	1823.02
764.154	1875.33
764.341	1923.57
764.528	1936.16
764.716	2024.71
764.903	2090.58
765.09	2166.53
765.277	2220.97
765.465	2369.38
765.652	2426.34
765.839	2516.82
766.026	2678.02
766.213	2746.61
766.4	2823.33
766.588	3012.62
766.775	3045.37
766.962	3163.94
767.149	3234.46
767.336	3391.79
767.523	3353.04
767.71	3467.74
767.897	3617.89
768.084	3705.85
768.271	3698.68
768.458	3782.38
768.645	3837.6
768.832	3773.86
769.019	3878.67
769.206	3852.52
769.392	3936.99
769.579	4032.32
769.766	3966.83
769.953	3967.22
770.14	4044.72
770.327	3985.43
770.513	4078.23
770.7	4093.93
770.887	4045.3
771.073	4063.12
771.26	4033.87
771.447	4015.46
771.634	3979.81
771.82	4104.58
772.007	3998.22
772.193	4029.99
772.38	4107.3
772.567	4073.78
772.753	4017.78
772.94	4094.9
773.126	4028.83
773.313	4118.73
773.499	4084.82
773.686	4099.35
773.872	3968.57
774.059	4059.63
774.245	3999.57
774.432	4024.76
774.618	3931.18
774.804	4019.33
774.991	3947.84
775.177	3998.8
775.363	3972.84
775.55	4011.97
775.736	3910.84
775.922	3959.08
776.109	3948.62
776.295	3935.44
776.481	3958.89
776.667	3970.9
776.853	3962.18
777.04	3943.39
777.226	3921.69
777.412	3953.27
777.598	3902.7
777.784	3856.97
777.97	3884.29
778.156	3903.09
778.342	3847.87
778.528	3886.81
778.715	3803.31
778.901	3834.5
779.087	3856.01
779.272	3776.96
779.458	3759.33
779.644	3817.64
779.83	3769.79
780.016	3907.93
780.202	3781.61
780.388	3799.04
780.574	3699.07
780.76	3729.3
780.946	3823.65
781.131	3760.88
781.317	3756.23
781.503	3680.28
781.689	3734.91
781.874	3870.92
782.06	3699.65
782.246	3726
782.432	3698.3
782.617	3711.08
782.803	3786.26
782.989	3673.11
783.174	3664.2
783.36	3538.84
783.545	3647.34
783.731	3667.1
783.916	3511.52
784.102	3647.53
784.288	3590.38
784.473	3631.26
784.659	3576.04
784.844	3610.14
785.029	3561.51
785.215	3535.16
785.4	3491.76
785.586	3614.02
785.771	3526.83
785.956	3572.55
786.142	3512.49
786.327	3507.45
786.512	3495.25
786.698	3543.3
786.883	3450.3
787.068	3473.35
787.254	3474.52
787.439	3449.14
787.624	3443.32
787.809	3430.54
787.994	3441.39
788.18	3501.84
788.365	3353.23
788.55	3416.78
788.735	3376.68
788.92	3359.43
789.105	3331.92
789.29	3414.65
789.475	3312.35
789.66	3313.51
789.845	3309.25
790.03	3344.9
790.215	3329.98
790.4	3354.78
790.585	3389.46
790.77	3316.61
790.955	3291.04
791.14	3267.79
791.325	3377.45
791.51	3222.65
791.695	3276.31
791.879	3265.85
792.064	3224.58
792.249	3338.89
792.434	3251.51
792.618	3295.69
792.803	3342.77
792.988	3291.62
793.173	3265.27
793.357	3276.9
793.542	3182.54
793.727	3236.01
793.911	3308.67
794.096	3210.25
794.281	3263.14
794.465	3329.4
794.65	3267.6
794.834	3294.14
795.019	3339.48
795.203	3344.71
795.388	3344.32
795.572	3369.7
795.757	3336.57
795.941	3340.83
796.126	3290.07
796.31	3286
796.494	3283.87
796.679	3334.05
796.863	3262.56
797.048	3375.51
797.232	3307.7
797.416	3335.41
797.601	3312.35
797.785	3396.44
797.969	3356.72
798.153	3290.65
798.338	3377.26
798.522	3376.68
798.706	3429.18
798.89	3396.63
799.074	3450.49
799.258	3417.94
799.443	3382.88
799.627	3384.62
799.811	3402.83
799.995	3324.17
800.179	3306.93
800.363	3314.29
800.547	3333.47
800.731	3398.37
800.915	3291.04
801.099	3297.24
801.283	3311.38
801.467	3328.43
801.651	3312.54
801.835	3350.91
802.019	3338.51
802.202	3370.28
802.386	3268.56
802.57	3271.28
802.754	3289.1
802.938	3284.26
803.121	3309.25
803.305	3347.03
803.489	3337.93
803.673	3397.41
803.856	3325.33
804.04	3310.8
804.224	3332.5
804.407	3271.28
804.591	3270.31
804.775	3270.31
804.958	3314.09
805.142	3378.23
805.326	3282.51
805.509	3301.11
805.693	3362.34
805.876	3315.26
806.06	3317.58
806.243	3381.52
806.427	3339.86
806.61	3394.89
806.794	3275.15
806.977	3346.84
807.16	3329.21
807.344	3334.44
807.527	3311.58
807.71	3331.34
807.894	3317.97
808.077	3364.47
808.26	3261.98
808.444	3261.98
808.627	3352.26
808.81	3259.26
808.993	3210.44
809.177	3198.43
809.36	3230.2
809.543	3247.64
809.726	3125.38
809.909	3130.62
810.092	3151.93
810.276	3104.27
810.459	3115.12
810.642	3111.24
810.825	3071.33
811.008	3098.26
811.191	2983.76
811.374	3002.16
811.557	3033.55
811.74	3050.4
811.923	3001.19
812.106	2969.03
812.289	2957.6
812.472	2932.99
812.654	2931.83
812.837	2890.95
813.02	2870.03
813.203	2832.83
813.386	2688.68
813.569	2711.93
813.751	2607.5
813.934	2703.79
814.117	2671.24
814.3	2572.24
814.482	2549.57
814.665	2485.63
814.848	2446.49
815.03	2383.14
815.213	2408.91
815.396	2405.61
815.578	2379.46
815.761	2294.98
815.943	2399.03
816.126	2265.73
816.309	2294.02
816.491	2213.61
816.674	2127.97
816.856	2183.39
817.039	2191.33
817.221	2242.48
817.403	2157.04
817.586	2186.87
817.768	2223.49
817.951	2149.67
818.133	2152
818.315	2119.06
818.498	2197.72
818.68	2247.71
818.862	2204.89
819.045	2255.27
819.227	2198.89
819.409	2170.79
819.591	2240.15
819.774	2187.26
819.956	2154.71
820.138	2252.94
820.32	2241.32
820.502	2259.14
820.684	2381.2
820.866	2351.36
821.048	2418.4
821.231	2399.03
821.413	2390.31
821.595	2385.46
821.777	2424.02
821.959	2395.73
822.141	2461.61
822.323	2346.71
822.505	2243.06
822.686	2181.45
822.868	2119.64
823.05	1997.19
823.232	1968.33
823.414	1856.73
823.596	1972.98
823.778	1915.24
823.96	1993.71
824.141	1989.64
824.323	2013.47
824.505	2080.12
824.687	2168.66
824.868	2205.86
825.05	2293.43
825.232	2293.05
825.413	2396.7
825.595	2364.73
825.777	2295.18
825.958	2319.01
826.14	2299.44
826.321	2325.79
826.503	2312.42
826.685	2348.85
826.866	2341.87
827.048	2359.11
827.229	2277.93
827.411	2233.95
827.592	2190.55
827.773	2210.12
827.955	2119.26
828.136	2129.14
828.318	2103.37
828.499	2171.76
828.68	2094.65
828.862	2096.39
829.043	2149.48
829.224	2126.81
829.406	2078.18
829.587	2069.08
829.768	2070.04
829.949	2084.77
830.131	2081.28
830.312	2140.76
830.493	2095.04
830.674	2114.61
830.855	2127.39
831.036	2073.92
831.218	2172.54
831.399	2184.74
831.58	2147.35
831.761	2141.15
831.942	2142.7
832.123	2098.72
832.304	2068.11
832.485	2055.32
832.666	2107.44
832.847	2082.25
833.028	2102.98
833.209	2092.32
833.389	2092.32
833.57	2017.34
833.751	2025.48
833.932	2105.89
834.113	2101.82
834.294	2062.68
834.475	2138.24
834.655	2109.37
834.836	2150.64
835.017	2124.68
835.198	2039.82
835.378	2097.75
835.559	2127.39
835.74	2095.42
835.92	2126.23
836.101	2098.72
836.281	2151.81
836.462	2120.42
836.643	2158.39
836.823	2163.82
837.004	2156.65
837.184	2201.99
837.365	2159.75
837.545	2189.97
837.726	2149.87
837.906	2179.51
838.087	2164.01
838.267	2135.34
838.448	2105.31
838.628	2123.91
838.808	2115.19
838.989	2186.87
839.169	2088.64
839.349	2113.06
839.53	2184.94
839.71	2147.54
839.89	2128.94
840.07	2183
840.251	2097.94
840.431	2151.61
840.611	2120.22
840.791	2092.71
840.971	2127.01
841.151	2113.83
841.332	2080.51
841.512	2144.64
841.692	2027.03
841.872	2135.72
842.052	2072.56
842.232	2134.76
842.412	2040.21
842.592	2103.37
842.772	2094.26
842.952	2127.01
843.132	2077.99
843.312	2047.96
843.492	2045.83
843.672	2107.82
843.851	2017.15
844.031	2077.6
844.211	2032.65
844.391	1997.97
844.571	2036.53
844.751	2041.37
844.93	2078.96
845.11	2012.31
845.29	2062.68
845.47	2067.33
845.649	2020.25
845.829	2075.47
846.009	2021.41
846.188	2060.16
846.368	2022.38
846.547	2028.97
846.727	2059.97
846.907	1972.2
847.086	2010.76
847.266	2046.41
847.445	2009.21
847.625	1984.21
847.804	1943.33
847.984	1990.8
848.163	1984.6
848.343	1927.06
848.522	1969.88
848.701	1965.03
848.881	1975.69
849.06	1997.58
849.239	1957.86
849.419	1971.81
849.598	1865.45
849.777	1918.34
849.957	1884.82
850.136	1790.47
850.315	1777.29
850.494	1798.41
850.674	1783.3
850.853	1864.28
851.032	1827.28
851.211	1872.23
851.39	1853.05
851.569	1778.65
851.748	1811
851.927	1860.02
852.107	1805.97
852.286	1787.75
852.465	1775.35
852.644	1831.73
852.823	1821.27
853.002	1814.3
853.181	1841.42
853.359	1820.3
853.538	1788.14
853.717	1850.92
853.896	1706.96
854.075	1641.86
854.254	1634.69
854.433	1560.29
854.611	1561.65
854.79	1515.54
854.969	1560.88
855.148	1612.8
855.327	1568.43
855.505	1622.1
855.684	1620.74
855.863	1628.49
856.041	1624.04
856.22	1671.12
856.399	1621.71
856.577	1759.66
856.756	1703.47
856.934	1840.65
857.113	1864.09
857.291	1785.62
857.47	1734.47
857.648	1737.96
857.827	1744.94
858.005	1787.56
858.184	1705.99
858.362	1823.98
858.541	1687.78
858.719	1752.3
858.898	1702.7
859.076	1714.91
859.254	1770.9
859.433	1719.94
859.611	1698.05
859.789	1668.41
859.967	1721.88
860.146	1788.14
860.324	1670.92
860.502	1667.63
860.68	1643.02
860.859	1654.84
861.037	1667.82
861.215	1688.56
861.393	1685.84
861.571	1639.15
861.749	1628.88
861.927	1680.03
862.105	1682.94
862.283	1679.64
862.461	1627.91
862.639	1601.95
862.817	1643.99
862.995	1665.69
863.173	1635.86
863.351	1642.25
863.529	1622.49
863.707	1666.66
863.885	1625.01
864.063	1562.81
864.241	1584.9
864.418	1679.26
864.596	1600.01
864.774	1574.05
864.952	1605.83
865.129	1606.6
865.307	1602.53
865.485	1525.03
865.663	1583.93
865.84	1472.72
866.018	1526.2
866.196	1379.72
866.373	1408.59
866.551	1366.55
866.728	1292.92
866.906	1374.1
867.084	1411.69
867.261	1382.24
867.439	1440.75
867.616	1460.13
867.794	1457.8
867.971	1471.17
868.149	1446.76
868.326	1541.31
868.503	1481.25
868.681	1478.53
868.858	1463.23
869.035	1447.92
869.213	1489.58
869.39	1465.16
869.567	1539.95
869.745	1452.18
869.922	1466.52
870.099	1500.62
870.276	1513.99
870.454	1449.86
870.631	1457.61
870.808	1451.41
870.985	1500.04
871.162	1523.29
871.339	1464.2
871.517	1390.57
871.694	1423.12
871.871	1482.6
872.048	1413.63
872.225	1417.89
872.402	1472.72
872.579	1365.39
872.756	1455.87
872.933	1408.01
873.11	1432.62
873.287	1415.76
873.463	1383.02
873.64	1409.75
873.817	1439.98
873.994	1396.97
874.171	1380.69
874.348	1423.9
874.524	1330.12
874.701	1395.8
874.878	1297.38
875.055	1406.27
875.231	1366.55
875.408	1400.45
875.585	1306.68
875.762	1364.03
875.938	1354.73
876.115	1367.9
876.291	1333.8
876.468	1315.2
876.645	1314.62
876.821	1323.54
876.998	1306.29
877.174	1308.23
877.351	1296.6
877.527	1270.84
877.704	1328.38
877.88	1339.42
878.057	1296.02
878.233	1339.62
878.409	1317.14
878.586	1311.91
878.762	1294.28
878.938	1293.12
879.115	1206.71
879.291	1250.3
879.467	1258.44
879.644	1241.58
879.82	1309.2
879.996	1247.59
880.172	1210.77
880.349	1255.72
880.525	1284.21
880.701	1235.77
880.877	1241
881.053	1249.33
881.229	1252.04
881.405	1296.6
881.581	1224.72
881.757	1226.08
881.933	1229.76
882.109	1271.61
882.285	1260.96
882.461	1162.34
882.637	1241
882.813	1208.45
882.989	1228.02
883.165	1282.27
883.341	1217.94
883.517	1265.02
883.693	1260.76
883.869	1280.14
884.044	1225.69
884.22	1281.69
884.396	1290.02
884.572	1223.76
884.747	1300.67
884.923	1288.66
885.099	1296.8
885.275	1296.6
885.45	1243.13
885.626	1221.24
885.801	1229.18
885.977	1208.06
886.153	1148.78
886.328	1260.76
886.504	1161.95
886.679	1211.36
886.855	1196.63
887.03	1229.18
887.206	1269.09
887.381	1260.57
887.557	1225.69
887.732	1231.12
887.908	1205.93
888.083	1258.82
888.258	1190.82
888.434	1203.41
888.609	1208.45
888.784	1254.76
888.96	1218.33
889.135	1182.29
889.31	1200.51
889.485	1217.36
889.661	1186.75
889.836	1255.92
890.011	1287.5
890.186	1190.04
890.361	1207.29
890.537	1230.34
890.712	1212.13
890.887	1205.54
891.062	1228.99
891.237	1287.89
891.412	1189.85
891.587	1224.34
891.762	1259.99
891.937	1298.15
892.112	1180.16
892.287	1220.27
892.462	1185.2
892.637	1169.7
892.812	1135.02
892.987	1161.37
893.161	1119.33
893.336	1133.47
893.511	1185.39
893.686	1134.83
893.861	1153.43
894.035	1137.73
894.21	1146.64
894.385	1073.41
894.56	1130.95
894.734	1065.27
894.909	1060.62
895.084	1084.65
895.258	1065.27
895.433	1062.75
895.608	1049.96
895.782	977.31
895.957	995.33
896.131	1025.75
896.306	925.77
896.48	910.08
896.655	936.04
896.829	889.35
897.004	881.4
897.178	897.68
897.353	881.02
897.527	905.82
897.701	921.12
897.876	839.56
898.05	932.75
898.224	914.15
898.399	927.32
898.573	863.19
898.747	767.87
898.921	838.97
899.096	750.04
899.27	721.95
899.444	744.81
899.618	757.79
899.792	793.83
899.967	809.52
900.141	845.76
900.315	732.61
900.489	778.91
900.663	797.71
900.837	806.62
901.011	736.87
901.185	842.85
901.359	798.48
901.533	767.29
901.707	779.11
901.881	809.14
902.055	745.39
902.229	791.7
902.403	845.95
902.576	789.37
902.75	798.09
902.924	885.28
903.098	849.44
903.272	895.74
903.446	925.19
903.619	917.25
903.793	951.15
903.967	893.8
904.14	963.17
904.314	949.99
904.488	953.87
904.661	958.52
904.835	924.61
905.009	985.83
905.182	1000.75
905.356	973.82
905.529	948.25
905.703	921.9
905.876	911.05
906.05	912.21
906.223	852.73
906.397	814.17
906.57	806.42
906.744	799.45
906.917	808.17
907.09	789.18
907.264	807.39
907.437	743.07
907.61	705.87
907.784	734.93
907.957	761.86
908.13	732.22
908.304	769.81
908.477	688.82
908.65	745.2
908.823	649.49
908.996	759.73
909.17	701.61
909.343	700.44
909.516	693.66
909.689	700.83
909.862	697.34
910.035	702.96
910.208	685.72
910.381	674.48
910.554	756.44
910.727	676.61
910.9	685.91
911.073	703.35
911.246	727.57
911.419	739.19
911.592	701.61
911.765	674.68
911.938	686.49
912.11	681.46
912.283	671.19
912.456	728.15
912.629	711.49
912.802	653.17
912.974	608.03
913.147	591.36
913.32	526.27
913.493	583.03
913.665	615.97
913.838	587.3
914.01	590.78
914.183	614.03
914.356	624.11
914.528	647.55
914.701	683.59
914.873	681.07
915.046	591.75
915.218	566.18
915.391	518.52
915.563	559.59
915.736	574.9
915.908	590.4
916.081	619.46
916.253	582.84
916.425	620.43
916.598	636.31
916.77	615.2
916.942	568.31
917.115	501.47
917.287	580.52
917.459	549.9
917.632	535.18
917.804	485.77
917.976	565.98
918.148	569.08
918.32	569.28
918.493	620.04
918.665	624.88
918.837	602.02
919.009	632.63
919.181	654.53
919.353	615.2
919.525	608.41
919.697	624.69
919.869	609.19
920.041	651.43
920.213	743.26
920.385	645.61
920.557	662.28
920.729	682.81
920.901	656.66
921.073	610.74
921.244	594.46
921.416	625.27
921.588	634.38
921.76	625.46
921.932	647.94
922.103	582.07
922.275	645.61
922.447	626.43
922.619	542.93
922.79	584
922.962	576.25
923.134	593.5
923.305	570.83
923.477	534.98
923.648	565.79
923.82	564.43
923.991	473.37
924.163	492.75
924.335	537.31
924.506	520.65
924.677	592.53
924.849	524.52
925.02	528.01
925.192	563.27
925.363	530.33
925.535	531.5
925.706	534.4
925.877	581.48
926.049	523.36
926.22	550.68
926.391	521.42
926.562	547.77
926.734	515.42
926.905	532.08
927.076	466.01
927.247	520.45
927.419	461.17
927.59	465.82
927.761	465.62
927.932	434.82
928.103	432.3
928.274	405.56
928.445	412.73
928.616	422.22
928.787	401.69
928.958	455.35
929.129	389.67
929.3	374.17
929.471	320.89
929.642	328.45
929.813	282.73
929.984	358.29
930.155	245.91
930.326	315.66
930.496	281.95
930.667	251.53
930.838	263.35
931.009	239.71
931.18	255.6
931.35	236.42
931.521	248.82
931.692	205.23
931.863	168.22
932.033	197.86
932.204	171.9
932.374	204.84
932.545	148.65
932.716	222.66
932.886	218.01
933.057	107.97
933.227	119.59
933.398	211.81
933.568	95.57
933.739	78.71
933.909	75.8
934.08	130.44
934.25	57.2
934.421	77.55
934.591	125.02
934.761	76.58
934.932	80.65
935.102	107
935.272	87.62
935.443	82.78
935.613	78.9
935.783	89.95
935.953	64.18
936.123	236.42
936.294	74.25
936.464	77.35
936.634	92.85
936.804	64.18
936.974	40.15
937.144	98.28
937.314	115.33
937.484	81.03
937.655	66.89
937.825	121.92
937.995	62.05
938.165	130.63
938.334	106.03
938.504	111.45
938.674	121.92
938.844	151.56
939.014	183.72
939.184	169.38
939.354	237.2
939.524	202.9
939.694	142.84
939.863	162.41
940.033	182.95
940.203	213.75
940.373	208.13
940.542	199.8
940.712	149.82
940.882	209.1
941.051	208.33
941.221	197.28
941.391	187.4
941.56	141.29
941.73	186.63
941.899	272.84
942.069	141.68
942.238	185.27
942.408	162.41
942.577	187.98
942.747	131.8
942.916	98.86
943.086	135.09
943.255	194.57
943.425	139.93
943.594	104.48
943.763	65.53
943.933	68.05
944.102	43.64
944.271	128.7
944.441	133.93
944.61	69.41
944.779	123.85
944.948	214.33
945.117	92.85
945.287	102.54
945.456	65.53
945.625	109.71
945.794	134.7
945.963	103.9
946.132	150.2
946.301	93.43
946.47	140.9
946.639	63.02
946.808	98.47
946.977	157.18
947.146	169.19
947.315	101.38
947.484	147.49
947.653	93.82
947.822	119.2
947.991	84.33
948.16	180.81
948.329	187.21
948.498	114.36
948.666	117.07
948.835	172.1
949.004	82.39
949.173	85.1
949.341	111.26
949.51	125.79
949.679	147.88
949.847	139.16
950.016	172.87
950.185	178.3
950.353	120.75
950.522	115.72
950.69	180.81
950.859	113.39
951.028	140.71
951.196	134.32
951.365	99.63
951.533	128.12
951.701	140.13
951.87	142.65
952.038	72.51
952.207	118.62
952.375	175.58
952.543	81.62
952.712	128.31
952.88	82.97
953.048	150.2
953.217	135.48
953.385	121.92
953.553	178.88
953.721	93.82
953.89	131.41
954.058	60.11
954.226	98.47
954.394	147.68
954.562	71.93
954.73	97.31
954.898	101.38
955.067	160.08
955.235	117.46
955.403	160.66
955.571	197.86
955.739	132.96
955.907	96.15
956.075	91.69
956.243	92.66
956.41	102.15
956.578	59.92
956.746	71.54
956.914	74.06
957.082	130.25
957.25	135.09
957.418	94.6
957.585	118.23
957.753	144.97
957.921	95.57
958.089	106.8
958.256	153.88
958.424	84.72
958.592	124.05
958.759	79.48
958.927	140.52
959.095	83.94
959.262	127.53
959.43	109.13
959.597	103.12
959.765	98.28
959.932	76.58
960.1	140.32
960.267	123.85
960.435	117.46
960.602	143.81
960.77	116.3
960.937	73.09
961.104	128.12
961.272	53.72
961.439	89.56
961.606	133.35
961.774	139.55
961.941	126.95
962.108	137.8
962.275	120.95
962.443	176.94
962.61	127.34
962.777	191.47
962.944	167.25
963.111	137.8
963.278	153.88
963.446	138.38
963.613	127.73
963.78	121.14
963.947	164.93
964.114	116.68
964.281	199.8
964.448	127.15
964.615	97.31
964.782	128.7
964.949	160.86
965.116	132.18
965.282	185.66
965.449	142.65
965.616	113.2
965.783	172.87
965.95	161.05
966.117	110.68
966.283	121.92
966.45	163.76
966.617	131.6
966.784	178.88
966.95	160.28
967.117	163.96
967.284	130.05
967.45	110.48
967.617	194.96
967.784	164.73
967.95	199.03
968.117	136.06
968.283	187.01
968.45	225.57
968.616	170.35
968.783	187.79
968.949	148.65
969.116	221.11
969.282	138.58
969.449	154.46
969.615	165.12
969.781	99.25
969.948	127.92
970.114	125.79
970.28	193.21
970.447	155.24
970.613	206.78
970.779	130.63
970.945	160.28
971.112	161.25
971.278	147.1
971.444	160.08
971.61	185.27
971.776	129.28
971.942	166.67
972.108	180.23
972.275	153.5
972.441	178.49
972.607	212.78
972.773	126.18
972.939	189.73
973.105	149.82
973.271	103.12
973.437	111.26
973.602	121.33
973.768	147.3
973.934	136.45
974.1	157.76
974.266	90.53
974.432	147.3
974.598	127.73
974.763	157.76
974.929	119.4
975.095	185.66
975.261	130.05
975.426	107.19
975.592	129.67
975.758	186.24
975.923	86.07
976.089	101.57
976.255	148.65
976.42	126.37
976.586	150.59
976.751	130.63
976.917	192.63
977.082	136.45
977.248	102.73
977.413	80.45
977.579	112.62
977.744	134.7
977.91	80.26
978.075	95.57
978.24	154.27
978.406	146.13
978.571	105.64
978.736	114.36
978.902	158.53
979.067	93.43
979.232	55.07
979.397	121.14
979.563	179.07
979.728	92.27
979.893	109.13
980.058	92.85
980.223	146.13
980.388	119.78
980.554	149.82
980.719	113.97
980.884	120.75
981.049	166.28
981.214	91.11
981.379	122.5
981.544	83.75
981.709	121.92
981.874	105.06
982.039	112.62
982.204	158.73
982.368	116.88
982.533	83.94
982.698	163.96
982.863	197.48
983.028	96.53
983.193	123.08
983.357	129.67
983.522	117.65
983.687	108.16
983.852	105.25
984.016	104.67
984.181	111.84
984.346	150.59
984.51	130.63
984.675	147.68
984.839	151.37
985.004	153.5
985.168	144.78
985.333	133.35
985.498	121.14
985.662	151.95
985.827	177.71
985.991	130.63
986.155	107.58
986.32	153.11
986.484	171.13
986.649	154.27
986.813	71.35
986.977	103.32
987.142	131.41
987.306	89.56
987.47	98.67
987.634	113.2
987.799	115.91
987.963	129.28
988.127	145.94
988.291	185.27
988.455	107.58
988.62	111.84
988.784	145.75
988.948	127.15
989.112	91.5
989.276	121.33
989.44	115.52
989.604	93.43
989.768	87.23
989.932	194.57
990.096	67.86
990.26	64.76
990.424	56.82
990.588	80.07
990.752	169.19
990.915	149.04
991.079	83.94
991.243	87.82
991.407	137.8
991.571	104.09
991.734	105.06
991.898	136.25
992.062	196.31
992.226	85.49
992.389	64.57
992.553	41.51
992.717	62.82
992.88	78.9
993.044	111.84
993.207	108.74
993.371	119.98
993.535	110.29
993.698	88.2
993.862	133.54
994.025	139.55
994.189	93.43
994.352	109.71
994.515	117.65
994.679	124.24
994.842	102.15
995.006	134.7
995.169	80.45
995.332	69.02
995.496	132.77
995.659	38.99
995.822	110.1
995.985	92.47
996.149	136.06
996.312	93.43
996.475	171.13
996.638	88.78
996.801	135.67
996.964	138.58
997.128	106.03
997.291	75.03
997.454	84.72
997.617	27.17
997.78	120.17
997.943	57.4
998.106	127.53
998.269	71.35
998.432	79.1
998.595	89.37
998.758	42.87
998.92	55.85
999.083	33.95
999.246	66.12
999.409	18.45
999.572	24.27
999.735	79.48
999.897	106.42
1000.06	53.33
1000.223	87.43
1000.386	111.45
1000.548	127.73
1000.711	89.95
1000.874	111.65
1001.036	33.95
1001.199	115.52
1001.361	51.97
1001.524	96.53
1001.687	93.24
1001.849	77.35
1002.012	71.54
1002.174	57.4
1002.337	108.55
1002.499	64.95
1002.661	99.44
1002.824	58.37
1002.986	45.39
1003.149	75.8
1003.311	64.37
1003.473	151.37
1003.636	51.39
1003.798	91.11
1003.96	76.19
1004.123	54.49
1004.285	36.09
1004.447	62.05
1004.609	61.08
1004.771	107.58
1004.933	24.27
1005.096	30.66
1005.258	11.29
1005.42	46.94
1005.582	54.69
1005.744	98.86
1005.906	36.86
1006.068	43.25
1006.23	20.59
1006.392	26.01
1006.554	7.8
1006.716	97.89
1006.878	96.92
1007.04	26.01
1007.202	45.19
1007.363	45.97
1007.525	88.98
1007.687	103.7
1007.849	91.69
1008.011	19.81
1008.172	8.77
1008.334	57.79
1008.496	83.75
1008.658	-29.4
1008.819	34.15
1008.981	15.55
1009.143	21.94
1009.304	59.14
1009.466	75.42
1009.627	127.53
1009.789	153.69
1009.95	74.64
1010.112	46.16
1010.273	70.18
1010.435	18.84
1010.596	51
1010.758	35.12
1010.919	53.91
1011.081	15.55
1011.242	40.54
1011.403	74.25
1011.565	35.31
1011.726	79.29
1011.887	7.8
1012.049	37.83
1012.21	86.07
1012.371	100.99
1012.532	-28.43
1012.693	29.89
1012.855	26.79
1013.016	64.37
1013.177	77.55
1013.338	37.05
1013.499	83.94
1013.66	74.25
1013.821	56.24
1013.982	59.14
1014.143	41.12
1014.304	53.52
1014.465	98.47
1014.626	80.65
1014.787	38.6
1014.948	138.38
1015.109	-21.84
1015.27	83.17
1015.431	37.25
1015.592	3.15
1015.752	90.33
1015.913	65.15
1016.074	57.2
1016.235	42.09
1016.395	53.52
1016.556	36.86
1016.717	46.35
1016.877	87.23
1017.038	8.57
1017.199	53.91
1017.359	70.57
1017.52	62.24
1017.681	22.91
1017.841	46.35
1018.002	24.85
1018.162	11.48
1018.323	73.28
1018.483	38.22
1018.644	13.61
1018.804	15.35
1018.964	8.38
1019.125	24.46
1019.285	36.86
1019.446	11.48
1019.606	2.37
1019.766	-15.84
1019.926	45.19
1020.087	51.97
1020.247	11.87
1020.407	45.58
1020.567	48.29
1020.728	1.21
1020.888	1.4
1021.048	1.99
1021.208	12.64
1021.368	23.3
1021.528	84.13
1021.688	55.07
1021.848	60.89
1022.008	33.76
1022.168	22.14
1022.328	47.71
1022.488	58.37
1022.648	29.3
1022.808	22.14
1022.968	45.97
1023.128	13.03
1023.288	28.53
1023.448	30.47
1023.608	44.8
1023.767	44.61
1023.927	16.52
1024.087	25.24
1024.247	0.44
1024.406	30.85
1024.566	13.22
1024.726	-22.43
1024.885	24.46
1025.045	57.98
1025.205	31.05
1025.364	20
1025.524	32.4
1025.683	11.48
1025.843	33.57
1026.003	29.11
1026.162	88.4
1026.321	62.63
1026.481	52.94
1026.64	17.68
1026.8	25.62
1026.959	43.25
1027.119	28.92
1027.278	25.62
1027.437	19.62
1027.597	27.17
1027.756	23.88
1027.915	42.87
1028.074	53.33
1028.234	23.1
1028.393	36.47
1028.552	20.2
1028.711	-39.28
1028.87	59.34
1029.03	6.05
1029.189	36.09
1029.348	-69.51
1029.507	10.51
1029.666	1.21
1029.825	-14.87
1029.984	10.51
1030.143	20.97
1030.302	11.29
1030.461	-7.12
1030.62	33.57
1030.779	46.35
1030.938	-14.48
1031.097	-20.88
1031.255	47.32
1031.414	86.65
1031.573	57.4
1031.732	-38.89
1031.891	38.8
1032.049	61.27
1032.208	47.9
1032.367	2.57
1032.525	16.32
1032.684	-0.73
1032.843	31.44
1033.001	-34.44
1033.16	169.96
1033.319	60.69
1033.477	28.53
1033.636	3.73
1033.794	-43.35
1033.953	55.07
1034.111	47.32
1034.27	-1.89
1034.428	39.77
1034.587	-20.49
1034.745	9.74
1034.903	13.8
1035.062	52.94
1035.22	-21.65
1035.378	53.52
1035.537	10.32
1035.695	65.73
1035.853	15.94
1036.011	21.17
1036.17	15.94
1036.328	-34.05
1036.486	50.62
1036.644	10.9
1036.802	-66.6
1036.96	11.29
1037.119	6.44
1037.277	-9.25
1037.435	-12.74
1037.593	-41.03
1037.751	9.93
1037.909	50.04
1038.067	50.04
