Data from gum_old_FLMT105791__138__15-46-27-252.txt Node

Date: Mon Mar 20 15:46:27 GMT 2023
User: antho
Spectrometer: FLMT10579
Trigger mode: 0
Integration Time (sec): 1.000000E-1
Scans to average: 10
Electric dark correction enabled: true
Nonlinearity correction enabled: false
Boxcar width: 0
XAxis mode: Wavelengths
Number of Pixels in Spectrum: 3648
>>>>>Begin Spectral Data<<<<<
345.248	-192.55
345.464	-192.55
345.681	-192.55
345.898	-171.05
346.114	-169.69
346.331	-18.76
346.548	13.21
346.764	1.78
346.981	-2.68
347.197	-42.59
347.414	1
347.631	-16.63
347.847	69.78
348.064	18.24
348.28	15.92
348.497	-49.37
348.713	10.11
348.93	25.8
349.146	28.71
349.363	19.6
349.579	15.34
349.796	11.66
350.012	-7.72
350.229	40.91
350.445	28.32
350.661	-14.31
350.878	5.65
351.094	12.04
351.311	7.78
351.527	32.58
351.743	-2.68
351.96	20.76
352.176	42.08
352.392	58.35
352.609	57.19
352.825	5.07
353.041	19.21
353.257	2.74
353.474	9.53
353.69	29.09
353.906	18.63
354.122	-3.07
354.339	57.96
354.555	14.18
354.771	7.78
354.987	77.34
355.203	50.6
355.42	16.5
355.636	11.85
355.852	-4.04
356.068	39.36
356.284	-37.94
356.5	89.74
356.716	38.39
356.932	20.96
357.148	45.76
357.364	19.6
357.58	70.17
357.796	67.26
358.012	65.52
358.228	47.31
358.444	-22.44
358.66	102.91
358.876	56.61
359.092	-12.37
359.308	27.93
359.524	42.85
359.74	0.23
359.956	22.31
360.172	15.92
360.388	81.6
360.604	50.6
360.819	143.99
361.035	37.62
361.251	40.91
361.467	-14.31
361.683	69.2
361.898	38.01
362.114	41.11
362.33	46.73
362.546	69.01
362.762	26.38
362.977	39.75
363.193	-3.84
363.409	72.49
363.624	-6.36
363.84	7.59
364.056	-3.07
364.271	38.01
364.487	48.86
364.703	13.59
364.918	-3.46
365.134	13.4
365.35	27.35
365.565	122.87
365.781	65.13
365.996	41.69
366.212	117.44
366.427	23.28
366.643	13.21
366.858	28.51
367.074	11.85
367.289	86.25
367.505	124.61
367.72	-3.65
367.936	23.48
368.151	60.68
368.367	74.24
368.582	23.67
368.798	30.45
369.013	95.74
369.228	103.11
369.444	55.64
369.659	100.59
369.874	84.12
370.09	96.13
370.305	-24.96
370.52	26.38
370.736	92.84
370.951	51.76
371.166	96.71
371.381	137.59
371.597	74.04
371.812	8.17
372.027	-1.13
372.242	36.26
372.458	114.15
372.673	44.01
372.888	25.41
373.103	69.59
373.318	161.23
373.533	47.11
373.749	64.74
373.964	4.88
374.179	114.54
374.394	0.81
374.609	85.09
374.824	24.44
375.039	86.25
375.254	34.33
375.469	91.87
375.684	81.6
375.899	62.03
376.114	34.13
376.329	55.83
376.544	79.47
376.759	94.39
376.974	49.24
377.189	42.27
377.404	19.41
377.619	85.47
377.834	5.26
378.049	-1.52
378.264	4.88
378.478	74.04
378.693	28.32
378.908	78.5
379.123	43.63
379.338	85.47
379.553	67.07
379.767	62.42
379.982	91.29
380.197	80.44
380.412	43.24
380.626	69.39
380.841	155.22
381.056	81.02
381.271	128.1
381.485	44.21
381.7	28.9
381.915	63
382.129	39.17
382.344	55.83
382.559	36.46
382.773	84.31
382.988	14.56
383.202	53.12
383.417	36.65
383.632	145.92
383.846	45.37
384.061	46.92
384.275	42.66
384.49	62.81
384.704	77.34
384.919	51.18
385.133	53.51
385.348	82.57
385.562	11.08
385.777	112.41
385.991	59.71
386.206	50.41
386.42	71.33
386.634	88.96
386.849	54.48
387.063	84.89
387.277	48.47
387.492	70.56
387.706	32.97
387.92	40.53
388.135	107.17
388.349	83.54
388.563	86.25
388.778	86.83
388.992	81.79
389.206	90.51
389.42	141.08
389.635	73.07
389.849	96.32
390.063	118.61
390.277	82.18
390.491	146.7
390.706	122.29
390.92	98.84
391.134	68.81
391.348	135.66
391.562	35.68
391.776	83.92
391.99	75.21
392.205	133.33
392.419	69.2
392.633	83.34
392.847	137.59
393.061	66.68
393.275	146.7
393.489	62.03
393.703	82.96
393.917	121.12
394.131	54.09
394.345	125.97
394.559	95.16
394.773	55.25
394.986	62.03
395.2	100.97
395.414	117.44
395.628	79.27
395.842	104.85
396.056	95.36
396.27	68.81
396.484	125
396.697	113.76
396.911	126.94
397.125	117.64
397.339	116.47
397.553	92.06
397.766	166.27
397.98	125.58
398.194	151.35
398.408	97.49
398.621	160.26
398.835	156.19
399.049	147.09
399.262	189.71
399.476	179.25
399.69	197.85
399.903	240.09
400.117	125.97
400.331	172.08
400.544	149.41
400.758	264.88
400.971	174.6
401.185	200.17
401.398	120.16
401.612	222.65
401.826	211.8
402.039	208.7
402.253	152.12
402.466	187.58
402.68	176.73
402.893	187
403.106	172.47
403.32	187.97
403.533	211.99
403.747	137.4
403.96	189.32
404.174	216.64
404.387	150.96
404.6	190.1
404.814	256.94
405.027	189.52
405.24	193.97
405.454	164.33
405.667	236.4
405.88	126.55
406.094	203.85
406.307	207.54
406.52	187.77
406.733	158.91
406.947	130.04
407.16	243.77
407.373	232.53
407.586	160.26
407.799	152.9
408.012	225.75
408.226	225.55
408.439	244.93
408.652	154.64
408.865	228.07
409.078	239.31
409.291	242.02
409.504	168.79
409.717	225.94
409.93	211.41
410.143	217.22
410.357	135.46
410.57	138.56
410.783	179.64
410.996	182.93
411.209	212.96
411.421	257.52
411.634	218
411.847	199.98
412.06	244.35
412.273	220.71
412.486	220.13
412.699	329.02
412.912	240.28
413.125	275.15
413.338	217.42
413.55	254.62
413.763	232.14
413.976	245.32
414.189	169.56
414.402	237.18
414.615	313.71
414.827	206.76
415.04	268.95
415.253	236.21
415.466	281.16
415.678	298.79
415.891	236.99
416.104	232.34
416.316	250.35
416.529	215.48
416.742	281.55
416.954	290.46
417.167	260.62
417.38	247.25
417.592	295.3
417.805	240.09
418.017	220.71
418.23	287.75
418.442	240.47
418.655	241.25
418.868	274.77
419.08	293.17
419.293	288.72
419.505	283.1
419.718	286.2
419.93	283.87
420.142	224.59
420.355	300.53
420.567	303.25
420.78	278.06
420.992	262.17
421.205	346.06
421.417	248.61
421.629	263.14
421.842	247.64
422.054	237.18
422.266	297.63
422.479	321.46
422.691	244.15
422.903	300.73
423.115	244.74
423.328	253.65
423.54	275.54
423.752	256.75
423.964	255.39
424.177	277.09
424.389	271.86
424.601	362.34
424.813	305.57
425.025	302.08
425.238	319.13
425.45	262.95
425.662	264.11
425.874	601.81
426.086	259.07
426.298	268.95
426.51	291.62
426.722	273.22
426.934	247.45
427.146	310.8
427.358	246.67
427.57	304.8
427.782	280.77
427.994	295.3
428.206	243.57
428.418	238.15
428.63	312.35
428.842	343.55
429.054	285.42
429.266	298.98
429.478	265.85
429.69	298.21
429.902	233.3
430.114	313.32
430.325	280
430.537	242.22
430.749	235.44
430.961	178.67
431.173	212.77
431.384	252.68
431.596	172.85
431.808	225.94
432.02	292.98
432.231	313.71
432.443	365.44
432.655	337.93
432.867	263.33
433.078	307.51
433.29	386.95
433.502	333.08
433.713	376.1
433.925	350.71
434.136	358.85
434.348	293.56
434.56	248.42
434.771	405.35
434.983	266.05
435.194	285.81
435.406	311
435.617	372.41
435.829	414.46
436.04	346.84
436.252	376.48
436.463	410.58
436.675	409.81
436.886	372.03
437.098	375.32
437.309	442.36
437.521	354.01
437.732	389.46
437.943	391.01
438.155	361.76
438.366	305.96
438.578	423.18
438.789	347.61
439	368.73
439.211	358.66
439.423	378.81
439.634	370.67
439.845	367.76
440.057	382.1
440.268	416.2
440.479	367.57
440.69	379
440.902	369.31
441.113	347.03
441.324	367.38
441.535	396.44
441.746	462.12
441.957	337.35
442.168	423.18
442.38	421.24
442.591	440.23
442.802	368.35
443.013	396.83
443.224	431.89
443.435	413.1
443.646	422.98
443.857	399.54
444.068	389.85
444.279	358.66
444.49	482.08
444.701	398.76
444.912	529.35
445.123	446.81
445.334	441.97
445.545	426.08
445.756	424.92
445.967	373.77
446.178	457.86
446.388	448.56
446.599	441.78
446.81	434.61
447.021	410
447.232	465.41
447.443	490.6
447.653	421.82
447.864	479.75
448.075	475.49
448.286	479.36
448.496	461.15
448.707	476.46
448.918	454.76
449.129	533.03
449.339	421.82
449.55	468.51
449.761	440.81
449.971	494.86
450.182	458.83
450.393	504.94
450.603	468.71
450.814	507.07
451.024	488.08
451.235	529.74
451.446	528.77
451.656	557.64
451.867	455.53
452.077	511.14
452.288	547.17
452.498	541.94
452.709	488.08
452.919	518.5
453.13	460.96
453.34	528.96
453.55	461.54
453.761	516.95
453.971	468.71
454.182	506.1
454.392	485.76
454.602	568.49
454.813	514.04
455.023	538.65
455.233	466.96
455.444	482.85
455.654	420.85
455.864	484.01
456.075	453.98
456.285	457.66
456.495	477.04
456.705	503.39
456.916	537.29
457.126	595.81
457.336	537.49
457.546	440.03
457.756	488.47
457.967	533.22
458.177	517.92
458.387	534.39
458.597	468.13
458.807	486.92
459.017	493.7
459.227	499.51
459.437	503
459.647	522.37
459.857	539.23
460.068	497.58
460.278	560.54
460.488	524.51
460.698	593.29
460.908	543.11
461.117	486.14
461.327	497.19
461.537	524.31
461.747	540.59
461.957	559.77
462.167	660.52
462.377	553.18
462.587	547.76
462.797	595.81
463.007	535.94
463.216	559.38
463.426	579.92
463.636	593.87
463.846	488.86
464.056	545.62
464.265	587.28
464.475	496.8
464.685	552.02
464.895	572.36
465.104	534.97
465.314	591.16
465.524	527.61
465.733	545.43
465.943	626.42
466.153	622.35
466.362	608.79
466.572	567.71
466.782	547.56
466.991	595.22
467.201	619.05
467.41	531.87
467.62	609.56
467.829	564.42
468.039	589.61
468.249	582.05
468.458	584.96
468.668	616.54
468.877	598.9
469.086	654.9
469.296	614.6
469.505	586.7
469.715	671.17
469.924	647.34
470.134	627
470.343	654.7
470.552	588.06
470.762	593.29
470.971	604.52
471.18	626.61
471.39	588.83
471.599	586.51
471.808	651.02
472.018	607.62
472.227	685.32
472.436	698.88
472.645	638.82
472.855	602.78
473.064	706.63
473.273	667.69
473.482	695.97
473.691	710.7
473.901	695.78
474.11	644.05
474.319	764.37
474.528	670.79
474.737	720.97
474.946	694.81
475.155	714.38
475.364	769.4
475.573	733.95
475.783	748.28
475.992	744.41
476.201	765.33
476.41	717.09
476.619	707.98
476.828	737.24
477.037	716.12
477.245	699.85
477.454	747.32
477.663	759.33
477.872	748.28
478.081	809.12
478.29	741.7
478.499	859.11
478.708	793.04
478.917	849.81
479.125	769.98
479.334	793.23
479.543	766.5
479.752	788.58
479.961	812.03
480.169	844.19
480.378	801.37
480.587	949.01
480.796	834.89
481.004	825.01
481.213	826.75
481.422	841.28
481.63	828.5
481.839	868.6
482.048	906.96
482.256	903.28
482.465	896.5
482.674	888.94
482.882	898.24
483.091	988.34
483.299	874.22
483.508	934.09
483.716	884.88
483.925	898.63
484.134	886.81
484.342	854.26
484.551	909.48
484.759	924.21
484.967	942.23
485.176	966.06
485.384	956.56
485.593	953.85
485.801	920.72
486.01	905.99
486.218	870.15
486.426	792.26
486.635	800.6
486.843	775.6
487.051	820.94
487.26	809.51
487.468	866.28
487.676	927.89
487.885	854.26
488.093	871.12
488.301	926.73
488.509	959.27
488.717	1001.51
488.926	955.4
489.134	939.13
489.342	984.66
489.55	920.14
489.758	934.48
489.967	946.68
490.175	1084.82
490.383	970.9
490.591	1060.22
490.799	972.45
491.007	1071.84
491.215	1020.5
491.423	1014.69
491.631	1014.69
491.839	997.64
492.047	1048.4
492.255	989.5
492.463	943.58
492.671	971.09
492.879	1025.92
493.087	1005.39
493.295	998.22
493.503	1049.95
493.711	1084.05
493.919	1087.34
494.127	1108.46
494.334	1085.6
494.542	1001.12
494.75	1055.76
494.958	1064.29
495.166	1123.18
495.374	1099.16
495.581	1132.68
495.789	1116.02
495.997	1151.47
496.205	1098.19
496.412	1083.27
496.62	1060.8
496.828	1093.74
497.035	1122.22
497.243	1149.73
497.451	1119.31
497.658	1129.97
497.866	1106.52
498.074	1176.27
498.281	1106.14
498.489	1213.08
498.696	1102.26
498.904	1084.82
499.112	1047.82
499.319	1161.93
499.527	1109.24
499.734	1153.41
499.942	1089.09
500.149	1112.53
500.357	1152.05
500.564	1071.26
500.771	1145.66
500.979	1091.6
501.186	1063.51
501.394	1124.15
501.601	1091.22
501.808	1174.53
502.016	1096.06
502.223	1079.01
502.43	1128.03
502.638	1115.05
502.845	1081.14
503.052	1163.1
503.26	1126.67
503.467	1208.82
503.674	1140.43
503.881	1168.91
504.089	1249.51
504.296	1184.6
504.503	1089.09
504.71	1101.68
504.917	1112.53
505.125	1139.07
505.332	1149.73
505.539	1170.46
505.746	1248.73
505.953	1210.95
506.16	1215.41
506.367	1251.25
506.574	1272.95
506.781	1306.28
506.988	1206.88
507.195	1208.05
507.402	1204.37
507.609	1279.54
507.816	1207.27
508.023	1181.12
508.23	1165.62
508.437	1159.22
508.644	1212.7
508.851	1245.25
509.058	1237.5
509.265	1229.55
509.472	1274.7
509.679	1299.49
509.885	1236.33
510.092	1251.25
510.299	1232.46
510.506	1198.36
510.713	1223.55
510.92	1247.38
511.126	1290.97
511.333	1283.8
511.54	1308.21
511.746	1344.25
511.953	1354.52
512.16	1350.84
512.367	1269.66
512.573	1286.32
512.78	1298.72
512.987	1282.45
513.193	1332.24
513.4	1203.98
513.606	1265.78
513.813	1305.11
514.02	1282.06
514.226	1349.48
514.433	1350.84
514.639	1254.35
514.846	1273.15
515.052	1260.75
515.259	1308.99
515.465	1289.23
515.672	1291.75
515.878	1404.31
516.085	1328.94
516.291	1378.35
516.497	1298.53
516.704	1307.63
516.91	1274.5
517.117	1211.92
517.323	1180.73
517.529	1205.72
517.736	1176.08
517.942	1174.92
518.148	1234.4
518.354	1258.03
518.561	1277.99
518.767	1237.5
518.973	1304.14
519.179	1306.28
519.386	1263.85
519.592	1286.13
519.798	1267.72
520.004	1398.11
520.21	1337.47
520.417	1380.87
520.623	1423.3
520.829	1422.91
521.035	1412.64
521.241	1456.82
521.447	1439.38
521.653	1556.99
521.859	1453.14
522.065	1452.75
522.271	1549.24
522.477	1488.98
522.683	1567.25
522.889	1478.32
523.095	1511.45
523.301	1480.07
523.507	1458.37
523.713	1514.17
523.919	1434.34
524.125	1525.21
524.331	1502.35
524.537	1631.77
524.742	1609.3
524.948	1626.15
525.154	1583.53
525.36	1711.6
525.566	1618.4
525.772	1691.83
525.977	1568.61
526.183	1630.61
526.389	1700.75
526.595	1620.53
526.8	1605.62
527.006	1520.56
527.212	1510.1
527.417	1463.79
527.623	1429.31
527.829	1547.1
528.034	1567.45
528.24	1611.04
528.446	1581.2
528.651	1675.95
528.857	1669.36
529.062	1726.32
529.268	1677.69
529.473	1693.77
529.679	1691.45
529.884	1823.77
530.09	1764.88
530.295	1728.65
530.501	1764.49
530.706	1778.24
530.912	1720.31
531.117	1772.24
531.323	1760.42
531.528	1802.08
531.733	1817.58
531.939	1754.03
532.144	1785.61
532.35	1819.32
532.555	1850.32
532.76	1835.01
532.966	1802.08
533.171	1824.16
533.376	1752.67
533.581	1718.57
533.787	1743.76
533.992	1769.14
534.197	1814.86
534.402	1797.43
534.607	1789.48
534.813	1919.1
535.018	1820.67
535.223	1792.97
535.428	1817.77
535.633	1865.62
535.838	1891.97
536.043	1850.51
536.249	1956.69
536.454	1883.64
536.659	1881.32
536.864	1887.13
537.069	1834.04
537.274	1883.26
537.479	1845.67
537.684	1870.47
537.889	1806.53
538.094	1953.78
538.299	1843.73
538.504	1892.17
538.708	1920.45
538.913	1923.94
539.118	1911.54
539.323	1960.56
539.528	1908.25
539.733	1893.52
539.938	1919.68
540.142	1921.81
540.347	1880.54
540.552	1844.51
540.757	1872.6
540.962	1873.96
541.166	1833.27
541.371	1819.71
541.576	1864.07
541.781	1736.59
541.985	1879.96
542.19	1872.6
542.395	1958.62
542.599	1968.31
542.804	1933.82
543.008	1996.98
543.213	1869.11
543.418	1846.64
543.622	1924.52
543.827	1861.94
544.031	1946.42
544.236	1964.63
544.44	1931.69
544.645	2005.12
544.849	1936.34
545.054	2006.67
545.258	2035.35
545.463	2052.01
545.667	1983.81
545.872	2004.93
546.076	1977.42
546.281	1958.43
546.485	1933.24
546.689	1956.3
546.894	1992.34
547.098	1992.72
547.302	1929.95
547.507	1960.95
547.711	1969.09
547.915	2031.86
548.119	1938.86
548.324	1958.43
548.528	2023.92
548.732	1960.37
548.936	2024.88
549.141	1977.42
549.345	1960.17
549.549	2004.54
549.753	1988.85
549.957	2070.03
550.161	2064.02
550.366	1999.5
550.57	1978.19
550.774	1990.59
550.978	1993.89
551.182	2041.74
551.386	1972.38
551.59	1998.34
551.794	1982.26
551.998	2002.8
552.202	1999.31
552.406	1949.32
552.61	1988.85
552.814	2044.84
553.018	2062.67
553.222	1978.19
553.426	1980.52
553.63	2084.95
553.833	1970.83
554.037	1942.54
554.241	2068.87
554.445	2013.45
554.649	1999.5
554.853	1944.09
555.056	2015.2
555.26	2028.57
555.464	2021.98
555.668	2045.42
555.871	2057.43
556.075	2027.79
556.279	1971.99
556.483	1933.63
556.686	2003.38
556.89	1985.75
557.094	2002.41
557.297	1923.17
557.501	2007.64
557.704	1874.73
557.908	1966.37
558.112	1947.58
558.315	2010.55
558.519	1930.34
558.722	1939.05
558.926	1895.46
559.129	1896.24
559.333	1826.87
559.536	1830.94
559.74	1831.91
559.943	1828.81
560.147	1827.26
560.35	1835.98
560.553	1849.74
560.757	1801.88
560.96	1912.7
561.164	1824.94
561.367	1943.7
561.57	1876.67
561.774	1874.92
561.977	1837.53
562.18	1843.73
562.384	1925.49
562.587	1841.21
562.79	1846.44
562.993	1826.87
563.197	1859.04
563.4	1928.4
563.603	1920.26
563.806	1944.48
564.009	1788.71
564.212	1855.55
564.416	1802.08
564.619	1836.76
564.822	1800.33
565.025	1883.06
565.228	1830.94
565.431	1825.32
565.634	1713.34
565.837	1758.29
566.04	1714.89
566.243	1777.28
566.446	1656.38
566.649	1773.79
566.852	1706.56
567.055	1747.24
567.258	1723.41
567.461	1824.36
567.664	1806.73
567.867	1668.97
568.07	1762.94
568.273	1764.29
568.475	1789.09
568.678	1663.35
568.881	1691.45
569.084	1677.69
569.287	1606.97
569.489	1631.58
569.692	1681.18
569.895	1689.51
570.098	1599.8
570.3	1593.41
570.503	1572.29
570.706	1604.07
570.909	1597.87
571.111	1533.93
571.314	1556.6
571.516	1579.07
571.719	1581.59
571.922	1548.65
572.124	1565.9
572.327	1583.33
572.529	1530.64
572.732	1558.92
572.935	1592.44
573.137	1660.64
573.34	1538.19
573.542	1597.67
573.745	1601.93
573.947	1581.4
574.15	1530.44
574.352	1539.74
574.554	1602.9
574.757	1523.66
574.959	1539.94
575.162	1529.67
575.364	1499.64
575.566	1621.89
575.769	1518.62
575.971	1509.32
576.173	1367.31
576.376	1475.22
576.578	1532.38
576.78	1557.37
576.982	1405.47
577.185	1470.38
577.387	1465.54
577.589	1434.92
577.791	1512.04
577.993	1528.31
578.196	1439.96
578.398	1507.39
578.6	1498.09
578.802	1416.71
579.004	1419.81
579.206	1412.84
579.408	1453.14
579.61	1383.58
579.812	1464.96
580.014	1388.81
580.216	1415.94
580.418	1417.68
580.62	1404.51
580.822	1361.11
581.024	1384.55
581.226	1436.47
581.428	1429.69
581.63	1525.4
581.832	1395.59
582.034	1457.59
582.236	1396.95
582.438	1448.68
582.64	1454.49
582.841	1489.75
583.043	1512.62
583.245	1410.32
583.447	1465.73
583.649	1432.41
583.85	1441.32
584.052	1432.6
584.254	1381.06
584.456	1487.43
584.657	1365.95
584.859	1443.26
585.061	1396.56
585.262	1390.75
585.464	1330.3
585.666	1395.01
585.867	1349.87
586.069	1426.79
586.27	1388.04
586.472	1356.07
586.674	1368.28
586.875	1354.52
587.077	1366.53
587.278	1386.87
587.48	1340.96
587.681	1468.83
587.883	1385.13
588.084	1298.33
588.285	1331.27
588.487	1348.13
588.688	1346.58
588.89	1269.66
589.091	1282.83
589.292	1247.38
589.494	1224.51
589.695	1211.92
589.896	1164.84
590.098	1134.03
590.299	1227.61
590.5	1163.48
590.702	1198.75
590.903	1235.17
591.104	1294.07
591.305	1232.65
591.507	1308.02
591.708	1288.26
591.909	1249.9
592.11	1334.37
592.311	1301.24
592.512	1245.63
592.714	1200.3
592.915	1208.63
593.116	1252.8
593.317	1232.07
593.518	1245.05
593.719	1266.56
593.92	1276.44
594.121	1305.69
594.322	1270.43
594.523	1266.36
594.724	1228
594.925	1227.23
595.126	1233.23
595.327	1265.2
595.528	1283.61
595.729	1236.14
595.929	1242.53
596.13	1244.86
596.331	1266.36
596.532	1249.12
596.733	1305.11
596.934	1277.02
597.135	1288.65
597.335	1282.83
597.536	1251.25
597.737	1263.85
597.938	1212.31
598.138	1280.31
598.339	1221.41
598.54	1232.26
598.74	1249.12
598.941	1239.82
599.142	1267.14
599.342	1252.41
599.543	1191.58
599.744	1222.77
599.944	1227.61
600.145	1223.74
600.345	1234.59
600.546	1287.48
600.746	1272.37
600.947	1285.16
601.147	1223.74
601.348	1286.9
601.548	1214.63
601.749	1221.41
601.949	1157.87
602.15	1203.78
602.35	1184.41
602.551	1263.07
602.751	1164.84
602.951	1197
603.152	1107.1
603.352	1225.68
603.552	1219.67
603.753	1219.48
603.953	1221.41
604.153	1225.68
604.354	1209.98
604.554	1212.7
604.754	1216.76
604.954	1150.12
605.155	1257.06
605.355	1200.88
605.555	1244.28
605.755	1247.38
605.955	1201.46
606.155	1208.82
606.356	1168.52
606.556	1221.22
606.756	1201.27
606.956	1137.33
607.156	1235.36
607.356	1174.53
607.556	1202.82
607.756	1185.18
607.956	1241.95
608.156	1199.91
608.356	1168.91
608.556	1213.66
608.756	1161.35
608.956	1162.52
609.156	1157.28
609.356	1109.43
609.556	1153.6
609.755	1186.73
609.955	1142.56
610.155	1172.4
610.355	1132.68
610.555	1154.77
610.755	1135.39
610.954	1101.87
611.154	1160.58
611.354	1197.78
611.554	1107.88
611.753	1130.93
611.953	1083.27
612.153	1154.77
612.352	1170.46
612.552	1084.63
612.752	1034.84
612.951	1077.46
613.151	1113.69
613.351	1081.53
613.55	1101.68
613.75	1120.09
613.949	1142.17
614.149	1102.65
614.348	1091.99
614.548	1068.74
614.747	1055.18
614.947	1048.98
615.146	1033.87
615.346	1129.97
615.545	1069.71
615.745	1068.94
615.944	1128.8
616.144	1069.52
616.343	1125.7
616.542	1040.26
616.742	1047.24
616.941	1063.7
617.14	1000.93
617.34	1046.46
617.539	1032.12
617.738	1033.87
617.938	1118.34
618.137	1050.92
618.336	1011.39
618.535	1103.62
618.734	1049.75
618.934	1085.79
619.133	1027.28
619.332	1057.7
619.531	1035.61
619.73	1067
619.929	1088.89
620.128	1070.29
620.328	1087.54
620.527	1033.48
620.726	1038.13
620.925	1024.57
621.124	1059.83
621.323	1056.92
621.522	993.57
621.721	982.91
621.92	984.66
622.119	1070.87
622.318	972.26
622.517	1015.66
622.715	1013.14
622.914	934.86
623.113	1017.01
623.312	941.45
623.511	1025.54
623.71	987.76
623.909	982.33
624.107	1062.93
624.306	975.36
624.505	958.69
624.704	967.02
624.902	956.95
625.101	1027.86
625.3	998.22
625.499	924.01
625.697	959.47
625.896	934.09
626.095	1003.26
626.293	948.62
626.492	953.27
626.69	971.48
626.889	967.41
627.088	992.99
627.286	926.14
627.485	959.08
627.683	946.87
627.882	998.41
628.08	900.57
628.279	946.29
628.477	1036.58
628.676	910.84
628.874	963.15
629.073	927.31
629.271	912.19
629.469	961.02
629.668	944.74
629.866	904.25
630.065	889.72
630.263	942.42
630.461	923.04
630.66	942.61
630.858	943.58
631.056	959.66
631.254	935.83
631.453	883.52
631.651	982.91
631.849	918.39
632.047	907.74
632.245	907.16
632.444	898.83
632.642	951.33
632.84	938.93
633.038	900.96
633.236	883.52
633.434	898.44
633.632	866.47
633.83	886.62
634.028	941.84
634.227	896.31
634.425	985.62
634.623	911.61
634.821	921.49
635.019	915.29
635.216	904.64
635.414	969.93
635.612	913.36
635.81	882.94
636.008	981.36
636.206	896.11
636.404	921.11
636.602	872.28
636.8	894.76
636.997	928.86
637.195	915.49
637.393	911.42
637.591	968.19
637.789	901.34
637.986	918.98
638.184	914.33
638.382	951.52
638.58	933.31
638.777	977.68
638.975	873.25
639.173	904.64
639.37	918.01
639.568	900.76
639.765	931.76
639.963	898.05
640.161	956.17
640.358	964.51
640.556	847.48
640.753	848.26
640.951	840.12
641.148	911.81
641.346	864.34
641.543	865.31
641.741	888.75
641.938	825.01
642.136	844.38
642.333	830.05
642.531	900.38
642.728	950.94
642.925	857.36
643.123	850.97
643.32	864.34
643.517	868.6
643.715	883.33
643.912	851.55
644.109	870.15
644.306	838.18
644.504	803.5
644.701	876.93
644.898	864.14
645.095	832.76
645.293	820.16
645.49	862.01
645.687	823.85
645.884	893.79
646.081	779.67
646.278	819.2
646.475	811.25
646.672	829.27
646.87	864.53
647.067	836.44
647.264	825.4
647.461	796.33
647.658	785.48
647.855	829.46
648.052	818.81
648.249	748.87
648.446	775.99
648.642	780.83
648.839	769.4
649.036	793.23
649.233	739.18
649.43	766.5
649.627	720
649.824	757.2
650.021	718.64
650.217	738.4
650.414	740.92
650.611	784.9
650.808	804.66
651.004	805.05
651.201	808.93
651.398	844.19
651.595	759.72
651.791	729.1
651.988	795.17
652.185	755.26
652.381	767.85
652.578	719.61
652.775	768.24
652.971	744.6
653.168	759.72
653.364	786.26
653.561	703.72
653.757	740.92
653.954	785.68
654.15	747.51
654.347	823.46
654.543	747.51
654.74	707.79
654.936	736.85
655.133	751.97
655.329	737.05
655.525	727.17
655.722	785.29
655.918	708.95
656.115	755.45
656.311	652.96
656.507	673.11
656.704	634.17
656.9	679.12
657.096	656.06
657.292	626.8
657.489	701.4
657.685	689.38
657.881	667.69
658.077	693.26
658.273	695.2
658.47	757
658.666	696.55
658.862	721.16
659.058	680.47
659.254	780.45
659.45	678.92
659.646	719.22
659.842	722.52
660.038	783.35
660.234	691.71
660.43	743.05
660.626	815.71
660.822	767.66
661.018	777.15
661.214	738.6
661.41	669.82
661.606	744.99
661.802	768.82
661.998	738.02
662.194	682.8
662.39	744.22
662.586	727.17
662.781	768.43
662.977	749.83
663.173	771.34
663.369	718.83
663.564	741.7
663.76	769.02
663.956	753.9
664.152	754.87
664.347	660.32
664.543	749.25
664.739	708.18
664.934	682.8
665.13	652.77
665.326	724.07
665.521	718.25
665.717	675.05
665.912	665.55
666.108	646.95
666.304	678.73
666.499	683.96
666.695	617.31
666.89	686.09
667.086	749.25
667.281	711.08
667.477	713.22
667.672	706.63
667.867	707.4
668.063	706.63
668.258	649.09
668.454	722.52
668.649	774.25
668.844	700.04
669.04	714.57
669.235	677.57
669.43	676.79
669.626	646.18
669.821	660.32
670.016	658.39
670.211	679.12
670.407	647.73
670.602	713.02
670.797	674.27
670.992	725.03
671.187	652.77
671.382	727.36
671.578	656.64
671.773	696.17
671.968	657.42
672.163	683.19
672.358	692.29
672.553	666.91
672.748	664.39
672.943	745.18
673.138	673.89
673.333	717.67
673.528	645.21
673.723	713.22
673.918	658.39
674.113	635.52
674.308	751.77
674.503	703.14
674.698	723.87
674.892	673.3
675.087	739.37
675.282	699.46
675.477	649.47
675.672	706.63
675.867	666.52
676.061	641.14
676.256	642.11
676.451	671.17
676.646	675.63
676.84	659.16
677.035	615.76
677.23	614.6
677.424	689.19
677.619	680.86
677.814	704.3
678.008	692.87
678.203	615.18
678.397	634.17
678.592	666.91
678.787	733.56
678.981	637.65
679.176	705.27
679.37	666.52
679.565	635.72
679.759	629.71
679.954	680.47
680.148	703.14
680.342	706.43
680.537	688.61
680.731	658.58
680.926	706.63
681.12	667.1
681.314	657.8
681.509	678.54
681.703	671.56
681.897	710.12
682.092	689
682.286	637.07
682.48	735.11
682.674	674.85
682.869	665.94
683.063	698.3
683.257	718.25
683.451	638.82
683.645	682.22
683.839	648.89
684.034	667.88
684.228	704.69
684.422	623.7
684.616	633.39
684.81	669.43
685.004	629.9
685.198	644.05
685.392	676.21
685.586	608.98
685.78	683.19
685.974	657.22
686.168	648.89
686.362	717.87
686.556	629.52
686.75	602.2
686.944	618.86
687.138	674.27
687.331	559.38
687.525	585.73
687.719	523.34
687.913	565
688.107	552.79
688.301	531.48
688.494	579.92
688.688	564.03
688.882	510.56
689.076	510.56
689.269	572.17
689.463	637.07
689.657	513.46
689.85	576.82
690.044	578.37
690.238	572.94
690.431	565.19
690.625	530.51
690.818	583.99
691.012	579.34
691.205	637.07
691.399	563.45
691.593	614.99
691.786	654.51
691.98	631.65
692.173	669.62
692.366	648.5
692.56	639.59
692.753	701.78
692.947	578.37
693.14	676.4
693.333	701.2
693.527	614.79
693.72	674.66
693.914	626.22
694.107	620.22
694.3	676.21
694.493	653.74
694.687	705.47
694.88	636.3
695.073	695.97
695.266	709.15
695.46	680.67
695.653	726.39
695.846	718.25
696.039	639.59
696.232	656.64
696.425	727.17
696.618	740.53
696.812	712.25
697.005	781.8
697.198	863.18
697.391	774.44
697.584	795.95
697.777	862.4
697.97	842.06
698.163	814.55
698.356	834.11
698.549	942.61
698.742	887.59
698.935	802.34
699.127	876.35
699.32	860.85
699.513	844.38
699.706	889.33
699.899	895.92
700.092	866.08
700.285	925.18
700.477	859.69
700.67	944.16
700.863	947.07
701.056	1027.28
701.248	1008.87
701.441	1009.84
701.634	965.67
701.826	1067.58
702.019	981.75
702.212	1077.65
702.404	1020.5
702.597	998.41
702.79	1024.18
702.982	1056.73
703.175	1122.02
703.367	1094.9
703.56	1123.57
703.752	1204.37
703.945	1153.99
704.137	1155.15
704.33	1196.81
704.522	1206.3
704.715	1241.56
704.907	1271.01
705.1	1269.08
705.292	1269.08
705.484	1280.12
705.677	1304.92
705.869	1314.22
706.061	1368.28
706.254	1403.54
706.446	1343.28
706.638	1332.24
706.831	1432.41
707.023	1392.88
707.215	1488.4
707.407	1486.27
707.599	1458.95
707.792	1515.91
707.984	1522.11
708.176	1525.6
708.368	1518.24
708.56	1575.2
708.752	1566.48
708.944	1516.1
709.136	1605.42
709.329	1596.32
709.521	1712.95
709.713	1689.9
709.905	1710.05
710.097	1719.35
710.289	1656.96
710.481	1692.61
710.672	1744.34
710.864	1718.76
711.056	1829.39
711.248	1794.71
711.44	1828.42
711.632	1783.09
711.824	1856.91
712.016	1905.92
712.207	1949.9
712.399	1892.36
712.591	1944.29
712.783	1937.31
712.975	1986.33
713.166	1965.4
713.358	1957.07
713.55	2050.85
713.741	2026.05
713.933	2044.26
714.125	2040.97
714.316	2028.18
714.508	2137.26
714.7	2139.58
714.891	2123.5
715.083	2229.29
715.274	2163.22
715.466	2176.39
715.657	2225.61
715.849	2102.96
716.04	2197.13
716.232	2119.43
716.423	2232
716.615	2171.55
716.806	2166.71
716.998	2133.19
717.189	2085.53
717.381	2009.19
717.572	1951.26
717.763	2039.42
717.955	2006.48
718.146	1950.87
718.337	1927.82
718.528	1889.46
718.72	1823.77
718.911	1948.74
719.102	1849.35
719.293	1929.75
719.485	1928.4
719.676	1919.29
719.867	1860.01
720.058	1911.54
720.249	1920.45
720.44	1937.7
720.632	1970.64
720.823	2022.95
721.014	2124.47
721.205	2149.27
721.396	2229.48
721.587	2303.3
721.778	2337.4
721.969	2351.54
722.16	2441.44
722.351	2458.88
722.542	2578.61
722.733	2620.46
722.924	2504.6
723.115	2566.6
723.305	2569.12
723.496	2598.18
723.687	2441.63
723.878	2452.87
724.069	2483.68
724.26	2516.81
724.45	2391.07
724.641	2409.47
724.832	2508.28
725.023	2467.98
725.213	2475.15
725.404	2443.77
725.595	2513.52
725.785	2433.11
725.976	2549.75
726.167	2544.9
726.357	2550.91
726.548	2652.04
726.739	2560.4
726.929	2633.25
727.12	2681.3
727.31	2725.09
727.501	2672.97
727.691	2641.19
727.882	2680.72
728.072	2733.22
728.263	2726.06
728.453	2772.36
728.644	2776.43
728.834	2812.47
729.024	2768.49
729.215	2725.28
729.405	2768.29
729.596	2869.04
729.786	2859.35
729.976	2907.4
730.167	2951.19
730.357	2893.26
730.547	2902.95
730.737	2973.86
730.928	2970.76
731.118	3064.73
731.308	3015.13
731.498	2969.21
731.688	3088.75
731.879	3131.76
732.069	3134.09
732.259	3199.96
732.449	3181.56
732.639	3308.46
732.829	3291.41
733.019	3287.34
733.209	3388.87
733.399	3391.97
733.589	3482.25
733.779	3497.56
733.969	3416.76
734.159	3564.79
734.349	3639.96
734.539	3681.62
734.729	3634.73
734.919	3651.39
735.109	3744.97
735.299	3615.74
735.488	3682.39
735.678	3703.12
735.868	3679.49
736.058	3695.37
736.248	3679.29
736.437	3674.06
736.627	3622.33
736.817	3779.07
737.007	3713.2
737.196	3715.14
737.386	3728.89
737.576	3690.53
737.765	3834.87
737.955	3802.9
738.144	3951.12
738.334	3886.02
738.524	3775
738.713	3896.29
738.903	3852.11
739.092	3876.53
739.282	3909.85
739.471	3913.92
739.661	3880.21
739.85	3954.99
740.04	3916.83
740.229	3968.75
740.419	3980.38
740.608	3977.08
740.797	3997.81
740.987	4051.29
741.176	4055.74
741.365	3957.13
741.555	3946.28
741.744	4082.67
741.933	4051.87
742.123	4071.63
742.312	4062.52
742.501	4111.54
742.69	4093.72
742.88	4003.24
743.069	4150.49
743.258	4088.68
743.447	4169.28
743.636	4167.15
743.825	4173.35
744.014	4083.06
744.204	4151.26
744.393	4084.61
744.582	4200.47
744.771	4241.55
744.96	4164.63
745.149	4269.25
745.338	4128.98
745.527	4225.47
745.716	4192.53
745.905	4151.65
746.094	4247.36
746.283	4207.06
746.471	4229.73
746.66	4287.08
746.849	4268.86
747.038	4301.8
747.227	4216.36
747.416	4280.49
747.604	4250.07
747.793	4178.97
747.982	4242.32
748.171	4256.27
748.359	4292.11
748.548	4248.72
748.737	4223.92
748.926	4260.73
749.114	4149.71
749.303	4264.41
749.491	4212.48
749.68	4144.87
749.869	4275.06
750.057	4245.42
750.246	4172.19
750.434	4226.43
750.623	4169.09
750.811	4176.84
751	4275.26
751.188	4174.32
751.377	4177.61
751.565	4171.99
751.754	4200.86
751.942	4161.72
752.131	4249.3
752.319	4142.93
752.507	4140.22
752.696	4207.06
752.884	4203.57
753.072	4141.77
753.261	4188.46
753.449	4208.22
753.637	4141.19
753.825	4251.62
754.014	4167.92
754.202	4173.15
754.39	4248.52
754.578	4229.92
754.766	4144.09
754.955	4133.24
755.143	4227.02
755.331	4139.64
755.519	4193.3
755.707	4141.19
755.895	4139.25
756.083	4132.85
756.271	4098.95
756.459	4134.6
756.647	4145.45
756.835	4094.49
757.023	4078.8
757.211	4055.74
757.399	4102.63
757.587	4069.69
757.775	4021.06
757.963	4078.61
758.151	4033.27
758.339	4070.66
758.526	3997.23
758.714	4034.43
758.902	3977.86
759.09	3888.54
759.278	3713
759.465	3522.36
759.653	3101.73
759.841	2907.02
760.028	2509.25
760.216	2232.58
760.404	2134.55
760.591	1834.24
760.779	1569
760.967	1415.55
761.154	1237.88
761.342	1338.44
761.529	1299.11
761.717	1379.9
761.905	1384.94
762.092	1501.77
762.28	1479.68
762.467	1496.73
762.655	1457.98
762.842	1457.98
763.029	1511.26
763.217	1545.36
763.404	1528.7
763.592	1574.42
763.779	1540.71
763.966	1600.58
764.154	1619.76
764.341	1720.7
764.528	1739.11
764.716	1795.1
764.903	1843.34
765.09	1915.42
765.277	1929.17
765.465	2102.77
765.652	2157.99
765.839	2209.53
766.026	2398.43
766.213	2403.85
766.4	2521.07
766.588	2746.98
766.775	2730.12
766.962	2852.19
767.149	2833.39
767.336	3017.84
767.523	2962.81
767.71	3084.68
767.897	3195.12
768.084	3232.9
768.271	3319.5
768.458	3349.53
768.645	3421.22
768.832	3407.66
769.019	3425.1
769.206	3456.68
769.392	3510.93
769.579	3633.18
769.766	3566.34
769.953	3544.83
770.14	3593.85
770.327	3576.61
770.513	3643.84
770.7	3668.05
770.887	3634.15
771.073	3655.65
771.26	3690.72
771.447	3582.03
771.634	3589.39
771.82	3671.15
772.007	3576.22
772.193	3665.15
772.38	3650.04
772.567	3629.31
772.753	3603.15
772.94	3683.55
773.126	3634.92
773.313	3668.05
773.499	3671.15
773.686	3680.26
773.872	3637.64
774.059	3671.15
774.245	3559.56
774.432	3597.14
774.618	3506.86
774.804	3604.51
774.991	3540.57
775.177	3610.32
775.363	3537.47
775.55	3569.24
775.736	3472.18
775.922	3537.86
776.109	3533.4
776.295	3583.58
776.481	3571.57
776.667	3557.04
776.853	3508.21
777.04	3488.64
777.226	3503.37
777.412	3609.16
777.598	3498.14
777.784	3487.68
777.97	3444.08
778.156	3494.65
778.342	3446.41
778.528	3454.93
778.715	3357.48
778.901	3388.09
779.087	3441.56
779.272	3405.14
779.458	3390.03
779.644	3431.49
779.83	3361.55
780.016	3501.24
780.202	3441.76
780.388	3395.26
780.574	3295.87
780.76	3352.83
780.946	3366.58
781.131	3371.43
781.317	3345.27
781.503	3318.15
781.689	3296.84
781.874	3463.07
782.06	3299.74
782.246	3331.13
782.432	3319.31
782.617	3343.53
782.803	3348.18
782.989	3249.17
783.174	3312.33
783.36	3201.71
783.545	3285.79
783.731	3265.25
783.916	3180.59
784.102	3263.32
784.288	3185.24
784.473	3208.29
784.659	3178.84
784.844	3280.17
785.029	3223.02
785.215	3177.68
785.4	3143.77
785.586	3243.55
785.771	3130.99
785.956	3244.33
786.142	3172.06
786.327	3166.64
786.512	3158.69
786.698	3118.39
786.883	3097.47
787.068	3143.19
787.254	3074.8
787.439	3097.08
787.624	3091.85
787.809	3071.31
787.994	3097.66
788.18	3101.34
788.365	3026.75
788.55	3060.46
788.735	3096.69
788.92	3025.4
789.105	3009.12
789.29	3089.72
789.475	3006.02
789.66	3003.31
789.845	2946.54
790.03	2962.04
790.215	3010.09
790.4	3045.54
790.585	3087.78
790.77	2969.01
790.955	2882.6
791.14	3016.1
791.325	3020.16
791.51	2851.8
791.695	2929.1
791.879	2939.37
792.064	2911.28
792.249	3008.93
792.434	2914.57
792.618	2914.96
792.803	2956.03
792.988	2924.45
793.173	2900.43
793.357	2960.3
793.542	2834.75
793.727	2914.96
793.911	2966.69
794.096	2908.18
794.281	2940.73
794.465	3031.01
794.65	2907.4
794.834	2969.6
795.019	3014.35
795.203	3015.71
795.388	3011.06
795.572	3048.06
795.757	2979.48
795.941	2933.75
796.126	2981.03
796.31	2912.63
796.494	3008.35
796.679	2989.55
796.863	2939.95
797.048	3043.41
797.232	2975.6
797.416	2987.03
797.601	2985.68
797.785	3051.55
797.969	3049.23
798.153	2972.11
798.338	3021.33
798.522	3037.41
798.706	3079.64
798.89	3017.84
799.074	3139.32
799.258	3097.28
799.443	3044.77
799.627	3024.23
799.811	3063.18
799.995	3005.83
800.179	2971.53
800.363	2967.08
800.547	3051.94
800.731	3047.09
800.915	2908.57
801.099	2974.44
801.283	2954.87
801.467	3044.19
801.651	2963.01
801.835	3007.18
802.019	3006.21
802.202	3042.83
802.386	2957.58
802.57	2904.69
802.754	2990.33
802.938	2909.92
803.121	2955.26
803.305	3036.05
803.489	3002.34
803.673	3024.62
803.856	3023.46
804.04	2985.68
804.224	3019.58
804.407	2953.71
804.591	2899.07
804.775	2953.32
804.958	2991.3
805.142	3059.11
805.326	3002.53
805.509	3007.57
805.693	2998.08
805.876	3022.68
806.06	3002.53
806.243	2984.71
806.427	3093.98
806.61	3034.7
806.794	2947.32
806.977	3010.28
807.16	2970.56
807.344	2997.11
807.527	2942.28
807.71	2973.08
807.894	2989.94
808.077	2969.21
808.26	2941.31
808.444	2931.23
808.627	2984.51
808.81	2932.4
808.993	2901.01
809.177	2868.07
809.36	2906.43
809.543	2933.95
809.726	2855.87
809.909	2847.15
810.092	2852.19
810.276	2837.65
810.459	2836.69
810.642	2784.37
810.825	2793.87
811.008	2823.12
811.191	2683.04
811.374	2741.56
811.557	2693.89
811.74	2804.72
811.923	2649.72
812.106	2693.89
812.289	2651.46
812.472	2669.48
812.654	2675.29
812.837	2625.5
813.02	2554.2
813.203	2569.51
813.386	2440.67
813.569	2471.67
813.751	2387
813.934	2429.43
814.117	2403.47
814.3	2360.84
814.482	2321.32
814.665	2263.19
814.848	2244.59
815.03	2141.13
815.213	2158.76
815.396	2224.44
815.578	2131.25
815.761	2100.06
815.943	2177.17
816.126	2043.1
816.309	2044.07
816.491	1986.91
816.674	1916.77
816.856	1962.89
817.039	1952.23
817.221	2051.23
817.403	1951.65
817.586	1983.42
817.768	2012.1
817.951	1926.07
818.133	1905.54
818.315	1928.2
818.498	1960.95
818.68	2060.15
818.862	1991.95
819.045	2029.15
819.227	2009.97
819.409	1979.55
819.591	2029.34
819.774	1987.88
819.956	1919.1
820.138	2026.63
820.32	2019.65
820.502	2084.17
820.684	2131.83
820.866	2129.31
821.048	2194.8
821.231	2151.21
821.413	2169.42
821.595	2145.2
821.777	2163.22
821.959	2198.87
822.141	2250.79
822.323	2102.58
822.505	2042.32
822.686	1990.79
822.868	1906.51
823.05	1798.2
823.232	1782.51
823.414	1689.31
823.596	1784.06
823.778	1766.04
823.96	1772.63
824.141	1799.75
824.323	1806.73
824.505	1897.79
824.687	1950.29
824.868	1979.16
825.05	2078.55
825.232	2136.87
825.413	2163.41
825.595	2120.98
825.777	2068.67
825.958	2121.76
826.14	2143.26
826.321	2147.14
826.503	2055.5
826.685	2103.55
826.866	2131.45
827.048	2112.85
827.229	2115.36
827.411	2060.73
827.592	1998.73
827.773	2003.77
827.955	1955.14
828.136	1931.69
828.318	1907.47
828.499	1984.97
828.68	1878.61
828.862	1898.56
829.043	1966.18
829.224	1944.48
829.406	1892.94
829.587	1896.04
829.768	1901.66
829.949	1905.73
830.131	1908.83
830.312	1974.32
830.493	1909.41
830.674	1942.54
830.855	1875.89
831.036	1893.14
831.218	1939.44
831.399	1984.78
831.58	1917.74
831.761	1903.6
831.942	1936.73
832.123	1919.49
832.304	1844.89
832.485	1873.37
832.666	1910.19
832.847	1913.29
833.028	1896.43
833.209	1907.09
833.389	1868.92
833.57	1828.42
833.751	1830.17
833.932	1916.77
834.113	1883.45
834.294	1841.79
834.475	1906.12
834.655	1897.01
834.836	1947.77
835.017	1909.02
835.198	1853.22
835.378	1919.49
835.559	1938.28
835.74	1868.53
835.92	1914.45
836.101	1892.94
836.281	1934.4
836.462	1922.78
836.643	1922.2
836.823	1955.33
837.004	1941.38
837.184	1950.49
837.365	1992.92
837.545	1955.33
837.726	1927.43
837.906	1997.18
838.087	1945.06
838.267	1940.41
838.448	1875.12
838.628	1942.35
838.808	1923.94
838.989	1992.53
839.169	1942.74
839.349	1941.96
839.53	1954.94
839.71	1939.44
839.89	1905.54
840.07	1951.65
840.251	1898.17
840.431	1940.22
840.611	1933.63
840.791	1880.74
840.971	1935.76
841.151	1888.87
841.332	1871.82
841.512	1941.57
841.692	1859.23
841.872	1888.1
842.052	1870.47
842.232	1915.03
842.412	1841.6
842.592	1857.49
842.772	1887.52
842.952	1897.4
843.132	1847.02
843.312	1852.26
843.492	1817.58
843.672	1906.12
843.851	1804.4
844.031	1844.12
844.211	1822.81
844.391	1816.22
844.571	1863.11
844.751	1867.56
844.93	1875.12
845.11	1785.61
845.29	1834.62
845.47	1880.74
845.649	1835.21
845.829	1867.95
846.009	1828.62
846.188	1852.84
846.368	1840.82
846.547	1807.31
846.727	1865.24
846.907	1740.08
847.086	1837.34
847.266	1820.67
847.445	1788.9
847.625	1760.42
847.804	1788.32
847.984	1793.74
848.163	1751.7
848.343	1753.06
848.522	1772.63
848.701	1803.82
848.881	1709.85
849.06	1812.54
849.239	1801.69
849.419	1815.83
849.598	1697.06
849.777	1720.7
849.957	1694.93
850.136	1612.4
850.315	1609.49
850.494	1585.08
850.674	1623.44
850.853	1671.49
851.032	1643.01
851.211	1725.35
851.39	1659.09
851.569	1618.6
851.748	1622.86
851.927	1698.42
852.107	1677.5
852.286	1632.74
852.465	1596.51
852.644	1649.6
852.823	1688.35
853.002	1666.06
853.181	1653.86
853.359	1705.4
853.538	1602.52
853.717	1663.35
853.896	1535.09
854.075	1491.11
854.254	1476.97
854.433	1384.55
854.611	1464.76
854.79	1355.68
854.969	1438.02
855.148	1429.69
855.327	1428.53
855.505	1480.84
855.684	1448.49
855.863	1480.65
856.041	1464.57
856.22	1524.82
856.399	1505.25
856.577	1616.08
856.756	1539.55
856.934	1700.75
857.113	1686.21
857.291	1600.58
857.47	1562.6
857.648	1614.33
857.827	1581.78
858.005	1610.46
858.184	1542.84
858.362	1652.7
858.541	1549.43
858.719	1574.23
858.898	1558.34
859.076	1548.85
859.254	1607.94
859.433	1559.31
859.611	1505.06
859.789	1495.37
859.967	1619.57
860.146	1601.74
860.324	1483.75
860.502	1543.62
860.68	1476.58
860.859	1478.71
861.037	1532.77
861.215	1496.15
861.393	1529.86
861.571	1497.7
861.749	1514.36
861.927	1520.95
862.105	1489.95
862.283	1496.34
862.461	1480.65
862.639	1454.49
862.817	1464.76
862.995	1487.62
863.173	1445.58
863.351	1481.81
863.529	1504.87
863.707	1501.57
863.885	1476
864.063	1416.32
864.241	1445.19
864.418	1521.53
864.596	1429.69
864.774	1383.19
864.952	1447.13
865.129	1452.75
865.307	1405.67
865.485	1376.03
865.663	1444.03
865.84	1344.06
866.018	1408.38
866.196	1207.08
866.373	1270.82
866.551	1230.33
866.728	1158.25
866.906	1202.23
867.084	1257.65
867.261	1282.45
867.439	1294.65
867.616	1322.16
867.794	1313.44
867.971	1304.34
868.149	1319.45
868.326	1348.13
868.503	1368.28
868.681	1379.32
868.858	1320.42
869.035	1294.65
869.213	1344.83
869.39	1327.2
869.567	1386.49
869.745	1324.68
869.922	1354.71
870.099	1362.85
870.276	1354.52
870.454	1335.73
870.631	1342.51
870.808	1324.68
870.985	1409.74
871.162	1400.44
871.339	1372.15
871.517	1276.05
871.694	1299.88
871.871	1339.79
872.048	1313.06
872.225	1286.51
872.402	1291.75
872.579	1246.6
872.756	1286.13
872.933	1244.86
873.11	1294.46
873.287	1323.71
873.463	1294.85
873.64	1247.18
873.817	1300.27
873.994	1284.77
874.171	1242.53
874.348	1309.96
874.524	1228.78
874.701	1292.52
874.878	1181.31
875.055	1271.79
875.231	1237.69
875.408	1264.62
875.585	1180.73
875.762	1258.23
875.938	1226.84
876.115	1208.24
876.291	1194.87
876.468	1190.03
876.645	1184.41
876.821	1174.72
876.998	1188.48
877.174	1237.88
877.351	1190.22
877.527	1182.08
877.704	1202.43
877.88	1189.45
878.057	1165.03
878.233	1216.18
878.409	1174.92
878.586	1199.13
878.762	1147.6
878.938	1153.02
879.115	1102.84
879.291	1168.13
879.467	1110.4
879.644	1135.97
879.82	1156.7
879.996	1102.26
880.172	1093.54
880.349	1170.07
880.525	1167.17
880.701	1109.24
880.877	1111.56
881.053	1100.32
881.229	1149.15
881.405	1168.72
881.581	1089.28
881.757	1092.57
881.933	1136.36
882.109	1194.68
882.285	1148.57
882.461	1082.11
882.637	1133.65
882.813	1067.58
882.989	1104
883.165	1166.58
883.341	1092.19
883.517	1155.54
883.693	1117.18
883.869	1176.66
884.044	1083.08
884.22	1122.22
884.396	1167.55
884.572	1138.49
884.747	1195.26
884.923	1158.64
885.099	1154.57
885.275	1174.14
885.45	1155.15
885.626	1078.62
885.801	1100.9
885.977	1100.71
886.153	1047.43
886.328	1120.09
886.504	1071.84
886.679	1121.63
886.855	1089.28
887.03	1094.9
887.206	1110.59
887.381	1136.75
887.557	1150.5
887.732	1126.67
887.908	1137.52
888.083	1160.77
888.258	1075.33
888.434	1078.62
888.609	1100.9
888.784	1163.87
888.96	1116.79
889.135	1098.97
889.31	1079.79
889.485	1116.6
889.661	1095.67
889.836	1142.37
890.011	1140.82
890.186	1077.65
890.361	1088.89
890.537	1104
890.712	1117.18
890.887	1098.58
891.062	1117.18
891.237	1139.65
891.412	1100.9
891.587	1114.47
891.762	1132.87
891.937	1164.07
892.112	1068.74
892.287	1100.32
892.462	1035.03
892.637	1050.92
892.812	1044.72
892.987	1031.35
893.161	1041.42
893.336	1007.91
893.511	1014.49
893.686	1053.24
893.861	1047.43
894.035	1026.89
894.21	1044.91
894.385	1006.94
894.56	1027.47
894.734	946.1
894.909	971.29
895.084	948.04
895.258	963.92
895.433	969.35
895.608	940.87
895.782	919.36
895.957	936.41
896.131	948.04
896.306	872.48
896.48	851.16
896.655	840.12
896.829	796.33
897.004	769.21
897.178	817.06
897.353	779.28
897.527	837.41
897.701	835.28
897.876	763.2
898.05	850.58
898.224	807.57
898.399	868.41
898.573	814.35
898.747	703.14
898.921	752.35
899.096	679.89
899.27	673.69
899.444	645.21
899.618	695.78
899.792	693.07
899.967	705.27
900.141	763.59
900.315	679.12
900.489	676.21
900.663	708.76
900.837	735.88
901.011	646.37
901.185	764.37
901.359	679.12
901.533	723.29
901.707	714.96
901.881	725.62
902.055	651.02
902.229	699.07
902.403	769.6
902.576	713.02
902.75	698.68
902.924	843.8
903.098	755.45
903.272	803.7
903.446	846.13
903.619	797.69
903.793	804.66
903.967	825.98
904.14	872.86
904.314	872.09
904.488	850.2
904.661	884.68
904.835	839.93
905.009	894.76
905.182	930.41
905.356	868.41
905.529	871.12
905.703	829.85
905.876	851.75
906.05	804.28
906.223	781.22
906.397	765.92
906.57	694.62
906.744	724.65
906.917	729.68
907.09	701.98
907.264	719.03
907.437	684.15
907.61	647.92
907.784	615.57
907.957	677.95
908.13	624.09
908.304	707.21
908.477	613.82
908.65	642.3
908.823	591.93
908.996	712.05
909.17	626.61
909.343	604.33
909.516	654.12
909.689	621.77
909.862	629.71
910.035	645.21
910.208	605.3
910.381	566.36
910.554	704.3
910.727	635.52
910.9	610.53
911.073	594.06
911.246	658.77
911.419	667.3
911.592	656.25
911.765	612.08
911.938	604.91
912.11	640.95
912.283	603.75
912.456	673.3
912.629	637.85
912.802	601.81
912.974	611.5
913.147	529.16
913.32	476.26
913.493	510.75
913.665	508.81
913.838	543.11
914.01	544.85
914.183	562.29
914.356	570.04
914.528	610.14
914.701	657.42
914.873	590.19
915.046	557.06
915.218	519.66
915.391	472.39
915.563	501.45
915.736	526.44
915.908	560.35
916.081	547.95
916.253	532.06
916.425	559.77
916.598	551.24
916.77	565
916.942	514.24
917.115	454.76
917.287	532.26
917.459	512.3
917.632	494.86
917.804	427.63
917.976	513.27
918.148	535.55
918.32	525.47
918.493	535.94
918.665	597.35
918.837	530.32
919.009	592.9
919.181	572.17
919.353	577.4
919.525	534
919.697	540.39
919.869	554.34
920.041	620.41
920.213	650.25
920.385	606.85
920.557	543.49
920.729	580.11
920.901	542.72
921.073	565
921.244	535.74
921.416	588.64
921.588	551.63
921.76	525.09
921.932	576.04
922.103	518.11
922.275	540.97
922.447	564.22
922.619	452.63
922.79	532.26
922.962	533.42
923.134	533.22
923.305	505.52
923.477	477.23
923.648	481.69
923.82	513.27
923.991	439.06
924.163	443.33
924.335	468.51
924.506	445.07
924.677	536.71
924.849	465.8
925.02	482.08
925.192	525.09
925.363	478.98
925.535	481.69
925.706	457.28
925.877	536.71
926.049	455.53
926.22	527.02
926.391	475.68
926.562	515.79
926.734	465.03
926.905	525.67
927.076	432.28
927.247	466.38
927.419	428.02
927.59	427.24
927.761	414.26
927.932	407.1
928.103	434.41
928.274	376.68
928.445	369.12
928.616	359.82
928.787	392.18
928.958	397.02
929.129	363.31
929.3	344.71
929.471	313.71
929.642	276.12
929.813	251.13
929.984	348.2
930.155	237.57
930.326	290.65
930.496	263.33
930.667	208.7
930.838	253.07
931.009	202.3
931.18	252.1
931.35	200.95
931.521	217.8
931.692	188.94
931.863	139.92
932.033	175.37
932.204	178.09
932.374	176.73
932.545	130.81
932.716	203.66
932.886	170.72
933.057	101.94
933.227	112.6
933.398	217.61
933.568	110.08
933.739	66.49
933.909	64.36
934.08	141.27
934.25	48.66
934.421	71.72
934.591	94.77
934.761	84.12
934.932	28.9
935.102	124.81
935.272	75.4
935.443	104.85
935.613	57.38
935.783	97.29
935.953	79.27
936.123	231.95
936.294	68.04
936.464	69.59
936.634	86.44
936.804	54.67
936.974	22.31
937.144	101.75
937.314	97.1
937.484	78.89
937.655	46.14
937.825	103.49
937.995	56.41
938.165	140.11
938.334	71.14
938.504	123.64
938.674	70.94
938.844	107.76
939.014	143.41
939.184	142.05
939.354	190.49
939.524	196.49
939.694	139.34
939.863	134.88
940.033	191.84
940.203	183.9
940.373	162.39
940.542	182.93
940.712	142.82
940.882	163.17
941.051	179.44
941.221	169.17
941.391	171.69
941.56	134.49
941.73	116.47
941.899	244.93
942.069	150.77
942.238	157.36
942.408	110.08
942.577	162.39
942.747	124.61
942.916	74.04
943.086	86.06
943.255	172.27
943.425	161.04
943.594	101.56
943.763	41.69
943.933	81.21
944.102	35.1
944.271	80.05
944.441	109.5
944.61	87.8
944.779	95.16
944.948	217.22
945.117	62.61
945.287	102.52
945.456	49.05
945.625	72.3
945.794	131.59
945.963	69.78
946.132	136.24
946.301	84.7
946.47	124.03
946.639	58.74
946.808	69.59
946.977	126.55
947.146	158.91
947.315	84.31
947.484	117.25
947.653	77.72
947.822	76.76
947.991	91.67
948.16	175.76
948.329	141.66
948.498	90.9
948.666	121.9
948.835	130.04
949.004	51.76
949.173	87.02
949.341	123.06
949.51	137.01
949.679	136.82
949.847	146.31
950.016	167.24
950.185	159.49
950.353	68.04
950.522	94.77
950.69	149.61
950.859	75.98
951.028	157.94
951.196	109.89
951.365	93.03
951.533	109.31
951.701	153.29
951.87	153.29
952.038	84.12
952.207	93.22
952.375	176.15
952.543	85.47
952.712	97.87
952.88	64.94
953.048	160.65
953.217	145.92
953.385	111.63
953.553	162.2
953.721	68.04
953.89	125.97
954.058	61.06
954.226	90.51
954.394	98.84
954.562	71.33
954.73	122.29
954.898	96.52
955.067	101.75
955.235	86.44
955.403	131.2
955.571	163.17
955.739	127.32
955.907	70.75
956.075	75.4
956.243	61.64
956.41	106.4
956.578	50.99
956.746	57.19
956.914	84.31
957.082	153.48
957.25	83.92
957.418	75.4
957.585	108.34
957.753	139.72
957.921	72.3
958.089	96.71
958.256	132.56
958.424	110.27
958.592	99.42
958.759	55.06
958.927	132.56
959.095	89.93
959.262	92.64
959.43	82.18
959.597	87.41
959.765	105.82
959.932	66.68
960.1	156
960.267	99.04
960.435	114.34
960.602	150.19
960.77	79.86
960.937	85.47
961.104	101.36
961.272	51.57
961.439	94.77
961.606	121.12
961.774	129.65
961.941	103.49
962.108	121.12
962.275	111.05
962.443	157.55
962.61	97.68
962.777	199.59
962.944	151.74
963.111	137.4
963.278	128.29
963.446	129.65
963.613	101.36
963.78	138.17
963.947	117.83
964.114	123.84
964.281	211.8
964.448	131.39
964.615	63.19
964.782	159.87
964.949	154.45
965.116	137.79
965.282	156
965.449	99.23
965.616	101.56
965.783	153.67
965.95	104.46
966.117	74.43
966.283	108.53
966.45	119.38
966.617	144.37
966.784	140.69
966.95	150.57
967.117	123.45
967.284	106.01
967.45	86.83
967.617	158.91
967.784	147.86
967.95	197.46
968.117	114.92
968.283	161.23
968.45	240.86
968.616	163.17
968.783	174.02
968.949	122.29
969.116	160.84
969.282	138.37
969.449	144.76
969.615	163.94
969.781	99.04
969.948	96.13
970.114	96.52
970.28	203.85
970.447	104.46
970.613	188.74
970.779	119.96
970.945	168.98
971.112	158.13
971.278	127.91
971.444	128.1
971.61	174.02
971.776	114.73
971.942	165.49
972.108	130.81
972.275	124.81
972.441	121.51
972.607	213.35
972.773	84.7
972.939	112.6
973.105	112.99
973.271	94.39
973.437	105.04
973.602	91.48
973.768	140.89
973.934	119.38
974.1	141.08
974.266	62.23
974.432	122.09
974.598	127.52
974.763	134.69
974.929	105.43
975.095	189.9
975.261	95.94
975.426	63.39
975.592	117.83
975.758	186.42
975.923	68.81
976.089	89.16
976.255	126.16
976.42	144.57
976.586	135.85
976.751	118.02
976.917	198.62
977.082	143.41
977.248	50.41
977.413	52.93
977.579	90.12
977.744	115.7
977.91	83.92
978.075	76.56
978.24	155.22
978.406	108.72
978.571	89.74
978.736	68.04
978.902	107.95
979.067	80.24
979.232	35.1
979.397	128.29
979.563	180.8
979.728	71.14
979.893	98.84
980.058	78.69
980.223	128.68
980.388	89.74
980.554	117.06
980.719	81.41
980.884	129.07
981.049	121.51
981.214	85.67
981.379	121.71
981.544	92.84
981.709	96.71
981.874	90.12
982.039	88.19
982.204	140.5
982.368	107.95
982.533	93.22
982.698	149.22
982.863	144.76
983.028	70.94
983.193	129.07
983.357	104.07
983.522	109.11
983.687	87.99
983.852	109.69
984.016	93.42
984.181	100.59
984.346	116.09
984.51	143.79
984.675	83.73
984.839	150.96
985.004	121.51
985.168	157.94
985.333	95.36
985.498	103.49
985.662	124.22
985.827	125
985.991	100.97
986.155	79.27
986.32	110.86
986.484	180.41
986.649	120.93
986.813	42.08
986.977	93.61
987.142	113.96
987.306	84.7
987.47	56.22
987.634	72.11
987.799	91.48
987.963	106.21
988.127	135.07
988.291	197.65
988.455	130.04
988.62	75.59
988.784	130.23
988.948	114.73
989.112	64.74
989.276	114.15
989.44	87.99
989.604	89.16
989.768	90.12
989.932	167.04
990.096	62.23
990.26	41.49
990.424	36.46
990.588	92.06
990.752	180.8
990.915	118.8
991.079	84.12
991.243	67.65
991.407	115.12
991.571	98.26
991.734	121.32
991.898	114.15
992.062	168.98
992.226	79.47
992.389	70.75
992.553	55.44
992.717	60.68
992.88	85.67
993.044	81.99
993.207	74.62
993.371	97.1
993.535	137.01
993.698	52.73
993.862	115.12
994.025	152.51
994.189	118.02
994.352	75.59
994.515	100.01
994.679	125.19
994.842	77.72
995.006	124.81
995.169	24.44
995.332	49.63
995.496	148.06
995.659	36.46
995.822	86.64
995.985	71.91
996.149	130.04
996.312	79.08
996.475	140.69
996.638	70.56
996.801	140.11
996.964	137.59
997.128	69.2
997.291	96.52
997.454	87.61
997.617	28.13
997.78	132.56
997.943	42.08
998.106	92.26
998.269	55.83
998.432	62.03
998.595	80.44
998.758	26.96
998.92	46.53
999.083	23.09
999.246	64.94
999.409	54.28
999.572	-8.11
999.735	68.23
999.897	90.32
1000.06	62.03
1000.223	56.99
1000.386	114.34
1000.548	90.12
1000.711	67.46
1000.874	87.22
1001.036	22.7
1001.199	101.75
1001.361	53.7
1001.524	91.87
1001.687	93.42
1001.849	49.05
1002.012	66.68
1002.174	58.54
1002.337	96.52
1002.499	53.31
1002.661	112.6
1002.824	32
1002.986	71.91
1003.149	70.56
1003.311	29.48
1003.473	110.27
1003.636	21.15
1003.798	87.02
1003.96	81.21
1004.123	62.03
1004.285	37.04
1004.447	68.43
1004.609	48.66
1004.771	131.78
1004.933	-4.62
1005.096	15.92
1005.258	13.59
1005.42	64.94
1005.582	94.39
1005.744	72.3
1005.906	-6.56
1006.068	60.48
1006.23	-0.36
1006.392	4.29
1006.554	31.23
1006.716	93.42
1006.878	91.09
1007.04	2.94
1007.202	44.98
1007.363	60.48
1007.525	62.61
1007.687	53.89
1007.849	115.7
1008.011	-5.2
1008.172	13.21
1008.334	24.44
1008.496	100.78
1008.658	-9.27
1008.819	3.71
1008.981	19.79
1009.143	23.67
1009.304	24.44
1009.466	65.13
1009.627	98.07
1009.789	162.78
1009.95	37.43
1010.112	6.23
1010.273	55.25
1010.435	36.26
1010.596	31.23
1010.758	23.48
1010.919	28.13
1011.081	-7.14
1011.242	20.76
1011.403	69.01
1011.565	37.04
1011.726	75.01
1011.887	3.52
1012.049	24.06
1012.21	88.19
1012.371	73.27
1012.532	-25.35
1012.693	34.33
1012.855	5.46
1013.016	57.58
1013.177	71.53
1013.338	45.95
1013.499	117.83
1013.66	70.36
1013.821	74.43
1013.982	43.24
1014.143	16.69
1014.304	18.44
1014.465	26.96
1014.626	73.46
1014.787	6.04
1014.948	113.96
1015.109	-36.97
1015.27	71.91
1015.431	18.05
1015.592	-5.01
1015.752	66.1
1015.913	64.16
1016.074	51.96
1016.235	67.26
1016.395	26.19
1016.556	17.66
1016.717	21.15
1016.877	91.09
1017.038	-3.84
1017.199	42.08
1017.359	35.29
1017.52	48.08
1017.681	20.18
1017.841	31.81
1018.002	11.46
1018.162	26.77
1018.323	88.96
1018.483	21.34
1018.644	22.7
1018.804	-5.59
1018.964	-1.13
1019.125	11.27
1019.285	45.18
1019.446	-6.36
1019.606	33.16
1019.766	-26.51
1019.926	52.93
1020.087	34.52
1020.247	-8.69
1020.407	48.47
1020.567	61.26
1020.728	25.8
1020.888	-6.36
1021.048	18.05
1021.208	-33.29
1021.368	7.59
1021.528	77.92
1021.688	71.91
1021.848	41.11
1022.008	36.84
1022.168	31.81
1022.328	34.71
1022.488	61.84
1022.648	19.79
1022.808	34.33
1022.968	44.59
1023.128	-28.64
1023.288	11.08
1023.448	13.01
1023.608	67.07
1023.767	56.41
1023.927	5.07
1024.087	5.26
1024.247	-11.01
1024.406	-1.13
1024.566	10.11
1024.726	-8.88
1024.885	31.23
1025.045	57.38
1025.205	30.26
1025.364	29.87
1025.524	25.41
1025.683	0.42
1025.843	34.52
1026.003	23.28
1026.162	74.24
1026.321	52.93
1026.481	38.01
1026.64	9.14
1026.8	52.93
1026.959	15.53
1027.119	16.11
1027.278	11.85
1027.437	10.49
1027.597	9.72
1027.756	26.58
1027.915	49.83
1028.074	60.87
1028.234	-3.46
1028.393	9.33
1028.552	8.75
1028.711	-58.67
1028.87	69.78
1029.03	-15.08
1029.189	0.23
1029.348	-54.8
1029.507	16.31
1029.666	4.29
1029.825	-7.33
1029.984	-15.66
1030.143	9.91
1030.302	7.59
1030.461	-28.84
1030.62	-0.55
1030.779	46.73
1030.938	2.94
1031.097	-27.09
1031.255	42.46
1031.414	66.68
1031.573	44.4
1031.732	-40.65
1031.891	16.31
1032.049	67.46
1032.208	50.79
1032.367	-5.59
1032.525	17.47
1032.684	23.48
1032.843	38.78
1033.001	-29.61
1033.16	162.39
1033.319	61.26
1033.477	15.92
1033.636	7.78
1033.794	-63.13
1033.953	66.1
1034.111	54.48
1034.27	8.36
1034.428	27.35
1034.587	-21.28
1034.745	-6.36
1034.903	30.64
1035.062	67.46
1035.22	-40.27
1035.378	11.85
1035.537	-10.04
1035.695	40.53
1035.853	10.11
1036.011	46.73
1036.17	26.38
1036.328	-73.98
1036.486	39.17
1036.644	-10.43
1036.802	-50.15
1036.96	-15.47
1037.119	-2.1
1037.277	-9.07
1037.435	-32.13
1037.593	-42.2
1037.751	26.77
1037.909	17.28
1038.067	17.28
