Data from pine_FLMT105791__145__17-22-44-074.txt Node

Date: Mon Mar 20 17:22:44 GMT 2023
User: antho
Spectrometer: FLMT10579
Trigger mode: 0
Integration Time (sec): 1.000000E-1
Scans to average: 10
Electric dark correction enabled: true
Nonlinearity correction enabled: false
Boxcar width: 0
XAxis mode: Wavelengths
Number of Pixels in Spectrum: 3648
>>>>>Begin Spectral Data<<<<<
345.248	-165.4
345.464	-165.4
345.681	-165.4
345.898	-160.36
346.114	-185.93
346.331	-24.15
346.548	34.55
346.764	-30.16
346.981	-22.22
347.197	-13.11
347.414	10.91
347.631	-29.58
347.847	91.13
348.064	-0.9
348.28	28.16
348.497	-31.52
348.713	-13.11
348.93	18.08
349.146	33.39
349.363	6.85
349.579	23.7
349.796	-15.44
350.012	-11.37
350.229	34.36
350.445	12.46
350.661	-42.95
350.878	-7.3
351.094	13.43
351.311	17.11
351.527	10.14
351.743	-15.44
351.96	31.06
352.176	29.51
352.392	3.16
352.609	48.5
352.825	-4.39
353.041	12.85
353.257	-16.02
353.474	0.65
353.69	7.04
353.906	-14.47
354.122	-38.1
354.339	30.48
354.555	1.61
354.771	-3.04
354.987	55.67
355.203	40.75
355.42	-16.79
355.636	-22.22
355.852	-35.78
356.068	-15.82
356.284	-53.8
356.5	44.05
356.716	18.66
356.932	2.39
357.148	29.13
357.364	0.84
357.58	43.66
357.796	38.43
358.012	62.64
358.228	26.03
358.444	-72.78
358.66	51.6
358.876	28.74
359.092	-52.44
359.308	28.55
359.524	15.76
359.74	-0.71
359.956	-25.12
360.172	6.07
360.388	54.7
360.604	-5.94
360.819	66.91
361.035	32.42
361.251	18.28
361.467	-16.21
361.683	41.14
361.898	17.7
362.114	10.14
362.33	34.36
362.546	48.89
362.762	1.42
362.977	24.28
363.193	-22.8
363.409	44.05
363.624	-6.52
363.84	-38.49
364.056	-15.24
364.271	31.26
364.487	5.3
364.703	-14.47
364.918	-22.41
365.134	15.56
365.35	6.85
365.565	86.86
365.781	3.75
365.996	1.03
366.212	69.62
366.427	16.53
366.643	-0.13
366.858	-7.69
367.074	-17.18
367.289	67.68
367.505	121.54
367.72	-45.27
367.936	-10.4
368.151	29.51
368.367	43.66
368.582	4.52
368.798	-8.85
369.013	52.96
369.228	12.08
369.444	2.78
369.659	45.21
369.874	1.81
370.09	57.41
370.305	-49.53
370.52	-9.82
370.736	64.39
370.951	5.68
371.166	50.05
371.381	48.11
371.597	24.67
371.812	-34.03
372.027	-20.09
372.242	7.23
372.458	87.44
372.673	-0.9
372.888	16.92
373.103	0.65
373.318	82.79
373.533	18.28
373.749	31.84
373.964	-45.85
374.179	58.96
374.394	5.1
374.609	27.77
374.824	-0.71
375.039	63.42
375.254	-23.57
375.469	45.01
375.684	20.8
375.899	55.67
376.114	14.79
376.329	36.49
376.544	26.03
376.759	39.59
376.974	-0.71
377.189	-5.55
377.404	-0.52
377.619	36.49
377.834	-31.32
378.049	-29
378.264	-36.94
378.478	9.17
378.693	-26.67
378.908	35.71
379.123	-16.99
379.338	38.04
379.553	22.93
379.767	10.33
379.982	29.32
380.197	22.93
380.412	16.73
380.626	30.48
380.841	91.9
381.056	47.53
381.271	46.76
381.485	-19.31
381.7	-39.46
381.915	18.08
382.129	22.35
382.344	1.23
382.559	7.23
382.773	51.02
382.988	-52.83
383.202	30.1
383.417	-2.26
383.632	106.04
383.846	19.25
384.061	19.05
384.275	16.73
384.49	18.86
384.704	46.76
384.919	38.43
385.133	4.52
385.348	32.23
385.562	-7.69
385.777	27.77
385.991	15.56
386.206	13.63
386.42	-5.94
386.634	55.48
386.849	37.07
387.063	17.11
387.277	-8.07
387.492	-9.24
387.706	-1.68
387.92	-20.09
388.135	51.41
388.349	-3.81
388.563	42.69
388.778	26.41
388.992	42.11
389.206	16.34
389.42	82.41
389.635	11.69
389.849	40.75
390.063	58.38
390.277	32.23
390.491	71.75
390.706	38.81
390.92	56.25
391.134	34.16
391.348	35.33
391.562	-40.82
391.776	11.88
391.99	-6.14
392.205	40.95
392.419	-5.94
392.633	30.68
392.847	75.82
393.061	1.81
393.275	94.23
393.489	45.21
393.703	25.06
393.917	82.21
394.131	19.25
394.345	39.01
394.559	61.29
394.773	7.04
394.986	55.48
395.2	18.28
395.414	25.06
395.628	-28.22
395.842	35.33
396.056	36.1
396.27	-22.6
396.484	44.43
396.697	31.06
396.911	81.44
397.125	57.41
397.339	56.25
397.553	50.83
397.766	88.41
397.98	39.59
398.194	67.1
398.408	-1.87
398.621	45.4
398.835	57.03
399.049	33.39
399.262	72.53
399.476	39.01
399.69	56.83
399.903	107.01
400.117	33.58
400.331	49.28
400.544	8.98
400.758	124.26
400.971	68.07
401.185	69.62
401.398	-10.79
401.612	92.48
401.826	49.47
402.039	45.01
402.253	30.29
402.466	52.38
402.68	14.79
402.893	39.2
403.106	38.81
403.32	39.98
403.533	47.73
403.747	25.25
403.96	25.64
404.174	83.18
404.387	3.75
404.6	43.85
404.814	55.09
405.027	43.66
405.24	43.08
405.454	19.44
405.667	78.14
405.88	-17.18
406.094	59.93
406.307	82.99
406.52	58.96
406.733	6.65
406.947	-4
407.16	93.64
407.373	79.5
407.586	44.63
407.799	0.06
408.012	67.88
408.226	41.14
408.439	95.78
408.652	-1.49
408.865	49.47
409.078	76.59
409.291	50.05
409.504	3.36
409.717	24.48
409.93	42.3
410.143	28.35
410.357	-14.27
410.57	17.31
410.783	34.36
410.996	69.62
411.209	53.73
411.421	78.92
411.634	38.23
411.847	5.3
412.06	50.83
412.273	43.27
412.486	30.1
412.699	113.99
412.912	44.63
413.125	83.38
413.338	41.91
413.55	70.78
413.763	10.72
413.976	36.49
414.189	36.1
414.402	58.38
414.615	121.74
414.827	27
415.04	70.2
415.253	54.9
415.466	67.68
415.678	92.87
415.891	48.89
416.104	62.84
416.316	15.18
416.529	22.15
416.742	57.61
416.954	91.51
417.167	39.98
417.38	41.53
417.592	67.68
417.805	15.37
418.017	-6.91
418.23	63.03
418.442	25.06
418.655	13.63
418.868	75.04
419.08	73.3
419.293	77.95
419.505	41.72
419.718	71.17
419.93	74.66
420.142	48.11
420.355	72.72
420.567	130.07
420.78	60.32
420.992	35.52
421.205	103.14
421.417	28.93
421.629	52.38
421.842	-6.14
422.054	10.72
422.266	76.98
422.479	97.13
422.691	29.9
422.903	95.78
423.115	33.78
423.328	46.56
423.54	73.69
423.752	36.68
423.964	15.95
424.177	69.81
424.389	56.06
424.601	151.77
424.813	71.56
425.025	89.58
425.238	85.31
425.45	37.07
425.662	53.54
425.874	363.34
426.086	48.11
426.298	71.94
426.51	75.24
426.722	61.29
426.934	38.62
427.146	98.29
427.358	14.21
427.57	108.76
427.782	96.74
427.994	67.49
428.206	36.88
428.418	0.65
428.63	82.21
428.842	87.64
429.054	82.21
429.266	121.16
429.478	55.28
429.69	81.63
429.902	25.45
430.114	110.5
430.325	81.44
430.537	58
430.749	59.93
430.961	35.91
431.173	84.73
431.384	89.96
431.596	24.48
431.808	55.67
432.02	100.23
432.231	91.51
432.443	96.94
432.655	79.69
432.867	80.47
433.078	107.01
433.29	160.1
433.502	120.19
433.713	135.11
433.925	84.73
434.136	137.82
434.348	62.64
434.56	30.29
434.771	177.34
434.983	24.28
435.194	72.53
435.406	72.33
435.617	126.58
435.829	155.45
436.04	113.79
436.252	126.58
436.463	144.99
436.675	137.43
436.886	98.1
437.098	117.67
437.309	152.74
437.521	104.49
437.732	122.51
437.943	104.88
438.155	117.28
438.366	41.72
438.578	157.19
438.789	105.27
439	132.59
439.211	101.39
439.423	127.55
439.634	110.11
439.845	143.05
440.057	128.33
440.268	139.56
440.479	100.04
440.69	139.95
440.902	109.34
441.113	114.38
441.324	132.2
441.535	154.48
441.746	192.84
441.957	75.82
442.168	100.23
442.38	143.24
442.591	154.87
442.802	113.99
443.013	108.76
443.224	156.61
443.435	115.93
443.646	126.19
443.857	143.05
444.068	120.38
444.279	111.66
444.49	191.29
444.701	141.11
444.912	205.44
445.123	142.28
445.334	172.11
445.545	148.86
445.756	140.34
445.967	114.38
446.178	156.42
446.388	159.91
446.599	171.14
446.81	186.06
447.021	138.01
447.232	189.55
447.443	200.59
447.653	132.2
447.864	161.46
448.075	160.87
448.286	188.39
448.496	178.31
448.707	200.59
448.918	154.87
449.129	256.39
449.339	150.22
449.55	185.29
449.761	165.33
449.971	205.05
450.182	150.8
450.393	175.99
450.603	140.73
450.814	219.19
451.024	200.59
451.235	177.73
451.446	223.84
451.656	209.51
451.867	154.48
452.077	194.39
452.288	238.37
452.498	243.6
452.709	160.29
452.919	182.57
453.13	170.76
453.34	209.12
453.55	154.87
453.761	189.74
453.971	215.12
454.182	237.79
454.392	196.91
454.602	246.32
454.813	199.62
455.023	253.68
455.233	137.63
455.444	197.49
455.654	114.57
455.864	199.04
456.075	165.52
456.285	169.4
456.495	185.67
456.705	214.74
456.916	217.26
457.126	251.55
457.336	196.14
457.546	136.46
457.756	188.77
457.967	265.89
458.177	197.11
458.387	198.85
458.597	181.99
458.807	190.32
459.017	183.93
459.227	187.42
459.437	188.19
459.647	228.49
459.857	223.46
460.068	181.99
460.278	226.36
460.488	234.3
460.698	284.68
460.908	218.81
461.117	160.29
461.327	192.65
461.537	221.13
461.747	228.69
461.957	210.86
462.167	335.05
462.377	234.5
462.587	220.55
462.797	265.3
463.007	221.71
463.216	251.74
463.426	261.43
463.636	254.84
463.846	190.71
464.056	243.99
464.265	284.49
464.475	209.31
464.685	231.01
464.895	241.67
465.104	226.36
465.314	260.46
465.524	250.58
465.733	198.46
465.943	279.64
466.153	326.72
466.362	254.45
466.572	255.42
466.782	206.99
466.991	275.19
467.201	306.96
467.41	177.54
467.62	265.89
467.829	251.35
468.039	265.5
468.249	245.15
468.458	218.81
468.668	262.4
468.877	258.72
469.086	292.62
469.296	297.08
469.505	254.07
469.715	341.45
469.924	281
470.134	308.51
470.343	308.51
470.552	249.8
470.762	236.24
470.971	246.32
471.18	250.97
471.39	275.96
471.599	237.79
471.808	274.8
472.018	236.44
472.227	320.52
472.436	305.6
472.645	279.45
472.855	247.09
473.064	322.46
473.273	284.1
473.482	306.57
473.691	321.49
473.901	321.88
474.11	301.92
474.319	364.7
474.528	294.75
474.737	356.75
474.946	330.21
475.155	324.2
475.364	347.45
475.573	315.29
475.783	339.12
475.992	340.48
476.201	342.22
476.41	295.53
476.619	290.69
476.828	331.95
477.037	306.77
477.245	324.01
477.454	354.04
477.663	323.04
477.872	312
478.081	408.29
478.29	311.8
478.499	423.01
478.708	345.71
478.917	418.75
479.125	340.28
479.334	380.78
479.543	329.05
479.752	357.33
479.961	363.15
480.169	407.9
480.378	336.6
480.587	444.13
480.796	390.47
481.004	364.89
481.213	407.52
481.422	398.22
481.63	371.28
481.839	402.67
482.048	434.83
482.256	406.55
482.465	418.95
482.674	414.3
482.882	421.66
483.091	497.8
483.299	426.5
483.508	449.95
483.716	407.52
483.925	449.75
484.134	399.77
484.342	397.25
484.551	485.79
484.759	446.26
484.967	443.16
485.176	444.13
485.384	466.61
485.593	472.42
485.801	444.33
486.01	440.26
486.218	419.53
486.426	376.13
486.635	390.85
486.843	408.1
487.051	449.17
487.26	383.68
487.468	454.21
487.676	475.71
487.885	427.28
488.093	426.31
488.301	474.36
488.509	466.61
488.717	488.11
488.926	461.38
489.134	461.18
489.342	470.87
489.55	445.49
489.758	451.69
489.967	435.41
490.175	596.22
490.383	450.91
490.591	534.81
490.799	453.24
491.007	525.89
491.215	533.84
491.423	488.5
491.631	496.64
491.839	510.98
492.047	516.21
492.255	460.6
492.463	463.7
492.671	475.52
492.879	536.16
493.087	502.84
493.295	531.51
493.503	540.81
493.711	543.72
493.919	551.28
494.127	553.41
494.334	575.69
494.542	491.21
494.75	529.38
494.958	532.48
495.166	567.16
495.374	538.68
495.581	548.18
495.789	551.66
495.997	608.04
496.205	543.14
496.412	531.32
496.62	532.29
496.828	564.26
497.035	539.84
497.243	599.13
497.451	561.93
497.658	567.74
497.866	578.79
498.074	636.72
498.281	523.38
498.489	633.23
498.696	541.59
498.904	553.6
499.112	539.84
499.319	616.18
499.527	565.61
499.734	619.67
499.942	556.89
500.149	528.8
500.357	581.69
500.564	563.09
500.771	596.03
500.979	535.78
501.186	535.78
501.394	591.19
501.601	582.86
501.808	623.35
502.016	579.76
502.223	577.82
502.43	569.88
502.638	580.92
502.845	569.88
503.052	629.94
503.26	564.45
503.467	673.14
503.674	576.66
503.881	618.7
504.089	662.68
504.296	637.11
504.503	567.74
504.71	594.09
504.917	549.14
505.125	632.46
505.332	616.76
505.539	627.61
505.746	703.56
505.953	658.61
506.16	633.81
506.367	706.85
506.574	673.72
506.781	677.4
506.988	627.81
507.195	639.04
507.402	631.49
507.609	673.14
507.816	621.41
508.023	618.31
508.23	624.9
508.437	582.86
508.644	665.39
508.851	749.09
509.058	687.67
509.265	672.75
509.472	677.79
509.679	787.84
509.885	652.41
510.092	689.61
510.299	704.72
510.506	667.33
510.713	702.59
510.92	704.34
511.126	691.35
511.333	729.14
511.54	729.33
511.746	753.55
511.953	769.05
512.16	740.95
512.367	710.54
512.573	701.82
512.78	733.79
512.987	732.24
513.193	721
513.4	653.96
513.606	715.96
513.813	752.58
514.02	720.03
514.226	802.76
514.433	789.2
514.639	700.46
514.846	756.26
515.052	729.14
515.259	739.21
515.465	754.13
515.672	756.07
515.878	864.37
516.085	726.04
516.291	786.87
516.497	730.49
516.704	728.17
516.91	719.64
517.117	667.14
517.323	650.86
517.529	702.2
517.736	672.56
517.942	721.58
518.148	683.99
518.354	726.81
518.561	736.89
518.767	710.73
518.973	789.58
519.179	758.97
519.386	733.59
519.592	746.77
519.798	715.77
520.004	805.08
520.21	760.91
520.417	828.92
520.623	813.22
520.829	845
521.035	857.4
521.241	831.82
521.447	851.97
521.653	985.66
521.859	848.48
522.065	859.91
522.271	959.5
522.477	901.18
522.683	941.29
522.889	908.35
523.095	900.02
523.301	881.23
523.507	882.78
523.713	884.71
523.919	821.55
524.125	893.43
524.331	908.93
524.537	980.23
524.742	943.03
524.948	969.19
525.154	935.86
525.36	1049.79
525.566	962.79
525.772	992.05
525.977	893.24
526.183	960.66
526.389	996.31
526.595	951.17
526.8	934.89
527.006	881.23
527.212	860.3
527.417	852.94
527.623	852.94
527.829	929.28
528.034	910.29
528.24	939.93
528.446	918.04
528.651	1004.26
528.857	962.41
529.062	1022.86
529.268	980.43
529.473	1017.43
529.679	993.79
529.884	1059.67
530.09	1030.22
530.295	1051.34
530.501	1018.79
530.706	1026.73
530.912	990.89
531.117	1049.21
531.323	1023.63
531.528	1073.42
531.733	1081.37
531.939	1022.47
532.144	1057.92
532.35	1078.46
532.555	1067.22
532.76	1040.68
532.966	1046.69
533.171	1046.88
533.376	1018.01
533.581	979.07
533.787	1004.64
533.992	1062.19
534.197	1083.5
534.402	1043.01
534.607	1073.42
534.813	1164.68
535.018	1072.07
535.223	1058.7
535.428	1061.02
535.633	1116.24
535.838	1103.26
536.043	1105.2
536.249	1166.81
536.454	1103.26
536.659	1116.44
536.864	1101.91
537.069	1108.49
537.274	1123.22
537.479	1099.39
537.684	1127.87
537.889	1073.62
538.094	1192.58
538.299	1111.01
538.504	1140.85
538.708	1090.28
538.913	1152.47
539.118	1114.89
539.323	1135.62
539.528	1083.89
539.733	1114.11
539.938	1149.57
540.142	1132.71
540.347	1116.82
540.552	1071.49
540.757	1101.91
540.962	1092.02
541.166	1060.64
541.371	1063.16
541.576	1063.54
541.781	1030.99
541.985	1147.63
542.19	1054.82
542.395	1188.9
542.599	1182.5
542.804	1175.14
543.008	1157.7
543.213	1115.66
543.418	1100.94
543.622	1162.55
543.827	1087.37
544.031	1163.32
544.236	1189.67
544.44	1150.54
544.645	1221.45
544.849	1146.66
545.054	1234.43
545.258	1216.99
545.463	1214.47
545.667	1155.19
545.872	1184.25
546.076	1172.04
546.281	1156.15
546.485	1127.29
546.689	1212.73
546.894	1203.04
547.098	1161.39
547.302	1154.6
547.507	1187.15
547.711	1185.6
547.915	1244.5
548.119	1187.15
548.324	1171.85
548.528	1223
548.732	1169.52
548.936	1188.51
549.141	1235.78
549.345	1159.84
549.549	1196.45
549.753	1172.82
549.957	1286.16
550.161	1246.44
550.366	1192.19
550.57	1172.82
550.774	1208.08
550.978	1186.19
551.182	1235.78
551.386	1172.24
551.59	1172.62
551.794	1205.17
551.998	1205.95
552.202	1210.4
552.406	1169.91
552.61	1206.72
552.814	1241.02
553.018	1242.57
553.222	1189.09
553.426	1193.16
553.63	1258.26
553.833	1198.58
554.037	1136.39
554.241	1199.17
554.445	1209.43
554.649	1185.02
554.853	1161
555.056	1231.72
555.26	1243.53
555.464	1202.65
555.668	1184.83
555.871	1251.48
556.075	1249.73
556.279	1176.5
556.483	1131.16
556.686	1192.58
556.89	1193.94
557.094	1162.55
557.297	1116.05
557.501	1223.58
557.704	1130.58
557.908	1234.43
558.112	1152.28
558.315	1253.42
558.519	1172.82
558.722	1179.02
558.926	1156.74
559.129	1099.19
559.333	1089.12
559.536	1130.58
559.74	1097.45
559.943	1091.83
560.147	1108.69
560.35	1124.38
560.553	1120.89
560.757	1080.98
560.96	1178.24
561.164	1117.02
561.367	1184.64
561.57	1120.7
561.774	1167
561.977	1150.34
562.18	1122.05
562.384	1194.13
562.587	1119.54
562.79	1109.46
562.993	1118.76
563.197	1155.19
563.4	1161.58
563.603	1174.17
563.806	1183.47
564.009	1089.12
564.212	1155.38
564.416	1069.94
564.619	1129.03
564.822	1048.82
565.025	1143.95
565.228	1096.48
565.431	1099
565.634	1016.08
565.837	1083.31
566.04	1084.86
566.243	1076.14
566.446	998.06
566.649	1107.72
566.852	1028.86
567.055	1038.74
567.258	1095.32
567.461	1107.72
567.664	1148.99
567.867	1034.09
568.07	1080.79
568.273	1071.49
568.475	1091.64
568.678	1039.52
568.881	1061.02
569.084	1020.34
569.287	968.03
569.489	985.85
569.692	1069.16
569.895	1078.27
570.098	983.14
570.3	987.4
570.503	922.11
570.706	973.84
570.909	951.75
571.111	933.54
571.314	945.16
571.516	976.55
571.719	992.83
571.922	937.99
572.124	975.58
572.327	993.21
572.529	948.84
572.732	930.83
572.935	965.51
573.137	1048.43
573.34	968.8
573.542	976.94
573.745	961.24
573.947	984.3
574.15	954.46
574.352	926.76
574.554	1017.24
574.757	907.96
574.959	925.01
575.162	927.34
575.364	907.96
575.566	1027.89
575.769	918.04
575.971	907.19
576.173	860.69
576.376	907.38
576.578	939.93
576.78	980.43
576.982	851.78
577.185	946.13
577.387	852.36
577.589	878.51
577.791	943.61
577.993	935.28
578.196	906.8
578.398	920.75
578.6	921.14
578.802	842.87
579.004	806.05
579.206	891.69
579.408	918.23
579.61	877.35
579.812	931.21
580.014	880.65
580.216	910.29
580.418	888.59
580.62	876
580.822	853.52
581.024	908.16
581.226	906.03
581.428	901.18
581.63	975.39
581.832	886.85
582.034	957.95
582.236	919.78
582.438	947.88
582.64	950.2
582.841	976.55
583.043	996.89
583.245	942.84
583.447	935.86
583.649	923.08
583.85	968.61
584.052	940.13
584.254	894.01
584.456	955.63
584.657	871.15
584.859	912.23
585.061	888.59
585.262	899.25
585.464	879.1
585.666	948.07
585.867	897.11
586.069	929.86
586.27	908.93
586.472	897.7
586.674	870.57
586.875	870.57
587.077	871.54
587.278	924.43
587.48	880.65
587.681	990.11
587.883	897.11
588.084	800.05
588.285	848.48
588.487	867.28
588.688	892.85
588.89	812.06
589.091	781.64
589.292	820.78
589.494	776.99
589.695	744.25
589.896	737.27
590.098	666.36
590.299	782.22
590.5	736.3
590.702	771.18
590.903	800.43
591.104	844.03
591.305	821.17
591.507	842.28
591.708	834.34
591.909	790.94
592.11	863.01
592.311	851.2
592.512	809.54
592.714	753.94
592.915	808.38
593.116	796.95
593.317	849.84
593.518	817.68
593.719	804.89
593.92	841.12
594.121	865.15
594.322	824.85
594.523	818.26
594.724	776.22
594.925	795.78
595.126	847.71
595.327	823.1
595.528	798.3
595.729	835.12
595.929	825.04
596.13	814.58
596.331	823.49
596.532	827.56
596.733	866.7
596.934	859.91
597.135	825.62
597.335	829.88
597.536	767.11
597.737	845.38
597.938	802.57
598.138	824.07
598.339	814
598.54	831.05
598.74	804.31
598.941	811.87
599.142	837.25
599.342	820
599.543	809.54
599.744	811.87
599.944	784.55
600.145	807.8
600.345	802.57
600.546	881.23
600.746	872.31
600.947	900.02
601.147	832.6
601.348	847.13
601.548	771.95
601.749	821.17
601.949	795.4
602.15	788.23
602.35	821.75
602.551	844.8
602.751	771.18
602.951	789.58
603.152	738.24
603.352	818.65
603.552	801.02
603.753	821.75
603.953	810.32
604.153	813.22
604.354	777.57
604.554	785.71
604.754	822.33
604.954	757.42
605.155	826.78
605.355	792.68
605.555	855.07
605.755	856.81
605.955	799.66
606.155	816.71
606.356	794.23
606.556	830.08
606.756	821.36
606.956	743.86
607.156	857.2
607.356	764.59
607.556	814.58
607.756	805.08
607.956	846.55
608.156	814.77
608.356	753.55
608.556	827.17
608.756	799.47
608.956	766.33
609.156	779.12
609.356	746.38
609.556	750.25
609.755	807.02
609.955	739.4
610.155	779.51
610.355	778.93
610.555	713.83
610.755	743.47
610.954	716.74
611.154	740.57
611.354	795.98
611.554	739.4
611.753	773.31
611.953	724.49
612.153	794.23
612.352	756.65
612.552	721.39
612.752	658.03
612.951	739.79
613.151	764.78
613.351	687.48
613.55	726.23
613.75	771.57
613.949	731.46
614.149	757.62
614.348	738.24
614.548	702.4
614.747	679.92
614.947	742.5
615.146	658.03
615.346	757.04
615.545	714.99
615.745	765.95
615.944	758.58
616.144	707.05
616.343	757.04
616.542	700.46
616.742	715.77
616.941	717.7
617.14	665.59
617.34	728.36
617.539	675.47
617.738	668.49
617.938	730.88
618.137	672.56
618.336	657.84
618.535	708.79
618.734	693.29
618.934	706.85
619.133	700.85
619.332	709.57
619.531	693.87
619.73	689.03
619.929	748.7
620.128	727.2
620.328	746.77
620.527	661.71
620.726	692.13
620.925	724.29
621.124	681.86
621.323	698.52
621.522	651.06
621.721	680.31
621.92	623.54
622.119	711.7
622.318	664.81
622.517	688.06
622.715	671.79
622.914	623.54
623.113	662.1
623.312	617.92
623.511	721
623.71	669.66
623.909	638.07
624.107	713.25
624.306	644.47
624.505	671.98
624.704	638.66
624.902	633.04
625.101	696.97
625.3	676.24
625.499	634.39
625.697	615.6
625.896	625.48
626.095	684.38
626.293	588.86
626.492	628
626.69	657.64
626.889	626.45
627.088	725.07
627.286	643.89
627.485	635.17
627.683	596.03
627.882	621.41
628.08	579.18
628.279	599.52
628.477	666.94
628.676	589.44
628.874	607.07
629.073	597
629.271	586.15
629.469	634.2
629.668	601.07
629.866	594.67
630.065	591.38
630.263	658.42
630.461	586.34
630.66	593.32
630.858	617.15
631.056	654.54
631.254	652.61
631.453	590.8
631.651	626.84
631.849	645.82
632.047	623.16
632.245	626.26
632.444	640.01
632.642	647.18
632.84	641.95
633.038	609.79
633.236	593.51
633.434	567.55
633.632	575.3
633.83	617.34
634.028	649.7
634.227	614.63
634.425	686.12
634.623	596.81
634.821	609.79
635.019	589.83
635.216	610.95
635.414	637.88
635.612	615.41
635.81	620.83
636.008	661.71
636.206	622.57
636.404	633.81
636.602	587.31
636.8	625.48
636.997	646.02
637.195	659.39
637.393	636.33
637.591	657.06
637.789	663.07
637.986	589.83
638.184	621.02
638.382	649.12
638.58	667.91
638.777	699.3
638.975	635.75
639.173	609.4
639.37	619.09
639.568	617.54
639.765	650.47
639.963	639.04
640.161	652.8
640.358	629.94
640.556	599.32
640.753	577.63
640.951	572.78
641.148	602.42
641.346	602.42
641.543	589.83
641.741	622.77
641.938	582.66
642.136	600.87
642.333	572.39
642.531	641.76
642.728	645.63
642.925	609.4
643.123	579.76
643.32	615.6
643.517	580.14
643.715	616.18
643.912	599.91
644.109	621.61
644.306	570.26
644.504	581.69
644.701	593.32
644.898	607.85
645.095	573.94
645.293	573.75
645.49	619.67
645.687	602.62
645.884	623.16
646.081	489.66
646.278	555.34
646.475	588.47
646.672	588.28
646.87	559.03
647.067	552.83
647.264	575.69
647.461	508.46
647.658	504.78
647.855	601.26
648.052	551.08
648.249	467.19
648.446	521.24
648.642	538.49
648.839	508.46
649.036	516.59
649.233	487.53
649.43	490.25
649.627	472.23
649.824	517.95
650.021	491.8
650.217	492.38
650.414	484.24
650.611	539.07
650.808	539.26
651.004	508.65
651.201	517.18
651.398	587.89
651.595	534.61
651.791	477.65
651.988	535.19
652.185	516.21
652.381	550.31
652.578	467.77
652.775	515.63
652.971	509.43
653.168	490.44
653.364	557.28
653.561	478.04
653.757	496.06
653.954	523.38
654.15	485.01
654.347	572.78
654.543	518.14
654.74	462.73
654.936	464.28
655.133	495.67
655.329	484.43
655.525	486.18
655.722	509.43
655.918	480.95
656.115	502.64
656.311	429.02
656.507	402.09
656.704	397.05
656.9	427.47
657.096	422.24
657.292	431.93
657.489	458.66
657.685	462.93
657.881	459.25
658.077	443.16
658.273	464.86
658.47	518.92
658.666	467.77
658.862	486.95
659.058	473.78
659.254	501.48
659.45	466.22
659.646	513.49
659.842	467.19
660.038	544.3
660.234	449.17
660.43	481.53
660.626	519.11
660.822	509.04
661.018	527.25
661.214	482.5
661.41	450.33
661.606	518.53
661.802	514.85
661.998	474.36
662.194	454.01
662.39	510.78
662.586	512.72
662.781	456.15
662.977	492.76
663.173	520.47
663.369	489.66
663.564	505.74
663.76	517.56
663.956	464.48
664.152	512.14
664.347	454.01
664.543	455.76
664.739	474.36
664.934	410.81
665.13	411.78
665.326	488.7
665.521	475.33
665.717	462.54
665.912	451.69
666.108	397.44
666.304	442.58
666.499	467.96
666.695	389.69
666.89	448.4
667.086	493.93
667.281	491.6
667.477	502.26
667.672	482.69
667.867	473
668.063	446.65
668.258	422.82
668.454	452.46
668.649	542.17
668.844	458.66
669.04	486.56
669.235	467.58
669.43	431.54
669.626	386.78
669.821	433.48
670.016	377.1
670.211	435.8
670.407	417.78
670.602	442.39
670.797	439.87
670.992	496.06
671.187	389.88
671.382	464.67
671.578	439.87
671.773	439.1
671.968	423.98
672.163	427.86
672.358	467.58
672.553	413.71
672.748	406.55
672.943	474.55
673.138	448.98
673.333	442.2
673.528	380
673.723	448.01
673.918	432.7
674.113	381.75
674.308	505.16
674.503	428.83
674.698	482.3
674.892	452.08
675.087	452.85
675.282	455.76
675.477	419.91
675.672	437.55
675.867	427.86
676.061	409.65
676.256	382.13
676.451	407.32
676.646	440.45
676.84	366.83
677.035	374.77
677.23	374.38
677.424	436.38
677.619	462.35
677.814	432.51
678.008	457.89
678.203	371.09
678.397	402.48
678.592	404.03
678.787	483.66
678.981	412.94
679.176	411.97
679.37	402.67
679.565	395.5
679.759	385.62
679.954	427.28
680.148	466.22
680.342	472.23
680.537	423.98
680.731	442.2
680.926	404.03
681.12	461.38
681.314	398.02
681.509	411.78
681.703	425.73
681.897	413.91
682.092	399.57
682.286	392.79
682.48	452.46
682.674	446.26
682.869	418.56
683.063	411
683.257	489.08
683.451	411
683.645	429.8
683.839	436.38
684.034	401.9
684.228	489.66
684.422	386.59
684.616	371.87
684.81	438.13
685.004	410.42
685.198	403.83
685.392	453.24
685.586	388.33
685.78	455.76
685.974	408.1
686.168	479.01
686.362	495.48
686.556	390.66
686.75	361.79
686.944	340.09
687.138	417.98
687.331	301.92
687.525	362.57
687.719	283.9
687.913	317.23
688.107	356.17
688.301	316.07
688.494	363.73
688.688	326.92
688.882	263.75
689.076	293.01
689.269	330.02
689.463	402.09
689.657	332.15
689.85	338.35
690.044	319.36
690.238	336.6
690.431	343
690.625	330.02
690.818	380.58
691.012	362.95
691.205	403.83
691.399	341.25
691.593	416.43
691.786	454.98
691.98	431.73
692.173	454.79
692.366	423.4
692.56	420.88
692.753	500.71
692.947	378.45
693.14	462.73
693.333	469.13
693.527	391.43
693.72	478.23
693.914	422.05
694.107	449.36
694.3	474.94
694.493	438.51
694.687	501.09
694.88	421.08
695.073	517.56
695.266	493.93
695.46	462.54
695.653	524.93
695.846	520.86
696.039	470.1
696.232	488.5
696.425	484.82
696.618	521.83
696.812	501.48
697.005	577.24
697.198	634.39
697.391	561.16
697.584	599.32
697.777	646.21
697.97	598.74
698.163	635.36
698.356	570.65
698.549	677.6
698.742	644.27
698.935	586.92
699.127	643.69
699.32	597.58
699.513	607.85
699.706	666.56
699.899	657.26
700.092	629.94
700.285	678.37
700.477	616.96
700.67	645.63
700.863	688.84
701.056	755.49
701.248	720.61
701.441	722.55
701.634	677.4
701.826	759.55
702.019	674.89
702.212	730.1
702.404	655.71
702.597	688.64
702.79	731.46
702.982	690.97
703.175	762.27
703.367	778.73
703.56	808.18
703.752	850.61
703.945	827.37
704.137	811.87
704.33	820.39
704.522	820.97
704.715	835.89
704.907	850.81
705.1	854.1
705.292	897.31
705.484	850.03
705.677	899.44
705.869	914.36
706.061	923.27
706.254	947.1
706.446	911.06
706.638	896.73
706.831	967.83
707.023	901.96
707.215	1031.57
707.407	1018.79
707.599	992.83
707.792	1061.22
707.984	1006.78
708.176	1039.13
708.368	1012.39
708.56	1000.58
708.752	1011.23
708.944	1022.66
709.136	1082.14
709.329	1053.86
709.521	1147.24
709.713	1121.09
709.905	1120.7
710.097	1139.3
710.289	1081.17
710.481	1094.35
710.672	1142.98
710.864	1122.44
711.056	1201.1
711.248	1192.97
711.44	1170.3
711.632	1165.84
711.824	1181.73
712.016	1227.07
712.207	1201.68
712.399	1223.19
712.591	1278.41
712.783	1266.4
712.975	1261.75
713.166	1238.3
713.358	1243.34
713.55	1323.75
713.741	1312.31
713.933	1274.34
714.125	1309.99
714.316	1259.23
714.508	1321.03
714.7	1355.52
714.891	1306.89
715.083	1410.35
715.274	1330.91
715.466	1338.86
715.657	1406.48
715.849	1291.2
716.04	1322.97
716.232	1261.55
716.423	1372.38
716.615	1308.63
716.806	1270.85
716.998	1245.86
717.189	1193.74
717.381	1129.8
717.572	1132.52
717.763	1187.74
717.955	1133.1
718.146	1115.27
718.337	1094.93
718.528	1064.51
718.72	1011.23
718.911	1067.03
719.102	1028.47
719.293	1094.93
719.485	1046.49
719.676	1061.22
719.867	1039.71
720.058	1057.34
720.249	1036.61
720.44	1064.9
720.632	1080.59
720.823	1119.15
721.014	1217.57
721.205	1196.07
721.396	1254.97
721.587	1327.23
721.778	1358.04
721.969	1371.6
722.16	1402.6
722.351	1397.18
722.542	1513.04
722.733	1510.91
722.924	1410.35
723.115	1486.11
723.305	1470.22
723.496	1489.98
723.687	1385.74
723.878	1404.15
724.069	1387.1
724.26	1411.71
724.45	1373.15
724.641	1345.83
724.832	1401.24
725.023	1389.62
725.213	1343.51
725.404	1317.55
725.595	1359.98
725.785	1312.51
725.976	1421.39
726.167	1402.79
726.357	1335.95
726.548	1476.03
726.739	1409.38
726.929	1499.86
727.12	1486.49
727.31	1509.55
727.501	1438.06
727.691	1503.74
727.882	1443.48
728.072	1483.59
728.263	1516.14
728.453	1483.39
728.644	1526.02
728.834	1481.65
729.024	1495.02
729.215	1487.07
729.405	1479.13
729.596	1584.92
729.786	1564.19
729.976	1575.23
730.167	1565.15
730.357	1522.72
730.547	1535.51
730.737	1581.43
730.928	1631.42
731.118	1683.73
731.308	1588.02
731.498	1603.71
731.688	1713.37
731.879	1650.98
732.069	1685.47
732.259	1715.31
732.449	1741.46
732.639	1804.24
732.829	1820.32
733.019	1819.35
733.209	1898.79
733.399	1862.17
733.589	1904.79
733.779	1953.42
733.969	1898.4
734.159	1981.32
734.349	2031.31
734.539	2039.45
734.729	2011.35
734.919	2062.31
735.109	2055.14
735.299	2018.72
735.488	2048.36
735.678	2068.32
735.868	2067.93
736.058	2055.53
736.248	2044.1
736.437	2008.84
736.627	1941.22
736.817	2116.75
737.007	2046.42
737.196	2115.78
737.386	2036.35
737.576	2030.92
737.765	2115.59
737.955	2082.85
738.144	2176.04
738.334	2119.47
738.524	2079.75
738.713	2127.02
738.903	2158.21
739.092	2175.85
739.282	2130.32
739.471	2144.07
739.661	2174.3
739.85	2183.6
740.04	2223.9
740.229	2201.23
740.419	2246.56
740.608	2266.33
740.797	2255.67
740.987	2273.3
741.176	2256.44
741.365	2211.3
741.555	2194.64
741.744	2294.42
741.933	2220.21
742.123	2269.23
742.312	2274.46
742.501	2278.92
742.69	2312.24
742.88	2204.33
743.069	2331.62
743.258	2244.43
743.447	2347.7
743.636	2326.39
743.825	2271.56
744.014	2296.16
744.204	2328.13
744.393	2293.84
744.582	2326.39
744.771	2351.57
744.96	2319.03
745.149	2335.88
745.338	2269.81
745.527	2338.01
745.716	2265.36
745.905	2296.74
746.094	2390.91
746.283	2364.75
746.471	2332.97
746.66	2416.29
746.849	2340.92
747.038	2378.12
747.227	2343.63
747.416	2401.37
747.604	2326.97
747.793	2334.52
747.982	2379.67
748.171	2373.86
748.359	2372.5
748.548	2396.91
748.737	2397.11
748.926	2334.14
749.114	2289.77
749.303	2322.51
749.491	2343.63
749.68	2276.98
749.869	2375.41
750.057	2329.88
750.246	2301.98
750.434	2331.81
750.623	2306.24
750.811	2307.79
751	2348.09
751.188	2327.94
751.377	2312.05
751.565	2316.89
751.754	2282.02
751.942	2276.01
752.131	2338.59
752.319	2276.98
752.507	2227
752.696	2312.44
752.884	2316.12
753.072	2281.63
753.261	2296.55
753.449	2259.74
753.637	2283.38
753.825	2355.64
754.014	2291.9
754.202	2302.75
754.39	2346.15
754.578	2299.26
754.766	2274.66
754.955	2250.63
755.143	2368.04
755.331	2296.74
755.519	2301.78
755.707	2264
755.895	2238.04
756.083	2264.58
756.271	2230.48
756.459	2247.53
756.647	2292.68
756.835	2210.53
757.023	2209.56
757.211	2231.65
757.399	2219.25
757.587	2232.23
757.775	2182.24
757.963	2210.14
758.151	2225.06
758.339	2187.86
758.526	2183.4
758.714	2186.7
758.902	2091.18
759.09	2075.68
759.278	1926.11
759.465	1786.03
759.653	1540.74
759.841	1418.88
760.028	1172.04
760.216	1023.44
760.404	997.28
760.591	771.37
760.779	664.42
760.967	577.24
761.154	465.06
761.342	516.01
761.529	526.09
761.717	542.75
761.905	526.86
762.092	587.7
762.28	498.58
762.467	530.35
762.655	486.37
762.842	513.49
763.029	530.74
763.217	565.42
763.404	542.75
763.592	582.66
763.779	513.3
763.966	559.22
764.154	590.8
764.341	646.02
764.528	618.89
764.716	673.53
764.903	705.5
765.09	751.42
765.277	764.4
765.465	871.54
765.652	925.79
765.839	967.06
766.026	1067.22
766.213	1091.25
766.4	1152.09
766.588	1297.01
766.775	1272.4
766.962	1360.36
767.149	1384.97
767.336	1540.74
767.523	1479.71
767.71	1539.97
767.897	1644.01
768.084	1719.96
768.271	1706.59
768.458	1775.76
768.645	1799.59
768.832	1785.45
769.019	1780.41
769.206	1811.99
769.392	1910.22
769.579	1941.61
769.766	1919.32
769.953	1899.17
770.14	1971.64
770.327	1924.75
770.513	1977.26
770.7	2034.41
770.887	1946.26
771.073	1962.92
771.26	1966.6
771.447	1928.82
771.634	1944.12
771.82	2018.52
772.007	1945.48
772.193	1977.84
772.38	2028.21
772.567	1942.57
772.753	1952.46
772.94	2040.03
773.126	2033.64
773.313	1994.11
773.499	2044.49
773.686	1992.17
773.872	1978.22
774.059	1996.24
774.245	1946.26
774.432	1962.34
774.618	1932.31
774.804	1991.79
774.991	1922.23
775.177	1974.74
775.363	1969.7
775.55	1971.25
775.736	1965.63
775.922	1930.56
776.109	1926.3
776.295	1938.31
776.481	1968.15
776.667	1954.39
776.853	1912.16
777.04	1913.71
777.226	1902.27
777.412	1991.98
777.598	1898.21
777.784	1880.96
777.97	1896.85
778.156	1901.31
778.342	1866.04
778.528	1910.02
778.715	1830.59
778.901	1873.02
779.087	1923.39
779.272	1859.07
779.458	1824.78
779.644	1901.69
779.83	1834.27
780.016	1947.61
780.202	1886.39
780.388	1868.37
780.574	1815.48
780.76	1805.98
780.946	1874.57
781.131	1849.38
781.317	1829.23
781.503	1820.51
781.689	1784.86
781.874	1930.56
782.06	1836.98
782.246	1832.53
782.432	1859.84
782.617	1804.24
782.803	1869.53
782.989	1803.46
783.174	1829.62
783.36	1753.67
783.545	1807.92
783.731	1779.44
783.916	1724.8
784.102	1795.33
784.288	1732.75
784.473	1749.21
784.659	1794.55
784.844	1825.36
785.029	1739.53
785.215	1745.53
785.4	1693.8
785.586	1774.98
785.771	1707.56
785.956	1769.17
786.142	1768.4
786.327	1699.62
786.512	1723.06
786.698	1683.92
786.883	1638.97
787.068	1712.21
787.254	1724.22
787.439	1662.42
787.624	1711.43
787.809	1672.3
787.994	1666.48
788.18	1730.03
788.365	1605.26
788.55	1692.25
788.735	1660.48
788.92	1656.22
789.105	1643.43
789.29	1646.72
789.475	1604.1
789.66	1610.3
789.845	1622.5
790.03	1602.55
790.215	1638
790.4	1661.45
790.585	1670.55
790.77	1641.1
790.955	1520.4
791.14	1590.73
791.325	1641.88
791.51	1540.94
791.695	1575.62
791.879	1587.63
792.064	1583.17
792.249	1654.67
792.434	1590.34
792.618	1554.11
792.803	1589.76
792.988	1566.12
793.173	1567.87
793.357	1614.17
793.542	1552.95
793.727	1583.95
793.911	1605.26
794.096	1550.04
794.281	1598.67
794.465	1657.18
794.65	1599.45
794.834	1587.24
795.019	1651.95
795.203	1626.77
795.388	1673.65
795.572	1640.72
795.757	1603.9
795.941	1631.03
796.126	1621.73
796.31	1555.47
796.494	1580.27
796.679	1589.18
796.863	1568.84
797.048	1621.54
797.232	1594.41
797.416	1635.68
797.601	1615.53
797.785	1642.85
797.969	1672.1
798.153	1617.66
798.338	1614.75
798.522	1629.48
798.706	1618.82
798.89	1656.02
799.074	1716.47
799.258	1661.45
799.443	1668.62
799.627	1619.4
799.811	1660.48
799.995	1652.73
800.179	1591.12
800.363	1603.52
800.547	1598.09
800.731	1669.78
800.915	1565.35
801.099	1559.54
801.283	1610.3
801.467	1616.11
801.651	1592.09
801.835	1660.09
802.019	1597.7
802.202	1601
802.386	1559.92
802.57	1581.43
802.754	1595.38
802.938	1574.65
803.121	1583.95
803.305	1642.27
803.489	1615.34
803.673	1623.47
803.856	1618.82
804.04	1617.47
804.224	1621.73
804.407	1624.83
804.591	1598.48
804.775	1600.03
804.958	1619.21
805.142	1689.73
805.326	1599.06
805.509	1638.78
805.693	1655.44
805.876	1662.61
806.06	1630.84
806.243	1653.5
806.427	1680.82
806.61	1687.22
806.794	1617.27
806.977	1669.78
807.16	1661.83
807.344	1636.84
807.527	1633.74
807.71	1610.49
807.894	1650.98
808.077	1683.53
808.26	1625.41
808.444	1576.2
808.627	1648.85
808.81	1612.82
808.993	1543.26
809.177	1557.21
809.36	1616.5
809.543	1594.02
809.726	1510.32
809.909	1526.79
810.092	1514.59
810.276	1503.16
810.459	1545.39
810.642	1501.8
810.825	1489.79
811.008	1499.86
811.191	1418.49
811.374	1468.47
811.557	1456.66
811.74	1539
811.923	1430.11
812.106	1420.43
812.289	1396.79
812.472	1409.77
812.654	1439.03
812.837	1384.78
813.02	1352.42
813.203	1332.85
813.386	1263.1
813.569	1259.81
813.751	1191.22
813.934	1297.2
814.117	1248.96
814.3	1228.62
814.482	1202.85
814.665	1171.46
814.848	1143.37
815.03	1112.75
815.213	1098.22
815.396	1112.95
815.578	1073.62
815.761	1081.56
815.943	1126.51
816.126	1051.14
816.309	1035.06
816.491	983.72
816.674	901.38
816.856	989.73
817.039	973.45
817.221	1047.46
817.403	996.7
817.586	981.59
817.768	1025.18
817.951	937.03
818.133	944
818.315	996.89
818.498	981.39
818.68	1055.21
818.862	1039.32
819.045	1047.66
819.227	1024.21
819.409	1020.14
819.591	1034.29
819.774	988.56
819.956	983.91
820.138	1015.3
820.32	1016.46
820.502	1080.59
820.684	1144.14
820.866	1109.07
821.048	1146.85
821.231	1173.79
821.413	1146.27
821.595	1149.37
821.777	1130.58
821.959	1137.75
822.141	1198.97
822.323	1049.4
822.505	1040.29
822.686	1027.31
822.868	996.51
823.05	900.21
823.232	909.51
823.414	839.18
823.596	903.12
823.778	844.8
823.96	881.03
824.141	894.4
824.323	928.89
824.505	954.27
824.687	1036.03
824.868	1025.76
825.05	1135.81
825.232	1113.92
825.413	1190.84
825.595	1119.34
825.777	1053.86
825.958	1107.52
826.14	1098.61
826.321	1153.05
826.503	1111.2
826.685	1124.96
826.866	1137.94
827.048	1131.74
827.229	1100.55
827.411	1065.67
827.592	1052.31
827.773	1034.29
827.955	1001.74
828.136	1010.07
828.318	981.59
828.499	1028.86
828.68	985.66
828.862	1005.23
829.043	1030.99
829.224	1021.5
829.406	972.68
829.587	991.86
829.768	978.49
829.949	1010.26
830.131	968.61
830.312	1054.82
830.493	976.74
830.674	1051.34
830.855	999.41
831.036	980.43
831.218	1048.24
831.399	1074.01
831.58	1013.75
831.761	1037
831.942	1035.84
832.123	986.63
832.304	969.96
832.485	998.25
832.666	987.79
832.847	1030.8
833.028	986.82
833.209	1009.68
833.389	976.55
833.57	963.38
833.751	974.61
833.932	1052.89
834.113	1011.43
834.294	978.1
834.475	990.31
834.655	1056.18
834.836	1049.79
835.017	1032.93
835.198	947.49
835.378	1016.27
835.559	1045.91
835.74	1030.8
835.92	988.37
836.101	990.11
836.281	1031.57
836.462	1008.71
836.643	1061.8
836.823	1055.99
837.004	1025.57
837.184	1100.74
837.365	1055.21
837.545	1058.12
837.726	1067.81
837.906	1097.84
838.087	1063.74
838.267	1058.7
838.448	977.13
838.628	1037.97
838.808	1060.25
838.989	1110.24
839.169	1028.67
839.349	1058.89
839.53	1058.12
839.71	1041.65
839.89	1013.36
840.07	1094.35
840.251	1052.11
840.431	1051.92
840.611	1035.45
840.791	1013.75
840.971	1060.06
841.151	1022.08
841.332	1014.14
841.512	1037.77
841.692	976.16
841.872	1055.99
842.052	1031.77
842.232	1051.14
842.412	1007.36
842.592	1018.59
842.772	1036.22
842.952	1049.98
843.132	1000.58
843.312	998.44
843.492	980.62
843.672	1039.52
843.851	971.32
844.031	1035.26
844.211	1021.89
844.391	1002.32
844.571	1000.96
844.751	1011.81
844.93	985.85
845.11	993.41
845.29	998.64
845.47	1003.09
845.649	995.73
845.829	1026.54
846.009	952.33
846.188	1003.48
846.368	1002.71
846.547	1023.05
846.727	1040.29
846.907	960.28
847.086	989.53
847.266	1020.14
847.445	990.89
847.625	970.16
847.804	940.51
847.984	966.48
848.163	979.07
848.343	968.03
848.522	1006.58
848.701	952.14
848.881	963.57
849.06	979.46
849.239	1012.59
849.419	971.71
849.598	919.59
849.777	943.23
849.957	899.44
850.136	871.93
850.315	874.83
850.494	890.33
850.674	877.35
850.853	965.12
851.032	914.36
851.211	969.96
851.39	907.96
851.569	872.7
851.748	881.81
851.927	948.26
852.107	927.34
852.286	866.5
852.465	875.22
852.644	931.41
852.823	941.87
853.002	909.9
853.181	907.19
853.359	900.21
853.538	869.41
853.717	911.06
853.896	861.27
854.075	803.34
854.254	795.01
854.433	747.74
854.611	844.42
854.79	771.18
854.969	765.75
855.148	825.43
855.327	793.46
855.505	793.85
855.684	807.8
855.863	815.74
856.041	798.69
856.22	809.73
856.399	792.3
856.577	873.67
856.756	854.3
856.934	972.48
857.113	959.31
857.291	881.03
857.47	813.22
857.648	865.73
857.827	860.5
858.005	881.81
858.184	839.18
858.362	937.41
858.541	865.73
858.719	881.03
858.898	897.31
859.076	842.48
859.254	917.46
859.433	862.05
859.611	861.66
859.789	788.81
859.967	911.65
860.146	899.83
860.324	803.92
860.502	849.65
860.68	816.13
860.859	822.33
861.037	805.67
861.215	858.75
861.393	837.44
861.571	839.57
861.749	836.28
861.927	860.69
862.105	867.86
862.283	819.42
862.461	804.7
862.639	769.63
862.817	825.62
862.995	827.37
863.173	805.28
863.351	804.12
863.529	805.08
863.707	871.54
863.885	839.38
864.063	753.94
864.241	808.38
864.418	876.58
864.596	775.05
864.774	750.06
864.952	789.97
865.129	799.47
865.307	762.65
865.485	731.07
865.663	838.22
865.84	728.94
866.018	788.23
866.196	653.57
866.373	694.65
866.551	694.26
866.728	630.13
866.906	667.14
867.084	694.07
867.261	736.89
867.439	715.96
867.616	766.14
867.794	743.67
867.971	736.69
868.149	740.18
868.326	791.72
868.503	754.71
868.681	769.82
868.858	726.42
869.035	703.37
869.213	773.7
869.39	716.54
869.567	802.95
869.745	751.8
869.922	770.21
870.099	772.92
870.276	763.62
870.454	764.78
870.631	752
870.808	726.62
870.985	763.62
871.162	794.23
871.339	790.55
871.517	688.25
871.694	680.31
871.871	727.2
872.048	716.15
872.225	704.53
872.402	758.2
872.579	704.34
872.756	718.29
872.933	675.66
873.11	720.42
873.287	752
873.463	694.45
873.64	676.82
873.817	721.39
873.994	717.12
874.171	673.72
874.348	716.15
874.524	675.08
874.701	696.2
874.878	633.62
875.055	694.84
875.231	688.64
875.408	720.61
875.585	648.34
875.762	697.75
875.938	652.61
876.115	676.44
876.291	679.34
876.468	667.52
876.645	640.4
876.821	654.54
876.998	634.59
877.174	700.27
877.351	665.97
877.527	618.7
877.704	675.47
877.88	646.21
878.057	623.16
878.233	678.76
878.409	622.19
878.586	671.59
878.762	626.26
878.938	625.09
879.115	586.92
879.291	669.07
879.467	611.53
879.644	619.47
879.82	674.5
879.996	618.31
880.172	600.1
880.349	613.27
880.525	641.37
880.701	612.31
880.877	573.17
881.053	631.1
881.229	609.01
881.405	676.24
881.581	592.93
881.757	612.69
881.933	632.26
882.109	653.57
882.285	623.16
882.461	567.36
882.637	626.84
882.813	568.33
882.989	603.2
883.165	633.81
883.341	579.76
883.517	650.67
883.693	631.68
883.869	629.94
884.044	559.61
884.22	626.64
884.396	652.8
884.572	637.3
884.747	634.2
884.923	617.54
885.099	654.74
885.275	637.88
885.45	600.1
885.626	567.94
885.801	581.89
885.977	594.29
886.153	553.41
886.328	596.22
886.504	581.69
886.679	621.02
886.855	587.7
887.03	623.93
887.206	642.72
887.381	605.52
887.557	651.64
887.732	619.47
887.908	632.07
888.083	627.42
888.258	605.33
888.434	586.92
888.609	601.65
888.784	644.47
888.96	580.92
889.135	584.6
889.31	581.69
889.485	619.28
889.661	599.32
889.836	647.18
890.011	631.1
890.186	597.19
890.361	566.78
890.537	594.29
890.712	605.33
890.887	602.23
891.062	630.52
891.237	656.48
891.412	589.64
891.587	617.34
891.762	640.4
891.937	634.59
892.112	576.46
892.287	619.86
892.462	541.98
892.637	542.94
892.812	512.53
892.987	549.92
893.161	534.81
893.336	560.77
893.511	539.46
893.686	579.76
893.861	517.95
894.035	533.45
894.21	528.41
894.385	515.43
894.56	517.76
894.734	497.03
894.909	501.29
895.084	511.94
895.258	482.69
895.433	524.73
895.608	513.3
895.782	464.28
895.957	447.04
896.131	475.52
896.306	412.75
896.48	421.46
896.655	446.07
896.829	379.62
897.004	367.02
897.178	383.88
897.353	379.03
897.527	442.2
897.701	420.3
897.876	356.37
898.05	443.94
898.224	421.85
898.399	445.1
898.573	403.06
898.747	329.63
898.921	379.42
899.096	307.35
899.27	314.9
899.444	315.68
899.618	347.45
899.792	359.47
899.967	343.97
900.141	372.06
900.315	293.79
900.489	327.5
900.663	369.93
900.837	347.07
901.011	316.84
901.185	401.32
901.359	338.73
901.533	347.26
901.707	365.67
901.881	372.25
902.055	288.36
902.229	321.68
902.403	407.13
902.576	353.07
902.75	360.63
902.924	458.86
903.098	421.27
903.272	402.09
903.446	431.93
903.619	419.72
903.793	427.86
903.967	402.48
904.14	488.11
904.314	468.35
904.488	432.31
904.661	464.86
904.835	447.04
905.009	481.72
905.182	485.79
905.356	469.13
905.529	454.6
905.703	396.67
905.876	454.6
906.05	392.02
906.223	410.42
906.397	355.78
906.57	342.8
906.744	306.77
906.917	345.71
907.09	356.95
907.264	349
907.437	332.15
907.61	314.52
907.784	344.55
907.957	345.9
908.13	300.57
908.304	369.73
908.477	297.27
908.65	327.88
908.823	314.13
908.996	361.21
909.17	332.92
909.343	322.46
909.516	321.3
909.689	338.93
909.862	278.48
910.035	300.18
910.208	305.02
910.381	277.12
910.554	373.42
910.727	303.09
910.9	310.25
911.073	281
911.246	355.01
911.419	340.09
911.592	334.28
911.765	312.97
911.938	280.22
912.11	308.51
912.283	296.3
912.456	372.64
912.629	331.57
912.802	257.75
912.974	274.8
913.147	242.83
913.32	226.36
913.493	258.72
913.665	282.35
913.838	273.83
914.01	252.52
914.183	256
914.356	251.16
914.528	290.69
914.701	330.4
914.873	290.1
915.046	241.09
915.218	246.12
915.391	206.41
915.563	236.24
915.736	277.32
915.908	288.17
916.081	254.26
916.253	268.02
916.425	255.23
916.598	275.38
916.77	242.05
916.942	232.95
917.115	183.74
917.287	273.05
917.459	238.37
917.632	227.33
917.804	178.31
917.976	256.97
918.148	233.53
918.32	233.92
918.493	275.57
918.665	304.83
918.837	256.2
919.009	315.68
919.181	301.54
919.353	256.39
919.525	272.67
919.697	259.69
919.869	261.04
920.041	312
920.213	390.27
920.385	297.85
920.557	281.39
920.729	303.28
920.901	272.67
921.073	269.76
921.244	269.37
921.416	321.88
921.588	281.97
921.76	260.46
921.932	306.57
922.103	288.17
922.275	268.99
922.447	299.21
922.619	188.58
922.79	251.35
922.962	243.99
923.134	293.98
923.305	215.9
923.477	207.76
923.648	213.19
923.82	231.21
923.991	196.52
924.163	192.65
924.335	229.46
924.506	223.46
924.677	263.17
924.849	226.75
925.02	223.84
925.192	244.96
925.363	235.47
925.535	236.05
925.706	212.99
925.877	250.39
926.049	196.14
926.22	229.07
926.391	220.94
926.562	246.32
926.734	209.51
926.905	237.21
927.076	185.48
927.247	228.11
927.419	194.39
927.59	182.77
927.761	189.55
927.932	180.25
928.103	183.54
928.274	173.08
928.445	168.62
928.616	175.6
928.787	154.29
928.958	200.01
929.129	194.39
929.3	147.12
929.471	124.64
929.642	91.71
929.813	65.94
929.984	168.04
930.155	72.53
930.326	141.31
930.496	130.07
930.667	50.83
930.838	102.36
931.009	57.03
931.18	79.31
931.35	63.23
931.521	97.52
931.692	30.1
931.863	23.7
932.033	90.16
932.204	75.24
932.374	56.45
932.545	47.15
932.716	92.68
932.886	64.58
933.057	21.57
933.227	14.6
933.398	110.5
933.568	49.47
933.739	-18.15
933.909	17.7
934.08	61.09
934.25	-10.4
934.421	1.61
934.591	25.06
934.761	10.72
934.932	-6.33
935.102	18.28
935.272	14.98
935.443	17.5
935.613	6.65
935.783	35.71
935.953	-7.1
936.123	137.82
936.294	-20.86
936.464	9.75
936.634	10.53
936.804	-36.75
936.974	-2.84
937.144	24.67
937.314	24.09
937.484	16.92
937.655	-17.95
937.825	13.24
937.995	-33.65
938.165	57.61
938.334	-8.07
938.504	28.93
938.674	0.26
938.844	-24.15
939.014	37.65
939.184	61.87
939.354	76.79
939.524	59.16
939.694	35.52
939.863	8.4
940.033	93.45
940.203	89.38
940.373	62.64
940.542	72.53
940.712	40.56
940.882	91.71
941.051	80.66
941.221	55.48
941.391	107.01
941.56	33
941.73	20.8
941.899	161.26
942.069	36.49
942.238	40.95
942.408	28.35
942.577	47.53
942.747	45.6
942.916	14.4
943.086	1.81
943.255	69.62
943.425	30.68
943.594	29.71
943.763	-19.12
943.933	-4.97
944.102	-8.46
944.271	19.05
944.441	64.78
944.61	13.63
944.779	25.25
944.948	101.01
945.117	2.2
945.287	19.83
945.456	-10.59
945.625	12.85
945.794	50.44
945.963	21.38
946.132	54.7
946.301	-0.52
946.47	64
946.639	-42.56
946.808	23.7
946.977	45.01
947.146	69.43
947.315	24.86
947.484	63.61
947.653	20.6
947.822	44.82
947.991	-6.33
948.16	86.09
948.329	72.14
948.498	19.83
948.666	31.26
948.835	52.96
949.004	-2.26
949.173	-5.36
949.341	42.5
949.51	50.05
949.679	77.37
949.847	65.55
950.016	119.22
950.185	61.29
950.353	-22.02
950.522	21.57
950.69	55.09
950.859	24.48
951.028	48.5
951.196	30.29
951.365	-4.2
951.533	39.4
951.701	68.46
951.87	67.88
952.038	5.3
952.207	33.58
952.375	100.23
952.543	17.31
952.712	41.14
952.88	17.7
953.048	81.05
953.217	38.04
953.385	25.83
953.553	76.98
953.721	-22.99
953.89	37.85
954.058	18.28
954.226	2.39
954.394	55.86
954.562	-10.79
954.73	37.07
954.898	41.53
955.067	72.53
955.235	8.01
955.403	74.66
955.571	93.45
955.739	27.96
955.907	20.21
956.075	1.81
956.243	-4.59
956.41	74.27
956.578	-22.8
956.746	-33.45
956.914	0.45
957.082	38.43
957.25	36.68
957.418	4.52
957.585	30.68
957.753	77.37
957.921	13.43
958.089	47.15
958.256	27.58
958.424	56.45
958.592	46.18
958.759	5.88
958.927	37.26
959.095	-16.02
959.262	22.15
959.43	39.78
959.597	4.13
959.765	37.85
959.932	8.59
960.1	58.38
960.267	37.46
960.435	37.46
960.602	49.86
960.77	-11.56
960.937	-7.3
961.104	37.07
961.272	7.04
961.439	14.4
961.606	55.48
961.774	40.95
961.941	27.77
962.108	66.33
962.275	33.2
962.443	54.31
962.61	41.33
962.777	120.77
962.944	69.43
963.111	51.02
963.278	72.91
963.446	61.87
963.613	26.22
963.78	66.71
963.947	70.98
964.114	39.78
964.281	105.85
964.448	41.72
964.615	29.32
964.782	45.79
964.949	86.48
965.116	64.39
965.282	84.34
965.449	33.58
965.616	-16.4
965.783	50.05
965.95	34.94
966.117	18.47
966.283	47.15
966.45	41.91
966.617	80.28
966.784	87.25
966.95	66.52
967.117	73.49
967.284	19.05
967.45	7.04
967.617	80.08
967.784	64
967.95	95.78
968.117	33.97
968.283	67.49
968.45	158.94
968.616	39.01
968.783	85.89
968.949	64.19
969.116	74.27
969.282	47.15
969.449	58.38
969.615	59.93
969.781	-11.17
969.948	40.17
970.114	2.78
970.28	99.46
970.447	44.05
970.613	92.48
970.779	33.58
970.945	71.75
971.112	52.96
971.278	18.66
971.444	65.16
971.61	61.29
971.776	30.29
971.942	57.41
972.108	50.44
972.275	38.43
972.441	70.01
972.607	117.67
972.773	26.03
972.939	54.7
973.105	53.54
973.271	-0.32
973.437	33.58
973.602	17.11
973.768	66.91
973.934	31.65
974.1	55.48
974.266	-34.62
974.432	52.38
974.598	31.65
974.763	80.66
974.929	23.51
975.095	117.09
975.261	14.98
975.426	39.2
975.592	44.63
975.758	134.53
975.923	5.1
976.089	32.81
976.255	92.48
976.42	51.99
976.586	66.52
976.751	63.81
976.917	110.5
977.082	58
977.248	37.26
977.413	-20.67
977.579	40.75
977.744	45.01
977.91	0.06
978.075	16.15
978.24	76.98
978.406	59.54
978.571	9.95
978.736	27
978.902	50.25
979.067	-13.69
979.232	-20.09
979.397	33.97
979.563	74.46
979.728	1.42
979.893	59.54
980.058	-3.81
980.223	76.4
980.388	68.65
980.554	33
980.719	26.8
980.884	42.88
981.049	54.51
981.214	4.91
981.379	53.93
981.544	1.81
981.709	32.81
981.874	35.52
982.039	42.11
982.204	60.13
982.368	81.83
982.533	39.98
982.698	96.55
982.863	80.47
983.028	18.66
983.193	70.39
983.357	33.97
983.522	41.14
983.687	38.81
983.852	1.42
984.016	43.27
984.181	26.41
984.346	61.68
984.51	83.57
984.675	30.87
984.839	54.9
985.004	30.48
985.168	88.03
985.333	64.39
985.498	16.92
985.662	70.59
985.827	64.19
985.991	37.46
986.155	42.88
986.32	39.98
986.484	88.61
986.649	45.4
986.813	-14.85
986.977	53.54
987.142	51.21
987.306	27.38
987.47	-6.52
987.634	19.25
987.799	61.68
987.963	41.33
988.127	74.08
988.291	109.53
988.455	46.76
988.62	15.95
988.784	45.98
988.948	80.86
989.112	7.81
989.276	32.23
989.44	49.47
989.604	28.35
989.768	13.82
989.932	81.24
990.096	8.2
990.26	7.62
990.424	-4.39
990.588	13.05
990.752	81.83
990.915	74.85
991.079	4.33
991.243	18.47
991.407	75.04
991.571	35.52
991.734	66.52
991.898	64.97
992.062	126.78
992.226	20.6
992.389	9.75
992.553	7.04
992.717	1.23
992.88	19.63
993.044	10.53
993.207	24.09
993.371	72.72
993.535	58.19
993.698	43.46
993.862	70.2
994.025	82.99
994.189	54.9
994.352	36.3
994.515	45.21
994.679	59.16
994.842	24.67
995.006	47.92
995.169	-3.62
995.332	-1.49
995.496	39.2
995.659	-0.52
995.822	49.08
995.985	18.86
996.149	67.49
996.312	44.63
996.475	121.54
996.638	37.26
996.801	78.34
996.964	83.76
997.128	51.6
997.291	25.25
997.454	35.13
997.617	-22.02
997.78	63.42
997.943	9.56
998.106	78.14
998.269	33.78
998.432	27.58
998.595	33
998.758	-16.21
998.92	-1.68
999.083	-33.84
999.246	38.43
999.409	-20.67
999.572	-16.02
999.735	-8.65
999.897	54.12
1000.06	-3.04
1000.223	4.33
1000.386	32.23
1000.548	37.46
1000.711	41.14
1000.874	27.19
1001.036	-12.92
1001.199	74.85
1001.361	12.66
1001.524	30.29
1001.687	60.32
1001.849	-6.72
1002.012	27.77
1002.174	30.1
1002.337	40.75
1002.499	8.4
1002.661	46.37
1002.824	-12.72
1002.986	11.69
1003.149	24.48
1003.311	11.11
1003.473	83.76
1003.636	9.95
1003.798	30.48
1003.96	51.8
1004.123	26.61
1004.285	29.9
1004.447	30.68
1004.609	9.36
1004.771	65.94
1004.933	-16.4
1005.096	-12.14
1005.258	-42.75
1005.42	26.41
1005.582	69.23
1005.744	4.33
1005.906	1.03
1006.068	19.05
1006.23	-20.09
1006.392	-24.74
1006.554	-7.1
1006.716	45.98
1006.878	40.17
1007.04	-17.37
1007.202	-7.88
1007.363	24.48
1007.525	31.65
1007.687	39.98
1007.849	85.12
1008.011	-38.1
1008.172	-22.99
1008.334	-6.52
1008.496	34.75
1008.658	-29.58
1008.819	-17.95
1008.981	-11.75
1009.143	-21.25
1009.304	-3.62
1009.466	41.33
1009.627	52.57
1009.789	111.66
1009.95	6.46
1010.112	14.21
1010.273	45.6
1010.435	-5.94
1010.596	-0.9
1010.758	-4.97
1010.919	32.42
1011.081	-11.37
1011.242	-12.53
1011.403	38.62
1011.565	-3.81
1011.726	33.2
1011.887	-18.34
1012.049	-16.99
1012.21	42.69
1012.371	83.18
1012.532	-74.33
1012.693	16.15
1012.855	6.65
1013.016	34.94
1013.177	45.98
1013.338	-1.68
1013.499	63.61
1013.66	43.46
1013.821	22.35
1013.982	10.14
1014.143	0.45
1014.304	-10.2
1014.465	12.85
1014.626	35.33
1014.787	-5.55
1014.948	91.13
1015.109	-55.15
1015.27	33.39
1015.431	-13.5
1015.592	-29.38
1015.752	66.13
1015.913	28.74
1016.074	10.14
1016.235	1.42
1016.395	23.12
1016.556	-1.49
1016.717	-19.31
1016.877	78.53
1017.038	-25.9
1017.199	15.37
1017.359	7.43
1017.52	27.96
1017.681	-16.6
1017.841	27.58
1018.002	7.04
1018.162	1.61
1018.323	46.95
1018.483	16.34
1018.644	17.31
1018.804	-24.15
1018.964	-3.04
1019.125	-9.04
1019.285	-2.07
1019.446	-17.37
1019.606	-28.22
1019.766	-80.92
1019.926	9.17
1020.087	24.09
1020.247	-9.43
1020.407	13.63
1020.567	43.46
1020.728	4.13
1020.888	-36.55
1021.048	-19.7
1021.208	-17.95
1021.368	-30.16
1021.528	57.8
1021.688	46.95
1021.848	32.23
1022.008	-2.26
1022.168	-15.63
1022.328	14.6
1022.488	24.09
1022.648	-2.26
1022.808	15.18
1022.968	14.01
1023.128	-3.23
1023.288	-1.68
1023.448	-2.07
1023.608	33.78
1023.767	19.25
1023.927	-8.27
1024.087	-25.12
1024.247	-46.82
1024.406	-4.39
1024.566	-43.72
1024.726	-25.51
1024.885	-2.84
1025.045	36.1
1025.205	11.11
1025.364	10.91
1025.524	22.54
1025.683	-30.35
1025.843	-0.52
1026.003	18.28
1026.162	74.66
1026.321	32.03
1026.481	6.65
1026.64	-32.68
1026.8	30.48
1026.959	-12.53
1027.119	9.56
1027.278	2.78
1027.437	-29.38
1027.597	14.79
1027.756	28.16
1027.915	11.69
1028.074	19.44
1028.234	-30.16
1028.393	12.85
1028.552	-3.42
1028.711	-92.74
1028.87	32.42
1029.03	-25.9
1029.189	-8.85
1029.348	-66
1029.507	-12.72
1029.666	3.16
1029.825	-78.98
1029.984	-27.84
1030.143	14.4
1030.302	-25.51
1030.461	-54.77
1030.62	0.06
1030.779	8.01
1030.938	-15.24
1031.097	-30.74
1031.255	12.66
1031.414	48.5
1031.573	39.59
1031.732	-52.44
1031.891	-15.82
1032.049	25.64
1032.208	32.03
1032.367	-15.24
1032.525	-16.99
1032.684	-4
1032.843	-7.3
1033.001	-44.5
1033.16	148.09
1033.319	38.23
1033.477	33.39
1033.636	-19.7
1033.794	-40.23
1033.953	21.18
1034.111	17.11
1034.27	-34.23
1034.428	34.55
1034.587	-19.12
1034.745	8.98
1034.903	-20.67
1035.062	24.28
1035.22	-40.62
1035.378	3.94
1035.537	-19.7
1035.695	26.03
1035.853	5.3
1036.011	34.55
1036.17	20.21
1036.328	-29.58
1036.486	24.86
1036.644	-6.33
1036.802	-81.89
1036.96	-36.36
1037.119	-7.3
1037.277	-22.22
1037.435	-48.57
1037.593	-25.12
1037.751	-10.98
1037.909	23.51
1038.067	23.51
