Data from pine_FLMT105791__119__17-22-18-075.txt Node

Date: Mon Mar 20 17:22:18 GMT 2023
User: antho
Spectrometer: FLMT10579
Trigger mode: 0
Integration Time (sec): 1.000000E-1
Scans to average: 10
Electric dark correction enabled: true
Nonlinearity correction enabled: false
Boxcar width: 0
XAxis mode: Wavelengths
Number of Pixels in Spectrum: 3648
>>>>>Begin Spectral Data<<<<<
345.248	-161.36
345.464	-161.36
345.681	-161.36
345.898	-173.76
346.114	-190.61
346.331	-24.96
346.548	3.52
346.764	-3.07
346.981	-5.2
347.197	7.01
347.414	23.48
347.631	-30.77
347.847	63.58
348.064	12.24
348.28	21.73
348.497	-54.99
348.713	-12.56
348.93	25.8
349.146	18.24
349.363	6.81
349.579	-7.52
349.796	0.03
350.012	-9.27
350.229	46.92
350.445	18.05
350.661	-24.38
350.878	-1.91
351.094	28.13
351.311	12.04
351.527	-7.14
351.743	-4.42
351.96	9.91
352.176	20.57
352.392	38.2
352.609	30.84
352.825	13.01
353.041	-8.11
353.257	-10.24
353.474	23.86
353.69	30.26
353.906	6.04
354.122	-33.49
354.339	52.15
354.555	24.64
354.771	-15.85
354.987	75.21
355.203	63.97
355.42	-23.41
355.636	-12.17
355.852	-0.55
356.068	-16.44
356.284	-41.82
356.5	69.98
356.716	39.94
356.932	10.88
357.148	40.53
357.364	-11.01
357.58	46.53
357.796	65.52
358.012	44.4
358.228	33.94
358.444	-45.5
358.66	76.95
358.876	35.49
359.092	-13.92
359.308	27.35
359.524	3.52
359.74	10.11
359.956	10.11
360.172	-9.27
360.388	56.61
360.604	-12.76
360.819	81.99
361.035	45.76
361.251	53.7
361.467	-26.7
361.683	30.84
361.898	21.15
362.114	36.07
362.33	22.31
362.546	48.47
362.762	6.43
362.977	17.47
363.193	-3.84
363.409	42.46
363.624	-23.02
363.84	-6.56
364.056	2.55
364.271	14.76
364.487	36.65
364.703	-8.88
364.918	-20.31
365.134	11.85
365.35	14.18
365.565	103.11
365.781	14.18
365.996	40.33
366.212	77.92
366.427	40.33
366.643	8.36
366.858	1.39
367.074	-21.47
367.289	60.87
367.505	89.93
367.72	-22.83
367.936	-0.16
368.151	56.03
368.367	47.31
368.582	22.7
368.798	-0.55
369.013	60.09
369.228	19.41
369.444	9.33
369.659	63.97
369.874	40.53
370.09	64.36
370.305	-51.12
370.52	-7.52
370.736	82.18
370.951	25.41
371.166	48.86
371.381	50.79
371.597	20.57
371.812	-4.62
372.027	6.23
372.242	6.23
372.458	93.03
372.673	5.46
372.888	38.39
373.103	40.91
373.318	100.2
373.533	20.76
373.749	40.53
373.964	-16.24
374.179	58.16
374.394	-9.85
374.609	48.47
374.824	16.89
375.039	64.55
375.254	14.18
375.469	69.2
375.684	22.12
375.899	49.63
376.114	21.93
376.329	46.92
376.544	65.71
376.759	50.99
376.974	15.34
377.189	23.48
377.404	16.89
377.619	73.07
377.834	-38.33
378.049	-29.8
378.264	-18.18
378.478	29.29
378.693	-11.21
378.908	65.91
379.123	25.03
379.338	81.21
379.553	47.31
379.767	19.21
379.982	33.74
380.197	30.45
380.412	6.23
380.626	43.82
380.841	116.09
381.056	42.85
381.271	80.24
381.485	-4.04
381.7	-30.19
381.915	25.03
382.129	21.93
382.344	35.1
382.559	29.09
382.773	59.71
382.988	-26.32
383.202	23.67
383.417	-7.91
383.632	131.97
383.846	19.99
384.061	38.01
384.275	23.09
384.49	36.65
384.704	44.98
384.919	38.01
385.133	27.93
385.348	55.25
385.562	13.79
385.777	50.02
385.991	23.09
386.206	35.88
386.42	38.39
386.634	55.83
386.849	34.33
387.063	37.23
387.277	-6.56
387.492	4.68
387.706	-11.98
387.92	-11.4
388.135	60.87
388.349	63.97
388.563	19.79
388.778	51.18
388.992	51.38
389.206	66.1
389.42	105.24
389.635	29.09
389.849	74.04
390.063	42.66
390.277	48.47
390.491	77.34
390.706	29.29
390.92	55.25
391.134	45.18
391.348	59.32
391.562	-14.5
391.776	36.65
391.99	41.3
392.205	53.12
392.419	24.25
392.633	12.43
392.847	80.44
393.061	11.85
393.275	119.77
393.489	33.55
393.703	49.63
393.917	79.08
394.131	42.66
394.345	61.64
394.559	83.73
394.773	18.63
394.986	61.84
395.2	27.16
395.414	69.78
395.628	7.39
395.842	70.36
396.056	32.97
396.27	-7.14
396.484	27.74
396.697	40.33
396.911	57.77
397.125	78.5
397.339	58.54
397.553	43.04
397.766	129.26
397.98	66.88
398.194	81.99
398.408	24.83
398.621	76.56
398.835	98.46
399.049	47.11
399.262	104.85
399.476	83.15
399.69	58.16
399.903	146.7
400.117	52.54
400.331	80.63
400.544	70.17
400.758	185.84
400.971	65.52
401.185	87.41
401.398	19.21
401.612	110.86
401.826	108.72
402.039	109.5
402.253	35.88
402.466	95.55
402.68	48.47
402.893	80.63
403.106	81.79
403.32	74.24
403.533	82.96
403.747	71.72
403.96	88.57
404.174	84.12
404.387	36.84
404.6	75.4
404.814	105.62
405.027	76.17
405.24	56.61
405.454	89.74
405.667	104.07
405.88	1.58
406.094	87.41
406.307	96.32
406.52	100.97
406.733	50.6
406.947	31.81
407.16	119.19
407.373	117.44
407.586	40.33
407.799	39.17
408.012	84.51
408.226	98.26
408.439	129.26
408.652	50.21
408.865	89.74
409.078	119.57
409.291	88.96
409.504	65.52
409.717	77.92
409.93	106.98
410.143	86.25
410.357	45.56
410.57	51.38
410.783	52.93
410.996	101.36
411.209	81.41
411.421	111.05
411.634	85.67
411.847	42.46
412.06	74.04
412.273	87.8
412.486	98.07
412.699	182.74
412.912	87.99
413.125	121.32
413.338	88.77
413.55	119.19
413.763	107.17
413.976	142.05
414.189	75.98
414.402	98.46
414.615	151.93
414.827	84.51
415.04	110.08
415.253	91.09
415.466	128.1
415.678	169.17
415.891	88.77
416.104	110.27
416.316	91.48
416.529	95.74
416.742	106.98
416.954	123.64
417.167	106.21
417.38	101.94
417.592	147.28
417.805	80.05
418.017	45.37
418.23	120.93
418.442	67.46
418.655	93.42
418.868	126.36
419.08	148.83
419.293	154.64
419.505	117.64
419.718	121.9
419.93	136.62
420.142	114.34
420.355	160.07
420.567	156.39
420.78	129.26
420.992	119.77
421.205	204.05
421.417	68.23
421.629	123.06
421.842	105.62
422.054	90.51
422.266	142.44
422.479	151.54
422.691	115.7
422.903	178.09
423.115	109.69
423.328	112.99
423.54	162.2
423.752	103.69
423.964	124.61
424.177	169.75
424.389	107.76
424.601	241.44
424.813	153.09
425.025	186.03
425.238	172.27
425.45	120.93
425.662	146.31
425.874	446.23
426.086	135.66
426.298	150.77
426.51	168.01
426.722	139.53
426.934	130.42
427.146	182.54
427.358	102.91
427.57	183.9
427.782	137.4
427.994	154.84
428.206	147.09
428.418	89.93
428.63	169.56
428.842	175.95
429.054	151.16
429.266	180.22
429.478	161.04
429.69	169.17
429.902	119.77
430.114	218
430.325	171.69
430.537	140.89
430.749	150.57
430.961	124.03
431.173	123.06
431.384	159.1
431.596	70.56
431.808	145.34
432.02	153.87
432.231	206.76
432.443	205.79
432.655	175.37
432.867	154.84
433.078	194.17
433.29	259.46
433.502	223.62
433.713	227.69
433.925	229.43
434.136	239.12
434.348	149.22
434.56	128.49
434.771	291.23
434.983	138.76
435.194	159.68
435.406	189.71
435.617	220.32
435.829	265.66
436.04	221.87
436.252	248.61
436.463	263.14
436.675	240.28
436.886	211.22
437.098	231.17
437.309	286
437.521	221.1
437.732	212.96
437.943	238.92
438.155	226.33
438.366	177.89
438.578	290.65
438.789	250.16
439	257.33
439.211	213.93
439.423	223.62
439.634	241.64
439.845	263.92
440.057	251.32
440.268	296.47
440.479	239.12
440.69	231.17
440.902	241.64
441.113	240.28
441.324	229.04
441.535	257.72
441.746	330.18
441.957	222.65
442.168	226.33
442.38	283.1
442.591	304.6
442.802	253.84
443.013	286
443.224	297.63
443.435	256.17
443.646	292.4
443.857	244.74
444.068	257.72
444.279	238.73
444.49	366.02
444.701	269.73
444.912	363.5
445.123	311
445.334	309.83
445.545	301.5
445.756	290.46
445.967	275.15
446.178	303.05
446.388	292.78
446.599	325.53
446.81	342.77
447.021	275.54
447.232	342.19
447.443	355.95
447.653	286.39
447.864	346.65
448.075	305.96
448.286	337.93
448.496	321.27
448.707	359.05
448.918	312.35
449.129	424.53
449.339	337.35
449.55	364.86
449.761	295.5
449.971	389.08
450.182	320.68
450.393	376.87
450.603	311.58
450.814	360.21
451.024	331.53
451.235	368.73
451.446	416.2
451.656	404.96
451.867	286.2
452.077	366.41
452.288	393.53
452.498	414.65
452.709	335.02
452.919	369.12
453.13	344.9
453.34	388.5
453.55	286.58
453.761	367.38
453.971	370.28
454.182	355.75
454.392	370.28
454.602	398.76
454.813	388.88
455.023	393.15
455.233	332.31
455.444	376.1
455.654	269.15
455.864	372.03
456.075	358.85
456.285	360.4
456.495	359.05
456.705	369.7
456.916	414.26
457.126	430.93
457.336	382.3
457.546	321.46
457.756	367.18
457.967	436.54
458.177	353.62
458.387	388.5
458.597	344.71
458.807	393.73
459.017	375.13
459.227	365.83
459.437	365.44
459.647	400.12
459.857	422.79
460.068	357.5
460.278	452.43
460.488	401.86
460.698	465.41
460.908	368.54
461.117	359.24
461.327	387.33
461.537	412.91
461.747	401.86
461.957	389.85
462.167	512.3
462.377	463.86
462.587	417.17
462.797	454.37
463.007	402.45
463.216	435.38
463.426	466.19
463.636	437.51
463.846	385.59
464.056	403.22
464.265	484.79
464.475	384.62
464.685	426.28
464.895	442.36
465.104	423.76
465.314	453.01
465.524	407.68
465.733	426.08
465.943	530.12
466.153	486.34
466.362	451.66
466.572	433.64
466.782	440.61
466.991	442.74
467.201	489.44
467.41	401.09
467.62	472.78
467.829	442.36
468.039	456.11
468.249	469.68
468.458	446.81
468.668	495.25
468.877	468.71
469.086	521.6
469.296	505.71
469.505	440.23
469.715	558.99
469.924	502.42
470.134	518.5
470.343	511.33
470.552	458.24
470.762	475.68
470.971	467.93
471.18	493.12
471.39	492.34
471.599	491.18
471.808	510.56
472.018	476.84
472.227	522.37
472.436	558.02
472.645	522.96
472.855	495.06
473.064	574.3
473.273	566.36
473.482	542.52
473.691	579.14
473.901	560.16
474.11	525.86
474.319	621.96
474.528	556.47
474.737	609.37
474.946	581.47
475.155	582.24
475.364	629.32
475.573	598.9
475.783	560.93
475.992	595.42
476.201	625.64
476.41	579.92
476.619	543.88
476.828	584.76
477.037	562.29
477.245	577.59
477.454	627
477.663	597.74
477.872	589.61
478.081	651.41
478.29	577.4
478.499	696.94
478.708	624.09
478.917	712.63
479.125	637.85
479.334	628.16
479.543	624.29
479.752	680.47
479.961	651.8
480.169	705.08
480.378	628.35
480.587	774.25
480.796	701.2
481.004	700.04
481.213	719.8
481.422	697.91
481.63	689.38
481.839	694.62
482.048	775.6
482.256	698.68
482.465	729.1
482.674	746.54
482.882	747.9
483.091	791.88
483.299	738.6
483.508	768.63
483.716	738.98
483.925	732.4
484.134	722.9
484.342	715.54
484.551	765.14
484.759	787.81
484.967	786.26
485.176	799.63
485.384	773.28
485.593	819
485.801	776.96
486.01	738.6
486.218	737.82
486.426	655.87
486.635	663.81
486.843	681.44
487.051	692.29
487.26	700.82
487.468	726.78
487.676	750.42
487.885	738.98
488.093	794.4
488.301	770.37
488.509	799.63
488.717	833.73
488.926	796.33
489.134	789.75
489.342	822.68
489.55	776.18
489.758	819
489.967	800.6
490.175	927.69
490.383	834.31
490.591	948.62
490.799	821.13
491.007	917.23
491.215	888.75
491.423	855.62
491.631	852.33
491.839	853.68
492.047	878.29
492.255	820.94
492.463	821.13
492.671	856.78
492.879	903.67
493.087	860.66
493.295	877.71
493.503	886.81
493.711	920.72
493.919	915.29
494.127	938.35
494.334	980.39
494.542	893.01
494.75	932.15
494.958	862.21
495.166	977.1
495.374	925.18
495.581	947.26
495.789	944.74
495.997	1023.6
496.205	915.29
496.412	905.99
496.62	938.93
496.828	996.09
497.035	960.82
497.243	956.37
497.451	976.52
497.658	979.04
497.866	1003.84
498.074	1014.49
498.281	946.1
498.489	1039.87
498.696	997.64
498.904	974
499.112	951.33
499.319	1054.21
499.527	982.52
499.734	1046.85
499.942	959.27
500.149	981.56
500.357	1010.23
500.564	955.4
500.771	995.12
500.979	980.97
501.186	974.97
501.394	986.59
501.601	964.12
501.808	1023.21
502.016	969.16
502.223	984.85
502.43	977.29
502.638	976.32
502.845	970.9
503.052	1098.77
503.26	1014.88
503.467	1077.46
503.674	1034.25
503.881	1037.55
504.089	1109.62
504.296	1052.08
504.503	996.86
504.71	1025.73
504.917	973.81
505.125	1037.55
505.332	1030.57
505.539	1078.04
505.746	1141.98
505.953	1108.46
506.16	1108.65
506.367	1153.99
506.574	1155.73
506.781	1163.29
506.988	1081.14
507.195	1121.05
507.402	1064.67
507.609	1121.83
507.816	1122.22
508.023	1120.86
508.23	1085.4
508.437	1051.3
508.644	1137.13
508.851	1168.52
509.058	1160.77
509.265	1122.6
509.472	1184.02
509.679	1271.21
509.885	1198.94
510.092	1129.77
510.299	1202.43
510.506	1151.86
510.713	1170.85
510.92	1178.6
511.126	1191.77
511.333	1214.63
511.54	1203.4
511.746	1253.19
511.953	1259.78
512.16	1295.23
512.367	1256.87
512.573	1220.45
512.78	1236.72
512.987	1207.27
513.193	1217.73
513.4	1160.19
513.606	1219.09
513.813	1260.55
514.02	1241.37
514.226	1295.62
514.433	1268.88
514.639	1204.17
514.846	1270.24
515.052	1235.75
515.259	1267.72
515.465	1263.65
515.672	1269.66
515.878	1345.61
516.085	1298.33
516.291	1315.58
516.497	1249.7
516.704	1237.5
516.91	1209.01
517.117	1180.34
517.323	1141.01
517.529	1142.17
517.736	1163.48
517.942	1216.38
518.148	1207.85
518.354	1269.46
518.561	1247.38
518.767	1254.74
518.973	1273.73
519.179	1319.64
519.386	1287.68
519.592	1265.59
519.798	1289.42
520.004	1385.91
520.21	1352.39
520.417	1416.52
520.623	1473.67
520.829	1418.26
521.035	1419.81
521.241	1442.48
521.447	1434.73
521.653	1540.52
521.859	1440.93
522.065	1453.14
522.271	1585.27
522.477	1517.07
522.683	1516.69
522.889	1535.29
523.095	1514.94
523.301	1507.58
523.507	1456.43
523.713	1507
523.919	1457.59
524.125	1612.59
524.331	1537.42
524.537	1655.41
524.742	1606
524.948	1651.34
525.154	1615.11
525.36	1714.5
525.566	1607.75
525.772	1680.21
525.977	1587.6
526.183	1626.35
526.389	1644.75
526.595	1570.55
526.8	1563.96
527.006	1514.36
527.212	1488.98
527.417	1461.47
527.623	1475.61
527.829	1550.79
528.034	1575.58
528.24	1599.61
528.446	1584.3
528.651	1695.9
528.857	1677.11
529.062	1711.98
529.268	1653.66
529.473	1704.81
529.679	1716.83
529.884	1768.75
530.09	1734.46
530.295	1801.69
530.501	1783.28
530.706	1739.3
530.912	1702.3
531.117	1738.53
531.323	1759.06
531.528	1799.17
531.733	1820.09
531.939	1760.81
532.144	1795.49
532.35	1805.76
532.555	1804.21
532.76	1778.44
532.966	1807.31
533.171	1736.39
533.376	1694.74
533.581	1685.63
533.787	1756.35
533.992	1772.82
534.197	1811.96
534.402	1800.14
534.607	1797.23
534.813	1907.86
535.018	1780.96
535.223	1804.59
535.428	1796.07
535.633	1880.54
535.838	1891.59
536.043	1860.97
536.249	1966.18
536.454	1913.09
536.659	1880.93
536.864	1872.99
537.069	1836.56
537.274	1874.92
537.479	1883.45
537.684	1888.87
537.889	1841.99
538.094	1941.19
538.299	1912.32
538.504	1893.33
538.708	1875.31
538.913	1935.76
539.118	1892.75
539.323	1910.77
539.528	1899.53
539.733	1900.11
539.938	1915.03
540.142	1928.79
540.347	1905.34
540.552	1891.39
540.757	1855.16
540.962	1848.77
541.166	1814.28
541.371	1829.01
541.576	1881.32
541.781	1791.81
541.985	1916.77
542.19	1888.1
542.395	2031.86
542.599	1982.65
542.804	1962.69
543.008	1992.53
543.213	1925.3
543.418	1860.78
543.622	1948.74
543.827	1866.59
544.031	2030.12
544.236	1984.2
544.44	1943.51
544.645	2025.85
544.849	1975.48
545.054	1992.34
545.258	2081.85
545.463	2024.5
545.667	1930.72
545.872	2015
546.076	1993.11
546.281	1988.07
546.485	1980.9
546.689	1976.64
546.894	2029.73
547.098	1997.37
547.302	1976.64
547.507	1977.42
547.711	1993.5
547.915	2058.6
548.119	1971.41
548.324	1967.73
548.528	2041.55
548.732	2026.24
548.936	2061.89
549.141	2043.87
549.345	1998.34
549.549	2039.61
549.753	2002.99
549.957	2115.36
550.161	2095.8
550.366	2056.85
550.57	2029.92
550.774	2029.92
550.978	2038.83
551.182	2056.08
551.386	2025.08
551.59	2009.97
551.794	2010.16
551.998	2057.82
552.202	2066.73
552.406	2006.87
552.61	2051.43
552.814	2033.6
553.018	2061.7
553.222	2009.19
553.426	2014.03
553.63	2111.68
553.833	2035.35
554.037	1996.4
554.241	2066.15
554.445	2045.03
554.649	2040.77
554.853	2005.9
555.056	2085.53
555.26	2111.3
555.464	2066.93
555.668	2078.17
555.871	2105.68
556.075	2110.71
556.279	2029.73
556.483	2001.44
556.686	1996.02
556.89	1992.53
557.094	2052.98
557.297	1936.73
557.501	2058.02
557.704	1931.89
557.908	2046.39
558.112	1979.94
558.315	2051.04
558.519	1964.24
558.722	1987.1
558.926	1965.21
559.129	1911.54
559.333	1882.87
559.536	1889.46
559.74	1902.82
559.943	1877.44
560.147	1869.11
560.35	1916.58
560.553	1906.31
560.757	1857.1
560.96	1978.39
561.164	1911.35
561.367	2010.55
561.57	1923.75
561.774	1926.85
561.977	1908.64
562.18	1858.46
562.384	1956.3
562.587	1892.56
562.79	1933.63
562.993	1892.75
563.197	1949.9
563.4	2013.84
563.603	1951.65
563.806	2015.97
564.009	1880.93
564.212	1935.18
564.416	1838.11
564.619	1891.01
564.822	1837.92
565.025	1900.69
565.228	1908.64
565.431	1902.24
565.634	1780.76
565.837	1839.27
566.04	1791.23
566.243	1799.75
566.446	1723.8
566.649	1813.51
566.852	1794.33
567.055	1792.19
567.258	1835.01
567.461	1890.42
567.664	1863.69
567.867	1769.91
568.07	1780.38
568.273	1828.23
568.475	1819.13
568.678	1763.91
568.881	1779.21
569.084	1764.1
569.287	1659.09
569.489	1689.12
569.692	1739.49
569.895	1777.28
570.098	1680.21
570.3	1660.64
570.503	1653.47
570.706	1646.3
570.909	1651.34
571.111	1624.8
571.314	1619.95
571.516	1598.83
571.719	1674.78
571.922	1617.63
572.124	1620.15
572.327	1633.9
572.529	1588.18
572.732	1616.27
572.935	1651.34
573.137	1674.78
573.34	1610.46
573.542	1653.28
573.745	1665.48
573.947	1654.63
574.15	1641.07
574.352	1598.25
574.554	1681.18
574.757	1610.85
574.959	1561.25
575.162	1591.08
575.364	1575.78
575.566	1700.16
575.769	1536.64
575.971	1600.77
576.173	1467.28
576.376	1543.23
576.578	1608.72
576.78	1631.77
576.982	1471.93
577.185	1592.44
577.387	1527.34
577.589	1515.52
577.791	1583.92
577.993	1536.25
578.196	1552.92
578.398	1542.45
578.6	1534.9
578.802	1496.15
579.004	1512.81
579.206	1512.23
579.408	1514.36
579.61	1458.95
579.812	1558.92
580.014	1496.15
580.216	1471.74
580.418	1515.91
580.62	1506.03
580.822	1459.53
581.024	1524.44
581.226	1572.48
581.428	1501.77
581.63	1569.58
581.832	1511.65
582.034	1569.38
582.236	1490.14
582.438	1548.65
582.64	1570.93
582.841	1601.74
583.043	1607.75
583.245	1578.3
583.447	1588.76
583.649	1539.16
583.85	1569.19
584.052	1599.42
584.254	1519.01
584.456	1575.78
584.657	1468.06
584.859	1531.99
585.061	1519.01
585.262	1507.39
585.464	1480.84
585.666	1519.01
585.867	1475.8
586.069	1557.37
586.27	1482
586.472	1443.06
586.674	1493.63
586.875	1470.57
587.077	1482.39
587.278	1502.93
587.48	1465.54
587.681	1597.87
587.883	1477.94
588.084	1400.24
588.285	1477.94
588.487	1432.99
588.688	1434.34
588.89	1388.23
589.091	1339.41
589.292	1323.71
589.494	1316.35
589.695	1288.45
589.896	1231.68
590.098	1244.86
590.299	1324.88
590.5	1245.44
590.702	1288.84
590.903	1327.59
591.104	1370.21
591.305	1365.95
591.507	1436.86
591.708	1339.41
591.909	1360.72
592.11	1430.08
592.311	1377.58
592.512	1393.46
592.714	1300.08
592.915	1318.09
593.116	1358.01
593.317	1364.4
593.518	1370.6
593.719	1369.83
593.92	1425.24
594.121	1410.9
594.322	1382.61
594.523	1365.56
594.724	1333.98
594.925	1343.86
595.126	1363.63
595.327	1349.09
595.528	1369.24
595.729	1352.58
595.929	1365.37
596.13	1355.88
596.331	1376.03
596.532	1386.49
596.733	1414.77
596.934	1422.52
597.135	1389.59
597.335	1396.95
597.536	1318.29
597.737	1366.53
597.938	1319.45
598.138	1379.13
598.339	1336.31
598.54	1371.96
598.74	1355.29
598.941	1362.66
599.142	1425.24
599.342	1361.49
599.543	1341.73
599.744	1352.97
599.944	1356.65
600.145	1381.84
600.345	1354.52
600.546	1420.59
600.746	1392.69
600.947	1456.24
601.147	1336.69
601.348	1384.36
601.548	1333.98
601.749	1328.94
601.949	1282.06
602.15	1286.13
602.35	1309.18
602.551	1399.47
602.751	1308.02
602.951	1352.78
603.152	1284.58
603.352	1377.77
603.552	1343.48
603.753	1377.38
603.953	1361.49
604.153	1326.43
604.354	1343.86
604.554	1304.34
604.754	1349.87
604.954	1354.13
605.155	1362.27
605.355	1362.46
605.555	1368.66
605.755	1394.24
605.955	1321.78
606.155	1361.11
606.356	1332.04
606.556	1352.39
606.756	1345.61
606.956	1273.92
607.156	1374.09
607.356	1312.48
607.556	1365.18
607.756	1343.67
607.956	1404.12
608.156	1355.1
608.356	1316.16
608.556	1334.37
608.756	1339.21
608.956	1293.49
609.156	1326.81
609.356	1286.13
609.556	1257.84
609.755	1307.05
609.955	1278.76
610.155	1303.95
610.355	1319.64
610.555	1237.3
610.755	1288.84
610.954	1222.77
611.154	1275.08
611.354	1323.13
611.554	1261.52
611.753	1292.33
611.953	1231.88
612.153	1291.55
612.352	1288.45
612.552	1246.02
612.752	1209.21
612.951	1279.35
613.151	1263.85
613.351	1241.56
613.55	1254.35
613.75	1239.82
613.949	1221.22
614.149	1292.13
614.348	1218.51
614.548	1222.77
614.747	1183.05
614.947	1196.81
615.146	1147.6
615.346	1228.97
615.545	1227.23
615.745	1245.83
615.944	1247.96
616.144	1209.79
616.343	1194.68
616.542	1166.78
616.742	1206.5
616.941	1205.53
617.14	1137.33
617.34	1155.93
617.539	1201.46
617.738	1150.5
617.938	1237.69
618.137	1192.55
618.336	1166
618.535	1205.14
618.734	1199.52
618.934	1192.16
619.133	1193.13
619.332	1213.08
619.531	1160
619.73	1160.19
619.929	1226.06
620.128	1210.95
620.328	1264.62
620.527	1150.7
620.726	1205.33
620.925	1199.33
621.124	1183.44
621.323	1169.68
621.522	1131.71
621.721	1172.59
621.92	1138.49
622.119	1186.35
622.318	1124.73
622.517	1149.15
622.715	1108.85
622.914	1087.92
623.113	1164.65
623.312	1080.75
623.511	1150.7
623.71	1147.98
623.909	1126.67
624.107	1182.47
624.306	1057.89
624.505	1114.85
624.704	1075.72
624.902	1076.88
625.101	1206.69
625.3	1102.07
625.499	1084.24
625.697	1054.6
625.896	1053.24
626.095	1115.05
626.293	1046.65
626.492	1055.76
626.69	1086.57
626.889	1102.45
627.088	1128.22
627.286	1069.71
627.485	1062.35
627.683	1059.05
627.882	1092.96
628.08	1029.02
628.279	1042.78
628.477	1107.69
628.676	1019.53
628.874	1042.39
629.073	1017.98
629.271	989.5
629.469	1065.06
629.668	1049.95
629.866	1030.96
630.065	1017.21
630.263	1096.84
630.461	997.44
630.66	1079.2
630.858	1065.25
631.056	1108.27
631.254	1079.01
631.453	1023.6
631.651	1066.42
631.849	1049.37
632.047	1059.05
632.245	1041.42
632.444	1031.74
632.642	1079.01
632.84	1053.44
633.038	1029.61
633.236	1020.89
633.434	1035.8
633.632	1012.56
633.83	1035.03
634.028	1068.35
634.227	1042.97
634.425	1106.72
634.623	1053.82
634.821	1079.98
635.019	1035.22
635.216	1024.57
635.414	1073.2
635.612	1039.29
635.81	1023.02
636.008	1120.86
636.206	1044.72
636.404	1058.28
636.602	1018.37
636.8	1046.27
636.997	1075.72
637.195	1075.14
637.393	1051.3
637.591	1100.71
637.789	1069.52
637.986	1025.92
638.184	1068.35
638.382	1084.82
638.58	1102.07
638.777	1146.82
638.975	1037.35
639.173	1040.07
639.37	1047.04
639.568	1073.39
639.765	1070.29
639.963	1038.52
640.161	1053.05
640.358	1067
640.556	1029.02
640.753	1020.11
640.951	989.69
641.148	1061.57
641.346	1017.79
641.543	1014.88
641.741	1037.16
641.938	1004.42
642.136	1021.47
642.333	954.82
642.531	1049.75
642.728	1076.1
642.925	980.39
643.123	1012.17
643.32	1008.68
643.517	1028.25
643.715	990.47
643.912	990.27
644.109	1017.01
644.306	984.07
644.504	956.37
644.701	993.57
644.898	1043.17
645.095	980.59
645.293	966.83
645.49	1015.46
645.687	981.36
645.884	1017.01
646.081	956.17
646.278	934.67
646.475	943
646.672	944.36
646.87	957.34
647.067	970.12
647.264	960.44
647.461	916.26
647.658	893.79
647.855	938.93
648.052	878.68
648.249	830.43
648.446	905.41
648.642	897.47
648.839	894.37
649.036	900.18
649.233	834.31
649.43	841.67
649.627	884.49
649.824	848.65
650.021	865.11
650.217	888.94
650.414	879.06
650.611	895.14
650.808	914.71
651.004	897.47
651.201	923.43
651.398	940.29
651.595	891.27
651.791	853.1
651.988	926.34
652.185	841.67
652.381	911.23
652.578	826.56
652.775	890.88
652.971	864.92
653.168	868.99
653.364	892.43
653.561	802.34
653.757	865.5
653.954	920.72
654.15	852.71
654.347	959.86
654.543	863.76
654.74	814.16
654.936	820.75
655.133	890.88
655.329	859.88
655.525	831.79
655.722	881
655.918	808.15
656.115	835.08
656.311	770.18
656.507	738.02
656.704	690.74
656.9	744.41
657.096	747.32
657.292	748.28
657.489	817.26
657.685	798.08
657.881	764.95
658.077	780.64
658.273	815.13
658.47	876.35
658.666	822.3
658.862	839.93
659.058	821.52
659.254	867.44
659.45	820.16
659.646	827.91
659.842	806.02
660.038	862.21
660.234	810.67
660.43	828.88
660.626	891.85
660.822	842.25
661.018	889.72
661.214	843.61
661.41	787.23
661.606	876.54
661.802	853.88
661.998	825.2
662.194	806.6
662.39	845.93
662.586	846.13
662.781	848.65
662.977	842.06
663.173	884.1
663.369	838.96
663.564	838.18
663.76	847.29
663.956	815.71
664.152	843.61
664.347	761.46
664.543	830.43
664.739	793.81
664.934	751
665.13	744.8
665.326	834.89
665.521	844
665.717	736.08
665.912	739.95
666.108	709.15
666.304	749.25
666.499	765.33
666.695	714.18
666.89	766.3
667.086	807.18
667.281	796.91
667.477	831.79
667.672	772.89
667.867	777.15
668.063	782.58
668.258	750.42
668.454	778.7
668.649	842.83
668.844	789.55
669.04	784.32
669.235	753.52
669.43	724.07
669.626	729.1
669.821	757.39
670.016	718.45
670.211	762.04
670.407	726
670.602	764.37
670.797	756.03
670.992	789.94
671.187	736.85
671.382	809.7
671.578	750.22
671.773	769.79
671.968	706.43
672.163	745.77
672.358	769.02
672.553	717.48
672.748	729.88
672.943	807.96
673.138	757
673.333	788.2
673.528	681.64
673.723	757.78
673.918	764.56
674.113	713.99
674.308	810.28
674.503	766.69
674.698	787.61
674.892	751.38
675.087	763.01
675.282	761.65
675.477	717.87
675.672	754.1
675.867	725.81
676.061	730.27
676.256	692.1
676.451	721.16
676.646	743.05
676.84	711.08
677.035	689.97
677.23	702.17
677.424	746.93
677.619	780.45
677.814	770.95
678.008	769.4
678.203	669.82
678.397	711.47
678.592	715.35
678.787	771.53
678.981	703.14
679.176	744.99
679.37	704.11
679.565	708.18
679.759	730.07
679.954	757.39
680.148	769.6
680.342	746.93
680.537	748.48
680.731	734.14
680.926	738.4
681.12	748.09
681.314	696.75
681.509	734.33
681.703	737.05
681.897	742.86
682.092	730.46
682.286	701.2
682.48	790.13
682.674	761.85
682.869	692.87
683.063	729.3
683.257	749.83
683.451	714.18
683.645	738.79
683.839	729.88
684.034	706.43
684.228	762.23
684.422	692.87
684.616	682.02
684.81	762.82
685.004	711.86
685.198	724.07
685.392	722.13
685.586	685.9
685.78	730.07
685.974	734.33
686.168	727.94
686.362	790.71
686.556	649.47
686.75	646.57
686.944	618.28
687.138	666.14
687.331	543.49
687.525	574.88
687.719	504.36
687.913	568.49
688.107	575.85
688.301	549.69
688.494	600.26
688.688	534
688.882	536.91
689.076	557.25
689.269	578.76
689.463	675.82
689.657	615.18
689.85	585.34
690.044	623.12
690.238	594.45
690.431	595.61
690.625	637.46
690.818	664.78
691.012	669.04
691.205	690.74
691.399	615.18
691.593	704.3
691.786	729.88
691.98	710.31
692.173	776.18
692.366	752.55
692.56	748.09
692.753	795.75
692.947	714.38
693.14	815.51
693.333	796.53
693.527	733.95
693.72	756.81
693.914	753.32
694.107	765.92
694.3	791.1
694.493	752.93
694.687	861.43
694.88	754.29
695.073	859.11
695.266	835.47
695.46	836.25
695.653	865.89
695.846	860.08
696.039	823.26
696.232	838.18
696.425	888.17
696.618	907.16
696.812	920.33
697.005	957.92
697.198	1037.74
697.391	968.57
697.584	1009.65
697.777	1036.97
697.97	1006.74
698.163	1047.04
698.356	1057.12
698.549	1081.92
698.742	1042.2
698.935	1024.57
699.127	1053.05
699.32	1011.2
699.513	1071.26
699.706	1076.1
699.899	1135.78
700.092	1074.17
700.285	1126.09
700.477	1064.87
700.67	1129.19
700.863	1162.52
701.056	1264.23
701.248	1172.01
701.441	1185.57
701.634	1174.53
701.826	1273.34
702.019	1174.33
702.212	1226.84
702.404	1188.87
702.597	1198.75
702.79	1204.17
702.982	1224.9
703.175	1289.81
703.367	1301.24
703.56	1310.73
703.752	1388.04
703.945	1352.39
704.137	1367.89
704.33	1412.06
704.522	1416.13
704.715	1429.69
704.907	1437.44
705.1	1465.34
705.292	1478.71
705.484	1449.26
705.677	1503.12
705.869	1504.67
706.061	1553.5
706.254	1603.68
706.446	1518.04
706.638	1517.27
706.831	1591.67
707.023	1577.91
707.215	1667.61
707.407	1639.72
707.599	1624.02
707.792	1676.33
707.984	1666.65
708.176	1704.04
708.368	1696.87
708.56	1749.76
708.752	1737.17
708.944	1739.88
709.136	1753.44
709.329	1733.49
709.521	1880.54
709.713	1839.47
709.905	1821.26
710.097	1889.65
710.289	1827.26
710.481	1836.76
710.672	1887.52
710.864	1889.46
711.056	1925.3
711.248	1894.11
711.44	1928.79
711.632	1919.87
711.824	1967.54
712.016	2018.88
712.207	2002.22
712.399	2017.72
712.591	2074.48
712.783	2035.15
712.975	2121.95
713.166	2029.15
713.358	2058.4
713.55	2104.51
713.741	2132.61
713.933	2119.05
714.125	2114.2
714.316	2104.51
714.508	2215.73
714.7	2183.37
714.891	2157.6
715.083	2192.09
715.274	2166.13
715.466	2200.03
715.657	2199.84
715.849	2146.56
716.04	2182.79
716.232	2144.81
716.423	2186.66
716.615	2126.6
716.806	2075.45
716.998	2014.81
717.189	1955.14
717.381	1880.35
717.572	1829.59
717.763	1878.02
717.955	1848.19
718.146	1779.79
718.337	1775.73
718.528	1706.95
718.72	1671.68
718.911	1731.36
719.102	1689.7
719.293	1749.76
719.485	1705.4
719.676	1689.12
719.867	1656.76
720.058	1666.26
720.249	1663.93
720.44	1685.83
720.632	1735.23
720.823	1785.03
721.014	1916.39
721.205	1981.68
721.396	2017.72
721.587	2099.48
721.778	2129.9
721.969	2161.28
722.16	2197.32
722.351	2216.11
722.542	2342.24
722.733	2391.65
722.924	2267.84
723.115	2353.29
723.305	2300.97
723.496	2314.15
723.687	2155.47
723.878	2197.13
724.069	2182.21
724.26	2192.67
724.45	2134.16
724.641	2084.17
724.832	2164
725.023	2135.13
725.213	2103.55
725.404	2096.96
725.595	2128.93
725.785	2097.93
725.976	2171.55
726.167	2137.84
726.357	2170
726.548	2250.6
726.739	2197.71
726.929	2227.35
727.12	2249.83
727.31	2314.15
727.501	2219.02
727.691	2275.79
727.882	2216.11
728.072	2297.68
728.263	2320.74
728.453	2328.29
728.644	2360.65
728.834	2321.32
729.024	2272.11
729.215	2240.91
729.405	2288.77
729.596	2394.17
729.786	2413.15
729.976	2400.56
730.167	2394.36
730.357	2344.57
730.547	2388.74
730.737	2390.68
730.928	2460.23
731.118	2512.74
731.308	2420.13
731.498	2480.38
731.688	2570.28
731.879	2537.15
732.069	2597.21
732.259	2637.9
732.449	2627.05
732.639	2732.26
732.829	2748.53
733.019	2777.98
733.209	2841.34
733.399	2853.74
733.589	2919.61
733.779	2903.72
733.969	2891.9
734.159	2974.44
734.349	3010.48
734.539	3000.98
734.729	3038.38
734.919	3090.69
735.109	3132.54
735.299	3044.38
735.488	3066.86
735.678	3075.77
735.868	3067.44
736.058	3038.96
736.248	3034.89
736.437	2991.88
736.627	3052.91
736.817	3157.34
737.007	3042.64
737.196	3132.92
737.386	3113.94
737.576	3077.9
737.765	3160.44
737.955	3115.29
738.144	3276.3
738.334	3185.62
738.524	3103.48
738.713	3160.82
738.903	3183.88
739.092	3197.83
739.282	3182.14
739.471	3172.45
739.661	3144.55
739.85	3272.04
740.04	3225.92
740.229	3276.88
740.419	3311.17
740.608	3296.25
740.797	3262.93
740.987	3360.19
741.176	3325.7
741.365	3284.82
741.555	3223.4
741.744	3291.6
741.933	3252.08
742.123	3286.37
742.312	3326.48
742.501	3341.2
742.69	3366.97
742.88	3286.57
743.069	3450.28
743.258	3394.1
743.447	3446.21
743.636	3402.23
743.825	3391
744.014	3400.1
744.204	3403.2
744.393	3341.78
744.582	3447.38
744.771	3458.81
744.96	3391.19
745.149	3459.97
745.338	3370.65
745.527	3442.15
745.716	3426.06
745.905	3392.74
746.094	3458.03
746.283	3475.47
746.471	3434.2
746.66	3515.58
746.849	3481.09
747.038	3525.26
747.227	3433.62
747.416	3472.95
747.604	3411.34
747.793	3429.94
747.982	3433.81
748.171	3462.49
748.359	3440.98
748.548	3472.18
748.737	3434.2
748.926	3427.81
749.114	3348.37
749.303	3453
749.491	3416.57
749.68	3391.77
749.869	3449.9
750.057	3388.87
750.246	3330.74
750.434	3340.62
750.623	3386.15
750.811	3319.7
751	3435.95
751.188	3338.88
751.377	3410.76
751.565	3378.02
751.754	3307.1
751.942	3327.06
752.131	3400.1
752.319	3302.07
752.507	3296.06
752.696	3300.9
752.884	3386.54
753.072	3300.9
753.261	3327.06
753.449	3356.12
753.637	3322.6
753.825	3372.2
754.014	3270.29
754.202	3300.71
754.39	3365.81
754.578	3325.7
754.766	3318.73
754.955	3276.69
755.143	3369.49
755.331	3314.47
755.519	3261.38
755.707	3251.11
755.895	3245.1
756.083	3306.72
756.271	3267.58
756.459	3237.35
756.647	3279.98
756.835	3221.08
757.023	3250.92
757.211	3233.67
757.399	3232.9
757.587	3298.77
757.775	3195.51
757.963	3206.16
758.151	3193.37
758.339	3152.69
758.526	3139.9
758.714	3177.68
758.902	3058.14
759.09	2986.26
759.278	2763.45
759.465	2579
759.653	2218.83
759.841	2032.44
760.028	1735.43
760.216	1492.47
760.404	1432.99
760.591	1154.18
760.779	960.05
760.967	848.84
761.154	695.78
761.342	752.93
761.529	782.77
761.717	825.01
761.905	824.62
762.092	895.73
762.28	861.63
762.467	849.42
762.655	759.33
762.842	794.78
763.029	802.73
763.217	827.33
763.404	817.06
763.592	830.82
763.779	806.41
763.966	836.25
764.154	872.48
764.341	936.61
764.528	936.8
764.716	983.3
764.903	1051.11
765.09	1093.93
765.277	1164.26
765.465	1287.68
765.652	1393.46
765.839	1445.77
766.026	1568.42
766.213	1625.96
766.4	1725.55
766.588	1898.56
766.775	1886.16
766.962	2009.19
767.149	2064.99
767.336	2182.79
767.523	2134.74
767.71	2259.12
767.897	2392.23
768.084	2471.86
768.271	2486.97
768.458	2537.15
768.645	2612.52
768.832	2594.89
769.019	2628.41
769.206	2647.01
769.392	2729.74
769.579	2784.57
769.766	2774.69
769.953	2745.43
770.14	2799.29
770.327	2783.6
770.513	2876.21
770.7	2888.22
770.887	2803.55
771.073	2884.73
771.26	2858.97
771.447	2818.67
771.634	2814.6
771.82	2935.88
772.007	2846.18
772.193	2842.5
772.38	2882.8
772.567	2865.75
772.753	2860.71
772.94	2905.85
773.126	2860.13
773.313	2926.97
773.499	2933.95
773.686	2899.85
773.872	2852.38
774.059	2877.95
774.245	2829.32
774.432	2842.5
774.618	2758.22
774.804	2837.65
774.991	2750.47
775.177	2846.76
775.363	2830.68
775.55	2863.81
775.736	2750.27
775.922	2795.42
776.109	2825.45
776.295	2832.04
776.481	2845.99
776.667	2833
776.853	2784.37
777.04	2753.96
777.226	2776.82
777.412	2834.75
777.598	2751.63
777.784	2726.06
777.97	2741.94
778.156	2800.45
778.342	2752.6
778.528	2725.28
778.715	2697.57
778.901	2692.34
779.087	2736.52
779.272	2696.99
779.458	2675.49
779.644	2718.69
779.83	2721.6
780.016	2735.94
780.202	2700.29
780.388	2680.91
780.574	2607.09
780.76	2658.63
780.946	2672
781.131	2690.41
781.317	2681.69
781.503	2604.19
781.689	2640.23
781.874	2741.75
782.06	2626.47
782.246	2660.76
782.432	2616.78
782.617	2635.19
782.803	2703.97
782.989	2572.22
783.174	2630.54
783.36	2548.2
783.545	2605.16
783.731	2610
783.916	2552.85
784.102	2621.24
784.288	2564.86
784.473	2544.9
784.659	2563.7
784.844	2576.48
785.029	2546.06
785.215	2491.04
785.4	2476.9
785.586	2566.21
785.771	2455.97
785.956	2526.69
786.142	2524.56
786.327	2494.53
786.512	2489.3
786.698	2476.9
786.883	2404.05
787.068	2455.78
787.254	2474.77
787.439	2444.93
787.624	2425.55
787.809	2399.98
787.994	2389.52
788.18	2480.77
788.365	2354.84
788.55	2407.54
788.735	2372.27
788.92	2359.29
789.105	2414.32
789.29	2381.19
789.475	2320.16
789.66	2363.55
789.845	2309.89
790.03	2312.21
790.215	2368.4
790.4	2348.64
790.585	2350.57
790.77	2299.23
790.955	2235.1
791.14	2294
791.325	2352.12
791.51	2210.3
791.695	2279.86
791.879	2283.34
792.064	2238.78
792.249	2323.45
792.434	2273.07
792.618	2291.67
792.803	2334.49
792.988	2270.75
793.173	2251.76
793.357	2332.94
793.542	2266.68
793.727	2317.83
793.911	2334.49
794.096	2298.26
794.281	2290.12
794.465	2385.25
794.65	2287.61
794.834	2337.79
795.019	2374.79
795.203	2386.03
795.388	2378.09
795.572	2371.69
795.757	2357.94
795.941	2348.64
796.126	2339.72
796.31	2273.85
796.494	2317.64
796.679	2323.84
796.863	2257.96
797.048	2338.37
797.232	2317.44
797.416	2358.52
797.601	2304.85
797.785	2417.22
797.969	2366.27
798.153	2326.94
798.338	2342.44
798.522	2422.84
798.706	2419.55
798.89	2385.64
799.074	2456.17
799.258	2413.93
799.443	2367.82
799.627	2375.95
799.811	2447.45
799.995	2348.44
800.179	2314.15
800.363	2329.07
800.547	2363.55
800.731	2385.25
800.915	2282.57
801.099	2323.45
801.283	2335.85
801.467	2343.99
801.651	2341.27
801.835	2371.11
802.019	2359.29
802.202	2379.83
802.386	2320.93
802.57	2279.86
802.754	2296.91
802.938	2282.37
803.121	2305.82
803.305	2361.42
803.489	2295.74
803.673	2311.24
803.856	2378.47
804.04	2329.07
804.224	2368.79
804.407	2342.44
804.591	2269.78
804.775	2347.09
804.958	2328.29
805.142	2418.77
805.326	2320.74
805.509	2345.15
805.693	2334.49
805.876	2371.69
806.06	2358.32
806.243	2378.86
806.427	2409.86
806.61	2417.03
806.794	2350.38
806.977	2400.95
807.16	2376.73
807.344	2402.11
807.527	2359.49
807.71	2359.29
807.894	2335.27
808.077	2365.49
808.26	2347.09
808.444	2325.58
808.627	2396.88
808.81	2274.43
808.993	2247.11
809.177	2218.44
809.36	2270.94
809.543	2326.55
809.726	2216.5
809.909	2207.2
810.092	2219.02
810.276	2222.31
810.459	2218.83
810.642	2168.06
810.825	2153.34
811.008	2207.01
811.191	2074.1
811.374	2109.55
811.557	2130.28
811.74	2151.6
811.923	2072.35
812.106	2022.75
812.289	2032.05
812.472	2031.08
812.654	2026.05
812.837	2002.6
813.02	1943.7
813.203	1945.25
813.386	1847.41
813.569	1809.83
813.751	1776.11
813.934	1829.01
814.117	1817.38
814.3	1731.55
814.482	1716.05
814.665	1714.31
814.848	1666.06
815.03	1619.37
815.213	1591.08
815.396	1607.55
815.578	1571.52
815.761	1535.87
815.943	1615.69
816.126	1511.26
816.309	1490.72
816.491	1437.25
816.674	1374.48
816.856	1397.92
817.039	1460.89
817.221	1490.34
817.403	1448.49
817.586	1438.41
817.768	1472.9
817.951	1373.7
818.133	1398.5
818.315	1403.73
818.498	1484.52
818.68	1545.94
818.862	1483.17
819.045	1527.15
819.227	1480.84
819.409	1450.62
819.591	1508.55
819.774	1484.14
819.956	1460.69
820.138	1504.29
820.32	1538.77
820.502	1549.62
820.684	1594.77
820.866	1616.66
821.048	1682.34
821.231	1669.55
821.413	1647.66
821.595	1624.99
821.777	1652.89
821.959	1663.35
822.141	1697.84
822.323	1583.72
822.505	1518.04
822.686	1447.71
822.868	1425.43
823.05	1318.09
823.232	1293.68
823.414	1237.88
823.596	1316.54
823.778	1299.69
823.96	1325.07
824.141	1335.14
824.323	1360.33
824.505	1421.36
824.687	1458.56
824.868	1487.04
825.05	1615.11
825.232	1623.05
825.413	1687.76
825.595	1618.79
825.777	1573.07
825.958	1572.1
826.14	1609.1
826.321	1652.31
826.503	1583.14
826.685	1645.33
826.866	1669.36
827.048	1655.6
827.229	1549.62
827.411	1561.05
827.592	1497.5
827.773	1508.94
827.955	1457.59
828.136	1467.67
828.318	1408.57
828.499	1504.29
828.68	1404.7
828.862	1461.08
829.043	1450.62
829.224	1441.9
829.406	1426.59
829.587	1408.57
829.768	1451.39
829.949	1499.25
830.131	1453.72
830.312	1479.1
830.493	1442.67
830.674	1481.04
830.855	1423.49
831.036	1447.91
831.218	1521.53
831.399	1524.05
831.58	1456.82
831.761	1473.09
831.942	1474.64
832.123	1432.79
832.304	1425.82
832.485	1392.69
832.666	1440.35
832.847	1478.32
833.028	1460.89
833.209	1456.43
833.389	1433.18
833.57	1358.2
833.751	1393.85
833.932	1465.92
834.113	1446.55
834.294	1418.26
834.475	1485.88
834.655	1494.21
834.836	1473.29
835.017	1476.39
835.198	1414
835.378	1477.55
835.559	1542.07
835.74	1469.99
835.92	1468.25
836.101	1454.11
836.281	1521.53
836.462	1514.36
836.643	1514.36
836.823	1546.14
837.004	1508.35
837.184	1575.97
837.365	1530.64
837.545	1564.54
837.726	1498.47
837.906	1541.49
838.087	1526.18
838.267	1500.6
838.448	1443.06
838.628	1514.55
838.808	1499.83
838.989	1574.42
839.169	1452.56
839.349	1512.23
839.53	1561.25
839.71	1526.76
839.89	1497.5
840.07	1582.37
840.251	1461.47
840.431	1539.35
840.611	1508.16
840.791	1486.85
840.971	1531.41
841.151	1510.68
841.332	1456.43
841.512	1547.1
841.692	1438.22
841.872	1507.58
842.052	1497.89
842.232	1511.65
842.412	1405.28
842.592	1509.9
842.772	1484.72
842.952	1510.29
843.132	1470.38
843.312	1450.23
843.492	1454.49
843.672	1486.46
843.851	1427.76
844.031	1474.45
844.211	1469.8
844.391	1443.64
844.571	1466.31
844.751	1482.97
844.93	1482.97
845.11	1451.97
845.29	1453.14
845.47	1469.41
845.649	1449.46
845.829	1487.43
846.009	1425.43
846.188	1481.42
846.368	1473.87
846.547	1449.46
846.727	1507.39
846.907	1401.02
847.086	1451.01
847.266	1472.7
847.445	1475.8
847.625	1450.04
847.804	1439.38
847.984	1445
848.163	1412.26
848.343	1413.81
848.522	1413.42
848.701	1418.84
848.881	1400.05
849.06	1411.87
849.239	1419.23
849.419	1432.41
849.598	1350.06
849.777	1369.05
849.957	1369.05
850.136	1294.26
850.315	1266.17
850.494	1290.58
850.674	1293.68
850.853	1347.16
851.032	1351.42
851.211	1371.76
851.39	1303.76
851.569	1302.4
851.748	1311.89
851.927	1344.64
852.107	1301.24
852.286	1296.39
852.465	1279.54
852.644	1351.42
852.823	1331.08
853.002	1311.51
853.181	1324.68
853.359	1343.48
853.538	1250.86
853.717	1328.75
853.896	1205.53
854.075	1176.66
854.254	1158.64
854.433	1081.92
854.611	1148.95
854.79	1107.3
854.969	1178.21
855.148	1199.33
855.327	1141.4
855.505	1219.09
855.684	1174.14
855.863	1195.45
856.041	1176.66
856.22	1247.57
856.399	1216.18
856.577	1279.54
856.756	1241.18
856.934	1379.51
857.113	1369.63
857.291	1269.66
857.47	1241.56
857.648	1262.49
857.827	1290.97
858.005	1337.28
858.184	1222
858.362	1338.24
858.541	1236.91
858.719	1243.11
858.898	1259
859.076	1223.16
859.254	1298.72
859.433	1216.38
859.611	1225.1
859.789	1172.98
859.967	1266.36
860.146	1289.61
860.324	1201.65
860.502	1203.2
860.68	1186.93
860.859	1214.05
861.037	1234.59
861.215	1221.8
861.393	1242.53
861.571	1235.36
861.749	1165.81
861.927	1227.03
862.105	1212.11
862.283	1224.32
862.461	1186.35
862.639	1164.84
862.817	1174.14
862.995	1200.49
863.173	1177.63
863.351	1175.11
863.529	1193.71
863.707	1231.49
863.885	1199.52
864.063	1160.58
864.241	1160.77
864.418	1244.86
864.596	1140.23
864.774	1123.96
864.952	1162.32
865.129	1146.05
865.307	1152.83
865.485	1092.57
865.663	1183.05
865.84	1054.21
866.018	1103.04
866.196	948.42
866.373	1030.19
866.551	999.57
866.728	933.51
866.906	986.21
867.084	996.86
867.261	1059.83
867.439	1040.84
867.616	1103.04
867.794	1025.92
867.971	1078.04
868.149	1066.8
868.326	1136.36
868.503	1082.3
868.681	1087.15
868.858	1077.07
869.035	1044.91
869.213	1077.27
869.39	1068.94
869.567	1181.89
869.745	1069.9
869.922	1078.24
870.099	1097.03
870.276	1068.16
870.454	1114.27
870.631	1149.34
870.808	1070.29
870.985	1075.14
871.162	1118.54
871.339	1048.01
871.517	1039.49
871.694	1021.86
871.871	1042.2
872.048	1058.28
872.225	1022.82
872.402	1060.8
872.579	1017.21
872.756	1094.51
872.933	1027.28
873.11	1053.63
873.287	1034.84
873.463	1021.08
873.64	1042.2
873.817	1053.82
873.994	1056.15
874.171	993.96
874.348	1010.81
874.524	953.07
874.701	979.23
874.878	947.65
875.055	1019.92
875.231	996.28
875.408	1031.35
875.585	940.87
875.762	982.14
875.938	998.22
876.115	959.47
876.291	963.54
876.468	982.91
876.645	918.2
876.821	958.69
876.998	968.19
877.174	965.09
877.351	961.21
877.527	952.88
877.704	973.22
877.88	971.09
878.057	946.29
878.233	998.41
878.409	946.87
878.586	976.32
878.762	956.95
878.938	930.02
879.115	878.29
879.291	956.17
879.467	912
879.644	915.29
879.82	944.74
879.996	923.24
880.172	885.65
880.349	903.28
880.525	958.31
880.701	871.51
880.877	904.25
881.053	917.81
881.229	908.71
881.405	945.13
881.581	872.86
881.757	906.77
881.933	908.9
882.109	962.37
882.285	942.81
882.461	868.79
882.637	936.8
882.813	855.62
882.989	902.7
883.165	932.15
883.341	881.97
883.517	928.86
883.693	943.19
883.869	917.81
884.044	880.81
884.22	937.19
884.396	942.03
884.572	895.14
884.747	926.14
884.923	931.57
885.099	943.39
885.275	937.38
885.45	857.75
885.626	915.49
885.801	847.48
885.977	899.99
886.153	836.05
886.328	909.87
886.504	861.63
886.679	901.93
886.855	878.09
887.03	906.96
887.206	937.19
887.381	912.97
887.557	918.78
887.732	917.62
887.908	906.96
888.083	938.93
888.258	880.81
888.434	887.59
888.609	879.64
888.784	933.31
888.96	890.88
889.135	874.41
889.31	863.76
889.485	934.09
889.661	868.21
889.836	948.81
890.011	917.04
890.186	857.75
890.361	869.76
890.537	946.87
890.712	906.19
890.887	887.98
891.062	865.5
891.237	946.49
891.412	874.61
891.587	919.56
891.762	939.71
891.937	908.51
892.112	844.19
892.287	887.2
892.462	854.65
892.637	833.15
892.812	775.41
892.987	810.28
893.161	815.71
893.336	805.25
893.511	843.03
893.686	825.78
893.861	813.96
894.035	806.6
894.21	812.41
894.385	774.83
894.56	786.45
894.734	763.59
894.909	756.23
895.084	760.1
895.258	745.57
895.433	761.07
895.608	727.36
895.782	683.57
895.957	714.57
896.131	705.27
896.306	639.2
896.48	670.01
896.655	651.8
896.829	587.47
897.004	596.97
897.178	631.84
897.353	583.21
897.527	634.17
897.701	600.65
897.876	556.67
898.05	648.7
898.224	639.59
898.399	682.22
898.573	617.5
898.747	496.61
898.921	553.96
899.096	477.81
899.27	483.24
899.444	480.91
899.618	512.11
899.792	529.93
899.967	524.89
900.141	589.41
900.315	520.24
900.489	538.84
900.663	537.1
900.837	552.6
901.011	491.76
901.185	597.74
901.359	538.46
901.533	555.31
901.707	520.82
901.881	527.41
902.055	489.05
902.229	511.33
902.403	585.15
902.576	536.52
902.75	539.23
902.924	671.95
903.098	565.39
903.272	620.8
903.446	651.41
903.619	633.59
903.793	654.12
903.967	629.71
904.14	661.29
904.314	671.37
904.488	659.35
904.661	696.75
904.835	676.21
905.009	693.26
905.182	730.85
905.356	682.6
905.529	674.66
905.703	642.11
905.876	636.49
906.05	606.07
906.223	575.27
906.397	535.55
906.57	503.58
906.744	504.36
906.917	526.64
907.09	552.99
907.264	526.44
907.437	515.98
907.61	485.76
907.784	488.47
907.957	490.21
908.13	476.26
908.304	521.6
908.477	470.06
908.65	472
908.823	426.28
908.996	538.84
909.17	458.05
909.343	458.63
909.516	501.64
909.689	454.76
909.862	453.59
910.035	470.45
910.208	417.36
910.381	453.01
910.554	554.73
910.727	440.81
910.9	459.21
911.073	442.36
911.246	533.61
911.419	533.61
911.592	516.37
911.765	456.11
911.938	431.31
912.11	446.43
912.283	456.31
912.456	486.14
912.629	464.06
912.802	453.4
912.974	404
913.147	364.28
913.32	342.38
913.493	361.95
913.665	378.42
913.838	403.41
914.01	390.24
914.183	415.43
914.356	409.61
914.528	410
914.701	472.58
914.873	429.96
915.046	379.78
915.218	350.13
915.391	291.23
915.563	333.47
915.736	365.63
915.908	416.2
916.081	409.61
916.253	389.85
916.425	413.88
916.598	412.71
916.77	396.63
916.942	365.44
917.115	319.72
917.287	392.18
917.459	361.56
917.632	336.38
917.804	292.01
917.976	362.73
918.148	379.97
918.32	366.8
918.493	415.81
918.665	453.4
918.837	404.77
919.009	442.74
919.181	432.67
919.353	442.94
919.525	404.77
919.697	419.69
919.869	417.75
920.041	472.78
920.213	514.82
920.385	453.21
920.557	416.59
920.729	437.71
920.901	431.51
921.073	418.53
921.244	415.23
921.416	438.09
921.588	422.79
921.76	390.43
921.932	515.01
922.103	425.31
922.275	416.01
922.447	416.98
922.619	351.3
922.79	402.64
922.962	374.74
923.134	432.48
923.305	380.75
923.477	359.63
923.648	349.75
923.82	355.36
923.991	327.47
924.163	327.47
924.335	352.85
924.506	349.75
924.677	398.96
924.849	359.05
925.02	355.95
925.192	384.23
925.363	374.55
925.535	369.12
925.706	346.45
925.877	413.88
926.049	327.27
926.22	384.23
926.391	370.28
926.562	401.09
926.734	336.57
926.905	365.44
927.076	317
927.247	343.16
927.419	275.54
927.59	291.82
927.761	293.95
927.932	302.67
928.103	292.98
928.274	243.38
928.445	239.89
928.616	274.57
928.787	278.45
928.958	272.25
929.129	274.57
929.3	229.62
929.471	195.72
929.642	190.29
929.813	138.95
929.984	232.53
930.155	146.12
930.326	202.3
930.496	163.36
930.667	99.23
930.838	152.12
931.009	105.24
931.18	113.37
931.35	131.97
931.521	161.42
931.692	83.15
931.863	63
932.033	113.96
932.204	108.34
932.374	94.19
932.545	82.57
932.716	151.54
932.886	135.46
933.057	49.83
933.227	56.22
933.398	127.91
933.568	50.6
933.739	13.79
933.909	31.61
934.08	91.09
934.25	-0.74
934.421	24.25
934.591	79.47
934.761	29.68
934.932	9.72
935.102	52.15
935.272	18.83
935.443	44.79
935.613	32.78
935.783	84.51
935.953	17.66
936.123	172.85
936.294	26.96
936.464	34.13
936.634	8.17
936.804	-1.13
936.974	-15.66
937.144	80.63
937.314	32
937.484	1.97
937.655	32.58
937.825	85.67
937.995	37.23
938.165	93.61
938.334	28.9
938.504	65.52
938.674	27.16
938.844	34.13
939.014	117.64
939.184	83.34
939.354	131.59
939.524	86.44
939.694	88.96
939.863	61.64
940.033	158.13
940.203	106.98
940.373	92.06
940.542	106.98
940.712	83.73
940.882	90.9
941.051	130.62
941.221	103.49
941.391	106.79
941.56	56.22
941.73	46.73
941.899	187.19
942.069	46.53
942.238	96.32
942.408	64.74
942.577	85.28
942.747	65.91
942.916	32.78
943.086	46.14
943.255	84.51
943.425	84.12
943.594	44.59
943.763	2.94
943.933	36.07
944.102	-7.33
944.271	56.41
944.441	71.91
944.61	42.46
944.779	42.85
944.948	171.89
945.117	24.25
945.287	37.43
945.456	0.81
945.625	6.23
945.794	98.26
945.963	19.99
946.132	99.42
946.301	55.25
946.47	76.76
946.639	12.82
946.808	56.03
946.977	71.53
947.146	91.48
947.315	61.84
947.484	84.51
947.653	34.71
947.822	28.9
947.991	28.13
948.16	114.34
948.329	91.09
948.498	58.74
948.666	66.49
948.835	82.76
949.004	33.55
949.173	-17.79
949.341	55.06
949.51	69.59
949.679	100.39
949.847	89.54
950.016	130.42
950.185	120.93
950.353	15.14
950.522	59.9
950.69	103.88
950.859	60.68
951.028	112.21
951.196	71.33
951.365	39.56
951.533	50.6
951.701	77.14
951.87	82.18
952.038	27.93
952.207	42.08
952.375	108.53
952.543	31.42
952.712	71.14
952.88	50.41
953.048	109.31
953.217	72.3
953.385	43.63
953.553	95.94
953.721	25.03
953.89	51.76
954.058	2.94
954.226	46.73
954.394	60.29
954.562	22.12
954.73	60.29
954.898	40.91
955.067	80.63
955.235	43.24
955.403	95.16
955.571	112.6
955.739	89.93
955.907	29.87
956.075	37.81
956.243	50.99
956.41	64.55
956.578	-3.65
956.746	-1.71
956.914	50.6
957.082	80.24
957.25	92.26
957.418	34.71
957.585	79.27
957.753	92.06
957.921	16.11
958.089	56.8
958.256	73.66
958.424	83.54
958.592	75.4
958.759	39.75
958.927	76.95
959.095	21.54
959.262	85.67
959.43	52.34
959.597	50.79
959.765	37.04
959.932	46.92
960.1	73.27
960.267	49.83
960.435	68.81
960.602	83.92
960.77	41.49
960.937	6.23
961.104	69.2
961.272	1.19
961.439	30.26
961.606	87.41
961.774	101.36
961.941	50.41
962.108	80.44
962.275	66.1
962.443	97.68
962.61	105.24
962.777	139.34
962.944	60.48
963.111	85.28
963.278	84.89
963.446	75.59
963.613	68.81
963.78	73.46
963.947	76.17
964.114	77.92
964.281	159.68
964.448	84.12
964.615	49.63
964.782	88.19
964.949	89.74
965.116	106.4
965.282	129.65
965.449	60.48
965.616	42.46
965.783	107.17
965.95	100.59
966.117	25.8
966.283	52.93
966.45	89.74
966.617	99.04
966.784	138.37
966.95	108.92
967.117	88.96
967.284	60.87
967.45	38.78
967.617	121.32
967.784	117.06
967.95	155.03
968.117	89.93
968.283	116.86
968.45	174.4
968.616	127.13
968.783	121.71
968.949	122.67
969.116	118.99
969.282	93.61
969.449	78.5
969.615	84.89
969.781	38.59
969.948	65.33
970.114	46.34
970.28	133.91
970.447	79.08
970.613	133.33
970.779	85.47
970.945	95.94
971.112	82.37
971.278	91.87
971.444	104.07
971.61	109.11
971.776	93.22
971.942	107.37
972.108	99.81
972.275	95.16
972.441	105.04
972.607	167.82
972.773	77.34
972.939	113.96
973.105	66.49
973.271	75.01
973.437	76.95
973.602	69.59
973.768	115.89
973.934	49.05
974.1	95.36
974.266	23.67
974.432	107.17
974.598	62.03
974.763	100.39
974.929	68.62
975.095	132.75
975.261	57.96
975.426	65.52
975.592	89.93
975.758	141.27
975.923	48.66
976.089	42.46
976.255	106.21
976.42	76.56
976.586	90.12
976.751	107.37
976.917	167.62
977.082	116.28
977.248	56.03
977.413	-10.43
977.579	72.69
977.744	77.53
977.91	37.81
978.075	69.98
978.24	112.21
978.406	60.29
978.571	63.97
978.736	38.39
978.902	114.73
979.067	29.29
979.232	27.54
979.397	90.12
979.563	142.63
979.728	52.73
979.893	68.62
980.058	51.76
980.223	110.27
980.388	77.72
980.554	83.54
980.719	44.59
980.884	85.28
981.049	127.91
981.214	67.84
981.379	72.49
981.544	65.13
981.709	77.34
981.874	45.76
982.039	68.43
982.204	124.42
982.368	74.43
982.533	62.42
982.698	74.04
982.863	121.12
983.028	39.17
983.193	117.44
983.357	74.62
983.522	95.74
983.687	70.17
983.852	59.71
984.016	64.36
984.181	56.41
984.346	61.64
984.51	107.37
984.675	62.42
984.839	88.57
985.004	88.96
985.168	106.01
985.333	90.32
985.498	46.73
985.662	115.51
985.827	95.74
985.991	75.01
986.155	60.09
986.32	104.46
986.484	148.83
986.649	96.71
986.813	9.91
986.977	71.53
987.142	95.94
987.306	27.35
987.47	43.82
987.634	66.1
987.799	82.96
987.963	73.46
988.127	93.22
988.291	148.83
988.455	73.27
988.62	59.32
988.784	117.06
988.948	103.88
989.112	68.81
989.276	98.07
989.44	63.78
989.604	74.24
989.768	68.04
989.932	142.24
990.096	38.01
990.26	47.31
990.424	35.88
990.588	76.76
990.752	133.14
990.915	90.51
991.079	76.76
991.243	37.81
991.407	77.53
991.571	75.98
991.734	100.59
991.898	89.74
992.062	150.38
992.226	58.93
992.389	42.08
992.553	19.21
992.717	31.03
992.88	37.81
993.044	79.86
993.207	56.8
993.371	100.78
993.535	101.56
993.698	67.46
993.862	79.08
994.025	115.89
994.189	64.55
994.352	80.24
994.515	117.25
994.679	94.77
994.842	60.68
995.006	77.53
995.169	47.11
995.332	29.29
995.496	81.41
995.659	18.44
995.822	43.43
995.985	65.71
996.149	98.84
996.312	42.08
996.475	103.69
996.638	27.54
996.801	107.76
996.964	124.81
997.128	61.45
997.291	81.41
997.454	57.96
997.617	13.79
997.78	92.64
997.943	58.35
998.106	106.59
998.269	31.61
998.432	61.26
998.595	75.59
998.758	-10.62
998.92	1.39
999.083	11.46
999.246	60.68
999.409	36.84
999.572	15.53
999.735	34.52
999.897	56.22
1000.06	44.79
1000.223	32.78
1000.386	107.37
1000.548	80.63
1000.711	68.23
1000.874	81.6
1001.036	4.68
1001.199	73.46
1001.361	19.99
1001.524	26.96
1001.687	63.58
1001.849	17.47
1002.012	57.77
1002.174	54.86
1002.337	78.11
1002.499	51.96
1002.661	106.59
1002.824	23.86
1002.986	36.07
1003.149	56.22
1003.311	22.12
1003.473	79.27
1003.636	21.34
1003.798	70.17
1003.96	50.6
1004.123	34.13
1004.285	33.36
1004.447	33.36
1004.609	49.05
1004.771	85.67
1004.933	-2.1
1005.096	37.62
1005.258	-24.77
1005.42	19.02
1005.582	98.84
1005.744	40.33
1005.906	-13.14
1006.068	64.16
1006.23	-7.72
1006.392	-16.82
1006.554	18.44
1006.716	79.27
1006.878	54.28
1007.04	-25.93
1007.202	26.96
1007.363	57.19
1007.525	57.58
1007.687	40.91
1007.849	65.33
1008.011	-22.44
1008.172	10.49
1008.334	23.48
1008.496	66.29
1008.658	4.29
1008.819	21.54
1008.981	-16.24
1009.143	7.98
1009.304	29.68
1009.466	47.89
1009.627	112.02
1009.789	129.26
1009.95	55.83
1010.112	0.61
1010.273	45.76
1010.435	29.09
1010.596	27.93
1010.758	21.54
1010.919	44.59
1011.081	13.21
1011.242	21.54
1011.403	52.15
1011.565	18.24
1011.726	31.03
1011.887	14.56
1012.049	15.34
1012.21	67.65
1012.371	95.16
1012.532	-48.6
1012.693	29.09
1012.855	-5.2
1013.016	38.78
1013.177	82.18
1013.338	9.53
1013.499	84.51
1013.66	63.58
1013.821	37.23
1013.982	40.91
1014.143	62.81
1014.304	15.92
1014.465	31.61
1014.626	46.73
1014.787	12.63
1014.948	113.57
1015.109	-33.1
1015.27	67.84
1015.431	21.93
1015.592	5.46
1015.752	70.94
1015.913	34.33
1016.074	23.09
1016.235	45.37
1016.395	32.78
1016.556	10.49
1016.717	7.2
1016.877	61.45
1017.038	16.11
1017.199	34.33
1017.359	14.37
1017.52	31.81
1017.681	26.58
1017.841	14.56
1018.002	-7.14
1018.162	24.06
1018.323	63.19
1018.483	18.24
1018.644	26.19
1018.804	-13.53
1018.964	7.39
1019.125	23.28
1019.285	38.98
1019.446	13.01
1019.606	-28.25
1019.766	-39.3
1019.926	49.05
1020.087	41.88
1020.247	-24.38
1020.407	42.85
1020.567	63.97
1020.728	3.71
1020.888	-16.63
1021.048	3.52
1021.208	-7.91
1021.368	-13.53
1021.528	55.83
1021.688	59.71
1021.848	52.34
1022.008	36.07
1022.168	-5.01
1022.328	3.71
1022.488	29.68
1022.648	7.39
1022.808	13.59
1022.968	29.48
1023.128	-7.14
1023.288	0.61
1023.448	21.15
1023.608	58.35
1023.767	38.78
1023.927	-19.15
1024.087	-18.76
1024.247	-33.68
1024.406	3.91
1024.566	-6.75
1024.726	10.3
1024.885	31.61
1025.045	61.84
1025.205	-0.74
1025.364	-2.49
1025.524	43.24
1025.683	14.56
1025.843	8.56
1026.003	27.16
1026.162	53.7
1026.321	41.49
1026.481	19.41
1026.64	3.52
1026.8	12.82
1026.959	5.46
1027.119	25.41
1027.278	14.76
1027.437	-8.3
1027.597	9.91
1027.756	18.44
1027.915	33.74
1028.074	30.84
1028.234	2.36
1028.393	12.82
1028.552	-5.2
1028.711	-54.6
1028.87	64.94
1029.03	-12.17
1029.189	11.66
1029.348	-52.67
1029.507	8.94
1029.666	0.61
1029.825	-13.72
1029.984	-28.06
1030.143	19.02
1030.302	16.89
1030.461	-55.96
1030.62	25.61
1030.779	18.05
1030.938	-0.74
1031.097	-27.29
1031.255	34.91
1031.414	60.48
1031.573	54.86
1031.732	-43.75
1031.891	10.3
1032.049	49.44
1032.208	32.39
1032.367	-10.43
1032.525	-8.69
1032.684	-19.54
1032.843	7.01
1033.001	-60.03
1033.16	158.52
1033.319	30.26
1033.477	25.22
1033.636	-1.91
1033.794	-32.71
1033.953	21.54
1034.111	32.39
1034.27	-22.25
1034.428	10.88
1034.587	-25.54
1034.745	19.02
1034.903	24.25
1035.062	28.51
1035.22	-19.54
1035.378	43.43
1035.537	-33.1
1035.695	18.63
1035.853	-6.94
1036.011	37.43
1036.17	20.76
1036.328	-74.56
1036.486	14.76
1036.644	5.46
1036.802	-52.09
1036.96	-23.02
1037.119	21.93
1037.277	-22.83
1037.435	-18.95
1037.593	-8.49
1037.751	-9.46
1037.909	43.04
1038.067	43.04
