Data from pine_FLMT105791__125__17-22-24-075.txt Node

Date: Mon Mar 20 17:22:24 GMT 2023
User: antho
Spectrometer: FLMT10579
Trigger mode: 0
Integration Time (sec): 1.000000E-1
Scans to average: 10
Electric dark correction enabled: true
Nonlinearity correction enabled: false
Boxcar width: 0
XAxis mode: Wavelengths
Number of Pixels in Spectrum: 3648
>>>>>Begin Spectral Data<<<<<
345.248	-165.64
345.464	-165.64
345.681	-165.64
345.898	-148.98
346.114	-161.57
346.331	-35.63
346.548	44.58
346.764	-9.86
346.981	13.58
347.197	-20.33
347.414	5.05
347.631	-47.84
347.847	55.82
348.064	15.13
348.28	40.9
348.497	-56.75
348.713	-4.63
348.93	55.04
349.146	16.29
349.363	8.93
349.579	17.84
349.796	21.72
350.012	5.25
350.229	55.43
350.445	-7.93
350.661	-3.47
350.878	32.57
351.094	37.22
351.311	52.72
351.527	8.54
351.743	-21.49
351.96	57.75
352.176	36.05
352.392	53.1
352.609	36.05
352.825	14.93
353.041	-5.22
353.257	-3.47
353.474	28.5
353.69	37.99
353.906	20.55
354.122	-13.35
354.339	65.7
354.555	2.15
354.771	-10.45
354.987	48.26
355.203	55.82
355.42	8.15
355.636	-8.7
355.852	11.64
356.068	1.76
356.284	-28.08
356.5	51.94
356.716	26.95
356.932	12.22
357.148	20.17
357.364	6.41
357.58	45.35
357.796	81.39
358.012	53.3
358.228	20.36
358.444	-12.38
358.66	77.32
358.876	30.05
359.092	-3.86
359.308	34.12
359.524	29.85
359.74	-7.93
359.956	-15.1
360.172	-0.57
360.388	42.83
360.604	-11.8
360.819	110.45
361.035	13
361.251	43.61
361.467	-12.19
361.683	27.72
361.898	9.9
362.114	39.73
362.33	8.93
362.546	63.76
362.762	16.1
362.977	8.15
363.193	0.6
363.409	49.03
363.624	-15.29
363.84	15.32
364.056	-13.55
364.271	32.95
364.487	27.14
364.703	-7.15
364.918	-25.56
365.134	0.98
365.35	27.53
365.565	111.23
365.781	20.36
365.996	24.62
366.212	100.76
366.427	37.8
366.643	6.41
366.858	-5.22
367.074	3.5
367.289	67.25
367.505	103.28
367.72	-11.41
367.936	0.21
368.151	79.65
368.367	22.49
368.582	28.88
368.798	3.89
369.013	79.84
369.228	32.18
369.444	19.78
369.659	80.03
369.874	63.18
370.09	80.61
370.305	-39.31
370.52	-13.74
370.736	63.18
370.951	33.92
371.166	54.85
371.381	91.66
371.597	59.3
371.812	17.84
372.027	-21.1
372.242	19.2
372.458	71.32
372.673	-5.22
372.888	-12.96
373.103	58.14
373.318	104.06
373.533	40.32
373.749	29.27
373.964	-21.3
374.179	47.1
374.394	-2.31
374.609	47.87
374.824	9.9
375.039	74.61
375.254	12.42
375.469	83.91
375.684	37.41
375.899	87.78
376.114	20.17
376.329	50
376.544	51.94
376.759	36.63
376.974	3.12
377.189	25.01
377.404	-7.93
377.619	70.35
377.834	-18
378.049	-20.33
378.264	-22.07
378.478	41.48
378.693	13.97
378.908	51.94
379.123	-5.41
379.338	66.67
379.553	55.62
379.767	39.54
379.982	63.18
380.197	41.67
380.412	33.15
380.626	42.64
380.841	110.45
381.056	26.37
381.271	87.59
381.485	6.99
381.7	-10.25
381.915	22.88
382.129	23.07
382.344	52.72
382.559	8.73
382.773	71.9
382.988	-22.07
383.202	32.18
383.417	-19.75
383.632	106.77
383.846	16.48
384.061	63.76
384.275	33.34
384.49	45.16
384.704	47.48
384.919	41.28
385.133	32.57
385.348	66.08
385.562	-9.28
385.777	83.33
385.991	24.23
386.206	17.26
386.42	15.9
386.634	58.33
386.849	36.05
387.063	33.73
387.277	6.99
387.492	-1.34
387.706	-9.09
387.92	3.5
388.135	75.19
388.349	43.42
388.563	43.42
388.778	19.78
388.992	65.5
389.206	31.6
389.42	128.08
389.635	41.48
389.849	72.09
390.063	61.43
390.277	27.92
390.491	85.07
390.706	37.8
390.92	54.65
391.134	56.4
391.348	74.22
391.562	11.64
391.776	34.31
391.99	38.77
392.205	68.99
392.419	-10.83
392.633	37.41
392.847	63.57
393.061	35.28
393.275	102.51
393.489	25.78
393.703	57.95
393.917	72.09
394.131	13.19
394.345	70.35
394.559	85.65
394.773	14.93
394.986	60.66
395.2	24.04
395.414	89.72
395.628	-21.1
395.842	28.5
396.056	24.23
396.27	-12.58
396.484	41.67
396.697	47.29
396.911	106.38
397.125	59.3
397.339	79.07
397.553	47.1
397.766	100.18
397.98	75
398.194	63.95
398.408	37.6
398.621	44.19
398.835	71.32
399.049	56.4
399.262	76.16
399.476	93.4
399.69	75.77
399.903	106
400.117	26.17
400.331	80.42
400.544	38.77
400.758	138.16
400.971	71.51
401.185	113.75
401.398	31.79
401.612	140.1
401.826	80.61
402.039	59.5
402.253	29.66
402.466	68.22
402.68	65.89
402.893	68.22
403.106	65.5
403.32	46.9
403.533	79.65
403.747	56.2
403.96	72.48
404.174	98.63
404.387	57.56
404.6	51.75
404.814	110.84
405.027	38.57
405.24	72.87
405.454	60.66
405.667	98.25
405.88	19
406.094	85.65
406.307	98.25
406.52	71.32
406.733	0.02
406.947	26.56
407.16	115.3
407.373	86.81
407.586	41.48
407.799	45.55
408.012	90.11
408.226	69.77
408.439	111.42
408.652	22.3
408.865	64.15
409.078	100.38
409.291	92.24
409.504	37.22
409.717	85.07
409.93	82.55
410.143	74.42
410.357	14.55
410.57	20.36
410.783	44.19
410.996	84.68
411.209	73.83
411.421	121.11
411.634	49.42
411.847	60.08
412.06	57.56
412.273	59.3
412.486	75.77
412.699	149.59
412.912	66.08
413.125	108.32
413.338	91.66
413.55	87.98
413.763	102.31
413.976	92.24
414.189	36.83
414.402	77.9
414.615	118.4
414.827	40.51
415.04	109.87
415.253	79.45
415.466	122.66
415.678	164.9
415.891	73.45
416.104	67.05
416.316	101.35
416.529	60.08
416.742	133.12
416.954	120.91
417.167	85.26
417.38	68.22
417.592	141.45
417.805	82.36
418.017	27.53
418.23	116.26
418.442	55.04
418.655	70.93
418.868	125.37
419.08	123.43
419.293	137.58
419.505	116.26
419.718	111.61
419.93	155.79
420.142	88.56
420.355	108.32
420.567	143.78
420.78	115.1
420.992	85.46
421.205	137.19
421.417	72.87
421.629	70.54
421.842	48.26
422.054	70.54
422.266	142.81
422.479	124.4
422.691	72.67
422.903	113.36
423.115	83.33
423.328	100.57
423.54	136.03
423.752	93.4
423.964	95.53
424.177	95.34
424.389	72.48
424.601	194.34
424.813	108.13
425.025	134.48
425.238	120.72
425.45	112.39
425.662	85.85
425.874	375.3
426.086	148.23
426.298	144.16
426.51	102.31
426.722	131.57
426.934	88.36
427.146	148.81
427.358	72.48
427.57	150.17
427.782	119.17
427.994	127.7
428.206	84.1
428.418	88.95
428.63	154.05
428.842	152.11
429.054	137
429.266	153.27
429.478	109.1
429.69	142.03
429.902	84.68
430.114	179.23
430.325	142.23
430.537	96.31
430.749	113.16
430.961	63.57
431.173	107.74
431.384	124.21
431.596	68.41
431.808	116.85
432.02	118.98
432.231	155.4
432.443	168.58
432.655	111.61
432.867	127.11
433.078	135.83
433.29	200.16
433.502	181.75
433.713	182.72
433.925	154.82
434.136	187.76
434.348	95.15
434.56	90.11
434.771	226.89
434.983	103.86
435.194	128.86
435.406	165.09
435.617	175.74
435.829	234.45
436.04	193.38
436.252	211.2
436.463	220.11
436.675	201.51
436.886	180.2
437.098	194.15
437.309	202.48
437.521	165.67
437.732	200.35
437.943	178.26
438.155	174.58
438.366	119.56
438.578	248.98
438.789	194.93
439	225.73
439.211	196.67
439.423	181.94
439.634	214.3
439.845	217.98
440.057	205.78
440.268	225.15
440.479	179.81
440.69	205.19
440.902	199.19
441.113	183.49
441.324	187.76
441.535	226.51
441.746	262.54
441.957	183.69
442.168	209.26
442.38	231.16
442.591	227.09
442.802	204.03
443.013	182.91
443.224	253.44
443.435	196.86
443.646	190.86
443.857	226.89
444.068	192.99
444.279	186.01
444.49	269.52
444.701	216.63
444.912	320.67
445.123	255.76
445.334	220.11
445.545	244.33
445.756	217.4
445.967	210.23
446.178	226.7
446.388	271.46
446.599	267.77
446.81	278.62
447.021	227.67
447.232	266.03
447.443	275.91
447.653	226.7
447.864	305.56
448.075	253.05
448.286	275.14
448.496	282.11
448.707	280.76
448.918	247.24
449.129	359.42
449.339	223.41
449.55	259.25
449.761	242.2
449.971	322.22
450.182	277.66
450.393	289.28
450.603	256.15
450.814	303.81
451.024	307.69
451.235	295.67
451.446	337.72
451.656	340.43
451.867	267
452.077	292.38
452.288	346.44
452.498	335.39
452.709	286.57
452.919	273.39
453.13	244.53
453.34	319.7
453.55	229.22
453.761	315.44
453.971	303.23
454.182	317.18
454.392	289.09
454.602	360.58
454.813	308.07
455.023	337.91
455.233	265.45
455.444	303.04
455.654	244.91
455.864	300.52
456.075	296.06
456.285	261.19
456.495	285.41
456.705	294.32
456.916	332.49
457.126	351.09
457.336	303.62
457.546	262.35
457.756	260.02
457.967	334.42
458.177	288.51
458.387	327.26
458.597	279.01
458.807	288.89
459.017	314.47
459.227	297.81
459.437	277.85
459.647	340.43
459.857	336.36
460.068	300.13
460.278	362.9
460.488	345.27
460.698	371.43
460.908	341.59
461.117	276.49
461.327	288.31
461.537	314.86
461.747	340.62
461.957	335.39
462.167	435.37
462.377	369.49
462.587	306.91
462.797	361.55
463.007	353.41
463.216	371.43
463.426	396.23
463.636	376.08
463.846	282.11
464.056	330.55
464.265	366.39
464.475	320.47
464.685	342.95
464.895	350.12
465.104	340.82
465.314	380.34
465.524	324.93
465.733	312.72
465.943	384.8
466.153	395.07
466.362	369.3
466.572	367.75
466.782	318.34
466.991	373.56
467.201	423.16
467.41	309.62
467.62	362.32
467.829	373.17
468.039	393.71
468.249	362.71
468.458	366.59
468.668	377.82
468.877	408.24
469.086	414.83
469.296	414.05
469.505	333.84
469.715	449.9
469.924	390.22
470.134	433.43
470.343	423.55
470.552	389.45
470.762	389.25
470.971	355.93
471.18	378.02
471.39	383.83
471.599	365.23
471.808	421.8
472.018	392.55
472.227	448.15
472.436	462.88
472.645	410.57
472.855	408.24
473.064	443.12
473.273	431.49
473.482	474.31
473.691	456.1
473.901	449.9
474.11	434.59
474.319	519.65
474.528	427.04
474.737	499.69
474.946	465.98
475.155	461.33
475.364	502.79
475.573	484
475.783	455.32
475.992	461.33
476.201	506.67
476.41	464.04
476.619	439.82
476.828	451.25
477.037	426.84
477.245	496.78
477.454	492.72
477.663	496.2
477.872	465.98
478.081	531.27
478.29	448.35
478.499	564.21
478.708	491.75
478.917	557.04
479.125	488.84
479.334	483.42
479.543	494.07
479.752	535.92
479.961	511.7
480.169	535.53
480.378	505.7
480.587	648.1
480.796	547.16
481.004	562.27
481.213	558.01
481.422	572.93
481.63	543.09
481.839	561.3
482.048	637.64
482.256	556.65
482.465	563.05
482.674	584.75
482.882	572.73
483.091	630.08
483.299	620.98
483.508	618.84
483.716	596.37
483.925	589.01
484.134	578.55
484.342	606.44
484.551	627.56
484.759	622.14
484.967	596.56
485.176	635.31
485.384	631.05
485.593	644.23
485.801	642.48
486.01	598.7
486.218	589.4
486.426	534.76
486.635	568.28
486.843	543.86
487.051	580.87
487.26	560.33
487.468	619.62
487.676	619.04
487.885	592.5
488.093	604.7
488.301	650.43
488.509	639.77
488.717	645.39
488.926	628.34
489.134	632.41
489.342	668.83
489.55	637.83
489.758	635.7
489.967	614.78
490.175	767.45
490.383	657.98
490.591	764.93
490.799	634.34
491.007	727.15
491.215	711.46
491.423	678.52
491.631	700.41
491.839	705.26
492.047	752.92
492.255	640.93
492.463	653.53
492.671	687.04
492.879	744.2
493.087	700.02
493.295	694.21
493.503	738.77
493.711	748.85
493.919	762.61
494.127	749.43
494.334	778.11
494.542	656.04
494.75	757.96
494.958	719.21
495.166	787.02
495.374	788.18
495.581	757.96
495.789	766.67
495.997	819.76
496.205	785.27
496.412	749.24
496.62	760.86
496.828	761.83
497.035	785.08
497.243	784.89
497.451	760.28
497.658	737.61
497.866	760.28
498.074	813.95
498.281	769.77
498.489	838.17
498.696	797.09
498.904	758.34
499.112	780.62
499.319	852.7
499.527	791.47
499.734	840.69
499.942	767.06
500.149	782.95
500.357	825.38
500.564	771.13
500.771	812.59
500.979	753.89
501.186	757.76
501.394	816.08
501.601	775.01
501.808	815.89
502.016	801.55
502.223	760.28
502.43	804.45
502.638	803.68
502.845	787.6
503.052	895.32
503.26	798.64
503.467	872.27
503.674	807.94
503.881	839.72
504.089	917.6
504.296	865.87
504.503	816.66
504.71	859.67
504.917	813.37
505.125	854.05
505.332	835.84
505.539	881.18
505.746	945.5
505.953	902.3
506.16	881.57
506.367	918.18
506.574	931.94
506.781	968.56
506.988	874.59
507.195	926.9
507.402	867.23
507.609	943.57
507.816	893.38
508.023	881.95
508.23	871.1
508.437	863.16
508.644	913.53
508.851	928.07
509.058	947.83
509.265	955.96
509.472	941.63
509.679	1030.75
509.885	924.97
510.092	950.73
510.299	952.67
510.506	970.69
510.713	942.6
510.92	951.7
511.126	955.96
511.333	1023
511.54	989.29
511.746	1021.26
511.953	1044.31
512.16	1032.88
512.367	993.16
512.573	1007.31
512.78	1041.41
512.987	999.17
513.193	1007.11
513.4	931.36
513.606	967.2
513.813	1010.99
514.02	1022.42
514.226	1058.84
514.433	1004.21
514.639	942.79
514.846	998.59
515.052	1003.82
515.259	1021.65
515.465	1023.39
515.672	1011.57
515.878	1132.66
516.085	1035.6
516.291	1097.79
516.497	1043.73
516.704	1025.71
516.91	992.78
517.117	923.42
517.323	879.05
517.529	925.74
517.736	969.91
517.942	975.92
518.148	963.33
518.354	1007.31
518.561	1008.86
518.767	993.55
518.973	1057.1
519.179	1053.23
519.386	1031.53
519.592	1048.38
519.798	1051.68
520.004	1105.73
520.21	1073.18
520.417	1164.82
520.623	1148.16
520.829	1155.52
521.035	1160.17
521.241	1132.66
521.447	1176.26
521.653	1265.19
521.859	1191.56
522.065	1168.89
522.271	1286.3
522.477	1209.58
522.683	1235.15
522.889	1231.47
523.095	1223.53
523.301	1209.19
523.507	1181.49
523.713	1215.2
523.919	1206.09
524.125	1260.15
524.331	1248.33
524.537	1341.52
524.742	1276.23
524.948	1310.72
525.154	1337.26
525.36	1387.25
525.566	1287.85
525.772	1387.44
525.977	1261.31
526.183	1339.39
526.389	1385.89
526.595	1290.18
526.8	1276.42
527.006	1239.22
527.212	1171.99
527.417	1188.46
527.623	1177.42
527.829	1252.2
528.034	1298.7
528.24	1317.88
528.446	1268.09
528.651	1378.92
528.857	1354.7
529.062	1420.96
529.268	1352.76
529.473	1384.34
529.679	1356.44
529.884	1436.07
530.09	1430.84
530.295	1440.33
530.501	1437.43
530.706	1386.28
530.912	1399.84
531.117	1411.27
531.323	1418.63
531.528	1479.86
531.733	1494
531.939	1438.2
532.144	1482.96
532.35	1467.26
532.555	1491.48
532.76	1465.91
532.966	1489.74
533.171	1494.39
533.376	1410.3
533.581	1394.22
533.787	1414.76
533.992	1460.87
534.197	1472.5
534.402	1473.46
534.607	1471.14
534.813	1539.14
535.018	1450.41
535.223	1471.53
535.428	1476.76
535.633	1549.99
535.838	1556.19
536.043	1541.47
536.249	1591.07
536.454	1527.52
536.659	1571.89
536.864	1521.13
537.069	1559.29
537.274	1528.49
537.479	1494
537.684	1520.93
537.889	1498.84
538.094	1618.97
538.299	1530.23
538.504	1537.98
538.708	1550.96
538.913	1549.61
539.118	1528.29
539.323	1552.51
539.528	1517.06
539.733	1514.15
539.938	1554.84
540.142	1575.76
540.347	1532.94
540.552	1508.73
540.757	1540.11
540.962	1534.69
541.166	1480.24
541.371	1467.85
541.576	1541.28
541.781	1423.48
541.985	1528.49
542.19	1540.5
542.395	1618.19
542.599	1615.48
542.804	1624.59
543.008	1625.75
543.213	1545.73
543.418	1518.03
543.622	1563.36
543.827	1513.38
544.031	1624.97
544.236	1620.52
544.44	1598.24
544.645	1697.63
544.849	1590.68
545.054	1625.36
545.258	1715.65
545.463	1670.5
545.667	1557.36
545.872	1627.88
546.076	1628.07
546.281	1614.71
546.485	1595.72
546.689	1667.99
546.894	1682.9
547.098	1662.75
547.302	1585.84
547.507	1624.78
547.711	1625.36
547.915	1657.14
548.119	1562.59
548.324	1580.61
548.528	1645.12
548.732	1614.32
548.936	1649.39
549.141	1670.12
549.345	1613.35
549.549	1630.01
549.753	1639.89
549.957	1712.16
550.161	1721.65
550.366	1670.12
550.57	1612.38
550.774	1632.34
550.978	1639.7
551.182	1660.62
551.386	1618.39
551.59	1662.95
551.794	1617.22
551.998	1683.1
552.202	1654.62
552.406	1623.42
552.61	1673.6
552.814	1656.94
553.018	1712.55
553.222	1652.29
553.426	1656.94
553.63	1732.89
553.833	1677.09
554.037	1638.92
554.241	1678.45
554.445	1671.86
554.649	1652.29
554.853	1645.12
555.056	1713.52
555.26	1750.33
555.464	1671.28
555.668	1673.22
555.871	1719.91
556.075	1704.41
556.279	1652.87
556.483	1623.42
556.686	1679.03
556.89	1672.64
557.094	1662.37
557.297	1616.84
557.501	1678.84
557.704	1561.81
557.908	1654.81
558.112	1563.56
558.315	1699.76
558.519	1601.14
558.722	1609.67
558.926	1629.43
559.129	1523.64
559.333	1504.08
559.536	1517.06
559.74	1516.48
559.943	1533.33
560.147	1559.1
560.35	1537.98
560.553	1518.22
560.757	1505.82
560.96	1633.89
561.164	1566.27
561.367	1642.02
561.57	1553.09
561.774	1568.59
561.977	1559.49
562.18	1529.84
562.384	1642.8
562.587	1567.04
562.79	1545.54
562.993	1529.84
563.197	1582.35
563.4	1632.92
563.603	1595.91
563.806	1671.67
564.009	1527.71
564.212	1574.02
564.416	1502.72
564.619	1558.13
564.822	1510.47
565.025	1577.31
565.228	1569.76
565.431	1553.48
565.634	1448.66
565.837	1491.09
566.04	1462.42
566.243	1480.05
566.446	1418.83
566.649	1492.06
566.852	1413.98
567.055	1483.73
567.258	1502.33
567.461	1558.91
567.664	1549.22
567.867	1436.85
568.07	1489.54
568.273	1482.18
568.475	1570.53
568.678	1462.03
568.881	1404.49
569.084	1447.31
569.287	1328.15
569.489	1365.55
569.692	1447.11
569.895	1423.48
570.098	1359.15
570.3	1386.67
570.503	1318.08
570.706	1334.74
570.909	1376.01
571.111	1294.25
571.314	1298.9
571.516	1348.5
571.719	1360.51
571.922	1322.73
572.124	1304.9
572.327	1314.59
572.529	1309.94
572.732	1292.12
572.935	1358.77
573.137	1456.03
573.34	1297.74
573.542	1371.55
573.745	1372.91
573.947	1353.53
574.15	1345.4
574.352	1325.83
574.554	1381.43
574.757	1347.92
574.959	1289.02
575.162	1297.15
575.364	1278.75
575.566	1411.66
575.769	1274.87
575.971	1295.6
576.173	1228.18
576.376	1267.9
576.578	1315.56
576.78	1347.72
576.982	1190.98
577.185	1271.19
577.387	1251.04
577.589	1263.05
577.791	1297.74
577.993	1264.6
578.196	1246.59
578.398	1295.6
578.6	1295.8
578.802	1233.8
579.004	1201.44
579.206	1239.22
579.408	1287.08
579.61	1227.21
579.812	1286.89
580.014	1196.6
580.216	1212.49
580.418	1231.09
580.62	1226.44
580.822	1153.39
581.024	1213.65
581.226	1242.32
581.428	1219.07
581.63	1304.71
581.832	1197.76
582.034	1271.97
582.236	1238.06
582.438	1262.67
582.64	1292.7
582.841	1322.15
583.043	1337.65
583.245	1300.25
583.447	1270.42
583.649	1228.95
583.85	1262.09
584.052	1300.84
584.254	1235.54
584.456	1290.37
584.657	1192.92
584.859	1240.58
585.061	1263.83
585.262	1234.57
585.464	1187.49
585.666	1265.77
585.867	1219.46
586.069	1249.49
586.27	1256.08
586.472	1207.84
586.674	1214.62
586.875	1196.21
587.077	1169.86
587.278	1226.24
587.48	1206.29
587.681	1288.44
587.883	1238.84
588.084	1150.1
588.285	1161.34
588.487	1149.32
588.688	1181.68
588.89	1105.73
589.091	1086.94
589.292	1130.14
589.494	1093.14
589.695	1076.48
589.896	1004.21
590.098	1025.91
590.299	1072.41
590.5	1035.6
590.702	1052.26
590.903	1066.98
591.104	1164.24
591.305	1119.49
591.507	1161.53
591.708	1161.92
591.909	1101.47
592.11	1189.04
592.311	1125.3
592.512	1077.83
592.714	1082.09
592.915	1094.11
593.116	1076.09
593.317	1127.63
593.518	1117.74
593.719	1071.24
593.92	1127.24
594.121	1140.99
594.322	1135.18
594.523	1116.78
594.724	1054.39
594.925	1094.88
595.126	1109.61
595.327	1103.41
595.528	1107.67
595.729	1104.76
595.929	1119.68
596.13	1099.53
596.331	1126.08
596.532	1113.09
596.733	1179.55
596.934	1153.39
597.135	1138.28
597.335	1095.46
597.536	1087.71
597.737	1113.29
597.938	1089.84
598.138	1107.48
598.339	1078.22
598.54	1079.38
598.74	1121.23
598.941	1114.64
599.142	1154.36
599.342	1122.78
599.543	1095.46
599.744	1074.93
599.944	1135.96
600.145	1064.08
600.345	1100.31
600.546	1201.83
600.746	1167.73
600.947	1189.04
601.147	1114.84
601.348	1163.27
601.548	1070.08
601.749	1129.37
601.949	1084.61
602.15	1075.7
602.35	1059.04
602.551	1134.79
602.751	1047.03
602.951	1075.89
603.152	1021.45
603.352	1094.88
603.552	1108.25
603.753	1119.68
603.953	1118.33
604.153	1103.02
604.354	1088.29
604.554	1103.41
604.754	1117.16
604.954	1089.07
605.155	1100.89
605.355	1040.25
605.555	1145.06
605.755	1139.25
605.955	1108.06
606.155	1153.59
606.356	1085.19
606.556	1092.75
606.756	1110.19
606.956	1037.34
607.156	1186.33
607.356	1049.74
607.556	1118.71
607.756	1102.44
607.956	1122.2
608.156	1136.15
608.356	1067.56
608.556	1124.53
608.756	1109.61
608.956	1052.06
609.156	1078.41
609.356	1054.19
609.556	1018.35
609.755	1079.58
609.955	1048.96
610.155	1078.99
610.355	1078.22
610.555	1025.13
610.755	1047.41
610.954	985.03
611.154	1070.08
611.354	1079.19
611.554	1025.71
611.753	1053.42
611.953	1008.08
612.153	1074.15
612.352	1080.16
612.552	979.8
612.752	976.7
612.951	1028.23
613.151	1013.31
613.351	1016.61
613.55	986.38
613.75	1005.76
613.949	1016.61
614.149	1017.38
614.348	1010.6
614.548	964.49
614.747	931.94
614.947	995.1
615.146	921.87
615.346	995.1
615.545	997.23
615.745	996.85
615.944	1020.1
616.144	977.47
616.343	995.1
616.542	968.56
616.742	976.7
616.941	957.71
617.14	914.5
617.34	978.25
617.539	996.65
617.738	934.07
617.938	1046.06
618.137	959.45
618.336	964.3
618.535	995.68
618.734	981.54
618.934	991.23
619.133	996.26
619.332	997.62
619.531	961.2
619.73	943.37
619.929	998.2
620.128	1012.54
620.328	1012.93
620.527	941.05
620.726	975.73
620.925	970.5
621.124	958.48
621.323	962.94
621.522	932.33
621.721	917.8
621.92	907.92
622.119	976.11
622.318	902.68
622.517	939.11
622.715	915.47
622.914	880.98
623.113	918.18
623.312	906.37
623.511	949.38
623.71	919.15
623.909	897.45
624.107	1001.69
624.306	873.43
624.505	876.53
624.704	935.43
624.902	940.08
625.101	972.43
625.3	916.05
625.499	849.6
625.697	876.33
625.896	843.98
626.095	925.55
626.293	883.31
626.492	866.65
626.69	907.72
626.889	877.3
627.088	957.51
627.286	869.75
627.485	857.35
627.683	857.15
627.882	890.48
628.08	827.32
628.279	865.1
628.477	905.78
628.676	806.2
628.874	882.92
629.073	822.47
629.271	810.85
629.469	871.1
629.668	837.2
629.866	857.54
630.065	843.79
630.263	856.19
630.461	813.17
630.66	859.29
630.858	897.07
631.056	870.91
631.254	909.47
631.453	853.67
631.651	902.68
631.849	863.74
632.047	833.71
632.245	849.4
632.444	857.15
632.642	878.85
632.84	883.12
633.038	833.9
633.236	850.76
633.434	841.46
633.632	846.5
633.83	814.92
634.028	903.46
634.227	854.05
634.425	929.62
634.623	861.61
634.821	858.32
635.019	857.74
635.216	827.7
635.414	896.48
635.612	857.15
635.81	846.5
636.008	907.72
636.206	859.29
636.404	862.97
636.602	838.17
636.8	861.61
636.997	880.02
637.195	880.21
637.393	848.82
637.591	933.1
637.789	869.55
637.986	852.12
638.184	849.02
638.382	880.98
638.58	872.65
638.777	928.26
638.975	851.15
639.173	903.46
639.37	834.68
639.568	870.72
639.765	887.77
639.963	833.52
640.161	902.1
640.358	885.25
640.556	833.13
640.753	803.68
640.951	808.72
641.148	853.47
641.346	828.67
641.543	858.32
641.741	843.01
641.938	810.46
642.136	836.62
642.333	806
642.531	869.36
642.728	879.24
642.925	860.84
643.123	830.03
643.32	849.21
643.517	783.14
643.715	824.6
643.912	828.09
644.109	843.59
644.306	828.67
644.504	799.61
644.701	828.87
644.898	837.97
645.095	801.55
645.293	823.44
645.49	822.28
645.687	825.38
645.884	836.04
646.081	719.01
646.278	779.07
646.475	776.75
646.672	794.77
646.87	831.77
647.067	802.32
647.264	783.14
647.461	747.49
647.658	679.68
647.855	772.29
648.052	748.07
648.249	665.73
648.446	765.51
648.642	722.31
648.839	709.91
649.036	686.85
649.233	718.24
649.43	683.75
649.627	677.94
649.824	711.84
650.021	733.16
650.217	710.29
650.414	714.94
650.611	699.44
650.808	731.8
651.004	747.11
651.201	744.2
651.398	789.15
651.595	760.86
651.791	702.54
651.988	732.38
652.185	694.21
652.381	738.97
652.578	678.33
652.775	748.66
652.971	728.89
653.168	736.84
653.364	755.82
653.561	711.46
653.757	726.57
653.954	713.59
654.15	725.41
654.347	773.07
654.543	691.69
654.74	691.5
654.936	689.56
655.133	706.03
655.329	719.4
655.525	690.53
655.722	723.27
655.918	647.52
656.115	678.91
656.311	631.63
656.507	602.76
656.704	563.24
656.9	587.46
657.096	599.86
657.292	617.88
657.489	674.06
657.685	649.46
657.881	645
658.077	659.14
658.273	676.78
658.47	689.95
658.666	673.68
658.862	687.43
659.058	673.87
659.254	702.93
659.45	646.55
659.646	698.47
659.842	680.07
660.038	705.26
660.234	630.47
660.43	665.93
660.626	761.44
660.822	700.61
661.018	728.89
661.214	695.76
661.41	633.96
661.606	689.18
661.802	707.97
661.998	666.31
662.194	639.58
662.39	706.42
662.586	688.21
662.781	694.6
662.977	709.52
663.173	712.23
663.369	692.08
663.564	667.28
663.76	700.99
663.956	662.63
664.152	708.55
664.347	612.26
664.543	662.63
664.739	638.99
664.934	609.35
665.13	620.98
665.326	669.61
665.521	671.93
665.717	634.54
665.912	602.96
666.108	577
666.304	621.17
666.499	650.04
666.695	584.55
666.89	621.56
667.086	672.13
667.281	678.33
667.477	679.1
667.672	634.73
667.867	647.71
668.063	645.78
668.258	612.84
668.454	650.62
668.649	682.98
668.844	640.74
669.04	644.03
669.235	620.01
669.43	585.91
669.626	574.48
669.821	592.5
670.016	587.26
670.211	617.49
670.407	579.51
670.602	626.21
670.797	618.07
670.992	662.63
671.187	579.51
671.382	676.78
671.578	625.24
671.773	623.88
671.968	577
672.163	591.14
672.358	641.9
672.553	604.89
672.748	595.6
672.943	661.66
673.138	602.76
673.333	646.16
673.528	584.75
673.723	658.76
673.918	611.87
674.113	556.26
674.308	654.11
674.503	635.31
674.698	632.41
674.892	610.71
675.087	644.81
675.282	616.91
675.477	559.95
675.672	648.68
675.867	585.91
676.061	565.37
676.256	561.5
676.451	582.61
676.646	597.53
676.84	551.61
677.035	539.02
677.23	542.31
677.424	613.03
677.619	621.17
677.814	637.44
678.008	624.27
678.203	544.83
678.397	575.45
678.592	572.93
678.787	642.87
678.981	605.28
679.176	596.95
679.37	570.8
679.565	575.25
679.759	564.79
679.954	605.48
680.148	653.91
680.342	663.6
680.537	608.58
680.731	589.4
680.926	617.49
681.12	633.18
681.314	546
681.509	569.25
681.703	610.71
681.897	620.2
682.092	628.92
682.286	581.45
682.48	674.84
682.674	649.65
682.869	580.1
683.063	583.78
683.257	634.15
683.451	581.06
683.645	600.44
683.839	594.82
684.034	573.31
684.228	642.48
684.422	568.66
684.616	557.43
684.81	599.66
685.004	575.06
685.198	569.83
685.392	603.73
685.586	562.85
685.78	623.88
685.974	629.5
686.168	596.76
686.362	630.66
686.556	533.98
686.75	490.39
686.944	505.7
687.138	525.85
687.331	448.54
687.525	467.14
687.719	441.37
687.913	469.08
688.107	486.71
688.301	474.12
688.494	512.67
688.688	437.11
688.882	468.3
689.076	439.82
689.269	474.31
689.463	547.74
689.657	518.1
689.85	488.26
690.044	485.93
690.238	498.33
690.431	506.08
690.625	503.76
690.818	551.42
691.012	522.75
691.205	579.71
691.399	520.61
691.593	591.91
691.786	622.72
691.98	613.23
692.173	648.49
692.366	578.55
692.56	623.88
692.753	682.78
692.947	575.64
693.14	637.64
693.333	661.28
693.527	624.46
693.72	637.25
693.914	631.83
694.107	618.26
694.3	656.43
694.493	607.41
694.687	714.75
694.88	638.03
695.073	712.81
695.266	692.27
695.46	702.74
695.653	720.37
695.846	715.72
696.039	653.14
696.232	689.18
696.425	763.57
696.618	749.62
696.812	739.36
697.005	798.25
697.198	863.35
697.391	785.47
697.584	801.74
697.777	874.78
697.97	862.39
698.163	832.94
698.356	868.58
698.549	924.58
698.742	881.76
698.935	815.89
699.127	877.69
699.32	860.45
699.513	850.76
699.706	907.72
699.899	861.42
700.092	842.82
700.285	910.05
700.477	837.39
700.67	925.74
700.863	948.41
701.056	999.75
701.248	957.9
701.441	964.1
701.634	918.57
701.826	1048.77
702.019	964.1
702.212	1038.89
702.404	966.81
702.597	945.31
702.79	978.05
702.982	980.18
703.175	1042.18
703.367	1082.48
703.56	1070.47
703.752	1138.67
703.945	1104.76
704.137	1102.83
704.33	1121.81
704.522	1158.04
704.715	1171.61
704.907	1188.66
705.1	1212.68
705.292	1182.07
705.484	1190.98
705.677	1195.82
705.869	1229.15
706.061	1280.69
706.254	1299.09
706.446	1262.47
706.638	1269.45
706.831	1318.66
707.023	1277.78
707.215	1367.87
707.407	1366.13
707.599	1290.37
707.792	1392.48
707.984	1380.85
708.176	1400.42
708.368	1366.32
708.56	1418.63
708.752	1404.3
708.944	1432.58
709.136	1440.72
709.329	1435.1
709.521	1557.16
709.713	1527.71
709.905	1521.32
710.097	1523.26
710.289	1491.48
710.481	1534.88
710.672	1524.23
710.864	1585.06
711.056	1570.53
711.248	1574.02
711.44	1587.39
711.632	1601.53
711.824	1634.86
712.016	1698.79
712.207	1675.74
712.399	1633.5
712.591	1761.18
712.783	1710.8
712.975	1738.12
713.166	1687.75
713.358	1693.17
713.55	1803.03
713.741	1788.3
713.933	1769.32
714.125	1757.3
714.316	1753.43
714.508	1828.99
714.7	1839.65
714.891	1773.58
715.083	1828.21
715.274	1815.62
715.466	1795.28
715.657	1882.27
715.849	1784.23
716.04	1850.88
716.232	1766.22
716.423	1838.68
716.615	1711.97
716.806	1708.67
716.998	1664.3
717.189	1609.47
717.381	1556.19
717.572	1568.98
717.763	1586.81
717.955	1537.21
718.146	1515.12
718.337	1464.94
718.528	1418.05
718.72	1407.2
718.911	1413.6
719.102	1416.89
719.293	1464.55
719.485	1416.5
719.676	1417.28
719.867	1411.66
720.058	1367.29
720.249	1413.98
720.44	1448.08
720.632	1487.22
720.823	1469.78
721.014	1619.36
721.205	1617.61
721.396	1658.1
721.587	1779
721.778	1773.38
721.969	1780.17
722.16	1871.03
722.351	1835.77
722.542	1990.19
722.733	1972.75
722.924	1912.3
723.115	1926.25
723.305	1910.95
723.496	1932.64
723.687	1815.04
723.878	1836.16
724.069	1822.02
724.26	1869.1
724.45	1796.05
724.641	1797.41
724.832	1846.43
725.023	1814.85
725.213	1795.86
725.404	1787.92
725.595	1805.55
725.785	1782.68
725.976	1816.01
726.167	1819.88
726.357	1800.32
726.548	1931.48
726.739	1836.55
726.929	1865.03
727.12	1928.19
727.31	1929.54
727.501	1901.84
727.691	1926.64
727.882	1932.64
728.072	1953.18
728.263	1934.78
728.453	1944.85
728.644	1949.89
728.834	1995.23
729.024	1946.01
729.215	1957.64
729.405	1983.79
729.596	2028.36
729.786	2045.41
729.976	2050.06
730.167	2023.9
730.357	2004.33
730.547	2034.36
730.737	2069.43
730.928	2112.44
731.118	2172.89
731.308	2089.77
731.498	2112.44
731.688	2171.34
731.879	2169.02
732.069	2234.12
732.259	2221.91
732.449	2264.34
732.639	2346.68
732.829	2322.66
733.019	2373.61
733.209	2405
733.399	2472.81
733.589	2526.09
733.779	2477.66
733.969	2420.31
734.159	2553.8
734.349	2595.45
734.539	2617.73
734.729	2570.65
734.919	2641.95
735.109	2668.5
735.299	2631.49
735.488	2646.22
735.678	2648.35
735.868	2604.17
736.058	2629.94
736.248	2587.9
736.437	2591.19
736.627	2551.47
736.817	2714.8
737.007	2664.62
737.196	2720.03
737.386	2634.2
737.576	2644.67
737.765	2668.69
737.955	2669.08
738.144	2753.94
738.334	2735.73
738.524	2688.65
738.713	2713.25
738.903	2699.69
739.092	2761.11
739.282	2725.07
739.471	2759.95
739.661	2723.91
739.85	2777.38
740.04	2791.53
740.229	2864.57
740.419	2848.29
740.608	2857.4
740.797	2829.11
740.987	2855.46
741.176	2893.82
741.365	2788.62
741.555	2804.89
741.744	2891.11
741.933	2809.35
742.123	2835.89
742.312	2849.46
742.501	2906.81
742.69	2931.41
742.88	2885.88
743.069	2961.06
743.258	2897.12
743.447	2962.02
743.636	2982.95
743.825	2873.48
744.014	2904.09
744.204	2925.21
744.393	2883.94
744.582	2985.47
744.771	2987.79
744.96	2931.8
745.149	2975.97
745.338	2934.32
745.527	2991.09
745.716	2919.79
745.905	2963.77
746.094	2959.7
746.283	3007.55
746.471	3013.17
746.66	3038.36
746.849	3043.4
747.038	3030.03
747.227	2949.82
747.416	2963.96
747.604	2916.3
747.793	2977.14
747.982	2994.38
748.171	3024.02
748.359	3004.07
748.548	2961.44
748.737	2953.69
748.926	2935.29
749.114	2916.69
749.303	2994.19
749.491	2941.29
749.68	2924.24
749.869	2981.2
750.057	2920.76
750.246	2959.51
750.434	2925.99
750.623	2972.49
750.811	2967.25
751	2954.27
751.188	2938
751.377	2968.22
751.565	2933.16
751.754	2878.32
751.942	2871.35
752.131	2963.96
752.319	2880.07
752.507	2870.58
752.696	2937.81
752.884	2972.1
753.072	2930.64
753.261	2895.76
753.449	2929.09
753.637	2888.01
753.825	2952.34
754.014	2862.83
754.202	2871.93
754.39	2939.74
754.578	2933.35
754.766	2907
754.955	2856.82
755.143	2926.18
755.331	2884.72
755.519	2876
755.707	2851.2
755.895	2838.61
756.083	2851.01
756.271	2830.28
756.459	2882.97
756.647	2851.39
756.835	2797.34
757.023	2785.71
757.211	2839.38
757.399	2831.05
757.587	2782.03
757.775	2792.88
757.963	2819.62
758.151	2786.68
758.339	2753.55
758.526	2769.05
758.714	2761.88
758.902	2704.34
759.09	2616.18
759.278	2501.29
759.465	2268.41
759.653	1975.46
759.841	1807.68
760.028	1559.88
760.216	1314.78
760.404	1257.24
760.591	1040.83
760.779	879.82
760.967	748.07
761.154	619.43
761.342	677.94
761.529	677.55
761.717	740.13
761.905	694.21
762.092	780.82
762.28	721.72
762.467	737.81
762.655	663.02
762.842	688.01
763.029	713.97
763.217	689.37
763.404	724.24
763.592	744.59
763.779	708.74
763.966	738.77
764.154	760.67
764.341	845.34
764.528	821.12
764.716	880.02
764.903	938.14
765.09	995.68
765.277	1005.18
765.465	1156.88
765.652	1221.98
765.839	1243.1
766.026	1374.27
766.213	1407.78
766.4	1501.94
766.588	1689.1
766.775	1669.92
766.962	1744.32
767.149	1807.68
767.336	1916.37
767.523	1906.49
767.71	2019.83
767.897	2104.69
768.084	2164.56
768.271	2236.25
768.458	2241.67
768.645	2338.93
768.832	2287.2
769.019	2329.25
769.206	2355.98
769.392	2382.14
769.579	2497.81
769.766	2457.31
769.953	2396.86
770.14	2479.4
770.327	2430.38
770.513	2515.05
770.7	2566
770.887	2454.79
771.073	2510.59
771.26	2544.89
771.447	2472.42
771.634	2483.08
771.82	2606.3
772.007	2479.01
772.193	2515.05
772.38	2542.37
772.567	2521.83
772.753	2491.41
772.94	2571.43
773.126	2527.45
773.313	2589.06
773.499	2555.74
773.686	2525.51
773.872	2555.54
774.059	2541.79
774.245	2492.38
774.432	2513.69
774.618	2441.04
774.804	2475.33
774.991	2459.64
775.177	2509.04
775.363	2526.87
775.55	2519.12
775.736	2435.61
775.922	2500.52
776.109	2491.8
776.295	2478.82
776.481	2469.32
776.667	2453.24
776.853	2467.77
777.04	2406.55
777.226	2385.04
777.412	2537.52
777.598	2439.68
777.784	2460.02
777.97	2443.17
778.156	2447.62
778.342	2426.51
778.528	2411.59
778.715	2327.5
778.901	2385.24
779.087	2424.96
779.272	2391.63
779.458	2367.03
779.644	2365.28
779.83	2354.82
780.016	2462.74
780.202	2395.12
780.388	2354.43
780.574	2326.53
780.76	2317.62
780.946	2405.58
781.131	2352.69
781.317	2313.16
781.503	2315.88
781.689	2352.49
781.874	2440.07
782.06	2308.71
782.246	2344.36
782.432	2302.12
782.617	2328.47
782.803	2369.35
782.989	2283.91
783.174	2251.36
783.36	2233.53
783.545	2296.89
783.731	2305.41
783.916	2193.04
784.102	2308.13
784.288	2239.93
784.473	2293.79
784.659	2207.96
784.844	2255.82
785.029	2186.07
785.215	2210.67
785.4	2121.55
785.586	2259.5
785.771	2166.11
785.956	2229.66
786.142	2202.15
786.327	2181.42
786.512	2206.99
786.698	2157.39
786.883	2104.89
787.068	2172.12
787.254	2206.22
787.439	2158.75
787.624	2139.37
787.809	2092.87
787.994	2116.9
788.18	2156.23
788.365	2050.83
788.55	2134.53
788.735	2091.71
788.92	2104.3
789.105	2112.83
789.29	2102.37
789.475	2048.31
789.66	2052.57
789.845	2067.88
790.03	2036.11
790.215	2069.43
790.4	2081.25
790.585	2063.04
790.77	2031.26
790.955	1967.33
791.14	2011.69
791.325	2098.49
791.51	1965.97
791.695	2041.34
791.879	1960.74
792.064	1957.44
792.249	2071.95
792.434	2045.99
792.618	2019.25
792.803	2051.41
792.988	2033.39
793.173	2006.66
793.357	2045.6
793.542	1977.4
793.727	1994.06
793.911	2043.08
794.096	2019.25
794.281	2045.6
794.465	2126.59
794.65	2022.35
794.834	2059.16
795.019	2087.64
795.203	2058.77
795.388	2086.67
795.572	2094.42
795.757	2053.74
795.941	2095.2
796.126	2074.86
796.31	2013.63
796.494	2060.13
796.679	2028.55
796.863	2052.77
797.048	2094.04
797.232	2061.49
797.416	2056.64
797.601	2051.41
797.785	2082.41
797.969	2110.31
798.153	2035.72
798.338	2066.72
798.522	2130.07
798.706	2109.34
798.89	2150.42
799.074	2209.51
799.258	2151.97
799.443	2105.85
799.627	2092.1
799.811	2109.73
799.995	2048.12
800.179	2075.82
800.363	2079.7
800.547	2065.36
800.731	2138.21
800.915	2034.56
801.099	2097.91
801.283	2089.19
801.467	2083.77
801.651	2033.78
801.835	2118.64
802.019	2105.66
802.202	2085.51
802.386	2044.82
802.57	2038.04
802.754	2002.78
802.938	2022.54
803.121	2041.92
803.305	2080.67
803.489	2069.04
803.673	2089.97
803.856	2092.29
804.04	2027.97
804.224	2063.23
804.407	2046.76
804.591	2052.57
804.775	2038.04
804.958	2051.02
805.142	2158.17
805.326	2094.81
805.509	2062.07
805.693	2056.84
805.876	2098.88
806.06	2072.34
806.243	2061.87
806.427	2102.17
806.61	2122.32
806.794	2046.76
806.977	2135.89
807.16	2054.32
807.344	2059.36
807.527	2079.89
807.71	2066.33
807.894	2065.56
808.077	2084.16
808.26	2056.26
808.444	2049.09
808.627	2103.72
808.81	2020.99
808.993	1972.94
809.177	1977.01
809.36	2007.24
809.543	1993.68
809.726	1957.64
809.909	1958.8
810.092	1918.89
810.276	1962.09
810.459	1970.81
810.642	1922.18
810.825	1872.2
811.008	1917.92
811.191	1789.47
811.374	1841.78
811.557	1866.96
811.74	1957.06
811.923	1802.45
812.106	1822.6
812.289	1777.26
812.472	1797.99
812.654	1829.76
812.837	1777.26
813.02	1729.4
813.203	1707.51
813.386	1600.76
813.569	1560.46
813.751	1567.62
813.934	1631.17
814.117	1572.27
814.3	1531.39
814.482	1523.84
814.665	1485.67
814.848	1458.74
815.03	1438.01
815.213	1427.93
815.396	1365.55
815.578	1410.11
815.761	1342.68
815.943	1430.65
816.126	1363.61
816.309	1318.85
816.491	1257.05
816.674	1180.71
816.856	1266.93
817.039	1241.35
817.221	1320.98
817.403	1267.12
817.586	1292.12
817.768	1288.24
817.951	1224.5
818.133	1215.2
818.315	1239.61
818.498	1282.43
818.68	1365.16
818.862	1316.33
819.045	1347.33
819.227	1311.1
819.409	1329.12
819.591	1324.67
819.774	1291.73
819.956	1284.75
820.138	1330.87
820.32	1328.73
820.502	1382.02
820.684	1475.4
820.866	1421.54
821.048	1485.28
821.231	1480.44
821.413	1454.67
821.595	1468.04
821.777	1486.83
821.959	1435.49
822.141	1522.87
822.323	1395
822.505	1337.65
822.686	1308.78
822.868	1282.04
823.05	1147.39
823.232	1164.82
823.414	1098.76
823.596	1198.54
823.778	1120.07
823.96	1186.52
824.141	1209.19
824.323	1174.9
824.505	1216.17
824.687	1294.83
824.868	1326.02
825.05	1414.37
825.232	1435.88
825.413	1500.01
825.595	1438.4
825.777	1359.35
825.958	1420.96
826.14	1415.15
826.321	1425.03
826.503	1409.33
826.685	1457.77
826.866	1450.41
827.048	1439.75
827.229	1374.07
827.411	1378.53
827.592	1319.24
827.773	1350.82
827.955	1282.24
828.136	1315.95
828.318	1259.37
828.499	1302.39
828.68	1236.7
828.862	1287.85
829.043	1318.27
829.224	1278.94
829.406	1274.68
829.587	1257.24
829.768	1267.12
829.949	1263.44
830.131	1230.5
830.312	1367.48
830.493	1294.05
830.674	1319.24
830.855	1288.05
831.036	1296.57
831.218	1325.44
831.399	1379.88
831.58	1297.15
831.761	1299.48
831.942	1310.52
832.123	1300.45
832.304	1271.97
832.485	1246.39
832.666	1279.52
832.847	1302
833.028	1268.48
833.209	1281.65
833.389	1245.62
833.57	1197.37
833.751	1249.69
833.932	1286.3
834.113	1300.25
834.294	1296.38
834.475	1338.62
834.655	1333.19
834.836	1328.15
835.017	1335.32
835.198	1268.09
835.378	1290.18
835.559	1367.48
835.74	1319.24
835.92	1262.28
836.101	1274.87
836.281	1338.62
836.462	1310.91
836.643	1357.22
836.823	1384.53
837.004	1339.78
837.184	1401.58
837.365	1365.16
837.545	1371.75
837.726	1330.28
837.906	1402.94
838.087	1364.77
838.267	1308.97
838.448	1311.1
838.628	1338.62
838.808	1312.65
838.989	1403.52
839.169	1262.28
839.349	1354.12
839.53	1343.65
839.71	1339
839.89	1324.28
840.07	1368.07
840.251	1289.02
840.431	1374.07
840.611	1318.66
840.791	1273.32
840.971	1346.17
841.151	1283.79
841.332	1300.25
841.512	1336.48
841.692	1268.09
841.872	1310.52
842.052	1291.73
842.232	1313.43
842.412	1256.08
842.592	1308.97
842.772	1346.56
842.952	1337.65
843.132	1277.39
843.312	1280.1
843.492	1275.26
843.672	1328.15
843.851	1234.38
844.031	1289.4
844.211	1268.48
844.391	1291.54
844.571	1294.64
844.751	1317.11
844.93	1276.62
845.11	1297.54
845.29	1275.65
845.47	1317.69
845.649	1320.98
845.829	1327.96
846.009	1267.51
846.188	1279.33
846.368	1302
846.547	1287.66
846.727	1305.1
846.907	1236.9
847.086	1278.36
847.266	1309.75
847.445	1270.03
847.625	1261.89
847.804	1223.14
847.984	1256.27
848.163	1256.85
848.343	1231.86
848.522	1275.26
848.701	1272.16
848.881	1214.04
849.06	1255.89
849.239	1245.62
849.419	1257.63
849.598	1200.47
849.777	1189.04
849.957	1170.25
850.136	1131.11
850.315	1146.81
850.494	1161.53
850.674	1148.16
850.853	1207.64
851.032	1174.71
851.211	1223.53
851.39	1185.36
851.569	1117.55
851.748	1128.79
851.927	1167.92
852.107	1177.81
852.286	1110.19
852.465	1118.91
852.644	1222.17
852.823	1178.97
853.002	1150.68
853.181	1149.32
853.359	1160.95
853.538	1145.64
853.717	1203.77
853.896	1070.28
854.075	1067.37
854.254	1026.3
854.433	962.55
854.611	1041.41
854.79	977.86
854.969	994.13
855.148	1062.53
855.327	989.29
855.505	1042.76
855.684	1036.95
855.863	1036.37
856.041	1018.74
856.22	1080.54
856.399	1037.34
856.577	1128.01
856.756	1094.69
856.934	1218.1
857.113	1230.5
857.291	1117.16
857.47	1106.89
857.648	1139.25
857.827	1135.18
858.005	1151.84
858.184	1125.49
858.362	1184.39
858.541	1120.07
858.719	1118.13
858.898	1097.01
859.076	1067.18
859.254	1189.62
859.433	1098.95
859.611	1103.02
859.789	1040.05
859.967	1144.87
860.146	1168.7
860.324	1039.28
860.502	1074.73
860.68	1086.16
860.859	1080.74
861.037	1079.19
861.215	1097.98
861.393	1109.61
861.571	1086.16
861.749	1075.7
861.927	1083.26
862.105	1083.45
862.283	1042.18
862.461	1024.75
862.639	1020.87
862.817	1043.15
862.995	1048.58
863.173	1033.46
863.351	1066.21
863.529	1053.61
863.707	1111.16
863.885	1071.44
864.063	1011.76
864.241	1020.48
864.418	1061.56
864.596	1024.36
864.774	991.81
864.952	1012.15
865.129	1023
865.307	976.89
865.485	942.21
865.663	1059.81
865.84	975.15
866.018	1000.33
866.196	847.08
866.373	876.72
866.551	869.17
866.728	815.3
866.906	866.45
867.084	928.45
867.261	928.07
867.439	948.02
867.616	943.57
867.794	947.83
867.971	958.87
868.149	943.37
868.326	1009.83
868.503	992.39
868.681	956.93
868.858	969.14
869.035	930.78
869.213	983.86
869.39	952.87
869.567	1016.22
869.745	932.72
869.922	992.58
870.099	996.46
870.276	999.17
870.454	961.39
870.631	970.5
870.808	919.54
870.985	999.56
871.162	1044.12
871.339	976.5
871.517	911.6
871.694	916.63
871.871	935.62
872.048	928.84
872.225	920.51
872.402	927.68
872.579	883.31
872.756	984.83
872.933	865.87
873.11	923.8
873.287	948.41
873.463	925.35
873.64	865.87
873.817	938.53
873.994	889.9
874.171	890.48
874.348	904.82
874.524	842.24
874.701	896.29
874.878	843.59
875.055	907.72
875.231	899.97
875.408	898.42
875.585	858.9
875.762	887.77
875.938	867.23
876.115	867.03
876.291	895.52
876.468	863.35
876.645	833.71
876.821	852.5
876.998	860.64
877.174	865.49
877.351	823.83
877.527	834.29
877.704	889.7
877.88	854.05
878.057	853.67
878.233	892.22
878.409	824.41
878.586	890.67
878.762	865.87
878.938	827.9
879.115	789.34
879.291	850.18
879.467	791.47
879.644	794.77
879.82	861.03
879.996	836.04
880.172	777.91
880.349	814.34
880.525	856.57
880.701	788.37
880.877	777.52
881.053	820.92
881.229	808.14
881.405	839.14
881.581	796.7
881.757	782.56
881.933	820.54
882.109	831.58
882.285	831.97
882.461	768.81
882.637	826.74
882.813	789.54
882.989	810.65
883.165	853.67
883.341	784.5
883.517	817.05
883.693	816.27
883.869	837.97
884.044	802.13
884.22	816.85
884.396	858.51
884.572	833.71
884.747	861.61
884.923	842.24
885.099	837.97
885.275	848.44
885.45	787.79
885.626	798.06
885.801	797.29
885.977	793.8
886.153	740.91
886.328	804.07
886.504	771.52
886.679	826.93
886.855	778.3
887.03	811.04
887.206	812.4
887.381	784.69
887.557	807.55
887.732	816.66
887.908	796.7
888.083	853.67
888.258	761.64
888.434	797.09
888.609	778.88
888.784	825.19
888.96	796.51
889.135	779.07
889.31	753.69
889.485	804.65
889.661	800.39
889.836	860.25
890.011	840.88
890.186	802.9
890.361	738.58
890.537	821.31
890.712	758.34
890.887	811.62
891.062	792.05
891.237	864.9
891.412	765.12
891.587	830.61
891.762	826.74
891.937	815.5
892.112	762.02
892.287	811.62
892.462	761.64
892.637	733.35
892.812	734.71
892.987	716.49
893.161	714.56
893.336	762.02
893.511	727.92
893.686	741.87
893.861	701.38
894.035	726.18
894.21	757.37
894.385	679.68
894.56	711.26
894.734	674.64
894.909	647.91
895.084	679.1
895.258	667.86
895.433	667.67
895.608	632.79
895.782	613.23
895.957	615.16
896.131	622.14
896.306	562.46
896.48	528.36
896.655	587.07
896.829	522.36
897.004	544.83
897.178	508.41
897.353	513.06
897.527	607.99
897.701	540.18
897.876	493.3
898.05	582.61
898.224	568.66
898.399	587.46
898.573	532.82
898.747	462.1
898.921	500.08
899.096	431.68
899.27	441.18
899.444	436.72
899.618	457.84
899.792	460.36
899.967	471.21
900.141	497.37
900.315	434.59
900.489	459.58
900.663	461.52
900.837	473.92
901.011	433.43
901.185	548.9
901.359	503.18
901.533	472.57
901.707	467.92
901.881	470.43
902.055	422.77
902.229	469.08
902.403	510.73
902.576	485.35
902.75	504.92
902.924	595.01
903.098	522.94
903.272	558.78
903.446	587.07
903.619	544.06
903.793	580.29
903.967	543.86
904.14	577
904.314	602.38
904.488	582.03
904.661	597.53
904.835	550.65
905.009	637.83
905.182	663.02
905.356	639.96
905.529	559.36
905.703	549.87
905.876	510.73
906.05	550.45
906.223	512.87
906.397	492.52
906.57	464.62
906.744	462.3
906.917	464.43
907.09	476.44
907.264	477.8
907.437	437.88
907.61	429.36
907.784	436.33
907.957	413.67
908.13	401.65
908.304	459.58
908.477	419.09
908.65	432.85
908.823	379.57
908.996	458.62
909.17	407.66
909.343	408.82
909.516	415.99
909.689	398.36
909.862	376.85
910.035	426.26
910.208	383.05
910.381	411.54
910.554	484.77
910.727	392.16
910.9	402.24
911.073	362.9
911.246	459.97
911.419	456.1
911.592	459
911.765	396.04
911.938	384.8
912.11	415.22
912.283	398.17
912.456	463.07
912.629	433.23
912.802	398.17
912.974	351.28
913.147	319.31
913.32	302.84
913.493	310.59
913.665	354.57
913.838	335.97
914.01	347.6
914.183	385.57
914.356	334.23
914.528	396.42
914.701	441.57
914.873	394.87
915.046	369.1
915.218	333.46
915.391	279.59
915.563	299.74
915.736	335.01
915.908	358.25
916.081	378.6
916.253	336.56
916.425	369.3
916.598	369.49
916.77	346.82
916.942	324.16
917.115	264.87
917.287	349.34
917.459	345.85
917.632	316.99
917.804	230.58
917.976	326.87
918.148	328.22
918.32	324.16
918.493	363.87
918.665	415.02
918.837	331.71
919.009	409.02
919.181	396.81
919.353	358.25
919.525	346.24
919.697	374.53
919.869	360.39
920.041	429.17
920.213	446.8
920.385	405.72
920.557	361.16
920.729	410.76
920.901	405.92
921.073	365.04
921.244	388.87
921.416	413.09
921.588	379.76
921.76	328.03
921.932	450.48
922.103	388.29
922.275	373.17
922.447	402.43
922.619	305.75
922.79	384.41
922.962	382.28
923.134	349.92
923.305	309.82
923.477	318.15
923.648	317.37
923.82	326.48
923.991	289.47
924.163	280.76
924.335	287.15
924.506	313.69
924.677	360
924.849	300.52
925.02	350.31
925.192	337.52
925.363	310.59
925.535	343.14
925.706	304.2
925.877	365.23
926.049	306.14
926.22	302.84
926.391	343.14
926.562	370.65
926.734	283.47
926.905	359.03
927.076	289.09
927.247	297.61
927.419	256.34
927.59	243.17
927.761	276.11
927.932	257.7
928.103	268.16
928.274	223.99
928.445	243.36
928.616	225.15
928.787	222.83
928.958	241.23
929.129	231.16
929.3	237.16
929.471	186.98
929.642	157.15
929.813	116.26
929.984	222.83
930.155	126.92
930.326	170.51
930.496	138.55
930.667	92.43
930.838	151.53
931.009	99.6
931.18	120.33
931.35	134.09
931.521	147.26
931.692	74.8
931.863	51.94
932.033	100.76
932.204	109.87
932.374	110.26
932.545	73.06
932.716	132.93
932.886	126.34
933.057	38.96
933.227	58.33
933.398	133.9
933.568	71.12
933.739	29.85
933.909	26.17
934.08	90.88
934.25	4.67
934.421	6.8
934.591	53.3
934.761	47.29
934.932	-12.58
935.102	42.45
935.272	41.67
935.443	46.9
935.613	36.63
935.783	34.31
935.953	4.28
936.123	162.76
936.294	20.17
936.464	43.03
936.634	20.94
936.804	-15.68
936.974	-7.73
937.144	43.03
937.314	33.15
937.484	15.9
937.655	17.65
937.825	82.75
937.995	42.06
938.165	55.62
938.334	16.1
938.504	53.68
938.674	23.46
938.844	36.63
939.014	79.84
939.184	67.05
939.354	121.11
939.524	116.46
939.694	96.7
939.863	82.55
940.033	125.95
940.203	118.4
940.373	111.81
940.542	85.65
940.712	69.18
940.882	93.98
941.051	101.35
941.221	69.57
941.391	109.68
941.56	68.02
941.73	36.83
941.899	164.9
942.069	90.11
942.238	94.37
942.408	73.06
942.577	110.26
942.747	87.2
942.916	21.72
943.086	33.53
943.255	111.23
943.425	101.54
943.594	13.58
943.763	29.47
943.933	24.62
944.102	6.99
944.271	38.18
944.441	82.36
944.61	46.32
944.779	40.32
944.948	127.7
945.117	1.95
945.287	34.31
945.456	-25.17
945.625	44.19
945.794	70.73
945.963	37.99
946.132	68.8
946.301	28.11
946.47	86.43
946.639	1.18
946.808	42.83
946.977	78.1
947.146	114.13
947.315	50
947.484	90.88
947.653	54.27
947.822	37.41
947.991	31.4
948.16	113.75
948.329	117.43
948.498	69.77
948.666	53.68
948.835	80.61
949.004	26.75
949.173	21.33
949.341	54.85
949.51	67.63
949.679	106
949.847	87.59
950.016	134.28
950.185	112.97
950.353	49.23
950.522	50.58
950.69	114.71
950.859	40.32
951.028	97.66
951.196	92.82
951.365	31.79
951.533	51.17
951.701	92.24
951.87	115.1
952.038	19
952.207	58.33
952.375	93.98
952.543	44
952.712	56.01
952.88	27.53
953.048	120.14
953.217	73.64
953.385	43.03
953.553	105.03
953.721	-3.28
953.89	45.93
954.058	20.75
954.226	36.25
954.394	63.95
954.562	2.53
954.73	53.88
954.898	35.67
955.067	80.81
955.235	25.78
955.403	71.32
955.571	128.08
955.739	75.77
955.907	22.49
956.075	28.69
956.243	43.42
956.41	83.91
956.578	5.05
956.746	15.52
956.914	28.69
957.082	82.36
957.25	40.9
957.418	46.52
957.585	71.7
957.753	115.1
957.921	26.95
958.089	55.43
958.256	83.91
958.424	62.4
958.592	76.93
958.759	17.65
958.927	72.87
959.095	52.91
959.262	56.78
959.43	71.12
959.597	48.65
959.765	56.2
959.932	20.17
960.1	93.01
960.267	68.41
960.435	55.62
960.602	76.35
960.77	49.62
960.937	30.63
961.104	50.2
961.272	29.08
961.439	47.68
961.606	91.85
961.774	87.01
961.941	48.07
962.108	81.78
962.275	72.87
962.443	104.06
962.61	78.48
962.777	103.28
962.944	84.3
963.111	109.68
963.278	90.88
963.446	74.03
963.613	68.22
963.78	69.38
963.947	94.18
964.114	85.26
964.281	137.77
964.448	89.14
964.615	52.72
964.782	73.64
964.949	92.82
965.116	87.01
965.282	127.11
965.449	49.62
965.616	52.13
965.783	79.26
965.95	86.81
966.117	22.49
966.283	67.44
966.45	73.64
966.617	83.13
966.784	111.23
966.95	62.6
967.117	92.24
967.284	40.12
967.45	36.83
967.617	129.63
967.784	94.76
967.95	138.74
968.117	83.91
968.283	105.22
968.45	153.85
968.616	97.28
968.783	134.48
968.949	97.08
969.116	102.7
969.282	88.95
969.449	106.96
969.615	87.4
969.781	26.75
969.948	69.77
970.114	35.08
970.28	137.96
970.447	90.11
970.613	121.69
970.779	63.95
970.945	100.38
971.112	74.8
971.278	99.6
971.444	81.2
971.61	130.8
971.776	64.15
971.942	111.03
972.108	106.38
972.275	82.55
972.441	98.83
972.607	143
972.773	62.6
972.939	109.68
973.105	91.08
973.271	53.1
973.437	71.32
973.602	40.12
973.768	74.22
973.934	89.33
974.1	105.41
974.266	-10.45
974.432	71.51
974.598	61.24
974.763	102.12
974.929	73.06
975.095	139.13
975.261	62.02
975.426	51.94
975.592	83.52
975.758	147.46
975.923	19.78
976.089	66.28
976.255	94.56
976.42	97.66
976.586	86.23
976.751	70.73
976.917	166.64
977.082	113.75
977.248	42.25
977.413	26.37
977.579	65.5
977.744	97.66
977.91	38.38
978.075	73.83
978.24	83.13
978.406	85.26
978.571	57.56
978.736	33.15
978.902	97.66
979.067	53.49
979.232	14.35
979.397	87.98
979.563	129.25
979.728	25.98
979.893	77.9
980.058	53.3
980.223	96.5
980.388	54.65
980.554	67.63
980.719	50.97
980.884	73.64
981.049	116.46
981.214	55.82
981.379	83.13
981.544	42.06
981.709	59.69
981.874	43.42
982.039	74.61
982.204	129.25
982.368	78.87
982.533	34.7
982.698	104.25
982.863	123.63
983.028	57.56
983.193	96.89
983.357	79.65
983.522	92.05
983.687	66.86
983.852	38.57
984.016	54.07
984.181	74.61
984.346	75.97
984.51	71.9
984.675	75
984.839	111.61
985.004	77.13
985.168	93.98
985.333	108.71
985.498	58.92
985.662	111.03
985.827	77.13
985.991	84.1
986.155	72.67
986.32	80.23
986.484	121.69
986.649	68.02
986.813	9.12
986.977	67.05
987.142	89.33
987.306	36.05
987.47	33.53
987.634	81.2
987.799	75
987.963	81.78
988.127	97.08
988.291	157.15
988.455	81.2
988.62	56.98
988.784	110.26
988.948	116.65
989.112	62.21
989.276	61.05
989.44	62.02
989.604	47.87
989.768	54.85
989.932	175.36
990.096	24.23
990.26	49.03
990.424	36.83
990.588	67.63
990.752	100.96
990.915	100.38
991.079	53.49
991.243	46.32
991.407	86.43
991.571	75.58
991.734	106.38
991.898	78.1
992.062	143.39
992.226	56.59
992.389	44.38
992.553	6.22
992.717	30.63
992.88	46.71
993.044	50.97
993.207	44
993.371	104.45
993.535	75.19
993.698	48.65
993.862	89.72
994.025	89.91
994.189	85.07
994.352	73.06
994.515	65.7
994.679	101.93
994.842	37.8
995.006	83.52
995.169	44
995.332	37.8
995.496	83.71
995.659	4.86
995.822	81.39
995.985	52.91
996.149	114.91
996.312	50.58
996.475	130.02
996.638	44.19
996.801	115.49
996.964	119.95
997.128	41.87
997.291	49.42
997.454	66.08
997.617	-0.95
997.78	83.52
997.943	39.35
998.106	81.39
998.269	28.3
998.432	66.08
998.595	48.26
998.758	15.52
998.92	21.91
999.083	-1.15
999.246	43.22
999.409	26.37
999.572	13.97
999.735	42.45
999.897	70.54
1000.06	25.78
1000.223	23.65
1000.386	75.58
1000.548	92.05
1000.711	87.4
1000.874	71.7
1001.036	13.38
1001.199	60.85
1001.361	45.55
1001.524	48.26
1001.687	95.73
1001.849	-5.02
1002.012	39.73
1002.174	57.37
1002.337	57.95
1002.499	45.16
1002.661	86.43
1002.824	34.5
1002.986	2.34
1003.149	32.76
1003.311	34.31
1003.473	95.15
1003.636	39.15
1003.798	74.42
1003.96	65.7
1004.123	31.98
1004.285	50.39
1004.447	46.32
1004.609	52.13
1004.771	107.74
1004.933	10.09
1005.096	9.51
1005.258	2.53
1005.42	20.55
1005.582	82.75
1005.744	49.81
1005.906	4.28
1006.068	27.33
1006.23	18.03
1006.392	-17.03
1006.554	26.75
1006.716	63.18
1006.878	70.93
1007.04	-4.63
1007.202	16.68
1007.363	89.14
1007.525	60.27
1007.687	57.37
1007.849	93.6
1008.011	-1.73
1008.172	-2.89
1008.334	4.86
1008.496	53.88
1008.658	-15.29
1008.819	4.28
1008.981	2.53
1009.143	8.35
1009.304	30.43
1009.466	33.53
1009.627	78.48
1009.789	115.68
1009.95	50.58
1010.112	0.79
1010.273	64.34
1010.435	7.18
1010.596	4.47
1010.758	32.76
1010.919	41.28
1011.081	1.18
1011.242	24.62
1011.403	39.54
1011.565	27.72
1011.726	39.54
1011.887	-17.61
1012.049	23.27
1012.21	53.3
1012.371	92.24
1012.532	-17.81
1012.693	56.4
1012.855	24.82
1013.016	42.45
1013.177	60.27
1013.338	48.65
1013.499	101.35
1013.66	64.73
1013.821	59.69
1013.982	17.65
1014.143	38.38
1014.304	23.27
1014.465	39.73
1014.626	43.8
1014.787	21.91
1014.948	110.45
1015.109	-50.75
1015.27	67.83
1015.431	0.79
1015.592	28.69
1015.752	89.91
1015.913	32.18
1016.074	43.22
1016.235	27.33
1016.395	44.77
1016.556	3.12
1016.717	36.63
1016.877	99.21
1017.038	-0.57
1017.199	42.25
1017.359	33.73
1017.52	22.68
1017.681	-0.95
1017.841	41.28
1018.002	-10.64
1018.162	23.85
1018.323	82.55
1018.483	27.14
1018.644	21.52
1018.804	-11.61
1018.964	-9.48
1019.125	18.42
1019.285	28.11
1019.446	-10.64
1019.606	-26.33
1019.766	-29.05
1019.926	28.3
1020.087	29.47
1020.247	-3.28
1020.407	51.17
1020.567	66.28
1020.728	6.6
1020.888	-24.2
1021.048	23.07
1021.208	-4.25
1021.368	-17.03
1021.528	90.88
1021.688	59.5
1021.848	54.27
1022.008	9.7
1022.168	11.45
1022.328	29.27
1022.488	67.83
1022.648	-3.67
1022.808	12.42
1022.968	24.62
1023.128	-5.41
1023.288	-2.31
1023.448	42.25
1023.608	37.8
1023.767	27.14
1023.927	-26.53
1024.087	-7.93
1024.247	-39.12
1024.406	-13.93
1024.566	-12.77
1024.726	-12.58
1024.885	42.64
1025.045	29.27
1025.205	2.73
1025.364	17.65
1025.524	20.17
1025.683	11.06
1025.843	37.22
1026.003	19.2
1026.162	65.7
1026.321	47.29
1026.481	14.74
1026.64	39.54
1026.8	37.02
1026.959	21.72
1027.119	37.99
1027.278	14.93
1027.437	9.7
1027.597	22.68
1027.756	25.4
1027.915	31.4
1028.074	42.64
1028.234	-3.08
1028.393	30.82
1028.552	26.37
1028.711	-46.87
1028.87	32.57
1029.03	-1.53
1029.189	4.28
1029.348	-28.27
1029.507	8.93
1029.666	14.55
1029.825	-20.71
1029.984	-2.31
1030.143	22.49
1030.302	1.95
1030.461	-40.48
1030.62	25.01
1030.779	44.77
1030.938	-2.5
1031.097	-5.41
1031.255	51.36
1031.414	87.01
1031.573	39.54
1031.732	-49.2
1031.891	7.77
1032.049	67.63
1032.208	40.12
1032.367	2.73
1032.525	7.18
1032.684	-9.48
1032.843	29.66
1033.001	-53.65
1033.16	143
1033.319	56.59
1033.477	13
1033.636	11.64
1033.794	-34.08
1033.953	39.15
1034.111	44.58
1034.27	-16.26
1034.428	25.78
1034.587	-1.92
1034.745	30.05
1034.903	8.73
1035.062	34.31
1035.22	-13.55
1035.378	39.15
1035.537	-18.2
1035.695	36.44
1035.853	30.82
1036.011	49.03
1036.17	33.92
1036.328	-58.88
1036.486	2.53
1036.644	1.18
1036.802	-84.46
1036.96	-6.38
1037.119	-12.96
1037.277	-0.95
1037.435	-43.77
1037.593	-0.57
1037.751	-12.96
1037.909	35.67
1038.067	35.67
