Data from pine_FLMT105791__93__17-21-33-077.txt Node

Date: Mon Mar 20 17:21:33 GMT 2023
User: antho
Spectrometer: FLMT10579
Trigger mode: 0
Integration Time (sec): 1.000000E-1
Scans to average: 10
Electric dark correction enabled: true
Nonlinearity correction enabled: false
Boxcar width: 0
XAxis mode: Wavelengths
Number of Pixels in Spectrum: 3648
>>>>>Begin Spectral Data<<<<<
345.248	-177.7
345.464	-177.7
345.681	-177.7
345.898	-162
346.114	-145.92
346.331	-56.61
346.548	25.35
346.764	-15.53
346.981	-1.19
347.197	-13.21
347.414	9.66
347.631	-27.35
347.847	70.88
348.064	2.49
348.28	29.22
348.497	-40.53
348.713	16.82
348.93	15.47
349.146	21.28
349.363	-29.29
349.579	35.42
349.796	-8.94
350.012	8.49
350.229	33.1
350.445	-10.3
350.661	-23.67
350.878	-9.53
351.094	20.12
351.311	7.72
351.527	14.31
351.743	8.3
351.96	43.75
352.176	26.51
352.392	25.15
352.609	16.82
352.825	-12.43
353.041	0.55
353.257	1.91
353.474	5.59
353.69	1.13
353.906	6.17
354.122	-33.16
354.339	43.75
354.555	-13.79
354.771	-3.13
354.987	63.71
355.203	48.79
355.42	-2.94
355.636	-5.65
355.852	-12.04
356.068	8.69
356.284	-53.89
356.5	45.69
356.716	18.37
356.932	11.98
357.148	15.47
357.364	23.22
357.58	60.03
357.796	56.54
358.012	26.7
358.228	6.56
358.444	-66.68
358.66	59.06
358.876	16.05
359.092	-8.36
359.308	11.21
359.524	29.42
359.74	-7.39
359.956	-31.03
360.172	26.7
360.388	16.44
360.604	7.14
360.819	75.72
361.035	9.66
361.251	28.06
361.467	-17.66
361.683	28.06
361.898	-6.04
362.114	48.4
362.33	4.04
362.546	34.65
362.762	17.99
362.977	-11.46
363.193	-37.04
363.409	36
363.624	-16.31
363.84	-6.23
364.056	-27.16
364.271	10.04
364.487	37.94
364.703	-15.34
364.918	-22.7
365.134	-39.17
365.35	-20.18
365.565	90.64
365.781	9.66
365.996	25.35
366.212	75.34
366.427	31.35
366.643	-2.16
366.858	9.66
367.074	-30.06
367.289	43.95
367.505	99.94
367.72	-28.13
367.936	-2.16
368.151	43.37
368.367	44.53
368.582	-4.29
368.798	-3.71
369.013	79.21
369.228	5.2
369.444	2.68
369.659	45.69
369.874	14.89
370.09	40.65
370.305	-59.71
370.52	-18.05
370.736	70.49
370.951	2.29
371.166	42.01
371.381	57.12
371.597	28.64
371.812	-25.61
372.027	-25.41
372.242	14.89
372.458	95.1
372.673	1.71
372.888	-2.94
373.103	26.7
373.318	92.58
373.533	28.25
373.749	37.94
373.964	-54.28
374.179	65.07
374.394	-8.17
374.609	43.95
374.824	-25.41
375.039	53.25
375.254	-15.73
375.469	82.7
375.684	23.8
375.899	25.74
376.114	-0.03
376.329	21.86
376.544	56.15
376.759	33.49
376.974	16.24
377.189	5.01
377.404	16.05
377.619	42.4
377.834	-34.13
378.049	-24.44
378.264	-22.89
378.478	36.97
378.693	-33.16
378.908	33.1
379.123	-7.2
379.338	68.17
379.553	16.63
379.767	4.23
379.982	43.56
380.197	39.3
380.412	-1.39
380.626	24.57
380.841	92.58
381.056	15.66
381.271	71.27
381.485	-19.02
381.7	-17.08
381.915	24.19
382.129	9.85
382.344	19.73
382.559	-5.26
382.773	45.3
382.988	-32.19
383.202	-6.23
383.417	-9.33
383.632	69.33
383.846	16.05
384.061	3.46
384.275	6.56
384.49	43.37
384.704	42.98
384.919	4.23
385.133	23.6
385.348	38.14
385.562	-10.11
385.777	55.57
385.991	3.07
386.206	-1.39
386.42	11.98
386.634	52.28
386.849	24.38
387.063	27.29
387.277	-17.66
387.492	-25.99
387.706	-19.99
387.92	-26.77
388.135	51.31
388.349	30.39
388.563	35.23
388.778	35.81
388.992	43.56
389.206	27.09
389.42	88.9
389.635	24.57
389.849	45.11
390.063	48.4
390.277	35.81
390.491	85.22
390.706	50.73
390.92	42.2
391.134	18.18
391.348	59.06
391.562	-20.18
391.776	22.05
391.99	-25.99
392.205	52.47
392.419	-13.4
392.633	7.72
392.847	86.38
393.061	11.4
393.275	86.19
393.489	-3.71
393.703	45.11
393.917	75.34
394.131	9.85
394.345	54.8
394.559	58.48
394.773	-2.74
394.986	15.66
395.2	25.15
395.414	31.16
395.628	11.21
395.842	12.17
396.056	-1.58
396.27	-28.13
396.484	55.96
396.697	25.54
396.911	63.9
397.125	3.84
397.339	52.09
397.553	38.33
397.766	82.7
397.98	65.45
398.194	54.6
398.408	4.42
398.621	34.26
398.835	33.87
399.049	9.07
399.262	64.68
399.476	88.32
399.69	43.17
399.903	115.63
400.117	28.64
400.331	56.15
400.544	-1.97
400.758	140.24
400.971	54.99
401.185	80.37
401.398	21.86
401.612	78.24
401.826	62.74
402.039	47.24
402.253	6.36
402.466	51.12
402.68	49.57
402.893	44.72
403.106	67.59
403.32	31.74
403.533	69.72
403.747	65.65
403.96	65.07
404.174	42.59
404.387	6.36
404.6	50.73
404.814	82.31
405.027	28.64
405.24	38.72
405.454	46.27
405.667	66.42
405.88	-22.51
406.094	68.55
406.307	75.72
406.52	69.33
406.733	2.68
406.947	-13.98
407.16	75.34
407.373	79.6
407.586	11.79
407.799	6.56
408.012	98.2
408.226	51.12
408.439	104.01
408.652	-22.31
408.865	62.55
409.078	81.92
409.291	51.31
409.504	21.67
409.717	40.27
409.93	64.1
410.143	55.19
410.357	-11.27
410.57	7.91
410.783	30.19
410.996	52.09
411.209	18.76
411.421	85.02
411.634	39.49
411.847	15.47
412.06	59.64
412.273	36.39
412.486	58.09
412.699	154.77
412.912	40.27
413.125	82.5
413.338	51.31
413.55	71.65
413.763	38.52
413.976	91.61
414.189	54.99
414.402	73.59
414.615	82.31
414.827	19.34
415.04	95.1
415.253	69.91
415.466	106.92
415.678	92.19
415.891	59.45
416.104	36.39
416.316	59.64
416.529	29.03
416.742	90.25
416.954	76.11
417.167	57.12
417.38	56.15
417.592	90.84
417.805	30.39
418.017	0.16
418.23	93.16
418.442	50.34
418.655	24.19
418.868	62.55
419.08	111.95
419.293	85.8
419.505	65.26
419.718	71.27
419.93	86.57
420.142	73.79
420.355	109.63
420.567	112.15
420.78	82.31
420.992	67.59
421.205	123.19
421.417	27.67
421.629	66.23
421.842	26.32
422.054	29.22
422.266	85.8
422.479	126.48
422.691	66.23
422.903	95.87
423.115	54.6
423.328	62.94
423.54	99.36
423.752	68.36
423.964	48.6
424.177	90.06
424.389	54.8
424.601	182.28
424.813	87.35
425.025	117.96
425.238	100.52
425.45	69.14
425.662	67.39
425.874	397.92
426.086	77.27
426.298	112.34
426.51	95.1
426.722	91.22
426.934	86.77
427.146	104.2
427.358	51.12
427.57	104.78
427.782	87.15
427.994	96.07
428.206	58.29
428.418	43.75
428.63	86.19
428.842	129.97
429.054	95.1
429.266	124.55
429.478	52.86
429.69	82.31
429.902	65.26
430.114	117.18
430.325	117.77
430.537	84.83
430.749	71.85
430.961	35.04
431.173	104.2
431.384	129.2
431.596	21.09
431.808	74.37
432.02	78.63
432.231	131.72
432.443	169.5
432.655	109.05
432.867	100.91
433.078	125.32
433.29	175.5
433.502	138.88
433.713	160.78
433.925	119.12
434.136	168.33
434.348	98.2
434.56	70.69
434.771	193.52
434.983	80.95
435.194	99.17
435.406	124.16
435.617	162.72
435.829	207.08
436.04	139.66
436.252	185.38
436.463	186.93
436.675	161.55
436.886	151.48
437.098	147.99
437.309	207.66
437.521	153.8
437.732	157.87
437.943	152.25
438.155	177.25
438.366	83.67
438.578	181.32
438.789	180.35
439	209.99
439.211	152.45
439.423	184.22
439.634	187.52
439.845	209.99
440.057	171.05
440.268	187.32
440.479	141.4
440.69	156.71
440.902	176.67
441.113	181.51
441.324	194.88
441.535	181.7
441.746	237.5
441.957	172.98
442.168	160.58
442.38	228.98
442.591	190.81
442.802	165.43
443.013	156.52
443.224	219.48
443.435	169.5
443.646	188.87
443.857	215.03
444.068	147.8
444.279	162.13
444.49	255.71
444.701	188.87
444.912	312.29
445.123	264.43
445.334	214.83
445.545	187.9
445.756	207.28
445.967	179.38
446.178	233.05
446.388	233.24
446.599	251.84
446.81	242.54
447.021	196.62
447.232	263.27
447.443	252.23
447.653	208.63
447.864	269.86
448.075	243.7
448.286	262.69
448.496	236.34
448.707	292.33
448.918	199.72
449.129	319.07
449.339	222.58
449.55	264.24
449.761	233.63
449.971	282.26
450.182	220.65
450.393	272.38
450.603	226.26
450.814	313.84
451.024	284.58
451.235	306.28
451.446	339.41
451.656	311.13
451.867	213.86
452.077	254.75
452.288	309.38
452.498	310.54
452.709	260.17
452.919	302.21
453.13	240.21
453.34	321.59
453.55	229.75
453.761	286.33
453.971	286.91
454.182	300.66
454.392	271.21
454.602	338.83
454.813	298.34
455.023	292.72
455.233	249.51
455.444	293.3
455.654	235.18
455.864	284.39
456.075	252.03
456.285	236.34
456.495	277.8
456.705	290.98
456.916	308.8
457.126	364.21
457.336	281.48
457.546	259.98
457.756	275.09
457.967	337.48
458.177	271.02
458.387	292.72
458.597	284.39
458.807	274.51
459.017	300.47
459.227	283.81
459.437	307.83
459.647	343.68
459.857	341.35
460.068	288.84
460.278	348.33
460.488	299.31
460.698	385.52
460.908	326.04
461.117	283.42
461.327	285.16
461.537	318.29
461.747	308.22
461.957	314.23
462.167	413.62
462.377	369.06
462.587	337.48
462.797	369.64
463.007	314.23
463.216	350.46
463.426	379.13
463.636	383.39
463.846	306.48
464.056	315.58
464.265	364.21
464.475	302.6
464.685	342.32
464.895	350.84
465.104	308.8
465.314	349.1
465.524	354.53
465.733	307.83
465.943	406.64
466.153	417.88
466.362	380.29
466.572	395.79
466.782	347.74
466.991	370.99
467.201	390.76
467.41	308.41
467.62	376.61
467.829	365.76
468.039	383.97
468.249	344.06
468.458	356.08
468.668	379.13
468.877	404.9
469.086	415.17
469.296	409.36
469.505	367.7
469.715	434.54
469.924	407.22
470.134	447.14
470.343	429.7
470.552	392.5
470.762	390.95
470.971	354.33
471.18	393.47
471.39	377.97
471.599	373.71
471.808	422.53
472.018	386.69
472.227	443.26
472.436	436.67
472.645	438.03
472.855	381.46
473.064	477.17
473.273	422.34
473.482	453.53
473.691	467.67
473.901	468.25
474.11	405.09
474.319	514.75
474.528	443.65
474.737	498.87
474.946	497.12
475.155	473.68
475.364	526.38
475.573	479.69
475.783	495.19
475.992	503.71
476.201	535.29
476.41	470.97
476.619	426.99
476.828	480.46
477.037	446.75
477.245	465.74
477.454	514.56
477.663	483.17
477.872	502.16
478.081	593.8
478.29	506.81
478.499	571.91
478.708	526.77
478.917	564.16
479.125	509.91
479.334	533.74
479.543	533.55
479.752	546.33
479.961	542.27
480.169	581.79
480.378	511.07
480.587	664.13
480.796	597.1
481.004	563
481.213	584.89
481.422	577.33
481.63	563.77
481.839	616.67
482.048	644.56
482.256	597.68
482.465	565.9
482.674	601.75
482.882	627.13
483.091	677.5
483.299	591.87
483.508	646.5
483.716	607.37
483.925	624.42
484.134	610.85
484.342	618.6
484.551	658.51
484.759	642.05
484.967	667.04
485.176	660.26
485.384	662.58
485.593	660.06
485.801	654.83
486.01	617.05
486.218	596.9
486.426	561.64
486.635	580.82
486.843	573.85
487.051	573.27
487.26	592.45
487.468	616.67
487.676	645.34
487.885	618.02
488.093	669.75
488.301	680.99
488.509	707.73
488.717	720.9
488.926	678.28
489.134	648.44
489.342	700.56
489.55	634.49
489.758	704.82
489.967	666.65
490.175	821.65
490.383	701.91
490.591	795.88
490.799	677.5
491.007	773.79
491.215	739.69
491.423	738.92
491.631	720.51
491.839	738.73
492.047	753.26
492.255	683.31
492.463	693.39
492.671	703.85
492.879	779.41
493.087	734.66
493.295	778.64
493.503	787.55
493.711	791.04
493.919	807.89
494.127	839.09
494.334	821.84
494.542	752.09
494.75	818.55
494.958	780.77
495.166	833.86
495.374	784.06
495.581	824.56
495.789	815.45
495.997	878.42
496.205	785.42
496.412	777.28
496.62	818.55
496.828	795.3
497.035	814.29
497.243	860.21
497.451	802.27
497.658	865.24
497.866	826.69
498.074	865.82
498.281	804.79
498.489	885.78
498.696	845.67
498.904	820.68
499.112	803.82
499.319	916.59
499.527	830.56
499.734	915.42
499.942	788.71
500.149	830.56
500.357	863.69
500.564	823.01
500.771	867.37
500.979	818.74
501.186	816.42
501.394	843.93
501.601	841.61
501.808	876.48
502.016	839.47
502.223	836.18
502.43	844.32
502.638	832.11
502.845	823.2
503.052	884.62
503.26	858.46
503.467	901.09
503.674	910.58
503.881	903.8
504.089	972.58
504.296	918.91
504.503	873.19
504.71	864.27
504.917	857.88
505.125	883.46
505.332	903.8
505.539	906.12
505.746	977.03
505.953	942.35
506.16	953.4
506.367	1009.58
506.574	989.63
506.781	1028.57
506.988	934.02
507.195	932.47
507.402	958.24
507.609	1005.32
507.816	974.71
508.023	944.49
508.23	930.54
508.437	912.32
508.644	954.75
508.851	1006.29
509.058	996.02
509.265	957.08
509.472	1015.98
509.679	1093.86
509.885	984.4
510.092	987.3
510.299	1001.25
510.506	1004.74
510.713	998.35
510.92	1020.82
511.126	999.12
511.333	1060.73
511.54	1056.86
511.746	1115.56
511.953	1089.21
512.16	1111.88
512.367	1031.67
512.573	1021.02
512.78	1023.15
512.987	1062.67
513.193	1028.38
513.4	968.7
513.606	1017.33
513.813	1067.71
514.02	1070.42
514.226	1143.08
514.433	1075.65
514.639	982.07
514.846	1042.91
515.052	1047.75
515.259	1084.95
515.465	1088.44
515.672	1076.81
515.878	1186.67
516.085	1081.66
516.291	1145.01
516.497	1051.63
516.704	1059.18
516.91	1027.99
517.117	1003.77
517.323	936.74
517.529	1019.66
517.736	1014.23
517.942	1000.09
518.148	1034.77
518.354	1058.22
518.561	1045.82
518.767	1079.91
518.973	1095.41
519.179	1118.08
519.386	1051.63
519.592	1073.52
519.798	1090.38
520.004	1196.55
520.21	1140.56
520.417	1212.44
520.623	1189.58
520.829	1213.02
521.035	1203.91
521.241	1210.31
521.447	1242.86
521.653	1334.89
521.859	1215.73
522.065	1238.01
522.271	1361.04
522.477	1283.74
522.683	1344.38
522.889	1272.5
523.095	1219.99
523.301	1264.75
523.507	1231.23
523.713	1285.29
523.919	1218.83
524.125	1311.64
524.331	1262.81
524.537	1388.94
524.742	1330.43
524.948	1370.73
525.154	1356.39
525.36	1456.75
525.566	1352.9
525.772	1415.87
525.977	1303.31
526.183	1361.04
526.389	1420.33
526.595	1320.55
526.8	1322.49
527.006	1233.36
527.212	1270.17
527.417	1215.93
527.623	1230.26
527.829	1327.91
528.034	1331.4
528.24	1299.62
528.446	1325.59
528.651	1403.47
528.857	1420.72
529.062	1463.73
529.268	1416.26
529.473	1446.1
529.679	1442.42
529.884	1524.95
530.09	1476.13
530.295	1472.45
530.501	1508.29
530.706	1427.3
530.912	1441.06
531.117	1444.93
531.323	1481.75
531.528	1497.25
531.733	1524.56
531.939	1488.14
532.144	1500.15
532.35	1483.49
532.555	1539.68
532.76	1491.63
532.966	1492.79
533.171	1496.28
533.376	1420.13
533.581	1390.3
533.787	1459.85
533.992	1520.5
534.197	1511.39
534.402	1488.72
534.607	1488.72
534.813	1605.74
535.018	1522.24
535.223	1467.99
535.428	1525.34
535.633	1577.46
535.838	1584.43
536.043	1573.39
536.249	1639.46
536.454	1538.71
536.659	1589.47
536.864	1564.48
537.069	1553.63
537.274	1573.78
537.479	1559.83
537.684	1561.38
537.889	1536.77
538.094	1613.11
538.299	1577.65
538.504	1624.15
538.708	1598.77
538.913	1631.71
539.118	1560.99
539.323	1597.61
539.528	1534.83
539.733	1567
539.938	1608.07
540.142	1556.15
540.347	1573.97
540.552	1543.55
540.757	1558.66
540.962	1553.24
541.166	1477.1
541.371	1499.18
541.576	1540.65
541.781	1474.77
541.985	1585.79
542.19	1566.41
542.395	1662.71
542.599	1654.18
542.804	1640.43
543.008	1636.74
543.213	1604.39
543.418	1533.67
543.622	1569.9
543.827	1559.05
544.031	1633.06
544.236	1635.97
544.44	1596.64
544.645	1695.45
544.849	1621.05
545.054	1638.68
545.258	1717.73
545.463	1716.57
545.667	1646.82
545.872	1682.86
546.076	1632.09
546.281	1610.2
546.485	1605.36
546.689	1642.56
546.894	1668.71
547.098	1660.38
547.302	1600.9
547.507	1669.1
547.711	1638.68
547.915	1712.31
548.119	1625.12
548.324	1633.45
548.528	1709.98
548.732	1631.32
548.936	1720.25
549.141	1723.35
549.345	1634.03
549.549	1704.94
549.753	1651.47
549.957	1765.78
550.161	1767.14
550.366	1690.41
550.57	1667.55
550.774	1648.76
550.978	1669.1
551.182	1722.19
551.386	1655.54
551.59	1689.25
551.794	1665.81
551.998	1678.79
552.202	1719.47
552.406	1665.42
552.61	1711.92
552.814	1668.91
553.018	1781.86
553.222	1681.11
553.426	1686.15
553.63	1771.59
553.833	1671.04
554.037	1643.72
554.241	1742.53
554.445	1682.27
554.649	1685.96
554.853	1690.99
555.056	1706.88
555.26	1704.94
555.464	1679.17
555.668	1694.29
555.871	1721.99
556.075	1765.2
556.279	1697.97
556.483	1673.75
556.686	1688.09
556.89	1709.79
557.094	1720.06
557.297	1605.36
557.501	1699.91
557.704	1598.38
557.908	1687.89
558.112	1616.21
558.315	1690.8
558.519	1636.36
558.722	1641.2
558.926	1639.26
559.129	1553.24
559.333	1581.91
559.536	1604.97
559.74	1573.78
559.943	1550.72
560.147	1570.87
560.35	1578.04
560.553	1582.3
560.757	1565.83
560.96	1677.82
561.164	1634.23
561.367	1672.78
561.57	1611.94
561.774	1647.21
561.977	1610.39
562.18	1601.68
562.384	1685.76
562.587	1593.54
562.79	1604.58
562.993	1566.8
563.197	1633.26
563.4	1674.91
563.603	1664.64
563.806	1705.91
564.009	1572.42
564.212	1621.83
564.416	1549.95
564.619	1600.13
564.822	1521.85
565.025	1622.79
565.228	1590.83
565.431	1560.02
565.634	1455.98
565.837	1543.55
566.04	1526.5
566.243	1538.71
566.446	1454.43
566.649	1553.43
566.852	1463.15
567.055	1526.31
567.258	1567.77
567.461	1570.29
567.664	1567.77
567.867	1477.1
568.07	1560.8
568.273	1550.33
568.475	1607.29
568.678	1516.23
568.881	1499.57
569.084	1525.92
569.287	1440.09
569.489	1442.8
569.692	1527.28
569.895	1480.58
570.098	1443.77
570.3	1409.87
570.503	1417.03
570.706	1423.23
570.909	1433.12
571.111	1365.11
571.314	1371.12
571.516	1384.87
571.719	1402.5
571.922	1411.22
572.124	1371.12
572.327	1412.58
572.529	1378.29
572.732	1373.44
572.935	1392.43
573.137	1472.25
573.34	1394.37
573.542	1449.39
573.745	1413.93
573.947	1409.67
574.15	1369.76
574.352	1367.44
574.554	1455.01
574.757	1352.52
574.959	1353.68
575.162	1355.23
575.364	1362.59
575.566	1442.8
575.769	1319.39
575.971	1383.71
576.173	1265.52
576.376	1334.5
576.578	1386.04
576.78	1386.23
576.982	1305.24
577.185	1354.07
577.387	1308.34
577.589	1291.87
577.791	1378.48
577.993	1345.15
578.196	1336.05
578.398	1351.94
578.6	1339.15
578.802	1285.09
579.004	1275.02
579.206	1281.41
579.408	1318.61
579.61	1270.17
579.812	1367.24
580.014	1287.03
580.216	1279.47
580.418	1318.61
580.62	1283.35
580.822	1252.54
581.024	1317.26
581.226	1367.82
581.428	1357.75
581.63	1411.22
581.832	1302.53
582.034	1355.81
582.236	1339.34
582.438	1326.55
582.64	1350.97
582.841	1396.89
583.043	1416.26
583.245	1386.42
583.447	1348.06
583.649	1353.68
583.85	1377.9
584.052	1375.19
584.254	1294.97
584.456	1379.06
584.657	1257.19
584.859	1315.12
585.061	1324.04
585.262	1311.64
585.464	1278.31
585.666	1301.76
585.867	1298.07
586.069	1360.85
586.27	1266.69
586.472	1298.66
586.674	1287.22
586.875	1279.67
587.077	1262.81
587.278	1327.91
587.48	1231.04
587.681	1362.01
587.883	1285.09
588.084	1226.78
588.285	1271.14
588.487	1225.42
588.688	1262.04
588.89	1187.44
589.091	1162.06
589.292	1167.68
589.494	1144.43
589.695	1119.44
589.896	1062.67
590.098	1077.98
590.299	1113.82
590.5	1128.93
590.702	1141.91
590.903	1182.21
591.104	1236.66
591.305	1195.39
591.507	1248.09
591.708	1193.64
591.909	1184.54
592.11	1251.77
592.311	1243.82
592.512	1183.57
592.714	1142.69
592.915	1151.02
593.116	1154.51
593.317	1182.79
593.518	1177.56
593.719	1166.33
593.92	1223.09
594.121	1223.48
594.322	1202.17
594.523	1195.39
594.724	1120.99
594.925	1168.46
595.126	1202.56
595.327	1166.71
595.528	1167.68
595.729	1185.12
595.929	1183.57
596.13	1171.56
596.331	1200.23
596.532	1188.41
596.733	1218.64
596.934	1224.06
597.135	1238.4
597.335	1203.53
597.536	1176.21
597.737	1199.26
597.938	1126.41
598.138	1206.63
598.339	1166.52
598.54	1217.86
598.74	1147.73
598.941	1154.31
599.142	1228.33
599.342	1207.98
599.543	1138.04
599.744	1173.49
599.944	1207.59
600.145	1172.72
600.345	1175.24
600.546	1238.98
600.746	1240.14
600.947	1233.75
601.147	1168.26
601.348	1202.36
601.548	1125.06
601.749	1175.82
601.949	1134.94
602.15	1127.77
602.35	1160.32
602.551	1230.65
602.751	1146.95
602.951	1149.86
603.152	1088.63
603.352	1208.18
603.552	1171.17
603.753	1212.05
603.953	1229.29
604.153	1216.7
604.354	1197.13
604.554	1176.01
604.754	1184.93
604.954	1140.56
605.155	1188.99
605.355	1169.62
605.555	1233.36
605.755	1240.72
605.955	1181.05
606.155	1202.36
606.356	1206.04
606.556	1201.39
606.756	1173.11
606.956	1142.88
607.156	1229.1
607.356	1142.88
607.556	1184.54
607.756	1157.22
607.956	1234.72
608.156	1168.65
608.356	1183.76
608.556	1223.68
608.756	1179.89
608.956	1124.09
609.156	1168.07
609.356	1135.13
609.556	1093.48
609.755	1176.4
609.955	1114.79
610.155	1188.41
610.355	1145.01
610.555	1095.22
610.755	1155.86
610.954	1082.24
611.154	1137.26
611.354	1142.88
611.554	1098.13
611.753	1096.38
611.953	1057.05
612.153	1126.41
612.352	1132.81
612.552	1094.06
612.752	1040.78
612.951	1102
613.151	1117.7
613.351	1040.97
613.55	1093.09
613.75	1092.31
613.949	1087.08
614.149	1121.38
614.348	1126.41
614.548	1063.06
614.747	1050.66
614.947	1079.91
615.146	991.37
615.346	1091.73
615.545	1070.23
615.745	1079.53
615.944	1097.55
616.144	1041.94
616.343	1084.18
616.542	1046.4
616.742	1030.12
616.941	1039.62
617.14	1018.88
617.34	1117.89
617.539	1071.58
617.738	1040.78
617.938	1092.9
618.137	1093.48
618.336	1006.48
618.535	1083.21
618.734	1075.85
618.934	1068.1
619.133	1044.65
619.332	1072.75
619.531	1040.2
619.73	1018.5
619.929	1088.63
620.128	1080.69
620.328	1140.56
620.527	1058.41
620.726	1046.01
620.925	1076.23
621.124	1022.57
621.323	1066.16
621.522	1012.3
621.721	1026.44
621.92	996.99
622.119	1042.33
622.318	1005.13
622.517	1019.47
622.715	1027.99
622.914	945.65
623.113	995.83
623.312	964.25
623.511	1025.28
623.71	990.6
623.909	1009.58
624.107	1029.15
624.306	961.54
624.505	950.49
624.704	955.34
624.902	1003.38
625.101	1047.75
625.3	1003.38
625.499	970.64
625.697	941.77
625.896	962.7
626.095	1020.05
626.293	933.83
626.492	951.27
626.69	993.7
626.889	939.45
627.088	993.31
627.286	946.23
627.485	963.09
627.683	924.92
627.882	976.45
628.08	876.09
628.279	934.8
628.477	983.23
628.676	911.16
628.874	970.64
629.073	890.04
629.271	890.24
629.469	935.19
629.668	923.56
629.866	933.83
630.065	911.74
630.263	943.71
630.461	878.03
630.66	914.84
630.858	946.62
631.056	970.45
631.254	967.93
631.453	903.6
631.651	952.43
631.849	920.85
632.047	963.28
632.245	937.9
632.444	952.04
632.642	955.92
632.84	963.67
633.038	906.32
633.236	886.56
633.434	902.83
633.632	906.51
633.83	886.94
634.028	933.44
634.227	945.45
634.425	1019.85
634.623	925.11
634.821	959.21
635.019	938.29
635.216	921.82
635.414	983.43
635.612	953.01
635.81	926.27
636.008	976.07
636.206	941.19
636.404	953.4
636.602	891.98
636.8	913.68
636.997	935.96
637.195	939.25
637.393	919.69
637.591	990.6
637.789	961.54
637.986	923.37
638.184	969.29
638.382	999.51
638.58	957.08
638.777	1031.28
638.975	940.42
639.173	925.3
639.37	939.64
639.568	949.72
639.765	945.84
639.963	924.34
640.161	984.2
640.358	977.03
640.556	933.44
640.753	891.01
640.951	891.01
641.148	931.7
641.346	937.51
641.543	887.91
641.741	952.82
641.938	928.21
642.136	868.73
642.333	837.34
642.531	941
642.728	959.6
642.925	888.69
643.123	911.94
643.32	906.32
643.517	876.29
643.715	912.9
643.912	916.59
644.109	921.62
644.306	886.94
644.504	885.97
644.701	887.33
644.898	917.17
645.095	897.4
645.293	882.87
645.49	917.17
645.687	918.52
645.884	948.36
646.081	841.99
646.278	856.91
646.475	860.21
646.672	859.62
646.87	851.1
647.067	862.92
647.264	835.41
647.461	835.6
647.658	812.54
647.855	895.66
648.052	824.17
648.249	761.39
648.446	835.99
648.642	801.89
648.839	761.98
649.036	791.23
649.233	771.66
649.43	778.83
649.627	752.09
649.824	783.29
650.021	780.38
650.217	762.75
650.414	791.04
650.611	793.75
650.808	820.29
651.004	795.11
651.201	831.72
651.398	871.25
651.595	815.26
651.791	786
651.988	844.12
652.185	810.99
652.381	829.59
652.578	743.76
652.775	808.86
652.971	771.08
653.168	774.96
653.364	822.23
653.561	744.54
653.757	783.87
653.954	793.75
654.15	766.63
654.347	859.62
654.543	796.27
654.74	742.99
654.936	745.12
655.133	760.23
655.329	783.09
655.525	734.85
655.722	795.88
655.918	693.78
656.115	742.99
656.311	658.13
656.507	646.11
656.704	633.91
656.9	660.84
657.096	650.18
657.292	682.93
657.489	733.49
657.685	739.69
657.881	674.98
658.077	702.3
658.273	700.17
658.47	824.36
658.666	740.86
658.862	757.13
659.058	723.61
659.254	759.07
659.45	735.24
659.646	789.29
659.842	718.38
660.038	819.32
660.234	734.66
660.43	743.38
660.626	804.79
660.822	769.34
661.018	753.26
661.214	749.96
661.41	740.47
661.606	780.77
661.802	801.69
661.998	756.94
662.194	706.37
662.39	769.14
662.586	760.43
662.781	773.02
662.977	791.23
663.173	776.31
663.369	747.25
663.564	751.9
663.76	785.81
663.956	735.43
664.152	777.48
664.347	705.79
664.543	722.06
664.739	730.78
664.934	671.11
665.13	657.93
665.326	785.81
665.521	724.97
665.717	668.01
665.912	667.04
666.108	655.22
666.304	731.94
666.499	711.99
666.695	639.14
666.89	671.3
667.086	723.61
667.281	714.31
667.477	760.43
667.672	687.77
667.867	696.68
668.063	705.98
668.258	651.73
668.454	679.83
668.649	764.88
668.844	690.1
669.04	720.32
669.235	661.42
669.43	696.3
669.626	656.96
669.821	646.89
670.016	631.78
670.211	679.25
670.407	633.71
670.602	659.68
670.797	669.36
670.992	735.82
671.187	642.82
671.382	710.83
671.578	628.68
671.773	683.7
671.968	638.17
672.163	685.06
672.358	666.46
672.553	644.56
672.748	650.96
672.943	727.49
673.138	653.86
673.333	702.5
673.528	625.97
673.723	685.25
673.918	673.43
674.113	619.57
674.308	729.23
674.503	664.52
674.698	672.85
674.892	669.75
675.087	696.68
675.282	693.2
675.477	637.4
675.672	712.38
675.867	630.03
676.061	604.07
676.256	600.2
676.451	641.27
676.646	709.86
676.84	635.46
677.035	598.45
677.23	615.31
677.424	683.7
677.619	711.6
677.814	715.48
678.008	685.25
678.203	640.69
678.397	661.42
678.592	633.91
678.787	705.4
678.981	602.91
679.176	654.45
679.37	645.34
679.565	662.58
679.759	632.36
679.954	669.56
680.148	706.56
680.342	722.06
680.537	667.23
680.731	666.65
680.926	701.91
681.12	679.44
681.314	655.61
681.509	645.34
681.703	667.23
681.897	664.71
682.092	657.93
682.286	675.56
682.48	751.13
682.674	681.18
682.869	643.6
683.063	662.78
683.257	741.83
683.451	612.79
683.645	665.88
683.839	653.09
684.034	653.48
684.228	702.11
684.422	632.75
684.616	617.63
684.81	666.65
685.004	646.89
685.198	664.71
685.392	684.28
685.586	649.41
685.78	675.56
685.974	673.43
686.168	693.97
686.362	702.11
686.556	644.37
686.75	577.92
686.944	561.64
687.138	569.97
687.331	494.22
687.525	516.11
687.719	453.34
687.913	524.83
688.107	508.17
688.301	484.92
688.494	564.55
688.688	535.87
688.882	451.4
689.076	483.56
689.269	501.39
689.463	609.88
689.657	559.9
689.85	543.62
690.044	553.89
690.238	534.52
690.431	536.45
690.625	561.45
690.818	587.22
691.012	585.47
691.205	631.97
691.399	590.7
691.593	625.58
691.786	697.07
691.98	671.3
692.173	693.39
692.366	687
692.56	688.55
692.753	714.89
692.947	600.97
693.14	742.79
693.333	729.81
693.527	667.04
693.72	721.29
693.914	682.93
694.107	689.9
694.3	723.03
694.493	681.96
694.687	719.54
694.88	686.22
695.073	758.49
695.266	759.84
695.46	714.31
695.653	769.34
695.846	776.51
696.039	700.75
696.232	759.26
696.425	816.61
696.618	804.21
696.812	778.06
697.005	829.59
697.198	962.7
697.391	854.97
697.584	871.06
697.777	930.34
697.97	917.17
698.163	908.84
698.356	899.92
698.549	957.08
698.742	924.14
698.935	890.43
699.127	940.22
699.32	895.08
699.513	893.72
699.706	914.45
699.899	980.52
700.092	920.85
700.285	951.46
700.477	884.42
700.67	981.1
700.863	973.16
701.056	1068.68
701.248	1008.23
701.441	1021.6
701.634	979.17
701.826	1066.93
702.019	986.92
702.212	1062.09
702.404	988.85
702.597	987.3
702.79	993.31
702.982	1040.39
703.175	1097.74
703.367	1115.18
703.56	1114.6
703.752	1156.64
703.945	1137.65
704.137	1186.09
704.33	1159.16
704.522	1193.06
704.715	1200.23
704.907	1214.38
705.1	1217.28
705.292	1263.2
705.484	1206.04
705.677	1259.91
705.869	1266.88
706.061	1299.62
706.254	1321.71
706.446	1284.71
706.638	1295.36
706.831	1362.59
707.023	1316.29
707.215	1399.4
707.407	1393.59
707.599	1377.9
707.792	1401.54
707.984	1417.23
708.176	1419.94
708.368	1393.79
708.56	1429.05
708.752	1414.13
708.944	1406.96
709.136	1461.6
709.329	1444.55
709.521	1539.48
709.713	1491.82
709.905	1492.79
710.097	1556.92
710.289	1500.73
710.481	1541.03
710.672	1545.88
710.864	1498.99
711.056	1615.04
711.248	1606.52
711.44	1614.66
711.632	1621.05
711.824	1612.14
712.016	1705.33
712.207	1690.02
712.399	1673.94
712.591	1721.8
712.783	1687.89
712.975	1731.49
713.166	1683.44
713.358	1690.02
713.55	1774.3
713.741	1755.51
713.933	1774.89
714.125	1765.78
714.316	1777.99
714.508	1798.14
714.7	1813.44
714.891	1808.02
715.083	1883.58
715.274	1775.27
715.466	1826.62
715.657	1889.78
715.849	1791.35
716.04	1808.02
716.232	1784.57
716.423	1811.31
716.615	1757.64
716.806	1756.09
716.998	1677.82
717.189	1656.51
717.381	1569.9
717.572	1536.77
717.763	1570.48
717.955	1559.83
718.146	1518.75
718.337	1460.24
718.528	1434.28
718.72	1366.47
718.911	1445.52
719.102	1416.26
719.293	1457.33
719.485	1408.9
719.676	1431.57
719.867	1365.3
720.058	1445.71
720.249	1409.09
720.44	1464.7
720.632	1514.3
720.823	1527.66
721.014	1657.28
721.205	1646.43
721.396	1712.11
721.587	1840.57
721.778	1820.22
721.969	1857.42
722.16	1920.58
722.351	1917.68
722.542	2021.91
722.733	2028.31
722.924	1953.91
723.115	1999.25
723.305	1971.93
723.496	1992.85
723.687	1883.97
723.878	1887.45
724.069	1921.55
724.26	1896.17
724.45	1819.45
724.641	1804.92
724.832	1873.7
725.023	1833.79
725.213	1837.66
725.404	1819.45
725.595	1803.17
725.785	1819.06
725.976	1887.07
726.167	1889.58
726.357	1836.69
726.548	1982
726.739	1890.94
726.929	1975.61
727.12	1992.85
727.31	2012.23
727.501	1948.68
727.691	1964.95
727.882	1953.33
728.072	2010.48
728.263	2025.98
728.453	2028.89
728.644	2018.04
728.834	2026.76
729.024	1972.9
729.215	2027.14
729.405	2015.33
729.596	2087.59
729.786	2137.58
729.976	2158.12
730.167	2115.3
730.357	2051.56
730.547	2101.74
730.737	2150.37
730.928	2140.87
731.118	2197.06
731.308	2133.71
731.498	2187.96
731.688	2230.77
731.879	2236.78
732.069	2298.39
732.259	2332.68
732.449	2296.26
732.639	2406.5
732.829	2441.18
733.019	2470.44
733.209	2509.38
733.399	2559.37
733.589	2569.83
733.779	2570.8
733.969	2595.99
734.159	2619.43
734.349	2698.87
734.539	2684.34
734.729	2713.2
734.919	2746.14
735.109	2717.85
735.299	2721.15
735.488	2726.96
735.678	2727.15
735.868	2782.76
736.058	2711.46
736.248	2709.14
736.437	2647.14
736.627	2684.53
736.817	2795.16
737.007	2700.61
737.196	2805.43
737.386	2788.38
737.576	2752.92
737.765	2797.68
737.955	2767.84
738.144	2856.58
738.334	2859.87
738.524	2770.55
738.713	2868.4
738.903	2838.56
739.092	2886.61
739.282	2845.73
739.471	2874.79
739.661	2828.29
739.85	2887.77
740.04	2935.43
740.229	2893.58
740.419	2984.45
740.608	2991.23
740.797	2970.11
740.987	3014.48
741.176	2954.03
741.365	2932.33
741.555	2911.99
741.744	2970.31
741.933	3000.14
742.123	3010.61
742.312	3037.92
742.501	3044.9
742.69	3074.93
742.88	2943.38
743.069	3079.97
743.258	3019.32
743.447	3118.14
743.636	3050.71
743.825	3049.16
744.014	3042.96
744.204	3055.75
744.393	3002.66
744.582	3116.97
744.771	3122.98
744.96	3077.84
745.149	3103.41
745.338	3074.93
745.527	3136.35
745.716	3096.05
745.905	3095.85
746.094	3133.05
746.283	3151.85
746.471	3092.56
746.66	3166.57
746.849	3128.4
747.038	3185.75
747.227	3153.4
747.416	3156.89
747.604	3081.9
747.793	3084.81
747.982	3109.03
748.171	3127.24
748.359	3158.63
748.548	3187.3
748.737	3162.89
748.926	3117.36
749.114	3032.31
749.303	3097.02
749.491	3140.8
749.68	3047.42
749.869	3163.67
750.057	3110.58
750.246	3129.37
750.434	3107.48
750.623	3099.54
750.811	3092.17
751	3135.96
751.188	3111.94
751.377	3109.03
751.565	3090.24
751.754	3098.95
751.942	3039.67
752.131	3139.06
752.319	3033.08
752.507	2983.68
752.696	3091.2
752.884	3131.12
753.072	3060.79
753.261	3076.09
753.449	3069.12
753.637	3023.59
753.825	3124.53
754.014	3039.28
754.202	3052.84
754.39	3150.69
754.578	3058.27
754.766	3034.44
754.955	3009.06
755.143	3080.16
755.331	2996.66
755.519	3032.89
755.707	2992.78
755.895	3063.11
756.083	3022.23
756.271	3000.14
756.459	2973.79
756.647	3026.69
756.835	2989.49
757.023	2979.61
757.211	2940.47
757.399	2978.06
757.587	2966.82
757.775	2932.33
757.963	2936.59
758.151	2952.87
758.339	2934.85
758.526	2884.48
758.714	2977.67
758.902	2830.61
759.09	2790.32
759.278	2573.32
759.465	2389.65
759.653	2050.59
759.841	1882.03
760.028	1606.52
760.216	1375.57
760.404	1290.13
760.591	1026.44
760.779	845.09
760.967	762.17
761.154	629.45
761.342	678.08
761.529	692.42
761.717	756.94
761.905	745.31
762.092	817.77
762.28	742.99
762.467	771.47
762.655	687.77
762.842	729.43
763.029	732.14
763.217	748.8
763.404	738.53
763.592	744.15
763.779	721.68
763.966	768.95
764.154	804.99
764.341	874.74
764.528	860.98
764.716	935.57
764.903	999.51
765.09	1023.34
765.277	1089.21
765.465	1213.02
765.652	1260.68
765.839	1324.23
766.026	1463.53
766.213	1484.07
766.4	1593.15
766.588	1743.31
766.775	1752.99
766.962	1862.46
767.149	1935.89
767.336	2057.95
767.523	2027.73
767.71	2155.41
767.897	2214.3
768.084	2315.25
768.271	2313.5
768.458	2360.78
768.645	2422.58
768.832	2404.18
769.019	2398.75
769.206	2472.76
769.392	2530.31
769.579	2594.44
769.766	2546.97
769.953	2563.63
770.14	2615.56
770.327	2581.84
770.513	2668.06
770.7	2679.69
770.887	2626.6
771.073	2678.14
771.26	2630.86
771.447	2616.91
771.634	2630.28
771.82	2756.22
772.007	2602.77
772.193	2647.91
772.38	2676.59
772.567	2631.64
772.753	2628.92
772.94	2699.84
773.126	2713.4
773.313	2738.78
773.499	2673.68
773.686	2706.81
773.872	2626.79
774.059	2672.71
774.245	2609.74
774.432	2624.66
774.618	2591.14
774.804	2637.25
774.991	2571.77
775.177	2641.71
775.363	2616.14
775.55	2638.22
775.736	2548.52
775.922	2571.77
776.109	2620.21
776.295	2593.86
776.481	2628.34
776.667	2640.35
776.853	2603.35
777.04	2570.41
777.226	2574.29
777.412	2651.2
777.598	2575.26
777.784	2563.44
777.97	2560.72
778.156	2586.88
778.342	2572.54
778.528	2529.53
778.715	2467.53
778.901	2511.51
779.087	2557.04
779.272	2527.21
779.458	2533.79
779.644	2530.31
779.83	2539.61
780.016	2601.61
780.202	2504.34
780.388	2489.04
780.574	2433.63
780.76	2463.08
780.946	2490.78
781.131	2472.96
781.317	2486.13
781.503	2429.56
781.689	2412.51
781.874	2543.29
782.06	2450.48
782.246	2485.94
782.432	2452.03
782.617	2454.75
782.803	2469.66
782.989	2402.43
783.174	2397.59
783.36	2389.06
783.545	2427.23
783.731	2392.94
783.916	2354.97
784.102	2380.15
784.288	2383.25
784.473	2377.25
784.659	2355.55
784.844	2370.66
785.029	2317.57
785.215	2376.08
785.4	2285.8
785.586	2423.55
785.771	2295.29
785.956	2345.08
786.142	2329.39
786.327	2322.22
786.512	2335.01
786.698	2325.52
786.883	2228.25
787.068	2270.88
787.254	2282.31
787.439	2271.27
787.624	2279.4
787.809	2259.64
787.994	2240.27
788.18	2357.1
788.365	2192.61
788.55	2232.32
788.735	2257.9
788.92	2211.4
789.105	2238.72
789.29	2197.26
789.475	2156.96
789.66	2179.24
789.845	2123.82
790.03	2151.14
790.215	2197.64
790.4	2198.22
790.585	2227.87
790.77	2146.88
790.955	2069.58
791.14	2152.5
791.325	2198.61
791.51	2075.58
791.695	2132.54
791.879	2110.26
792.064	2093.79
792.249	2173.42
792.434	2105.42
792.618	2136.61
792.803	2146.49
792.988	2129.64
793.173	2166.06
793.357	2181.17
793.542	2078.88
793.727	2129.64
793.911	2167.22
794.096	2138.74
794.281	2149.79
794.465	2189.51
794.65	2160.06
794.834	2162.77
795.019	2225.15
795.203	2193.19
795.388	2181.95
795.572	2228.06
795.757	2181.17
795.941	2183.31
796.126	2211.98
796.31	2085.08
796.494	2170.71
796.679	2087.79
796.863	2106.39
797.048	2184.66
797.232	2199.19
797.416	2177.69
797.601	2207.72
797.785	2198.03
797.969	2235.23
798.153	2145.52
798.338	2216.63
798.522	2189.7
798.706	2199.58
798.89	2200.16
799.074	2300.72
799.258	2291.22
799.443	2220.7
799.627	2200.94
799.811	2278.63
799.995	2173.81
800.179	2163.74
800.363	2196.09
800.547	2223.02
800.731	2213.72
800.915	2126.73
801.099	2176.72
801.283	2118.4
801.467	2160.06
801.651	2188.15
801.835	2231.74
802.019	2201.32
802.202	2210.24
802.386	2137.97
802.57	2159.47
802.754	2166.84
802.938	2121.5
803.121	2126.54
803.305	2196.29
803.489	2162.38
803.673	2173.81
803.856	2195.51
804.04	2163.54
804.224	2168.19
804.407	2169.36
804.591	2151.92
804.775	2164.32
804.958	2195.71
805.142	2261.39
805.326	2172.84
805.509	2155.79
805.693	2238.91
805.876	2240.46
806.06	2209.07
806.243	2237.55
806.427	2221.67
806.61	2239.49
806.794	2181.76
806.977	2251.7
807.16	2210.04
807.344	2174.78
807.527	2205.59
807.71	2187.57
807.894	2211.59
808.077	2259.25
808.26	2170.71
808.444	2115.3
808.627	2211.59
808.81	2123.24
808.993	2112.39
809.177	2063.38
809.36	2137.97
809.543	2105.03
809.726	2031.41
809.909	2033.93
810.092	2014.94
810.276	2031.99
810.459	2068.03
810.642	2022.3
810.825	2000.41
811.008	2022.69
811.191	1952.75
811.374	1959.33
811.557	1964.76
811.74	2005.83
811.923	1913.61
812.106	1935.12
812.289	1843.67
812.472	1898.3
812.654	1934.92
812.837	1856.45
813.02	1828.94
813.203	1832.82
813.386	1742.72
813.569	1712.11
813.751	1661.16
813.934	1700.68
814.117	1681.69
814.3	1613.49
814.482	1617.95
814.665	1576.88
814.848	1531.73
815.03	1523.01
815.213	1519.33
815.396	1466.83
815.578	1482.91
815.761	1445.13
815.943	1498.22
816.126	1415.48
816.309	1404.64
816.491	1332.17
816.674	1282.96
816.856	1347.87
817.039	1341.28
817.221	1408.12
817.403	1356.59
817.586	1387.97
817.768	1415.68
817.951	1310.86
818.133	1284.9
818.315	1358.33
818.498	1355.04
818.68	1424.78
818.862	1392.04
819.045	1430.4
819.227	1400.76
819.409	1408.9
819.591	1376.35
819.774	1365.89
819.956	1359.49
820.138	1425.37
820.32	1402.31
820.502	1460.43
820.684	1527.66
820.866	1531.35
821.048	1570.87
821.231	1531.15
821.413	1562.35
821.595	1524.76
821.777	1546.46
821.959	1501.7
822.141	1582.3
822.323	1473.42
822.505	1422.65
822.686	1388.17
822.868	1339.73
823.05	1192.68
823.232	1223.87
823.414	1143.46
823.596	1236.08
823.778	1212.63
823.96	1231.81
824.141	1228.71
824.323	1251.38
824.505	1300.01
824.687	1375.38
824.868	1412.19
825.05	1495.12
825.232	1523.4
825.413	1577.65
825.595	1479.62
825.777	1455.78
825.958	1512.36
826.14	1485.23
826.321	1527.86
826.503	1506.74
826.685	1539.29
826.866	1534.64
827.048	1515.85
827.229	1488.92
827.411	1428.66
827.592	1421.1
827.773	1398.63
827.955	1374.99
828.136	1377.7
828.318	1331.98
828.499	1358.33
828.68	1308.92
828.862	1383.9
829.043	1362.79
829.224	1372.67
829.406	1290.52
829.587	1307.96
829.768	1321.32
829.949	1391.85
830.131	1336.05
830.312	1419.17
830.493	1339.92
830.674	1365.89
830.855	1326.36
831.036	1339.15
831.218	1398.24
831.399	1444.16
831.58	1365.5
831.761	1384.29
831.942	1391.46
832.123	1348.25
832.304	1345.15
832.485	1336.63
832.666	1334.11
832.847	1386.62
833.028	1335.66
833.209	1366.27
833.389	1338.18
833.57	1263.2
833.751	1307.37
833.932	1378.67
834.113	1355.42
834.294	1335.27
834.475	1378.09
834.655	1433.12
834.836	1425.17
835.017	1385.07
835.198	1311.25
835.378	1390.49
835.559	1401.73
835.74	1363.37
835.92	1323.84
836.101	1359.3
836.281	1392.82
836.462	1404.64
836.643	1436.8
836.823	1426.14
837.004	1423.23
837.184	1446.29
837.365	1452.88
837.545	1390.1
837.726	1416.84
837.906	1443.38
838.087	1424.2
838.267	1394.37
838.448	1402.7
838.628	1393.01
838.808	1422.27
838.989	1475.74
839.169	1398.05
839.349	1434.08
839.53	1459.85
839.71	1451.91
839.89	1396.69
840.07	1485.62
840.251	1397.47
840.431	1451.91
840.611	1385.45
840.791	1396.3
840.971	1407.15
841.151	1393.79
841.332	1383.9
841.512	1435.63
841.692	1370.34
841.872	1413.93
842.052	1385.84
842.232	1451.72
842.412	1340.12
842.592	1405.41
842.772	1369.57
842.952	1403.09
843.132	1361.43
843.312	1339.15
843.492	1354.84
843.672	1422.65
843.851	1325.97
844.031	1372.47
844.211	1346.51
844.391	1326.75
844.571	1382.55
844.751	1405.99
844.93	1389.52
845.11	1363.17
845.29	1385.84
845.47	1364.34
845.649	1370.92
845.829	1416.26
846.009	1334.5
846.188	1360.27
846.368	1367.82
846.547	1352.71
846.727	1386.23
846.907	1310.09
847.086	1358.91
847.266	1368.99
847.445	1334.11
847.625	1346.32
847.804	1320.74
847.984	1366.27
848.163	1314.74
848.343	1341.67
848.522	1349.8
848.701	1333.72
848.881	1278.12
849.06	1319.58
849.239	1343.6
849.419	1355.23
849.598	1273.08
849.777	1279.86
849.957	1241.31
850.136	1180.28
850.315	1152.57
850.494	1176.59
850.674	1204.49
850.853	1277.34
851.032	1264.56
851.211	1266.3
851.39	1285.09
851.569	1195.78
851.748	1196.94
851.927	1265.72
852.107	1289.16
852.286	1189.77
852.465	1191.13
852.644	1270.76
852.823	1228.13
853.002	1212.24
853.181	1237.63
853.359	1246.34
853.538	1125.83
853.717	1258.94
853.896	1140.95
854.075	1117.11
854.254	1104.71
854.433	1000.28
854.611	1093.48
854.79	1015.78
854.969	1069.26
855.148	1139.2
855.327	1053.37
855.505	1104.71
855.684	1087.08
855.863	1121.57
856.041	1052.98
856.22	1148.5
856.399	1106.65
856.577	1221.35
856.756	1160.71
856.934	1286.84
857.113	1281.02
857.291	1179.69
857.47	1154.12
857.648	1181.24
857.827	1214.96
858.005	1256.22
858.184	1174.66
858.362	1274.63
858.541	1199.84
858.719	1161.68
858.898	1143.66
859.076	1160.71
859.254	1224.26
859.433	1171.36
859.611	1160.9
859.789	1125.83
859.967	1189.58
860.146	1226
860.324	1119.05
860.502	1170.59
860.68	1081.46
860.859	1107.62
861.037	1128.93
861.215	1132.42
861.393	1162.45
861.571	1129.51
861.749	1120.02
861.927	1129.51
862.105	1128.55
862.283	1124.28
862.461	1093.48
862.639	1089.6
862.817	1115.37
862.995	1135.91
863.173	1123.7
863.351	1120.21
863.529	1106.26
863.707	1144.43
863.885	1126.61
864.063	1056.47
864.241	1101.61
864.418	1135.13
864.596	1080.5
864.774	1043.49
864.952	1067.13
865.129	1114.4
865.307	1056.28
865.485	1000.87
865.663	1101.81
865.84	988.27
866.018	1052.4
866.196	924.34
866.373	965.8
866.551	933.44
866.728	880.16
866.906	930.73
867.084	939.84
867.261	997.38
867.439	975.68
867.616	1003.19
867.794	1006.29
867.971	977.62
868.149	1025.67
868.326	1034.77
868.503	1032.83
868.681	1027.02
868.858	1009.78
869.035	991.95
869.213	1028.57
869.39	1004.55
869.567	1085.73
869.745	1014.04
869.922	1005.32
870.099	1013.85
870.276	1030.51
870.454	1016.95
870.631	1056.86
870.808	1000.87
870.985	1019.08
871.162	1078.75
871.339	1010.75
871.517	950.49
871.694	970.06
871.871	988.66
872.048	999.12
872.225	970.64
872.402	1012.1
872.579	939.64
872.756	1000.09
872.933	932.67
873.11	974.32
873.287	1010.55
873.463	950.69
873.64	941.19
873.817	983.23
873.994	960.95
874.171	947
874.348	946.42
874.524	890.24
874.701	918.33
874.878	876.87
875.055	962.5
875.231	929.95
875.408	953.4
875.585	916.78
875.762	918.52
875.938	927.24
876.115	936.15
876.291	907.48
876.468	900.12
876.645	911.16
876.821	903.8
876.998	913.68
877.174	944.49
877.351	895.85
877.527	864.86
877.704	898.57
877.88	915.62
878.057	884.42
878.233	945.65
878.409	883.07
878.586	930.54
878.762	897.79
878.938	889.65
879.115	792.59
879.291	880.36
879.467	815.06
879.644	862.92
879.82	900.5
879.996	851.1
880.172	812.54
880.349	849.55
880.525	879.58
880.701	809.83
880.877	837.92
881.053	870.09
881.229	862.92
881.405	886.75
881.581	817.97
881.757	861.95
881.933	855.94
882.109	871.06
882.285	832.5
882.461	811.57
882.637	840.06
882.813	807.7
882.989	839.86
883.165	899.54
883.341	812.16
883.517	890.82
883.693	867.76
883.869	882.87
884.044	837.54
884.22	850.13
884.396	887.72
884.572	863.11
884.747	851.1
884.923	881.91
885.099	891.79
885.275	886.36
885.45	807.89
885.626	823.39
885.801	795.49
885.977	834.82
886.153	764.3
886.328	861.37
886.504	827.07
886.679	823.97
886.855	798.4
887.03	840.06
887.206	889.27
887.381	855.94
887.557	845.67
887.732	866.02
887.908	866.41
888.083	860.98
888.258	845.48
888.434	815.84
888.609	864.08
888.784	868.54
888.96	819.71
889.135	818.94
889.31	808.86
889.485	835.02
889.661	833.08
889.836	845.48
890.011	862.92
890.186	812.35
890.361	811.96
890.537	836.37
890.712	827.27
890.887	885.01
891.062	826.49
891.237	928.4
891.412	783.87
891.587	829.01
891.762	838.7
891.937	878.03
892.112	777.09
892.287	816.03
892.462	784.84
892.637	785.42
892.812	757.71
892.987	788.91
893.161	787.94
893.336	774.96
893.511	766.04
893.686	778.44
893.861	748.03
894.035	766.82
894.21	783.09
894.385	726.91
894.56	761.01
894.734	694.36
894.909	704.82
895.084	720.13
895.258	700.75
895.433	708.31
895.608	683.12
895.782	640.3
895.957	636.81
896.131	650.96
896.306	597.87
896.48	610.27
896.655	587.41
896.829	546.72
897.004	556.02
897.178	545.17
897.353	539.94
897.527	595.16
897.701	576.95
897.876	516.69
898.05	617.44
898.224	576.17
898.399	620.15
898.573	563.58
898.747	460.5
898.921	512.62
899.096	429.31
899.27	439.97
899.444	461.47
899.618	483.37
899.792	471.55
899.967	485.69
900.141	541.3
900.315	465.35
900.489	488.02
900.663	488.4
900.837	515.92
901.011	474.45
901.185	549.05
901.359	517.47
901.533	489.57
901.707	521.34
901.881	493.64
902.055	438.81
902.229	495.77
902.403	532.58
902.576	487.44
902.75	471.94
902.924	591.28
903.098	552.73
903.272	604.27
903.446	631.97
903.619	592.06
903.793	606.01
903.967	569.58
904.14	649.21
904.314	624.42
904.488	611.82
904.661	643.6
904.835	582.57
905.009	625.77
905.182	662.39
905.356	624.03
905.529	626.55
905.703	609.88
905.876	604.27
906.05	570.94
906.223	576.56
906.397	500.61
906.57	488.6
906.744	484.72
906.917	479.69
907.09	470.77
907.264	477.94
907.437	494.02
907.61	436.29
907.784	436.48
907.957	476.2
908.13	425.05
908.304	467.87
908.477	437.45
908.65	470.97
908.823	404.71
908.996	480.07
909.17	434.16
909.343	426.02
909.516	433.19
909.689	446.94
909.862	393.27
910.035	439.19
910.208	421.17
910.381	404.9
910.554	484.53
910.727	419.82
910.9	407.81
911.073	401.8
911.246	478.33
911.419	502.74
911.592	453.14
911.765	413.62
911.938	436.09
912.11	440.74
912.283	410.13
912.456	484.34
912.629	444.23
912.802	417.49
912.974	377.97
913.147	352.01
913.32	290.78
913.493	323.72
913.665	347.55
913.838	367.31
914.01	377.39
914.183	381.46
914.356	376.42
914.528	377.77
914.701	459.92
914.873	415.75
915.046	362.08
915.218	339.99
915.391	266.18
915.563	315.19
915.736	357.82
915.908	364.79
916.081	359.76
916.253	356.08
916.425	371.38
916.598	380.29
916.77	370.02
916.942	342.32
917.115	271.02
917.287	371.38
917.459	325.46
917.632	302.6
917.804	260.75
917.976	331.28
918.148	335.54
918.32	334.57
918.493	377.77
918.665	399.86
918.837	358.79
919.009	430.09
919.181	438.81
919.353	394.24
919.525	377.97
919.697	386.69
919.869	390.37
920.041	431.25
920.213	490.73
920.385	431.44
920.557	357.82
920.729	419.82
920.901	422.14
921.073	393.27
921.244	387.85
921.416	443.65
921.588	398.31
921.76	352.01
921.932	451.98
922.103	385.52
922.275	363.24
922.447	377.19
922.619	328.56
922.79	372.93
922.962	367.7
923.134	396.76
923.305	303.76
923.477	325.85
923.648	322.56
923.82	359.18
923.991	297.95
924.163	292.33
924.335	318.1
924.506	303.96
924.677	365.96
924.849	311.9
925.02	330.5
925.192	362.66
925.363	321.01
925.535	355.69
925.706	309.58
925.877	377.19
926.049	306.67
926.22	326.04
926.391	338.06
926.562	369.83
926.734	297.95
926.905	349.29
927.076	275.86
927.247	284.19
927.419	249.9
927.59	260.95
927.761	270.25
927.932	237.7
928.103	282.64
928.274	222
928.445	202.82
928.616	214.83
928.787	228.98
928.958	263.46
929.129	249.51
929.3	231.5
929.471	190.42
929.642	159.03
929.813	129.78
929.984	216.19
930.155	136.95
930.326	185.38
930.496	160.78
930.667	89.67
930.838	122.03
931.009	122.03
931.18	140.24
931.35	120.09
931.521	116.41
931.692	75.92
931.863	53.25
932.033	87.93
932.204	105.17
932.374	124.16
932.545	60.61
932.716	82.89
932.886	89.09
933.057	32.13
933.227	39.49
933.398	150.7
933.568	47.63
933.739	10.04
933.909	29.61
934.08	89.87
934.25	-4.49
934.421	30.39
934.591	68.17
934.761	29.61
934.932	-24.83
935.102	34.26
935.272	12.76
935.443	29.22
935.613	26.7
935.783	42.98
935.953	29.03
936.123	161.75
936.294	-0.42
936.464	22.05
936.634	23.22
936.804	4.23
936.974	-16.89
937.144	29.22
937.314	35.04
937.484	36.2
937.655	-1.19
937.825	85.02
937.995	27.87
938.165	58.67
938.334	30
938.504	32.71
938.674	20.5
938.844	18.57
939.014	74.37
939.184	73.59
939.354	125.13
939.524	122.22
939.694	58.09
939.863	51.5
940.033	114.08
940.203	109.43
940.373	104.98
940.542	88.9
940.712	84.83
940.882	111.95
941.051	120.09
941.221	57.51
941.391	111.95
941.56	53.25
941.73	48.4
941.899	138.69
942.069	55.96
942.238	85.22
942.408	62.74
942.577	82.5
942.747	65.84
942.916	7.14
943.086	41.24
943.255	113.89
943.425	58.29
943.594	50.54
943.763	-18.05
943.933	28.25
944.102	-10.69
944.271	59.84
944.441	70.88
944.61	39.69
944.779	28.25
944.948	142.18
945.117	22.25
945.287	57.7
945.456	9.66
945.625	24.96
945.794	60.22
945.963	24.57
946.132	57.51
946.301	26.7
946.47	71.46
946.639	-7.78
946.808	8.49
946.977	58.29
947.146	97.04
947.315	57.51
947.484	84.44
947.653	55.77
947.822	18.76
947.991	7.52
948.16	154.38
948.329	77.66
948.498	54.6
948.666	40.07
948.835	90.45
949.004	5.59
949.173	-0.61
949.341	49.37
949.51	39.88
949.679	79.02
949.847	70.69
950.016	110.4
950.185	105.95
950.353	24.38
950.522	50.92
950.69	98.59
950.859	29.8
951.028	72.82
951.196	55.77
951.365	24.77
951.533	25.74
951.701	93.74
951.87	67
952.038	4.81
952.207	42.59
952.375	112.15
952.543	13.34
952.712	52.28
952.88	23.41
953.048	92.39
953.217	41.43
953.385	57.7
953.553	104.4
953.721	34.26
953.89	56.15
954.058	1.52
954.226	20.5
954.394	66.04
954.562	31.55
954.73	51.5
954.898	30.97
955.067	76.11
955.235	34.84
955.403	98.59
955.571	79.99
955.739	81.92
955.907	11.79
956.075	54.22
956.243	35.04
956.41	69.14
956.578	11.79
956.746	-4.1
956.914	23.02
957.082	55.38
957.25	70.3
957.418	48.79
957.585	48.99
957.753	85.99
957.921	9.66
958.089	56.93
958.256	52.67
958.424	75.34
958.592	53.44
958.759	21.86
958.927	73.01
959.095	45.69
959.262	66.42
959.43	20.12
959.597	20.7
959.765	36.39
959.932	9.46
960.1	98.2
960.267	39.88
960.435	30.77
960.602	98.2
960.77	37.55
960.937	16.44
961.104	39.49
961.272	-3.13
961.439	38.33
961.606	69.52
961.774	87.93
961.941	78.82
962.108	72.82
962.275	38.14
962.443	93.74
962.61	82.31
962.777	126.48
962.944	66.81
963.111	85.6
963.278	75.53
963.446	63.13
963.613	54.6
963.78	71.46
963.947	73.4
964.114	73.79
964.281	133.46
964.448	68.36
964.615	41.62
964.782	87.93
964.949	87.74
965.116	97.62
965.282	132.88
965.449	34.65
965.616	40.27
965.783	87.54
965.95	82.89
966.117	32.13
966.283	54.99
966.45	67.59
966.617	82.5
966.784	139.85
966.95	89.09
967.117	107.3
967.284	54.41
967.45	63.52
967.617	111.95
967.784	104.2
967.95	119.9
968.117	73.01
968.283	105.95
968.45	163.1
968.616	80.37
968.783	132.49
968.949	71.85
969.116	108.66
969.282	89.29
969.449	72.62
969.615	71.65
969.781	64.1
969.948	53.25
970.114	31.35
970.28	145.08
970.447	67.59
970.613	116.99
970.779	61.77
970.945	106.14
971.112	78.82
971.278	45.89
971.444	73.2
971.61	78.63
971.776	62.35
971.942	82.12
972.108	99.94
972.275	66.81
972.441	72.43
972.607	116.22
972.773	59.45
972.939	77.85
973.105	81.15
973.271	36.78
973.437	73.79
973.602	40.85
973.768	98.2
973.934	63.32
974.1	101.3
974.266	12.56
974.432	71.46
974.598	55.77
974.763	61.19
974.929	45.5
975.095	131.52
975.261	23.6
975.426	39.88
975.592	42.01
975.758	133.07
975.923	42.59
976.089	64.49
976.255	72.24
976.42	78.82
976.586	98.2
976.751	78.24
976.917	150.32
977.082	78.24
977.248	37.36
977.413	4.23
977.579	54.02
977.744	78.44
977.91	26.9
978.075	48.6
978.24	90.25
978.406	75.92
978.571	44.72
978.736	37.55
978.902	114.08
979.067	25.54
979.232	-4.49
979.397	52.67
979.563	142.37
979.728	38.91
979.893	67.97
980.058	35.62
980.223	106.33
980.388	41.43
980.554	71.27
980.719	29.42
980.884	44.53
981.049	107.5
981.214	47.24
981.379	59.84
981.544	39.1
981.709	61
981.874	50.73
982.039	53.05
982.204	81.54
982.368	58.67
982.533	59.64
982.698	110.4
982.863	111.57
983.028	47.24
983.193	59.64
983.357	74.17
983.522	89.48
983.687	53.44
983.852	66.81
984.016	69.33
984.181	61.77
984.346	46.85
984.51	66.42
984.675	52.67
984.839	109.05
985.004	89.09
985.168	65.07
985.333	57.7
985.498	48.4
985.662	105.56
985.827	67.59
985.991	56.54
986.155	45.89
986.32	79.79
986.484	100.72
986.649	54.8
986.813	14.5
986.977	59.64
987.142	74.17
987.306	10.62
987.47	22.25
987.634	56.74
987.799	65.84
987.963	57.32
988.127	81.73
988.291	110.4
988.455	49.95
988.62	56.54
988.784	71.07
988.948	76.3
989.112	41.24
989.276	57.32
989.44	55.38
989.604	42.79
989.768	53.64
989.932	135.59
990.096	45.11
990.26	28.45
990.424	15.85
990.588	55.19
990.752	109.43
990.915	98.59
991.079	32.13
991.243	39.69
991.407	89.09
991.571	68.55
991.734	68.94
991.898	99.36
992.062	121.83
992.226	46.27
992.389	46.08
992.553	15.66
992.717	4.23
992.88	46.85
993.044	52.86
993.207	62.55
993.371	70.88
993.535	40.85
993.698	37.36
993.862	68.75
994.025	108.27
994.189	79.21
994.352	59.84
994.515	69.72
994.679	94.13
994.842	27.67
995.006	76.69
995.169	16.82
995.332	36
995.496	70.88
995.659	6.94
995.822	20.12
995.985	55.77
996.149	88.12
996.312	14.69
996.475	125.71
996.638	12.56
996.801	106.92
996.964	122.22
997.128	29.22
997.291	38.14
997.454	53.83
997.617	-10.69
997.78	76.5
997.943	21.47
998.106	87.15
998.269	5.78
998.432	56.74
998.595	34.26
998.758	11.59
998.92	18.95
999.083	11.4
999.246	23.6
999.409	11.79
999.572	-3.33
999.735	11.21
999.897	81.54
1000.06	6.94
1000.223	31.94
1000.386	77.27
1000.548	50.92
1000.711	52.09
1000.874	54.99
1001.036	-25.61
1001.199	99.36
1001.361	35.04
1001.524	16.63
1001.687	79.79
1001.849	4.23
1002.012	36.97
1002.174	30.97
1002.337	34.26
1002.499	22.44
1002.661	76.5
1002.824	-7.59
1002.986	4.23
1003.149	34.26
1003.311	-2.94
1003.473	97.81
1003.636	27.09
1003.798	63.13
1003.96	57.12
1004.123	45.3
1004.285	10.62
1004.447	1.52
1004.609	51.12
1004.771	83.86
1004.933	-0.81
1005.096	-4.1
1005.258	-30.64
1005.42	45.3
1005.582	70.49
1005.744	59.84
1005.906	-10.88
1006.068	19.73
1006.23	-2.74
1006.392	-32.78
1006.554	21.09
1006.716	76.5
1006.878	48.6
1007.04	-1.97
1007.202	22.83
1007.363	45.69
1007.525	34.65
1007.687	45.89
1007.849	77.47
1008.011	-3.13
1008.172	-2.55
1008.334	7.52
1008.496	74.56
1008.658	-25.99
1008.819	10.82
1008.981	-1.78
1009.143	-6.62
1009.304	-6.23
1009.466	28.06
1009.627	110.21
1009.789	120.87
1009.95	34.45
1010.112	-11.27
1010.273	35.62
1010.435	-3.71
1010.596	17.79
1010.758	0.74
1010.919	23.22
1011.081	-29.87
1011.242	22.44
1011.403	47.05
1011.565	20.12
1011.726	77.66
1011.887	-10.88
1012.049	15.85
1012.21	60.03
1012.371	88.32
1012.532	-36.26
1012.693	21.09
1012.855	4.04
1013.016	36.59
1013.177	68.17
1013.338	21.47
1013.499	72.04
1013.66	56.54
1013.821	55.96
1013.982	34.07
1014.143	17.6
1014.304	11.01
1014.465	45.3
1014.626	39.69
1014.787	5.59
1014.948	88.32
1015.109	-67.65
1015.27	68.55
1015.431	-45.76
1015.592	12.95
1015.752	70.88
1015.913	30.39
1016.074	29.03
1016.235	39.88
1016.395	7.72
1016.556	15.27
1016.717	-4.68
1016.877	71.07
1017.038	-9.33
1017.199	38.14
1017.359	15.66
1017.52	16.44
1017.681	-1.97
1017.841	11.4
1018.002	1.71
1018.162	-9.14
1018.323	58.29
1018.483	-2.16
1018.644	7.91
1018.804	0.36
1018.964	-8.75
1019.125	-12.63
1019.285	23.8
1019.446	-7.39
1019.606	-9.72
1019.766	-32.39
1019.926	42.2
1020.087	33.68
1020.247	-24.64
1020.407	29.42
1020.567	60.8
1020.728	6.94
1020.888	-32.39
1021.048	-8.17
1021.208	-8.94
1021.368	-11.08
1021.528	42.79
1021.688	46.85
1021.848	26.51
1022.008	33.49
1022.168	-0.23
1022.328	15.08
1022.488	45.5
1022.648	-9.14
1022.808	11.98
1022.968	16.63
1023.128	14.31
1023.288	14.89
1023.448	23.8
1023.608	25.35
1023.767	3.65
1023.927	-23.48
1024.087	-18.44
1024.247	-31.03
1024.406	-21.34
1024.566	-25.8
1024.726	-4.1
1024.885	33.87
1025.045	52.67
1025.205	-3.71
1025.364	14.89
1025.524	28.06
1025.683	12.37
1025.843	31.74
1026.003	12.56
1026.162	49.37
1026.321	45.5
1026.481	12.37
1026.64	-15.92
1026.8	6.17
1026.959	18.95
1027.119	26.32
1027.278	-4.1
1027.437	-35.88
1027.597	-0.23
1027.756	39.1
1027.915	35.23
1028.074	9.07
1028.234	-19.79
1028.393	25.15
1028.552	6.17
1028.711	-74.24
1028.87	39.3
1029.03	-34.91
1029.189	-6.23
1029.348	-74.82
1029.507	2.1
1029.666	0.36
1029.825	-29.48
1029.984	-15.53
1030.143	-11.66
1030.302	-7.01
1030.461	-58.35
1030.62	-5.65
1030.779	44.14
1030.938	-3.13
1031.097	-11.66
1031.255	16.24
1031.414	31.74
1031.573	41.24
1031.732	-51.38
1031.891	-9.91
1032.049	28.64
1032.208	37.55
1032.367	-20.18
1032.525	7.52
1032.684	11.21
1032.843	18.18
1033.001	-32.19
1033.16	168.33
1033.319	35.42
1033.477	32.13
1033.636	-16.89
1033.794	-40.53
1033.953	30.97
1034.111	20.89
1034.27	-11.46
1034.428	15.85
1034.587	-19.41
1034.745	-0.61
1034.903	17.99
1035.062	20.5
1035.22	-41.88
1035.378	48.02
1035.537	-19.41
1035.695	40.65
1035.853	-8.17
1036.011	26.32
1036.17	6.75
1036.328	-54.48
1036.486	8.88
1036.644	30.97
1036.802	-55.44
1036.96	-44.79
1037.119	4.42
1037.277	-9.14
1037.435	-33.16
1037.593	-28.32
1037.751	6.75
1037.909	20.31
1038.067	20.31
