Data from pine_FLMT105791__55__17-20-55-078.txt Node

Date: Mon Mar 20 17:20:55 GMT 2023
User: antho
Spectrometer: FLMT10579
Trigger mode: 0
Integration Time (sec): 1.000000E-1
Scans to average: 10
Electric dark correction enabled: true
Nonlinearity correction enabled: false
Boxcar width: 0
XAxis mode: Wavelengths
Number of Pixels in Spectrum: 3648
>>>>>Begin Spectral Data<<<<<
345.248	-177.7
345.464	-177.7
345.681	-177.7
345.898	-153.48
346.114	-148.25
346.331	-44.01
346.548	45.5
346.764	-15.92
346.981	-11.08
347.197	-2.74
347.414	43.56
347.631	-1.78
347.847	48.79
348.064	-15.14
348.28	1.32
348.497	-41.11
348.713	-7.39
348.93	34.26
349.146	34.45
349.363	15.08
349.579	50.54
349.796	28.06
350.012	16.05
350.229	17.99
350.445	-4.29
350.661	-39.56
350.878	4.42
351.094	26.12
351.311	20.12
351.527	26.32
351.743	3.26
351.96	37.17
352.176	52.28
352.392	27.67
352.609	29.61
352.825	1.13
353.041	19.15
353.257	-2.16
353.474	21.86
353.69	4.04
353.906	-4.1
354.122	-16.11
354.339	60.22
354.555	7.72
354.771	12.37
354.987	69.14
355.203	52.67
355.42	-25.99
355.636	5.2
355.852	4.62
356.068	6.75
356.284	-34.13
356.5	56.74
356.716	19.54
356.932	-7.59
357.148	41.24
357.364	23.99
357.58	48.99
357.796	61.77
358.012	70.69
358.228	22.83
358.444	-57.58
358.66	43.17
358.876	33.1
359.092	-8.75
359.308	40.27
359.524	11.98
359.74	3.65
359.956	5.2
360.172	1.71
360.388	37.75
360.604	-2.94
360.819	82.89
361.035	26.32
361.251	31.35
361.467	-1.78
361.683	50.73
361.898	25.35
362.114	82.89
362.33	31.55
362.546	54.8
362.762	15.08
362.977	13.14
363.193	-27.35
363.409	45.89
363.624	-19.02
363.84	-21.54
364.056	-10.11
364.271	27.87
364.487	10.62
364.703	-2.36
364.918	-12.82
365.134	8.69
365.35	-3.33
365.565	97.23
365.781	23.6
365.996	24.38
366.212	71.27
366.427	25.74
366.643	10.43
366.858	-0.03
367.074	-15.92
367.289	88.9
367.505	117.96
367.72	-37.62
367.936	-2.55
368.151	46.47
368.367	34.26
368.582	5.97
368.798	-6.23
369.013	38.52
369.228	30
369.444	23.02
369.659	48.6
369.874	47.44
370.09	72.82
370.305	-52.54
370.52	-30.64
370.736	40.65
370.951	-5.26
371.166	57.7
371.381	81.54
371.597	68.36
371.812	6.56
372.027	-5.07
372.242	25.93
372.458	87.35
372.673	0.55
372.888	3.84
373.103	38.33
373.318	117.96
373.533	30.39
373.749	21.47
373.964	-21.93
374.179	56.54
374.394	22.64
374.609	71.07
374.824	28.25
375.039	48.6
375.254	-14.37
375.469	71.85
375.684	47.82
375.899	39.3
376.114	33.68
376.329	30.39
376.544	40.07
376.759	46.08
376.974	-8.56
377.189	16.63
377.404	15.47
377.619	53.25
377.834	-34.13
378.049	-18.44
378.264	-17.86
378.478	28.64
378.693	-7.2
378.908	53.44
379.123	-12.24
379.338	66.81
379.553	27.29
379.767	52.47
379.982	48.79
380.197	41.43
380.412	39.3
380.626	60.42
380.841	64.68
381.056	28.06
381.271	72.24
381.485	18.76
381.7	-32.19
381.915	29.03
382.129	-9.14
382.344	27.48
382.559	13.72
382.773	70.49
382.988	-22.12
383.202	49.76
383.417	14.11
383.632	131.52
383.846	10.82
384.061	29.61
384.275	19.73
384.49	30.39
384.704	53.83
384.919	44.53
385.133	38.52
385.348	59.84
385.562	-13.79
385.777	64.49
385.991	32.52
386.206	11.21
386.42	18.57
386.634	51.89
386.849	31.94
387.063	24.96
387.277	3.07
387.492	-5.46
387.706	5.97
387.92	-21.15
388.135	62.35
388.349	36.78
388.563	46.08
388.778	42.4
388.992	29.42
389.206	65.45
389.42	103.82
389.635	26.51
389.849	81.15
390.063	62.74
390.277	34.84
390.491	74.56
390.706	38.72
390.92	85.6
391.134	47.63
391.348	52.86
391.562	5.78
391.776	0.74
391.99	18.76
392.205	72.43
392.419	13.34
392.633	26.7
392.847	77.66
393.061	6.17
393.275	105.75
393.489	41.82
393.703	48.99
393.917	62.55
394.131	13.14
394.345	64.29
394.559	63.52
394.773	18.37
394.986	27.87
395.2	43.56
395.414	63.71
395.628	29.22
395.842	36
396.056	27.48
396.27	-17.28
396.484	61
396.697	30
396.911	68.36
397.125	48.79
397.339	87.15
397.553	37.55
397.766	98.78
397.98	71.07
398.194	93.74
398.408	4.23
398.621	49.57
398.835	51.31
399.049	56.54
399.262	84.05
399.476	72.43
399.69	66.81
399.903	125.13
400.117	38.91
400.331	70.49
400.544	6.94
400.758	118.93
400.971	68.36
401.185	74.75
401.398	20.5
401.612	76.11
401.826	80.18
402.039	63.9
402.253	48.02
402.466	65.65
402.68	52.67
402.893	77.27
403.106	57.12
403.32	26.32
403.533	77.47
403.747	66.42
403.96	63.32
404.174	87.15
404.387	9.27
404.6	58.29
404.814	88.7
405.027	55.77
405.24	64.49
405.454	45.69
405.667	90.64
405.88	-34.71
406.094	48.21
406.307	71.85
406.52	77.66
406.733	-7.59
406.947	-19.41
407.16	97.62
407.373	83.47
407.586	11.21
407.799	11.01
408.012	71.07
408.226	71.65
408.439	97.42
408.652	6.94
408.865	79.6
409.078	63.9
409.291	88.51
409.504	21.47
409.717	67.59
409.93	76.5
410.143	76.11
410.357	18.37
410.57	11.4
410.783	71.65
410.996	29.42
411.209	58.29
411.421	78.44
411.634	51.89
411.847	30.58
412.06	62.55
412.273	42.01
412.486	52.28
412.699	127.26
412.912	40.85
413.125	74.56
413.338	91.03
413.55	61.58
413.763	65.45
413.976	95.29
414.189	54.41
414.402	50.73
414.615	101.69
414.827	15.66
415.04	86.96
415.253	84.25
415.466	93.35
415.678	130.94
415.891	55.19
416.104	39.49
416.316	40.85
416.529	49.57
416.742	74.95
416.954	81.34
417.167	97.42
417.38	56.35
417.592	104.78
417.805	29.8
418.017	21.67
418.23	90.25
418.442	60.8
418.655	69.91
418.868	77.47
419.08	112.53
419.293	108.85
419.505	91.61
419.718	95.68
419.93	108.66
420.142	40.27
420.355	99.55
420.567	112.92
420.78	102.85
420.992	69.33
421.205	123.19
421.417	37.55
421.629	63.9
421.842	28.25
422.054	14.11
422.266	104.59
422.479	103.04
422.691	74.75
422.903	103.04
423.115	84.64
423.328	100.33
423.54	79.6
423.752	70.1
423.964	33.68
424.177	97.62
424.389	100.33
424.601	181.32
424.813	76.69
425.025	125.32
425.238	147.41
425.45	52.28
425.662	84.64
425.874	385.14
426.086	75.14
426.298	108.66
426.51	109.05
426.722	101.88
426.934	81.54
427.146	140.82
427.358	44.53
427.57	119.51
427.782	94.13
427.994	106.72
428.206	64.68
428.418	61.58
428.63	107.88
428.842	143.34
429.054	112.53
429.266	122.22
429.478	87.35
429.69	91.42
429.902	95.68
430.114	106.72
430.325	98.97
430.537	87.15
430.749	86.19
430.961	48.6
431.173	90.25
431.384	104.78
431.596	23.41
431.808	97.81
432.02	111.37
432.231	164.07
432.443	106.14
432.655	110.4
432.867	96.45
433.078	121.83
433.29	180.35
433.502	150.12
433.713	182.48
433.925	143.92
434.136	168.92
434.348	82.5
434.56	71.65
434.771	211.35
434.983	103.04
435.194	101.3
435.406	121.45
435.617	191.97
435.829	201.66
436.04	181.9
436.252	186.55
436.463	177.83
436.675	172.98
436.886	155.55
437.098	173.95
437.309	223.55
437.521	180.15
437.732	206.89
437.943	167.37
438.155	177.44
438.366	125.9
438.578	240.8
438.789	164.65
439	204.37
439.211	154.19
439.423	178.6
439.634	197.78
439.845	214.64
440.057	190.03
440.268	243.7
440.479	140.82
440.69	185.38
440.902	189.65
441.113	192.55
441.324	199.33
441.535	202.05
441.746	261.33
441.957	168.53
442.168	178.99
442.38	220.26
442.591	262.88
442.802	156.32
443.013	196.62
443.224	232.85
443.435	226.07
443.646	190.61
443.857	203.01
444.068	196.23
444.279	174.15
444.49	296.98
444.701	220.84
444.912	328.18
445.123	240.6
445.334	240.02
445.545	283.23
445.756	211.15
445.967	199.33
446.178	245.06
446.388	249.13
446.599	284
446.81	265.01
447.021	197.4
447.232	295.24
447.443	290.59
447.653	211.73
447.864	286.71
448.075	247.77
448.286	283.61
448.496	269.86
448.707	280.71
448.918	256.88
449.129	313.84
449.339	236.73
449.55	261.91
449.761	271.99
449.971	294.85
450.182	252.03
450.393	307.83
450.603	267.15
450.814	303.76
451.024	275.28
451.235	312.68
451.446	365.76
451.656	361.5
451.867	263.66
452.077	306.28
452.288	352.01
452.498	343.87
452.709	270.44
452.919	307.64
453.13	231.3
453.34	348.52
453.55	237.7
453.761	312.68
453.971	314.23
454.182	343.09
454.392	299.31
454.602	372.54
454.813	329.34
455.023	346.39
455.233	277.8
455.444	316.94
455.654	233.05
455.864	303.76
456.075	290.01
456.285	284.39
456.495	277.03
456.705	301.83
456.916	358.4
457.126	347.74
457.336	320.81
457.546	261.14
457.756	310.74
457.967	365.76
458.177	304.93
458.387	321.78
458.597	266.56
458.807	323.33
459.017	301.44
459.227	305.7
459.437	316.16
459.647	347.94
459.857	328.95
460.068	310.93
460.278	370.41
460.488	350.46
460.698	385.14
460.908	326.24
461.117	297.76
461.327	311.9
461.537	329.92
461.747	337.09
461.957	346.97
462.167	451.21
462.377	403.35
462.587	355.11
462.797	377.19
463.007	349.49
463.216	374.09
463.426	423.5
463.636	386.3
463.846	317.52
464.056	325.85
464.265	380.29
464.475	328.37
464.685	350.26
464.895	378.74
465.104	366.92
465.314	414.97
465.524	327.21
465.733	338.83
465.943	440.74
466.153	421.95
466.362	399.09
466.572	389.01
466.782	363.24
466.991	405.09
467.201	420.21
467.41	320.62
467.62	400.06
467.829	370.61
468.039	437.45
468.249	395.02
468.458	390.76
468.668	405.09
468.877	413.81
469.086	476
469.296	462.44
469.505	386.49
469.715	472.32
469.924	427.96
470.134	452.75
470.343	441.71
470.552	399.47
470.762	406.06
470.971	381.65
471.18	418.46
471.39	391.72
471.599	394.44
471.808	428.92
472.018	389.21
472.227	480.27
472.436	500.03
472.645	445.59
472.855	415.94
473.064	494.6
473.273	456.44
473.482	492.86
473.691	500.42
473.901	489.57
474.11	449.85
474.319	527.35
474.528	476
474.737	511.65
474.946	516.69
475.155	485.89
475.364	510.3
475.573	500.8
475.783	507
475.992	500.03
476.201	535.29
476.41	505.07
476.619	479.3
476.828	513.4
477.037	489.76
477.245	513.01
477.454	553.5
477.663	524.83
477.872	508.55
478.081	591.28
478.29	532.58
478.499	597.87
478.708	531.42
478.917	592.06
479.125	548.47
479.334	550.98
479.543	550.98
479.752	575.4
479.961	583.15
480.169	588.38
480.378	563.38
480.587	660.65
480.796	618.22
481.004	562.8
481.213	590.9
481.422	596.71
481.63	602.91
481.839	633.71
482.048	669.95
482.256	631.2
482.465	637.4
482.674	660.65
482.882	642.24
483.091	697.07
483.299	644.37
483.508	671.5
483.716	631.58
483.925	685.83
484.134	603.49
484.342	613.76
484.551	699.59
484.759	675.76
484.967	668.59
485.176	699.59
485.384	692.61
485.593	711.8
485.801	692.23
486.01	652.9
486.218	625.38
486.426	550.98
486.635	598.84
486.843	611.24
487.051	614.92
487.26	619.77
487.468	639.33
487.676	700.75
487.885	636.81
488.093	677.7
488.301	708.11
488.509	711.6
488.717	718.77
488.926	700.36
489.134	705.21
489.342	731.17
489.55	688.55
489.758	715.09
489.967	709.47
490.175	824.17
490.383	751.13
490.591	796.27
490.799	729.81
491.007	807.89
491.215	772.63
491.423	745.89
491.631	785.61
491.839	772.05
492.047	797.43
492.255	724.58
492.463	689.13
492.671	748.41
492.879	811.19
493.087	751.51
493.295	804.99
493.503	817
493.711	794.72
493.919	846.45
494.127	848.19
494.334	850.13
494.542	777.09
494.75	838.7
494.958	801.89
495.166	870.09
495.374	866.41
495.581	860.59
495.789	822.04
495.997	896.63
496.205	826.49
496.412	839.28
496.62	851.49
496.828	847.03
497.035	859.24
497.243	858.27
497.451	864.86
497.658	856.52
497.866	860.01
498.074	936.74
498.281	828.82
498.489	924.72
498.696	829.59
498.904	836.37
499.112	852.65
499.319	947.78
499.527	867.18
499.734	922.01
499.942	852.46
500.149	849.36
500.357	867.37
500.564	852.65
500.771	894.11
500.979	874.93
501.186	839.67
501.394	887.52
501.601	882.29
501.808	898.95
502.016	879.39
502.223	865.82
502.43	876.09
502.638	875.32
502.845	854.01
503.052	968.51
503.26	869.89
503.467	985.37
503.674	938.67
503.881	928.99
504.089	974.13
504.296	964.25
504.503	879.77
504.71	911.94
504.917	909.61
505.125	919.88
505.332	928.4
505.539	950.1
505.746	1012.88
505.953	1008.81
506.16	1014.23
506.367	1004.55
506.574	1025.08
506.781	1036.9
506.988	944.87
507.195	1002.03
507.402	981.1
507.609	1012.88
507.816	982.46
508.023	979.75
508.23	990.98
508.437	900.5
508.644	1032.06
508.851	1054.53
509.058	1028.18
509.265	1018.3
509.472	1040.58
509.679	1128.74
509.885	1044.65
510.092	994.67
510.299	1001.83
510.506	1027.99
510.713	1055.89
510.92	1019.47
511.126	1062.28
511.333	1118.66
511.54	1077.78
511.746	1125.25
511.953	1134.75
512.16	1140.75
512.367	1041.55
512.573	1083.01
512.78	1105.1
512.987	1084.18
513.193	1100.65
513.4	1028.18
513.606	1060.54
513.813	1088.83
514.02	1095.22
514.226	1154.7
514.433	1151.41
514.639	1066.74
514.846	1090.76
515.052	1096
515.259	1109.56
515.465	1122.54
515.672	1133.39
515.878	1180.47
516.085	1136.49
516.291	1210.89
516.497	1134.16
516.704	1127.96
516.91	1070.42
517.117	1033.03
517.323	1014.62
517.529	1072.75
517.736	1045.43
517.942	1056.28
518.148	1039.81
518.354	1090.38
518.561	1102.2
518.767	1116.53
518.973	1112.46
519.179	1133.39
519.386	1126.22
519.592	1149.47
519.798	1115.56
520.004	1240.53
520.21	1196.16
520.417	1230.07
520.623	1251.77
520.829	1271.53
521.035	1258.94
521.241	1268.04
521.447	1289.16
521.653	1357.17
521.859	1269.79
522.065	1266.11
522.271	1394.75
522.477	1363.56
522.683	1385.07
522.889	1338.57
523.095	1351.16
523.301	1316.87
523.507	1271.92
523.713	1316.67
523.919	1255.26
524.125	1366.66
524.331	1317.64
524.537	1410.64
524.742	1407.35
524.948	1419.36
525.154	1408.32
525.36	1487.95
525.566	1375.57
525.772	1433.12
525.977	1361.62
526.183	1440.67
526.389	1456.95
526.595	1348.45
526.8	1355.23
527.006	1301.37
527.212	1274.63
527.417	1277.73
527.623	1261.46
527.829	1333.53
528.034	1392.43
528.24	1384.68
528.446	1350.19
528.651	1461.98
528.857	1450.75
529.062	1523.79
529.268	1467.6
529.473	1471.28
529.679	1455.2
529.884	1544.71
530.09	1512.16
530.295	1540.06
530.501	1585.79
530.706	1524.95
530.912	1455.01
531.117	1502.86
531.323	1530.18
531.528	1553.05
531.733	1561.96
531.939	1476.13
532.144	1560.6
532.35	1507.13
532.555	1580.75
532.76	1517.59
532.966	1550.91
533.171	1523.98
533.376	1460.82
533.581	1450.17
533.787	1516.62
533.992	1524.56
534.197	1602.45
534.402	1511.78
534.607	1553.82
534.813	1625.31
535.018	1546.26
535.223	1575.71
535.428	1606.91
535.633	1607.49
535.838	1633.26
536.043	1615.24
536.249	1707.66
536.454	1604.97
536.659	1654.18
536.864	1615.43
537.069	1604.39
537.274	1603.61
537.479	1606.71
537.684	1654.18
537.889	1611.56
538.094	1671.04
538.299	1611.36
538.504	1682.47
538.708	1635.78
538.913	1682.47
539.118	1622.41
539.323	1628.8
539.528	1610.2
539.733	1625.12
539.938	1641.78
540.142	1639.65
540.347	1594.51
540.552	1576.3
540.757	1610.78
540.962	1552.08
541.166	1554.21
541.371	1566.8
541.576	1580.95
541.781	1540.26
541.985	1629.77
542.19	1641.39
542.395	1721.22
542.599	1679.17
542.804	1697.58
543.008	1699.71
543.213	1633.45
543.418	1634.81
543.622	1666.78
543.827	1622.99
544.031	1695.26
544.236	1707.07
544.44	1682.08
544.645	1782.64
544.849	1642.36
545.054	1711.72
545.258	1805.3
545.463	1729.74
545.667	1672.2
545.872	1735.94
546.076	1749.89
546.281	1715.99
546.485	1666.97
546.689	1716.76
546.894	1738.46
547.098	1707.27
547.302	1674.14
547.507	1695.64
547.711	1738.85
547.915	1749.31
548.119	1652.44
548.324	1708.24
548.528	1761.71
548.732	1703.59
548.936	1769.27
549.141	1763.45
549.345	1717.54
549.549	1733.62
549.753	1775.85
549.957	1808.79
550.161	1822.16
550.366	1789.22
550.57	1704.36
550.774	1762.87
550.978	1758.22
551.182	1774.3
551.386	1732.65
551.59	1719.86
551.794	1714.82
551.998	1773.92
552.202	1766.55
552.406	1720.64
552.61	1786.32
552.814	1768.3
553.018	1787.29
553.222	1744.27
553.426	1732.84
553.63	1848.7
553.833	1719.47
554.037	1685.76
554.241	1778.76
554.445	1771.98
554.649	1754.93
554.853	1725.48
555.056	1808.02
555.26	1804.72
555.464	1788.45
555.668	1775.85
555.871	1807.44
556.075	1757.06
556.279	1718.51
556.483	1650.69
556.686	1752.61
556.89	1734.2
557.094	1746.21
557.297	1670.46
557.501	1755.51
557.704	1695.26
557.908	1759.58
558.112	1715.79
558.315	1780.7
558.519	1698.74
558.722	1688.67
558.926	1685.18
559.129	1639.46
559.333	1605.74
559.536	1651.28
559.74	1627.83
559.943	1602.64
560.147	1628.8
560.35	1629.19
560.553	1622.21
560.757	1609.81
560.96	1687.12
561.164	1680.14
561.367	1729.74
561.57	1638.29
561.774	1690.02
561.977	1635.78
562.18	1638.29
562.384	1720.64
562.587	1653.02
562.79	1637.91
562.993	1650.89
563.197	1692.74
563.4	1712.69
563.603	1667.94
563.806	1734.2
564.009	1613.11
564.212	1636.16
564.416	1612.91
564.619	1678.4
564.822	1584.82
565.025	1677.04
565.228	1597.03
565.431	1629.77
565.634	1559.63
565.837	1575.13
566.04	1604
566.243	1557.31
566.446	1509.26
566.649	1585.01
566.852	1553.63
567.055	1571.65
567.258	1629.58
567.461	1650.89
567.664	1628.22
567.867	1511
568.07	1576.49
568.273	1548.98
568.475	1625.31
568.678	1543.16
568.881	1542.78
569.084	1520.88
569.287	1441.83
569.489	1495.7
569.692	1562.15
569.895	1571.84
570.098	1474.97
570.3	1490.27
570.503	1406.96
570.706	1417.62
570.909	1436.6
571.111	1440.48
571.314	1406.96
571.516	1434.28
571.719	1451.72
571.922	1433.89
572.124	1457.53
572.327	1450.55
572.529	1404.83
572.732	1431.76
572.935	1481.55
573.137	1498.22
573.34	1438.15
573.542	1484.85
573.745	1478.26
573.947	1492.21
574.15	1434.08
574.352	1406.96
574.554	1474.38
574.757	1425.95
574.959	1378.67
575.162	1404.44
575.364	1377.9
575.566	1482.13
575.769	1367.82
575.971	1416.07
576.173	1304.47
576.376	1377.51
576.578	1431.57
576.78	1472.64
576.982	1294.39
577.185	1406.19
577.387	1329.65
577.589	1347.48
577.791	1409.29
577.993	1361.24
578.196	1385.26
578.398	1383.32
578.6	1416.45
578.802	1324.23
579.004	1354.07
579.206	1327.33
579.408	1403.28
579.61	1326.36
579.812	1402.89
580.014	1328.1
580.216	1358.14
580.418	1352.32
580.62	1338.37
580.822	1304.08
581.024	1344.38
581.226	1372.67
581.428	1344.96
581.63	1451.52
581.832	1313.38
582.034	1412.58
582.236	1378.09
582.438	1427.11
582.64	1385.65
582.841	1427.3
583.043	1454.62
583.245	1383.32
583.447	1423.23
583.649	1388.55
583.85	1388.55
584.052	1439.9
584.254	1357.94
584.456	1442.8
584.657	1330.82
584.859	1402.31
585.061	1376.74
585.262	1359.3
585.464	1307.76
585.666	1397.27
585.867	1344.96
586.069	1421.3
586.27	1364.53
586.472	1343.8
586.674	1375.57
586.875	1332.17
587.077	1318.22
587.278	1336.24
587.48	1306.79
587.681	1435.83
587.883	1363.95
588.084	1258.16
588.285	1307.76
588.487	1302.14
588.688	1318.42
588.89	1231.23
589.091	1233.36
589.292	1217.86
589.494	1162.84
589.695	1163.23
589.896	1083.6
590.098	1138.23
590.299	1191.71
590.5	1157.61
590.702	1171.75
590.903	1178.92
591.104	1264.94
591.305	1235.69
591.507	1299.43
591.708	1243.05
591.909	1198.49
592.11	1315.51
592.311	1248.47
592.512	1219.41
592.714	1189.19
592.915	1201.2
593.116	1224.45
593.317	1239.17
593.518	1223.29
593.719	1222.13
593.92	1265.91
594.121	1282.77
594.322	1240.72
594.523	1239.56
594.724	1198.1
594.925	1197.91
595.126	1254.29
595.327	1224.26
595.528	1242.08
595.729	1208.37
595.929	1224.64
596.13	1209.73
596.331	1201.78
596.532	1247.31
596.733	1269.21
596.934	1288.97
597.135	1280.83
597.335	1250.22
597.536	1171.94
597.737	1237.43
597.938	1205.27
598.138	1240.92
598.339	1242.86
598.54	1263.59
598.74	1204.88
598.941	1202.56
599.142	1282.57
599.342	1248.86
599.543	1200.23
599.744	1214.38
599.944	1231.23
600.145	1222.13
600.345	1235.11
600.546	1301.56
600.746	1268.04
600.947	1328.69
601.147	1215.54
601.348	1291.68
601.548	1227.16
601.749	1226.19
601.949	1170.01
602.15	1211.47
602.35	1233.94
602.551	1259.13
602.751	1176.59
602.951	1209.73
603.152	1142.5
603.352	1224.26
603.552	1213.41
603.753	1244.21
603.953	1258.36
604.153	1223.48
604.354	1205.08
604.554	1190.74
604.754	1221.35
604.954	1195.39
605.155	1253.9
605.355	1217.48
605.555	1310.28
605.755	1281.61
605.955	1223.09
606.155	1268.62
606.356	1199.07
606.556	1260.49
606.756	1249.44
606.956	1175.04
607.156	1280.44
607.356	1198.49
607.556	1199.46
607.756	1243.24
607.956	1279.09
608.156	1244.6
608.356	1186.67
608.556	1250.61
608.756	1221.16
608.956	1194.61
609.156	1224.84
609.356	1173.88
609.556	1165.36
609.755	1214.57
609.955	1186.09
610.155	1204.3
610.355	1203.53
610.555	1153.93
610.755	1154.89
610.954	1093.48
611.154	1186.48
611.354	1201.78
611.554	1141.14
611.753	1160.9
611.953	1120.41
612.153	1192.87
612.352	1159.93
612.552	1112.08
612.752	1074.3
612.951	1162.45
613.151	1143.85
613.351	1096.58
613.55	1145.01
613.75	1165.36
613.949	1127.19
614.149	1142.69
614.348	1126.03
614.548	1067.13
614.747	1045.82
614.947	1104.13
615.146	1043.49
615.346	1137.46
615.545	1124.28
615.745	1073.52
615.944	1144.43
616.144	1127.38
616.343	1122.35
616.542	1096.19
616.742	1079.14
616.941	1069.06
617.14	1020.43
617.34	1101.61
617.539	1083.6
617.738	1049.69
617.938	1158.38
618.137	1068.68
618.336	1057.63
618.535	1137.07
618.734	1083.01
618.934	1081.66
619.133	1086.7
619.332	1102.39
619.531	1068.1
619.73	1091.54
619.929	1120.8
620.128	1115.18
620.328	1123.12
620.527	1080.11
620.726	1078.95
620.925	1105.49
621.124	1095.03
621.323	1101.23
621.522	1045.04
621.721	1073.91
621.92	1037.68
622.119	1102
622.318	1046.2
622.517	1059.77
622.715	1059.77
622.914	1015.01
623.113	1050.27
623.312	980.52
623.511	1067.32
623.71	1030.9
623.909	1008.81
624.107	1095.8
624.306	1012.49
624.505	1008.62
624.704	1036.13
624.902	1030.9
625.101	1088.44
625.3	1055.5
625.499	1012.1
625.697	1018.3
625.896	1000.28
626.095	1007.07
626.293	977.81
626.492	1003.77
626.69	1045.04
626.889	953.79
627.088	1029.73
627.286	1002.42
627.485	997.77
627.683	966.38
627.882	1001.45
628.08	905.74
628.279	938.67
628.477	1027.6
628.676	941.19
628.874	997.77
629.073	954.95
629.271	918.72
629.469	975.1
629.668	955.34
629.866	928.79
630.065	927.82
630.263	992.73
630.461	935.96
630.66	982.27
630.858	1000.28
631.056	1030.12
631.254	989.05
631.453	960.76
631.651	982.07
631.849	968.32
632.047	1005.9
632.245	990.02
632.444	993.89
632.642	1011.72
632.84	986.14
633.038	962.5
633.236	965.99
633.434	936.54
633.632	930.15
633.83	972.97
634.028	1005.71
634.227	974.32
634.425	1050.66
634.623	1002.8
634.821	966.38
635.019	998.15
635.216	932.28
635.414	1017.72
635.612	963.67
635.81	963.86
636.008	1031.28
636.206	956.69
636.404	1002.42
636.602	954.37
636.8	977.03
636.997	983.23
637.195	996.8
637.393	972.39
637.591	1023.92
637.789	997.57
637.986	987.69
638.184	997.96
638.382	1014.82
638.58	1011.52
638.777	1056.28
638.975	981.49
639.173	990.4
639.37	972.97
639.568	1008.03
639.765	1046.98
639.963	967.35
640.161	995.44
640.358	972.77
640.556	951.46
640.753	911.74
640.951	927.63
641.148	983.43
641.346	940.42
641.543	955.14
641.741	957.66
641.938	928.99
642.136	925.89
642.333	905.15
642.531	990.98
642.728	997.77
642.925	950.49
643.123	941.97
643.32	939.84
643.517	940.8
643.715	928.99
643.912	913.29
644.109	954.17
644.306	929.95
644.504	903.6
644.701	936.15
644.898	955.34
645.095	926.66
645.293	914.84
645.49	943.13
645.687	918.14
645.884	962.31
646.081	847.42
646.278	886.94
646.475	895.08
646.672	877.64
646.87	932.09
647.067	914.45
647.264	910.77
647.461	867.57
647.658	790.07
647.855	897.21
648.052	835.79
648.249	783.09
648.446	843.54
648.642	822.62
648.839	835.21
649.036	807.12
649.233	791.62
649.43	824.56
649.627	787.94
649.824	806.34
650.021	793.36
650.217	779.61
650.414	792.59
650.611	848.58
650.808	860.21
651.004	860.4
651.201	837.73
651.398	898.76
651.595	832.69
651.791	814.09
651.988	862.72
652.185	801.5
652.381	868.54
652.578	778.64
652.775	832.31
652.971	837.54
653.168	818.36
653.364	846.06
653.561	786.39
653.757	827.27
653.954	835.41
654.15	760.81
654.347	895.08
654.543	798.98
654.74	789.29
654.936	742.02
655.133	796.46
655.329	773.21
655.525	765.08
655.722	835.02
655.918	786.19
656.115	809.64
656.311	703.08
656.507	668.78
656.704	681.96
656.9	693.39
657.096	690.1
657.292	676.73
657.489	779.99
657.685	759.84
657.881	736.01
658.077	734.85
658.273	738.92
658.47	836.37
658.666	773.6
658.862	803.44
659.058	746.28
659.254	798.79
659.45	755.97
659.646	799.37
659.842	779.99
660.038	810.22
660.234	784.64
660.43	748.41
660.626	841.61
660.822	808.47
661.018	816.42
661.214	763.91
661.41	770.5
661.606	809.83
661.802	826.88
661.998	742.99
662.194	741.44
662.39	804.02
662.586	792.59
662.781	810.8
662.977	808.47
663.173	846.64
663.369	766.43
663.564	790.26
663.76	815.26
663.956	722.84
664.152	826.88
664.347	740.28
664.543	776.31
664.739	773.79
664.934	707.34
665.13	691.65
665.326	800.92
665.521	761.78
665.717	724.78
665.912	724.78
666.108	698.23
666.304	736.79
666.499	770.69
666.695	642.24
666.89	768.18
667.086	746.09
667.281	756.36
667.477	796.27
667.672	736.98
667.867	757.33
668.063	719.74
668.258	692.42
668.454	711.02
668.649	813.32
668.844	703.85
669.04	775.93
669.235	722.45
669.43	722.64
669.626	682.54
669.821	692.42
670.016	704.05
670.211	725.74
670.407	699.59
670.602	708.89
670.797	700.95
670.992	751.32
671.187	670.14
671.382	757.91
671.578	700.17
671.773	755.58
671.968	647.47
672.163	681.96
672.358	690.87
672.553	680.99
672.748	676.92
672.943	760.23
673.138	697.07
673.333	702.11
673.528	684.67
673.723	723.42
673.918	703.08
674.113	627.32
674.308	766.63
674.503	714.89
674.698	748.61
674.892	685.83
675.087	739.5
675.282	730.01
675.477	686.8
675.672	694.94
675.867	682.15
676.061	643.6
676.256	668.59
676.451	672.08
676.646	690.29
676.84	680.41
677.035	640.69
677.23	643.79
677.424	684.67
677.619	740.28
677.814	713.93
678.008	722.45
678.203	630.42
678.397	654.64
678.592	706.76
678.787	772.24
678.981	649.6
679.176	705.6
679.37	676.92
679.565	655.41
679.759	673.82
679.954	672.46
680.148	742.02
680.342	734.27
680.537	698.81
680.731	672.08
680.926	710.25
681.12	721.09
681.314	644.56
681.509	677.11
681.703	686.8
681.897	727.88
682.092	671.3
682.286	701.33
682.48	751.32
682.674	721.68
682.869	669.17
683.063	677.5
683.257	747.25
683.451	663.16
683.645	703.08
683.839	706.56
684.034	653.86
684.228	731.56
684.422	648.63
684.616	636.43
684.81	720.9
685.004	678.08
685.198	681.76
685.392	721.87
685.586	676.34
685.78	697.07
685.974	687
686.168	673.63
686.362	713.54
686.556	630.03
686.75	589.73
686.944	594.97
687.138	598.84
687.331	517.27
687.525	526.77
687.719	480.07
687.913	512.82
688.107	545.37
688.301	524.44
688.494	568.03
688.688	552.53
688.882	536.84
689.076	526.96
689.269	549.63
689.463	651.15
689.657	558.73
689.85	542.85
690.044	576.17
690.238	569.78
690.431	578.3
690.625	580.05
690.818	610.47
691.012	584.31
691.205	621.32
691.399	569.58
691.593	664.71
691.786	680.99
691.98	656.77
692.173	713.73
692.366	658.13
692.56	686.22
692.753	761.39
692.947	641.27
693.14	724.39
693.333	735.24
693.527	668.01
693.72	731.36
693.914	694.16
694.107	697.07
694.3	732.72
694.493	710.25
694.687	760.62
694.88	699.59
695.073	798.4
695.266	772.24
695.46	748.99
695.653	794.33
695.846	819.13
696.039	744.54
696.232	743.76
696.425	821.84
696.618	839.09
696.812	823.97
697.005	870.09
697.198	928.02
697.391	876.87
697.584	879.97
697.777	958.44
697.97	952.24
698.163	961.54
698.356	878.22
698.549	971.42
698.742	951.65
698.935	903.8
699.127	928.4
699.32	890.04
699.513	932.86
699.706	934.6
699.899	980.72
700.092	915.42
700.285	964.05
700.477	935.77
700.67	996.8
700.863	980.13
701.056	1070.81
701.248	1028.77
701.441	1028.77
701.634	977.23
701.826	1133
702.019	994.28
702.212	1076.43
702.404	1018.3
702.597	1027.02
702.79	1048.92
702.982	1124.48
703.175	1108.4
703.367	1130.48
703.56	1147.53
703.752	1195.97
703.945	1187.44
704.137	1174.27
704.33	1198.68
704.522	1185.51
704.715	1202.56
704.907	1219.22
705.1	1254.29
705.292	1255.84
705.484	1237.24
705.677	1288
705.869	1279.09
706.061	1330.04
706.254	1329.27
706.446	1287.42
706.638	1312.22
706.831	1367.05
707.023	1328.88
707.215	1422.27
707.407	1409.87
707.599	1401.92
707.792	1443.77
707.984	1395.14
708.176	1482.72
708.368	1433.12
708.56	1424.98
708.752	1435.83
708.944	1436.22
709.136	1489.3
709.329	1446.1
709.521	1542.58
709.713	1533.67
709.905	1519.91
710.097	1558.66
710.289	1522.43
710.481	1534.45
710.672	1548.78
710.864	1579.2
711.056	1628.61
711.248	1617.18
711.44	1641.59
711.632	1599.93
711.824	1610.39
712.016	1718.89
712.207	1668.33
712.399	1653.79
712.591	1759.58
712.783	1694.29
712.975	1699.71
713.166	1671.04
713.358	1706.3
713.55	1764.62
713.741	1763.45
713.933	1758.81
714.125	1776.24
714.316	1723.16
714.508	1811.7
714.7	1833.59
714.891	1805.3
715.083	1882.42
715.274	1819.06
715.466	1834.37
715.657	1872.92
715.849	1765.2
716.04	1855.29
716.232	1758.03
716.423	1869.63
716.615	1729.16
716.806	1706.3
716.998	1684.6
717.189	1630.93
717.381	1532.9
717.572	1505.96
717.763	1564.28
717.955	1539.87
718.146	1525.15
718.337	1481.17
718.528	1442.03
718.72	1384.87
718.911	1484.27
719.102	1415.29
719.293	1442.61
719.485	1455.4
719.676	1420.33
719.867	1394.56
720.058	1382.74
720.249	1413.35
720.44	1417.03
720.632	1470.12
720.823	1517.01
721.014	1609.23
721.205	1632.87
721.396	1693.71
721.587	1794.07
721.778	1786.12
721.969	1796.2
722.16	1879.9
722.351	1898.3
722.542	1985.88
722.733	2009.51
722.924	1904.31
723.115	1973.67
723.305	1947.32
723.496	1913.61
723.687	1835.92
723.878	1871.37
724.069	1857.42
724.26	1862.27
724.45	1797.36
724.641	1812.47
724.832	1888.23
725.023	1811.5
725.213	1795.04
725.404	1812.09
725.595	1823.71
725.785	1812.47
725.976	1883.58
726.167	1872.34
726.357	1840.57
726.548	1940.54
726.739	1852.19
726.929	1953.33
727.12	1923.88
727.31	1985.88
727.501	1916.13
727.691	1954.3
727.882	1965.34
728.072	1995.37
728.263	2000.41
728.453	2006.22
728.644	2015.91
728.834	2013.2
729.024	1972.12
729.215	1982.78
729.405	2012.81
729.596	2062.6
729.786	2079.26
729.976	2100.77
730.167	2097.09
730.357	2084.69
730.547	2073.45
730.737	2089.92
730.928	2136.03
731.118	2236.39
731.308	2099.22
731.498	2161.61
731.688	2246.08
731.879	2223.8
732.069	2267
732.259	2305.95
732.449	2303.04
732.639	2391.58
732.829	2388.68
733.019	2395.26
733.209	2442.54
733.399	2475.67
733.589	2542.9
733.779	2537.67
733.969	2518.1
734.159	2613.04
734.349	2670.77
734.539	2689.37
734.729	2684.14
734.919	2711.65
735.109	2705.07
735.299	2651.2
735.488	2706.42
735.678	2673.1
735.868	2727.35
736.058	2744.2
736.248	2649.85
736.437	2655.85
736.627	2643.07
736.817	2761.64
737.007	2749.63
737.196	2748.27
737.386	2746.92
737.576	2709.72
737.765	2787.02
737.955	2765.52
738.144	2860.06
738.334	2821.51
738.524	2773.65
738.713	2818.02
738.903	2807.37
739.092	2846.5
739.282	2804.27
739.471	2840.5
739.661	2847.28
739.85	2857.74
740.04	2860.84
740.229	2869.75
740.419	2899.01
740.608	2913.54
740.797	2921.09
740.987	2956.16
741.176	2959.84
741.365	2914.31
741.555	2852.51
741.744	2994.33
741.933	2876.92
742.123	2914.51
742.312	2940.86
742.501	2993.94
742.69	2969.14
742.88	2898.43
743.069	3048.39
743.258	2985.03
743.447	3055.75
743.636	2987.55
743.825	2945.89
744.014	3024.17
744.204	3025.91
744.393	2933.11
744.582	3082.1
744.771	3063.69
744.96	2977.86
745.149	3053.42
745.338	2991.81
745.527	3059.62
745.716	3035.99
745.905	2958.29
746.094	3069.31
746.283	3042.38
746.471	3050.13
746.66	3084.23
746.849	3072.22
747.038	3058.85
747.227	3030.17
747.416	3077.64
747.604	3072.61
747.793	3007.12
747.982	3062.14
748.171	3049.55
748.359	3091.98
748.548	3061.76
748.737	3081.71
748.926	3041.8
749.114	2943.38
749.303	3052.84
749.491	3035.21
749.68	2957.52
749.869	3042.77
750.057	3018.94
750.246	2960.62
750.434	3013.51
750.623	3038.51
750.811	3028.24
751	3046.64
751.188	3014.29
751.377	2995.69
751.565	2973.41
751.754	2991.42
751.942	2967.79
752.131	3064.86
752.319	3010.02
752.507	2967.21
752.696	2960.62
752.884	3036.96
753.072	2990.65
753.261	2999.17
753.449	3029.79
753.637	2950.16
753.825	3061.17
754.014	2979.99
754.202	3012.93
754.39	3049.36
754.578	3018.94
754.766	2945.31
754.955	2941.44
755.143	3046.06
755.331	2944.54
755.519	2978.06
755.707	2953.26
755.895	2942.79
756.083	2948.22
756.271	2894.36
756.459	2929.23
756.647	2977.09
756.835	2910.63
757.023	2886.03
757.211	2873.24
757.399	2913.15
757.587	2884.48
757.775	2851.54
757.963	2887.77
758.151	2868.59
758.339	2845.53
758.526	2805.43
758.714	2856.58
758.902	2753.89
759.09	2717.08
759.278	2504.15
759.465	2333.65
759.653	1959.53
759.841	1875.83
760.028	1558.08
760.216	1312.61
760.404	1299.04
760.591	1073.91
760.779	898.95
760.967	743.38
761.154	587.8
761.342	694.16
761.529	683.12
761.717	758.88
761.905	732.53
762.092	810.22
762.28	718.19
762.467	752.09
762.655	680.02
762.842	713.15
763.029	730.39
763.217	719.35
763.404	725.36
763.592	735.43
763.779	710.44
763.966	770.31
764.154	776.51
764.341	838.12
764.528	859.82
764.716	910.58
764.903	961.34
765.09	1013.07
765.277	1065.58
765.465	1221.35
765.652	1240.72
765.839	1286.06
766.026	1402.12
766.213	1460.24
766.4	1539.29
766.588	1719.28
766.775	1693.9
766.962	1796.2
767.149	1845.02
767.336	2005.25
767.523	1932.79
767.71	2085.27
767.897	2156.18
768.084	2255.38
768.271	2234.45
768.458	2314.86
768.645	2357.68
768.832	2316.99
769.019	2341.4
769.206	2419.87
769.392	2446.8
769.579	2584.75
769.766	2475.67
769.953	2485.55
770.14	2542.32
770.327	2500.08
770.513	2561.31
770.7	2638.8
770.887	2520.81
771.073	2594.05
771.26	2585.72
771.447	2532.24
771.634	2537.67
771.82	2626.99
772.007	2555.49
772.193	2594.63
772.38	2591.34
772.567	2589.59
772.753	2621.17
772.94	2606.06
773.126	2604.32
773.313	2603.54
773.499	2616.14
773.686	2581.65
773.872	2554.91
774.059	2616.52
774.245	2554.33
774.432	2609.55
774.618	2518.29
774.804	2579.71
774.991	2481.87
775.177	2572.16
775.363	2544.84
775.55	2597.73
775.736	2517.91
775.922	2517.13
776.109	2538.25
776.295	2542.51
776.481	2549.1
776.667	2586.3
776.853	2532.24
777.04	2510.35
777.226	2538.25
777.412	2613.62
777.598	2487.88
777.784	2500.47
777.97	2528.37
778.156	2521.59
778.342	2506.28
778.528	2489.43
778.715	2396.62
778.901	2434.6
779.087	2506.67
779.272	2434.79
779.458	2419.68
779.644	2445.25
779.83	2415.8
780.016	2523.33
780.202	2437.31
780.388	2409.02
780.574	2367.17
780.76	2397.98
780.946	2422.58
781.131	2425.49
781.317	2372.02
781.503	2384.03
781.689	2392.55
781.874	2495.04
782.06	2377.44
782.246	2343.73
782.432	2388.29
782.617	2374.53
782.803	2421.03
782.989	2292.19
783.174	2302.07
783.36	2328.81
783.545	2338.5
783.731	2323.77
783.916	2251.12
784.102	2335.4
784.288	2283.09
784.473	2304.4
784.659	2326.68
784.844	2369.88
785.029	2241.82
785.215	2272.62
785.4	2232.52
785.586	2330.36
785.771	2198.03
785.956	2284.64
786.142	2250.34
786.327	2249.57
786.512	2220.31
786.698	2243.17
786.883	2180.4
787.068	2240.27
787.254	2248.4
787.439	2197.26
787.624	2216.82
787.809	2168.58
787.994	2164.12
788.18	2248.79
788.365	2145.33
788.55	2168
788.735	2151.72
788.92	2164.32
789.105	2140.1
789.29	2200.55
789.475	2116.46
789.66	2113.36
789.845	2098.64
790.03	2103.68
790.215	2133.51
790.4	2135.64
790.585	2155.41
790.77	2085.46
790.955	2033.15
791.14	2057.95
791.325	2168
791.51	2017.65
791.695	2083.91
791.879	2071.32
792.064	2009.51
792.249	2106.39
792.434	2058.53
792.618	2081.39
792.803	2086.24
792.988	2067.44
793.173	2073.26
793.357	2137.58
793.542	2031.6
793.727	2070.93
793.911	2125.57
794.096	2095.34
794.281	2094.57
794.465	2134.29
794.65	2067.25
794.834	2096.89
795.019	2142.42
795.203	2176.91
795.388	2154.24
795.572	2179.82
795.757	2091.08
795.941	2123.05
796.126	2105.03
796.31	2065.12
796.494	2110.84
796.679	2069.96
796.863	2064.34
797.048	2163.16
797.232	2102.32
797.416	2106.78
797.601	2088.18
797.785	2183.31
797.969	2170.91
798.153	2040.13
798.338	2151.53
798.522	2135.06
798.706	2132.35
798.89	2123.24
799.074	2211.59
799.258	2190.28
799.443	2127.12
799.627	2155.6
799.811	2171.87
799.995	2142.04
800.179	2101.54
800.363	2107.74
800.547	2145.52
800.731	2152.5
800.915	2048.07
801.099	2113.17
801.283	2134.67
801.467	2130.41
801.651	2123.05
801.835	2172.46
802.019	2128.47
802.202	2144.56
802.386	2054.27
802.57	2064.93
802.754	2117.43
802.938	2033.34
803.121	2100.19
803.305	2167.22
803.489	2110.07
803.673	2114.52
803.856	2175.36
804.04	2112.59
804.224	2129.64
804.407	2100.19
804.591	2082.56
804.775	2112.59
804.958	2091.86
805.142	2173.42
805.326	2096.89
805.509	2116.85
805.693	2151.34
805.876	2171.87
806.06	2126.73
806.243	2130.02
806.427	2211.98
806.61	2163.93
806.794	2133.71
806.977	2164.32
807.16	2140.68
807.344	2159.86
807.527	2168.58
807.71	2130.61
807.894	2130.99
808.077	2178.85
808.26	2098.06
808.444	2077.52
808.627	2162.57
808.81	2113.56
808.993	2074.61
809.177	2029.66
809.36	2079.26
809.543	2080.81
809.726	1985.3
809.909	1985.1
810.092	2008.74
810.276	1977.16
810.459	2020.36
810.642	2021.33
810.825	1941.7
811.008	1973.67
811.191	1884.93
811.374	1918.84
811.557	1951.97
811.74	1986.46
811.923	1888.62
812.106	1883.19
812.289	1815.57
812.472	1823.32
812.654	1870.6
812.837	1826.81
813.02	1782.05
813.203	1755.12
813.386	1688.28
813.569	1676.85
813.751	1623.96
813.934	1667.55
814.117	1661.74
814.3	1574.16
814.482	1547.04
814.665	1524.37
814.848	1503.45
815.03	1456.17
815.213	1455.2
815.396	1468.38
815.578	1440.09
815.761	1451.33
815.943	1477.29
816.126	1391.07
816.309	1358.33
816.491	1302.34
816.674	1284.9
816.856	1327.72
817.039	1275.6
817.221	1366.85
817.403	1308.54
817.586	1338.76
817.768	1353.87
817.951	1270.56
818.133	1271.92
818.315	1289.16
818.498	1328.49
818.68	1355.42
818.862	1374.41
819.045	1413.55
819.227	1348.84
819.409	1325.97
819.591	1370.92
819.774	1308.73
819.956	1297.49
820.138	1398.44
820.32	1391.65
820.502	1439.9
820.684	1473.42
820.866	1478.07
821.048	1583.08
821.231	1541.42
821.413	1522.05
821.595	1498.6
821.777	1503.45
821.959	1523.01
822.141	1593.73
822.323	1402.5
822.505	1389.52
822.686	1359.3
822.868	1314.54
823.05	1196.55
823.232	1206.43
823.414	1106.85
823.596	1203.72
823.778	1213.21
823.96	1208.18
824.141	1188.61
824.323	1215.34
824.505	1310.47
824.687	1363.56
824.868	1369.57
825.05	1465.86
825.232	1492.21
825.413	1534.06
825.595	1495.89
825.777	1409.87
825.958	1482.52
826.14	1449.97
826.321	1469.35
826.503	1454.23
826.685	1460.24
826.866	1507.51
827.048	1510.61
827.229	1432.53
827.411	1423.43
827.592	1385.26
827.773	1375.57
827.955	1342.64
828.136	1310.28
828.318	1312.41
828.499	1360.65
828.68	1311.25
828.862	1343.99
829.043	1373.44
829.224	1354.45
829.406	1308.54
829.587	1299.62
829.768	1305.44
829.949	1347.48
830.131	1356.59
830.312	1380.22
830.493	1333.14
830.674	1367.82
830.855	1341.47
831.036	1300.79
831.218	1412
831.399	1402.89
831.58	1343.02
831.761	1361.04
831.942	1364.34
832.123	1301.17
832.304	1279.67
832.485	1286.84
832.666	1331.01
832.847	1332.95
833.028	1314.16
833.209	1322.49
833.389	1303.5
833.57	1263.2
833.751	1263.97
833.932	1329.85
834.113	1330.82
834.294	1294.78
834.475	1337.02
834.655	1363.75
834.836	1397.08
835.017	1324.81
835.198	1281.61
835.378	1351.94
835.559	1373.05
835.74	1312.02
835.92	1303.5
836.101	1319.58
836.281	1347.48
836.462	1335.08
836.643	1384.29
836.823	1402.31
837.004	1407.74
837.184	1451.72
837.365	1387.78
837.545	1414.71
837.726	1394.37
837.906	1447.45
838.087	1397.66
838.267	1393.4
838.448	1352.71
838.628	1384.68
838.808	1376.93
838.989	1424.01
839.169	1345.93
839.349	1394.17
839.53	1408.51
839.71	1388.75
839.89	1340.5
840.07	1458.69
840.251	1333.72
840.431	1401.15
840.611	1368.4
840.791	1362.01
840.971	1365.11
841.151	1383.13
841.332	1324.04
841.512	1405.99
841.692	1329.65
841.872	1380.8
842.052	1386.23
842.232	1401.54
842.412	1322.87
842.592	1355.42
842.772	1386.81
842.952	1364.92
843.132	1326.94
843.312	1306.6
843.492	1321.52
843.672	1386.42
843.851	1299.62
844.031	1357.36
844.211	1298.66
844.391	1308.92
844.571	1355.23
844.751	1347.09
844.93	1352.52
845.11	1287.42
845.29	1324.23
845.47	1358.52
845.649	1336.24
845.829	1363.17
846.009	1283.54
846.188	1349.22
846.368	1325.97
846.547	1350
846.727	1327.33
846.907	1295.75
847.086	1360.85
847.266	1355.62
847.445	1312.22
847.625	1322.87
847.804	1296.33
847.984	1325.2
848.163	1295.36
848.343	1275.79
848.522	1293.04
848.701	1318.03
848.881	1281.41
849.06	1273.86
849.239	1291.68
849.419	1330.24
849.598	1249.83
849.777	1234.91
849.957	1261.26
850.136	1164.78
850.315	1174.27
850.494	1188.41
850.674	1175.63
850.853	1242.08
851.032	1230.46
851.211	1244.41
851.39	1210.5
851.569	1166.13
851.748	1195.58
851.927	1221.35
852.107	1210.31
852.286	1187.83
852.465	1165.74
852.644	1236.08
852.823	1236.08
853.002	1181.44
853.181	1206.43
853.359	1214.96
853.538	1159.54
853.717	1194.23
853.896	1111.5
854.075	1081.08
854.254	1041.17
854.433	987.5
854.611	1056.86
854.79	979.75
854.969	1062.87
855.148	1058.22
855.327	1038.07
855.505	1102.97
855.684	1052.21
855.863	1081.27
856.041	1046.78
856.22	1091.35
856.399	1063.25
856.577	1193.06
856.756	1133.78
856.934	1281.8
857.113	1246.92
857.291	1131.84
857.47	1101.61
857.648	1133
857.827	1182.02
858.005	1190.74
858.184	1122.73
858.362	1219.61
858.541	1167.1
858.719	1164.39
858.898	1156.64
859.076	1135.33
859.254	1168.65
859.433	1120.6
859.611	1095.41
859.789	1061.32
859.967	1179.31
860.146	1185.51
860.324	1083.4
860.502	1086.5
860.68	1064.03
860.859	1091.73
861.037	1118.08
861.215	1128.93
861.393	1111.11
861.571	1098.71
861.749	1089.21
861.927	1151.02
862.105	1109.36
862.283	1092.51
862.461	1081.66
862.639	1032.25
862.817	1053.18
862.995	1108.78
863.173	1059.57
863.351	1089.02
863.529	1086.31
863.707	1136.68
863.885	1079.91
864.063	1015.59
864.241	1052.6
864.418	1133
864.596	1057.83
864.774	1031.48
864.952	1069.06
865.129	1094.25
865.307	1008.42
865.485	1010.36
865.663	1045.82
865.84	1003.77
866.018	1015.2
866.196	898.95
866.373	939.45
866.551	908.06
866.728	829.98
866.906	901.09
867.084	907.09
867.261	1003.19
867.439	970.45
867.616	961.15
867.794	965.6
867.971	1006.68
868.149	954.95
868.326	1021.6
868.503	985.56
868.681	966.77
868.858	980.52
869.035	934.41
869.213	1004.35
869.39	962.12
869.567	1047.17
869.745	984.4
869.922	979.55
870.099	1023.15
870.276	1013.85
870.454	997.77
870.631	994.47
870.808	974.32
870.985	1007.84
871.162	1039.42
871.339	1034.38
871.517	906.7
871.694	937.51
871.871	966.77
872.048	966.19
872.225	970.64
872.402	986.53
872.579	903.6
872.756	970.84
872.933	908.84
873.11	956.5
873.287	940.03
873.463	935.57
873.64	909.8
873.817	952.24
873.994	954.95
874.171	932.09
874.348	958.44
874.524	897.99
874.701	945.65
874.878	851.1
875.055	925.11
875.231	888.69
875.408	953.79
875.585	876.29
875.762	918.33
875.938	907.87
876.115	910.58
876.291	880.55
876.468	883.84
876.645	868.73
876.821	889.27
876.998	887.33
877.174	921.43
877.351	903.41
877.527	876.09
877.704	886.56
877.88	881.71
878.057	871.83
878.233	898.37
878.409	837.15
878.586	898.76
878.762	882.49
878.938	871.25
879.115	815.84
879.291	863.11
879.467	797.24
879.644	817.58
879.82	891.59
879.996	823.01
880.172	793.17
880.349	876.67
880.525	871.25
880.701	796.66
880.877	775.93
881.053	841.41
881.229	833.47
881.405	899.54
881.581	801.11
881.757	818.16
881.933	875.9
882.109	873.77
882.285	822.81
882.461	774.96
882.637	833.27
882.813	797.63
882.989	834.05
883.165	872.8
883.341	804.6
883.517	869.89
883.693	817.19
883.869	870.28
884.044	788.71
884.22	848.97
884.396	862.53
884.572	872.8
884.747	861.95
884.923	881.32
885.099	860.01
885.275	874.74
885.45	823.59
885.626	798.21
885.801	827.07
885.977	834.24
886.153	752.29
886.328	814.87
886.504	821.07
886.679	835.21
886.855	783.09
887.03	823.2
887.206	835.99
887.381	823.39
887.557	860.59
887.732	848.19
887.908	831.92
888.083	866.6
888.258	818.16
888.434	796.85
888.609	829.98
888.784	850.52
888.96	799.95
889.135	815.84
889.31	788.71
889.485	845.48
889.661	815.84
889.836	866.79
890.011	845.87
890.186	832.69
890.361	797.24
890.537	860.01
890.712	847.22
890.887	821.84
891.062	850.71
891.237	837.92
891.412	790.84
891.587	846.64
891.762	830.56
891.937	883.07
892.112	762.56
892.287	810.22
892.462	749.77
892.637	748.99
892.812	718.58
892.987	776.89
893.161	773.02
893.336	736.21
893.511	767.79
893.686	773.41
893.861	737.95
894.035	766.82
894.21	758.29
894.385	694.36
894.56	771.86
894.734	701.33
894.909	685.25
895.084	683.7
895.258	664.33
895.433	688.93
895.608	683.7
895.782	603.1
895.957	631.39
896.131	657.93
896.306	574.04
896.48	590.7
896.655	569.97
896.829	543.82
897.004	555.83
897.178	557.57
897.353	536.65
897.527	587.99
897.701	546.33
897.876	522.7
898.05	577.92
898.224	594.77
898.399	594.97
898.573	562.8
898.747	463.02
898.921	528.9
899.096	425.44
899.27	454.89
899.444	464.77
899.618	474.45
899.792	504.49
899.967	475.04
900.141	562.8
900.315	458.57
900.489	469.8
900.663	509.72
900.837	480.27
901.011	431.83
901.185	521.92
901.359	501.19
901.533	500.42
901.707	471.74
901.881	481.04
902.055	438.03
902.229	452.95
902.403	536.84
902.576	502.35
902.75	485.11
902.924	573.85
903.098	542.65
903.272	573.85
903.446	631.97
903.619	534.13
903.793	596.32
903.967	564.35
904.14	660.65
904.314	618.41
904.488	600.39
904.661	633.71
904.835	617.83
905.009	659.1
905.182	675.18
905.356	627.9
905.529	606.4
905.703	562.42
905.876	595.74
906.05	565.71
906.223	557.77
906.397	501.19
906.57	489.95
906.744	496.74
906.917	498.48
907.09	464.38
907.264	486.08
907.437	434.93
907.61	420.98
907.784	441.71
907.957	464.19
908.13	448.11
908.304	492.28
908.477	431.25
908.65	436.67
908.823	388.24
908.996	477.94
909.17	384.17
909.343	424.47
909.516	457.79
909.689	452.75
909.862	405.48
910.035	404.32
910.208	435.71
910.381	358.4
910.554	508.36
910.727	431.44
910.9	412.46
911.073	419.62
911.246	470.58
911.419	459.34
911.592	482.01
911.765	426.21
911.938	402.38
912.11	439.39
912.283	414.39
912.456	502.16
912.629	430.47
912.802	409.55
912.974	389.79
913.147	338.25
913.32	292.33
913.493	322.56
913.665	357.82
913.838	385.33
914.01	348.52
914.183	382.04
914.356	360.73
914.528	409.36
914.701	442.87
914.873	396.96
915.046	350.46
915.218	330.69
915.391	293.49
915.563	285.16
915.736	326.04
915.908	407.42
916.081	335.15
916.253	362.66
916.425	360.92
916.598	371.57
916.77	354.33
916.942	343.48
917.115	284.39
917.287	345.23
917.459	328.95
917.632	292.33
917.804	269.47
917.976	319.26
918.148	330.89
918.32	336.12
918.493	369.06
918.665	402.96
918.837	364.41
919.009	408.39
919.181	423.31
919.353	359.18
919.525	378.74
919.697	374.87
919.869	390.76
920.041	442.87
920.213	466.7
920.385	400.06
920.557	378.55
920.729	414.78
920.901	384.17
921.073	364.99
921.244	374.67
921.416	426.99
921.588	382.42
921.76	358.98
921.932	460.31
922.103	384.56
922.275	376.61
922.447	380.29
922.619	305.89
922.79	379.71
922.962	373.9
923.134	385.91
923.305	346.39
923.477	306.28
923.648	318.49
923.82	345.23
923.991	280.71
924.163	274.9
924.335	313.26
924.506	291.94
924.677	372.16
924.849	286.13
925.02	315.39
925.192	370.02
925.363	348.13
925.535	340.19
925.706	286.13
925.877	371.96
926.049	323.14
926.22	332.83
926.391	339.22
926.562	345.81
926.734	302.21
926.905	370.41
927.076	248.16
927.247	294.85
927.419	265.6
927.59	265.6
927.761	299.69
927.932	271.6
928.103	266.56
928.274	230.33
928.445	213.28
928.616	249.32
928.787	230.14
928.958	244.48
929.129	233.82
929.3	216.38
929.471	210.38
929.642	171.63
929.813	120.28
929.984	230.14
930.155	148.77
930.326	209.21
930.496	174.92
930.667	92.19
930.838	139.27
931.009	105.17
931.18	141.79
931.35	110.98
931.521	133.27
931.692	91.42
931.863	65.45
932.033	120.28
932.204	108.08
932.374	104.98
932.545	73.2
932.716	132.88
932.886	110.21
933.057	18.18
933.227	27.29
933.398	166.2
933.568	49.76
933.739	28.84
933.909	42.79
934.08	91.03
934.25	-11.66
934.421	-1.78
934.591	70.49
934.761	34.26
934.932	4.81
935.102	32.71
935.272	44.14
935.443	41.24
935.613	47.24
935.783	44.14
935.953	-6.81
936.123	169.5
936.294	5.78
936.464	17.21
936.634	13.53
936.804	5.2
936.974	-2.36
937.144	49.95
937.314	33.29
937.484	21.86
937.655	1.13
937.825	61.97
937.995	13.92
938.165	51.31
938.334	5.2
938.504	52.67
938.674	27.67
938.844	61.19
939.014	64.68
939.184	70.69
939.354	107.3
939.524	117.96
939.694	83.47
939.863	71.65
940.033	130.36
940.203	109.05
940.373	96.84
940.542	116.99
940.712	85.6
940.882	109.05
941.051	95.29
941.221	107.3
941.391	122.61
941.56	85.8
941.73	34.84
941.899	185.19
942.069	46.08
942.238	114.08
942.408	32.71
942.577	99.55
942.747	100.14
942.916	20.7
943.086	54.02
943.255	130.94
943.425	86.57
943.594	72.24
943.763	3.26
943.933	19.54
944.102	-32
944.271	71.65
944.441	74.37
944.61	37.17
944.779	60.61
944.948	146.25
945.117	5.2
945.287	59.64
945.456	16.82
945.625	27.09
945.794	92.19
945.963	34.45
946.132	87.93
946.301	38.91
946.47	90.84
946.639	4.81
946.808	55.77
946.977	79.4
947.146	107.88
947.315	44.72
947.484	80.57
947.653	71.46
947.822	43.17
947.991	22.44
948.16	104.2
948.329	101.88
948.498	63.9
948.666	47.63
948.835	79.02
949.004	8.49
949.173	7.52
949.341	76.3
949.51	76.89
949.679	91.42
949.847	85.8
950.016	135.2
950.185	113.5
950.353	47.63
950.522	24.77
950.69	81.34
950.859	46.27
951.028	110.4
951.196	61.77
951.365	36.97
951.533	57.9
951.701	120.67
951.87	97.62
952.038	28.25
952.207	67.2
952.375	128.03
952.543	43.95
952.712	57.12
952.88	29.03
953.048	92.77
953.217	45.69
953.385	37.55
953.553	68.55
953.721	26.7
953.89	50.15
954.058	11.21
954.226	39.69
954.394	43.17
954.562	4.62
954.73	64.49
954.898	37.55
955.067	94.71
955.235	66.62
955.403	82.31
955.571	91.8
955.739	102.65
955.907	49.37
956.075	36.78
956.243	28.64
956.41	69.14
956.578	-5.07
956.746	-16.11
956.914	50.73
957.082	76.11
957.25	80.95
957.418	22.64
957.585	42.59
957.753	105.56
957.921	41.43
958.089	50.15
958.256	66.04
958.424	60.22
958.592	85.99
958.759	28.64
958.927	51.89
959.095	40.65
959.262	59.64
959.43	53.64
959.597	34.26
959.765	50.92
959.932	19.54
960.1	84.64
960.267	61.39
960.435	54.22
960.602	75.53
960.77	46.08
960.937	-2.74
961.104	63.52
961.272	5.39
961.439	41.04
961.606	54.99
961.774	57.32
961.941	43.17
962.108	67.78
962.275	54.99
962.443	84.83
962.61	104.98
962.777	126.1
962.944	76.5
963.111	63.52
963.278	75.14
963.446	71.65
963.613	55.19
963.78	93.55
963.947	68.75
964.114	53.83
964.281	132.88
964.448	66.23
964.615	59.84
964.782	84.25
964.949	101.69
965.116	100.91
965.282	125.32
965.449	69.14
965.616	16.63
965.783	97.81
965.95	83.86
966.117	24.77
966.283	50.54
966.45	89.48
966.617	70.88
966.784	120.67
966.95	105.37
967.117	102.65
967.284	48.79
967.45	24.38
967.617	118.93
967.784	103.43
967.95	112.34
968.117	76.69
968.283	99.55
968.45	146.44
968.616	107.3
968.783	105.56
968.949	78.82
969.116	112.92
969.282	58.09
969.449	79.21
969.615	65.65
969.781	55.19
969.948	38.52
970.114	43.75
970.28	130.36
970.447	74.95
970.613	120.67
970.779	63.32
970.945	78.24
971.112	64.49
971.278	68.36
971.444	74.95
971.61	109.82
971.776	81.92
971.942	81.92
972.108	84.64
972.275	100.91
972.441	85.6
972.607	155.35
972.773	51.89
972.939	90.64
973.105	76.11
973.271	24.96
973.437	70.88
973.602	28.45
973.768	72.82
973.934	63.71
974.1	69.14
974.266	5.78
974.432	100.14
974.598	44.14
974.763	85.8
974.929	43.56
975.095	139.08
975.261	45.89
975.426	35.04
975.592	79.6
975.758	140.82
975.923	13.34
976.089	67.78
976.255	89.87
976.42	69.33
976.586	90.45
976.751	92.19
976.917	123.19
977.082	107.88
977.248	23.02
977.413	30.97
977.579	67.39
977.744	73.79
977.91	27.67
978.075	46.27
978.24	87.54
978.406	79.4
978.571	50.15
978.736	21.86
978.902	72.62
979.067	40.46
979.232	8.11
979.397	78.05
979.563	110.6
979.728	48.4
979.893	89.48
980.058	52.28
980.223	102.27
980.388	80.76
980.554	52.86
980.719	59.06
980.884	46.47
981.049	89.67
981.214	67.78
981.379	59.06
981.544	48.79
981.709	57.7
981.874	76.3
982.039	41.43
982.204	95.87
982.368	90.25
982.533	34.45
982.698	96.65
982.863	109.63
983.028	66.42
983.193	65.65
983.357	57.12
983.522	74.37
983.687	51.89
983.852	47.44
984.016	59.25
984.181	72.43
984.346	82.12
984.51	82.89
984.675	83.47
984.839	66.62
985.004	79.79
985.168	118.15
985.333	77.27
985.498	53.05
985.662	120.28
985.827	70.88
985.991	74.56
986.155	60.22
986.32	104.78
986.484	122.61
986.649	88.32
986.813	9.46
986.977	41.43
987.142	108.85
987.306	46.08
987.47	31.94
987.634	52.47
987.799	61
987.963	84.05
988.127	114.08
988.291	136.37
988.455	71.46
988.62	49.76
988.784	96.84
988.948	103.82
989.112	49.37
989.276	62.35
989.44	66.23
989.604	38.72
989.768	54.41
989.932	142.57
990.096	42.79
990.26	54.99
990.424	39.69
990.588	65.07
990.752	138.11
990.915	78.24
991.079	63.13
991.243	45.3
991.407	94.9
991.571	63.52
991.734	63.71
991.898	86.77
992.062	152.25
992.226	24.19
992.389	26.9
992.553	-13.21
992.717	33.49
992.88	55.19
993.044	73.79
993.207	36.39
993.371	86.77
993.535	64.87
993.698	57.32
993.862	98
994.025	97.62
994.189	66.23
994.352	86.77
994.515	85.22
994.679	100.14
994.842	39.49
995.006	99.36
995.169	30.39
995.332	38.72
995.496	66.81
995.659	21.86
995.822	46.27
995.985	56.54
996.149	113.31
996.312	52.09
996.475	140.43
996.638	43.37
996.801	104.98
996.964	128.62
997.128	58.67
997.291	48.6
997.454	62.94
997.617	-6.62
997.78	95.1
997.943	48.99
998.106	91.61
998.269	21.67
998.432	35.42
998.595	54.22
998.758	9.07
998.92	17.99
999.083	-6.04
999.246	76.89
999.409	11.21
999.572	-20.18
999.735	52.47
999.897	67.97
1000.06	44.53
1000.223	40.65
1000.386	61.19
1000.548	83.67
1000.711	70.88
1000.874	49.95
1001.036	-8.94
1001.199	70.49
1001.361	32.71
1001.524	68.36
1001.687	79.79
1001.849	37.94
1002.012	50.54
1002.174	46.85
1002.337	69.33
1002.499	17.6
1002.661	84.05
1002.824	16.44
1002.986	42.2
1003.149	75.14
1003.311	5.97
1003.473	117.38
1003.636	17.6
1003.798	44.92
1003.96	49.95
1004.123	40.07
1004.285	12.17
1004.447	22.64
1004.609	21.47
1004.771	99.75
1004.933	3.07
1005.096	-7.39
1005.258	0.55
1005.42	6.94
1005.582	80.37
1005.744	54.8
1005.906	-24.25
1006.068	36.59
1006.23	-19.99
1006.392	-23.67
1006.554	5.78
1006.716	88.9
1006.878	73.01
1007.04	-14.56
1007.202	39.88
1007.363	40.27
1007.525	50.54
1007.687	53.25
1007.849	62.35
1008.011	-15.53
1008.172	-16.11
1008.334	34.26
1008.496	49.18
1008.658	-2.36
1008.819	10.62
1008.981	14.11
1009.143	-0.81
1009.304	9.46
1009.466	72.82
1009.627	79.6
1009.789	124.55
1009.95	39.88
1010.112	7.33
1010.273	33.49
1010.435	0.36
1010.596	35.23
1010.758	-11.66
1010.919	0.74
1011.081	3.65
1011.242	45.3
1011.403	43.17
1011.565	7.72
1011.726	34.26
1011.887	6.94
1012.049	32.32
1012.21	76.69
1012.371	86.96
1012.532	-16.69
1012.693	33.49
1012.855	26.12
1013.016	38.33
1013.177	70.49
1013.338	39.69
1013.499	91.61
1013.66	58.87
1013.821	70.3
1013.982	41.24
1014.143	26.9
1014.304	-0.42
1014.465	49.37
1014.626	60.8
1014.787	9.46
1014.948	122.42
1015.109	-43.43
1015.27	58.09
1015.431	-13.98
1015.592	-0.81
1015.752	73.59
1015.913	41.43
1016.074	65.84
1016.235	19.73
1016.395	49.37
1016.556	-3.71
1016.717	17.4
1016.877	90.45
1017.038	3.07
1017.199	28.06
1017.359	25.35
1017.52	28.84
1017.681	23.6
1017.841	7.33
1018.002	19.92
1018.162	11.98
1018.323	77.47
1018.483	14.31
1018.644	-2.94
1018.804	-20.18
1018.964	4.04
1019.125	3.26
1019.285	36.97
1019.446	-11.46
1019.606	-6.43
1019.766	-44.79
1019.926	49.18
1020.087	20.12
1020.247	-35.1
1020.407	47.05
1020.567	44.53
1020.728	18.95
1020.888	-19.6
1021.048	-13.21
1021.208	5.39
1021.368	-2.74
1021.528	78.82
1021.688	74.17
1021.848	70.3
1022.008	27.48
1022.168	29.03
1022.328	20.31
1022.488	20.89
1022.648	23.41
1022.808	16.63
1022.968	22.64
1023.128	19.92
1023.288	-11.08
1023.448	18.95
1023.608	35.62
1023.767	39.69
1023.927	-1.97
1024.087	-27.35
1024.247	-46.14
1024.406	22.25
1024.566	-27.35
1024.726	-9.53
1024.885	-5.07
1025.045	30.97
1025.205	-1.19
1025.364	10.04
1025.524	21.67
1025.683	-2.74
1025.843	34.26
1026.003	23.02
1026.162	69.33
1026.321	40.65
1026.481	17.79
1026.64	3.65
1026.8	22.83
1026.959	31.74
1027.119	22.83
1027.278	2.49
1027.437	-21.93
1027.597	45.69
1027.756	38.33
1027.915	32.9
1028.074	52.09
1028.234	-3.91
1028.393	44.92
1028.552	14.31
1028.711	-56.99
1028.87	45.11
1029.03	-13.79
1029.189	1.71
1029.348	-62.81
1029.507	1.13
1029.666	13.34
1029.825	-34.91
1029.984	-15.14
1030.143	8.49
1030.302	2.87
1030.461	-47.11
1030.62	14.69
1030.779	18.95
1030.938	-4.68
1031.097	-30.45
1031.255	25.93
1031.414	46.47
1031.573	65.45
1031.732	-23.09
1031.891	12.17
1032.049	57.7
1032.208	47.05
1032.367	5.78
1032.525	-12.43
1032.684	11.98
1032.843	18.18
1033.001	-43.82
1033.16	155.93
1033.319	34.65
1033.477	19.15
1033.636	-25.61
1033.794	-13.98
1033.953	49.57
1034.111	30.77
1034.27	-14.76
1034.428	28.25
1034.587	-36.07
1034.745	24.96
1034.903	29.22
1035.062	38.33
1035.22	-3.13
1035.378	49.95
1035.537	-21.15
1035.695	40.07
1035.853	-6.62
1036.011	39.3
1036.17	45.69
1036.328	-56.03
1036.486	21.47
1036.644	6.94
1036.802	-59.71
1036.96	-14.37
1037.119	-9.33
1037.277	-19.41
1037.435	-32.19
1037.593	-12.82
1037.751	2.49
1037.909	30.77
1038.067	30.77
