Data from pine_FLMT105791__198__17-23-52-072.txt Node

Date: Mon Mar 20 17:23:52 GMT 2023
User: antho
Spectrometer: FLMT10579
Trigger mode: 0
Integration Time (sec): 1.000000E-1
Scans to average: 10
Electric dark correction enabled: true
Nonlinearity correction enabled: false
Boxcar width: 0
XAxis mode: Wavelengths
Number of Pixels in Spectrum: 3648
>>>>>Begin Spectral Data<<<<<
345.248	-174.95
345.464	-174.95
345.681	-174.95
345.898	-175.92
346.114	-185.03
346.331	-40.88
346.548	5.04
346.764	-26.54
346.981	-9.11
347.197	-14.92
347.414	13.37
347.631	-3.87
347.847	75.56
348.064	2.32
348.28	26.54
348.497	-47.08
348.713	19.57
348.93	37.97
349.146	17.44
349.363	-36.04
349.579	5.04
349.796	-11.24
350.012	-37.59
350.229	10.27
350.445	-6.2
350.661	-9.11
350.878	21.51
351.094	16.08
351.311	28.87
351.527	8.33
351.743	-30.03
351.96	30.61
352.176	28.09
352.392	24.02
352.609	54.64
352.825	-28.29
353.041	18.99
353.257	-12.4
353.474	8.14
353.69	4.26
353.906	-10.07
354.122	-32.16
354.339	65.29
354.555	-14.92
354.771	-22.28
354.987	48.82
355.203	43.59
355.42	26.35
355.636	-10.27
355.852	-29.45
356.068	2.52
356.284	-45.14
356.5	84.67
356.716	29.06
356.932	8.33
357.148	29.84
357.364	20.73
357.58	38.36
357.796	42.04
358.012	29.64
358.228	17.24
358.444	-31.58
358.66	51.34
358.876	29.64
359.092	-27.12
359.308	29.06
359.524	14.72
359.74	-10.46
359.956	14.53
360.172	16.66
360.388	34.87
360.604	-1.55
360.819	88.74
361.035	16.08
361.251	49.6
361.467	-20.54
361.683	43.21
361.898	11.24
362.114	15.89
362.33	15.89
362.546	49.21
362.762	-6.78
362.977	6.2
363.193	8.72
363.409	12.98
363.624	-12.98
363.84	1.16
364.056	3.49
364.271	0.39
364.487	27.32
364.703	-22.86
364.918	-24.99
365.134	7.17
365.35	-11.24
365.565	96.29
365.781	12.4
365.996	16.08
366.212	40.11
366.427	30.42
366.643	-12.21
366.858	-2.13
367.074	-13.95
367.289	49.41
367.505	116.25
367.72	-33.13
367.936	6.2
368.151	28.48
368.367	23.25
368.582	26.35
368.798	-7.36
369.013	71.69
369.228	24.02
369.444	14.92
369.659	51.92
369.874	44.37
370.09	59.48
370.305	-46.69
370.52	4.26
370.736	73.24
370.951	14.92
371.166	46.11
371.381	76.53
371.597	31.19
371.812	-4.65
372.027	-19.18
372.242	-1.55
372.458	89.9
372.673	-3.87
372.888	24.02
373.103	45.72
373.318	71.11
373.533	39.14
373.749	54.83
373.964	-4.46
374.179	55.02
374.394	-31.97
374.609	39.14
374.824	-11.43
375.039	77.89
375.254	0
375.469	50.76
375.684	-12.98
375.899	57.16
376.114	25.19
376.329	21.12
376.544	33.91
376.759	56.77
376.974	-20.15
377.189	-11.82
377.404	12.4
377.619	28.87
377.834	-52.12
378.049	-16.66
378.264	-11.82
378.478	2.71
378.693	-3.29
378.908	38.17
379.123	-38.94
379.338	68.2
379.553	1.55
379.767	22.86
379.982	33.13
380.197	53.47
380.412	11.24
380.626	30.22
380.841	92.03
381.056	38.94
381.271	70.72
381.485	8.52
381.7	-31
381.915	24.22
382.129	-10.07
382.344	43.4
382.559	16.08
382.773	66.84
382.988	-16.86
383.202	18.21
383.417	6.2
383.632	110.63
383.846	27.9
384.061	36.04
384.275	13.17
384.49	18.99
384.704	36.42
384.919	26.16
385.133	9.49
385.348	13.17
385.562	-23.64
385.777	32.16
385.991	-1.16
386.206	3.49
386.42	-3.1
386.634	43.59
386.849	34.29
387.063	15.69
387.277	-7.17
387.492	6.97
387.706	-7.75
387.92	-13.56
388.135	70.14
388.349	3.68
388.563	21.89
388.778	16.08
388.992	31
389.206	30.03
389.42	68.78
389.635	6.2
389.849	14.72
390.063	35.84
390.277	17.05
390.491	77.5
390.706	31.19
390.92	18.79
391.134	4.84
391.348	61.22
391.562	-14.72
391.776	-3.49
391.99	-13.76
392.205	36.04
392.419	-18.21
392.633	-24.02
392.847	62.97
393.061	7.36
393.275	65.1
393.489	35.65
393.703	20.15
393.917	81.96
394.131	3.29
394.345	38.56
394.559	24.02
394.773	2.52
394.986	33.52
395.2	23.06
395.414	41.27
395.628	-15.11
395.842	17.05
396.056	18.21
396.27	-33.71
396.484	43.01
396.697	18.21
396.911	72.27
397.125	27.32
397.339	19.76
397.553	53.86
397.766	89.7
397.98	54.06
398.194	57.35
398.408	12.59
398.621	48.44
398.835	33.32
399.049	23.64
399.262	44.17
399.476	31.58
399.69	26.54
399.903	97.65
400.117	-14.92
400.331	41.85
400.544	7.36
400.758	111.99
400.971	31.19
401.185	54.44
401.398	-18.79
401.612	52.31
401.826	33.32
402.039	51.73
402.253	-4.65
402.466	30.03
402.68	-8.52
402.893	27.71
403.106	9.11
403.32	22.86
403.533	21.89
403.747	25.19
403.96	12.59
404.174	46.5
404.387	-11.24
404.6	13.76
404.814	43.21
405.027	24.8
405.24	33.52
405.454	14.72
405.667	60.84
405.88	-43.01
406.094	59.67
406.307	48.05
406.52	37.97
406.733	-1.36
406.947	-36.62
407.16	74.79
407.373	55.8
407.586	2.32
407.799	-32.36
408.012	56.38
408.226	11.04
408.439	78.27
408.652	-41.07
408.865	22.47
409.078	61.81
409.291	31.19
409.504	-17.05
409.717	46.69
409.93	64.52
410.143	23.64
410.357	-15.69
410.57	-6.2
410.783	26.16
410.996	45.53
411.209	20.73
411.421	71.3
411.634	20.15
411.847	-12.21
412.06	33.32
412.273	32.55
412.486	9.3
412.699	130.2
412.912	9.69
413.125	60.84
413.338	8.91
413.55	42.62
413.763	29.45
413.976	11.24
414.189	23.44
414.402	13.37
414.615	60.64
414.827	-20.73
415.04	71.49
415.253	17.44
415.466	62.77
415.678	69.94
415.891	29.45
416.104	16.27
416.316	31.39
416.529	4.46
416.742	52.51
416.954	57.16
417.167	27.9
417.38	0.58
417.592	68.78
417.805	-29.64
418.017	-19.96
418.23	31.19
418.442	7.56
418.655	8.72
418.868	31
419.08	39.52
419.293	68.2
419.505	36.62
419.718	22.28
419.93	91.06
420.142	-8.14
420.355	78.86
420.567	78.47
420.78	52.12
420.992	29.45
421.205	64.32
421.417	-25.57
421.629	16.66
421.842	-16.27
422.054	-31.97
422.266	41.27
422.479	78.27
422.691	40.49
422.903	52.51
423.115	14.14
423.328	13.76
423.54	37.97
423.752	20.92
423.964	5.04
424.177	41.46
424.389	4.26
424.601	138.14
424.813	55.02
425.025	71.11
425.238	46.11
425.45	12.4
425.662	8.91
425.874	329.37
426.086	29.06
426.298	64.52
426.51	45.53
426.722	31.39
426.934	25.19
427.146	19.96
427.358	-9.88
427.57	74.98
427.782	36.81
427.994	32.74
428.206	27.51
428.418	-27.51
428.63	33.32
428.842	36.23
429.054	37.39
429.266	55.02
429.478	12.98
429.69	20.92
429.902	-16.27
430.114	49.79
430.325	43.01
430.537	33.52
430.749	35.84
430.961	-8.52
431.173	34.49
431.384	38.94
431.596	-15.89
431.808	23.44
432.02	17.82
432.231	30.61
432.443	56.19
432.655	38.17
432.867	-16.27
433.078	59.09
433.29	108.11
433.502	67.81
433.713	54.64
433.925	21.12
434.136	80.02
434.348	-9.69
434.56	5.62
434.771	170.3
434.983	-40.88
435.194	8.91
435.406	12.98
435.617	43.98
435.829	79.05
436.04	43.98
436.252	37.01
436.463	86.41
436.675	83.31
436.886	31.19
437.098	54.25
437.309	74.01
437.521	51.73
437.732	51.92
437.943	61.61
438.155	30.42
438.366	1.55
438.578	96.1
438.789	40.3
439	62.58
439.211	35.46
439.423	58.32
439.634	43.79
439.845	63.55
440.057	38.94
440.268	74.59
440.479	28.48
440.69	56.77
440.902	52.51
441.113	66.46
441.324	42.24
441.535	57.54
441.746	107.14
441.957	14.14
442.168	34.29
442.38	48.63
442.591	86.22
442.802	4.46
443.013	24.61
443.224	38.56
443.435	43.01
443.646	32.94
443.857	34.87
444.068	8.14
444.279	16.66
444.49	75.95
444.701	38.94
444.912	123.22
445.123	71.69
445.334	76.53
445.545	55.61
445.756	48.24
445.967	22.09
446.178	57.93
446.388	80.02
446.599	66.26
446.81	55.99
447.021	30.03
447.232	107.53
447.443	103.27
447.653	30.03
447.864	102.88
448.075	46.11
448.286	89.12
448.496	80.99
448.707	87.77
448.918	31.58
449.129	167.98
449.339	48.05
449.55	69.17
449.761	55.99
449.971	92.8
450.182	41.85
450.393	96.87
450.603	66.65
450.814	98.23
451.024	90.48
451.235	89.7
451.446	124.97
451.656	112.95
451.867	71.69
452.077	67.23
452.288	120.32
452.498	136.59
452.709	32.94
452.919	101.14
453.13	41.46
453.34	128.26
453.55	37.2
453.761	75.95
453.971	75.56
454.182	105.59
454.392	86.61
454.602	130.97
454.813	95.71
455.023	124.39
455.233	61.61
455.444	70.52
455.654	27.12
455.864	92.61
456.075	57.93
456.285	41.27
456.495	71.69
456.705	88.54
456.916	108.3
457.126	126.71
457.336	68.2
457.546	13.95
457.756	80.21
457.967	132.33
458.177	86.99
458.387	95.13
458.597	47.47
458.807	83.31
459.017	81.37
459.227	68.01
459.437	74.01
459.647	125.16
459.857	88.93
460.068	56.77
460.278	107.92
460.488	95.9
460.698	130.2
460.908	70.52
461.117	33.13
461.327	61.81
461.537	72.66
461.747	94.74
461.957	77.5
462.167	175.15
462.377	100.55
462.587	68.97
462.797	122.45
463.007	75.17
463.216	122.25
463.426	131.75
463.636	111.99
463.846	49.02
464.056	80.79
464.265	143.57
464.475	45.53
464.685	88.35
464.895	131.36
465.104	82.73
465.314	111.21
465.524	48.82
465.733	41.66
465.943	151.51
466.153	142.99
466.362	154.8
466.572	89.9
466.782	99.2
466.991	116.83
467.201	152.48
467.41	72.27
467.62	101.52
467.829	76.72
468.039	109.47
468.249	95.13
468.458	93.19
468.668	154.61
468.877	105.4
469.086	155.19
469.296	152.29
469.505	56.19
469.715	164.1
469.924	117.99
470.134	148.99
470.343	135.43
470.552	103.65
470.762	123.8
470.971	82.34
471.18	110.24
471.39	87.38
471.599	76.14
471.808	138.34
472.018	93
472.227	126.32
472.436	156.16
472.645	112.95
472.855	60.06
473.064	121.29
473.273	127.49
473.482	128.26
473.691	154.42
473.901	145.89
474.11	116.05
474.319	184.64
474.528	122.06
474.737	159.26
474.946	160.23
475.155	111.4
475.364	167.98
475.573	140.85
475.783	128.45
475.992	167.59
476.201	155.19
476.41	106.56
476.619	90.29
476.828	150.74
477.037	126.9
477.245	124.39
477.454	163.33
477.663	113.34
477.872	108.89
478.081	186.97
478.29	80.21
478.499	218.55
478.708	121.67
478.917	194.72
479.125	130.59
479.334	163.52
479.543	128.84
479.752	161.2
479.961	155
480.169	179.6
480.378	121.48
480.587	238.5
480.796	183.48
481.004	153.06
481.213	156.55
481.422	175.92
481.63	127.1
481.839	196.27
482.048	200.33
482.256	170.69
482.465	168.75
482.674	216.42
482.882	165.46
483.091	229.2
483.299	180.96
483.508	188.71
483.716	184.25
483.925	184.25
484.134	138.14
484.342	140.08
484.551	207.12
484.759	199.37
484.967	188.32
485.176	223.2
485.384	220.68
485.593	218.16
485.801	219.71
486.01	182.9
486.218	193.17
486.426	155
486.635	172.63
486.843	164.69
487.051	175.73
487.26	137.17
487.468	203.43
487.676	219.52
487.885	158.49
488.093	173.4
488.301	167.2
488.509	172.82
488.717	194.52
488.926	173.4
489.134	198.98
489.342	231.53
489.55	168.17
489.758	201.5
489.967	154.8
490.175	303.99
490.383	143.18
490.591	240.25
490.799	131.36
491.007	262.91
491.215	205.76
491.423	205.76
491.631	232.11
491.839	206.53
492.047	251.68
492.255	193.55
492.463	142.4
492.671	220.87
492.879	245.87
493.087	188.13
493.295	194.91
493.503	202.47
493.711	248.38
493.919	244.12
494.127	243.35
494.334	269.31
494.542	187.35
494.75	228.62
494.958	206.15
495.166	258.46
495.374	213.9
495.581	240.44
495.789	232.69
495.997	282.68
496.205	226.3
496.412	216.8
496.62	194.91
496.828	228.23
497.035	195.3
497.243	247.22
497.451	211.77
497.658	223
497.866	217.58
498.074	285
498.281	237.15
498.489	307.48
498.696	254.2
498.904	221.84
499.112	224.36
499.319	322.59
499.527	221.84
499.734	322.4
499.942	215.25
500.149	216.61
500.357	225.13
500.564	216.61
500.771	273.96
500.979	238.89
501.186	211.96
501.394	270.66
501.601	251.1
501.808	276.86
502.016	233.27
502.223	229.01
502.43	254.58
502.638	258.65
502.845	206.92
503.052	295.85
503.26	227.85
503.467	298.37
503.674	248.38
503.881	254.58
504.089	347.39
504.296	304.38
504.503	226.88
504.71	266.98
504.917	231.14
505.125	260.01
505.332	240.83
505.539	272.02
505.746	326.46
505.953	294.5
506.16	271.25
506.367	306.51
506.574	331.31
506.781	300.5
506.988	237.53
507.195	295.27
507.402	284.23
507.609	309.61
507.816	261.17
508.023	252.84
508.23	289.85
508.437	251.68
508.644	305.73
508.851	332.08
509.058	326.66
509.265	279.38
509.472	301.28
509.679	387.49
509.885	284.03
510.092	304.96
510.299	275.12
510.506	310.38
510.713	300.11
510.92	302.25
511.126	304.38
511.333	315.03
511.54	303.6
511.746	360.18
511.953	335.76
512.16	336.54
512.367	305.93
512.573	299.73
512.78	303.21
512.987	289.46
513.193	307.67
513.4	264.08
513.606	293.72
513.813	332.28
514.02	327.82
514.226	395.05
514.433	355.14
514.639	288.68
514.846	302.05
515.052	310.96
515.259	279.77
515.465	344.68
515.672	300.7
515.878	401.06
516.085	306.51
516.291	340.8
516.497	279.77
516.704	309.8
516.91	288.88
517.117	308.25
517.323	247.03
517.529	304.96
517.736	273.57
517.942	340.41
518.148	298.18
518.354	334.41
518.561	341.77
518.767	318.91
518.973	335.76
519.179	334.21
519.386	303.21
519.592	283.45
519.798	280.74
520.004	348.55
520.21	320.46
520.417	339.25
520.623	362.31
520.829	363.47
521.035	348.16
521.241	370.44
521.447	353.98
521.653	463.06
521.859	361.73
522.065	377.42
522.271	437.09
522.477	343.9
522.683	408.42
522.889	399.31
523.095	380.52
523.301	388.27
523.507	354.94
523.713	413.84
523.919	333.63
524.125	427.6
524.331	414.43
524.537	404.35
524.742	425.47
524.948	431.09
525.154	396.02
525.36	538.42
525.566	410.94
525.772	463.25
525.977	365.02
526.183	420.43
526.389	447.56
526.595	392.92
526.8	396.21
527.006	372.58
527.212	376.84
527.417	364.24
527.623	350.68
527.829	384.2
528.034	414.23
528.24	407.84
528.446	362.5
528.651	443.68
528.857	410.74
529.062	464.99
529.268	423.53
529.473	421.79
529.679	388.27
529.884	470.42
530.09	467.51
530.295	490.57
530.501	456.08
530.706	439.03
530.912	397.18
531.117	433.03
531.323	425.47
531.528	462.28
531.733	451.43
531.939	415.78
532.144	464.61
532.35	449.3
532.555	481.85
532.76	487.86
532.966	500.06
533.171	491.54
533.376	446.78
533.581	408.03
533.787	429.15
533.992	435.54
534.197	491.92
534.402	452.4
534.607	439.22
534.813	536.1
535.018	432.25
535.223	434.77
535.428	479.14
535.633	503.36
535.838	480.69
536.043	459.37
536.249	552.57
536.454	458.99
536.659	472.55
536.864	459.96
537.069	469.64
537.274	498.9
537.479	479.14
537.684	489.99
537.889	457.44
538.094	538.62
538.299	486.5
538.504	468.29
538.708	478.56
538.913	500.06
539.118	482.82
539.323	511.3
539.528	461.31
539.733	518.47
539.938	517.89
540.142	527.38
540.347	461.89
540.552	448.91
540.757	512.46
540.962	480.69
541.166	452.01
541.371	430.7
541.576	472.74
541.781	388.85
541.985	491.34
542.19	491.34
542.395	537.26
542.599	530.09
542.804	526.02
543.008	571.75
543.213	468.67
543.418	479.91
543.622	498.32
543.827	456.86
544.031	556.64
544.236	538.81
544.44	483.01
544.645	581.24
544.849	496.19
545.054	529.51
545.258	582.4
545.463	555.28
545.667	502.77
545.872	567.87
546.076	539.39
546.281	507.04
546.485	458.79
546.689	539.97
546.894	538.42
547.098	518.27
547.302	459.57
547.507	510.52
547.711	534.74
547.915	591.12
548.119	485.53
548.324	490.57
548.528	603.14
548.732	511.11
548.936	544.43
549.141	537.07
549.345	482.62
549.549	510.91
549.753	491.54
549.957	601
550.161	562.06
550.366	528.93
550.57	459.37
550.774	498.12
550.978	523.51
551.182	550.63
551.386	497.35
551.59	518.86
551.794	471.97
551.998	540.36
552.202	487.86
552.406	469.64
552.61	494.83
552.814	519.05
553.018	572.14
553.222	517.5
553.426	496.96
553.63	615.34
553.833	507.23
554.037	475.07
554.241	570
554.445	531.25
554.649	504.32
554.853	522.34
555.056	537.07
555.26	530.29
555.464	530.29
555.668	517.31
555.871	553.92
556.075	563.22
556.279	491.92
556.483	466.35
556.686	537.26
556.89	529.9
557.094	564.19
557.297	490.57
557.501	577.37
557.704	466.93
557.908	567.49
558.112	499.48
558.315	566.13
558.519	513.04
558.722	529.51
558.926	484.56
559.129	505.68
559.333	456.66
559.536	482.62
559.74	462.47
559.943	489.41
560.147	448.91
560.35	482.24
560.553	476.42
560.757	402.61
560.96	551.99
561.164	482.62
561.367	541.14
561.57	467.71
561.774	519.63
561.977	478.17
562.18	473.71
562.384	578.53
562.587	511.3
562.79	481.46
562.993	464.22
563.197	521.18
563.4	580.47
563.603	552.37
563.806	594.22
564.009	458.99
564.212	526.99
564.416	443.29
564.619	511.3
564.822	475.26
565.025	539
565.228	475.07
565.431	489.21
565.634	379.94
565.837	484.37
566.04	452.59
566.243	490.18
566.446	403.77
566.649	500.26
566.852	431.86
567.055	496.77
567.258	485.72
567.461	545.01
567.664	529.32
567.867	405.32
568.07	491.73
568.273	487.47
568.475	484.76
568.678	491.73
568.881	463.83
569.084	492.7
569.287	415.78
569.489	431.48
569.692	490.96
569.895	521.37
570.098	404.16
570.3	421.01
570.503	366.57
570.706	414.23
570.909	410.94
571.111	396.21
571.314	397.57
571.516	435.35
571.719	459.57
571.922	422.56
572.124	410.94
572.327	443.29
572.529	349.91
572.732	384.98
572.935	445.42
573.137	502
573.34	411.71
573.542	446.78
573.745	460.54
573.947	459.18
574.15	441.36
574.352	415.78
574.554	439.42
574.757	411.91
574.959	399.89
575.162	374.51
575.364	426.05
575.566	526.22
575.769	400.86
575.971	425.66
576.173	342.93
576.376	407.64
576.578	421.01
576.78	480.3
576.982	324.33
577.185	373.74
577.387	357.27
577.589	362.69
577.791	458.99
577.993	421.21
578.196	372.96
578.398	430.89
578.6	453.95
578.802	368.12
579.004	364.44
579.206	387.69
579.408	424.89
579.61	386.33
579.812	412.68
580.014	406.68
580.216	374.51
580.418	369.86
580.62	348.94
580.822	335.57
581.024	375.29
581.226	437.48
581.428	379.55
581.63	464.41
581.832	344.48
582.034	435.35
582.236	402.03
582.438	423.73
582.64	441.74
582.841	441.74
583.043	484.76
583.245	414.62
583.447	397.96
583.649	408.61
583.85	389.43
584.052	429.73
584.254	363.47
584.456	448.52
584.657	349.52
584.859	398.34
585.061	404.74
585.262	369.67
585.464	351.26
585.666	419.27
585.867	393.31
586.069	485.72
586.27	409
586.472	408.23
586.674	357.46
586.875	380.91
587.077	361.92
587.278	419.27
587.48	375.48
587.681	488.05
587.883	400.09
588.084	350.68
588.285	393.5
588.487	391.95
588.688	412.29
588.89	350.68
589.091	332.28
589.292	390.01
589.494	374.51
589.695	352.43
589.896	308.45
590.098	296.82
590.299	366.38
590.5	318.33
590.702	302.25
590.903	346.03
591.104	393.89
591.305	326.27
591.507	398.73
591.708	362.69
591.909	351.26
592.11	452.21
592.311	395.24
592.512	350.1
592.714	329.18
592.915	320.26
593.116	329.18
593.317	364.24
593.518	352.04
593.719	358.43
593.92	376.26
594.121	424.89
594.322	359.21
594.523	373.93
594.724	304.76
594.925	343.71
595.126	376.84
595.327	384.39
595.528	362.89
595.729	366.38
595.929	367.15
596.13	364.24
596.331	365.41
596.532	351.65
596.733	441.55
596.934	400.48
597.135	411.91
597.335	377.42
597.536	338.48
597.737	370.06
597.938	347.39
598.138	404.54
598.339	340.41
598.54	379.94
598.74	366.76
598.941	384.98
599.142	433.03
599.342	362.11
599.543	323.17
599.744	352.23
599.944	353.78
600.145	351.65
600.345	349.91
600.546	446.01
600.746	424.69
600.947	456.27
601.147	370.06
601.348	401.83
601.548	344.48
601.749	374.32
601.949	327.63
602.15	362.89
602.35	355.72
602.551	412.68
602.751	330.53
602.951	345.45
603.152	302.25
603.352	392.34
603.552	338.86
603.753	400.48
603.953	378.58
604.153	377.42
604.354	347.2
604.554	351.46
604.754	351.65
604.954	342.35
605.155	364.63
605.355	342.55
605.555	409.39
605.755	403.96
605.955	364.63
606.155	409.39
606.356	354.94
606.556	431.67
606.756	391.18
606.956	321.23
607.156	430.51
607.356	335.57
607.556	383.81
607.756	377.81
607.956	403.58
608.156	411.91
608.356	380.91
608.556	380.52
608.756	384.78
608.956	324.53
609.156	360.37
609.356	347.58
609.556	333.05
609.755	322.78
609.955	329.18
610.155	363.08
610.355	340.03
610.555	344.29
610.755	377.42
610.954	281.13
611.154	373.74
611.354	392.34
611.554	326.46
611.753	343.71
611.953	296.82
612.153	367.93
612.352	366.96
612.552	347.58
612.752	285.78
612.951	368.51
613.151	323.75
613.351	292.17
613.55	350.88
613.75	393.11
613.949	369.86
614.149	357.85
614.348	350.29
614.548	317.75
614.747	296.82
614.947	314.45
615.146	284.23
615.346	376.06
615.545	333.05
615.745	347.58
615.944	382.65
616.144	347.58
616.343	392.53
616.542	287.33
616.742	359.79
616.941	350.1
617.14	298.18
617.34	334.6
617.539	299.53
617.738	310.38
617.938	358.43
618.137	305.54
618.336	304.57
618.535	329.95
618.734	332.08
618.934	332.08
619.133	334.41
619.332	352.23
619.531	332.47
619.73	325.11
619.929	360.18
620.128	358.04
620.328	372.19
620.527	284.03
620.726	307.48
620.925	329.56
621.124	309.22
621.323	333.25
621.522	282.68
621.721	278.8
621.92	272.02
622.119	360.76
622.318	302.63
622.517	339.06
622.715	308.64
622.914	246.83
623.113	292.95
623.312	282.29
623.511	308.83
623.71	295.85
623.909	289.26
624.107	362.89
624.306	272.41
624.505	293.53
624.704	283.26
624.902	286.36
625.101	336.35
625.3	331.89
625.499	256.72
625.697	284.03
625.896	264.08
626.095	300.31
626.293	266.01
626.492	287.91
626.69	319.68
626.889	283.06
627.088	352.62
627.286	278.03
627.485	245.87
627.683	269.89
627.882	317.94
628.08	245.28
628.279	272.21
628.477	348.36
628.676	267.76
628.874	291.59
629.073	271.63
629.271	257.88
629.469	301.08
629.668	289.07
629.866	277.45
630.065	259.82
630.263	316
630.461	272.41
630.66	291.01
630.858	297.6
631.056	326.08
631.254	347.78
631.453	251.29
631.651	333.25
631.849	292.75
632.047	284.03
632.245	268.34
632.444	310
632.642	305.93
632.84	317.75
633.038	271.44
633.236	266.4
633.434	241.99
633.632	242.57
633.83	272.8
634.028	304.76
634.227	277.45
634.425	330.92
634.623	253.03
634.821	291.98
635.019	280.16
635.216	256.13
635.414	304.57
635.612	316.97
635.81	256.13
636.008	334.41
636.206	271.83
636.404	303.8
636.602	290.62
636.8	273.57
636.997	306.12
637.195	317.75
637.393	261.95
637.591	335.38
637.789	280.16
637.986	267.76
638.184	296.05
638.382	303.6
638.58	302.05
638.777	324.91
638.975	276.28
639.173	272.8
639.37	290.04
639.568	296.24
639.765	336.35
639.963	260.59
640.161	359.4
640.358	310.19
640.556	241.02
640.753	240.44
640.951	248.58
641.148	308.45
641.346	266.01
641.543	276.86
641.741	289.26
641.938	254.97
642.136	295.85
642.333	261.75
642.531	322.78
642.728	319.3
642.925	293.72
643.123	282.1
643.32	291.78
643.517	228.62
643.715	284.23
643.912	267.76
644.109	266.79
644.306	265.24
644.504	248.97
644.701	259.23
644.898	316.2
645.095	240.83
645.293	243.54
645.49	305.93
645.687	261.75
645.884	309.8
646.081	229.4
646.278	272.41
646.475	285.78
646.672	257.88
646.87	286.55
647.067	260.4
647.264	258.07
647.461	238.12
647.658	253.23
647.855	305.54
648.052	237.53
648.249	181.15
648.446	273.96
648.642	250.52
648.839	231.72
649.036	239.86
649.233	196.85
649.43	240.05
649.627	230.17
649.824	266.21
650.021	238.5
650.217	228.04
650.414	212.35
650.611	273.57
650.808	243.54
651.004	246.06
651.201	261.95
651.398	310.38
651.595	238.7
651.791	210.22
651.988	275.9
652.185	225.52
652.381	268.92
652.578	167.2
652.775	275.9
652.971	235.98
653.168	246.45
653.364	274.54
653.561	161.97
653.757	242.96
653.954	224.55
654.15	213.32
654.347	296.24
654.543	217.38
654.74	196.65
654.936	193.36
655.133	197.04
655.329	253.62
655.525	219.13
655.722	251.48
655.918	214.87
656.115	265.43
656.311	205.95
656.507	201.69
656.704	148.8
656.9	170.89
657.096	185.8
657.292	183.48
657.489	226.3
657.685	203.43
657.881	190.45
658.077	222.62
658.273	229.59
658.47	264.27
658.666	195.3
658.862	240.63
659.058	188.13
659.254	251.48
659.45	144.92
659.646	224.17
659.842	211.18
660.038	268.15
660.234	182.7
660.43	196.07
660.626	300.31
660.822	256.72
661.018	260.98
661.214	229.78
661.41	206.34
661.606	242.96
661.802	241.99
661.998	208.47
662.194	201.69
662.39	233.66
662.586	223.2
662.781	222.81
662.977	210.02
663.173	258.07
663.369	241.02
663.564	256.33
663.76	257.49
663.956	220.29
664.152	242.77
664.347	162.17
664.543	217.97
664.739	216.42
664.934	167.2
665.13	169.14
665.326	271.63
665.521	219.9
665.717	171.85
665.912	190.65
666.108	144.92
666.304	187.93
666.499	213.12
666.695	150.35
666.89	188.9
667.086	257.3
667.281	238.89
667.477	292.75
667.672	228.04
667.867	227.85
668.063	241.8
668.258	194.91
668.454	211.77
668.649	272.21
668.844	214.87
669.04	276.09
669.235	179.99
669.43	199.37
669.626	162.36
669.821	204.02
670.016	178.44
670.211	200.14
670.407	169.72
670.602	206.92
670.797	217.97
670.992	233.47
671.187	181.73
671.382	269.89
671.578	188.32
671.773	233.85
671.968	171.66
672.163	209.25
672.358	259.62
672.553	197.23
672.748	188.32
672.943	261.17
673.138	190.26
673.333	234.24
673.528	176.5
673.723	206.73
673.918	205.76
674.113	173.02
674.308	271.44
674.503	238.31
674.698	230.56
674.892	226.3
675.087	254.78
675.282	200.72
675.477	202.85
675.672	212.93
675.867	182.12
676.061	186
676.256	163.14
676.451	169.53
676.646	204.98
676.84	185.8
677.035	174.95
677.23	156.35
677.424	238.12
677.619	217
677.814	254.2
678.008	239.47
678.203	171.66
678.397	170.3
678.592	207.12
678.787	240.83
678.981	169.72
679.176	192.2
679.37	194.91
679.565	209.44
679.759	167.4
679.954	222.62
680.148	232.69
680.342	250.71
680.537	219.32
680.731	206.53
680.926	217.97
681.12	229.78
681.314	155.19
681.509	211.57
681.703	185.42
681.897	229.78
682.092	144.15
682.286	184.83
682.48	274.93
682.674	242.18
682.869	195.3
683.063	183.28
683.257	257.3
683.451	196.46
683.645	226.68
683.839	212.35
684.034	194.33
684.228	241.41
684.422	166.04
684.616	180.38
684.81	225.52
685.004	198.4
685.198	189.48
685.392	236.18
685.586	163.14
685.78	228.23
685.974	241.41
686.168	208.47
686.362	257.49
686.556	200.72
686.75	167.4
686.944	180.38
687.138	219.9
687.331	113.15
687.525	190.84
687.719	107.53
687.913	179.99
688.107	155.19
688.301	154.22
688.494	210.99
688.688	117.8
688.882	121.09
689.076	152.09
689.269	158.87
689.463	204.21
689.657	158.49
689.85	153.64
690.044	160.62
690.238	139.5
690.431	161.78
690.625	144.92
690.818	174.95
691.012	162.94
691.205	177.67
691.399	124.39
691.593	146.28
691.786	215.64
691.98	230.75
692.173	203.82
692.366	200.92
692.56	215.06
692.753	263.3
692.947	144.54
693.14	249.16
693.333	214.09
693.527	171.85
693.72	199.17
693.914	180.96
694.107	191.81
694.3	231.72
694.493	209.44
694.687	229.98
694.88	167.79
695.073	254.97
695.266	248.19
695.46	204.6
695.653	262.72
695.846	266.01
696.039	162.17
696.232	196.46
696.425	232.11
696.618	196.65
696.812	216.22
697.005	287.91
697.198	353.78
697.391	260.2
697.584	272.6
697.777	305.73
697.97	280.74
698.163	285.58
698.356	260.01
698.549	327.63
698.742	324.33
698.935	286.36
699.127	281.51
699.32	266.98
699.513	260.2
699.706	313.68
699.899	314.84
700.092	279.58
700.285	304.57
700.477	275.31
700.67	309.61
700.863	344.29
701.056	403.58
701.248	340.41
701.441	365.41
701.634	332.86
701.826	416.17
702.019	324.53
702.212	383.81
702.404	312.32
702.597	276.86
702.79	316.78
702.982	339.64
703.175	337.31
703.367	334.21
703.56	357.08
703.752	422.37
703.945	360.56
704.137	391.76
704.33	403.58
704.522	374.71
704.715	389.24
704.907	380.52
705.1	418.88
705.292	425.66
705.484	396.02
705.677	438.26
705.869	408.81
706.061	408.03
706.254	473.52
706.446	430.89
706.638	411.71
706.831	498.12
707.023	420.24
707.215	485.92
707.407	489.99
707.599	490.76
707.792	515.56
707.984	432.06
708.176	509.75
708.368	466.93
708.56	515.76
708.752	467.32
708.944	458.02
709.136	489.02
709.329	471
709.521	591.9
709.713	553.15
709.905	548.11
710.097	568.84
710.289	500.06
710.481	509.75
710.672	534.55
710.864	517.31
711.056	616.89
711.248	569.62
711.44	575.04
711.632	560.9
711.824	584.54
712.016	647.12
712.207	602.94
712.399	600.42
712.591	702.53
712.783	647.7
712.975	625.42
713.166	586.47
713.358	607.4
713.55	678.89
713.741	664.55
713.933	634.72
714.125	678.7
714.316	629.29
714.508	700.4
714.7	687.61
714.891	691.68
715.083	770.34
715.274	690.9
715.466	669.2
715.657	683.73
715.849	633.17
716.04	695.55
716.232	649.25
716.423	732.75
716.615	665.13
716.806	690.71
716.998	662.62
717.189	664.94
717.381	599.07
717.572	565.16
717.763	636.85
717.955	638.98
718.146	609.14
718.337	565.35
718.528	557.02
718.72	512.66
718.911	576.01
719.102	517.11
719.293	623.09
719.485	556.05
719.676	576.79
719.867	496.38
720.058	544.62
720.249	553.92
720.44	586.47
720.632	582.6
720.823	614.57
721.014	661.26
721.205	626
721.396	669.98
721.587	709.5
721.778	719.96
721.969	721.9
722.16	752.71
722.351	706.4
722.542	786.61
722.733	814.51
722.924	727.91
723.115	792.81
723.305	804.24
723.496	827.11
723.687	757.94
723.878	762.78
724.069	787.97
724.26	792.81
724.45	747.67
724.641	735.46
724.832	774.41
725.023	735.08
725.213	742.63
725.404	735.66
725.595	728.3
725.785	715.7
725.976	751.74
726.167	769.76
726.357	734.69
726.548	844.16
726.739	781.77
726.929	788.94
727.12	828.46
727.31	839.51
727.501	841.64
727.691	842.99
727.882	844.93
728.072	849.97
728.263	842.99
728.453	860.43
728.644	864.31
728.834	852.1
729.024	866.05
729.215	867.21
729.405	856.75
729.596	915.84
729.786	892.01
729.976	900.54
730.167	914.49
730.357	883.68
730.547	887.17
730.737	940.84
730.928	963.12
731.118	1014.65
731.308	928.44
731.498	969.32
731.688	1022.4
731.879	1001.67
732.069	1016.2
732.259	993.92
732.449	1013.88
732.639	1077.04
732.829	1101.45
733.019	1106.3
733.209	1132.26
733.399	1115.6
733.589	1142.53
733.779	1167.91
733.969	1110.37
734.159	1169.26
734.349	1201.62
734.539	1198.52
734.729	1224.09
734.919	1263.81
735.109	1231.65
735.299	1218.09
735.488	1225.45
735.678	1232.43
735.868	1265.75
736.058	1245.99
736.248	1261.88
736.437	1188.06
736.627	1180.31
736.817	1313.8
737.007	1268.66
737.196	1302.76
737.386	1218.67
737.576	1228.36
737.765	1322.13
737.955	1288.23
738.144	1351.58
738.334	1314.57
738.524	1285.13
738.713	1324.07
738.903	1318.26
739.092	1369.41
739.282	1373.28
739.471	1342.67
739.661	1317.67
739.85	1374.64
740.04	1379.29
740.229	1369.6
740.419	1389.36
740.608	1417.45
740.797	1441.09
740.987	1441.67
741.176	1437.02
741.365	1402.15
741.555	1356.62
741.744	1417.65
741.933	1421.52
742.123	1447.68
742.312	1451.75
742.501	1470.15
742.69	1492.82
742.88	1431.99
743.069	1506.19
743.258	1432.95
743.447	1506
743.636	1509.48
743.825	1499.22
744.014	1441.48
744.204	1519.75
744.393	1464.92
744.582	1527.7
744.771	1523.24
744.96	1474.42
745.149	1532.73
745.338	1433.73
745.527	1532.54
745.716	1520.14
745.905	1481.97
746.094	1543.97
746.283	1520.72
746.471	1536.22
746.66	1586.01
746.849	1537.19
747.038	1596.67
747.227	1524.6
747.416	1582.53
747.604	1518.4
747.793	1550.37
747.982	1555.98
748.171	1526.34
748.359	1568.19
748.548	1570.13
748.737	1559.28
748.926	1531.96
749.114	1469.77
749.303	1534.67
749.491	1545.13
749.68	1496.31
749.869	1564.7
750.057	1523.63
750.246	1501.15
750.434	1527.5
750.623	1521.5
750.811	1551.14
751	1586.79
751.188	1506.38
751.377	1560.83
751.565	1536.22
751.754	1509.1
751.942	1493.02
752.131	1543
752.319	1470.15
752.507	1480.81
752.696	1560.44
752.884	1573.81
753.072	1524.4
753.261	1484.3
753.449	1520.92
753.637	1528.86
753.825	1605
754.014	1501.93
754.202	1511.62
754.39	1581.75
754.578	1575.36
754.766	1506.19
754.955	1477.71
755.143	1578.07
755.331	1503.28
755.519	1521.88
755.707	1540.68
755.895	1506
756.083	1550.56
756.271	1513.55
756.459	1519.37
756.647	1562.38
756.835	1530.8
757.023	1508.13
757.211	1499.22
757.399	1516.65
757.587	1484.1
757.775	1484.49
757.963	1483.33
758.151	1504.45
758.339	1477.9
758.526	1452.91
758.714	1493.02
758.902	1423.46
759.09	1417.45
759.278	1313.8
759.465	1250.83
759.653	1072.78
759.841	1026.09
760.028	848.81
760.216	711.25
760.404	739.53
760.591	570
760.779	499.09
760.967	428.57
761.154	315.61
761.342	386.53
761.529	375.48
761.717	403.96
761.905	352.43
762.092	400.48
762.28	349.13
762.467	375.29
762.655	332.08
762.842	344.48
763.029	338.67
763.217	369.28
763.404	380.52
763.592	369.67
763.779	336.73
763.966	379.36
764.154	409.19
764.341	452.79
764.528	438.64
764.716	488.24
764.903	475.07
765.09	512.27
765.277	518.86
765.465	637.43
765.652	630.26
765.839	672.11
766.026	740.31
766.213	747.09
766.4	792.43
766.588	953.43
766.775	867.21
766.962	940.26
767.149	965.25
767.336	1066.19
767.523	951.88
767.71	1080.92
767.897	1130.13
768.084	1146.01
768.271	1163.84
768.458	1236.88
768.645	1225.84
768.832	1209.18
769.019	1230.29
769.206	1218.48
769.392	1296.36
769.579	1361.07
769.766	1279.89
769.953	1292.68
770.14	1342.67
770.327	1323.68
770.513	1397.69
770.7	1454.07
770.887	1317.29
771.073	1391.49
771.26	1357.01
771.447	1329.49
771.634	1312.64
771.82	1403.5
772.007	1351.77
772.193	1352.16
772.38	1379.29
772.567	1387.62
772.753	1345.19
772.94	1411.84
773.126	1414.16
773.313	1443.22
773.499	1400.21
773.686	1375.99
773.872	1379.48
774.059	1386.84
774.245	1313.99
774.432	1359.91
774.618	1297.53
774.804	1389.94
774.991	1329.49
775.177	1410.67
775.363	1346.54
775.55	1366.69
775.736	1334.92
775.922	1334.34
776.109	1355.84
776.295	1335.11
776.481	1319.81
776.667	1368.24
776.853	1351
777.04	1329.3
777.226	1332.59
777.412	1427.72
777.598	1318.84
777.784	1310.12
777.97	1311.67
778.156	1336.47
778.342	1341.7
778.528	1327.17
778.715	1263.23
778.901	1313.41
779.087	1336.47
779.272	1306.83
779.458	1271.18
779.644	1339.37
779.83	1296.94
780.016	1362.04
780.202	1316.9
780.388	1281.44
780.574	1235.72
780.76	1245.21
780.946	1339.37
781.131	1303.14
781.317	1289.78
781.503	1254.51
781.689	1322.71
781.874	1372.31
782.06	1274.47
782.246	1272.14
782.432	1258.58
782.617	1325.42
782.803	1336.66
782.989	1230.49
783.174	1282.41
783.36	1203.56
783.545	1288.23
783.731	1231.46
783.916	1189.22
784.102	1234.94
784.288	1252.58
784.473	1255.29
784.659	1246.38
784.844	1304.11
785.029	1191.55
785.215	1229.33
785.4	1188.64
785.586	1263.81
785.771	1183.8
785.956	1249.86
786.142	1239.59
786.327	1217.9
786.512	1207.43
786.698	1200.85
786.883	1166.75
787.068	1169.85
787.254	1195.61
787.439	1155.12
787.624	1210.34
787.809	1181.47
787.994	1185.54
788.18	1240.76
788.365	1129.16
788.55	1202.4
788.735	1178.37
788.92	1178.18
789.105	1170.62
789.29	1218.48
789.475	1141.75
789.66	1164.03
789.845	1140.4
790.03	1132.45
790.215	1195.42
790.4	1179.73
790.585	1196.58
790.77	1144.46
790.955	1089.05
791.14	1151.05
791.325	1188.83
791.51	1082.85
791.695	1108.62
791.879	1102.42
792.064	1075.3
792.249	1188.06
792.434	1095.64
792.618	1129.93
792.803	1160.74
792.988	1110.56
793.173	1118.12
793.357	1134.97
793.542	1109.2
793.727	1142.91
793.911	1150.47
794.096	1079.37
794.281	1109.59
794.465	1203.56
794.65	1122.96
794.834	1160.55
795.019	1170.43
795.203	1181.08
795.388	1160.93
795.572	1180.5
795.757	1151.25
795.941	1163.84
796.126	1159
796.31	1112.69
796.494	1167.13
796.679	1142.53
796.863	1104.75
797.048	1196.97
797.232	1177.6
797.416	1163.26
797.601	1101.26
797.785	1213.44
797.969	1225.06
798.153	1104.17
798.338	1163.06
798.522	1180.89
798.706	1175.27
798.89	1181.47
799.074	1236.11
799.258	1206.46
799.443	1143.69
799.627	1175.08
799.811	1191.74
799.995	1163.26
800.179	1160.55
800.363	1120.25
800.547	1143.5
800.731	1219.83
800.915	1114.82
801.099	1146.4
801.283	1151.25
801.467	1182.83
801.651	1131.29
801.835	1195.03
802.019	1156.67
802.202	1177.21
802.386	1142.53
802.57	1146.4
802.754	1107.46
802.938	1072.97
803.121	1133.03
803.305	1219.45
803.489	1137.3
803.673	1173.33
803.856	1167.33
804.04	1190.38
804.224	1171.01
804.407	1173.33
804.591	1126.64
804.775	1160.35
804.958	1162.29
805.142	1258.19
805.326	1129.74
805.509	1151.25
805.693	1191.35
805.876	1208.4
806.06	1163.65
806.243	1152.02
806.427	1177.6
806.61	1195.03
806.794	1164.23
806.977	1198.91
807.16	1137.68
807.344	1157.25
807.527	1198.71
807.71	1149.89
807.894	1183.02
808.077	1204.53
808.26	1127.03
808.444	1116.37
808.627	1221.77
808.81	1156.67
808.993	1117.92
809.177	1134.58
809.36	1137.88
809.543	1155.51
809.726	1043.14
809.909	1084.4
810.092	1080.53
810.276	1060.57
810.459	1109.78
810.642	1078.98
810.825	1058.25
811.008	1083.24
811.191	1009.62
811.374	1043.72
811.557	1045.46
811.74	1114.82
811.923	972.22
812.106	1031.7
812.289	967.77
812.472	972.42
812.654	1046.62
812.837	995.86
813.02	959.24
813.203	964.67
813.386	871.09
813.569	891.43
813.751	853.84
813.934	915.46
814.117	872.64
814.3	854.23
814.482	873.41
814.665	836.79
814.848	820.13
815.03	771.89
815.213	806.18
815.396	790.88
815.578	760.26
815.761	768.4
815.943	837.76
816.126	725.78
816.309	711.05
816.491	693.62
816.674	646.73
816.856	678.89
817.039	707.76
817.221	782.35
817.403	711.25
817.586	716.28
817.768	779.45
817.951	664.17
818.133	663.39
818.315	690.32
818.498	733.53
818.68	791.65
818.862	720.93
819.045	749.61
819.227	748.06
819.409	709.89
819.591	719.38
819.774	714.54
819.956	699.23
820.138	776.73
820.32	746.51
820.502	746.9
820.684	793.78
820.866	793.78
821.048	833.89
821.231	818.58
821.413	827.69
821.595	817.03
821.777	794.75
821.959	764.14
822.141	864.5
822.323	786.81
822.505	733.33
822.686	729.07
822.868	736.05
823.05	655.64
823.232	648.28
823.414	605.65
823.596	674.82
823.778	626.97
823.96	666.49
824.141	653.9
824.323	672.69
824.505	700.78
824.687	729.07
824.868	739.92
825.05	813.74
825.232	808.89
825.413	880
825.595	818.78
825.777	781.58
825.958	799.98
826.14	777.31
826.321	823.81
826.503	814.51
826.685	805.99
826.866	829.04
827.048	797.85
827.229	772.28
827.411	818.78
827.592	727.33
827.773	741.47
827.955	724.81
828.136	753.87
828.318	675.21
828.499	760.65
828.68	662.03
828.862	732.75
829.043	787
829.224	744.96
829.406	695.17
829.587	712.02
829.768	707.95
829.949	721.9
830.131	694.2
830.312	749.22
830.493	713.38
830.674	688.38
830.855	700.2
831.036	700.4
831.218	771.31
831.399	784.68
831.58	723.65
831.761	714.93
831.942	761.81
832.123	712.21
832.304	702.72
832.485	681.99
832.666	704.27
832.847	707.56
833.028	714.35
833.209	708.53
833.389	720.93
833.57	673.08
833.751	726.94
833.932	741.08
834.113	752.32
834.294	713.38
834.475	732.95
834.655	734.88
834.836	780.03
835.017	746.31
835.198	681.02
835.378	737.98
835.559	739.15
835.74	716.48
835.92	699.23
836.101	697.1
836.281	741.66
836.462	748.45
836.643	762.59
836.823	762.98
837.004	764.14
837.184	816.64
837.365	754.06
837.545	796.69
837.726	742.05
837.906	810.44
838.087	774.99
838.267	731.01
838.448	690.71
838.628	743.41
838.808	745.73
838.989	791.26
839.169	729.46
839.349	774.99
839.53	781.96
839.71	801.34
839.89	732.56
840.07	805.21
840.251	701.95
840.431	763.56
840.611	767.82
840.791	731.01
840.971	760.26
841.151	735.46
841.332	716.67
841.512	786.81
841.692	705.24
841.872	727.33
842.052	741.86
842.232	743.6
842.412	686.45
842.592	712.6
842.772	732.95
842.952	748.25
843.132	729.46
843.312	722.68
843.492	675.6
843.672	746.31
843.851	709.89
844.031	737.21
844.211	715.31
844.391	689.16
844.571	730.43
844.751	720.55
844.93	754.45
845.11	721.9
845.29	719.77
845.47	759.1
845.649	700.4
845.829	738.18
846.009	698.46
846.188	728.68
846.368	747.86
846.547	698.27
846.727	761.04
846.907	664.94
847.086	730.81
847.266	754.84
847.445	706.01
847.625	710.28
847.804	702.33
847.984	712.41
848.163	651.96
848.343	720.74
848.522	725
848.701	734.69
848.881	673.85
849.06	701.17
849.239	695.75
849.419	725.2
849.598	679.28
849.777	699.81
849.957	669.98
850.136	639.17
850.315	613.21
850.494	619.99
850.674	614.18
850.853	693.03
851.032	655.06
851.211	727.13
851.39	684.12
851.569	628.71
851.748	650.99
851.927	683.54
852.107	676.18
852.286	630.07
852.465	599.07
852.644	686.25
852.823	627.55
853.002	674.24
853.181	654.87
853.359	656.03
853.538	629.29
853.717	689.35
853.896	627.74
854.075	615.34
854.254	574.65
854.433	546.56
854.611	593.25
854.79	529.9
854.969	587.05
855.148	608.75
855.327	557.02
855.505	588.02
855.684	554.89
855.863	604.1
856.041	544.04
856.22	576.4
856.399	593.84
856.577	631.81
856.756	639.37
856.934	728.68
857.113	745.73
857.291	638.59
857.47	600.42
857.648	654.67
857.827	632.2
858.005	627.16
858.184	586.86
858.362	689.35
858.541	624.06
858.719	623.87
858.898	608.37
859.076	610.5
859.254	664.36
859.433	593.25
859.611	615.53
859.789	566.13
859.967	672.69
860.146	658.74
860.324	623.48
860.502	594.42
860.68	566.13
860.859	567.87
861.037	608.95
861.215	619.41
861.393	610.11
861.571	621.35
861.749	606.43
861.927	624.83
862.105	600.81
862.283	575.04
862.461	584.92
862.639	546.37
862.817	568.26
862.995	590.74
863.173	559.54
863.351	593.45
863.529	591.12
863.707	621.54
863.885	584.15
864.063	507.23
864.241	561.67
864.418	628.32
864.596	558.19
864.774	547.92
864.952	562.25
865.129	587.05
865.307	549.66
865.485	510.91
865.663	587.44
865.84	529.12
866.018	588.8
866.196	452.4
866.373	507.81
866.551	474.68
866.728	426.24
866.906	483.4
867.084	515.17
867.261	542.69
867.439	525.25
867.616	559.74
867.794	512.46
867.971	545.2
868.149	525.83
868.326	576.4
868.503	551.4
868.681	541.33
868.858	498.32
869.035	499.48
869.213	552.57
869.39	558.38
869.567	595.77
869.745	508.59
869.922	540.36
870.099	554.5
870.276	578.72
870.454	566.9
870.631	572.33
870.808	528.74
870.985	560.32
871.162	616.12
871.339	549.66
871.517	484.56
871.694	513.62
871.871	532.42
872.048	529.7
872.225	503.55
872.402	536.1
872.579	499.29
872.756	542.49
872.933	488.44
873.11	520.21
873.287	537.65
873.463	477.78
873.64	488.63
873.817	548.3
873.994	501.81
874.171	493.86
874.348	523.12
874.524	445.04
874.701	524.09
874.878	431.48
875.055	516.34
875.231	488.05
875.408	489.02
875.585	464.22
875.762	515.37
875.938	499.87
876.115	493.47
876.291	487.47
876.468	504.13
876.645	439.42
876.821	503.94
876.998	457.82
877.174	525.05
877.351	461.12
877.527	449.49
877.704	514.59
877.88	472.94
878.057	452.59
878.233	534.94
878.409	475.84
878.586	480.69
878.762	486.69
878.938	468.67
879.115	390.79
879.291	471.97
879.467	397.57
879.644	424.31
879.82	478.36
879.996	418.49
880.172	384.59
880.349	451.62
880.525	484.37
880.701	426.63
880.877	425.86
881.053	460.92
881.229	444.84
881.405	498.32
881.581	405.13
881.757	432.44
881.933	447.75
882.109	477.01
882.285	449.11
882.461	412.68
882.637	449.11
882.813	396.79
882.989	455.5
883.165	488.82
883.341	402.99
883.517	483.21
883.693	442.91
883.869	459.37
884.044	399.51
884.22	456.66
884.396	505.49
884.572	480.11
884.747	466.54
884.923	446.78
885.099	469.84
885.275	478.36
885.45	436.9
885.626	426.83
885.801	437.48
885.977	435.16
886.153	400.86
886.328	468.87
886.504	433.8
886.679	465.19
886.855	404.93
887.03	461.51
887.206	459.76
887.381	456.08
887.557	483.59
887.732	474.29
887.908	475.26
888.083	501.03
888.258	453.95
888.434	403.96
888.609	462.28
888.784	463.06
888.96	406.48
889.135	396.79
889.31	423.92
889.485	437.29
889.661	425.08
889.836	487.86
890.011	479.91
890.186	432.25
890.361	432.44
890.537	453.17
890.712	427.21
890.887	448.72
891.062	436.13
891.237	488.44
891.412	402.03
891.587	433.99
891.762	457.63
891.937	492.31
892.112	416.17
892.287	447.75
892.462	392.73
892.637	400.28
892.812	389.82
892.987	421.4
893.161	384.59
893.336	381.68
893.511	402.8
893.686	387.3
893.861	400.48
894.035	407.26
894.21	388.46
894.385	353.59
894.56	404.35
894.734	348.55
894.909	377.23
895.084	358.24
895.258	365.41
895.433	382.84
895.608	358.82
895.782	317.94
895.957	351.65
896.131	371.22
896.306	296.63
896.48	297.4
896.655	319.68
896.829	274.93
897.004	273.18
897.178	304.76
897.353	295.08
897.527	318.33
897.701	280.16
897.876	244.12
898.05	332.28
898.224	271.83
898.399	343.32
898.573	306.31
898.747	237.73
898.921	307.48
899.096	230.17
899.27	261.56
899.444	263.88
899.618	254.2
899.792	260.4
899.967	253.23
900.141	283.45
900.315	202.08
900.489	257.88
900.663	273.76
900.837	254.97
901.011	218.55
901.185	285.78
901.359	279
901.533	266.98
901.707	266.21
901.881	283.45
902.055	222.42
902.229	219.52
902.403	302.83
902.576	259.82
902.75	257.3
902.924	331.7
903.098	288.68
903.272	302.25
903.446	336.54
903.619	289.65
903.793	303.02
903.967	317.36
904.14	323.95
904.314	316.78
904.488	331.89
904.661	351.07
904.835	325.88
905.009	372.19
905.182	381.49
905.356	354.36
905.529	342.55
905.703	291.4
905.876	290.04
906.05	279.38
906.223	302.05
906.397	240.63
906.57	275.12
906.744	229.78
906.917	271.25
907.09	258.65
907.264	253.03
907.437	251.87
907.61	229.59
907.784	243.35
907.957	266.98
908.13	204.98
908.304	270.86
908.477	224.94
908.65	240.63
908.823	211.38
908.996	295.66
909.17	241.02
909.343	218.93
909.516	265.05
909.689	250.13
909.862	221.45
910.035	223.2
910.208	191.03
910.381	207.89
910.554	304.96
910.727	204.79
910.9	211.18
911.073	204.4
911.246	274.93
911.419	229.2
911.592	225.72
911.765	177.28
911.938	203.05
912.11	223.78
912.283	212.35
912.456	261.37
912.629	233.27
912.802	205.76
912.974	193.17
913.147	164.3
913.32	152.09
913.493	176.7
913.665	179.02
913.838	202.08
914.01	172.44
914.183	186.58
914.356	159.84
914.528	225.91
914.701	227.07
914.873	240.63
915.046	184.25
915.218	189.1
915.391	148.6
915.563	132.72
915.736	203.43
915.908	245.87
916.081	182.51
916.253	170.11
916.425	182.9
916.598	169.92
916.77	187.35
916.942	180.77
917.115	138.72
917.287	199.95
917.459	173.02
917.632	153.64
917.804	112.95
917.976	186.77
918.148	170.69
918.32	170.3
918.493	167.01
918.665	215.06
918.837	205.37
919.009	241.22
919.181	223.2
919.353	200.14
919.525	188.52
919.697	207.89
919.869	186.38
920.041	251.68
920.213	269.7
920.385	211.57
920.557	173.21
920.729	206.92
920.901	235.6
921.073	197.23
921.244	176.12
921.416	239.47
921.588	198.78
921.76	189.1
921.932	272.21
922.103	199.37
922.275	184.25
922.447	203.43
922.619	156.16
922.79	201.88
922.962	185.03
923.134	227.07
923.305	178.83
923.477	124.77
923.648	153.06
923.82	179.6
923.991	155.77
924.163	119.93
924.335	146.47
924.506	166.43
924.677	195.49
924.849	150.93
925.02	160.81
925.192	203.24
925.363	171.85
925.535	148.41
925.706	131.36
925.877	227.07
926.049	153.45
926.22	177.47
926.391	169.72
926.562	187.16
926.734	129.04
926.905	204.79
927.076	158.87
927.247	158.1
927.419	129.62
927.59	102.88
927.761	146.28
927.932	152.29
928.103	168.56
928.274	119.74
928.445	104.04
928.616	130.97
928.787	124.39
928.958	165.27
929.129	151.32
929.3	127.29
929.471	103.46
929.642	49.21
929.813	18.79
929.984	118.77
930.155	52.51
930.326	128.45
930.496	63.36
930.667	13.95
930.838	64.13
931.009	57.54
931.18	57.16
931.35	60.06
931.521	49.21
931.692	25.19
931.863	-3.1
932.033	74.79
932.204	66.26
932.374	70.33
932.545	23.44
932.716	72.27
932.886	66.65
933.057	-6.2
933.227	40.3
933.398	107.72
933.568	40.88
933.739	2.71
933.909	5.81
934.08	65.29
934.25	-5.23
934.421	-7.36
934.591	33.52
934.761	2.52
934.932	-41.85
935.102	8.52
935.272	36.81
935.443	10.46
935.613	10.27
935.783	33.91
935.953	2.13
936.123	147.25
936.294	-28.29
936.464	15.5
936.634	10.85
936.804	-20.54
936.974	-17.82
937.144	-2.52
937.314	27.51
937.484	5.62
937.655	-7.94
937.825	47.47
937.995	10.85
938.165	27.32
938.334	-28.09
938.504	-1.74
938.674	-8.33
938.844	-16.66
939.014	31
939.184	-7.94
939.354	70.14
939.524	54.64
939.694	15.5
939.863	-0.77
940.033	87.96
940.203	62.77
940.373	47.86
940.542	86.61
940.712	35.07
940.882	46.89
941.051	85.83
941.221	47.66
941.391	83.51
941.56	15.5
941.73	22.86
941.899	124.97
942.069	29.64
942.238	41.07
942.408	19.96
942.577	65.49
942.747	21.7
942.916	-1.74
943.086	-0.19
943.255	54.06
943.425	29.45
943.594	27.32
943.763	-42.43
943.933	1.36
944.102	-32.55
944.271	31
944.441	43.01
944.61	8.52
944.779	20.73
944.948	101.91
945.117	-4.65
945.287	-4.65
945.456	-32.36
945.625	16.08
945.794	32.55
945.963	11.82
946.132	42.43
946.301	-5.81
946.47	71.49
946.639	-21.89
946.808	-3.49
946.977	43.4
947.146	54.25
947.315	-6.39
947.484	71.11
947.653	5.81
947.822	4.65
947.991	12.01
948.16	99.97
948.329	61.03
948.498	-3.1
948.666	36.62
948.835	36.23
949.004	-27.12
949.173	-21.7
949.341	22.09
949.51	36.23
949.679	75.76
949.847	65.29
950.016	94.35
950.185	74.59
950.353	0.19
950.522	-9.49
950.69	54.25
950.859	-8.14
951.028	53.09
951.196	34.87
951.365	4.46
951.533	28.67
951.701	54.64
951.87	43.21
952.038	13.95
952.207	53.28
952.375	98.04
952.543	-11.04
952.712	30.03
952.88	-6.97
953.048	77.5
953.217	23.64
953.385	11.24
953.553	38.75
953.721	-42.43
953.89	36.23
954.058	-37.39
954.226	1.36
954.394	8.91
954.562	-19.37
954.73	33.32
954.898	26.93
955.067	75.17
955.235	-6.78
955.403	73.43
955.571	80.02
955.739	53.67
955.907	-17.44
956.075	-4.26
956.243	-8.91
956.41	29.26
956.578	-34.68
956.746	-23.25
956.914	1.94
957.082	37.01
957.25	4.46
957.418	-15.11
957.585	41.85
957.753	56.19
957.921	-4.46
958.089	3.49
958.256	56.57
958.424	25.96
958.592	42.62
958.759	9.49
958.927	66.26
959.095	16.08
959.262	26.74
959.43	1.74
959.597	5.42
959.765	39.14
959.932	-6.59
960.1	56.57
960.267	39.14
960.435	18.02
960.602	55.41
960.77	7.17
960.937	-15.5
961.104	29.26
961.272	-38.36
961.439	1.16
961.606	50.76
961.774	64.52
961.941	8.72
962.108	47.27
962.275	27.32
962.443	50.76
962.61	29.64
962.777	102.69
962.944	22.09
963.111	44.17
963.278	21.7
963.446	25.77
963.613	39.14
963.78	49.02
963.947	32.74
964.114	45.72
964.281	106.75
964.448	68.2
964.615	29.06
964.782	12.4
964.949	49.6
965.116	34.68
965.282	61.22
965.449	38.36
965.616	-16.27
965.783	53.28
965.95	16.86
966.117	-4.26
966.283	34.87
966.45	37.59
966.617	73.43
966.784	75.17
966.95	55.22
967.117	51.54
967.284	23.83
967.45	-1.94
967.617	74.21
967.784	57.16
967.95	107.53
968.117	1.16
968.283	77.31
968.45	135.62
968.616	36.62
968.783	53.47
968.949	10.66
969.116	82.34
969.282	20.92
969.449	38.75
969.615	34.87
969.781	-12.59
969.948	-20.15
970.114	-1.55
970.28	87.96
970.447	13.76
970.613	60.06
970.779	39.52
970.945	39.52
971.112	27.51
971.278	20.54
971.444	2.52
971.61	72.07
971.776	23.25
971.942	42.43
972.108	34.87
972.275	18.6
972.441	49.21
972.607	94.94
972.773	0.97
972.939	49.79
973.105	36.04
973.271	-10.07
973.437	13.17
973.602	10.27
973.768	60.64
973.934	39.14
974.1	55.02
974.266	-28.87
974.432	58.32
974.598	32.16
974.763	43.59
974.929	26.16
975.095	82.54
975.261	14.14
975.426	-5.23
975.592	9.88
975.758	89.7
975.923	-2.52
976.089	7.75
976.255	82.73
976.42	44.56
976.586	25.96
976.751	25.38
976.917	121.67
977.082	47.66
977.248	6.97
977.413	-12.4
977.579	11.82
977.744	33.71
977.91	-16.08
978.075	18.6
978.24	52.12
978.406	25.77
978.571	12.21
978.736	16.47
978.902	35.84
979.067	12.98
979.232	-10.46
979.397	38.94
979.563	73.43
979.728	1.55
979.893	35.46
980.058	-2.71
980.223	68.39
980.388	45.53
980.554	24.99
980.719	21.89
980.884	19.37
981.049	84.28
981.214	3.87
981.379	29.26
981.544	-3.1
981.709	3.1
981.874	38.36
982.039	19.96
982.204	75.17
982.368	24.99
982.533	6.01
982.698	53.28
982.863	54.64
983.028	8.33
983.193	4.84
983.357	53.28
983.522	34.68
983.687	41.07
983.852	33.32
984.016	12.21
984.181	48.44
984.346	33.13
984.51	67.42
984.675	21.89
984.839	55.02
985.004	41.07
985.168	65.1
985.333	47.86
985.498	3.87
985.662	37.59
985.827	60.26
985.991	19.37
986.155	28.09
986.32	60.84
986.484	98.42
986.649	54.44
986.813	-18.02
986.977	6.59
987.142	61.03
987.306	-22.86
987.47	13.56
987.634	19.18
987.799	45.53
987.963	49.21
988.127	42.62
988.291	86.8
988.455	61.61
988.62	5.23
988.784	63.16
988.948	60.06
989.112	6.01
989.276	31.97
989.44	31.58
989.604	4.07
989.768	26.74
989.932	98.04
990.096	10.66
990.26	-14.53
990.424	0.39
990.588	14.53
990.752	87.38
990.915	75.56
991.079	18.79
991.243	18.02
991.407	68.97
991.571	29.64
991.734	38.75
991.898	55.41
992.062	119.15
992.226	24.02
992.389	-16.47
992.553	-0.19
992.717	-15.69
992.88	22.09
993.044	48.44
993.207	-7.94
993.371	46.89
993.535	22.47
993.698	14.92
993.862	62.39
994.025	34.29
994.189	18.79
994.352	29.64
994.515	38.94
994.679	73.43
994.842	20.34
995.006	71.49
995.169	-14.14
995.332	6.2
995.496	40.49
995.659	1.74
995.822	45.14
995.985	46.5
996.149	80.79
996.312	27.51
996.475	85.64
996.638	14.34
996.801	72.66
996.964	100.55
997.128	3.29
997.291	57.16
997.454	44.76
997.617	-1.94
997.78	64.91
997.943	5.04
998.106	71.11
998.269	4.46
998.432	31.58
998.595	48.24
998.758	-6.78
998.92	6.97
999.083	-28.87
999.246	39.33
999.409	-9.3
999.572	-48.82
999.735	-18.02
999.897	29.84
1000.06	13.37
1000.223	14.34
1000.386	67.81
1000.548	55.41
1000.711	42.62
1000.874	22.67
1001.036	-31.97
1001.199	30.61
1001.361	0.19
1001.524	36.04
1001.687	46.11
1001.849	-40.11
1002.012	14.72
1002.174	26.93
1002.337	44.37
1002.499	7.36
1002.661	76.53
1002.824	-15.31
1002.986	0.97
1003.149	5.04
1003.311	4.84
1003.473	75.76
1003.636	4.26
1003.798	32.16
1003.96	51.34
1004.123	18.21
1004.285	-20.73
1004.447	33.32
1004.609	20.54
1004.771	105.59
1004.933	-41.27
1005.096	-12.79
1005.258	-30.03
1005.42	0.58
1005.582	54.83
1005.744	2.32
1005.906	-32.36
1006.068	32.74
1006.23	3.68
1006.392	-47.08
1006.554	-3.87
1006.716	46.11
1006.878	37.01
1007.04	-34.68
1007.202	7.17
1007.363	13.56
1007.525	33.52
1007.687	21.89
1007.849	47.27
1008.011	-24.8
1008.172	-34.68
1008.334	-1.36
1008.496	39.91
1008.658	-23.83
1008.819	2.91
1008.981	-42.82
1009.143	-19.37
1009.304	-7.75
1009.466	33.52
1009.627	57.93
1009.789	105.01
1009.95	25.38
1010.112	-7.36
1010.273	20.54
1010.435	-11.04
1010.596	-0.39
1010.758	-24.02
1010.919	-8.52
1011.081	-1.74
1011.242	-2.91
1011.403	17.24
1011.565	10.46
1011.726	23.06
1011.887	-6.97
1012.049	6.39
1012.21	54.06
1012.371	67.62
1012.532	-62
1012.693	13.17
1012.855	9.69
1013.016	12.21
1013.177	29.06
1013.338	-1.36
1013.499	87.38
1013.66	64.71
1013.821	52.51
1013.982	-4.07
1014.143	14.14
1014.304	-12.98
1014.465	24.8
1014.626	34.87
1014.787	8.91
1014.948	72.46
1015.109	-60.06
1015.27	54.83
1015.431	-11.62
1015.592	-8.52
1015.752	43.98
1015.913	17.44
1016.074	25.96
1016.235	26.74
1016.395	5.04
1016.556	7.75
1016.717	31.19
1016.877	64.71
1017.038	-7.17
1017.199	35.84
1017.359	-2.52
1017.52	26.93
1017.681	-30.22
1017.841	30.03
1018.002	7.36
1018.162	11.62
1018.323	51.15
1018.483	-8.72
1018.644	-8.72
1018.804	-34.87
1018.964	-36.62
1019.125	21.51
1019.285	22.28
1019.446	-19.96
1019.606	-13.76
1019.766	-37.2
1019.926	31.58
1020.087	28.48
1020.247	-31
1020.407	11.82
1020.567	48.05
1020.728	3.68
1020.888	-17.82
1021.048	-10.27
1021.208	-30.61
1021.368	-15.31
1021.528	46.11
1021.688	46.69
1021.848	52.7
1022.008	-14.72
1022.168	-15.5
1022.328	17.24
1022.488	38.56
1022.648	-17.24
1022.808	-8.14
1022.968	18.79
1023.128	6.39
1023.288	-18.21
1023.448	17.63
1023.608	24.99
1023.767	26.93
1023.927	0.58
1024.087	-30.22
1024.247	-54.64
1024.406	-7.36
1024.566	-31.77
1024.726	-23.64
1024.885	20.92
1025.045	27.51
1025.205	13.56
1025.364	13.56
1025.524	21.51
1025.683	22.86
1025.843	10.85
1026.003	16.66
1026.162	56.19
1026.321	44.56
1026.481	-3.68
1026.64	2.91
1026.8	18.79
1026.959	27.71
1027.119	6.78
1027.278	13.56
1027.437	1.36
1027.597	20.92
1027.756	21.31
1027.915	62.77
1028.074	37.01
1028.234	-2.52
1028.393	7.94
1028.552	-14.53
1028.711	-67.23
1028.87	57.16
1029.03	-19.76
1029.189	29.26
1029.348	-31.97
1029.507	-17.82
1029.666	-4.84
1029.825	-12.59
1029.984	-25.96
1030.143	12.4
1030.302	-17.82
1030.461	-36.62
1030.62	0.97
1030.779	36.04
1030.938	-12.21
1031.097	-20.92
1031.255	31.19
1031.414	72.46
1031.573	31.39
1031.732	-59.29
1031.891	-14.72
1032.049	59.09
1032.208	7.56
1032.367	-5.23
1032.525	-6.59
1032.684	10.27
1032.843	1.74
1033.001	-54.44
1033.16	124.97
1033.319	56.38
1033.477	26.93
1033.636	7.36
1033.794	-42.24
1033.953	37.2
1034.111	19.76
1034.27	-14.14
1034.428	25.77
1034.587	-13.17
1034.745	8.14
1034.903	-18.99
1035.062	38.94
1035.22	-25.19
1035.378	28.09
1035.537	-28.29
1035.695	-1.16
1035.853	-5.04
1036.011	61.22
1036.17	19.96
1036.328	-62.58
1036.486	39.14
1036.644	12.59
1036.802	-84.67
1036.96	-20.34
1037.119	12.4
1037.277	-17.82
1037.435	-62.39
1037.593	-18.41
1037.751	2.71
1037.909	35.65
1038.067	35.65
