Data from pine_FLMT105791__34__17-20-08-079.txt Node

Date: Mon Mar 20 17:20:08 GMT 2023
User: antho
Spectrometer: FLMT10579
Trigger mode: 0
Integration Time (sec): 1.000000E-1
Scans to average: 10
Electric dark correction enabled: true
Nonlinearity correction enabled: false
Boxcar width: 0
XAxis mode: Wavelengths
Number of Pixels in Spectrum: 3648
>>>>>Begin Spectral Data<<<<<
345.248	-153.43
345.464	-153.43
345.681	-153.43
345.898	-161.57
346.114	-156.92
346.331	-30.4
346.548	18.62
346.764	-3.08
346.981	3.12
347.197	-32.15
347.414	32.95
347.631	-41.64
347.847	51.94
348.064	-5.41
348.28	23.65
348.497	-18.58
348.713	0.98
348.93	28.88
349.146	46.32
349.363	-13.93
349.579	-4.25
349.796	27.72
350.012	0.02
350.229	1.95
350.445	8.35
350.661	-23.81
350.878	6.22
351.094	11.06
351.311	31.02
351.527	13.19
351.743	-1.73
351.96	48.45
352.176	47.29
352.392	30.82
352.609	13.58
352.825	-27.11
353.041	6.02
353.257	-10.83
353.474	4.47
353.69	45.16
353.906	20.75
354.122	-28.46
354.339	43.61
354.555	27.53
354.771	-10.45
354.987	67.83
355.203	55.82
355.42	-4.44
355.636	10.09
355.852	-17.03
356.068	14.16
356.284	-26.33
356.5	45.35
356.716	12.42
356.932	0.02
357.148	28.3
357.364	-3.47
357.58	24.43
357.796	41.48
358.012	30.63
358.228	24.62
358.444	-51.52
358.66	90.5
358.876	30.63
359.092	-10.06
359.308	-1.73
359.524	-2.5
359.74	-5.6
359.956	-5.41
360.172	15.32
360.388	28.3
360.604	-14.32
360.819	83.71
361.035	25.98
361.251	56.98
361.467	-7.93
361.683	49.62
361.898	23.27
362.114	21.72
362.33	19
362.546	54.27
362.762	23.27
362.977	-3.28
363.193	-20.91
363.409	50.97
363.624	-43.96
363.84	-36.8
364.056	0.79
364.271	58.33
364.487	11.06
364.703	27.72
364.918	-15.48
365.134	18.03
365.35	20.94
365.565	115.3
365.781	-11.61
365.996	45.74
366.212	61.05
366.427	23.27
366.643	-20.52
366.858	23.07
367.074	-8.9
367.289	73.25
367.505	106.19
367.72	-28.85
367.936	1.18
368.151	52.52
368.367	58.14
368.582	32.95
368.798	5.63
369.013	58.14
369.228	8.73
369.444	23.46
369.659	75.38
369.874	20.17
370.09	85.07
370.305	-71.09
370.52	19.58
370.736	80.23
370.951	27.92
371.166	86.04
371.381	65.5
371.597	60.08
371.812	-9.67
372.027	5.05
372.242	33.15
372.458	72.28
372.673	-17.42
372.888	0.6
373.103	23.46
373.318	117.43
373.533	11.25
373.749	50
373.964	-13.74
374.179	43.8
374.394	-35.83
374.609	56.01
374.824	-12.38
375.039	57.37
375.254	-5.6
375.469	76.16
375.684	37.41
375.899	60.27
376.114	3.12
376.329	24.43
376.544	60.85
376.759	53.49
376.974	-14.51
377.189	12.61
377.404	16.29
377.619	65.5
377.834	-55.4
378.049	-21.68
378.264	-5.99
378.478	31.6
378.693	2.15
378.908	47.29
379.123	16.48
379.338	82.94
379.553	28.69
379.767	40.9
379.982	47.29
380.197	71.9
380.412	24.62
380.626	40.7
380.841	97.86
381.056	54.85
381.271	93.6
381.485	4.67
381.7	0.98
381.915	1.76
382.129	16.29
382.344	44
382.559	9.9
382.773	63.95
382.988	-10.25
383.202	61.43
383.417	-1.73
383.632	105.22
383.846	46.52
384.061	22.68
384.275	20.55
384.49	39.54
384.704	41.48
384.919	42.06
385.133	13.19
385.348	58.53
385.562	-8.12
385.777	68.22
385.991	28.11
386.206	40.12
386.42	15.52
386.634	53.88
386.849	34.89
387.063	12.03
387.277	12.03
387.492	0.4
387.706	1.57
387.92	3.5
388.135	56.4
388.349	48.07
388.563	45.16
388.778	31.4
388.992	68.8
389.206	60.47
389.42	84.3
389.635	22.68
389.849	74.03
390.063	57.75
390.277	52.13
390.491	115.1
390.706	39.73
390.92	79.65
391.134	22.1
391.348	71.51
391.562	-19.16
391.776	40.32
391.99	9.32
392.205	71.32
392.419	11.25
392.633	26.37
392.847	79.26
393.061	-5.02
393.275	89.33
393.489	46.71
393.703	40.9
393.917	76.93
394.131	30.82
394.345	50.39
394.559	50.39
394.773	14.93
394.986	44.58
395.2	23.65
395.414	83.13
395.628	7.77
395.842	43.42
396.056	8.15
396.27	-26.72
396.484	22.88
396.697	41.28
396.911	89.72
397.125	37.6
397.339	66.28
397.553	56.78
397.766	117.04
397.98	77.32
398.194	61.63
398.408	32.76
398.621	38.77
398.835	62.02
399.049	36.63
399.262	76.55
399.476	82.16
399.69	67.05
399.903	108.13
400.117	37.99
400.331	99.6
400.544	36.83
400.758	141.65
400.971	49.62
401.185	79.45
401.398	8.35
401.612	89.72
401.826	67.44
402.039	68.41
402.253	25.98
402.466	99.21
402.68	39.73
402.893	56.01
403.106	45.16
403.32	44.77
403.533	48.45
403.747	59.3
403.96	63.37
404.174	63.18
404.387	16.1
404.6	42.83
404.814	86.04
405.027	29.47
405.24	72.09
405.454	46.71
405.667	72.87
405.88	5.05
406.094	48.45
406.307	75.77
406.52	66.28
406.733	3.89
406.947	0.6
407.16	124.01
407.373	77.52
407.586	32.76
407.799	37.41
408.012	88.75
408.226	75.77
408.439	111.42
408.652	17.07
408.865	63.95
409.078	107.16
409.291	64.34
409.504	30.63
409.717	78.48
409.93	68.8
410.143	78.1
410.357	15.9
410.57	43.8
410.783	41.67
410.996	63.76
411.209	46.13
411.421	86.43
411.634	56.59
411.847	52.33
412.06	52.33
412.273	62.02
412.486	67.25
412.699	134.48
412.912	70.15
413.125	87.59
413.338	84.88
413.55	112.97
413.763	68.22
413.976	80.23
414.189	50
414.402	58.92
414.615	113.36
414.827	39.73
415.04	97.08
415.253	97.86
415.466	120.53
415.678	133.51
415.891	70.93
416.104	52.91
416.316	68.02
416.529	72.09
416.742	98.44
416.954	89.53
417.167	66.08
417.38	68.6
417.592	115.49
417.805	9.12
418.017	21.33
418.23	89.72
418.442	69.38
418.655	60.08
418.868	83.52
419.08	83.33
419.293	145.52
419.505	84.68
419.718	108.71
419.93	108.9
420.142	59.5
420.355	116.26
420.567	124.6
420.78	101.35
420.992	77.9
421.205	111.61
421.417	31.6
421.629	73.83
421.842	75
422.054	42.64
422.266	111.23
422.479	111.23
422.691	64.73
422.903	122.66
423.115	62.21
423.328	97.28
423.54	93.4
423.752	77.13
423.964	67.63
424.177	94.95
424.389	69.96
424.601	175.36
424.813	93.79
425.025	122.66
425.238	133.12
425.45	93.01
425.662	60.47
425.874	410.57
426.086	98.83
426.298	130.02
426.51	114.91
426.722	85.07
426.934	67.63
427.146	124.98
427.358	84.88
427.57	109.87
427.782	101.73
427.994	102.7
428.206	85.46
428.418	54.85
428.63	109.87
428.842	156.56
429.054	96.7
429.266	134.09
429.478	60.85
429.69	110.84
429.902	46.13
430.114	118.2
430.325	123.43
430.537	108.51
430.749	78.29
430.961	52.52
431.173	87.2
431.384	152.88
431.596	27.14
431.808	106.19
432.02	121.11
432.231	132.93
432.443	168.19
432.655	135.64
432.867	93.79
433.078	130.6
433.29	195.51
433.502	136.22
433.713	178.65
433.925	124.21
434.136	148.04
434.348	105.61
434.56	72.48
434.771	217.01
434.983	85.85
435.194	87.2
435.406	106.58
435.617	174.78
435.829	173.61
436.04	128.47
436.252	172.64
436.463	203.06
436.675	194.15
436.886	157.73
437.098	172.45
437.309	215.27
437.521	131.38
437.732	167.8
437.943	158.31
438.155	162.57
438.366	91.08
438.578	204.23
438.789	160.25
439	182.33
439.211	142.81
439.423	172.06
439.634	186.4
439.845	174.39
440.057	177.49
440.268	181.17
440.479	152.3
440.69	162.96
440.902	138.16
441.113	149.2
441.324	145.52
441.535	190.47
441.746	220.89
441.957	132.73
442.168	148.43
442.38	198.03
442.591	191.83
442.802	166.06
443.013	173.61
443.224	169.93
443.435	163.15
443.646	182.72
443.857	176.13
444.068	162.96
444.279	169.54
444.49	243.17
444.701	194.15
444.912	289.67
445.123	222.05
445.334	213.33
445.545	169.74
445.756	195.7
445.967	186.01
446.178	213.53
446.388	211.98
446.599	230.58
446.81	223.79
447.021	211.59
447.232	217.21
447.443	273.39
447.653	194.15
447.864	248.21
448.075	213.33
448.286	245.49
448.496	227.09
448.707	233.09
448.918	201.9
449.129	321.25
449.339	183.11
449.55	217.01
449.761	200.93
449.971	267.19
450.182	208.68
450.393	236
450.603	220.69
450.814	255.37
451.024	245.3
451.235	275.14
451.446	302.46
451.656	291.41
451.867	223.79
452.077	256.92
452.288	310.4
452.498	282.89
452.709	225.93
452.919	279.21
453.13	221.08
453.34	267
453.55	187.76
453.761	293.74
453.971	241.81
454.182	294.12
454.392	243.94
454.602	299.16
454.813	248.98
455.023	300.91
455.233	194.93
455.444	257.89
455.654	187.95
455.864	257.51
456.075	212.94
456.285	223.21
456.495	221.08
456.705	248.98
456.916	299.94
457.126	288.12
457.336	264.67
457.546	201.32
457.756	248.59
457.967	295.29
458.177	262.35
458.387	252.47
458.597	220.11
458.807	250.92
459.017	242.78
459.227	237.94
459.437	259.44
459.647	266.61
459.857	274.36
460.068	230.58
460.278	276.49
460.488	281.14
460.698	338.69
460.908	264.29
461.117	233.29
461.327	252.66
461.537	277.07
461.747	283.27
461.957	269.52
462.167	393.9
462.377	296.06
462.587	289.09
462.797	321.06
463.007	305.36
463.216	293.74
463.426	335.01
463.636	312.34
463.846	240.65
464.056	277.85
464.265	326.09
464.475	249.18
464.685	287.73
464.895	303.23
465.104	267.19
465.314	306.14
465.524	291.22
465.733	260.99
465.943	363.49
466.153	380.92
466.362	372.4
466.572	315.63
466.782	283.08
466.991	287.15
467.201	367.17
467.41	249.18
467.62	327.84
467.829	311.17
468.039	306.52
468.249	303.81
468.458	301.87
468.668	370.27
468.877	332.68
469.086	375.11
469.296	366.78
469.505	321.25
469.715	389.25
469.924	351.28
470.134	362.71
470.343	384.02
470.552	331.71
470.762	328.03
470.971	313.69
471.18	343.92
471.39	343.14
471.599	299.94
471.808	352.25
472.018	302.84
472.227	387.12
472.436	376.85
472.645	323.19
472.855	314.66
473.064	389.84
473.273	374.53
473.482	391.19
473.691	416.19
473.901	409.21
474.11	370.27
474.319	439.24
474.528	353.8
474.737	445.25
474.946	390.03
475.155	388.48
475.364	388.09
475.573	390.03
475.783	403.2
475.992	419.67
476.201	417.93
476.41	386.54
476.619	379.76
476.828	404.56
477.037	374.53
477.245	376.47
477.454	415.02
477.663	367.55
477.872	386.93
478.081	474.5
478.29	386.35
478.499	502.02
478.708	421.22
478.917	492.33
479.125	396.42
479.334	432.65
479.543	418.12
479.752	464.04
479.961	433.43
480.169	470.05
480.378	446.41
480.587	567.5
480.796	473.15
481.004	459.97
481.213	499.5
481.422	477.6
481.63	470.43
481.839	510.93
482.048	523.13
482.256	486.32
482.465	480.12
482.674	522.55
482.882	524.1
483.091	551.42
483.299	499.69
483.508	510.54
483.716	507.05
483.925	515.97
484.134	477.22
484.342	499.3
484.551	555.68
484.759	541.73
484.967	517.9
485.176	552.97
485.384	485.16
485.593	538.63
485.801	522.55
486.01	520.61
486.218	497.17
486.426	422.19
486.635	468.69
486.843	490.97
487.051	484.97
487.26	447.77
487.468	524.88
487.676	542.51
487.885	499.11
488.093	509.18
488.301	545.41
488.509	542.9
488.717	581.65
488.926	552.2
489.134	517.9
489.342	548.51
489.55	517.71
489.758	549.87
489.967	549.87
490.175	657.01
490.383	548.51
490.591	615.55
490.799	532.43
491.007	588.62
491.215	601.02
491.423	594.05
491.631	570.8
491.839	591.72
492.047	623.3
492.255	535.73
492.463	484.97
492.671	564.4
492.879	624.08
493.087	564.6
493.295	613.42
493.503	619.04
493.711	624.85
493.919	636.86
494.127	651.78
494.334	638.03
494.542	570.6
494.75	616.33
494.958	625.63
495.166	676.39
495.374	663.21
495.581	634.15
495.789	660.5
495.997	713.01
496.205	646.36
496.412	634.73
496.62	623.3
496.828	666.7
497.035	641.51
497.243	696.73
497.451	638.61
497.658	643.84
497.866	663.21
498.074	717.27
498.281	634.93
498.489	723.27
498.696	678.33
498.904	642.87
499.112	654.11
499.319	704.29
499.527	655.27
499.734	689.37
499.942	637.06
500.149	627.37
500.357	674.26
500.564	628.34
500.771	677.16
500.979	657.01
501.186	659.34
501.394	653.14
501.601	635.7
501.808	722.11
502.016	689.56
502.223	646.36
502.43	683.75
502.638	662.24
502.845	630.47
503.052	713.78
503.26	670.96
503.467	762.8
503.674	684.91
503.881	722.31
504.089	787.4
504.296	766.87
504.503	681.43
504.71	699.06
504.917	665.73
505.125	707
505.332	693.44
505.539	732.96
505.746	798.25
505.953	737.81
506.16	749.82
506.367	765.71
506.574	776.17
506.781	785.66
506.988	704.48
507.195	748.46
507.402	739.36
507.609	767.84
507.816	735.67
508.023	736.45
508.23	736.45
508.437	693.05
508.644	753.89
508.851	809.3
509.058	793.8
509.265	761.44
509.472	806.39
509.679	869.55
509.885	803.87
510.092	768.22
510.299	777.14
510.506	772.49
510.713	800.39
510.92	783.53
511.126	810.27
511.333	822.09
511.54	816.47
511.746	839.52
511.953	858.12
512.16	868.97
512.367	819.57
512.573	829.06
512.78	811.04
512.987	811.82
513.193	824.99
513.4	753.31
513.606	806.78
513.813	844.95
514.02	818.99
514.226	901.13
514.433	886.02
514.639	787.21
514.846	836.42
515.052	784.3
515.259	834.29
515.465	844.95
515.672	857.74
515.878	927.68
516.085	851.73
516.291	874.01
516.497	852.5
516.704	817.82
516.91	787.99
517.117	767.26
517.323	758.54
517.529	758.34
517.736	773.26
517.942	815.69
518.148	795.15
518.354	834.87
518.561	847.66
518.767	838.75
518.973	875.75
519.179	886.6
519.386	822.28
519.592	838.75
519.798	851.92
520.004	932.33
520.21	851.92
520.417	900.94
520.623	951.9
520.829	936.98
521.035	920.7
521.241	960.81
521.447	985.8
521.653	1051.29
521.859	966.81
522.065	953.06
522.271	1041.02
522.477	1034.82
522.683	1041.6
522.889	1006.73
523.095	995.68
523.301	952.67
523.507	973.21
523.713	1003.82
523.919	969.33
524.125	1061.56
524.331	984.06
524.537	1077.64
524.742	1048.19
524.948	1047.99
525.154	1042.18
525.36	1139.44
525.566	1050.9
525.772	1100.11
525.977	1005.56
526.183	1085.39
526.389	1082.09
526.595	1025.13
526.8	1048.38
527.006	1017.77
527.212	969.72
527.417	946.47
527.623	969.14
527.829	1039.86
528.034	1055.36
528.24	1006.73
528.446	1012.93
528.651	1103.99
528.857	1072.21
529.062	1122.39
529.268	1084.03
529.473	1128.01
529.679	1058.46
529.884	1144.87
530.09	1095.27
530.295	1160.37
530.501	1144.09
530.706	1138.47
530.912	1108.83
531.117	1141.38
531.323	1146.03
531.528	1173.35
531.733	1172.19
531.939	1155.52
532.144	1167.73
532.35	1171.02
532.555	1224.5
532.76	1186.91
532.966	1158.04
533.171	1131.69
533.376	1145.45
533.581	1105.73
533.787	1146.03
533.992	1160.95
534.197	1221.4
534.402	1138.47
534.607	1165.79
534.813	1252.4
535.018	1165.21
535.223	1174.71
535.428	1161.72
535.633	1217.14
535.838	1202.99
536.043	1196.79
536.249	1281.65
536.454	1205.71
536.659	1247.17
536.864	1167.54
537.069	1182.65
537.274	1220.04
537.479	1207.64
537.684	1234.38
537.889	1175.67
538.094	1328.35
538.299	1222.17
538.504	1240
538.708	1266.15
538.913	1272.35
539.118	1199.51
539.323	1261.31
539.528	1220.62
539.733	1198.92
539.938	1245.04
540.142	1261.31
540.347	1231.86
540.552	1176.26
540.757	1201.44
540.962	1210.94
541.166	1159.79
541.371	1190.59
541.576	1206.09
541.781	1105.54
541.985	1239.42
542.19	1204.16
542.395	1284.75
542.599	1271.58
542.804	1342.88
543.008	1345.01
543.213	1208.81
543.418	1202.22
543.622	1264.22
543.827	1209.58
544.031	1296.77
544.236	1303.74
544.44	1254.34
544.645	1372.13
544.849	1224.5
545.054	1297.54
545.258	1371.94
545.463	1348.88
545.667	1247.55
545.872	1305.48
546.076	1293.28
546.281	1317.5
546.485	1274.87
546.689	1309.75
546.894	1307.23
547.098	1288.82
547.302	1250.07
547.507	1292.12
547.711	1281.46
547.915	1346.17
548.119	1273.9
548.324	1274.1
548.528	1358.57
548.732	1318.27
548.936	1323.5
549.141	1316.14
549.345	1287.85
549.549	1325.83
549.753	1295.99
549.957	1377.17
550.161	1367.87
550.366	1316.92
550.57	1289.4
550.774	1346.75
550.978	1300.84
551.182	1345.2
551.386	1308
551.59	1310.91
551.794	1272.16
551.998	1339.97
552.202	1280.3
552.406	1284.95
552.61	1325.63
552.814	1307.42
553.018	1362.45
553.222	1306.84
553.426	1298.7
553.63	1406.81
553.833	1306.07
554.037	1271.77
554.241	1318.66
554.445	1324.67
554.649	1319.63
554.853	1288.44
555.056	1357.99
555.26	1353.34
555.464	1336.29
555.668	1346.56
555.871	1333.38
556.075	1370.2
556.279	1292.89
556.483	1267.32
556.686	1327.18
556.89	1314.78
557.094	1362.83
557.297	1248.91
557.501	1354.31
557.704	1223.14
557.908	1311.1
558.112	1269.64
558.315	1373.68
558.519	1280.1
558.722	1295.6
558.926	1281.85
559.129	1202.99
559.333	1205.12
559.536	1215.59
559.74	1202.41
559.943	1204.54
560.147	1205.71
560.35	1235.93
560.553	1246.78
560.757	1209.58
560.96	1289.02
561.164	1247.36
561.367	1295.22
561.57	1263.83
561.774	1269.84
561.977	1224.11
562.18	1236.32
562.384	1309.94
562.587	1249.49
562.79	1204.93
562.993	1229.92
563.197	1293.09
563.4	1336.48
563.603	1285.72
563.806	1337.84
564.009	1241.94
564.212	1263.05
564.416	1187.49
564.619	1275.84
564.822	1202.61
565.025	1243.87
565.228	1202.41
565.431	1250.85
565.634	1159.59
565.837	1176.84
566.04	1162.5
566.243	1183.04
566.446	1144.48
566.649	1241.94
566.852	1142.16
567.055	1190.21
567.258	1234.57
567.461	1264.6
567.664	1239.42
567.867	1137.12
568.07	1203.96
568.273	1189.43
568.475	1221.79
568.678	1172.38
568.881	1146.61
569.084	1172.77
569.287	1064.08
569.489	1117.74
569.692	1182.84
569.895	1163.08
570.098	1111.54
570.3	1104.38
570.503	1075.31
570.706	1093.33
570.909	1085.58
571.111	1038.89
571.314	1034.43
571.516	1077.64
571.719	1065.63
571.922	1085.39
572.124	1055.16
572.327	1070.08
572.529	1054.19
572.732	1038.89
572.935	1070.47
573.137	1162.31
573.34	1085.97
573.542	1139.44
573.745	1112.32
573.947	1097.59
574.15	1054.78
574.352	1058.07
574.554	1118.71
574.757	1042.57
574.959	1030.17
575.162	1035.79
575.364	1017.38
575.566	1128.79
575.769	1028.04
575.971	1037.15
576.173	963.71
576.376	1032.88
576.578	1061.36
576.78	1103.41
576.982	976.31
577.185	1016.8
577.387	985.41
577.589	1024.16
577.791	1038.7
577.993	1024.16
578.196	1017.19
578.398	1049.74
578.6	1084.81
578.802	977.66
579.004	982.12
579.206	982.51
579.408	1021.06
579.61	988.9
579.812	1044.7
580.014	978.25
580.216	1001.3
580.418	968.75
580.62	971.08
580.822	964.3
581.024	987.16
581.226	1053.42
581.428	964.49
581.63	1089.26
581.832	989.1
582.034	1038.31
582.236	1026.68
582.438	1045.48
582.64	1077.25
582.841	1094.49
583.043	1127.04
583.245	1039.28
583.447	1075.12
583.649	1007.5
583.85	1027.65
584.052	1049.16
584.254	1003.82
584.456	1066.59
584.657	958.29
584.859	1029.98
585.061	1006.92
585.262	974.76
585.464	954.61
585.666	1052.26
585.867	985.22
586.069	1078.22
586.27	1043.15
586.472	1052.26
586.674	987.93
586.875	986.38
587.077	986.38
587.278	1007.11
587.48	984.06
587.681	1116.39
587.883	1014.48
588.084	921.67
588.285	958.29
588.487	975.73
588.688	994.52
588.89	898.81
589.091	917.41
589.292	930.58
589.494	885.44
589.695	901.13
589.896	825.19
590.098	834.29
590.299	878.08
590.5	849.79
590.702	861.61
590.903	890.48
591.104	954.41
591.305	898.03
591.507	964.1
591.708	945.31
591.909	930.39
592.11	984.83
592.311	962.94
592.512	907.53
592.714	852.5
592.915	881.18
593.116	907.92
593.317	922.45
593.518	871.68
593.719	911.4
593.92	987.93
594.121	962.55
594.322	943.18
594.523	914.12
594.724	879.05
594.925	904.62
595.126	943.37
595.327	917.99
595.528	908.69
595.729	928.45
595.929	904.82
596.13	917.41
596.331	937.95
596.532	938.33
596.733	987.93
596.934	948.22
597.135	909.66
597.335	937.37
597.536	902.49
597.737	901.91
597.938	874.01
598.138	932.33
598.339	912.95
598.54	942.6
598.74	947.05
598.941	908.5
599.142	958.48
599.342	917.41
599.543	882.92
599.744	906.95
599.944	906.95
600.145	888.35
600.345	936.59
600.546	1009.25
600.746	955.77
600.947	1006.92
601.147	929.62
601.348	968.95
601.548	877.3
601.749	935.23
601.949	881.18
602.15	895.9
602.35	910.82
602.551	924.97
602.751	875.95
602.951	912.18
603.152	828.87
603.352	935.62
603.552	930
603.753	960.81
603.953	944.34
604.153	915.67
604.354	917.6
604.554	915.28
604.754	916.25
604.954	878.85
605.155	885.83
605.355	903.46
605.555	954.22
605.755	964.1
605.955	919.73
606.155	962.36
606.356	926.32
606.556	959.06
606.756	937.37
606.956	847.08
607.156	936.01
607.356	855.8
607.556	928.45
607.756	905.98
607.956	945.89
608.156	881.37
608.356	875.95
608.556	921.48
608.756	902.68
608.956	833.9
609.156	905.01
609.356	851.34
609.556	840.1
609.755	901.72
609.955	846.89
610.155	880.02
610.355	891.64
610.555	871.1
610.755	877.5
610.954	799.61
611.154	870.13
611.354	891.06
611.554	856.96
611.753	885.63
611.953	815.3
612.153	905.78
612.352	873.62
612.552	818.99
612.752	797.29
612.951	854.83
613.151	880.02
613.351	835.65
613.55	831.39
613.75	867.03
613.949	821.89
614.149	867.03
614.348	852.31
614.548	806
614.747	787.02
614.947	806.2
615.146	751.17
615.346	851.92
615.545	833.71
615.745	831.19
615.944	861.8
616.144	816.47
616.343	809.3
616.542	793.22
616.742	808.72
616.941	786.05
617.14	775.39
617.34	804.65
617.539	797.67
617.738	771.13
617.938	858.9
618.137	793.41
618.336	782.17
618.535	836.23
618.734	810.27
618.934	837.78
619.133	808.14
619.332	804.84
619.531	794.57
619.73	809.3
619.929	885.05
620.128	838.36
620.328	872.07
620.527	782.95
620.726	808.14
620.925	783.92
621.124	800.97
621.323	825.38
621.522	772.68
621.721	772.1
621.92	747.88
622.119	819.18
622.318	792.05
622.517	756.02
622.715	779.46
622.914	720.56
623.113	782.95
623.312	734.9
623.511	793.8
623.71	764.16
623.909	771.71
624.107	835.07
624.306	724.24
624.505	744.39
624.704	787.79
624.902	748.46
625.101	811.04
625.3	757.37
625.499	733.74
625.697	725.21
625.896	728.51
626.095	776.36
626.293	731.22
626.492	730.44
626.69	794.96
626.889	708.36
627.088	816.27
627.286	710.49
627.485	744.97
627.683	703.71
627.882	728.12
628.08	675.23
628.279	692.08
628.477	798.06
628.676	708.74
628.874	721.34
629.073	699.83
629.271	686.85
629.469	706.81
629.668	692.27
629.866	708.36
630.065	696.54
630.263	719.01
630.461	703.71
630.66	715.91
630.858	757.18
631.056	742.46
631.254	767.26
631.453	708.94
631.651	767.64
631.849	731.02
632.047	719.79
632.245	698.86
632.444	709.52
632.642	741.68
632.84	748.07
633.038	704.67
633.236	653.91
633.434	701.96
633.632	676.39
633.83	646.16
634.028	737.22
634.227	728.31
634.425	796.12
634.623	719.98
634.821	722.31
635.019	749.82
635.216	698.47
635.414	773.46
635.612	727.92
635.81	713.2
636.008	761.83
636.206	680.65
636.404	718.43
636.602	691.5
636.8	711.65
636.997	746.14
637.195	759.89
637.393	714.36
637.591	763.96
637.789	712.23
637.986	714.94
638.184	728.89
638.382	765.71
638.58	748.66
638.777	790.89
638.975	731.41
639.173	739.94
639.37	722.89
639.568	727.92
639.765	738.58
639.963	695.76
640.161	751.76
640.358	737.42
640.556	693.24
640.753	708.16
640.951	670.58
641.148	695.96
641.346	702.35
641.543	691.5
641.741	727.34
641.938	694.79
642.136	700.99
642.333	659.34
642.531	733.35
642.728	751.37
642.925	701.38
643.123	682.39
643.32	715.14
643.517	696.15
643.715	692.27
643.912	669.61
644.109	688.79
644.306	688.98
644.504	663.21
644.701	669.61
644.898	690.73
645.095	660.5
645.293	673.29
645.49	691.31
645.687	681.62
645.884	737.42
646.081	617.29
646.278	668.64
646.475	641.13
646.672	644.61
646.87	704.67
647.067	642.48
647.264	680.65
647.461	624.85
647.658	620.2
647.855	686.46
648.052	626.79
648.249	559.75
648.446	637.06
648.642	606.25
648.839	576.41
649.036	600.05
649.233	601.6
649.43	604.51
649.627	585.33
649.824	598.5
650.021	616.71
650.217	623.3
650.414	603.73
650.611	653.91
650.808	632.21
651.004	623.3
651.201	629.31
651.398	682.98
651.595	634.73
651.791	598.31
651.988	636.09
652.185	584.75
652.381	628.53
652.578	571.57
652.775	610.13
652.971	614.97
653.168	610.32
653.364	613.23
653.561	579.71
653.757	573.7
653.954	602.18
654.15	572.35
654.347	667.09
654.543	600.63
654.74	560.53
654.936	542.12
655.133	573.9
655.329	585.33
655.525	586.88
655.722	618.46
655.918	550.45
656.115	607.22
656.311	521.97
656.507	485.93
656.704	443.31
656.9	530.69
657.096	505.89
657.292	522.75
657.489	564.98
657.685	547.16
657.881	545.22
658.077	530.3
658.273	569.05
658.47	590.95
658.666	563.05
658.862	597.15
659.058	538.44
659.254	615.16
659.45	577.77
659.646	573.12
659.842	554.33
660.038	588.62
660.234	568.86
660.43	586.88
660.626	646.36
660.822	603.93
661.018	595.98
661.214	588.43
661.41	532.63
661.606	593.66
661.802	603.93
661.998	603.15
662.194	561.88
662.39	580.68
662.586	569.83
662.781	600.63
662.977	600.05
663.173	620.59
663.369	564.01
663.564	595.4
663.76	585.13
663.956	537.28
664.152	618.46
664.347	513.45
664.543	590.17
664.739	537.47
664.934	510.35
665.13	520.23
665.326	584.94
665.521	560.14
665.717	525.07
665.912	520.03
666.108	493.3
666.304	533.98
666.499	532.82
666.695	472.37
666.89	540.96
667.086	560.72
667.281	570.8
667.477	607.61
667.672	550.84
667.867	570.41
668.063	548.51
668.258	536.31
668.454	511.32
668.649	613.03
668.844	548.51
669.04	573.51
669.235	523.91
669.43	494.27
669.626	498.92
669.821	515.58
670.016	503.18
670.211	527.2
670.407	505.12
670.602	543.28
670.797	539.41
670.992	583.97
671.187	504.53
671.382	572.73
671.578	492.91
671.773	558.4
671.968	499.69
672.163	510.35
672.358	547.35
672.553	493.1
672.748	510.54
672.943	576.03
673.138	507.05
673.333	542.7
673.528	476.25
673.723	535.92
673.918	526.43
674.113	457.45
674.308	594.43
674.503	539.02
674.698	530.88
674.892	547.74
675.087	582.61
675.282	559.75
675.477	504.92
675.672	543.28
675.867	488.65
676.061	495.23
676.256	483.03
676.451	468.5
676.646	511.7
676.84	489.03
677.035	477.99
677.23	440.98
677.424	506.08
677.619	535.53
677.814	540.76
678.008	562.08
678.203	451.06
678.397	497.75
678.592	504.92
678.787	556.26
678.981	507.05
679.176	511.7
679.37	485.74
679.565	476.83
679.759	528.36
679.954	488.07
680.148	553.94
680.342	566.15
680.537	532.24
680.731	494.85
680.926	526.43
681.12	531.08
681.314	516.74
681.509	528.36
681.703	506.86
681.897	513.25
682.092	515.58
682.286	484.97
682.48	568.86
682.674	532.05
682.869	488.45
683.063	494.65
683.257	565.76
683.451	488.07
683.645	515.38
683.839	532.05
684.034	475.47
684.228	567.31
684.422	468.11
684.616	488.84
684.81	527.4
685.004	516.74
685.198	478.77
685.392	521.97
685.586	486.9
685.78	527.4
685.974	529.14
686.168	547.93
686.362	575.06
686.556	481.48
686.75	452.03
686.944	460.17
687.138	485.93
687.331	387.32
687.525	416.96
687.719	332.1
687.913	401.27
688.107	416.19
688.301	382.28
688.494	466.17
688.688	399.91
688.882	378.79
689.076	391
689.269	432.27
689.463	513.45
689.657	406.11
689.85	426.26
690.044	431.88
690.238	413.67
690.431	460.55
690.625	428.59
690.818	466.17
691.012	467.92
691.205	513.25
691.399	433.04
691.593	480.9
691.786	560.53
691.98	516.16
692.173	552.58
692.366	518.1
692.56	525.65
692.753	555.1
692.947	441.37
693.14	582.81
693.333	558.01
693.527	486.52
693.72	529.53
693.914	519.65
694.107	534.18
694.3	525.65
694.493	524.49
694.687	588.04
694.88	557.81
695.073	591.53
695.266	582.42
695.46	569.83
695.653	627.18
695.846	605.86
696.039	523.13
696.232	555.49
696.425	598.31
696.618	618.26
696.812	608.58
697.005	669.03
697.198	755.63
697.391	634.15
697.584	658.56
697.777	707.77
697.97	696.54
698.163	704.09
698.356	715.72
698.549	762.22
698.742	769.39
698.935	723.47
699.127	729.28
699.32	702.16
699.513	680.65
699.706	743.23
699.899	740.52
700.092	700.02
700.285	746.91
700.477	685.11
700.67	765.9
700.863	766.29
701.056	854.83
701.248	787.99
701.441	818.21
701.634	778.49
701.826	856.77
702.019	758.54
702.212	819.95
702.404	807.75
702.597	779.46
702.79	813.56
702.982	817.05
703.175	870.33
703.367	863.74
703.56	867.03
703.752	965.46
703.945	878.85
704.137	903.27
704.33	901.33
704.522	930.2
704.715	912.95
704.907	921.48
705.1	988.13
705.292	1032.3
705.484	979.6
705.677	964.49
705.869	1000.14
706.061	1037.15
706.254	1019.9
706.446	997.43
706.638	1023.2
706.831	1064.46
707.023	1047.22
707.215	1136.54
707.407	1119.68
707.599	1081.32
707.792	1137.7
707.984	1092.94
708.176	1143.9
708.368	1120.84
708.56	1167.34
708.752	1103.02
708.944	1112.9
709.136	1173.74
709.329	1121.23
709.521	1264.02
709.713	1208.22
709.905	1203.57
710.097	1274.87
710.289	1185.94
710.481	1215.97
710.672	1226.05
710.864	1253.56
711.056	1300.06
711.248	1254.14
711.44	1258.4
711.632	1237.09
711.824	1267.51
712.016	1327.18
712.207	1357.8
712.399	1317.3
712.591	1378.53
712.783	1323.31
712.975	1407.98
713.166	1311.1
713.358	1349.47
713.55	1414.37
713.741	1405.07
713.933	1409.33
714.125	1383.18
714.316	1365.16
714.508	1494.39
714.7	1432.2
714.891	1415.15
715.083	1496.71
715.274	1473.66
715.466	1447.5
715.657	1487.41
715.849	1378.53
716.04	1435.88
716.232	1373.88
716.423	1483.54
716.615	1386.28
716.806	1352.95
716.998	1330.67
717.189	1302
717.381	1227.99
717.572	1219.65
717.763	1287.85
717.955	1236.7
718.146	1216.55
718.337	1176.64
718.528	1155.14
718.72	1118.91
718.911	1168.51
719.102	1097.01
719.293	1164.05
719.485	1148.94
719.676	1168.51
719.867	1114.45
720.058	1104.96
720.249	1139.64
720.44	1157.85
720.632	1183.04
720.823	1197.37
721.014	1279.91
721.205	1291.73
721.396	1318.47
721.587	1405.26
721.778	1405.26
721.969	1454.86
722.16	1499.81
722.351	1482.18
722.542	1598.43
722.733	1584.67
722.924	1493.03
723.115	1543.79
723.305	1548.06
723.496	1581.19
723.687	1473.85
723.878	1474.24
724.069	1491.48
724.26	1507.56
724.45	1455.64
724.641	1466.3
724.832	1506.79
725.023	1455.06
725.213	1455.06
725.404	1452.93
725.595	1440.53
725.785	1418.05
725.976	1465.13
726.167	1470.17
726.357	1469.01
726.548	1569.56
726.739	1473.08
726.929	1584.48
727.12	1566.27
727.31	1603.47
727.501	1560.26
727.691	1565.3
727.882	1525
728.072	1618.39
728.263	1589.32
728.453	1642.99
728.644	1603.47
728.834	1567.43
729.024	1605.02
729.215	1584.29
729.405	1597.27
729.596	1653.07
729.786	1666.44
729.976	1669.54
730.167	1681.16
730.357	1640.09
730.547	1686.2
730.737	1694.72
730.928	1715.65
731.118	1765.05
731.308	1678.84
731.498	1695.89
731.688	1803.61
731.879	1804.38
732.069	1832.67
732.259	1839.45
732.449	1822.02
732.639	1929.54
732.829	1933.81
733.019	1943.49
733.209	2004.91
733.399	1980.69
733.589	2023.9
733.779	2057.22
733.969	2039.79
734.159	2083.77
734.349	2119.42
734.539	2164.17
734.729	2117.29
734.919	2146.35
735.109	2196.33
735.299	2121.35
735.488	2187.42
735.678	2168.05
735.868	2149.25
736.058	2188.58
736.248	2142.47
736.437	2103.92
736.627	2117.48
736.817	2241.67
737.007	2189.55
737.196	2204.28
737.386	2193.43
737.576	2199.43
737.765	2253.1
737.955	2202.92
738.144	2318.59
738.334	2269.76
738.524	2229.08
738.713	2258.33
738.903	2234.89
739.092	2266.66
739.282	2252.52
739.471	2307.35
739.661	2316.46
739.85	2329.25
740.04	2289.33
740.229	2349.4
740.419	2359.47
740.608	2370.71
740.797	2352.69
740.987	2382.72
741.176	2366.06
741.365	2367.61
741.555	2314.33
741.744	2360.83
741.933	2346.68
742.123	2409.65
742.312	2383.3
742.501	2429.61
742.69	2437.94
742.88	2363.54
743.069	2490.06
743.258	2405.58
743.447	2428.06
743.636	2434.64
743.825	2407.71
744.014	2386.98
744.204	2446.07
744.393	2386.21
744.582	2477.66
744.771	2494.32
744.96	2412.36
745.149	2451.69
745.338	2445.49
745.527	2480.17
745.716	2413.14
745.905	2412.36
746.094	2451.31
746.283	2459.06
746.471	2476.88
746.66	2511.76
746.849	2492.38
747.038	2518.34
747.227	2446.27
747.416	2509.24
747.604	2433.29
747.793	2446.27
747.982	2469.71
748.171	2421.08
748.359	2470.1
748.548	2481.72
748.737	2488.51
748.926	2496.45
749.114	2381.36
749.303	2488.89
749.491	2450.53
749.68	2408.29
749.869	2503.04
750.057	2459.64
750.246	2433.29
750.434	2440.65
750.623	2414.69
750.811	2435.03
751	2467.58
751.188	2407.91
751.377	2394.34
751.565	2410.04
751.754	2381.75
751.942	2426.12
752.131	2498.58
752.319	2361.21
752.507	2356.18
752.696	2477.66
752.884	2452.08
753.072	2406.36
753.261	2455.96
753.449	2429.22
753.637	2396.09
753.825	2471.65
754.014	2365.86
754.202	2392.21
754.39	2486.37
754.578	2448.59
754.766	2384.66
754.955	2398.41
755.143	2484.44
755.331	2366.25
755.519	2407.91
755.707	2396.86
755.895	2367.8
756.083	2388.53
756.271	2374.39
756.459	2374.58
756.647	2431.74
756.835	2358.69
757.023	2339.9
757.211	2345.71
757.399	2323.43
757.587	2348.62
757.775	2295.73
757.963	2298.05
758.151	2320.53
758.339	2315.3
758.526	2312.2
758.714	2290.69
758.902	2194.59
759.09	2179.28
759.278	2035.33
759.465	1910.95
759.653	1657.52
759.841	1531.78
760.028	1271.77
760.216	1112.13
760.404	1093.53
760.591	885.63
760.779	722.89
760.967	639.19
761.154	529.91
761.342	589.78
761.529	590.95
761.717	617.49
761.905	579.71
762.092	647.33
762.28	601.6
762.467	614.39
762.655	521.39
762.842	561.88
763.029	568.66
763.217	615.74
763.404	595.6
763.592	636.28
763.779	575.64
763.966	628.73
764.154	646.55
764.341	684.14
764.528	669.61
764.716	714.36
764.903	775.59
765.09	826.74
765.277	864.9
765.465	985.61
765.652	1010.02
765.839	1052.06
766.026	1121.81
766.213	1146.03
766.4	1245.04
766.588	1420.38
766.775	1403.91
766.962	1456.41
767.149	1465.13
767.336	1609.47
767.523	1568.21
767.71	1657.91
767.897	1733.86
768.084	1785.4
768.271	1790.82
768.458	1862.31
768.645	1900.1
768.832	1844.88
769.019	1894.48
769.206	1887.31
769.392	1962.09
769.579	2031.26
769.766	1989.8
769.953	1986.31
770.14	1995.81
770.327	2013.05
770.513	2082.41
770.7	2122.52
770.887	2022.16
771.073	2072.14
771.26	2068.27
771.447	2055.09
771.634	2082.22
771.82	2162.82
772.007	2057.61
772.193	2069.82
772.38	2139.37
772.567	2085.32
772.753	2080.86
772.94	2121.74
773.126	2104.89
773.313	2139.37
773.499	2116.7
773.686	2107.6
773.872	2078.34
774.059	2104.3
774.245	2087.64
774.432	2073.89
774.618	1994.45
774.804	2062.65
774.991	2006.27
775.177	2096.17
775.363	2026.22
775.55	2089
775.736	1993.29
775.922	2039.79
776.109	2041.14
776.295	2062.65
776.481	2043.86
776.667	2068.27
776.853	2024.87
777.04	2000.46
777.226	1979.53
777.412	2095.59
777.598	2014.6
777.784	2026.22
777.97	1988.06
778.156	2038.62
778.342	1998.52
778.528	1994.26
778.715	1950.08
778.901	1977.98
779.087	1974.88
779.272	1934.58
779.458	1955.7
779.644	2006.27
779.83	1923.73
780.016	2069.62
780.202	1981.47
780.388	1955.31
780.574	1885.37
780.76	1956.86
780.946	1983.41
781.131	1965.39
781.317	1944.46
781.503	1933.03
781.689	1922.96
781.874	2031.84
782.06	1920.24
782.246	1919.28
782.432	1939.62
782.617	1938.65
782.803	1995.03
782.989	1865.8
783.174	1908.04
783.36	1849.53
783.545	1892.73
783.731	1925.48
783.916	1811.17
784.102	1920.83
784.288	1853.79
784.473	1893.12
784.659	1866.38
784.844	1956.28
785.029	1840.42
785.215	1835.77
785.4	1810.78
785.586	1897.19
785.771	1801.67
785.956	1862.9
786.142	1780.17
786.327	1820.27
786.512	1814.27
786.698	1797.02
786.883	1754.78
787.068	1763.7
787.254	1789.47
787.439	1773.38
787.624	1773.77
787.809	1775.52
787.994	1745.68
788.18	1836.93
788.365	1724.75
788.55	1726.11
788.735	1751.68
788.92	1745.87
789.105	1762.73
789.29	1755.37
789.475	1718.75
789.66	1714.49
789.845	1705.77
790.03	1690.46
790.215	1738.7
790.4	1760.79
790.585	1753.62
790.77	1687.36
790.955	1579.06
791.14	1703.64
791.325	1725.34
791.51	1642.99
791.695	1690.27
791.879	1673.6
792.064	1618.77
792.249	1725.53
792.434	1671.28
792.618	1688.52
792.803	1675.93
792.988	1619.16
793.173	1691.24
793.357	1748.58
793.542	1622.46
793.727	1676.12
793.911	1688.72
794.096	1684.84
794.281	1701.7
794.465	1783.27
794.65	1674.38
794.834	1667.21
795.019	1742.58
795.203	1709.64
795.388	1703.83
795.572	1783.65
795.757	1722.62
795.941	1719.52
796.126	1712.55
796.31	1599.59
796.494	1729.4
796.679	1694.14
796.863	1662.37
797.048	1713.71
797.232	1731.73
797.416	1685.42
797.601	1651.32
797.785	1734.05
797.969	1735.8
798.153	1642.22
798.338	1700.34
798.522	1734.83
798.706	1750.72
798.89	1691.04
799.074	1804.19
799.258	1754.98
799.443	1704.41
799.627	1716.23
799.811	1759.05
799.995	1702.86
800.179	1678.84
800.363	1704.8
800.547	1709.06
800.731	1757.5
800.915	1672.05
801.099	1662.95
801.283	1685.23
801.467	1708.29
801.651	1705.77
801.835	1751.1
802.019	1719.72
802.202	1730.37
802.386	1641.44
802.57	1636.99
802.754	1673.6
802.938	1643.38
803.121	1656.94
803.305	1761.95
803.489	1700.54
803.673	1716.23
803.856	1740.83
804.04	1687.55
804.224	1711
804.407	1717.78
804.591	1705.38
804.775	1696.47
804.958	1721.07
805.142	1813.88
805.326	1698.99
805.509	1749.75
805.693	1732.7
805.876	1758.85
806.06	1723.79
806.243	1727.27
806.427	1801.48
806.61	1774.16
806.794	1720.3
806.977	1751.49
807.16	1724.17
807.344	1735.6
807.527	1688.14
807.71	1715.07
807.894	1711.77
808.077	1741.22
808.26	1673.02
808.444	1661.79
808.627	1755.37
808.81	1685.81
808.993	1667.21
809.177	1656.94
809.36	1652.1
809.543	1687.94
809.726	1594.75
809.909	1606.37
810.092	1591.07
810.276	1615.87
810.459	1629.43
810.642	1582.54
810.825	1591.07
811.008	1604.63
811.191	1528.29
811.374	1544.76
811.557	1545.93
811.74	1630.79
811.923	1492.06
812.106	1459.71
812.289	1461.06
812.472	1473.66
812.654	1504.85
812.837	1452.73
813.02	1419.02
813.203	1429.48
813.386	1345.4
813.569	1335.13
813.751	1308.78
813.934	1345.4
814.117	1324.47
814.3	1299.48
814.482	1277
814.665	1277.59
814.848	1212.87
815.03	1165.21
815.213	1203.57
815.396	1162.69
815.578	1163.08
815.761	1121.62
815.943	1233.41
816.126	1139.44
816.309	1129.17
816.491	1047.22
816.674	1005.76
816.856	1075.89
817.039	1044.7
817.221	1107.28
817.403	1056.71
817.586	1060.39
817.768	1092.94
817.951	1041.99
818.133	973.98
818.315	1054.39
818.498	1101.47
818.68	1136.54
818.862	1122.39
819.045	1138.67
819.227	1118.33
819.409	1101.08
819.591	1110.77
819.774	1087.91
819.956	1066.98
820.138	1131.89
820.32	1111.93
820.502	1159.98
820.684	1191.95
820.866	1202.22
821.048	1195.24
821.231	1216.36
821.413	1210.74
821.595	1194.47
821.777	1170.64
821.959	1178.39
822.141	1250.46
822.323	1160.76
822.505	1097.21
822.686	1070.86
822.868	1057.29
823.05	973.4
823.232	961
823.414	916.05
823.596	978.83
823.778	956.93
823.96	958.29
824.141	959.26
824.323	969.14
824.505	1047.03
824.687	1080.35
824.868	1097.01
825.05	1169.09
825.232	1187.69
825.413	1229.92
825.595	1183.42
825.777	1141.19
825.958	1172.77
826.14	1188.66
826.321	1221.98
826.503	1192.92
826.685	1192.53
826.866	1226.44
827.048	1199.51
827.229	1147.58
827.411	1117.36
827.592	1105.54
827.773	1120.07
827.955	1067.18
828.136	1075.89
828.318	1044.89
828.499	1093.53
828.68	1024.36
828.862	1075.31
829.043	1088.49
829.224	1081.9
829.406	1031.14
829.587	1047.41
829.768	1059.43
829.949	1075.89
830.131	1074.34
830.312	1129.76
830.493	1055.16
830.674	1091.59
830.855	1063.11
831.036	1067.56
831.218	1120.65
831.399	1140.99
831.58	1093.33
831.761	1096.63
831.942	1092.17
832.123	1061.17
832.304	1023
832.485	1036.95
832.666	1067.18
832.847	1089.84
833.028	1052.84
833.209	1066.98
833.389	1032.3
833.57	1040.05
833.751	1016.8
833.932	1106.89
834.113	1045.28
834.294	1079.77
834.475	1068.14
834.655	1118.13
834.836	1117.94
835.017	1099.34
835.198	1038.89
835.378	1094.69
835.559	1104.18
835.74	1073.38
835.92	1050.51
836.101	1048.58
836.281	1087.33
836.462	1097.21
836.643	1126.27
836.823	1144.09
837.004	1109.8
837.184	1163.47
837.365	1154.94
837.545	1147
837.726	1101.86
837.906	1149.52
838.087	1135.96
838.267	1104.18
838.448	1054.39
838.628	1103.21
838.808	1103.41
838.989	1135.96
839.169	1066.21
839.349	1128.4
839.53	1158.43
839.71	1139.64
839.89	1072.99
840.07	1181.68
840.251	1098.56
840.431	1131.69
840.611	1091.01
840.791	1079.77
840.971	1105.73
841.151	1102.05
841.332	1071.05
841.512	1195.82
841.692	1031.91
841.872	1095.08
842.052	1085.19
842.232	1115.61
842.412	1065.82
842.592	1103.02
842.772	1113.68
842.952	1076.67
843.132	1066.98
843.312	1077.06
843.492	1049.74
843.672	1140.22
843.851	992.78
844.031	1108.25
844.211	1086.94
844.391	1032.11
844.571	1087.33
844.751	1068.92
844.93	1084.61
845.11	1064.27
845.29	1096.04
845.47	1076.28
845.649	1075.7
845.829	1108.25
846.009	1056.52
846.188	1104.38
846.368	1067.76
846.547	1086.55
846.727	1109.8
846.907	1048.58
847.086	1071.83
847.266	1102.24
847.445	1076.67
847.625	1029.98
847.804	1041.02
847.984	1069.11
848.163	1026.3
848.343	1015.45
848.522	1050.13
848.701	1054.19
848.881	1035.21
849.06	1035.21
849.239	1025.33
849.419	1030.17
849.598	979.41
849.777	983.28
849.957	1006.73
850.136	950.15
850.315	929.81
850.494	953.83
850.674	926.52
850.853	1004.21
851.032	988.13
851.211	1013.51
851.39	997.62
851.569	931.55
851.748	961.78
851.927	980.57
852.107	967.01
852.286	922.25
852.465	912.57
852.644	979.99
852.823	978.44
853.002	948.41
853.181	956.16
853.359	961
853.538	919.54
853.717	981.73
853.896	896.87
854.075	843.01
854.254	849.4
854.433	789.92
854.611	884.67
854.79	798.25
854.969	850.37
855.148	863.55
855.327	841.65
855.505	886.22
855.684	863.16
855.863	875.75
856.041	827.51
856.22	857.15
856.399	859.67
856.577	941.05
856.756	912.57
856.934	1041.41
857.113	1040.25
857.291	902.49
857.47	872.07
857.648	938.14
857.827	923.61
858.005	964.3
858.184	937.17
858.362	980.76
858.541	905.4
858.719	944.73
858.898	892.8
859.076	912.37
859.254	954.41
859.433	918.57
859.611	889.32
859.789	845.53
859.967	936.4
860.146	956.93
860.324	862.77
860.502	868.39
860.68	854.05
860.859	892.42
861.037	864.13
861.215	903.27
861.393	881.18
861.571	886.02
861.749	851.92
861.927	915.67
862.105	864.71
862.283	897.65
862.461	830.42
862.639	813.17
862.817	842.43
862.995	866.84
863.173	857.15
863.351	873.23
863.529	888.35
863.707	890.09
863.885	862.97
864.063	798.84
864.241	803.87
864.418	880.98
864.596	821.31
864.774	813.95
864.952	844.75
865.129	858.7
865.307	816.08
865.485	808.52
865.663	855.02
865.84	781.2
866.018	837.78
866.196	714.94
866.373	757.96
866.551	716.49
866.728	653.91
866.906	714.94
867.084	733.35
867.261	770.94
867.439	770.94
867.616	798.25
867.794	801.94
867.971	772.68
868.149	774.04
868.326	834.87
868.503	811.82
868.681	779.27
868.858	759.31
869.035	720.56
869.213	817.44
869.39	767.06
869.567	880.21
869.745	767.64
869.922	798.45
870.099	782.95
870.276	799.03
870.454	792.44
870.631	778.3
870.808	752.53
870.985	837.97
871.162	868
871.339	818.21
871.517	769.39
871.694	751.37
871.871	757.37
872.048	772.87
872.225	771.91
872.402	818.02
872.579	693.44
872.756	783.14
872.933	721.72
873.11	736.45
873.287	776.56
873.463	746.72
873.64	727.15
873.817	770.74
873.994	748.27
874.171	745.56
874.348	754.66
874.524	673.48
874.701	730.83
874.878	657.79
875.055	742.65
875.231	739.16
875.408	740.13
875.585	688.98
875.762	749.43
875.938	718.43
876.115	707.58
876.291	727.15
876.468	688.59
876.645	654.49
876.821	685.69
876.998	693.63
877.174	729.28
877.351	691.89
877.527	682.39
877.704	721.92
877.88	729.28
878.057	663.6
878.233	748.07
878.409	700.61
878.586	710.68
878.762	701.77
878.938	701.19
879.115	626.79
879.291	709.71
879.467	636.48
879.644	648.49
879.82	709.91
879.996	668.44
880.172	633.38
880.349	640.16
880.525	680.46
880.701	652.94
880.877	646.36
881.053	668.83
881.229	663.41
881.405	712.62
881.581	645.19
881.757	673.68
881.933	672.9
882.109	694.21
882.285	687.04
882.461	595.79
882.637	651.2
882.813	631.83
882.989	643.06
883.165	709.71
883.341	640.16
883.517	652.56
883.693	680.26
883.869	708.16
884.044	614.97
884.22	687.04
884.396	695.96
884.572	662.44
884.747	683.56
884.923	695.96
885.099	663.02
885.275	685.11
885.45	654.49
885.626	649.26
885.801	613.61
885.977	654.3
886.153	587.26
886.328	679.68
886.504	620.78
886.679	683.36
886.855	621.94
887.03	669.99
887.206	669.03
887.381	662.83
887.557	652.56
887.732	665.15
887.908	680.84
888.083	673.68
888.258	660.5
888.434	658.18
888.609	655.27
888.784	708.74
888.96	637.64
889.135	586.68
889.31	611.87
889.485	639.96
889.661	637.64
889.836	665.54
890.011	631.24
890.186	646.94
890.361	610.51
890.537	669.22
890.712	649.07
890.887	665.73
891.062	685.11
891.237	699.25
891.412	623.11
891.587	668.06
891.762	676
891.937	693.82
892.112	599.86
892.287	644.23
892.462	593.08
892.637	600.05
892.812	577
892.987	589.4
893.161	581.26
893.336	605.28
893.511	618.65
893.686	598.11
893.861	594.24
894.035	589.4
894.21	583.97
894.385	538.63
894.56	574.48
894.734	542.7
894.909	546.38
895.084	571.38
895.258	524.3
895.433	569.63
895.608	528.17
895.782	504.73
895.957	499.11
896.131	502.21
896.306	430.13
896.48	441.95
896.655	488.84
896.829	433.43
897.004	433.82
897.178	440.6
897.353	430.33
897.527	467.92
897.701	467.14
897.876	372.59
898.05	502.79
898.224	458.62
898.399	486.9
898.573	428
898.747	355.74
898.921	444.47
899.096	312.14
899.27	377.05
899.444	346.63
899.618	367.94
899.792	401.85
899.967	381.7
900.141	416.77
900.315	355.93
900.489	362.52
900.663	415.6
900.837	389.84
901.011	342.75
901.185	447.57
901.359	406.11
901.533	376.47
901.707	402.62
901.881	404.56
902.055	324.74
902.229	351.09
902.403	420.06
902.576	405.53
902.75	388.09
902.924	472.37
903.098	442.53
903.272	458.23
903.446	478.96
903.619	454.93
903.793	460.55
903.967	434.78
904.14	509.77
904.314	513.25
904.488	456.48
904.661	503.18
904.835	451.45
905.009	507.05
905.182	532.05
905.356	502.6
905.529	473.92
905.703	442.92
905.876	481.87
906.05	403.79
906.223	418.12
906.397	370.65
906.57	388.09
906.744	362.32
906.917	362.9
907.09	392.16
907.264	403.01
907.437	358.06
907.61	348.76
907.784	377.44
907.957	384.22
908.13	346.82
908.304	404.95
908.477	304.97
908.65	338.11
908.823	324.54
908.996	386.93
909.17	367.75
909.343	359.8
909.516	358.84
909.689	334.62
909.862	324.35
910.035	321.64
910.208	313.5
910.381	341.59
910.554	393.71
910.727	352.64
910.9	321.06
911.073	307.69
911.246	380.34
911.419	398.75
911.592	360
911.765	307.49
911.938	311.95
912.11	356.9
912.283	347.79
912.456	402.82
912.629	368.72
912.802	335.39
912.974	273.39
913.147	279.79
913.32	220.31
913.493	269.91
913.665	289.28
913.838	302.26
914.01	264.09
914.183	286.57
914.356	287.54
914.528	301.87
914.701	353.02
914.873	347.99
915.046	279.59
915.218	258.28
915.391	211.2
915.563	245.69
915.736	299.55
915.908	304.59
916.081	308.46
916.253	251.69
916.425	297.81
916.598	294.12
916.77	288.31
916.942	247.04
917.115	223.99
917.287	287.92
917.459	272.23
917.632	228.06
917.804	206.16
917.976	239.49
918.148	277.85
918.32	280.37
918.493	302.07
918.665	348.37
918.837	274.94
919.009	335.01
919.181	326.29
919.353	323.38
919.525	288.89
919.697	302.65
919.869	268.94
920.041	345.85
920.213	376.08
920.385	336.36
920.557	284.24
920.729	308.07
920.901	318.15
921.073	278.24
921.244	313.11
921.416	341.21
921.588	318.92
921.76	310.59
921.932	322.99
922.103	302.07
922.275	298.19
922.447	304.59
922.619	227.86
922.79	313.89
922.962	292.19
923.134	344.11
923.305	266.22
923.477	241.81
923.648	244.72
923.82	287.54
923.991	234.26
924.163	222.83
924.335	248.01
924.506	233.48
924.677	305.75
924.849	243.94
925.02	274.75
925.192	295.87
925.363	234.45
925.535	270.29
925.706	221.28
925.877	338.11
926.049	265.06
926.22	249.76
926.391	266.81
926.562	293.93
926.734	231.35
926.905	284.82
927.076	211.2
927.247	250.34
927.419	212.94
927.59	178.26
927.761	239.68
927.932	201.32
928.103	241.43
928.274	175.94
928.445	192.99
928.616	196.28
928.787	178.07
928.958	217.59
929.129	230.38
929.3	207.52
929.471	172.26
929.642	109.48
929.813	112.58
929.984	193.57
930.155	116.65
930.326	186.98
930.496	133.9
930.667	64.15
930.838	112.2
931.009	80.23
931.18	123.43
931.35	94.56
931.521	126.53
931.692	80.61
931.863	58.53
932.033	72.67
932.204	93.6
932.374	82.36
932.545	37.02
932.716	135.83
932.886	92.24
933.057	19.39
933.227	48.07
933.398	139.51
933.568	53.1
933.739	13.58
933.909	43.61
934.08	77.52
934.25	-20.13
934.421	-12.96
934.591	59.69
934.761	15.71
934.932	8.54
935.102	39.35
935.272	38.57
935.443	50.58
935.613	13.97
935.783	35.67
935.953	-18.39
936.123	179.23
936.294	0.79
936.464	19
936.634	9.12
936.804	-11.8
936.974	-2.12
937.144	45.35
937.314	43.03
937.484	22.88
937.655	23.85
937.825	35.28
937.995	6.99
938.165	80.61
938.334	20.94
938.504	28.11
938.674	33.15
938.844	-8.7
939.014	90.3
939.184	64.92
939.354	87.78
939.524	86.62
939.694	29.85
939.863	35.08
940.033	116.65
940.203	114.13
940.373	96.89
940.542	114.91
940.712	30.43
940.882	78.48
941.051	95.92
941.221	82.36
941.391	106.38
941.56	34.12
941.73	33.34
941.899	130.41
942.069	52.33
942.238	100.18
942.408	50.97
942.577	96.31
942.747	61.05
942.916	-21.3
943.086	44.19
943.255	92.43
943.425	60.27
943.594	46.13
943.763	-25.75
943.933	8.73
944.102	-4.83
944.271	40.9
944.441	56.59
944.61	39.73
944.779	49.62
944.948	117.81
945.117	11.64
945.287	-2.5
945.456	-29.24
945.625	19.39
945.794	75.19
945.963	53.68
946.132	51.55
946.301	29.27
946.47	79.45
946.639	-25.75
946.808	18.03
946.977	64.34
947.146	90.11
947.315	4.28
947.484	65.12
947.653	44.97
947.822	29.27
947.991	12.8
948.16	122.27
948.329	77.52
948.498	45.93
948.666	31.79
948.835	60.66
949.004	0.21
949.173	-6.77
949.341	58.53
949.51	81.2
949.679	113.55
949.847	82.55
950.016	126.92
950.185	99.41
950.353	14.55
950.522	48.07
950.69	62.79
950.859	14.74
951.028	71.12
951.196	48.07
951.365	35.86
951.533	46.32
951.701	62.79
951.87	68.8
952.038	-2.89
952.207	47.48
952.375	104.45
952.543	37.8
952.712	37.22
952.88	32.37
953.048	105.22
953.217	47.68
953.385	20.75
953.553	72.09
953.721	17.07
953.89	45.55
954.058	-2.89
954.226	14.16
954.394	54.07
954.562	-2.89
954.73	31.98
954.898	50
955.067	67.63
955.235	29.47
955.403	56.59
955.571	119.36
955.739	71.32
955.907	7.18
956.075	22.49
956.243	36.44
956.41	71.9
956.578	1.95
956.746	-6.18
956.914	28.69
957.082	77.9
957.25	76.55
957.418	25.2
957.585	58.92
957.753	85.07
957.921	28.88
958.089	71.32
958.256	79.07
958.424	88.75
958.592	64.15
958.759	23.65
958.927	53.68
959.095	26.37
959.262	50.97
959.43	89.91
959.597	41.67
959.765	17.84
959.932	-9.28
960.1	52.72
960.267	47.68
960.435	44.58
960.602	80.42
960.77	-4.63
960.937	1.37
961.104	56.2
961.272	-13.93
961.439	12.03
961.606	61.82
961.774	63.18
961.941	49.81
962.108	48.26
962.275	62.98
962.443	80.61
962.61	34.31
962.777	119.95
962.944	75.77
963.111	58.72
963.278	61.43
963.446	55.62
963.613	34.89
963.78	68.02
963.947	75.58
964.114	51.94
964.281	140.1
964.448	84.88
964.615	39.35
964.782	35.86
964.949	91.08
965.116	82.36
965.282	105.22
965.449	43.42
965.616	6.02
965.783	86.43
965.95	61.05
966.117	15.32
966.283	65.12
966.45	55.43
966.617	57.56
966.784	97.66
966.95	71.7
967.117	108.9
967.284	38.96
967.45	37.22
967.617	101.35
967.784	61.24
967.95	98.83
968.117	82.94
968.283	97.86
968.45	134.86
968.616	68.6
968.783	125.56
968.949	79.45
969.116	98.44
969.282	27.53
969.449	54.85
969.615	87.78
969.781	2.34
969.948	52.72
970.114	10.28
970.28	113.94
970.447	64.34
970.613	103.48
970.779	73.06
970.945	78.87
971.112	54.27
971.278	59.5
971.444	65.31
971.61	84.49
971.776	61.43
971.942	73.45
972.108	61.24
972.275	65.89
972.441	77.32
972.607	140.68
972.773	41.09
972.939	91.85
973.105	82.36
973.271	27.72
973.437	37.6
973.602	49.03
973.768	84.49
973.934	70.93
974.1	45.74
974.266	0.21
974.432	59.5
974.598	44.38
974.763	112.78
974.929	50.78
975.095	130.21
975.261	25.2
975.426	63.18
975.592	46.9
975.758	120.91
975.923	-9.48
976.089	44.58
976.255	77.13
976.42	68.6
976.586	79.65
976.751	51.36
976.917	140.1
977.082	83.71
977.248	10.09
977.413	-9.09
977.579	29.08
977.744	60.27
977.91	24.23
978.075	32.37
978.24	94.76
978.406	60.66
978.571	54.85
978.736	40.9
978.902	84.88
979.067	47.29
979.232	1.57
979.397	31.02
979.563	109.87
979.728	26.37
979.893	48.07
980.058	52.13
980.223	56.01
980.388	61.43
980.554	54.46
980.719	27.72
980.884	40.51
981.049	81
981.214	30.63
981.379	63.37
981.544	33.73
981.709	66.86
981.874	65.5
982.039	53.1
982.204	78.68
982.368	58.53
982.533	28.5
982.698	71.9
982.863	108.32
983.028	40.7
983.193	74.22
983.357	65.5
983.522	39.54
983.687	74.03
983.852	49.03
984.016	44.77
984.181	58.92
984.346	60.85
984.51	55.43
984.675	66.86
984.839	59.88
985.004	47.29
985.168	106.96
985.333	73.83
985.498	45.55
985.662	91.85
985.827	62.21
985.991	60.47
986.155	46.71
986.32	90.5
986.484	127.31
986.649	75.77
986.813	-11.22
986.977	72.28
987.142	49.23
987.306	23.85
987.47	31.21
987.634	34.31
987.799	66.28
987.963	59.88
988.127	75
988.291	135.45
988.455	48.26
988.62	24.82
988.784	62.21
988.948	87.98
989.112	28.11
989.276	54.27
989.44	45.74
989.604	27.33
989.768	40.9
989.932	115.1
990.096	33.15
990.26	36.05
990.424	25.78
990.588	52.33
990.752	97.08
990.915	68.41
991.079	37.6
991.243	21.91
991.407	76.93
991.571	70.93
991.734	68.99
991.898	69.57
992.062	148.81
992.226	50.97
992.389	26.37
992.553	-2.89
992.717	19.58
992.88	40.12
993.044	75.97
993.207	39.93
993.371	82.36
993.535	80.61
993.698	36.44
993.862	92.43
994.025	121.11
994.189	76.93
994.352	58.72
994.515	55.82
994.679	81.39
994.842	39.15
995.006	74.42
995.169	11.64
995.332	43.61
995.496	88.75
995.659	6.99
995.822	33.15
995.985	52.13
996.149	70.35
996.312	56.98
996.475	102.9
996.638	19.2
996.801	93.98
996.964	141.06
997.128	20.17
997.291	32.57
997.454	44.58
997.617	7.96
997.78	67.63
997.943	29.47
998.106	67.63
998.269	29.66
998.432	53.3
998.595	53.88
998.758	-0.37
998.92	10.28
999.083	-16.26
999.246	49.23
999.409	-9.28
999.572	-31.95
999.735	18.42
999.897	57.95
1000.06	3.5
1000.223	-1.15
1000.386	75.77
1000.548	78.1
1000.711	68.41
1000.874	41.67
1001.036	-7.73
1001.199	70.73
1001.361	45.16
1001.524	55.82
1001.687	76.35
1001.849	16.68
1002.012	57.95
1002.174	62.6
1002.337	77.71
1002.499	23.27
1002.661	92.24
1002.824	-3.86
1002.986	18.81
1003.149	44.77
1003.311	10.67
1003.473	113.36
1003.636	17.65
1003.798	45.16
1003.96	74.8
1004.123	54.46
1004.285	8.73
1004.447	21.72
1004.609	31.6
1004.771	79.07
1004.933	-1.92
1005.096	15.13
1005.258	-0.57
1005.42	4.47
1005.582	70.73
1005.744	75.77
1005.906	-11.41
1006.068	57.17
1006.23	2.15
1006.392	-19.94
1006.554	8.35
1006.716	61.82
1006.878	41.28
1007.04	-7.73
1007.202	6.22
1007.363	42.64
1007.525	61.43
1007.687	21.72
1007.849	85.65
1008.011	0.79
1008.172	-3.86
1008.334	20.36
1008.496	50.39
1008.658	-1.73
1008.819	15.32
1008.981	14.93
1009.143	13
1009.304	6.22
1009.466	44.19
1009.627	81.78
1009.789	104.64
1009.95	58.92
1010.112	0.4
1010.273	39.54
1010.435	22.49
1010.596	6.02
1010.758	27.33
1010.919	3.7
1011.081	-1.73
1011.242	24.43
1011.403	43.8
1011.565	19.2
1011.726	49.23
1011.887	-16.84
1012.049	20.94
1012.21	66.86
1012.371	81.78
1012.532	-45.51
1012.693	55.82
1012.855	-11.41
1013.016	9.12
1013.177	47.48
1013.338	16.68
1013.499	89.91
1013.66	41.87
1013.821	55.04
1013.982	52.33
1014.143	31.98
1014.304	10.67
1014.465	37.02
1014.626	45.74
1014.787	23.85
1014.948	108.71
1015.109	-39.12
1015.27	62.4
1015.431	4.86
1015.592	6.8
1015.752	98.25
1015.913	48.26
1016.074	42.06
1016.235	9.51
1016.395	18.03
1016.556	29.08
1016.717	18.03
1016.877	62.21
1017.038	6.41
1017.199	37.41
1017.359	46.9
1017.52	5.05
1017.681	6.02
1017.841	21.52
1018.002	18.03
1018.162	-27.69
1018.323	65.89
1018.483	4.67
1018.644	12.03
1018.804	-19.16
1018.964	2.34
1019.125	4.86
1019.285	32.76
1019.446	4.67
1019.606	-3.47
1019.766	-16.65
1019.926	40.32
1020.087	32.37
1020.247	-3.08
1020.407	23.27
1020.567	52.13
1020.728	9.32
1020.888	-0.18
1021.048	-3.28
1021.208	-26.33
1021.368	-12.58
1021.528	83.52
1021.688	46.9
1021.848	47.87
1022.008	11.06
1022.168	4.47
1022.328	13.77
1022.488	18.23
1022.648	9.12
1022.808	42.25
1022.968	37.99
1023.128	26.95
1023.288	12.22
1023.448	34.12
1023.608	36.63
1023.767	20.94
1023.927	6.22
1024.087	-5.02
1024.247	-39.51
1024.406	18.42
1024.566	-31.37
1024.726	-28.66
1024.885	31.4
1025.045	51.17
1025.205	-7.35
1025.364	19.39
1025.524	34.5
1025.683	-19.55
1025.843	43.03
1026.003	15.32
1026.162	79.07
1026.321	42.45
1026.481	20.94
1026.64	0.02
1026.8	8.73
1026.959	22.49
1027.119	34.89
1027.278	13.77
1027.437	-19.36
1027.597	28.11
1027.756	49.62
1027.915	46.71
1028.074	23.65
1028.234	-17.03
1028.393	16.1
1028.552	12.03
1028.711	-62.37
1028.87	25.2
1029.03	-32.53
1029.189	-9.48
1029.348	-41.83
1029.507	-16.45
1029.666	2.53
1029.825	-14.13
1029.984	-4.83
1030.143	14.74
1030.302	12.03
1030.461	-45.71
1030.62	31.02
1030.779	39.15
1030.938	-5.41
1031.097	-17.23
1031.255	13.77
1031.414	52.13
1031.573	69.18
1031.732	-44.16
1031.891	9.32
1032.049	55.82
1032.208	31.4
1032.367	3.31
1032.525	14.35
1032.684	3.31
1032.843	5.83
1033.001	-40.86
1033.16	139.13
1033.319	54.46
1033.477	26.37
1033.636	3.7
1033.794	-47.06
1033.953	23.46
1034.111	13.97
1034.27	10.09
1034.428	16.68
1034.587	-11.41
1034.745	10.28
1034.903	9.9
1035.062	49.62
1035.22	-36.6
1035.378	52.13
1035.537	-15.29
1035.695	46.52
1035.853	-8.7
1036.011	20.55
1036.17	18.81
1036.328	-56.36
1036.486	-3.28
1036.644	25.4
1036.802	-74.19
1036.96	-23.81
1037.119	-16.84
1037.277	-2.7
1037.435	-26.14
1037.593	-35.05
1037.751	-21.49
1037.909	25.4
1038.067	25.4
