Data from pine_FLMT105791__65__17-21-05-077.txt Node

Date: Mon Mar 20 17:21:05 GMT 2023
User: antho
Spectrometer: FLMT10579
Trigger mode: 0
Integration Time (sec): 1.000000E-1
Scans to average: 10
Electric dark correction enabled: true
Nonlinearity correction enabled: false
Boxcar width: 0
XAxis mode: Wavelengths
Number of Pixels in Spectrum: 3648
>>>>>Begin Spectral Data<<<<<
345.248	-149.12
345.464	-149.12
345.681	-149.12
345.898	-169.66
346.114	-167.33
346.331	-38.49
346.548	29.32
346.764	-11.17
346.981	1.23
347.197	-7.88
347.414	5.1
347.631	-46.63
347.847	79.31
348.064	-10.59
348.28	27
348.497	-29.19
348.713	2
348.93	21.57
349.146	26.22
349.363	-8.85
349.579	3.16
349.796	0.65
350.012	-3.04
350.229	22.15
350.445	0.45
350.661	-5.94
350.878	15.18
351.094	12.85
351.311	21.38
351.527	32.42
351.743	-9.62
351.96	5.68
352.176	25.45
352.392	10.91
352.609	48.7
352.825	-34.03
353.041	8.4
353.257	1.81
353.474	7.04
353.69	11.5
353.906	1.81
354.122	-23.38
354.339	63.23
354.555	14.21
354.771	6.46
354.987	69.23
355.203	74.85
355.42	-31.71
355.636	-18.73
355.852	-29.97
356.068	0.84
356.284	-28.22
356.5	61.48
356.716	-1.49
356.932	2.2
357.148	29.71
357.364	21.18
357.58	38.81
357.796	55.86
358.012	58.38
358.228	37.07
358.444	-51.28
358.66	65.74
358.876	12.85
359.092	-1.1
359.308	27
359.524	37.85
359.74	9.75
359.956	-15.82
360.172	3.55
360.388	29.32
360.604	-15.82
360.819	95.19
361.035	12.85
361.251	45.21
361.467	-9.04
361.683	47.34
361.898	-0.9
362.114	43.46
362.33	11.69
362.546	34.55
362.762	27.38
362.977	13.24
363.193	-24.35
363.409	76.59
363.624	-20.09
363.84	-30.55
364.056	-0.13
364.271	22.54
364.487	27.38
364.703	16.34
364.918	-6.14
365.134	-3.81
365.35	18.86
365.565	96.94
365.781	29.9
365.996	4.71
366.212	79.31
366.427	18.86
366.643	-3.62
366.858	-2.26
367.074	-28.42
367.289	43.85
367.505	134.14
367.72	-27.25
367.936	11.11
368.151	40.95
368.367	27.77
368.582	-23.38
368.798	-22.22
369.013	75.43
369.228	2.78
369.444	24.48
369.659	71.17
369.874	17.5
370.09	63.61
370.305	-36.94
370.52	-38.88
370.736	50.44
370.951	2.39
371.166	64
371.381	61.29
371.597	51.6
371.812	-12.14
372.027	-31.32
372.242	5.3
372.458	61.09
372.673	13.63
372.888	16.34
373.103	12.27
373.318	104.88
373.533	41.33
373.749	40.95
373.964	-42.95
374.179	54.31
374.394	-6.72
374.609	52.18
374.824	-22.22
375.039	84.34
375.254	2.39
375.469	55.67
375.684	22.15
375.899	41.53
376.114	18.47
376.329	20.41
376.544	51.99
376.759	43.27
376.974	-9.24
377.189	4.13
377.404	7.23
377.619	53.93
377.834	-41.98
378.049	-27.45
378.264	-18.15
378.478	27
378.693	-12.34
378.908	33.39
379.123	-6.33
379.338	22.93
379.553	12.08
379.767	29.71
379.982	24.86
380.197	29.71
380.412	17.89
380.626	51.02
380.841	88.22
381.056	30.68
381.271	66.91
381.485	-23.38
381.7	-16.6
381.915	43.46
382.129	14.21
382.344	24.67
382.559	9.17
382.773	37.65
382.988	-30.74
383.202	50.63
383.417	0.65
383.632	107.21
383.846	25.06
384.061	50.25
384.275	-17.57
384.49	34.75
384.704	25.83
384.919	20.6
385.133	12.46
385.348	49.66
385.562	-12.14
385.777	54.51
385.991	-1.68
386.206	-18.34
386.42	-6.72
386.634	42.3
386.849	16.15
387.063	46.18
387.277	-6.91
387.492	-16.99
387.706	14.21
387.92	-0.9
388.135	46.56
388.349	45.21
388.563	18.47
388.778	14.6
388.992	11.11
389.206	51.41
389.42	49.86
389.635	21.38
389.849	59.74
390.063	77.18
390.277	45.01
390.491	80.66
390.706	61.68
390.92	65.36
391.134	36.68
391.348	60.9
391.562	-30.35
391.776	6.26
391.99	-25.32
392.205	54.31
392.419	7.81
392.633	19.83
392.847	60.32
393.061	-22.6
393.275	62.64
393.489	9.36
393.703	18.86
393.917	70.01
394.131	7.23
394.345	28.35
394.559	67.1
394.773	15.56
394.986	43.66
395.2	35.13
395.414	52.57
395.628	-26.67
395.842	21.38
396.056	-3.23
396.27	-45.85
396.484	11.69
396.697	34.94
396.911	67.88
397.125	40.95
397.339	50.83
397.553	42.69
397.766	115.15
397.98	69.04
398.194	54.7
398.408	35.52
398.621	15.37
398.835	64.39
399.049	8.98
399.262	74.08
399.476	57.03
399.69	11.69
399.903	111.66
400.117	8.98
400.331	45.4
400.544	20.21
400.758	138.59
400.971	43.08
401.185	49.47
401.398	1.23
401.612	82.99
401.826	30.29
402.039	57.61
402.253	5.68
402.466	27.96
402.68	2.58
402.893	37.07
403.106	46.95
403.32	48.89
403.533	51.02
403.747	26.03
403.96	44.24
404.174	56.45
404.387	0.26
404.6	29.32
404.814	89.77
405.027	40.17
405.24	31.65
405.454	23.31
405.667	83.96
405.88	-15.82
406.094	34.55
406.307	71.94
406.52	56.25
406.733	12.85
406.947	37.26
407.16	100.23
407.373	79.31
407.586	-8.27
407.799	4.91
408.012	59.74
408.226	67.68
408.439	98.68
408.652	3.36
408.865	44.82
409.078	82.21
409.291	41.14
409.504	5.3
409.717	38.62
409.93	53.35
410.143	39.2
410.357	-19.5
410.57	12.08
410.783	22.35
410.996	53.35
411.209	34.75
411.421	82.41
411.634	24.09
411.847	25.25
412.06	31.45
412.273	26.03
412.486	40.56
412.699	123.29
412.912	13.05
413.125	70.39
413.338	43.46
413.55	48.7
413.763	40.75
413.976	42.69
414.189	4.13
414.402	5.1
414.615	91.9
414.827	-3.04
415.04	63.81
415.253	84.54
415.466	84.15
415.678	112.24
415.891	8.59
416.104	32.81
416.316	37.65
416.529	19.05
416.742	61.29
416.954	97.91
417.167	24.86
417.38	25.83
417.592	75.24
417.805	37.85
418.017	-26.48
418.23	63.03
418.442	43.46
418.655	24.67
418.868	38.62
419.08	92.48
419.293	93.26
419.505	77.18
419.718	64.39
419.93	101.39
420.142	21.18
420.355	95.58
420.567	117.28
420.78	73.69
420.992	34.16
421.205	134.33
421.417	-6.91
421.629	60.51
421.842	18.47
422.054	-10.79
422.266	77.18
422.479	69.81
422.691	42.88
422.903	86.86
423.115	46.56
423.328	29.71
423.54	59.54
423.752	69.81
423.964	8.4
424.177	58.96
424.389	51.21
424.601	165.72
424.813	80.66
425.025	108.56
425.238	75.43
425.45	64
425.662	57.03
425.874	363.73
426.086	66.91
426.298	91.32
426.51	89.77
426.722	56.45
426.934	37.46
427.146	81.83
427.358	26.03
427.57	102.17
427.782	64.97
427.994	44.05
428.206	46.56
428.418	11.88
428.63	70.78
428.842	92.29
429.054	70.39
429.266	116.12
429.478	55.67
429.69	83.96
429.902	11.88
430.114	104.11
430.325	95.97
430.537	52.96
430.749	79.89
430.961	15.18
431.173	61.87
431.384	87.06
431.596	-2.07
431.808	58.96
432.02	70.59
432.231	75.04
432.443	96.55
432.655	78.34
432.867	55.86
433.078	83.96
433.29	137.04
433.502	96.36
433.713	134.33
433.925	82.79
434.136	125.23
434.348	37.85
434.56	24.67
434.771	185.87
434.983	44.82
435.194	70.39
435.406	58.96
435.617	112.05
435.829	164.56
436.04	135.3
436.252	143.05
436.463	165.52
436.675	139.95
436.886	117.28
437.098	118.44
437.309	185.48
437.521	115.15
437.732	102.36
437.943	112.44
438.155	119.8
438.366	66.52
438.578	154.87
438.789	124.84
439	163.78
439.211	108.37
439.423	133.75
439.634	123.87
439.845	141.31
440.057	146.92
440.268	163.97
440.479	117.67
440.69	144.79
440.902	119.99
441.113	146.92
441.324	130.07
441.535	146.15
441.746	188
441.957	98.49
442.168	114.76
442.38	139.56
442.591	160.87
442.802	102.17
443.013	126.78
443.224	181.02
443.435	134.33
443.646	144.79
443.857	137.04
444.068	110.69
444.279	120.38
444.49	218.42
444.701	156.03
444.912	243.8
445.123	201.37
445.334	161.65
445.545	177.92
445.756	149.25
445.967	126.19
446.178	163.59
446.388	194.01
446.599	171.72
446.81	200.98
447.021	155.26
447.232	219.58
447.443	218.22
447.653	112.24
447.864	220.36
448.075	153.32
448.286	206.6
448.496	183.35
448.707	204.86
448.918	163.39
449.129	274.99
449.339	169.98
449.55	177.15
449.761	159.52
449.971	251.94
450.182	174.63
450.393	226.75
450.603	160.49
450.814	240.5
451.024	194.2
451.235	246.9
451.446	256.59
451.656	249.8
451.867	180.64
452.077	204.66
452.288	261.82
452.498	283.9
452.709	180.25
452.919	260.85
453.13	177.15
453.34	260.65
453.55	174.82
453.761	239.92
453.971	224.23
454.182	237.21
454.392	235.08
454.602	277.51
454.813	255.42
455.023	236.82
455.233	196.72
455.444	214.93
455.654	142.08
455.864	211.06
456.075	213.57
456.285	208.92
456.495	230.82
456.705	228.88
456.916	282.74
457.126	281
457.336	238.95
457.546	175.99
457.756	208.54
457.967	281.77
458.177	230.82
458.387	243.99
458.597	221.13
458.807	237.79
459.017	252.32
459.227	220.94
459.437	236.63
459.647	279.45
459.857	267.82
460.068	222.49
460.278	292.62
460.488	285.45
460.698	309.29
460.908	256.59
461.117	198.66
461.327	215.51
461.537	262.4
461.747	250.39
461.957	221.91
462.167	361.6
462.377	287.39
462.587	260.46
462.797	284.1
463.007	274.41
463.216	286.04
463.426	287.39
463.636	301.92
463.846	235.66
464.056	253.29
464.265	307.93
464.475	230.04
464.685	282.94
464.895	302.12
465.104	259.69
465.314	286.23
465.524	260.27
465.733	238.18
465.943	335.83
466.153	347.07
466.362	299.6
466.572	300.76
466.782	273.44
466.991	289.91
467.201	352.3
467.41	219.58
467.62	314.71
467.829	275.38
468.039	316.65
468.249	289.72
468.458	289.33
468.668	280.03
468.877	327.11
469.086	359.66
469.296	333.31
469.505	274.99
469.715	372.83
469.924	309.29
470.134	350.55
470.343	359.27
470.552	285.84
470.762	327.3
470.971	302.31
471.18	320.91
471.39	321.1
471.599	283.13
471.808	366.44
472.018	310.64
472.227	372.25
472.436	377.1
472.645	296.5
472.855	302.7
473.064	383.88
473.273	358.88
473.482	380.2
473.691	405
473.901	391.82
474.11	348.81
474.319	439.68
474.528	355.2
474.737	427.28
474.946	396.67
475.155	369.35
475.364	391.24
475.573	376.9
475.783	376.71
475.992	412.55
476.201	416.62
476.41	383.68
476.619	334.28
476.828	396.67
477.037	353.07
477.245	393.76
477.454	427.86
477.663	401.12
477.872	402.87
478.081	481.53
478.29	376.32
478.499	496.64
478.708	418.75
478.917	484.43
479.125	411.2
479.334	422.05
479.543	399.38
479.752	454.6
479.961	427.28
480.169	469.51
480.378	410.23
480.587	554.38
480.796	471.65
481.004	473.39
481.213	507.88
481.422	456.92
481.63	464.09
481.839	473.97
482.048	498.77
482.256	486.56
482.465	452.66
482.674	487.92
482.882	537.33
483.091	534.61
483.299	518.34
483.508	519.5
483.716	476.68
483.925	510.01
484.134	469.32
484.342	495.09
484.551	535.97
484.759	518.34
484.967	518.53
485.176	557.48
485.384	540.62
485.593	541.2
485.801	493.15
486.01	500.51
486.218	505.16
486.426	432.51
486.635	469.51
486.843	476.49
487.051	511.75
487.26	485.01
487.468	505.94
487.676	558.44
487.885	473.2
488.093	500.51
488.301	542.56
488.509	541.78
488.717	578.21
488.926	554.18
489.134	563.29
489.342	566.97
489.55	528.61
489.758	546.43
489.967	549.92
490.175	639.82
490.383	552.44
490.591	615.79
490.799	529.58
491.007	635.17
491.215	607.07
491.423	579.95
491.631	577.43
491.839	563.29
492.047	605.91
492.255	548.37
492.463	529.38
492.671	581.89
492.879	617.15
493.087	597
493.295	598.74
493.503	604.36
493.711	622.77
493.919	636.52
494.127	653.96
494.334	652.61
494.542	594.67
494.75	647.37
494.958	653.38
495.166	657.84
495.374	651.06
495.581	675.08
495.789	665.39
495.997	741.54
496.205	648.92
496.412	629.16
496.62	620.64
496.828	680.7
497.035	644.47
497.243	689.22
497.451	676.24
497.658	633.23
497.866	653.38
498.074	739.21
498.281	646.02
498.489	739.4
498.696	701.62
498.904	622.57
499.112	656.29
499.319	737.66
499.527	677.21
499.734	746.19
499.942	637.11
500.149	628.77
500.357	729.33
500.564	645.63
500.771	691.35
500.979	682.44
501.186	643.11
501.394	683.02
501.601	677.4
501.808	710.54
502.016	666.56
502.223	679.92
502.43	701.82
502.638	671.2
502.845	645.82
503.052	752.39
503.26	665.97
503.467	789
503.674	686.7
503.881	723.32
504.089	765.17
504.296	735.72
504.503	685.54
504.71	739.6
504.917	682.05
505.125	719.45
505.332	719.25
505.539	769.43
505.746	814.19
505.953	784.74
506.16	771.76
506.367	815.55
506.574	833.95
506.781	804.5
506.988	738.24
507.195	799.66
507.402	763.62
507.609	804.12
507.816	744.05
508.023	769.24
508.23	772.73
508.437	727.97
508.644	787.84
508.851	831.63
509.058	813.8
509.265	776.02
509.472	795.2
509.679	893.63
509.885	777.38
510.092	783.58
510.299	831.24
510.506	804.31
510.713	819.03
510.92	813.8
511.126	815.16
511.333	870.38
511.54	844.8
511.746	898.66
511.953	868.05
512.16	884.52
512.367	838.6
512.573	860.3
512.78	848.87
512.987	834.34
513.193	845
513.4	793.85
513.606	827.75
513.813	863.79
514.02	845.38
514.226	916.3
514.433	896.73
514.639	836.08
514.846	891.11
515.052	880.06
515.259	887.81
515.465	898.47
515.672	851.58
515.878	956.79
516.085	862.43
516.291	928.5
516.497	866.7
516.704	863.79
516.91	851.58
517.117	797.72
517.323	755.1
517.529	805.08
517.736	809.15
517.942	850.42
518.148	846.16
518.354	870.38
518.561	843.83
518.767	859.53
518.973	907.77
519.179	923.66
519.386	878.32
519.592	869.41
519.798	884.33
520.004	956.98
520.21	927.73
520.417	955.82
520.623	964.73
520.829	995.15
521.035	979.26
521.241	1014.91
521.447	990.11
521.653	1079.82
521.859	978.49
522.065	991.08
522.271	1108.3
522.477	1063.16
522.683	1074.39
522.889	1029.06
523.095	1040.29
523.301	1003.68
523.507	1025.76
523.713	1024.02
523.919	1014.53
524.125	1084.86
524.331	1024.99
524.537	1125.93
524.742	1111.4
524.948	1118.76
525.154	1116.63
525.36	1200.33
525.566	1110.62
525.772	1138.52
525.977	1065.87
526.183	1140.46
526.389	1148.79
526.595	1066.45
526.8	1052.89
527.006	1047.46
527.212	1013.94
527.417	998.25
527.623	1024.79
527.829	1081.95
528.034	1057.15
528.24	1092.22
528.446	1088.34
528.651	1164.49
528.857	1137.75
529.062	1183.86
529.268	1118.76
529.473	1179.02
529.679	1139.1
529.884	1227.26
530.09	1215.83
530.295	1218.73
530.501	1206.92
530.706	1230.17
530.912	1157.51
531.117	1203.23
531.323	1212.73
531.528	1235.01
531.733	1224.93
531.939	1223.97
532.144	1276.08
532.35	1221.06
532.555	1218.15
532.76	1230.17
532.966	1224.93
533.171	1259.23
533.376	1169.14
533.581	1152.86
533.787	1205.75
533.992	1229.2
534.197	1264.07
534.402	1254.58
534.607	1219.32
534.813	1308.25
535.018	1217.18
535.223	1228.23
535.428	1259.23
535.633	1289.26
535.838	1305.73
536.043	1258.07
536.249	1367.73
536.454	1281.32
536.659	1287.13
536.864	1266.98
537.069	1254.97
537.274	1271.82
537.479	1277.83
537.684	1306.5
537.889	1265.23
538.094	1363.08
538.299	1291.39
538.504	1339.44
538.708	1323.16
538.913	1331.69
539.118	1308.63
539.323	1348.74
539.528	1296.62
539.733	1300.3
539.938	1347
540.142	1354.16
540.347	1296.43
540.552	1266.59
540.757	1286.16
540.962	1261.17
541.166	1251.48
541.371	1273.57
541.576	1296.04
541.781	1190.84
541.985	1280.93
542.19	1308.44
542.395	1334.4
542.599	1395.24
542.804	1353.39
543.008	1400.08
543.213	1301.85
543.418	1275.89
543.622	1307.08
543.827	1251.09
544.031	1360.56
544.236	1391.17
544.44	1344.67
544.645	1446.97
544.849	1325.49
545.054	1352.42
545.258	1433.79
545.463	1414.61
545.667	1334.79
545.872	1389.23
546.076	1377.8
546.281	1354.36
546.485	1333.63
546.689	1376.64
546.894	1414.03
547.098	1387.88
547.302	1332.85
547.507	1363.66
547.711	1398.34
547.915	1433.99
548.119	1362.3
548.324	1383.61
548.528	1396.98
548.732	1370.83
548.936	1422.17
549.141	1434.76
549.345	1371.02
549.549	1418.49
549.753	1422.36
549.957	1460.72
550.161	1476.81
550.366	1404.15
550.57	1398.73
550.774	1418.68
550.978	1364.05
551.182	1418.88
551.386	1412.29
551.59	1386.71
551.794	1390.2
551.998	1466.15
552.202	1416.94
552.406	1374.31
552.61	1422.94
552.814	1397.18
553.018	1470.61
553.222	1382.84
553.426	1407.06
553.63	1482.62
553.833	1414.42
554.037	1332.66
554.241	1432.05
554.445	1429.14
554.649	1416.74
554.853	1406.86
555.056	1442.9
555.26	1462.66
555.464	1462.86
555.668	1430.89
555.871	1462.47
556.075	1427.98
556.279	1413.45
556.483	1344.48
556.686	1380.9
556.89	1413.06
557.094	1384.19
557.297	1348.74
557.501	1426.43
557.704	1318.32
557.908	1410.93
558.112	1339.83
558.315	1464.41
558.519	1392.53
558.722	1370.24
558.926	1335.95
559.129	1333.24
559.333	1309.21
559.536	1301.27
559.74	1293.13
559.943	1293.91
560.147	1274.73
560.35	1357.46
560.553	1332.08
560.757	1265.82
560.96	1395.04
561.164	1299.33
561.367	1382.06
561.57	1329.56
561.774	1360.36
561.977	1322.97
562.18	1319.68
562.384	1438.44
562.587	1354.36
562.79	1304.95
562.993	1347
563.197	1344.28
563.4	1397.76
563.603	1396.79
563.806	1414.03
564.009	1295.85
564.212	1343.12
564.416	1317.55
564.619	1359.01
564.822	1258.07
565.025	1348.55
565.228	1321.23
565.431	1343.7
565.634	1233.07
565.837	1278.6
566.04	1255.35
566.243	1264.46
566.446	1175.34
566.649	1288.48
566.852	1224.16
567.055	1234.43
567.258	1293.33
567.461	1342.15
567.664	1320.45
567.867	1214.86
568.07	1283.45
568.273	1256.9
568.475	1327.81
568.678	1233.07
568.881	1228.62
569.084	1225.9
569.287	1136.97
569.489	1187.54
569.692	1259.81
569.895	1222.8
570.098	1158.87
570.3	1192.58
570.503	1105.39
570.706	1158.48
570.909	1151.31
571.111	1129.22
571.314	1187.93
571.516	1223
571.719	1177.66
571.922	1133.1
572.124	1146.08
572.327	1195.87
572.529	1083.89
572.732	1136
572.935	1185.02
573.137	1246.83
573.34	1139.1
573.542	1181.34
573.745	1185.6
573.947	1163.52
574.15	1165.26
574.352	1151.7
574.554	1173.2
574.757	1171.07
574.959	1106.94
575.162	1110.43
575.364	1137.75
575.566	1235.01
575.769	1085.63
575.971	1138.33
576.173	1024.02
576.376	1104.04
576.578	1154.41
576.78	1191.42
576.982	1053.47
577.185	1111.2
577.387	1059.67
577.589	1069.16
577.791	1122.05
577.993	1149.37
578.196	1095.32
578.398	1138.72
578.6	1154.41
578.802	1067.61
579.004	1044.94
579.206	1047.27
579.408	1109.85
579.61	1082.53
579.812	1134.84
580.014	1087.37
580.216	1095.32
580.418	1082.34
580.62	1063.35
580.822	1014.91
581.024	1118.37
581.226	1134.84
581.428	1110.24
581.63	1195.87
581.832	1072.46
582.034	1152.86
582.236	1103.46
582.438	1127.29
582.64	1161.39
582.841	1165.45
583.043	1191.03
583.245	1151.7
583.447	1132.13
583.649	1124.19
583.85	1090.67
584.052	1132.52
584.254	1098.03
584.456	1159.25
584.657	1072.07
584.859	1108.3
585.061	1110.43
585.262	1083.11
585.464	1044.17
585.666	1133.49
585.867	1050.37
586.069	1134.45
586.27	1125.15
586.472	1065.48
586.674	1059.86
586.875	1071.87
587.077	1053.86
587.278	1117.4
587.48	1089.31
587.681	1161.58
587.883	1095.71
588.084	1009.88
588.285	1033.9
588.487	1074.01
588.688	1029.64
588.89	994.57
589.091	979.84
589.292	1015.3
589.494	967.44
589.695	957.56
589.896	906.8
590.098	881.23
590.299	958.34
590.5	929.47
590.702	906.8
590.903	956.21
591.104	1038.94
591.305	990.5
591.507	1032.16
591.708	1015.69
591.909	957.37
592.11	1055.79
592.311	1056.57
592.512	1023.24
592.714	942.45
592.915	962.41
593.116	1005.42
593.317	994.76
593.518	1003.48
593.719	963.96
593.92	1041.07
594.121	1059.86
594.322	970.93
594.523	973.06
594.724	949.23
594.925	994.38
595.126	1023.63
595.327	990.89
595.528	1003.68
595.729	1011.62
595.929	1009.29
596.13	959.31
596.331	976.16
596.532	991.86
596.733	1018.79
596.934	999.22
597.135	1024.21
597.335	982.56
597.536	958.92
597.737	998.06
597.938	972.87
598.138	997.67
598.339	1005.23
598.54	1040.1
598.74	967.44
598.941	982.75
599.142	1027.7
599.342	1018.4
599.543	970.74
599.744	1004.84
599.944	987.59
600.145	970.54
600.345	980.81
600.546	1085.44
600.746	1033.51
600.947	1022.08
601.147	998.64
601.348	1055.21
601.548	940.9
601.749	1011.81
601.949	955.43
602.15	985.08
602.35	955.04
602.551	1018.98
602.751	940.13
602.951	961.44
603.152	922.5
603.352	995.73
603.552	975.19
603.753	999.03
603.953	1004.64
604.153	999.61
604.354	980.81
604.554	997.48
604.754	1003.87
604.954	950.59
605.155	1005.23
605.355	966.86
605.555	1034.09
605.755	1041.84
605.955	988.18
606.155	1038.36
606.356	1021.5
606.556	1008.13
606.756	1011.04
606.956	960.86
607.156	1026.34
607.356	964.15
607.556	969.38
607.756	1001.35
607.956	1007.16
608.156	978.1
608.356	929.08
608.556	998.83
608.756	982.56
608.956	938.96
609.156	976.74
609.356	946.52
609.556	919.01
609.755	963.76
609.955	938.58
610.155	963.38
610.355	947.68
610.555	909.32
610.755	967.64
610.954	887.04
611.154	966.09
611.354	987.01
611.554	914.75
611.753	912.81
611.953	910.1
612.153	971.13
612.352	956.21
612.552	895.95
612.752	822.33
612.951	939.35
613.151	939.35
613.351	914.94
613.55	922.11
613.75	934.89
613.949	868.05
614.149	899.05
614.348	888.98
614.548	877.35
614.747	836.28
614.947	885.49
615.146	830.66
615.346	935.86
615.545	907.96
615.745	887.23
615.944	930.05
616.144	892.85
616.343	919.59
616.542	864.95
616.742	882.2
616.941	871.93
617.14	828.33
617.34	840.54
617.539	865.53
617.738	825.62
617.938	908.35
618.137	851
618.336	817.87
618.535	889.36
618.734	859.91
618.934	858.17
619.133	851.2
619.332	895.37
619.531	854.1
619.73	883.75
619.929	906.61
620.128	864.76
620.328	938.38
620.527	830.27
620.726	866.5
620.925	901.57
621.124	839.38
621.323	893.43
621.522	847.9
621.721	835.5
621.92	830.47
622.119	868.25
622.318	820.2
622.517	823.88
622.715	835.7
622.914	796.56
623.113	865.92
623.312	795.78
623.511	868.44
623.71	829.69
623.909	818.45
624.107	865.15
624.306	820.97
624.505	830.47
624.704	820.97
624.902	848.1
625.101	887.43
625.3	807.8
625.499	796.75
625.697	818.84
625.896	797.14
626.095	855.85
626.293	795.2
626.492	785.13
626.69	835.5
626.889	778.35
627.088	845
627.286	766.33
627.485	772.73
627.683	760.52
627.882	797.92
628.08	722.74
628.279	767.69
628.477	831.24
628.676	739.79
628.874	797.33
629.073	742.31
629.271	729.14
629.469	785.32
629.668	737.27
629.866	747.15
630.065	746.19
630.263	769.24
630.461	741.34
630.66	769.05
630.858	778.35
631.056	803.73
631.254	805.67
631.453	774.67
631.651	769.63
631.849	749.48
632.047	755.87
632.245	751.42
632.444	784.16
632.642	775.83
632.84	795.4
633.038	760.52
633.236	742.12
633.434	736.69
633.632	766.14
633.83	753.94
634.028	792.68
634.227	778.15
634.425	854.3
634.623	765.37
634.821	785.32
635.019	775.25
635.216	723.9
635.414	810.9
635.612	790.94
635.81	759.17
636.008	836.86
636.206	744.25
636.404	774.28
636.602	712.86
636.8	769.24
636.997	798.69
637.195	797.14
637.393	763.23
637.591	823.68
637.789	788.23
637.986	775.05
638.184	809.93
638.382	797.92
638.58	793.46
638.777	845.38
638.975	784.35
639.173	804.5
639.37	791.52
639.568	791.13
639.765	827.17
639.963	781.64
640.161	799.27
640.358	820.97
640.556	735.14
640.753	739.99
640.951	734.17
641.148	771.57
641.346	716.74
641.543	763.43
641.741	770.79
641.938	735.92
642.136	772.53
642.333	748.32
642.531	778.93
642.728	826.78
642.925	770.02
643.123	751.03
643.32	775.25
643.517	751.03
643.715	784.93
643.912	717.32
644.109	764.98
644.306	712.28
644.504	707.05
644.701	759.36
644.898	786.48
645.095	707.44
645.293	727.2
645.49	770.6
645.687	710.15
645.884	767.3
646.081	683.8
646.278	699.1
646.475	704.14
646.672	717.12
646.87	757.81
647.067	743.86
647.264	713.64
647.461	664.81
647.658	639.24
647.855	726.42
648.052	654.93
648.249	595.26
648.446	688.06
648.642	655.32
648.839	669.66
649.036	666.56
649.233	624.32
649.43	622.19
649.627	603.2
649.824	638.85
650.021	639.24
650.217	626.64
650.414	629.94
650.611	657.64
650.808	642.72
651.004	666.36
651.201	696.78
651.398	716.93
651.595	652.8
651.791	647.76
651.988	702.01
652.185	645.82
652.381	696
652.578	594.48
652.775	666.36
652.971	668.69
653.168	682.64
653.364	695.23
653.561	612.89
653.757	640.98
653.954	671.2
654.15	631.68
654.347	683.41
654.543	647.57
654.74	606.3
654.936	588.28
655.133	632.07
655.329	610.56
655.525	640.4
655.722	650.67
655.918	608.24
656.115	626.64
656.311	556.89
656.507	544.3
656.704	524.34
656.9	550.31
657.096	541.59
657.292	526.28
657.489	599.13
657.685	589.44
657.881	551.66
658.077	555.73
658.273	606.3
658.47	645.24
658.666	615.41
658.862	632.65
659.058	577.43
659.254	642.53
659.45	582.28
659.646	629.94
659.842	617.34
660.038	657.84
660.234	586.54
660.43	623.54
660.626	692.32
660.822	634.2
661.018	664.42
661.214	628.77
661.41	564.84
661.606	664.04
661.802	632.26
661.998	592.93
662.194	576.66
662.39	609.4
662.586	637.11
662.781	639.04
662.977	616.76
663.173	649.31
663.369	622.96
663.564	612.11
663.76	620.25
663.956	577.04
664.152	640.79
664.347	552.44
664.543	606.3
664.739	618.7
664.934	552.83
665.13	545.46
665.326	633.23
665.521	595.45
665.717	542.36
665.912	553.6
666.108	516.4
666.304	572.01
666.499	592.93
666.695	524.93
666.89	563.68
667.086	631.1
667.281	592.74
667.477	616.96
667.672	589.83
667.867	580.34
668.063	599.32
668.258	523.18
668.454	587.7
668.649	681.86
668.844	551.08
669.04	600.1
669.235	579.95
669.43	546.63
669.626	519.31
669.821	588.09
670.016	517.56
670.211	553.79
670.407	519.5
670.602	564.64
670.797	577.43
670.992	611.34
671.187	529.77
671.382	609.21
671.578	552.83
671.773	579.76
671.968	509.62
672.163	553.99
672.358	583.24
672.553	539.26
672.748	540.81
672.943	619.86
673.138	569.88
673.333	570.65
673.528	524.93
673.723	571.23
673.918	531.32
674.113	530.35
674.308	632.26
674.503	560.96
674.698	583.44
674.892	535.58
675.087	618.31
675.282	591.19
675.477	532.29
675.672	568.33
675.867	528.8
676.061	512.91
676.256	503.23
676.451	526.48
676.646	537.33
676.84	489.08
677.035	498.96
677.23	497.22
677.424	569.1
677.619	574.14
677.814	549.34
678.008	566.97
678.203	493.35
678.397	522.99
678.592	540.23
678.787	625.09
678.981	521.83
679.176	530.93
679.37	567.16
679.565	488.5
679.759	547.21
679.954	541.2
680.148	581.5
680.342	625.67
680.537	566
680.731	530.74
680.926	553.99
681.12	548.37
681.314	531.9
681.509	510.78
681.703	533.26
681.897	599.71
682.092	542.94
682.286	541.78
682.48	615.79
682.674	586.54
682.869	514.46
683.063	552.83
683.257	629.94
683.451	497.03
683.645	542.56
683.839	546.63
684.034	546.63
684.228	564.45
684.422	490.05
684.616	514.66
684.81	571.81
685.004	547.79
685.198	531.13
685.392	568.52
685.586	523.38
685.78	572.78
685.974	552.44
686.168	560.19
686.362	598.16
686.556	512.53
686.75	455.37
686.944	479.4
687.138	514.66
687.331	425.15
687.525	441.61
687.719	343.97
687.913	422.05
688.107	427.28
688.301	377.68
688.494	453.82
688.688	416.43
688.882	391.05
689.076	387.75
689.269	462.93
689.463	514.27
689.657	419.72
689.85	428.05
690.044	431.73
690.238	449.17
690.431	464.86
690.625	470.87
690.818	483.46
691.012	488.7
691.205	504.97
691.399	481.72
691.593	510.2
691.786	569.68
691.98	553.41
692.173	584.6
692.366	539.26
692.56	564.84
692.753	620.25
692.947	506.71
693.14	620.83
693.333	582.08
693.527	523.76
693.72	580.73
693.914	559.22
694.107	548.56
694.3	557.48
694.493	530.74
694.687	612.89
694.88	569.49
695.073	643.31
695.266	602.23
695.46	590.41
695.653	671.2
695.846	645.24
696.039	598.16
696.232	581.89
696.425	630.32
696.618	661.52
696.812	632.07
697.005	703.95
697.198	752.39
697.391	674.69
697.584	706.47
697.777	780.28
697.97	759.17
698.163	741.92
698.356	737.66
698.549	811.67
698.742	778.93
698.935	724.87
699.127	769.82
699.32	706.47
699.513	742.12
699.706	781.83
699.899	768.27
700.092	763.23
700.285	762.46
700.477	721.58
700.67	765.75
700.863	801.79
701.056	878.51
701.248	857.4
701.441	857.98
701.634	832.6
701.826	923.46
702.019	795.01
702.212	888.01
702.404	839.77
702.597	844.61
702.79	869.6
702.982	887.43
703.175	950.01
703.367	939.54
703.56	930.25
703.752	980.81
703.945	974.42
704.137	983.53
704.33	1004.06
704.522	1012.39
704.715	990.89
704.907	1031.57
705.1	1066.45
705.292	1048.82
705.484	1010.65
705.677	1079.82
705.869	1046.3
706.061	1082.34
706.254	1137.75
706.446	1094.54
706.638	1042.23
706.831	1141.82
707.023	1099
707.215	1211.57
707.407	1165.45
707.599	1136.97
707.792	1205.95
707.984	1184.64
708.176	1212.34
708.368	1189.67
708.56	1245.67
708.752	1217.77
708.944	1185.6
709.136	1237.14
709.329	1223.38
709.521	1311.35
709.713	1296.81
709.905	1298.56
710.097	1313.28
710.289	1253.8
710.481	1260.2
710.672	1326.85
710.864	1313.28
711.056	1365.98
711.248	1362.11
711.44	1325.1
711.632	1348.35
711.824	1349.13
712.016	1422.94
712.207	1395.43
712.399	1434.18
712.591	1464.6
712.783	1458.21
712.975	1459.17
713.166	1411.71
713.358	1426.24
713.55	1478.36
713.741	1493.86
713.933	1481.26
714.125	1487.46
714.316	1471.19
714.508	1515.36
714.7	1559.54
714.891	1509.16
715.083	1567.09
715.274	1509.16
715.466	1487.46
715.657	1536.09
715.849	1487.66
716.04	1547.33
716.232	1442.71
716.423	1534.54
716.615	1459.76
716.806	1430.69
716.998	1425.85
717.189	1386.13
717.381	1285
717.572	1276.08
717.763	1308.25
717.955	1330.14
718.146	1286.35
718.337	1223.77
718.528	1190.45
718.72	1135.23
718.911	1203.82
719.102	1180.18
719.293	1256.32
719.485	1213.5
719.676	1238.69
719.867	1195.68
720.058	1176.89
720.249	1189.29
720.44	1206.92
720.632	1238.69
720.823	1289.45
721.014	1361.53
721.205	1412.87
721.396	1437.09
721.587	1505.29
721.778	1495.79
721.969	1540.94
722.16	1583.37
722.351	1561.67
722.542	1714.53
722.733	1718.6
722.924	1617.66
723.115	1669.78
723.305	1624.83
723.496	1669.39
723.687	1570.77
723.878	1543.26
724.069	1606.23
724.26	1561.28
724.45	1538.03
724.641	1530.09
724.832	1613.2
725.023	1582.59
725.213	1520.79
725.404	1500.06
725.595	1575.81
725.785	1516.91
725.976	1570.77
726.167	1594.02
726.357	1587.24
726.548	1689.35
726.739	1567.29
726.929	1645.56
727.12	1681.79
727.31	1661.25
727.501	1635.1
727.691	1656.6
727.882	1651.57
728.072	1719.76
728.263	1717.25
728.453	1758.9
728.644	1723.25
728.834	1709.69
729.024	1682.37
729.215	1701.75
729.405	1720.35
729.596	1815.28
729.786	1802.69
729.976	1814.51
730.167	1787.19
730.357	1744.76
730.547	1774.79
730.737	1807.53
730.928	1839.69
731.118	1891.43
731.308	1808.5
731.498	1853.84
731.688	1923.01
731.879	1944.71
732.069	1970.67
732.259	1986.36
732.449	2027.05
732.639	2065.22
732.829	2070.64
733.019	2100.28
733.209	2159.96
733.399	2161.12
733.589	2204.52
733.779	2214.79
733.969	2216.53
734.159	2301.98
734.349	2292.87
734.539	2313.02
734.729	2332.01
734.919	2382.38
735.109	2406.99
735.299	2329.88
735.488	2342.86
735.678	2396.72
735.868	2386.26
736.058	2351.38
736.248	2344.02
736.437	2301.78
736.627	2287.83
736.817	2395.75
737.007	2340.92
737.196	2411.64
737.386	2370.76
737.576	2371.53
737.765	2436.05
737.955	2420.74
738.144	2498.82
738.334	2485.07
738.524	2412.99
738.713	2464.34
738.903	2433.92
739.092	2496.89
739.282	2497.47
739.471	2500.95
739.661	2467.05
739.85	2521.1
740.04	2432.37
740.229	2479.45
740.419	2539.9
740.608	2577.1
740.797	2540.28
740.987	2621.85
741.176	2581.75
741.365	2548.62
741.555	2524.59
741.744	2626.31
741.933	2602.28
742.123	2558.5
742.312	2610.23
742.501	2621.08
742.69	2661.18
742.88	2567.41
743.069	2696.44
743.258	2637.74
743.447	2693.15
743.636	2677.07
743.825	2603.45
744.014	2651.5
744.204	2662.35
744.393	2600.35
744.582	2683.46
744.771	2668.35
744.96	2630.96
745.149	2660.6
745.338	2622.82
745.527	2724.15
745.716	2612.75
745.905	2653.05
746.094	2650.14
746.283	2689.28
746.471	2654.4
746.66	2712.53
746.849	2680.94
747.038	2730.35
747.227	2709.04
747.416	2716.4
747.604	2692.76
747.793	2674.75
747.982	2712.53
748.171	2689.66
748.359	2747.98
748.548	2717.76
748.737	2704
748.926	2657.5
749.114	2599.57
749.303	2704.19
749.491	2699.35
749.68	2647.04
749.869	2672.23
750.057	2654.98
750.246	2642.97
750.434	2673.39
750.623	2667.96
750.811	2644.52
751	2684.24
751.188	2657.31
751.377	2673.97
751.565	2618.36
751.754	2637.16
751.942	2568.38
752.131	2668.93
752.319	2642.58
752.507	2603.45
752.696	2647.04
752.884	2701.09
753.072	2635.41
753.261	2609.26
753.449	2641.61
753.637	2636.38
753.825	2713.69
754.014	2673.39
754.202	2657.5
754.39	2720.28
754.578	2694.12
754.766	2605.96
754.955	2608.87
755.143	2689.86
755.331	2633.48
755.519	2582.52
755.707	2646.85
755.895	2639.48
756.083	2617.98
756.271	2539.32
756.459	2565.08
756.647	2646.65
756.835	2621.46
757.023	2553.85
757.211	2590.08
757.399	2559.85
757.587	2580.39
757.775	2506.77
757.963	2522.65
758.151	2543.38
758.339	2493.2
758.526	2508.51
758.714	2530.4
758.902	2463.95
759.09	2395.56
759.278	2215.56
759.465	2069.48
759.653	1769.17
759.841	1617.66
760.028	1386.91
760.216	1185.02
760.404	1158.29
760.591	934.89
760.779	759.36
760.967	677.21
761.154	554.76
761.342	609.01
761.529	603.2
761.717	645.63
761.905	615.99
762.092	712.47
762.28	666.17
762.467	687.29
762.655	587.12
762.842	652.61
763.029	640.21
763.217	635.94
763.404	650.67
763.592	657.84
763.779	624.71
763.966	638.85
764.154	692.13
764.341	749.48
764.528	728.94
764.716	824.65
764.903	844.42
765.09	894.4
765.277	937.99
765.465	1040.29
765.652	1113.92
765.839	1152.09
766.026	1260
766.213	1268.53
766.4	1355.33
766.588	1540.16
766.775	1486.49
766.962	1617.27
767.149	1641.49
767.336	1759.48
767.523	1727.32
767.71	1839.5
767.897	1914.87
768.084	1987.14
768.271	2018.52
768.458	2025.69
768.645	2092.53
768.832	2052.43
769.019	2061.73
769.206	2105.9
769.392	2187.08
769.579	2255.67
769.766	2179.72
769.953	2190.57
770.14	2247.34
770.327	2243.85
770.513	2294.42
770.7	2339.95
770.887	2243.27
771.073	2313.99
771.26	2318.06
771.447	2236.68
771.634	2276.79
771.82	2371.34
772.007	2281.83
772.193	2300.23
772.38	2346.92
772.567	2307.4
772.753	2312.05
772.94	2330.07
773.126	2366.3
773.313	2343.24
773.499	2340.53
773.686	2311.08
773.872	2306.04
774.059	2343.44
774.245	2273.49
774.432	2304.11
774.618	2229.9
774.804	2295
774.991	2229.32
775.177	2289.77
775.363	2233.58
775.55	2304.69
775.736	2229.13
775.922	2263.81
776.109	2275.82
776.295	2233.2
776.481	2250.44
776.667	2320.58
776.853	2245.59
777.04	2191.35
777.226	2214.79
777.412	2329.68
777.598	2222.15
777.784	2210.33
777.97	2210.14
778.156	2244.43
778.342	2214.79
778.528	2213.63
778.715	2172.55
778.901	2197.55
779.087	2248.5
779.272	2194.45
779.458	2142.13
779.644	2197.55
779.83	2116.17
780.016	2236.49
780.202	2173.52
780.388	2219.63
780.574	2132.45
780.76	2136.32
780.946	2177.59
781.131	2132.06
781.317	2107.45
781.503	2128.77
781.689	2118.88
781.874	2261.48
782.06	2150.66
782.246	2136.71
782.432	2106.48
782.617	2138.84
782.803	2170.42
782.989	2082.07
783.174	2068.32
783.36	2082.46
783.545	2068.7
783.731	2058.44
783.916	1990.04
784.102	2079.36
784.288	2000.12
784.473	2067.15
784.659	2037.9
784.844	2128.38
785.029	2047.97
785.215	2039.64
785.4	2000.7
785.586	2085.37
785.771	1998.18
785.956	2056.11
786.142	2010.39
786.327	2014.84
786.512	2008.64
786.698	1998.76
786.883	1958.27
787.068	1967.57
787.254	1989.65
787.439	1948.58
787.624	1959.24
787.809	1936.76
787.994	1961.95
788.18	2008.06
788.365	1850.74
788.55	1904.79
788.735	1899.76
788.92	1926.88
789.105	1939.86
789.29	1926.69
789.475	1903.82
789.66	1850.35
789.845	1857.52
790.03	1850.16
790.215	1920.1
790.4	1897.43
790.585	1949.16
790.77	1882.32
790.955	1788.55
791.14	1831.94
791.325	1916.22
791.51	1781.57
791.695	1823.61
791.879	1837.18
792.064	1799.59
792.249	1899.76
792.434	1823.81
792.618	1822.84
792.803	1872.05
792.988	1854.23
793.173	1846.48
793.357	1875.15
793.542	1771.3
793.727	1852.87
793.911	1861.59
794.096	1834.08
794.281	1854.03
794.465	1928.04
794.65	1838.73
794.834	1841.83
795.019	1906.73
795.203	1920.1
795.388	1906.15
795.572	1935.41
795.757	1887.16
795.941	1865.27
796.126	1913.12
796.31	1813.93
796.494	1881.35
796.679	1847.06
796.863	1824.39
797.048	1899.95
797.232	1856.74
797.416	1864.88
797.601	1830.01
797.785	1911.19
797.969	1906.73
798.153	1845.12
798.338	1874.57
798.522	1939.47
798.706	1884.64
798.89	1908.47
799.074	1968.34
799.258	1976.87
799.443	1900.92
799.627	1899.76
799.811	1953.62
799.995	1901.5
800.179	1860.04
800.363	1907.12
800.547	1889.49
800.731	1915.06
800.915	1836.98
801.099	1897.82
801.283	1879.99
801.467	1911.96
801.651	1898.01
801.835	1935.6
802.019	1911.38
802.202	1894.72
802.386	1816.25
802.57	1846.09
802.754	1849.77
802.938	1813.54
803.121	1877.09
803.305	1915.64
803.489	1879.8
803.673	1887.74
803.856	1916.81
804.04	1896.07
804.224	1895.3
804.407	1892.39
804.591	1885.42
804.775	1904.02
804.958	1869.14
805.142	2006.51
805.326	1856.94
805.509	1914.67
805.693	1934.82
805.876	1965.05
806.06	1884.45
806.243	1892.2
806.427	1942.38
806.61	1969.7
806.794	1911.77
806.977	1952.07
807.16	1926.49
807.344	1929.59
807.527	1897.43
807.71	1889.88
807.894	1873.41
808.077	1922.62
808.26	1836.01
808.444	1849.77
808.627	1921.65
808.81	1851.9
808.993	1846.67
809.177	1811.21
809.36	1850.74
809.543	1885.23
809.726	1795.91
809.909	1778.47
810.092	1763.75
810.276	1792.03
810.459	1772.08
810.642	1761.03
810.825	1748.05
811.008	1789.71
811.191	1670.55
811.374	1718.8
811.557	1691.67
811.74	1768.98
811.923	1665.32
812.106	1657.96
812.289	1633.93
812.472	1644.4
812.654	1622.5
812.837	1619.99
813.02	1576.2
813.203	1563.8
813.386	1499.09
813.569	1481.07
813.751	1433.79
813.934	1495.41
814.117	1470.61
814.3	1429.73
814.482	1407.44
814.665	1386.71
814.848	1322.2
815.03	1321.03
815.213	1316.77
815.396	1309.41
815.578	1280.93
815.761	1247.99
815.943	1313.48
816.126	1223.19
816.309	1200.13
816.491	1167
816.674	1121.86
816.856	1169.72
817.039	1123.99
817.221	1220.67
817.403	1168.55
817.586	1159.45
817.768	1162.94
817.951	1129.22
818.133	1123.6
818.315	1154.8
818.498	1183.28
818.68	1263.3
818.862	1214.47
819.045	1256.9
819.227	1225.71
819.409	1189.48
819.591	1236.95
819.774	1208.27
819.956	1158.29
820.138	1237.53
820.32	1212.92
820.502	1257.68
820.684	1302.43
820.866	1307.86
821.048	1373.54
821.231	1363.08
821.413	1340.99
821.595	1291.97
821.777	1339.05
821.959	1337.7
822.141	1382.64
822.323	1304.56
822.505	1224.55
822.686	1213.7
822.868	1166.23
823.05	1036.03
823.232	1060.44
823.414	1011.43
823.596	1078.85
823.778	1056.57
823.96	1080.79
824.141	1075.75
824.323	1071.29
824.505	1141.24
824.687	1223.77
824.868	1216.99
825.05	1285.19
825.232	1310.57
825.413	1358.62
825.595	1337.31
825.777	1259.23
825.958	1289.65
826.14	1305.73
826.321	1320.45
826.503	1324.71
826.685	1330.14
826.866	1342.93
827.048	1337.31
827.229	1286.55
827.411	1230.75
827.592	1211.37
827.773	1231.33
827.955	1165.45
828.136	1197.62
828.318	1159.64
828.499	1182.5
828.68	1172.43
828.862	1190.25
829.043	1234.62
829.224	1185.22
829.406	1140.07
829.587	1184.64
829.768	1171.46
829.949	1196.84
830.131	1161.77
830.312	1244.5
830.493	1161
830.674	1212.73
830.855	1165.07
831.036	1155.57
831.218	1212.92
831.399	1245.08
831.58	1180.18
831.761	1164.49
831.942	1195.87
832.123	1193.16
832.304	1145.69
832.485	1189.87
832.666	1157.7
832.847	1199.17
833.028	1188.51
833.209	1170.88
833.389	1166.04
833.57	1146.47
833.751	1142.01
833.932	1165.65
834.113	1196.45
834.294	1192.77
834.475	1173.4
834.655	1259.81
834.836	1213.5
835.017	1212.73
835.198	1155.96
835.378	1172.24
835.559	1234.23
835.74	1182.12
835.92	1137.94
836.101	1164.87
836.281	1219.9
836.462	1220.67
836.643	1225.32
836.823	1227.07
837.004	1257.87
837.184	1266.2
837.365	1236.56
837.545	1262.91
837.726	1200.13
837.906	1251.48
838.087	1210.02
838.267	1230.94
838.448	1216.6
838.628	1218.35
838.808	1221.45
838.989	1271.82
839.169	1187.93
839.349	1254.38
839.53	1269.88
839.71	1241.98
839.89	1218.35
840.07	1274.34
840.251	1212.92
840.431	1262.13
840.611	1232.49
840.791	1204.01
840.971	1247.22
841.151	1227.65
841.332	1217.96
841.512	1266.2
841.692	1171.07
841.872	1228.81
842.052	1228.42
842.232	1224.55
842.412	1182.89
842.592	1181.92
842.772	1213.31
842.952	1220.67
843.132	1181.54
843.312	1173.59
843.492	1145.3
843.672	1231.91
843.851	1127.48
844.031	1210.6
844.211	1164.68
844.391	1129.42
844.571	1197.62
844.751	1183.28
844.93	1186.57
845.11	1172.62
845.29	1191.42
845.47	1195.68
845.649	1148.4
845.829	1187.15
846.009	1141.24
846.188	1177.47
846.368	1180.37
846.547	1154.6
846.727	1200.72
846.907	1125.74
847.086	1200.33
847.266	1219.51
847.445	1168.75
847.625	1117.79
847.804	1135.62
847.984	1156.74
848.163	1158.67
848.343	1146.08
848.522	1178.82
848.701	1142.98
848.881	1122.25
849.06	1167.59
849.239	1135.62
849.419	1168.75
849.598	1094.74
849.777	1079.43
849.957	1124.19
850.136	1047.27
850.315	1040.87
850.494	1034.29
850.674	1051.14
850.853	1070.52
851.032	1074.39
851.211	1138.14
851.39	1113.53
851.569	1031.77
851.748	1074.2
851.927	1098.03
852.107	1062.96
852.286	1048.04
852.465	1056.18
852.644	1085.05
852.823	1076.91
853.002	1033.32
853.181	1067.81
853.359	1081.76
853.538	997.67
853.717	1089.89
853.896	994.57
854.075	912.61
854.254	946.33
854.433	894.98
854.611	941.48
854.79	901.38
854.969	950.2
855.148	978.88
855.327	885.3
855.505	943.03
855.684	925.6
855.863	974.81
856.041	929.66
856.22	968.8
856.399	964.73
856.577	1035.26
856.756	1029.25
856.934	1123.6
857.113	1102.87
857.291	994.38
857.47	1025.18
857.648	1031.77
857.827	1057.34
858.005	1074.59
858.184	1008.71
858.362	1077.11
858.541	1040.87
858.719	1046.11
858.898	1004.06
859.076	1012.59
859.254	1083.89
859.433	997.09
859.611	967.25
859.789	952.33
859.967	1069.94
860.146	1100.16
860.324	970.54
860.502	977.71
860.68	928.7
860.859	968.61
861.037	994.38
861.215	984.88
861.393	985.27
861.571	1000.96
861.749	970.74
861.927	983.91
862.105	985.85
862.283	980.23
862.461	937.22
862.639	925.79
862.817	952.53
862.995	971.71
863.173	942.06
863.351	943.03
863.529	966.67
863.707	1010.26
863.885	937.61
864.063	898.86
864.241	908.93
864.418	986.04
864.596	927.34
864.774	897.31
864.952	943.81
865.129	944.58
865.307	936.06
865.485	858.56
865.663	938.19
865.84	862.63
866.018	911.65
866.196	783.19
866.373	837.83
866.551	782.61
866.728	745.6
866.906	794.23
867.084	857.78
867.261	837.05
867.439	855.85
867.616	879.48
867.794	859.72
867.971	884.91
868.149	859.14
868.326	918.62
868.503	896.73
868.681	851.2
868.858	878.71
869.035	821.94
869.213	903.51
869.39	834.92
869.567	955.63
869.745	845.19
869.922	896.92
870.099	883.75
870.276	895.76
870.454	920.17
870.631	895.37
870.808	887.43
870.985	898.47
871.162	953.88
871.339	853.52
871.517	825.23
871.694	835.89
871.871	848.1
872.048	846.74
872.225	823.68
872.402	839.38
872.579	810.7
872.756	865.53
872.933	826.01
873.11	852.75
873.287	826.4
873.463	823.3
873.64	783.58
873.817	848.1
873.994	834.73
874.171	829.69
874.348	842.28
874.524	775.63
874.701	834.34
874.878	762.85
875.055	856.62
875.231	802.95
875.408	843.45
875.585	769.63
875.762	816.32
875.938	789.78
876.115	807.22
876.291	774.28
876.468	784.16
876.645	734.17
876.821	804.12
876.998	786.29
877.174	799.27
877.351	785.32
877.527	760.33
877.704	797.33
877.88	794.04
878.057	765.95
878.233	803.53
878.409	773.12
878.586	820.58
878.762	762.46
878.938	770.6
879.115	715.57
879.291	756.65
879.467	731.27
879.644	750.25
879.82	792.1
879.996	727.2
880.172	715.38
880.349	752.97
880.525	770.79
880.701	706.66
880.877	705.69
881.053	764.4
881.229	772.34
881.405	784.55
881.581	693.87
881.757	724.68
881.933	758.78
882.109	760.91
882.285	726.42
882.461	710.15
882.637	706.66
882.813	696.39
882.989	743.09
883.165	814.77
883.341	695.23
883.517	759.94
883.693	737.08
883.869	780.87
884.044	705.89
884.22	761.68
884.396	794.04
884.572	757.62
884.747	734.56
884.923	787.07
885.099	775.44
885.275	770.02
885.45	751.61
885.626	733.4
885.801	732.43
885.977	735.34
886.153	649.89
886.328	734.75
886.504	719.06
886.679	750.64
886.855	685.35
887.03	758.58
887.206	775.63
887.381	745.6
887.557	754.9
887.732	737.66
887.908	796.37
888.083	763.04
888.258	714.02
888.434	695.62
888.609	732.62
888.784	774.86
888.96	693.49
889.135	711.12
889.31	685.15
889.485	732.82
889.661	708.99
889.836	737.27
890.011	740.57
890.186	712.47
890.361	735.72
890.537	739.99
890.712	725.07
890.887	721.77
891.062	736.69
891.237	779.32
891.412	689.8
891.587	708.99
891.762	755.87
891.937	773.31
892.112	694.65
892.287	722.94
892.462	676.24
892.637	669.07
892.812	644.08
892.987	666.17
893.161	650.67
893.336	675.47
893.511	670.04
893.686	686.32
893.861	665.97
894.035	632.26
894.21	664.81
894.385	594.48
894.56	639.43
894.734	587.7
894.909	621.22
895.084	622.57
895.258	575.49
895.433	628.58
895.608	570.46
895.782	547.98
895.957	574.91
896.131	575.69
896.306	509.23
896.48	529.96
896.655	538.68
896.829	486.56
897.004	475.52
897.178	482.69
897.353	478.43
897.527	519.89
897.701	490.63
897.876	442.97
898.05	501.87
898.224	508.46
898.399	533.26
898.573	503.23
898.747	395.5
898.921	429.8
899.096	394.53
899.27	418.75
899.444	389.11
899.618	424.56
899.792	412.75
899.967	413.52
900.141	469.9
900.315	373.42
900.489	424.76
900.663	460.41
900.837	426.7
901.011	369.35
901.185	481.91
901.359	441.42
901.533	444.91
901.707	440.65
901.881	405.38
902.055	362.95
902.229	401.7
902.403	456.53
902.576	426.31
902.75	419.91
902.924	534.03
903.098	447.81
903.272	496.64
903.446	534.03
903.619	491.41
903.793	547.4
903.967	511.36
904.14	568.52
904.314	528.8
904.488	535.19
904.661	561.54
904.835	556.31
905.009	572.78
905.182	601.26
905.356	553.99
905.529	563.48
905.703	527.64
905.876	513.11
906.05	481.72
906.223	503.23
906.397	438.71
906.57	442.39
906.744	405.97
906.917	415.85
907.09	434.25
907.264	407.9
907.437	392.6
907.61	363.73
907.784	405.77
907.957	408.29
908.13	380.39
908.304	413.52
908.477	359.85
908.65	385.82
908.823	329.63
908.996	457.31
909.17	364.5
909.343	373.42
909.516	402.48
909.689	389.5
909.862	378.45
910.035	375.74
910.208	355.2
910.381	318.97
910.554	455.95
910.727	379.23
910.9	343.97
911.073	344.35
911.246	441.61
911.419	419.91
911.592	404.61
911.765	363.15
911.938	352.88
912.11	393.18
912.283	368.77
912.456	435.41
912.629	382.52
912.802	341.83
912.974	343.97
913.147	318.39
913.32	252.32
913.493	286.42
913.665	314.52
913.838	338.93
914.01	289.52
914.183	329.05
914.356	325.37
914.528	368.38
914.701	384.46
914.873	346.29
915.046	295.92
915.218	310.64
915.391	236.82
915.563	288.75
915.736	338.15
915.908	344.93
916.081	300.37
916.253	297.47
916.425	347.65
916.598	327.88
916.77	333.12
916.942	296.11
917.115	249.03
917.287	325.95
917.459	305.6
917.632	270.92
917.804	220.36
917.976	299.21
918.148	303.67
918.32	291.07
918.493	335.44
918.665	356.37
918.837	310.25
919.009	363.92
919.181	343
919.353	339.51
919.525	345.52
919.697	307.54
919.869	302.89
920.041	362.18
920.213	424.18
920.385	372.25
920.557	352.88
920.729	345.9
920.901	348.42
921.073	346.87
921.244	295.34
921.416	377.48
921.588	333.7
921.76	343.38
921.932	409.26
922.103	298.82
922.275	334.08
922.447	338.15
922.619	258.14
922.79	310.06
922.962	320.52
923.134	363.92
923.305	298.44
923.477	277.51
923.648	281
923.82	290.1
923.991	228.88
924.163	240.12
924.335	280.03
924.506	260.65
924.677	342.61
924.849	265.11
925.02	298.05
925.192	308.32
925.363	288.94
925.535	320.72
925.706	235.47
925.877	314.9
926.049	275.77
926.22	269.76
926.391	320.72
926.562	302.5
926.734	264.34
926.905	303.67
927.076	230.82
927.247	273.83
927.419	227.33
927.59	227.14
927.761	258.14
927.932	231.4
928.103	246.7
928.274	198.27
928.445	169.79
928.616	231.79
928.787	202.72
928.958	243.02
929.129	210.09
929.3	193.81
929.471	168.04
929.642	121.54
929.813	84.34
929.984	188.77
930.155	102.56
930.326	167.66
930.496	138.59
930.667	87.06
930.838	138.98
931.009	85.7
931.18	105.27
931.35	102.36
931.521	132.98
931.692	61.29
931.863	46.56
932.033	109.73
932.204	107.59
932.374	100.04
932.545	53.93
932.716	113.02
932.886	101.01
933.057	5.68
933.227	33.78
933.398	146.54
933.568	47.34
933.739	19.05
933.909	32.03
934.08	74.27
934.25	-28.61
934.421	33.97
934.591	54.9
934.761	7.04
934.932	-20.28
935.102	34.55
935.272	28.93
935.443	11.3
935.613	25.06
935.783	40.95
935.953	11.3
936.123	161.84
936.294	14.98
936.464	35.13
936.634	33.78
936.804	22.54
936.974	-16.6
937.144	42.69
937.314	37.65
937.484	3.75
937.655	-13.11
937.825	68.26
937.995	15.76
938.165	53.73
938.334	11.88
938.504	28.55
938.674	28.16
938.844	43.46
939.014	59.35
939.184	62.06
939.354	88.41
939.524	102.56
939.694	60.71
939.863	46.76
940.033	107.98
940.203	113.99
940.373	74.46
940.542	76.4
940.712	44.24
940.882	101.78
941.051	108.37
941.221	86.86
941.391	107.59
941.56	44.05
941.73	42.11
941.899	165.91
942.069	41.91
942.238	80.47
942.408	45.98
942.577	104.3
942.747	81.05
942.916	8.2
943.086	16.53
943.255	99.65
943.425	66.33
943.594	46.56
943.763	-5.94
943.933	18.28
944.102	-22.02
944.271	56.64
944.441	71.56
944.61	26.8
944.779	29.9
944.948	128.91
945.117	12.27
945.287	18.08
945.456	-1.1
945.625	15.18
945.794	78.34
945.963	19.25
946.132	80.28
946.301	33.97
946.47	70.98
946.639	-15.44
946.808	19.44
946.977	49.08
947.146	97.91
947.315	29.13
947.484	59.35
947.653	32.42
947.822	18.47
947.991	-4.2
948.16	146.92
948.329	94.03
948.498	70.78
948.666	42.88
948.835	60.13
949.004	14.01
949.173	-27.06
949.341	27.58
949.51	39.98
949.679	82.99
949.847	85.89
950.016	88.03
950.185	105.46
950.353	11.11
950.522	31.84
950.69	77.56
950.859	-3.81
951.028	52.18
951.196	68.26
951.365	33.58
951.533	21.76
951.701	59.54
951.87	67.88
952.038	25.45
952.207	58.58
952.375	93.45
952.543	50.44
952.712	43.46
952.88	27.96
953.048	117.67
953.217	54.12
953.385	33.58
953.553	89.58
953.721	6.85
953.89	35.52
954.058	0.26
954.226	20.02
954.394	53.35
954.562	3.16
954.73	33.78
954.898	45.6
955.067	87.25
955.235	46.18
955.403	85.31
955.571	124.06
955.739	67.49
955.907	19.83
956.075	14.98
956.243	27.19
956.41	68.84
956.578	-14.08
956.746	19.83
956.914	24.09
957.082	58.96
957.25	73.3
957.418	10.72
957.585	47.92
957.753	82.99
957.921	11.88
958.089	40.95
958.256	61.29
958.424	62.45
958.592	29.32
958.759	5.68
958.927	75.82
959.095	46.18
959.262	49.86
959.43	42.11
959.597	11.11
959.765	41.53
959.932	12.66
960.1	74.08
960.267	39.4
960.435	26.61
960.602	84.54
960.77	19.05
960.937	20.02
961.104	43.46
961.272	-30.55
961.439	34.75
961.606	75.04
961.774	84.34
961.941	48.31
962.108	61.68
962.275	31.65
962.443	80.28
962.61	67.1
962.777	121.35
962.944	58
963.111	62.26
963.278	90.74
963.446	52.76
963.613	64.97
963.78	77.56
963.947	57.8
964.114	70.01
964.281	133.56
964.448	57.03
964.615	41.33
964.782	75.43
964.949	82.79
965.116	76.59
965.282	107.4
965.449	41.53
965.616	14.21
965.783	82.21
965.95	35.52
966.117	50.44
966.283	73.49
966.45	37.26
966.617	55.86
966.784	101.98
966.95	95.58
967.117	112.05
967.284	11.5
967.45	46.76
967.617	104.88
967.784	98.29
967.95	92.68
968.117	76.21
968.283	119.61
968.45	159.13
968.616	81.05
968.783	107.21
968.949	39.98
969.116	120.96
969.282	50.63
969.449	62.26
969.615	48.89
969.781	14.4
969.948	38.04
970.114	19.05
970.28	109.14
970.447	65.16
970.613	134.91
970.779	58.38
970.945	90.35
971.112	81.24
971.278	76.4
971.444	66.13
971.61	116.7
971.776	67.29
971.942	63.42
972.108	82.6
972.275	67.49
972.441	65.36
972.607	142.28
972.773	29.32
972.939	71.94
973.105	62.06
973.271	32.03
973.437	45.79
973.602	52.38
973.768	85.89
973.934	66.71
974.1	66.91
974.266	10.33
974.432	88.22
974.598	61.87
974.763	99.65
974.929	35.71
975.095	120.96
975.261	26.03
975.426	14.79
975.592	32.42
975.758	125.42
975.923	27.19
976.089	59.16
976.255	78.92
976.42	107.01
976.586	84.73
976.751	66.52
976.917	152.16
977.082	65.55
977.248	1.03
977.413	1.03
977.579	46.76
977.744	57.41
977.91	27
978.075	57.41
978.24	94.42
978.406	60.9
978.571	27.19
978.736	14.4
978.902	73.49
979.067	9.95
979.232	19.44
979.397	58.58
979.563	88.99
979.728	44.82
979.893	51.8
980.058	-1.68
980.223	109.14
980.388	71.56
980.554	63.23
980.719	71.36
980.884	64.58
981.049	84.73
981.214	29.13
981.379	86.86
981.544	49.86
981.709	53.93
981.874	33.39
982.039	25.64
982.204	88.61
982.368	56.25
982.533	24.86
982.698	105.85
982.863	75.43
983.028	48.89
983.193	59.16
983.357	56.25
983.522	75.63
983.687	51.8
983.852	32.81
984.016	25.45
984.181	48.89
984.346	69.81
984.51	103.72
984.675	27.58
984.839	80.08
985.004	72.91
985.168	95.97
985.333	80.08
985.498	37.07
985.662	90.35
985.827	65.94
985.991	54.9
986.155	61.87
986.32	79.11
986.484	124.45
986.649	75.82
986.813	-1.49
986.977	60.13
987.142	80.86
987.306	26.61
987.47	31.84
987.634	20.6
987.799	66.71
987.963	64
988.127	80.47
988.291	119.61
988.455	55.09
988.62	41.53
988.784	83.76
988.948	81.24
989.112	31.06
989.276	78.73
989.44	72.91
989.604	31.26
989.768	41.91
989.932	123.48
990.096	27.19
990.26	33.2
990.424	-4
990.588	68.84
990.752	104.49
990.915	64.39
991.079	40.17
991.243	28.74
991.407	65.16
991.571	50.25
991.734	78.34
991.898	67.49
992.062	166.49
992.226	36.1
992.389	38.81
992.553	-27.84
992.717	20.02
992.88	44.43
993.044	73.69
993.207	48.89
993.371	69.62
993.535	73.69
993.698	72.53
993.862	86.09
994.025	100.62
994.189	80.66
994.352	51.02
994.515	53.54
994.679	99.07
994.842	43.85
995.006	64.58
995.169	52.18
995.332	46.76
995.496	80.08
995.659	-1.68
995.822	53.73
995.985	3.36
996.149	92.29
996.312	25.64
996.475	117.86
996.638	30.1
996.801	98.88
996.964	101.39
997.128	32.42
997.291	42.5
997.454	56.25
997.617	-21.64
997.78	84.73
997.943	29.13
998.106	77.95
998.269	33.39
998.432	15.56
998.595	71.36
998.758	-7.88
998.92	20.6
999.083	-8.27
999.246	14.98
999.409	4.13
999.572	-3.62
999.735	0.45
999.897	48.89
1000.06	13.24
1000.223	29.51
1000.386	55.28
1000.548	55.48
1000.711	62.26
1000.874	41.14
1001.036	15.95
1001.199	69.43
1001.361	19.63
1001.524	24.28
1001.687	54.51
1001.849	13.24
1002.012	51.8
1002.174	52.96
1002.337	72.91
1002.499	24.28
1002.661	57.41
1002.824	7.62
1002.986	16.34
1003.149	49.47
1003.311	14.4
1003.473	102.36
1003.636	19.83
1003.798	62.64
1003.96	51.6
1004.123	10.72
1004.285	36.49
1004.447	37.26
1004.609	18.47
1004.771	91.13
1004.933	-7.69
1005.096	19.44
1005.258	-38.68
1005.42	38.81
1005.582	59.16
1005.744	47.15
1005.906	-16.4
1006.068	20.41
1006.23	10.91
1006.392	-49.53
1006.554	10.53
1006.716	78.34
1006.878	45.4
1007.04	-4.39
1007.202	33
1007.363	24.86
1007.525	50.25
1007.687	50.83
1007.849	62.45
1008.011	-21.44
1008.172	-36.55
1008.334	27.77
1008.496	38.62
1008.658	-20.47
1008.819	15.37
1008.981	-8.27
1009.143	24.48
1009.304	34.55
1009.466	48.11
1009.627	76.59
1009.789	127.16
1009.95	28.74
1010.112	23.7
1010.273	48.7
1010.435	21.18
1010.596	23.31
1010.758	16.92
1010.919	12.66
1011.081	-3.23
1011.242	29.71
1011.403	43.66
1011.565	26.61
1011.726	42.69
1011.887	-13.89
1012.049	19.25
1012.21	56.64
1012.371	80.47
1012.532	-61.74
1012.693	27.38
1012.855	2.39
1013.016	5.49
1013.177	41.91
1013.338	25.06
1013.499	73.88
1013.66	33.39
1013.821	67.49
1013.982	33
1014.143	50.25
1014.304	20.02
1014.465	61.48
1014.626	60.51
1014.787	2.97
1014.948	131.23
1015.109	-75.69
1015.27	39.98
1015.431	2.78
1015.592	6.85
1015.752	77.76
1015.913	33
1016.074	42.11
1016.235	20.99
1016.395	12.08
1016.556	20.21
1016.717	-0.32
1016.877	58.96
1017.038	-4.97
1017.199	27.77
1017.359	33.78
1017.52	32.61
1017.681	3.94
1017.841	12.85
1018.002	-8.07
1018.162	-7.3
1018.323	77.76
1018.483	-12.92
1018.644	20.99
1018.804	-35.58
1018.964	-31.32
1019.125	-6.72
1019.285	27.58
1019.446	9.56
1019.606	-14.47
1019.766	-40.23
1019.926	30.87
1020.087	31.84
1020.247	-40.82
1020.407	27.38
1020.567	64.58
1020.728	30.68
1020.888	-3.62
1021.048	-10.59
1021.208	0.45
1021.368	-14.08
1021.528	57.22
1021.688	42.11
1021.848	58.19
1022.008	40.36
1022.168	8.4
1022.328	22.54
1022.488	31.06
1022.648	-37.91
1022.808	9.56
1022.968	24.48
1023.128	-10.98
1023.288	1.42
1023.448	20.02
1023.608	39.59
1023.767	55.86
1023.927	-4.78
1024.087	-21.25
1024.247	-22.02
1024.406	-13.3
1024.566	-31.52
1024.726	-23.38
1024.885	9.56
1025.045	56.83
1025.205	-5.36
1025.364	5.88
1025.524	20.99
1025.683	6.85
1025.843	19.25
1026.003	9.17
1026.162	42.3
1026.321	20.6
1026.481	25.06
1026.64	4.33
1026.8	20.41
1026.959	28.74
1027.119	7.81
1027.278	-26.67
1027.437	-15.24
1027.597	8.4
1027.756	31.26
1027.915	10.72
1028.074	34.94
1028.234	-7.69
1028.393	18.47
1028.552	-23.38
1028.711	-63.48
1028.87	50.83
1029.03	-18.92
1029.189	5.88
1029.348	-45.27
1029.507	6.65
1029.666	-10.01
1029.825	-20.86
1029.984	-33.45
1030.143	23.51
1030.302	-1.49
1030.461	-33.65
1030.62	27
1030.779	36.1
1030.938	5.88
1031.097	-10.79
1031.255	47.34
1031.414	73.11
1031.573	44.24
1031.732	-34.81
1031.891	6.46
1032.049	46.95
1032.208	33.2
1032.367	-32.87
1032.525	-0.71
1032.684	-1.29
1032.843	-1.29
1033.001	-50.5
1033.16	126.97
1033.319	44.43
1033.477	48.11
1033.636	-0.71
1033.794	-45.08
1033.953	27.19
1034.111	47.92
1034.27	-14.08
1034.428	17.7
1034.587	-23.19
1034.745	14.6
1034.903	10.14
1035.062	27.77
1035.22	-36.94
1035.378	37.85
1035.537	11.5
1035.695	24.86
1035.853	7.43
1036.011	30.87
1036.17	14.98
1036.328	-45.66
1036.486	15.95
1036.644	6.85
1036.802	-73.75
1036.96	-16.21
1037.119	-10.4
1037.277	-12.53
1037.435	-35.78
1037.593	-21.25
1037.751	11.88
1037.909	31.45
1038.067	31.45
