Data from pine_FLMT105791__86__17-21-26-077.txt Node

Date: Mon Mar 20 17:21:26 GMT 2023
User: antho
Spectrometer: FLMT10579
Trigger mode: 0
Integration Time (sec): 1.000000E-1
Scans to average: 10
Electric dark correction enabled: true
Nonlinearity correction enabled: false
Boxcar width: 0
XAxis mode: Wavelengths
Number of Pixels in Spectrum: 3648
>>>>>Begin Spectral Data<<<<<
345.248	-176.5
345.464	-176.5
345.681	-176.5
345.898	-179.41
346.114	-176.89
346.331	-10.66
346.548	-10.27
346.764	-23.83
346.981	1.36
347.197	-29.26
347.414	11.82
347.631	-31.77
347.847	72.07
348.064	32.16
348.28	37.78
348.497	-35.84
348.713	-13.56
348.93	13.56
349.146	34.87
349.363	-11.62
349.579	2.32
349.796	-16.47
350.012	-15.31
350.229	11.82
350.445	22.28
350.661	-29.84
350.878	-1.36
351.094	23.44
351.311	23.25
351.527	33.13
351.743	-26.54
351.96	18.02
352.176	37.01
352.392	12.79
352.609	27.9
352.825	-12.01
353.041	-0.39
353.257	-23.25
353.474	-1.36
353.69	-5.42
353.906	6.2
354.122	-15.69
354.339	33.91
354.555	-5.42
354.771	-8.52
354.987	41.07
355.203	47.08
355.42	5.04
355.636	-15.31
355.852	-23.83
356.068	15.31
356.284	-36.62
356.5	77.31
356.716	-11.24
356.932	7.17
357.148	26.74
357.364	-8.91
357.58	32.16
357.796	43.98
358.012	52.89
358.228	27.51
358.444	-62.19
358.66	38.17
358.876	11.43
359.092	-23.64
359.308	19.18
359.524	24.8
359.74	-15.5
359.956	0
360.172	-3.29
360.388	43.4
360.604	0.97
360.819	60.84
361.035	5.62
361.251	40.11
361.467	-0.39
361.683	34.29
361.898	18.21
362.114	21.51
362.33	23.64
362.546	32.16
362.762	0.39
362.977	7.56
363.193	2.13
363.409	34.29
363.624	1.55
363.84	-5.81
364.056	5.62
364.271	14.72
364.487	-2.13
364.703	-6.2
364.918	-1.94
365.134	-13.76
365.35	-29.06
365.565	82.92
365.781	15.5
365.996	31.19
366.212	65.68
366.427	12.21
366.643	-25.96
366.858	-11.62
367.074	-36.04
367.289	51.34
367.505	122.45
367.72	-26.35
367.936	-1.94
368.151	33.32
368.367	13.17
368.582	-4.65
368.798	4.46
369.013	68.01
369.228	12.01
369.444	24.8
369.659	40.11
369.874	32.36
370.09	66.46
370.305	-69.17
370.52	-24.8
370.736	39.52
370.951	-2.32
371.166	46.5
371.381	63.55
371.597	26.74
371.812	-21.31
372.027	-35.65
372.242	16.86
372.458	92.03
372.673	3.49
372.888	14.92
373.103	11.04
373.318	64.91
373.533	25.57
373.749	13.17
373.964	-30.42
374.179	34.49
374.394	-29.64
374.609	38.36
374.824	3.1
375.039	52.89
375.254	1.55
375.469	46.11
375.684	28.67
375.899	58.32
376.114	7.56
376.329	27.71
376.544	59.87
376.759	53.28
376.974	-14.34
377.189	-8.91
377.404	11.43
377.619	41.27
377.834	-21.89
378.049	-32.55
378.264	3.87
378.478	8.91
378.693	-9.11
378.908	31.97
379.123	-5.42
379.338	76.34
379.553	7.56
379.767	21.51
379.982	40.11
380.197	27.32
380.412	36.42
380.626	23.25
380.841	91.06
381.056	71.69
381.271	61.03
381.485	5.23
381.7	-19.37
381.915	37.2
382.129	10.27
382.344	27.9
382.559	1.55
382.773	60.06
382.988	-39.14
383.202	13.17
383.417	-25.96
383.632	100.75
383.846	10.66
384.061	28.29
384.275	8.72
384.49	21.7
384.704	37.97
384.919	31.19
385.133	7.36
385.348	14.72
385.562	-21.31
385.777	61.81
385.991	31
386.206	-15.89
386.42	4.46
386.634	71.3
386.849	12.98
387.063	14.53
387.277	4.07
387.492	3.87
387.706	-0.58
387.92	-10.66
388.135	19.18
388.349	45.14
388.563	6.2
388.778	42.04
388.992	35.26
389.206	33.71
389.42	84.67
389.635	15.69
389.849	50.18
390.063	40.11
390.277	28.29
390.491	60.84
390.706	27.32
390.92	45.53
391.134	8.33
391.348	45.92
391.562	-24.8
391.776	28.09
391.99	0.39
392.205	48.82
392.419	6.01
392.633	4.46
392.847	80.99
393.061	-11.43
393.275	94.94
393.489	29.26
393.703	28.67
393.917	53.67
394.131	-17.63
394.345	79.44
394.559	70.14
394.773	-0.58
394.986	30.61
395.2	8.52
395.414	62.97
395.628	-13.56
395.842	37.97
396.056	-2.52
396.27	-18.99
396.484	47.47
396.697	20.92
396.911	79.63
397.125	23.83
397.339	75.56
397.553	38.56
397.766	92.03
397.98	53.09
398.194	56.19
398.408	3.87
398.621	50.37
398.835	33.52
399.049	42.82
399.262	79.82
399.476	50.57
399.69	42.82
399.903	102.49
400.117	30.81
400.331	69.17
400.544	3.68
400.758	135.43
400.971	56.38
401.185	48.44
401.398	-7.36
401.612	77.5
401.826	67.62
402.039	57.54
402.253	11.43
402.466	43.98
402.68	30.03
402.893	62
403.106	51.54
403.32	23.83
403.533	59.29
403.747	38.75
403.96	61.42
404.174	44.76
404.387	18.79
404.6	40.3
404.814	57.93
405.027	65.29
405.24	43.59
405.454	6.01
405.667	67.62
405.88	-2.71
406.094	59.29
406.307	62.39
406.52	27.12
406.733	28.29
406.947	1.94
407.16	107.92
407.373	84.28
407.586	16.27
407.799	5.42
408.012	59.09
408.226	51.34
408.439	86.22
408.652	11.04
408.865	44.56
409.078	87.57
409.291	58.12
409.504	15.31
409.717	67.23
409.93	65.87
410.143	57.54
410.357	11.04
410.57	-5.04
410.783	24.41
410.996	50.37
411.209	20.73
411.421	86.22
411.634	52.51
411.847	50.76
412.06	38.75
412.273	39.33
412.486	34.87
412.699	146.28
412.912	41.85
413.125	50.76
413.338	53.28
413.55	67.04
413.763	59.67
413.976	39.91
414.189	4.26
414.402	36.81
414.615	81.96
414.827	27.71
415.04	54.44
415.253	55.61
415.466	67.04
415.678	147.64
415.891	50.76
416.104	57.74
416.316	31.77
416.529	34.49
416.742	63.94
416.954	78.08
417.167	61.42
417.38	43.79
417.592	95.32
417.805	31.97
418.017	12.59
418.23	86.99
418.442	31.19
418.655	37.2
418.868	62.97
419.08	84.28
419.293	100.75
419.505	35.26
419.718	74.4
419.93	85.83
420.142	49.6
420.355	131.75
420.567	106.95
420.78	92.8
420.992	58.71
421.205	114.89
421.417	52.12
421.629	35.65
421.842	49.6
422.054	30.81
422.266	81.37
422.479	82.34
422.691	50.37
422.903	87.96
423.115	47.08
423.328	63.94
423.54	82.34
423.752	95.9
423.964	52.12
424.177	83.7
424.389	56.57
424.601	168.56
424.813	66.46
425.025	96.68
425.238	116.25
425.45	47.27
425.662	51.54
425.874	366.18
426.086	84.28
426.298	101.52
426.51	94.55
426.722	78.47
426.934	60.64
427.146	114.31
427.358	67.04
427.57	125.74
427.782	66.07
427.994	73.82
428.206	52.7
428.418	49.79
428.63	115.47
428.842	92.22
429.054	99.2
429.266	89.12
429.478	73.24
429.69	93
429.902	52.89
430.114	123.61
430.325	98.42
430.537	67.23
430.749	84.47
430.961	8.33
431.173	78.86
431.384	94.74
431.596	16.27
431.808	89.7
432.02	86.41
432.231	112.95
432.443	146.47
432.655	89.9
432.867	75.56
433.078	123.8
433.29	179.41
433.502	126.9
433.713	152.29
433.925	120.7
434.136	174.18
434.348	50.57
434.56	66.26
434.771	211.77
434.983	85.06
435.194	98.23
435.406	97.07
435.617	161.97
435.829	186.19
436.04	172.82
436.252	156.94
436.463	162.94
436.675	151.12
436.886	151.9
437.098	154.61
437.309	233.85
437.521	124.39
437.732	146.86
437.943	154.8
438.155	143.76
438.366	82.54
438.578	193.75
438.789	119.15
439	180.18
439.211	144.15
439.423	185.42
439.634	175.73
439.845	164.3
440.057	128.45
440.268	172.82
440.479	177.67
440.69	153.45
440.902	166.82
441.113	162.94
441.324	160.62
441.535	171.08
441.746	209.63
441.957	117.41
442.168	153.64
442.38	181.15
442.591	202.08
442.802	152.87
443.013	154.03
443.224	191.42
443.435	160.04
443.646	183.48
443.857	153.64
444.068	162.17
444.279	156.16
444.49	236.18
444.701	164.49
444.912	266.98
445.123	220.1
445.334	225.52
445.545	188.32
445.756	179.6
445.967	125.94
446.178	178.83
446.388	240.63
446.599	220.1
446.81	228.04
447.021	190.65
447.232	229.01
447.443	244.32
447.653	173.02
447.864	237.92
448.075	202.27
448.286	240.05
448.496	221.65
448.707	262.33
448.918	223.2
449.129	299.34
449.339	198.2
449.55	254.39
449.761	224.36
449.971	272.8
450.182	239.28
450.393	235.98
450.603	205.18
450.814	271.25
451.024	245.67
451.235	256.72
451.446	292.36
451.656	282.68
451.867	235.02
452.077	250.13
452.288	315.03
452.498	302.83
452.709	220.1
452.919	250.9
453.13	230.37
453.34	267.56
453.55	199.95
453.761	275.9
453.971	280.16
454.182	268.15
454.392	280.16
454.602	322.78
454.813	295.85
455.023	302.83
455.233	215.45
455.444	281.32
455.654	212.54
455.864	256.33
456.075	241.41
456.285	248
456.495	256.72
456.705	279.96
456.916	319.3
457.126	320.65
457.336	258.85
457.546	213.12
457.756	257.88
457.967	318.91
458.177	254.2
458.387	306.9
458.597	262.72
458.807	276.86
459.017	254.78
459.227	267.56
459.437	250.71
459.647	297.98
459.857	317.16
460.068	286.75
460.278	297.01
460.488	305.73
460.698	345.84
460.908	289.07
461.117	246.64
461.327	265.82
461.537	316
461.747	308.25
461.957	273.96
462.167	393.11
462.377	332.66
462.587	282.29
462.797	331.89
463.007	316.2
463.216	329.18
463.426	337.9
463.636	338.28
463.846	250.32
464.056	297.6
464.265	301.86
464.475	275.31
464.685	300.5
464.895	327.82
465.104	291.01
465.314	325.88
465.524	316.97
465.733	291.01
465.943	394.86
466.153	391.76
466.362	365.6
466.572	341.58
466.782	341.58
466.991	333.44
467.201	364.63
467.41	301.28
467.62	368.89
467.829	336.93
468.039	334.8
468.249	323.75
468.458	335.18
468.668	364.44
468.877	371.41
469.086	392.53
469.296	367.73
469.505	310.58
469.715	423.14
469.924	349.91
470.134	410.16
470.343	393.89
470.552	353.59
470.762	338.86
470.971	339.83
471.18	358.43
471.39	362.69
471.599	332.28
471.808	389.04
472.018	353.98
472.227	401.44
472.436	421.59
472.645	377.03
472.855	356.11
473.064	450.66
473.273	416.56
473.482	393.11
473.691	431.86
473.901	451.43
474.11	400.86
474.319	484.56
474.528	436.9
474.737	445.04
474.946	437.87
475.155	440.19
475.364	474.1
475.573	417.72
475.783	439.03
475.992	422.76
476.201	464.99
476.41	462.09
476.619	417.72
476.828	420.82
477.037	431.48
477.245	424.69
477.454	456.27
477.663	427.99
477.872	440.39
478.081	522.34
478.29	438.64
478.499	544.62
478.708	479.14
478.917	543.85
479.125	461.51
479.334	480.69
479.543	453.37
479.752	487.08
479.961	500.06
480.169	529.51
480.378	507.42
480.587	607.59
480.796	536.1
481.004	537.07
481.213	538.81
481.422	523.7
481.63	508.97
481.839	559.74
482.048	568.84
482.256	529.12
482.465	534.35
482.674	552.95
482.882	583.57
483.091	619.8
483.299	549.85
483.508	542.1
483.716	553.34
483.925	598.1
484.134	555.67
484.342	541.52
484.551	603.14
484.759	568.84
484.967	593.64
485.176	619.99
485.384	609.72
485.593	642.08
485.801	575.43
486.01	584.92
486.218	554.12
486.426	491.15
486.635	553.73
486.843	498.12
487.051	550.24
487.26	508.97
487.468	585.5
487.676	580.47
487.885	544.62
488.093	576.01
488.301	606.82
488.509	595.97
488.717	640.72
488.926	623.09
489.134	604.69
489.342	628.32
489.55	603.33
489.758	609.92
489.967	575.82
490.175	711.63
490.383	643.82
490.591	723.65
490.799	634.13
491.007	693.62
491.215	661.45
491.423	664.17
491.631	681.22
491.839	653.32
492.047	725.78
492.255	611.27
492.463	616.7
492.671	636.27
492.879	708.92
493.087	665.72
493.295	706.98
493.503	689.55
493.711	734.3
493.919	710.47
494.127	739.53
494.334	731.2
494.542	635.49
494.75	698.27
494.958	693.62
495.166	757.55
495.374	779.45
495.581	745.15
495.789	731.59
495.997	778.86
496.205	707.37
496.412	722.48
496.62	749.61
496.828	760.26
497.035	737.4
497.243	770.53
497.451	754.65
497.658	752.13
497.866	722.68
498.074	798.82
498.281	729.07
498.489	785.65
498.696	745.73
498.904	737.98
499.112	721.51
499.319	811.03
499.527	753.87
499.734	786.42
499.942	716.09
500.149	753.48
500.357	758.13
500.564	724.23
500.771	788.16
500.979	708.73
501.186	744.76
501.394	766.46
501.601	762.2
501.808	777.51
502.016	749.8
502.223	730.23
502.43	770.73
502.638	745.35
502.845	759.49
503.052	883.49
503.26	747.28
503.467	851.13
503.674	796.3
503.881	804.44
504.089	901.51
504.296	851.71
504.503	778.28
504.71	786.42
504.917	759.3
505.125	818.58
505.332	847.06
505.539	834.66
505.746	903.83
505.953	863.14
506.16	836.41
506.367	881.55
506.574	898.79
506.781	898.21
506.988	823.43
507.195	884.26
507.402	858.3
507.609	898.79
507.816	849.19
508.023	842.8
508.23	852.29
508.437	799.01
508.644	901.51
508.851	918.56
509.058	904.8
509.265	875.93
509.472	878.06
509.679	988.69
509.885	875.35
510.092	862.18
510.299	887.56
510.506	886.59
510.713	903.25
510.92	878.84
511.126	931.73
511.333	964.86
511.54	956.14
511.746	989.66
511.953	993.73
512.16	981.14
512.367	931.15
512.573	943.74
512.78	912.74
512.987	962.15
513.193	939.67
513.4	891.82
513.606	930.57
513.813	978.62
514.02	964.86
514.226	999.35
514.433	1008.65
514.639	932.51
514.846	956.92
515.052	943.74
515.259	970.48
515.465	940.84
515.672	993.92
515.878	1035.97
516.085	976.1
516.291	1030.35
516.497	943.16
516.704	981.52
516.91	924.37
517.117	908.87
517.323	869.15
517.529	929.41
517.736	880.77
517.942	959.24
518.148	921.85
518.354	967.19
518.561	959.05
518.767	970.29
518.973	1017.17
519.179	1000.51
519.386	971.45
519.592	968.35
519.798	964.28
520.004	1095.06
520.21	1035
520.417	1056.12
520.623	1079.75
520.829	1113.47
521.035	1105.91
521.241	1111.14
521.447	1091.18
521.653	1202.01
521.859	1096.42
522.065	1106.1
522.271	1213.63
522.477	1159
522.683	1181.86
522.889	1147.56
523.095	1151.25
523.301	1156.48
523.507	1109.2
523.713	1141.75
523.919	1103.78
524.125	1211.89
524.331	1173.72
524.537	1267.3
524.742	1233.59
524.948	1236.3
525.154	1209.37
525.36	1291.52
525.566	1243.86
525.772	1282.41
525.977	1205.5
526.183	1262.65
526.389	1270.4
526.595	1197.75
526.8	1198.71
527.006	1133.81
527.212	1124.51
527.417	1115.98
527.623	1108.43
527.829	1210.15
528.034	1201.43
528.24	1231.46
528.446	1195.23
528.651	1278.15
528.857	1286.09
529.062	1322.71
529.268	1277.76
529.473	1299.27
529.679	1295.01
529.884	1350.03
530.09	1350.03
530.295	1336.47
530.501	1313.02
530.706	1304.69
530.912	1287.45
531.117	1294.04
531.323	1320.77
531.528	1349.26
531.733	1364.95
531.939	1317.87
532.144	1387.23
532.35	1373.09
532.555	1406.99
532.76	1388.01
532.966	1333.37
533.171	1344.8
533.376	1299.85
533.581	1298.3
533.787	1332.01
533.992	1338.21
534.197	1384.13
534.402	1337.63
534.607	1345.19
534.813	1447.87
535.018	1360.88
535.223	1351.77
535.428	1359.33
535.633	1432.76
535.838	1436.83
536.043	1441.09
536.249	1487.01
536.454	1417.84
536.659	1423.46
536.864	1382.77
537.069	1442.06
537.274	1421.14
537.479	1408.54
537.684	1436.05
537.889	1345.38
538.094	1484.49
538.299	1404.09
538.504	1420.75
538.708	1433.34
538.913	1465.89
539.118	1442.84
539.323	1446.52
539.528	1390.52
539.733	1421.14
539.938	1449.62
540.142	1460.85
540.347	1414.74
540.552	1382
540.757	1402.54
540.962	1374.64
541.166	1344.22
541.371	1363.4
541.576	1369.79
541.781	1314.96
541.985	1420.55
542.19	1401.95
542.395	1474.03
542.599	1484.3
542.804	1479.07
543.008	1507.74
543.213	1394.79
543.418	1386.84
543.622	1466.47
543.827	1427.72
544.031	1470.54
544.236	1488.17
544.44	1424.62
544.645	1514.33
544.849	1429.85
545.054	1499.99
545.258	1566.25
545.463	1505.03
545.667	1411.25
545.872	1490.5
546.076	1476.35
546.281	1477.52
546.485	1408.15
546.689	1493.21
546.894	1532.15
547.098	1476.74
547.302	1454.07
547.507	1475.77
547.711	1513.36
547.915	1554.82
548.119	1488.37
548.324	1470.74
548.528	1576.91
548.732	1517.23
548.936	1524.6
549.141	1559.47
549.345	1507.35
549.549	1492.24
549.753	1534.67
549.957	1595.9
550.161	1626.51
550.366	1521.3
550.57	1482.36
550.774	1485.85
550.978	1531.38
551.182	1567.03
551.386	1496.31
551.59	1493.6
551.794	1528.86
551.998	1532.93
552.202	1510.07
552.406	1488.17
552.61	1527.89
552.814	1540.87
553.018	1601.71
553.222	1505.8
553.426	1511.03
553.63	1588.15
553.833	1524.02
554.037	1477.13
554.241	1536.22
554.445	1544.94
554.649	1546.49
554.853	1513.55
555.056	1512.2
555.26	1564.12
555.464	1511.81
555.668	1536.8
555.871	1557.15
556.075	1539.9
556.279	1538.35
556.483	1479.84
556.686	1513.17
556.89	1521.88
557.094	1552.11
557.297	1489.92
557.501	1534.28
557.704	1466.09
557.908	1567.61
558.112	1460.27
558.315	1509.1
558.519	1481.78
558.722	1451.36
558.926	1485.07
559.129	1423.85
559.333	1451.55
559.536	1426.75
559.74	1413.58
559.943	1400.4
560.147	1434.5
560.35	1432.76
560.553	1424.43
560.757	1390.14
560.96	1533.32
561.164	1449.42
561.367	1550.75
561.57	1444.97
561.774	1480.81
561.977	1457.56
562.18	1457.95
562.384	1551.14
562.587	1475.77
562.79	1456.79
562.993	1449.23
563.197	1493.6
563.4	1519.56
563.603	1519.37
563.806	1536.8
564.009	1445.74
564.212	1482.17
564.416	1395.56
564.619	1459.11
564.822	1396.14
565.025	1478.1
565.228	1419.78
565.431	1475.58
565.634	1354.68
565.837	1382.19
566.04	1371.15
566.243	1393.24
566.446	1345.77
566.649	1440.7
566.852	1349.26
567.055	1390.52
567.258	1420.36
567.461	1449.04
567.664	1445.94
567.867	1375.41
568.07	1418.04
568.273	1424.04
568.475	1430.63
568.678	1376.19
568.881	1375.99
569.084	1369.02
569.287	1284.35
569.489	1345.96
569.692	1381.03
569.895	1387.42
570.098	1312.44
570.3	1318.84
570.503	1287.26
570.706	1263.62
570.909	1276.6
571.111	1231.84
571.314	1245.79
571.516	1261.29
571.719	1299.66
571.922	1277.18
572.124	1292.49
572.327	1305.28
572.529	1228.94
572.732	1234.94
572.935	1298.49
573.137	1338.99
573.34	1277.76
573.542	1290.55
573.745	1294.43
573.947	1286.87
574.15	1256.84
574.352	1219.64
574.554	1300.43
574.757	1245.02
574.959	1230.29
575.162	1227
575.364	1246.76
575.566	1291.71
575.769	1214.6
575.971	1241.14
576.173	1155.31
576.376	1219.25
576.578	1234.56
576.78	1291.13
576.982	1172.17
577.185	1210.92
577.387	1189.61
577.589	1201.43
577.791	1246.96
577.993	1231.46
578.196	1197.16
578.398	1241.14
578.6	1221.58
578.802	1141.36
579.004	1151.05
579.206	1149.7
579.408	1204.72
579.61	1124.12
579.812	1220.22
580.014	1136.13
580.216	1195.23
580.418	1179.92
580.62	1180.5
580.822	1154.15
581.024	1188.25
581.226	1203.95
581.428	1193.1
581.63	1282.03
581.832	1178.18
582.034	1239.59
582.236	1190.19
582.438	1224.29
582.64	1234.75
582.841	1241.34
583.043	1295.01
583.245	1213.05
583.447	1257.81
583.649	1216.35
583.85	1232.23
584.052	1263.62
584.254	1192.9
584.456	1258
584.657	1197.75
584.859	1186.7
585.061	1177.98
585.262	1144.08
585.464	1152.02
585.666	1201.62
585.867	1191.55
586.069	1220.41
586.27	1164.42
586.472	1155.7
586.674	1126.25
586.875	1156.09
587.077	1155.51
587.278	1180.11
587.48	1147.37
587.681	1260.33
587.883	1205.11
588.084	1092.15
588.285	1158.22
588.487	1117.73
588.688	1106.3
588.89	1084.21
589.091	1047.98
589.292	1064.25
589.494	1060.57
589.695	1020.66
589.896	931.54
590.098	982.49
590.299	1043.14
590.5	1032.29
590.702	1030.15
590.903	1050.5
591.104	1108.82
591.305	1079.17
591.507	1126.83
591.708	1086.73
591.909	1060.96
592.11	1143.88
592.311	1109.78
592.512	1073.75
592.714	1009.04
592.915	1048.56
593.116	1053.98
593.317	1063.09
593.518	1058.44
593.719	1065.61
593.92	1118.5
594.121	1111.33
594.322	1030.35
594.523	1084.21
594.724	1037.52
594.925	1043.33
595.126	1077.04
595.327	1063.87
595.528	1050.5
595.729	1059.8
595.929	1042.17
596.13	1084.79
596.331	1096.8
596.532	1041.39
596.733	1121.41
596.934	1128.97
597.135	1097.19
597.335	1062.7
597.536	1029.38
597.737	1102.81
597.938	1019.89
598.138	1073.17
598.339	1039.07
598.54	1064.45
598.74	1049.53
598.941	1057.47
599.142	1123.35
599.342	1067.16
599.543	1012.52
599.744	1053.79
599.944	1068.32
600.145	1028.02
600.345	1073.94
600.546	1102.03
600.746	1109.01
600.947	1144.85
601.147	1074.13
601.348	1084.02
601.548	1041
601.749	1058.63
601.949	1027.05
602.15	1018.72
602.35	1017.17
602.551	1102.23
602.751	1038.49
602.951	1049.53
603.152	964.67
603.352	1092.35
603.552	1057.28
603.753	1100.87
603.953	1077.04
604.153	1083.43
604.354	1033.25
604.554	1053.79
604.754	1044.49
604.954	1018.14
605.155	1087.12
605.355	1029.77
605.555	1078.98
605.755	1083.82
605.955	1043.33
606.155	1083.63
606.356	1081.3
606.556	1086.92
606.756	1097.19
606.956	1030.15
607.156	1128.97
607.356	1031.51
607.556	1069.68
607.756	1050.3
607.956	1078.98
608.156	1077.23
608.356	1048.17
608.556	1048.17
608.756	1026.47
608.956	1013.88
609.156	1066
609.356	996.83
609.556	991.02
609.755	1068.52
609.955	1020.47
610.155	1038.87
610.355	1062.7
610.555	1011.55
610.755	1000.51
610.954	978.81
611.154	1039.07
611.354	1070.07
611.554	1013.69
611.753	978.04
611.953	964.28
612.153	1044.49
612.352	1012.14
612.552	954.01
612.752	941.22
612.951	990.05
613.151	991.79
613.351	972.22
613.55	948.01
613.75	998.96
613.949	993.73
614.149	995.09
614.348	974.35
614.548	939.29
614.747	910.81
614.947	974.74
615.146	929.41
615.346	1025.31
615.545	986.75
615.745	956.34
615.944	990.63
616.144	990.82
616.343	1020.47
616.542	941.22
616.742	912.74
616.941	966.41
617.14	897.82
617.34	977.07
617.539	956.72
617.738	939.48
617.938	1021.44
618.137	939.67
618.336	954.01
618.535	985.79
618.734	962.54
618.934	969.12
619.133	996.64
619.332	984.82
619.531	929.6
619.73	970.29
619.929	965.44
620.128	973.39
620.328	1005.16
620.527	928.44
620.726	979.97
620.925	974.16
621.124	956.72
621.323	924.56
621.522	937.16
621.721	920.49
621.92	897.24
622.119	962.92
622.318	893.95
622.517	925.14
622.715	951.69
622.914	876.32
623.113	910.42
623.312	860.43
623.511	939.48
623.71	929.6
623.909	871.67
624.107	970.48
624.306	860.43
624.505	901.12
624.704	855.39
624.902	879.22
625.101	952.27
625.3	899.57
625.499	869.73
625.697	884.84
625.896	853.26
626.095	938.12
626.293	880.77
626.492	851.71
626.69	904.41
626.889	865.47
627.088	917.78
627.286	832.73
627.485	832.92
627.683	844.35
627.882	867.02
628.08	805.6
628.279	812.38
628.477	896.08
628.676	812.96
628.874	846.09
629.073	799.21
629.271	800.18
629.469	849.97
629.668	842.22
629.866	838.93
630.065	811.99
630.263	847.06
630.461	811.8
630.66	821.1
630.858	864.31
631.056	874.77
631.254	861.79
631.453	831.56
631.651	870.89
631.849	885.23
632.047	845.51
632.245	855.98
632.444	868.76
632.642	853.26
632.84	876.32
633.038	858.11
633.236	826.72
633.434	827.11
633.632	825.56
633.83	811.22
634.028	859.66
634.227	830.21
634.425	895.31
634.623	832.34
634.821	872.44
635.019	880.77
635.216	831.95
635.414	867.21
635.612	848.81
635.81	818.78
636.008	913.13
636.206	818.39
636.404	867.79
636.602	808.7
636.8	804.05
636.997	863.14
637.195	877.67
637.393	855.98
637.591	886.97
637.789	871.28
637.986	818.97
638.184	839.51
638.382	912.36
638.58	886.39
638.777	923.59
638.975	870.7
639.173	881.36
639.37	895.11
639.568	875.54
639.765	875.35
639.963	824.59
640.161	904.99
640.358	863.73
640.556	824.98
640.753	799.79
640.951	831.18
641.148	870.12
641.346	842.22
641.543	828.27
641.741	854.62
641.938	816.45
642.136	815.68
642.333	808.7
642.531	878.84
642.728	899.18
642.925	827.49
643.123	867.41
643.32	866.44
643.517	821.29
643.715	848.61
643.912	797.08
644.109	823.04
644.306	801.92
644.504	755.81
644.701	795.33
644.898	837.57
645.095	798.24
645.293	816.64
645.49	838.93
645.687	854.04
645.884	858.3
646.081	770.15
646.278	777.31
646.475	769.56
646.672	773.83
646.87	798.82
647.067	774.21
647.264	793.98
647.461	734.69
647.658	718.8
647.855	814.71
648.052	764.53
648.249	679.86
648.446	718.8
648.642	731.2
648.839	697.88
649.036	702.53
649.233	682.96
649.43	707.18
649.627	682.96
649.824	704.85
650.021	723.26
650.217	680.05
650.414	712.6
650.611	736.43
650.808	761.23
651.004	723.06
651.201	741.28
651.398	810.83
651.595	768.21
651.791	724.23
651.988	752.32
652.185	712.99
652.381	772.47
652.578	702.91
652.775	727.33
652.971	706.21
653.168	693.23
653.364	730.62
653.561	690.52
653.757	713.57
653.954	705.63
654.15	698.65
654.347	787
654.543	715.7
654.74	674.82
654.936	672.11
655.133	711.05
655.329	727.91
655.525	700.98
655.722	698.46
655.918	672.3
656.115	703.11
656.311	607.4
656.507	591.32
656.704	545.98
656.9	615.34
657.096	602.75
657.292	613.98
657.489	695.36
657.685	652.54
657.881	642.85
658.077	649.44
658.273	660.68
658.47	737.21
658.666	657.19
658.862	695.36
659.058	654.87
659.254	698.27
659.45	663.2
659.646	697.3
659.842	690.9
660.038	732.36
660.234	680.44
660.43	673.47
660.626	734.5
660.822	681.02
661.018	726.94
661.214	690.13
661.41	642.08
661.606	728.49
661.802	729.65
661.998	691.68
662.194	635.1
662.39	676.57
662.586	688
662.781	691.29
662.977	702.33
663.173	735.46
663.369	649.44
663.564	682.96
663.76	731.4
663.956	677.34
664.152	726.75
664.347	612.63
664.543	669.98
664.739	658.55
664.934	632
665.13	619.99
665.326	708.15
665.521	659.13
665.717	620.77
665.912	610.11
666.108	615.53
666.304	640.33
666.499	631.81
666.695	590.74
666.89	643.24
667.086	689.16
667.281	649.83
667.477	723.45
667.672	615.15
667.867	613.98
668.063	648.28
668.258	592.29
668.454	611.66
668.649	702.91
668.844	633.36
669.04	633.75
669.235	632.97
669.43	610.11
669.626	591.12
669.821	609.34
670.016	569.42
670.211	617.08
670.407	580.85
670.602	607.59
670.797	600.42
670.992	662.81
671.187	589.38
671.382	610.5
671.578	592.09
671.773	620.96
671.968	567.87
672.163	614.95
672.358	634.13
672.553	565.94
672.748	598.49
672.943	661.65
673.138	574.85
673.333	629.87
673.528	590.15
673.723	614.37
673.918	599.65
674.113	582.21
674.308	661.65
674.503	608.17
674.698	639.37
674.892	590.15
675.087	638.01
675.282	614.18
675.477	569.81
675.672	649.63
675.867	588.6
676.061	559.54
676.256	551.6
676.451	569.42
676.646	611.27
676.84	542.69
677.035	569.62
677.23	587.64
677.424	638.01
677.619	629.87
677.814	666.88
678.008	658.16
678.203	535.32
678.397	579.3
678.592	616.31
678.787	633.75
678.981	578.53
679.176	593.25
679.37	617.86
679.565	566.71
679.759	611.85
679.954	587.25
680.148	650.02
680.342	647.12
680.537	610.89
680.731	597.52
680.926	632.39
681.12	605.46
681.314	559.93
681.509	576.4
681.703	637.62
681.897	632
682.092	640.92
682.286	588.02
682.48	638.78
682.674	616.7
682.869	586.47
683.063	593.84
683.257	663.2
683.451	592.48
683.645	617.47
683.839	624.25
684.034	602.75
684.228	630.26
684.422	566.71
684.616	545.01
684.81	616.7
685.004	597.52
685.198	600.04
685.392	616.7
685.586	572.52
685.78	612.63
685.974	642.66
686.168	612.82
686.362	655.25
686.556	576.01
686.75	515.37
686.944	515.37
687.138	513.24
687.331	414.43
687.525	441.55
687.719	407.64
687.913	473.71
688.107	458.02
688.301	458.79
688.494	488.82
688.688	449.88
688.882	440.39
689.076	426.05
689.269	460.34
689.463	562.84
689.657	501.22
689.85	480.49
690.044	498.71
690.238	511.3
690.431	502.39
690.625	487.27
690.818	538.42
691.012	544.04
691.205	553.54
691.399	488.44
691.593	571.55
691.786	619.6
691.98	604.88
692.173	640.72
692.366	609.14
692.56	630.26
692.753	685.67
692.947	601.97
693.14	645.18
693.333	637.23
693.527	620.57
693.72	674.43
693.914	620.18
694.107	624.45
694.3	651.77
694.493	617.47
694.687	675.4
694.88	601.39
695.073	699.62
695.266	697.1
695.46	683.35
695.653	710.08
695.846	713.57
696.039	594.8
696.232	653.32
696.425	735.85
696.618	719.77
696.812	703.69
697.005	758.13
697.198	843.96
697.391	781.96
697.584	811.61
697.777	826.33
697.97	818.78
698.163	830.59
698.356	825.17
698.549	899.76
698.742	836.79
698.935	830.01
699.127	847.26
699.32	810.06
699.513	790.29
699.706	853.65
699.899	882.91
700.092	845.13
700.285	890.07
700.477	823.81
700.67	876.12
700.863	885.42
701.056	965.83
701.248	933.86
701.441	948.59
701.634	874.38
701.826	991.4
702.019	892.4
702.212	961.57
702.404	874.38
702.597	899.57
702.79	919.33
702.982	964.28
703.175	975.32
703.367	1006.32
703.56	1016.59
703.752	1079.17
703.945	1043.52
704.137	1049.14
704.33	1075.3
704.522	1094.09
704.715	1055.53
704.907	1094.09
705.1	1145.24
705.292	1110.17
705.484	1104.55
705.677	1115.02
705.869	1146.01
706.061	1187.67
706.254	1201.43
706.446	1138.26
706.638	1164.61
706.831	1238.04
707.023	1190.19
707.215	1275.05
707.407	1268.27
707.599	1248.89
707.792	1276.21
707.984	1239.79
708.176	1267.69
708.368	1246.38
708.56	1275.44
708.752	1307.79
708.944	1273.31
709.136	1324.07
709.329	1285.13
709.521	1415.32
709.713	1354.87
709.905	1410.67
710.097	1408.54
710.289	1352.36
710.481	1401.76
710.672	1433.15
710.864	1427.53
711.056	1482.94
711.248	1478.49
711.44	1488.95
711.632	1457.17
711.824	1501.54
712.016	1512.2
712.207	1529.05
712.399	1497.67
712.591	1599
712.783	1559.47
712.975	1567.03
713.166	1527.89
713.358	1536.03
713.55	1655.38
713.741	1606.16
713.933	1606.16
714.125	1601.32
714.316	1582.14
714.508	1628.25
714.7	1659.45
714.891	1664.68
715.083	1683.08
715.274	1660.03
715.466	1683.08
715.657	1710.4
715.849	1642.98
716.04	1656.15
716.232	1583.11
716.423	1688.7
716.615	1594.35
716.806	1573.81
716.998	1563.93
717.189	1450.2
717.381	1433.73
717.572	1435.28
717.763	1434.31
717.955	1455.24
718.146	1389.75
718.337	1360.11
718.528	1325.04
718.72	1254.51
718.911	1324.26
719.102	1296.36
719.293	1361.66
719.485	1348.09
719.676	1312.44
719.867	1276.41
720.058	1290.94
720.249	1302.37
720.44	1346.54
720.632	1364.56
720.823	1422.1
721.014	1495.53
721.205	1518.4
721.396	1568.38
721.587	1682.5
721.778	1701.29
721.969	1702.07
722.16	1765.42
722.351	1742.18
722.542	1876.25
722.733	1868.69
722.924	1767.17
723.115	1839.44
723.305	1809.41
723.496	1828.97
723.687	1703.04
723.878	1735.59
724.069	1749.34
724.26	1733.65
724.45	1699.74
724.641	1716.02
724.832	1724.54
725.023	1705.94
725.213	1685.6
725.404	1677.27
725.595	1689.09
725.785	1690.64
725.976	1751.28
726.167	1727.64
726.357	1726.48
726.548	1824.32
726.739	1747.6
726.929	1832.85
727.12	1847.57
727.31	1866.75
727.501	1796.62
727.691	1861.91
727.882	1821.81
728.072	1835.95
728.263	1859.59
728.453	1898.53
728.644	1881.67
728.834	1845.83
729.024	1820.06
729.215	1832.27
729.405	1888.65
729.596	1975.64
729.786	1970.02
729.976	1955.49
730.167	2010.13
730.357	1913.06
730.547	1972.73
730.737	1980.48
730.928	1980.48
731.118	2050.23
731.308	1990.75
731.498	1993.66
731.688	2110.68
731.879	2059.73
732.069	2129.48
732.259	2144.39
732.449	2183.73
732.639	2243.79
732.829	2246.11
733.019	2304.43
733.209	2309.08
733.399	2369.92
733.589	2395.49
733.779	2380.38
733.969	2366.82
734.159	2475.7
734.349	2493.72
734.539	2537.12
734.729	2510.96
734.919	2560.95
735.109	2577.03
735.299	2526.66
735.488	2544.29
735.678	2540.61
735.868	2568.12
736.058	2576.26
736.248	2527.24
736.437	2477.06
736.627	2491.01
736.817	2596.41
737.007	2559.79
737.196	2614.43
737.386	2577.23
737.576	2562.5
737.765	2594.86
737.955	2575.48
738.144	2691.34
738.334	2647.56
738.524	2610.55
738.713	2622.95
738.903	2648.33
739.092	2645.81
739.282	2672.74
739.471	2650.07
739.661	2661.51
739.85	2728.93
740.04	2736.68
740.229	2738.42
740.419	2759.74
740.608	2760.32
740.797	2755.28
740.987	2798.1
741.176	2801.2
741.365	2753.54
741.555	2747.34
741.744	2836.65
741.933	2746.56
742.123	2756.25
742.312	2811.66
742.501	2796.35
742.69	2815.92
742.88	2764.39
743.069	2895.55
743.258	2781.24
743.447	2878.7
743.636	2865.13
743.825	2813.6
744.014	2847.12
744.204	2888
744.393	2835.3
744.582	2932.56
744.771	2957.55
744.96	2872.11
745.149	2905.24
745.338	2866.68
745.527	2889.16
745.716	2866.88
745.905	2869.01
746.094	2913.76
746.283	2941.66
746.471	2881.8
746.66	2989.13
746.849	2947.09
747.038	2967.63
747.227	2909.5
747.416	2964.72
747.604	2849.83
747.793	2927.13
747.982	2955.03
748.171	2895.75
748.359	2954.84
748.548	2928.1
748.737	2980.22
748.926	2964.33
749.114	2854.87
749.303	2974.02
749.491	2923.65
749.68	2872.69
749.869	2954.45
750.057	2936.63
750.246	2872.88
750.434	2924.61
750.623	2898.65
750.811	2884.12
751	2923.06
751.188	2890.32
751.377	2920.93
751.565	2898.07
751.754	2885.09
751.942	2874.05
752.131	2902.53
752.319	2857
752.507	2853.51
752.696	2867.07
752.884	2932.75
753.072	2857.38
753.261	2892.84
753.449	2855.64
753.637	2870.37
753.825	2925.39
754.014	2883.73
754.202	2865.13
754.39	2909.7
754.578	2900.98
754.766	2787.44
754.955	2852.93
755.143	2930.04
755.331	2834.91
755.519	2815.73
755.707	2846.15
755.895	2863.97
756.083	2879.67
756.271	2837.62
756.459	2834.52
756.647	2850.22
756.835	2815.53
757.023	2818.63
757.211	2771.94
757.399	2799.26
757.587	2836.65
757.775	2707.04
757.963	2774.65
758.151	2750.44
758.339	2762.84
758.526	2748.5
758.714	2766.32
758.902	2666.35
759.09	2609.39
759.278	2434.05
759.465	2244.76
759.653	1911.7
759.841	1770.46
760.028	1469.96
760.216	1215.38
760.404	1193.68
760.591	993.73
760.779	819.36
760.967	730.62
761.154	593.84
761.342	648.08
761.529	635.3
761.717	720.74
761.905	704.85
762.092	762.2
762.28	741.66
762.467	723.65
762.655	647.12
762.842	715.9
763.029	678.7
763.217	694.2
763.404	694
763.592	716.28
763.779	685.87
763.966	711.44
764.154	728.49
764.341	792.62
764.528	830.4
764.716	902.67
764.903	920.11
765.09	978.62
765.277	997.99
765.465	1164.61
765.652	1190.58
765.839	1222.16
766.026	1373.28
766.213	1367.86
766.4	1499.02
766.588	1671.65
766.775	1634.26
766.962	1737.53
767.149	1779.96
767.336	1941.73
767.523	1904.54
767.71	2027.18
767.897	2122.69
768.084	2197.29
768.271	2204.84
768.458	2245.53
768.645	2280.99
768.832	2214.92
769.019	2255.8
769.206	2285.44
769.392	2400.72
769.579	2433.66
769.766	2382.9
769.953	2416.03
770.14	2437.34
770.327	2433.47
770.513	2464.46
770.7	2565.02
770.887	2461.75
771.073	2539.64
771.26	2470.28
771.447	2443.54
771.634	2415.83
771.82	2546.81
772.007	2441.8
772.193	2502.05
772.38	2567.54
772.567	2459.23
772.753	2483.65
772.94	2553.01
773.126	2557.08
773.313	2574.51
773.499	2522.98
773.686	2523.95
773.872	2512.9
774.059	2507.09
774.245	2451.68
774.432	2514.06
774.618	2449.93
774.804	2502.05
774.991	2397.62
775.177	2492.17
775.363	2476.48
775.55	2467.76
775.736	2422.62
775.922	2435.02
776.109	2463.69
776.295	2460.59
776.481	2454.39
776.667	2468.15
776.853	2497.79
777.04	2405.95
777.226	2467.95
777.412	2483.84
777.598	2398.98
777.784	2393.55
777.97	2408.08
778.156	2456.13
778.342	2393.17
778.528	2361.97
778.715	2338.92
778.901	2387.55
779.087	2408.28
779.272	2326.71
779.458	2317.8
779.644	2406.92
779.83	2323.42
780.016	2454.2
780.202	2372.63
780.388	2353.84
780.574	2271.3
780.76	2324.19
780.946	2348.8
781.131	2322.45
781.317	2293.19
781.503	2273.24
781.689	2270.14
781.874	2407.7
782.06	2300.17
782.246	2301.33
782.432	2308.5
782.617	2322.84
782.803	2359.84
782.989	2254.44
783.174	2253.28
783.36	2252.12
783.545	2250.37
783.731	2262.58
783.916	2193.99
784.102	2290.29
784.288	2238.56
784.473	2245.53
784.659	2237.59
784.844	2239.14
785.029	2224.02
785.215	2206.59
785.4	2137.61
785.586	2246.89
785.771	2181.79
785.956	2219.96
786.142	2204.46
786.327	2153.69
786.512	2197.67
786.698	2191.28
786.883	2096.93
787.068	2124.24
787.254	2155.63
787.439	2129.09
787.624	2150.98
787.809	2117.85
787.994	2115.53
788.18	2152.73
788.365	2083.36
788.55	2126.76
788.735	2082.2
788.92	2114.94
789.105	2082.78
789.29	2099.25
789.475	2038.8
789.66	2086.46
789.845	2009.35
790.03	2014.58
790.215	2087.43
790.4	2099.06
790.585	2099.44
790.77	2086.08
790.955	1985.52
791.14	2029.31
791.325	2102.35
791.51	1946.97
791.695	1998.12
791.879	2017.3
792.064	1988.43
792.249	2065.35
792.434	2007.42
792.618	2013.23
792.803	2066.31
792.988	1974.28
793.173	1995.98
793.357	2003.15
793.542	1987.07
793.727	2024.27
793.911	2035.7
794.096	2030.08
794.281	2038.61
794.465	2151.76
794.65	2046.16
794.834	2073.48
795.019	2064.76
795.203	2058.18
795.388	2081.81
795.572	2065.73
795.757	2060.7
795.941	2038.61
796.126	2086.08
796.31	1988.23
796.494	2030.47
796.679	2016.71
796.863	1984.75
797.048	2091.31
797.232	2056.05
797.416	2091.89
797.601	2053.91
797.785	2113.59
797.969	2110.49
798.153	2011.68
798.338	2065.93
798.522	2082.4
798.706	2085.11
798.89	2086.46
799.074	2197.87
799.258	2126.76
799.443	2071.55
799.627	2095.18
799.811	2155.63
799.995	2071.93
800.179	2065.73
800.363	2034.93
800.547	2107
800.731	2125.6
800.915	2032.6
801.099	2046.94
801.283	2032.8
801.467	2053.33
801.651	2056.82
801.835	2086.66
802.019	2124.83
802.202	2082.59
802.386	2043.06
802.57	2043.65
802.754	2032.02
802.938	2004.7
803.121	2021.75
803.305	2079.3
803.489	1997.92
803.673	2068.25
803.856	2071.55
804.04	2021.75
804.224	2051.2
804.407	2039
804.591	2037.83
804.775	2056.82
804.958	2063.6
805.142	2150.01
805.326	2093.63
805.509	2069.22
805.693	2066.51
805.876	2108.55
806.06	2084.33
806.243	2087.05
806.427	2130.06
806.61	2116.11
806.794	2044.81
806.977	2113.59
807.16	2059.92
807.344	2104.29
807.527	2065.35
807.71	2052.36
807.894	2106.23
808.077	2083.17
808.26	2046.55
808.444	2010.9
808.627	2121.92
808.81	2034.35
808.993	1988.23
809.177	1970.02
809.36	2019.81
809.543	2007.22
809.726	1930.5
809.909	1957.23
810.092	1936.12
810.276	1914.03
810.459	1947.93
810.642	1930.69
810.825	1901.63
811.008	1904.54
811.191	1819.48
811.374	1859.59
811.557	1829.36
811.74	1933.6
811.923	1769.49
812.106	1794.68
812.289	1784.22
812.472	1787.32
812.654	1824.52
812.837	1782.09
813.02	1735.59
813.203	1712.14
813.386	1604.61
813.569	1621.86
813.751	1576.91
813.934	1616.24
814.117	1590.66
814.3	1532.93
814.482	1500.96
814.665	1495.15
814.848	1486.23
815.03	1397.11
815.213	1383.55
815.396	1406.99
815.578	1429.66
815.761	1365.53
815.943	1436.05
816.126	1355.84
816.309	1302.37
816.491	1252.58
816.674	1201.04
816.856	1269.82
817.039	1267.88
817.221	1349.45
817.403	1278.54
817.586	1275.63
817.768	1332.79
817.951	1235.53
818.133	1196.97
818.315	1261.29
818.498	1308.18
818.68	1351.58
818.862	1311.67
819.045	1307.99
819.227	1278.93
819.409	1280.28
819.591	1307.21
819.774	1288.81
819.956	1261.88
820.138	1354.29
820.32	1309.93
820.502	1379.87
820.684	1454.65
820.866	1465.31
821.048	1487.98
821.231	1498.25
821.413	1470.54
821.595	1434.31
821.777	1447.49
821.959	1413
822.141	1522.27
822.323	1345.77
822.505	1299.66
822.686	1273.89
822.868	1242.11
823.05	1162.87
823.232	1137.68
823.414	1081.3
823.596	1146.01
823.778	1149.31
823.96	1148.53
824.141	1167.52
824.323	1183.41
824.505	1243.47
824.687	1275.83
824.868	1307.6
825.05	1402.54
825.232	1424.82
825.413	1465.12
825.595	1444.19
825.777	1341.31
825.958	1431.4
826.14	1412.61
826.321	1419
826.503	1404.28
826.685	1444.77
826.866	1465.12
827.048	1428.5
827.229	1383.74
827.411	1343.64
827.592	1311.28
827.773	1314.19
827.955	1272.92
828.136	1318.26
828.318	1249.48
828.499	1300.24
828.68	1235.72
828.862	1301.59
829.043	1313.61
829.224	1266.72
829.406	1281.44
829.587	1268.27
829.768	1222.16
829.949	1304.89
830.131	1251.99
830.312	1336.47
830.493	1289
830.674	1308.76
830.855	1287.84
831.036	1224.09
831.218	1324.46
831.399	1325.23
831.58	1300.43
831.761	1297.72
831.942	1301.59
832.123	1290.94
832.304	1226.23
832.485	1269.04
832.666	1279.7
832.847	1321.74
833.028	1255.09
833.209	1272.34
833.389	1263.43
833.57	1202.2
833.751	1240.18
833.932	1267.88
834.113	1283.19
834.294	1226.23
834.475	1302.56
834.655	1319.03
834.836	1338.02
835.017	1295.78
835.198	1255.09
835.378	1303.53
835.559	1317.29
835.74	1276.21
835.92	1287.45
836.101	1262.84
836.281	1343.83
836.462	1325.81
836.643	1378.12
836.823	1345.38
837.004	1354.87
837.184	1385.49
837.365	1371.73
837.545	1348.48
837.726	1321.16
837.906	1364.37
838.087	1345.19
838.267	1313.02
838.448	1290.74
838.628	1332.98
838.808	1315.54
838.989	1375.61
839.169	1279.7
839.349	1319.22
839.53	1343.44
839.71	1350.42
839.89	1293.84
840.07	1405.83
840.251	1312.06
840.431	1383.94
840.611	1305.08
840.791	1309.93
840.971	1314.57
841.151	1302.18
841.332	1265.36
841.512	1389.56
841.692	1252.19
841.872	1314.19
842.052	1348.09
842.232	1336.27
842.412	1262.65
842.592	1295.01
842.772	1348.48
842.952	1313.41
843.132	1331.82
843.312	1283.77
843.492	1232.81
843.672	1332.98
843.851	1235.72
844.031	1282.03
844.211	1322.71
844.391	1253.54
844.571	1286.68
844.751	1291.52
844.93	1323.49
845.11	1256.64
845.29	1288.61
845.47	1291.52
845.649	1303.34
845.829	1322.71
846.009	1257.61
846.188	1304.89
846.368	1313.41
846.547	1270.4
846.727	1286.09
846.907	1209.18
847.086	1294.81
847.266	1306.83
847.445	1266.91
847.625	1259.94
847.804	1230.1
847.984	1247.54
848.163	1263.23
848.343	1240.56
848.522	1272.34
848.701	1268.66
848.881	1215.18
849.06	1251.61
849.239	1245.02
849.419	1263.23
849.598	1211.31
849.777	1192.51
849.957	1185.35
850.136	1142.14
850.315	1095.64
850.494	1143.69
850.674	1156.67
850.853	1188.25
851.032	1191.35
851.211	1248.12
851.39	1177.01
851.569	1164.23
851.748	1135.55
851.927	1172.75
852.107	1136.13
852.286	1105.33
852.465	1113.85
852.644	1185.54
852.823	1165.58
853.002	1126.06
853.181	1174.3
853.359	1152.99
853.538	1100.68
853.717	1191.16
853.896	1113.08
854.075	1010.97
854.254	1009.23
854.433	961.76
854.611	1014.85
854.79	970.09
854.969	1019.69
855.148	1031.32
855.327	1005.74
855.505	1054.18
855.684	1039.65
855.863	1064.25
856.041	1025.31
856.22	1078.2
856.399	1032.87
856.577	1110.95
856.756	1096.22
856.934	1231.07
857.113	1209.18
857.291	1143.5
857.47	1060.57
857.648	1140.78
857.827	1137.1
858.005	1142.72
858.184	1105.52
858.362	1168.3
858.541	1106.49
858.719	1127.8
858.898	1084.6
859.076	1075.3
859.254	1158.8
859.433	1100.68
859.611	1076.46
859.789	1011.17
859.967	1145.43
860.146	1146.21
860.324	1054.18
860.502	1072.78
860.68	1015.24
860.859	1084.6
861.037	1022.21
861.215	1077.43
861.393	1057.67
861.571	1091.18
861.749	1031.12
861.927	1100.29
862.105	1075.88
862.283	1042.36
862.461	1023.76
862.639	999.35
862.817	1039.84
862.995	1068.71
863.173	1016.98
863.351	1056.7
863.529	1075.1
863.707	1071.62
863.885	1055.92
864.063	986.75
864.241	1023.57
864.418	1099.32
864.596	1020.85
864.774	998.96
864.952	1034.61
865.129	1041.2
865.307	1011.36
865.485	951.11
865.663	1022.99
865.84	953.43
866.018	975.71
866.196	871.67
866.373	888.14
866.551	865.28
866.728	841.25
866.906	880.58
867.084	868.38
867.261	936.57
867.439	941.22
867.616	941.42
867.794	930.18
867.971	959.63
868.149	941.81
868.326	959.24
868.503	970.87
868.681	912.55
868.858	950.33
869.035	903.64
869.213	989.85
869.39	947.04
869.567	1018.14
869.745	943.55
869.922	963.31
870.099	982.69
870.276	964.47
870.454	962.34
870.631	940.84
870.808	931.15
870.985	963.89
871.162	1012.33
871.339	991.21
871.517	922.24
871.694	908.29
871.871	931.92
872.048	927.08
872.225	911.58
872.402	957.69
872.579	896.27
872.756	937.16
872.933	869.93
873.11	932.7
873.287	924.56
873.463	933.09
873.64	901.31
873.817	951.11
873.994	918.36
874.171	847.64
874.348	909.45
874.524	847.26
874.701	898.79
874.878	824.01
875.055	913.32
875.231	899.57
875.408	897.82
875.585	831.95
875.762	861.98
875.938	877.67
876.115	887.75
876.291	872.25
876.468	891.24
876.645	835.24
876.821	842.41
876.998	851.91
877.174	874.96
877.351	842.61
877.527	822.46
877.704	867.6
877.88	826.72
878.057	840.48
878.233	892.4
878.409	861.79
878.586	862.76
878.762	819.94
878.938	829.63
879.115	756.97
879.291	846.29
879.467	773.25
879.644	795.72
879.82	867.79
879.996	810.06
880.172	769.95
880.349	827.88
880.525	822.65
880.701	767.43
880.877	804.83
881.053	793.98
881.229	787.78
881.405	813.93
881.581	781
881.757	804.63
881.933	796.3
882.109	844.16
882.285	789.71
882.461	784.68
882.637	808.89
882.813	754.65
882.989	772.08
883.165	841.06
883.341	800.56
883.517	818.19
883.693	818
883.869	844.93
884.044	779.25
884.22	835.63
884.396	828.08
884.572	799.4
884.747	835.05
884.923	864.31
885.099	796.69
885.275	854.43
885.45	779.25
885.626	795.14
885.801	750.58
885.977	787.97
886.153	702.14
886.328	812.38
886.504	787.58
886.679	820.33
886.855	766.85
887.03	801.92
887.206	841.64
887.381	798.82
887.557	807.15
887.732	791.65
887.908	812.58
888.083	823.81
888.258	763.75
888.434	761.62
888.609	764.53
888.784	837.76
888.96	777.51
889.135	790.68
889.31	759.49
889.485	799.21
889.661	781
889.836	836.6
890.011	846.87
890.186	793.59
890.361	750.77
890.537	781.38
890.712	776.15
890.887	791.07
891.062	768.6
891.237	829.63
891.412	785.06
891.587	784.1
891.762	823.81
891.937	833.31
892.112	746.51
892.287	760.65
892.462	750.38
892.637	718.61
892.812	727.52
892.987	730.43
893.161	707.76
893.336	733.33
893.511	703.11
893.686	727.13
893.861	722.1
894.035	736.63
894.21	718.41
894.385	686.83
894.56	708.53
894.734	660.87
894.909	648.47
895.084	650.02
895.258	667.27
895.433	653.9
895.608	624.83
895.782	619.99
895.957	605.46
896.131	622.51
896.306	562.84
896.48	572.91
896.655	583.18
896.829	518.86
897.004	538.04
897.178	536.87
897.353	545.59
897.527	563.61
897.701	541.52
897.876	482.82
898.05	589.38
898.224	543.07
898.399	563.03
898.573	567.68
898.747	454.72
898.921	511.3
899.096	411.13
899.27	405.51
899.444	416.75
899.618	466.35
899.792	465.57
899.967	472.94
900.141	516.53
900.315	422.56
900.489	466.54
900.663	467.71
900.837	469.84
901.011	442.13
901.185	489.6
901.359	479.52
901.533	477.97
901.707	481.85
901.881	463.44
902.055	400.09
902.229	459.76
902.403	498.51
902.576	469.06
902.75	465.38
902.924	597.71
903.098	500.06
903.272	527.96
903.446	585.5
903.619	557.02
903.793	591.9
903.967	545.59
904.14	638.4
904.314	633.55
904.488	582.21
904.661	619.8
904.835	586.47
905.009	623.48
905.182	659.71
905.356	594.8
905.529	592.29
905.703	559.15
905.876	555.47
906.05	532.22
906.223	546.75
906.397	481.46
906.57	480.11
906.744	428.38
906.917	443.87
907.09	470.81
907.264	458.79
907.437	429.54
907.61	424.11
907.784	436.51
907.957	440
908.13	415.78
908.304	461.12
908.477	409
908.65	408.42
908.823	366.18
908.996	460.92
909.17	432.06
909.343	429.34
909.516	399.51
909.689	371.61
909.862	395.44
910.035	400.09
910.208	389.24
910.381	405.32
910.554	478.17
910.727	395.05
910.9	369.48
911.073	370.83
911.246	447.36
911.419	481.27
911.592	431.67
911.765	365.99
911.938	383.23
912.11	402.99
912.283	434.58
912.456	460.15
912.629	416.36
912.802	382.26
912.974	365.21
913.147	316
913.32	290.23
913.493	316.78
913.665	342.55
913.838	358.43
914.01	326.66
914.183	377.42
914.356	340.61
914.528	391.18
914.701	422.76
914.873	405.13
915.046	361.34
915.218	304.57
915.391	267.95
915.563	265.24
915.736	343.9
915.908	366.76
916.081	342.35
916.253	333.63
916.425	328.21
916.598	367.15
916.77	362.5
916.942	331.5
917.115	250.32
917.287	346.23
917.459	354.17
917.632	300.89
917.804	259.62
917.976	301.28
918.148	350.1
918.32	325.88
918.493	382.65
918.665	372.77
918.837	339.64
919.009	391.18
919.181	412.1
919.353	368.7
919.525	345.65
919.697	367.15
919.869	372.96
920.041	408.03
920.213	455.69
920.385	376.45
920.557	361.53
920.729	405.71
920.901	358.43
921.073	366.76
921.244	356.49
921.416	442.13
921.588	365.79
921.76	350.29
921.932	395.05
922.103	362.89
922.275	334.21
922.447	366.96
922.619	306.9
922.79	350.88
922.962	331.7
923.134	403.19
923.305	328.98
923.477	286.55
923.648	311.35
923.82	337.7
923.991	262.72
924.163	279.58
924.335	323.75
924.506	289.26
924.677	348.36
924.849	304.57
925.02	316
925.192	352.43
925.363	315.03
925.535	314.84
925.706	304.18
925.877	321.23
926.049	290.62
926.22	327.05
926.391	338.28
926.562	331.11
926.734	285.78
926.905	347.2
927.076	249.93
927.247	292.95
927.419	236.18
927.59	236.76
927.761	254.2
927.932	238.12
928.103	279.19
928.274	208.47
928.445	215.06
928.616	218.93
928.787	222.62
928.958	268.53
929.129	233.85
929.3	220.29
929.471	169.72
929.642	122.64
929.813	113.54
929.984	179.99
930.155	111.79
930.326	172.82
930.496	113.92
930.667	99.78
930.838	153.45
931.009	118.19
931.18	122.84
931.35	110.63
931.521	137.75
931.692	72.27
931.863	49.99
932.033	92.8
932.204	94.94
932.374	84.47
932.545	58.9
932.716	107.53
932.886	108.11
933.057	6.39
933.227	10.27
933.398	114.89
933.568	40.3
933.739	18.6
933.909	0.97
934.08	72.27
934.25	-0.39
934.421	-0.97
934.591	27.71
934.761	45.53
934.932	-20.92
935.102	42.24
935.272	5.04
935.443	37.59
935.613	20.15
935.783	46.69
935.953	-3.1
936.123	171.47
936.294	-10.85
936.464	-5.81
936.634	35.84
936.804	4.65
936.974	-10.66
937.144	41.46
937.314	22.09
937.484	13.17
937.655	-6.39
937.825	56.57
937.995	-13.76
938.165	59.48
938.334	31.58
938.504	36.81
938.674	22.47
938.844	29.84
939.014	99.59
939.184	68.78
939.354	131.17
939.524	106.56
939.694	51.34
939.863	63.94
940.033	148.41
940.203	115.28
940.373	89.32
940.542	113.73
940.712	55.8
940.882	72.07
941.051	96.68
941.221	89.9
941.391	115.86
941.56	48.63
941.73	31.77
941.899	187.35
942.069	47.66
942.238	101.14
942.408	46.11
942.577	56.19
942.747	63.36
942.916	-21.7
943.086	46.11
943.255	107.14
943.425	83.89
943.594	29.45
943.763	-34.68
943.933	8.72
944.102	-24.41
944.271	43.01
944.441	59.29
944.61	13.95
944.779	54.44
944.948	113.34
945.117	0.97
945.287	35.84
945.456	6.78
945.625	14.72
945.794	60.84
945.963	23.44
946.132	88.74
946.301	21.12
946.47	79.44
946.639	-16.47
946.808	30.03
946.977	59.48
947.146	89.9
947.315	35.46
947.484	56.77
947.653	24.99
947.822	21.89
947.991	8.91
948.16	118.19
948.329	88.54
948.498	36.04
948.666	70.52
948.835	52.31
949.004	0.19
949.173	23.06
949.341	61.61
949.51	77.89
949.679	102.49
949.847	71.88
950.016	139.5
950.185	108.89
950.353	22.09
950.522	49.79
950.69	91.45
950.859	36.04
951.028	80.79
951.196	52.89
951.365	25.19
951.533	39.33
951.701	75.56
951.87	38.75
952.038	16.47
952.207	61.03
952.375	92.03
952.543	44.56
952.712	44.95
952.88	38.75
953.048	96.29
953.217	44.17
953.385	46.31
953.553	71.3
953.721	6.78
953.89	31.39
954.058	-22.86
954.226	15.5
954.394	61.81
954.562	7.94
954.73	51.34
954.898	44.17
955.067	83.51
955.235	22.28
955.403	96.87
955.571	112.57
955.739	70.33
955.907	11.62
956.075	47.27
956.243	18.99
956.41	47.27
956.578	10.85
956.746	7.75
956.914	24.99
957.082	82.54
957.25	65.1
957.418	23.64
957.585	62.77
957.753	83.12
957.921	18.99
958.089	48.82
958.256	76.72
958.424	79.82
958.592	67.42
958.759	53.67
958.927	79.63
959.095	21.51
959.262	40.11
959.43	38.56
959.597	23.44
959.765	58.9
959.932	27.51
960.1	57.54
960.267	38.17
960.435	29.64
960.602	86.8
960.77	18.02
960.937	8.72
961.104	55.8
961.272	11.43
961.439	10.07
961.606	39.72
961.774	60.64
961.941	15.5
962.108	60.64
962.275	54.06
962.443	77.11
962.61	70.52
962.777	121.67
962.944	78.86
963.111	67.23
963.278	74.59
963.446	92.22
963.613	34.87
963.78	95.13
963.947	51.92
964.114	74.4
964.281	147.64
964.448	83.12
964.615	42.04
964.782	56.38
964.949	84.28
965.116	86.02
965.282	110.82
965.449	74.59
965.616	23.06
965.783	93.19
965.95	73.04
966.117	18.41
966.283	45.34
966.45	70.52
966.617	79.05
966.784	104.62
966.95	115.09
967.117	68.59
967.284	21.31
967.45	46.31
967.617	93.97
967.784	99
967.95	122.84
968.117	60.45
968.283	125.94
968.45	167.4
968.616	86.61
968.783	114.31
968.949	116.25
969.116	130
969.282	61.61
969.449	99.2
969.615	53.28
969.781	16.08
969.948	58.9
970.114	15.89
970.28	134.85
970.447	67.62
970.613	107.14
970.779	72.66
970.945	110.24
971.112	74.4
971.278	78.27
971.444	65.87
971.61	82.15
971.776	51.15
971.942	90.67
972.108	105.2
972.275	55.02
972.441	90.09
972.607	152.48
972.773	68.78
972.939	83.12
973.105	69.17
973.271	52.12
973.437	75.95
973.602	50.18
973.768	95.32
973.934	84.47
974.1	87.57
974.266	3.1
974.432	71.3
974.598	41.27
974.763	75.56
974.929	65.87
975.095	118.96
975.261	36.23
975.426	37.39
975.592	78.47
975.758	136.79
975.923	10.27
976.089	24.8
976.255	84.28
976.42	75.95
976.586	61.03
976.751	84.28
976.917	156.35
977.082	103.46
977.248	17.63
977.413	-15.5
977.579	50.57
977.744	99.97
977.91	19.96
978.075	38.94
978.24	102.69
978.406	42.04
978.571	42.04
978.736	46.11
978.902	74.01
979.067	41.46
979.232	-8.14
979.397	59.29
979.563	97.45
979.728	43.01
979.893	51.92
980.058	32.94
980.223	67.42
980.388	60.26
980.554	71.3
980.719	41.85
980.884	55.99
981.049	90.29
981.214	44.95
981.379	48.82
981.544	27.51
981.709	67.62
981.874	65.29
982.039	64.91
982.204	65.29
982.368	50.96
982.533	23.64
982.698	101.14
982.863	96.68
983.028	41.66
983.193	79.05
983.357	62.19
983.522	83.12
983.687	54.64
983.852	33.91
984.016	50.76
984.181	77.69
984.346	78.86
984.51	94.35
984.675	63.36
984.839	85.83
985.004	66.26
985.168	99.78
985.333	67.42
985.498	39.52
985.662	101.91
985.827	93.19
985.991	60.26
986.155	62
986.32	101.14
986.484	127.29
986.649	60.06
986.813	1.36
986.977	58.71
987.142	91.64
987.306	40.49
987.47	63.74
987.634	55.41
987.799	69.36
987.963	66.46
988.127	95.71
988.291	107.14
988.455	45.14
988.62	57.35
988.784	73.04
988.948	64.32
989.112	30.81
989.276	53.86
989.44	65.87
989.604	31.39
989.768	59.87
989.932	146.86
990.096	7.17
990.26	27.32
990.424	-15.5
990.588	64.13
990.752	157.32
990.915	86.61
991.079	26.54
991.243	43.79
991.407	108.89
991.571	36.23
991.734	71.49
991.898	87.57
992.062	126.9
992.226	42.04
992.389	33.52
992.553	2.32
992.717	31
992.88	21.31
993.044	42.43
993.207	48.44
993.371	69.75
993.535	35.46
993.698	41.85
993.862	64.52
994.025	100.55
994.189	86.99
994.352	61.22
994.515	52.31
994.679	76.14
994.842	50.18
995.006	67.81
995.169	16.47
995.332	48.44
995.496	69.94
995.659	19.57
995.822	31.58
995.985	52.7
996.149	101.52
996.312	65.87
996.475	119.74
996.638	36.04
996.801	100.94
996.964	104.43
997.128	36.62
997.291	56.77
997.454	57.74
997.617	-6.01
997.78	94.16
997.943	40.69
998.106	72.46
998.269	30.03
998.432	47.66
998.595	52.89
998.758	4.07
998.92	7.75
999.083	-2.71
999.246	33.13
999.409	10.85
999.572	2.32
999.735	5.04
999.897	65.87
1000.06	18.02
1000.223	32.36
1000.386	75.56
1000.548	68.2
1000.711	72.85
1000.874	65.68
1001.036	-14.72
1001.199	94.74
1001.361	11.62
1001.524	35.84
1001.687	54.25
1001.849	-2.32
1002.012	40.11
1002.174	52.31
1002.337	62.19
1002.499	2.91
1002.661	67.81
1002.824	18.79
1002.986	17.24
1003.149	43.21
1003.311	28.67
1003.473	76.92
1003.636	18.99
1003.798	49.99
1003.96	28.09
1004.123	21.7
1004.285	30.22
1004.447	20.15
1004.609	37.01
1004.771	77.89
1004.933	-22.47
1005.096	5.81
1005.258	-37.59
1005.42	17.24
1005.582	83.51
1005.744	33.52
1005.906	-5.04
1006.068	28.48
1006.23	7.56
1006.392	0.97
1006.554	1.74
1006.716	62
1006.878	34.49
1007.04	-17.63
1007.202	1.16
1007.363	33.91
1007.525	45.53
1007.687	37.78
1007.849	96.68
1008.011	-3.49
1008.172	-16.27
1008.334	26.93
1008.496	62.19
1008.658	-1.55
1008.819	-5.62
1008.981	6.2
1009.143	-7.75
1009.304	27.9
1009.466	47.27
1009.627	64.91
1009.789	95.9
1009.95	36.04
1010.112	4.46
1010.273	26.74
1010.435	9.3
1010.596	31.58
1010.758	14.92
1010.919	14.34
1011.081	-22.28
1011.242	16.27
1011.403	57.93
1011.565	8.52
1011.726	27.9
1011.887	-20.34
1012.049	17.44
1012.21	64.91
1012.371	83.89
1012.532	-48.82
1012.693	22.67
1012.855	1.16
1013.016	30.03
1013.177	63.94
1013.338	-13.56
1013.499	78.86
1013.66	48.63
1013.821	53.86
1013.982	11.43
1014.143	48.63
1014.304	11.24
1014.465	56.77
1014.626	48.63
1014.787	8.91
1014.948	85.25
1015.109	-48.82
1015.27	42.04
1015.431	-19.96
1015.592	13.37
1015.752	71.3
1015.913	46.69
1016.074	27.32
1016.235	22.28
1016.395	26.35
1016.556	2.32
1016.717	22.09
1016.877	79.63
1017.038	-14.14
1017.199	40.69
1017.359	14.53
1017.52	24.61
1017.681	3.68
1017.841	47.47
1018.002	9.11
1018.162	0.97
1018.323	61.42
1018.483	4.65
1018.644	11.24
1018.804	-15.11
1018.964	-15.89
1019.125	9.69
1019.285	23.25
1019.446	-16.08
1019.606	-33.13
1019.766	-58.51
1019.926	21.31
1020.087	36.04
1020.247	-3.87
1020.407	13.56
1020.567	65.1
1020.728	12.59
1020.888	-19.18
1021.048	13.76
1021.208	-35.26
1021.368	2.91
1021.528	44.37
1021.688	30.03
1021.848	36.62
1022.008	3.87
1022.168	17.05
1022.328	4.65
1022.488	50.57
1022.648	-12.21
1022.808	19.57
1022.968	32.94
1023.128	10.85
1023.288	-2.13
1023.448	8.14
1023.608	24.41
1023.767	16.08
1023.927	-12.21
1024.087	-6.78
1024.247	-32.55
1024.406	-2.32
1024.566	-6.59
1024.726	-25.19
1024.885	9.49
1025.045	39.33
1025.205	-5.42
1025.364	-2.52
1025.524	9.3
1025.683	3.1
1025.843	31.39
1026.003	-5.81
1026.162	73.62
1026.321	41.07
1026.481	29.06
1026.64	-13.17
1026.8	30.42
1026.959	16.47
1027.119	11.43
1027.278	15.69
1027.437	-28.67
1027.597	-3.87
1027.756	6.59
1027.915	27.12
1028.074	25.57
1028.234	-2.52
1028.393	18.99
1028.552	-1.55
1028.711	-46.31
1028.87	46.69
1029.03	-14.34
1029.189	12.59
1029.348	-46.89
1029.507	-8.72
1029.666	-12.59
1029.825	-24.61
1029.984	-14.53
1030.143	14.92
1030.302	-13.56
1030.461	-54.25
1030.62	17.44
1030.779	39.72
1030.938	-26.35
1031.097	-11.62
1031.255	34.1
1031.414	52.89
1031.573	51.73
1031.732	-54.64
1031.891	6.01
1032.049	55.99
1032.208	45.14
1032.367	-6.2
1032.525	-15.31
1032.684	-18.41
1032.843	23.25
1033.001	-38.36
1033.16	136.98
1033.319	39.14
1033.477	18.41
1033.636	-16.47
1033.794	-37.2
1033.953	39.91
1034.111	41.46
1034.27	15.5
1034.428	42.43
1034.587	-9.49
1034.745	3.49
1034.903	11.62
1035.062	1.55
1035.22	-34.68
1035.378	30.81
1035.537	-30.42
1035.695	4.65
1035.853	4.26
1036.011	27.71
1036.17	21.89
1036.328	-42.04
1036.486	25.57
1036.644	11.82
1036.802	-80.41
1036.96	-34.49
1037.119	-5.62
1037.277	-23.06
1037.435	-34.49
1037.593	-58.9
1037.751	-11.04
1037.909	31.77
1038.067	31.77
