Data from pine_FLMT105791__180__17-23-34-073.txt Node

Date: Mon Mar 20 17:23:34 GMT 2023
User: antho
Spectrometer: FLMT10579
Trigger mode: 0
Integration Time (sec): 1.000000E-1
Scans to average: 10
Electric dark correction enabled: true
Nonlinearity correction enabled: false
Boxcar width: 0
XAxis mode: Wavelengths
Number of Pixels in Spectrum: 3648
>>>>>Begin Spectral Data<<<<<
345.248	-163.64
345.464	-163.64
345.681	-163.64
345.898	-186.3
346.114	-149.69
346.331	-28.21
346.548	23.33
346.764	2.02
346.981	-12.71
347.197	-7.48
347.414	29.72
347.631	-30.73
347.847	70.41
348.064	-18.13
348.28	30.5
348.497	-50.87
348.713	-7.86
348.93	22.56
349.146	27.59
349.363	-9.22
349.579	28.76
349.796	-2.44
350.012	-2.24
350.229	18.29
350.445	7.64
350.661	-21.23
350.878	5.7
351.094	6.47
351.311	3.18
351.527	19.65
351.743	-35.57
351.96	36.7
352.176	32.05
352.392	29.72
352.609	34.96
352.825	-1.28
353.041	19.07
353.257	-0.69
353.474	-12.13
353.69	31.27
353.906	12.29
354.122	-18.33
354.339	40.77
354.555	-3.99
354.771	-2.63
354.987	61.3
355.203	58.59
355.42	-8.83
355.636	-5.15
355.852	-14.26
356.068	1.63
356.284	-40.22
356.5	66.15
356.716	19.26
356.932	5.51
357.148	16.16
357.364	-1.66
357.58	34.57
357.796	37.86
358.012	38.44
358.228	12.09
358.444	-68.7
358.66	46.77
358.876	37.28
359.092	-9.41
359.308	24.88
359.524	12.67
359.74	-16.97
359.956	-33.05
360.172	7.06
360.388	41.74
360.604	-3.02
360.819	101.99
361.035	-3.21
361.251	31.27
361.467	-17.94
361.683	58.59
361.898	17.13
362.114	43.48
362.33	18.29
362.546	37.28
362.762	11.12
362.977	3.18
363.193	-31.31
363.409	35.54
363.624	-1.08
363.84	2.79
364.056	-22.59
364.271	7.64
364.487	9.96
364.703	-10.58
364.918	-9.8
365.134	-8.25
365.35	-17.94
365.565	115.94
365.781	16.74
365.996	19.65
366.212	67.31
366.427	27.79
366.643	-29.56
366.858	8.41
367.074	-11.16
367.289	43.48
367.505	99.47
367.72	-21.62
367.936	-14.26
368.151	45.03
368.367	-2.63
368.582	8.22
368.798	7.83
369.013	30.89
369.228	6.86
369.444	34.57
369.659	50.84
369.874	23.33
370.09	72.93
370.305	-35.38
370.52	0.27
370.736	57.43
370.951	1.82
371.166	49.49
371.381	56.65
371.597	8.99
371.812	-23.75
372.027	-25.69
372.242	-27.82
372.458	69.05
372.673	-3.79
372.888	8.8
373.103	18.68
373.318	95.79
373.533	18.68
373.749	28.17
373.964	-17.55
374.179	58.98
374.394	-19.1
374.609	44.06
374.824	-10.77
375.039	35.92
375.254	-20.65
375.469	29.92
375.684	-1.86
375.899	52.39
376.114	25.66
376.329	8.8
376.544	62.47
376.759	52.97
376.974	-13.48
377.189	11.12
377.404	21.59
377.619	58.79
377.834	-37.51
378.049	-18.13
378.264	-5.93
378.478	37.09
378.693	6.86
378.908	38.83
379.123	16.74
379.338	71.77
379.553	25.66
379.767	24.88
379.982	25.66
380.197	38.44
380.412	34.76
380.626	29.72
380.841	93.85
381.056	38.64
381.271	64.4
381.485	-19.1
381.7	-34.99
381.915	18.87
382.129	-12.32
382.344	34.37
382.559	8.02
382.773	62.66
382.988	-28.59
383.202	16.55
383.417	-14.45
383.632	109.94
383.846	33.99
384.061	28.56
384.275	10.54
384.49	52.39
384.704	60.53
384.919	24.11
385.133	13.06
385.348	39.02
385.562	-0.69
385.777	37.28
385.991	-6.31
386.206	18.87
386.42	15.19
386.634	50.26
386.849	23.52
387.063	25.66
387.277	-9.99
387.492	4.54
387.706	-27.63
387.92	-27.04
388.135	62.08
388.349	33.6
388.563	1.24
388.778	24.49
388.992	37.09
389.206	33.6
389.42	98.7
389.635	5.12
389.849	35.92
390.063	46
390.277	19.84
390.491	79.32
390.706	40.38
390.92	32.44
391.134	5.51
391.348	32.63
391.562	-7.67
391.776	-7.67
391.99	-20.26
392.205	55.1
392.419	-19.88
392.633	-9.22
392.847	62.27
393.061	-3.02
393.275	101.22
393.489	8.99
393.703	43.87
393.917	48.71
394.131	2.6
394.345	24.69
394.559	38.83
394.773	9.77
394.986	24.88
395.2	20.23
395.414	20.42
395.628	-12.13
395.842	36.7
396.056	19.07
396.27	-54.36
396.484	27.59
396.697	47.55
396.911	65.57
397.125	40.57
397.339	56.85
397.553	40.57
397.766	96.37
397.98	50.07
398.194	52.2
398.408	21.39
398.621	35.54
398.835	39.02
399.049	10.35
399.262	51.04
399.476	43.67
399.69	41.74
399.903	87.27
400.117	18.49
400.331	50.65
400.544	7.25
400.758	136.29
400.971	54.72
401.185	74.29
401.398	3.37
401.612	66.92
401.826	68.47
402.039	67.89
402.253	10.74
402.466	24.11
402.68	11.12
402.893	28.76
403.106	18.1
403.32	36.7
403.533	29.53
403.747	5.31
403.96	17.91
404.174	43.48
404.387	-19.29
404.6	40.57
404.814	67.89
405.027	33.02
405.24	36.7
405.454	4.34
405.667	56.07
405.88	-28.21
406.094	34.96
406.307	36.7
406.52	38.06
406.733	10.35
406.947	-19.68
407.16	63.44
407.373	63.44
407.586	8.41
407.799	9.19
408.012	78.35
408.226	20.62
408.439	57.43
408.652	-20.26
408.865	32.24
409.078	51.04
409.291	23.52
409.504	-11.93
409.717	37.28
409.93	40.38
410.143	60.14
410.357	-5.54
410.57	-24.53
410.783	7.06
410.996	15.58
411.209	13.64
411.421	55.3
411.634	16.16
411.847	-19.88
412.06	12.48
412.273	16.94
412.486	33.41
412.699	102.19
412.912	3.37
413.125	51.04
413.338	14.22
413.55	45.81
413.763	33.6
413.976	22.56
414.189	15.58
414.402	24.69
414.615	44.84
414.827	5.12
415.04	60.34
415.253	30.5
415.466	86.49
415.678	83.2
415.891	33.21
416.104	30.5
416.316	4.54
416.529	-5.54
416.742	49.1
416.954	82.62
417.167	18.1
417.38	7.64
417.592	52.78
417.805	16.16
418.017	-8.06
418.23	69.25
418.442	38.44
418.655	24.69
418.868	48.91
419.08	58.98
419.293	73.51
419.505	20.23
419.718	32.24
419.93	29.14
420.142	25.66
420.355	76.8
420.567	70.6
420.78	66.54
420.992	41.54
421.205	83.39
421.417	-21.23
421.629	15
421.842	-4.96
422.054	0.86
422.266	46.97
422.479	60.92
422.691	7.64
422.903	51.04
423.115	-13.68
423.328	30.11
423.54	41.74
423.752	40.38
423.964	20.62
424.177	33.02
424.389	-14.64
424.601	109.55
424.813	39.61
425.025	52.78
425.238	52
425.45	32.05
425.662	-9.22
425.874	283.34
426.086	46
426.298	35.92
426.51	42.32
426.722	33.41
426.934	6.86
427.146	70.99
427.358	-3.99
427.57	47.16
427.782	39.02
427.994	43.09
428.206	16.36
428.418	-22.98
428.63	31.66
428.842	64.21
429.054	27.21
429.266	71.57
429.478	2.02
429.69	16.74
429.902	-21.43
430.114	48.32
430.325	72.93
430.537	30.31
430.749	52.39
430.961	-3.99
431.173	24.49
431.384	41.74
431.596	-25.11
431.808	6.67
432.02	25.46
432.231	39.61
432.443	65.37
432.655	30.89
432.867	-7.09
433.078	43.09
433.29	94.82
433.502	61.11
433.713	66.54
433.925	24.88
434.136	83.97
434.348	31.47
434.56	-15.42
434.771	121.56
434.983	-23.17
435.194	-14.84
435.406	12.67
435.617	53.36
435.829	110.52
436.04	40.57
436.252	79.32
436.463	71.77
436.675	43.09
436.886	18.29
437.098	34.37
437.309	91.14
437.521	23.52
437.732	50.26
437.943	45.03
438.155	34.96
438.366	-9.41
438.578	72.35
438.789	36.89
439	75.45
439.211	54.72
439.423	62.08
439.634	70.6
439.845	48.32
440.057	58.59
440.268	63.44
440.479	-0.5
440.69	16.36
440.902	18.68
441.113	39.22
441.324	20.81
441.535	45.22
441.746	77.77
441.957	-5.73
442.168	-5.93
442.38	41.16
442.591	45.81
442.802	20.04
443.013	16.74
443.224	68.86
443.435	10.93
443.646	38.06
443.857	39.41
444.068	10.16
444.279	18.49
444.49	75.06
444.701	23.33
444.912	128.92
445.123	50.07
445.334	56.27
445.545	33.6
445.756	42.51
445.967	7.64
446.178	56.46
446.388	83.2
446.599	65.37
446.81	70.6
447.021	47.94
447.232	74.48
447.443	89.59
447.653	7.83
447.864	52.59
448.075	9.57
448.286	60.53
448.496	77.19
448.707	63.63
448.918	51.04
449.129	127.57
449.339	7.44
449.55	53.17
449.761	13.84
449.971	101.6
450.182	36.12
450.393	65.76
450.603	52.2
450.814	29.14
451.024	53.94
451.235	57.04
451.446	105.29
451.656	97.73
451.867	24.3
452.077	59.75
452.288	104.51
452.498	95.21
452.709	58.4
452.919	87.27
453.13	61.89
453.34	77.77
453.55	38.25
453.761	78.35
453.971	75.25
454.182	86.69
454.392	100.64
454.602	131.05
454.813	66.34
455.023	88.04
455.233	33.6
455.444	53.94
455.654	6.86
455.864	58.4
456.075	52.97
456.285	52.39
456.495	51.04
456.705	64.21
456.916	97.54
457.126	101.6
457.336	62.66
457.546	-5.93
457.756	36.89
457.967	126.79
458.177	13.84
458.387	66.54
458.597	49.1
458.807	56.27
459.017	62.66
459.227	42.71
459.437	39.02
459.647	102.19
459.857	95.99
460.068	28.37
460.278	124.27
460.488	86.88
460.698	128.54
460.908	70.8
461.117	16.74
461.327	22.17
461.537	58.79
461.747	70.8
461.957	64.79
462.167	152.75
462.377	92.69
462.587	64.21
462.797	98.89
463.007	74.67
463.216	105.67
463.426	106.45
463.636	100.44
463.846	27.79
464.056	68.47
464.265	104.32
464.475	28.56
464.685	47.94
464.895	91.53
465.104	84.75
465.314	76.61
465.524	47.74
465.733	61.69
465.943	147.91
466.153	121.37
466.362	103.74
466.572	59.37
466.782	71.19
466.991	50.65
467.201	156.43
467.41	1.63
467.62	81.65
467.829	74.87
468.039	61.5
468.249	64.21
468.458	60.14
468.668	107.8
468.877	73.32
469.086	143.84
469.296	95.02
469.505	49.29
469.715	129.5
469.924	85.72
470.134	116.72
470.343	137.06
470.552	77.58
470.762	88.43
470.971	43.29
471.18	75.06
471.39	63.44
471.599	44.26
471.808	87.46
472.018	17.71
472.227	127.95
472.436	108.39
472.645	68.09
472.855	51.62
473.064	110.9
473.273	75.45
473.482	95.6
473.691	132.99
473.901	108.19
474.11	72.15
474.319	161.28
474.528	91.53
474.737	126.79
474.946	96.76
475.155	96.57
475.364	115.55
475.573	101.22
475.783	103.35
475.992	113.04
476.201	140.16
476.41	86.88
476.619	63.63
476.828	107.03
477.037	76.42
477.245	87.65
477.454	132.22
477.663	63.44
477.872	48.91
478.081	139.77
478.29	37.28
478.499	163.8
478.708	108.77
478.917	164.77
479.125	112.84
479.334	123.69
479.543	97.15
479.752	100.44
479.961	91.92
480.169	114.97
480.378	60.34
480.587	196.73
480.796	108
481.004	97.92
481.213	126.21
481.422	89.4
481.63	84.55
481.839	111.29
482.048	155.08
482.256	82.04
482.465	95.4
482.674	119.62
482.882	146.75
483.091	170
483.299	95.4
483.508	103.93
483.716	108.39
483.925	113.04
484.134	91.72
484.342	63.24
484.551	148.49
484.759	131.05
484.967	108.39
485.176	154.11
485.384	121.75
485.593	178.72
485.801	156.24
486.01	155.85
486.218	132.8
486.426	90.95
486.635	147.13
486.843	136.29
487.051	120.2
487.26	105.67
487.468	158.95
487.676	159.92
487.885	82.04
488.093	130.86
488.301	111.29
488.509	116.52
488.717	129.31
488.926	123.89
489.134	87.46
489.342	125.44
489.55	109.16
489.758	133.96
489.967	108.19
490.175	207.58
490.383	99.86
490.591	174.84
490.799	82.81
491.007	160.7
491.215	116.14
491.423	119.82
491.631	112.26
491.839	127.95
492.047	169.22
492.255	101.8
492.463	84.17
492.671	138.22
492.879	152.56
493.087	136.48
493.295	133.38
493.503	152.17
493.711	152.75
493.919	170.58
494.127	188.79
494.334	193.44
494.542	89.01
494.75	136.48
494.958	146.94
495.166	173.29
495.374	146.55
495.581	125.63
495.789	137.45
495.997	184.72
496.205	142.29
496.412	132.02
496.62	130.09
496.828	150.04
497.035	138.03
497.243	163.6
497.451	135.7
497.658	169.8
497.866	133.19
498.074	210.49
498.281	132.22
498.489	251.18
498.696	151.01
498.904	112.07
499.112	128.54
499.319	209.72
499.527	119.43
499.734	201.77
499.942	109.35
500.149	133.38
500.357	168.83
500.564	123.89
500.771	188.4
500.979	147.33
501.186	136.09
501.394	146.55
501.601	173.1
501.808	192.86
502.016	143.07
502.223	192.67
502.43	163.02
502.638	164.38
502.845	114
503.052	197.51
503.26	168.45
503.467	229.48
503.674	151.78
503.881	173.87
504.089	249.24
504.296	218.24
504.503	133.38
504.71	170.58
504.917	115.55
505.125	201
505.332	136.48
505.539	188.21
505.746	239.36
505.953	185.69
506.16	160.7
506.367	202.55
506.574	194.22
506.781	204.1
506.988	113.23
507.195	165.15
507.402	157.79
507.609	189.95
507.816	155.66
508.023	164.77
508.23	157.02
508.437	130.28
508.644	225.6
508.851	242.46
509.058	195.96
509.265	193.83
509.472	193.44
509.679	281.6
509.885	188.4
510.092	171.16
510.299	163.99
510.506	195.77
510.713	194.6
510.92	184.14
511.126	210.1
511.333	240.33
511.54	227.35
511.746	222.89
511.953	223.86
512.16	234.51
512.367	163.41
512.573	200.42
512.78	186.08
512.987	195.57
513.193	208.55
513.4	138.61
513.606	170
513.813	212.43
514.02	204.48
514.226	315.11
514.433	248.46
514.639	161.08
514.846	197.12
515.052	175.23
515.259	202.16
515.465	209.72
515.672	216.69
515.878	276.75
516.085	182.78
516.291	235.29
516.497	173.1
516.704	194.8
516.91	171.93
517.117	176.97
517.323	158.57
517.529	196.54
517.736	210.1
517.942	209.13
518.148	167.87
518.354	204.68
518.561	220.18
518.767	226.96
518.973	232.58
519.179	238.78
519.386	170.38
519.592	170.19
519.798	149.27
520.004	209.91
520.21	185.69
520.417	217.66
520.623	219.98
520.829	248.46
521.035	225.02
521.241	242.65
521.447	256.02
521.653	307.75
521.859	214.56
522.065	218.05
522.271	315.31
522.477	224.25
522.683	274.04
522.889	250.01
523.095	276.95
523.301	255.63
523.507	208.17
523.713	236.84
523.919	184.53
524.125	280.63
524.331	224.44
524.537	257.38
524.742	234.13
524.948	263.38
525.154	254.28
525.36	368.2
525.566	261.64
525.772	306.01
525.977	209.13
526.183	296.32
526.389	293.22
526.595	224.44
526.8	246.72
527.006	241.49
527.212	225.41
527.417	250.6
527.623	193.44
527.829	264.16
528.034	252.34
528.24	280.82
528.446	202.55
528.651	316.66
528.857	255.83
529.062	325.19
529.268	250.4
529.473	290.12
529.679	226.76
529.884	335.26
530.09	294.77
530.295	347.08
530.501	326.16
530.706	288.57
530.912	236.45
531.117	264.55
531.323	286.83
531.528	287.02
531.733	266.1
531.939	240.71
532.144	291.09
532.35	279.46
532.555	322.67
532.76	319.96
532.966	330.23
533.171	343.01
533.376	292.45
533.581	266.87
533.787	306.2
533.992	280.43
534.197	336.81
534.402	272.49
534.607	276.75
534.813	377.31
535.018	285.86
535.223	255.83
535.428	302.52
535.633	322.86
535.838	321.51
536.043	292.06
536.249	350.76
536.454	284.89
536.659	299.81
536.864	261.83
537.069	299.81
537.274	323.44
537.479	308.14
537.684	333.91
537.889	280.63
538.094	361.03
538.299	294.96
538.504	289.54
538.708	337.39
538.913	329.06
539.118	284.7
539.323	311.43
539.528	297.87
539.733	310.85
539.938	325.58
540.142	352.89
540.347	323.44
540.552	304.26
540.757	312.01
540.962	305.23
541.166	279.46
541.371	259.12
541.576	326.93
541.781	189.18
541.985	309.88
542.19	322.86
542.395	331.58
542.599	352.12
542.804	322.67
543.008	368.59
543.213	254.28
543.418	281.01
543.622	347.08
543.827	296.13
544.031	373.04
544.236	368.39
544.44	321.51
544.645	382.93
544.849	312.21
545.054	344.95
545.258	410.24
545.463	368.2
545.667	308.14
545.872	346.31
546.076	341.08
546.281	307.36
546.485	297.68
546.689	315.31
546.894	364.13
547.098	308.14
547.302	255.25
547.507	296.71
547.711	323.44
547.915	381.96
548.119	282.76
548.324	320.15
548.528	400.17
548.732	320.93
548.936	335.84
549.141	338.17
549.345	333.33
549.549	361.03
549.753	333.52
549.957	400.17
550.161	393
550.366	327.51
550.57	291.09
550.774	343.01
550.978	308.33
551.182	314.14
551.386	289.35
551.59	324.03
551.794	320.93
551.998	353.09
552.202	333.91
552.406	278.3
552.61	337.2
552.814	333.52
553.018	389.51
553.222	333.13
553.426	349.02
553.63	384.09
553.833	331.78
554.037	295.74
554.241	358.13
554.445	335.46
554.649	350.57
554.853	300.97
555.056	377.69
555.26	369.75
555.464	352.12
555.668	339.72
555.871	368.01
556.075	352.51
556.279	307.95
556.483	297.1
556.686	329.64
556.89	322.48
557.094	362
557.297	308.53
557.501	383.31
557.704	302.91
557.908	384.86
558.112	324.41
558.315	403.66
558.519	325.38
558.722	341.08
558.926	327.32
559.129	307.17
559.333	275.4
559.536	313.56
559.74	299.42
559.943	313.18
560.147	296.9
560.35	332.74
560.553	310.46
560.757	239.55
560.96	366.26
561.164	294.19
561.367	369.17
561.57	318.41
561.774	380.02
561.977	346.11
562.18	311.82
562.384	399.59
562.587	341.85
562.79	294.19
562.993	322.28
563.197	348.44
563.4	373.63
563.603	379.44
563.806	421.87
564.009	299.42
564.212	373.63
564.416	281.6
564.619	361.23
564.822	313.56
565.025	339.53
565.228	303.49
565.431	334.29
565.634	227.93
565.837	308.72
566.04	263.77
566.243	306.78
566.446	269.2
566.649	333.33
566.852	265.71
567.055	311.63
567.258	354.44
567.461	399.39
567.664	355.41
567.867	250.4
568.07	303.3
568.273	331.97
568.475	388.93
568.678	324.41
568.881	317.44
569.084	359.87
569.287	267.45
569.489	286.63
569.692	334.1
569.895	332.74
570.098	302.71
570.3	289.73
570.503	219.02
570.706	247.5
570.909	284.11
571.111	253.31
571.314	258.15
571.516	262.61
571.719	298.65
571.922	275.98
572.124	262.8
572.327	283.92
572.529	233.35
572.732	231.61
572.935	274.23
573.137	307.95
573.34	254.86
573.542	294.96
573.745	290.7
573.947	306.78
574.15	281.6
574.352	252.15
574.554	313.76
574.757	241.3
574.959	259.9
575.162	220.37
575.364	263
575.566	352.12
575.769	254.08
575.971	267.26
576.173	186.47
576.376	269.78
576.578	315.31
576.78	326.35
576.982	193.05
577.185	242.85
577.387	225.99
577.589	244.01
577.791	279.85
577.993	281.6
578.196	241.3
578.398	292.64
578.6	329.64
578.802	229.28
579.004	260.09
579.206	232.19
579.408	284.89
579.61	248.08
579.812	311.63
580.014	251.18
580.216	230.25
580.418	199.64
580.62	239.75
580.822	177.36
581.024	245.75
581.226	301.16
581.428	226.76
581.63	318.6
581.832	238.78
582.034	294.77
582.236	266.48
582.438	291.28
582.64	298.84
582.841	311.63
583.043	318.6
583.245	292.25
583.447	276.75
583.649	249.82
583.85	267.26
584.052	302.71
584.254	255.83
584.456	280.24
584.657	228.7
584.859	269.39
585.061	258.73
585.262	245.95
585.464	224.44
585.666	287.02
585.867	253.31
586.069	318.99
586.27	279.46
586.472	286.25
586.674	231.22
586.875	241.3
587.077	228.9
587.278	281.21
587.48	256.02
587.681	363.94
587.883	261.64
588.084	212.23
588.285	231.22
588.487	244.2
588.688	276.17
588.89	218.82
589.091	250.4
589.292	277.53
589.494	248.27
589.695	238.2
589.896	193.44
590.098	185.3
590.299	269
590.5	214.75
590.702	199.45
590.903	220.95
591.104	291.28
591.305	214.95
591.507	299.61
591.708	258.93
591.909	212.04
592.11	309.88
592.311	276.95
592.512	246.53
592.714	203.32
592.915	204.68
593.116	212.82
593.317	232.58
593.518	244.59
593.719	195.18
593.92	284.89
594.121	263
594.322	241.88
594.523	227.35
594.724	187.82
594.925	240.71
595.126	261.83
595.327	254.66
595.528	240.52
595.729	253.5
595.929	220.18
596.13	217.27
596.331	218.43
596.532	233.55
596.733	299.03
596.934	283.34
597.135	266.29
597.335	266.87
597.536	196.15
597.737	206.03
597.938	213.98
598.138	269.58
598.339	223.67
598.54	255.63
598.74	230.45
598.941	259.51
599.142	271.33
599.342	228.7
599.543	202.74
599.744	225.02
599.944	236.26
600.145	217.66
600.345	238.78
600.546	308.53
600.746	302.13
600.947	280.43
601.147	258.15
601.348	271.13
601.548	205.26
601.749	252.34
601.949	216.69
602.15	222.31
602.35	242.46
602.551	311.82
602.751	221.53
602.951	212.62
603.152	163.6
603.352	280.43
603.552	214.95
603.753	252.92
603.953	244.4
604.153	238.97
604.354	246.72
604.554	252.53
604.754	241.3
604.954	173.48
605.155	236.84
605.355	203.71
605.555	269.78
605.755	298.06
605.955	232.96
606.155	245.75
606.356	218.43
606.556	270.94
606.756	237.03
606.956	183.17
607.156	290.7
607.356	230.64
607.556	259.12
607.756	225.22
607.956	291.86
608.156	258.35
608.356	200.03
608.556	267.06
608.756	257.76
608.956	232.96
609.156	262.41
609.356	190.34
609.556	216.88
609.755	257.38
609.955	222.7
610.155	252.73
610.355	246.72
610.555	224.44
610.755	253.31
610.954	220.57
611.154	256.41
611.354	269.39
611.554	199.64
611.753	234.71
611.953	196.15
612.153	254.66
612.352	265.51
612.552	213.98
612.752	170.97
612.951	239.16
613.151	245.56
613.351	219.79
613.55	193.83
613.75	273.65
613.949	259.9
614.149	267.06
614.348	216.11
614.548	205.26
614.747	178.91
614.947	197.51
615.146	174.26
615.346	235.48
615.545	241.3
615.745	233.93
615.944	247.69
616.144	221.73
616.343	276.36
616.542	217.08
616.742	245.56
616.941	217.85
617.14	170.19
617.34	228.31
617.539	224.63
617.738	209.33
617.938	277.91
618.137	239.36
618.336	185.88
618.535	240.33
618.734	193.25
618.934	224.44
619.133	197.51
619.332	259.31
619.531	194.22
619.73	208.55
619.929	253.5
620.128	243.81
620.328	276.95
620.527	212.23
620.726	220.37
620.925	238.78
621.124	210.68
621.323	234.13
621.522	203.52
621.721	195.18
621.92	167.28
622.119	243.04
622.318	198.87
622.517	201.97
622.715	197.51
622.914	155.85
623.113	192.28
623.312	170
623.511	230.06
623.71	183.95
623.909	203.52
624.107	271.52
624.306	161.28
624.505	169.03
624.704	201.38
624.902	168.45
625.101	229.67
625.3	218.43
625.499	187.63
625.697	194.8
625.896	168.64
626.095	223.28
626.293	168.45
626.492	189.95
626.69	218.05
626.889	176.58
627.088	213.01
627.286	183.75
627.485	169.03
627.683	184.53
627.882	209.13
628.08	135.51
628.279	194.41
628.477	256.6
628.676	167.28
628.874	218.24
629.073	170.97
629.271	155.66
629.469	207.58
629.668	181.04
629.866	206.03
630.065	179.1
630.263	202.93
630.461	145
630.66	194.6
630.858	215.92
631.056	230.83
631.254	238.78
631.453	191.7
631.651	223.47
631.849	205.26
632.047	218.05
632.245	178.91
632.444	220.76
632.642	200.61
632.84	207.2
633.038	155.85
633.236	167.28
633.434	166.7
633.632	131.44
633.83	185.88
634.028	224.83
634.227	192.28
634.425	252.92
634.623	183.17
634.821	194.41
635.019	173.29
635.216	181.23
635.414	207.97
635.612	175.62
635.81	174.26
636.008	253.11
636.206	196.73
636.404	216.3
636.602	160.5
636.8	191.89
636.997	225.6
637.195	188.4
637.393	211.46
637.591	239.94
637.789	210.3
637.986	179.88
638.184	179.49
638.382	221.34
638.58	212.82
638.777	274.81
638.975	172.32
639.173	194.8
639.37	220.37
639.568	217.47
639.765	224.05
639.963	206.62
640.161	236.45
640.358	216.11
640.556	205.26
640.753	159.53
640.951	179.1
641.148	193.63
641.346	189.57
641.543	193.83
641.741	216.11
641.938	163.6
642.136	164.57
642.333	183.17
642.531	241.88
642.728	233.55
642.925	185.69
643.123	173.68
643.32	198.67
643.517	184.33
643.715	185.11
643.912	176.58
644.109	174.65
644.306	174.26
644.504	152.75
644.701	182.78
644.898	221.53
645.095	179.3
645.293	181.62
645.49	188.02
645.687	185.88
645.884	224.83
646.081	118.65
646.278	184.14
646.475	162.25
646.672	187.24
646.87	196.15
647.067	200.8
647.264	192.86
647.461	166.7
647.658	170.97
647.855	218.82
648.052	166.12
648.249	129.5
648.446	185.3
648.642	157.79
648.839	166.12
649.036	143.84
649.233	151.59
649.43	157.21
649.627	148.1
649.824	157.6
650.021	174.84
650.217	155.66
650.414	165.15
650.611	199.83
650.808	174.65
651.004	172.13
651.201	179.88
651.398	211.46
651.595	162.63
651.791	153.92
651.988	217.47
652.185	158.57
652.381	147.13
652.578	98.5
652.775	180.46
652.971	140.55
653.168	154.11
653.364	173.29
653.561	122.92
653.757	131.05
653.954	149.65
654.15	131.25
654.347	231.22
654.543	159.92
654.74	118.46
654.936	94.44
655.133	177.17
655.329	141.13
655.525	165.73
655.722	176.39
655.918	118.85
656.115	206.62
656.311	148.3
656.507	120.79
656.704	113.42
656.9	129.89
657.096	148.3
657.292	97.73
657.489	188.98
657.685	160.7
657.881	144.81
658.077	128.92
658.273	134.15
658.47	218.43
658.666	144.81
658.862	166.51
659.058	132.22
659.254	170.19
659.45	129.7
659.646	137.06
659.842	134.54
660.038	180.27
660.234	149.07
660.43	157.6
660.626	219.6
660.822	203.13
661.018	179.3
661.214	134.35
661.41	107.03
661.606	161.86
661.802	176.2
661.998	164.77
662.194	113.04
662.39	154.69
662.586	166.51
662.781	174.07
662.977	163.99
663.173	186.66
663.369	178.13
663.564	165.73
663.76	195.77
663.956	152.95
664.152	227.15
664.347	115.75
664.543	142.68
664.739	130.47
664.934	119.24
665.13	94.82
665.326	184.14
665.521	158.18
665.717	118.65
665.912	133.38
666.108	65.57
666.304	146.94
666.499	119.04
666.695	106.06
666.89	139
667.086	150.62
667.281	186.85
667.477	199.25
667.672	171.93
667.867	145.58
668.063	166.12
668.258	133.38
668.454	175.42
668.649	220.76
668.844	141.71
669.04	180.85
669.235	152.37
669.43	135.51
669.626	118.46
669.821	139.77
670.016	108.77
670.211	116.72
670.407	110.9
670.602	145
670.797	160.5
670.992	185.11
671.187	117.69
671.382	189.76
671.578	144.42
671.773	143.65
671.968	110.9
672.163	143.65
672.358	173.48
672.553	140.16
672.748	119.82
672.943	215.14
673.138	142.1
673.333	188.02
673.528	108.39
673.723	143.07
673.918	140.35
674.113	117.3
674.308	224.44
674.503	159.92
674.698	158.76
674.892	144.03
675.087	170.19
675.282	201
675.477	135.12
675.672	175.42
675.867	148.49
676.061	106.25
676.256	91.34
676.451	119.43
676.646	162.83
676.84	136.29
677.035	113.81
677.23	93.66
677.424	145
677.619	181.04
677.814	180.46
678.008	183.56
678.203	88.04
678.397	124.08
678.592	136.87
678.787	187.82
678.981	117.49
679.176	140.93
679.37	162.63
679.565	97.73
679.759	115.17
679.954	158.76
680.148	201.38
680.342	185.5
680.537	157.02
680.731	114.78
680.926	162.05
681.12	143.84
681.314	126.6
681.509	151.78
681.703	124.66
681.897	157.6
682.092	143.84
682.286	118.85
682.48	176
682.674	151.78
682.869	128.92
683.063	133.57
683.257	201.58
683.451	132.02
683.645	165.15
683.839	140.74
684.034	128.54
684.228	173.68
684.422	115.75
684.616	120.4
684.81	180.07
685.004	119.24
685.198	105.29
685.392	173.68
685.586	116.52
685.78	146.75
685.974	151.78
686.168	154.3
686.362	177.36
686.556	122.92
686.75	115.36
686.944	138.61
687.138	182.2
687.331	110.32
687.525	134.35
687.719	81.07
687.913	148.3
688.107	121.37
688.301	101.22
688.494	143.07
688.688	89.79
688.882	87.27
689.076	66.15
689.269	97.73
689.463	188.02
689.657	129.7
689.85	121.75
690.044	114.78
690.238	126.99
690.431	95.21
690.625	89.2
690.818	124.66
691.012	149.85
691.205	107.42
691.399	112.07
691.593	127.18
691.786	161.28
691.98	142.29
692.173	190.34
692.366	126.6
692.56	143.07
692.753	195.18
692.947	83.59
693.14	184.92
693.333	179.68
693.527	114.2
693.72	133.77
693.914	146.17
694.107	127.18
694.3	129.5
694.493	143.07
694.687	175.81
694.88	130.67
695.073	193.05
695.266	146.94
695.46	151.98
695.653	217.27
695.846	176.2
696.039	86.1
696.232	125.24
696.425	161.67
696.618	173.48
696.812	123.69
697.005	194.02
697.198	244.2
697.391	174.45
697.584	156.24
697.777	234.51
697.97	205.07
698.163	208.75
698.356	168.83
698.549	270.55
698.742	221.34
698.935	190.53
699.127	212.43
699.32	182.98
699.513	201.38
699.706	193.83
699.899	209.91
700.092	197.12
700.285	209.33
700.477	151.4
700.67	207.58
700.863	240.13
701.056	282.56
701.248	261.06
701.441	277.33
701.634	212.43
701.826	284.7
702.019	187.63
702.212	272.88
702.404	210.68
702.597	209.52
702.79	225.6
702.982	237.42
703.175	260.48
703.367	253.11
703.56	250.4
703.752	333.71
703.945	262.41
704.137	315.31
704.33	286.44
704.522	264.74
704.715	275.98
704.907	299.23
705.1	323.83
705.292	297.1
705.484	269
705.677	316.66
705.869	308.14
706.061	344.18
706.254	369.56
706.446	315.11
706.638	315.11
706.831	378.47
707.023	292.25
707.215	376.34
707.407	330.03
707.599	321.7
707.792	372.66
707.984	340.3
708.176	363.16
708.368	330.03
708.56	367.04
708.752	334.1
708.944	341.66
709.136	367.81
709.329	369.56
709.521	459.46
709.713	413.92
709.905	407.92
710.097	398.23
710.289	372.85
710.481	369.17
710.672	421.67
710.864	382.54
711.056	453.06
711.248	416.64
711.44	430.2
711.632	398.43
711.824	449.19
712.016	478.06
712.207	436.21
712.399	431.36
712.591	528.62
712.783	463.14
712.975	494.14
713.166	439.5
713.358	442.99
713.55	499.37
713.741	519.71
713.933	471.66
714.125	484.06
714.316	467.4
714.508	524.36
714.7	540.25
714.891	522.62
715.083	563.11
715.274	521.45
715.466	477.09
715.657	559.62
715.849	461.2
716.04	543.74
716.232	488.9
716.423	572.6
716.615	473.99
716.806	506.73
716.998	523
717.189	463.91
717.381	451.12
717.572	440.66
717.763	487.74
717.955	478.25
718.146	463.14
718.337	423.03
718.528	431.36
718.72	386.8
718.911	450.35
719.102	409.08
719.293	487.16
719.485	452.48
719.676	447.06
719.867	435.62
720.058	409.47
720.249	444.15
720.44	464.49
720.632	464.49
720.823	502.27
721.014	526.69
721.205	502.27
721.396	575.9
721.587	578.8
721.778	588.49
721.969	566.79
722.16	592.95
722.351	541.8
722.542	660.37
722.733	687.88
722.924	611.55
723.115	631.5
723.305	640.42
723.496	671.22
723.687	611.35
723.878	604.96
724.069	603.8
724.26	640.61
724.45	588.1
724.641	600.5
724.832	599.53
725.023	617.36
725.213	606.32
725.404	580.35
725.595	624.72
725.785	584.23
725.976	696.21
726.167	621.43
726.357	638.48
726.548	698.15
726.739	634.99
726.929	658.43
727.12	697.96
727.31	726.83
727.501	668.7
727.691	706.48
727.882	702.61
728.072	741.16
728.263	707.26
728.453	735.74
728.644	695.83
728.834	709
729.024	714.23
729.215	695.05
729.405	731.28
729.596	781.08
729.786	775.84
729.976	742.13
730.167	770.42
730.357	750.08
730.547	761.89
730.737	782.04
730.928	820.41
731.118	871.75
731.308	789.21
731.498	783.59
731.688	855.47
731.879	832.81
732.069	877.56
732.259	856.44
732.449	820.79
732.639	920.19
732.829	915.34
733.019	927.55
733.209	960.49
733.399	951.77
733.589	968.24
733.779	987.22
733.969	944.21
734.159	1003.69
734.349	1045.35
734.539	1048.83
734.729	1035.47
734.919	1100.95
735.109	1082.93
735.299	1059.3
735.488	1084.48
735.678	1038.57
735.868	1044.77
736.058	1051.93
736.248	1058.52
736.437	1028.68
736.627	1010.28
736.817	1145.9
737.007	1069.95
737.196	1123.62
737.386	1082.35
737.576	1061.04
737.765	1130.79
737.955	1077.32
738.144	1162.37
738.334	1134.86
738.524	1105.99
738.713	1143.96
738.903	1153.65
739.092	1193.37
739.282	1161.01
739.471	1172.45
739.661	1170.51
739.85	1161.21
740.04	1205.77
740.229	1234.64
740.419	1249.17
740.608	1229.02
740.797	1237.93
740.987	1280.56
741.176	1215.84
741.365	1194.53
741.555	1193.18
741.744	1267.58
741.933	1226.69
742.123	1248.59
742.312	1284.82
742.501	1320.08
742.69	1275.32
742.88	1223.21
743.069	1339.84
743.258	1242.58
743.447	1319.89
743.636	1287.53
743.825	1251.69
744.014	1315.04
744.204	1276.87
744.393	1270.87
744.582	1295.47
744.771	1371.04
744.96	1299.93
745.149	1333.06
745.338	1279.59
745.527	1357.86
745.716	1267.38
745.905	1276.29
746.094	1311.36
746.283	1325.31
746.471	1344.49
746.66	1388.86
746.849	1353.6
747.038	1414.44
747.227	1331.12
747.416	1360.38
747.604	1367.74
747.793	1307.1
747.982	1379.37
748.171	1358.06
748.359	1379.75
748.548	1390.6
748.737	1382.47
748.926	1322.99
749.114	1274.94
749.303	1353.21
749.491	1366.39
749.68	1307.29
749.869	1401.84
750.057	1322.02
750.246	1347.01
750.434	1351.08
750.623	1369.49
750.811	1341.2
751	1394.29
751.188	1358.83
751.377	1381.11
751.565	1348.37
751.754	1313.49
751.942	1316.79
752.131	1372.59
752.319	1314.46
752.507	1253.82
752.696	1366
752.884	1382.66
753.072	1360.38
753.261	1354.96
753.449	1343.72
753.637	1319.5
753.825	1437.49
754.014	1336.74
754.202	1344.49
754.39	1421.22
754.578	1347.79
754.766	1336.74
754.955	1339.65
755.143	1453.38
755.331	1321.24
755.519	1307.49
755.707	1315.43
755.895	1323.76
756.083	1345.46
756.271	1309.62
756.459	1331.71
756.647	1404.17
756.835	1345.85
757.023	1310.97
757.211	1322.6
757.399	1349.92
757.587	1334.42
757.775	1252.66
757.963	1323.37
758.151	1316.01
758.339	1294.89
758.526	1288.5
758.714	1311.17
758.902	1267.96
759.09	1253.82
759.278	1164.7
759.465	1081.97
759.653	913.79
759.841	879.69
760.028	697.38
760.216	584.81
760.404	645.65
760.591	497.82
760.779	411.79
760.967	376.53
761.154	275.4
761.342	321.51
761.529	336.62
761.717	363.74
761.905	324.22
762.092	354.06
762.28	343.21
762.467	340.3
762.655	295.74
762.842	330.81
763.029	340.88
763.217	324.22
763.404	336.04
763.592	338.36
763.779	271.91
763.966	350.96
764.154	360.26
764.341	388.74
764.528	391.45
764.716	432.91
764.903	461.01
765.09	461.78
765.277	468.17
765.465	565.05
765.652	579.77
765.839	600.7
766.026	643.71
766.213	652.23
766.4	711.91
766.588	846.17
766.775	765.58
766.962	859.16
767.149	844.24
767.336	947.7
767.523	875.24
767.71	955.84
767.897	1023.84
768.084	1079.06
768.271	1008.54
768.458	1074.41
768.645	1128.66
768.832	1065.88
769.019	1040.7
769.206	1093.01
769.392	1138.15
769.579	1244.91
769.766	1174
769.953	1160.63
770.14	1196.66
770.327	1159.85
770.513	1235.8
770.7	1258.47
770.887	1190.27
771.073	1252.46
771.26	1213.33
771.447	1202.48
771.634	1160.82
771.82	1290.05
772.007	1183.3
772.193	1234.25
772.38	1236.58
772.567	1229.79
772.753	1243.16
772.94	1255.95
773.126	1247.43
773.313	1261.76
773.499	1268.93
773.686	1240.45
773.872	1209.06
774.059	1236.19
774.245	1172.45
774.432	1186.01
774.618	1168.38
774.804	1222.43
774.991	1186.4
775.177	1232.7
775.363	1211.97
775.55	1248.39
775.736	1174.38
775.922	1208.68
776.109	1170.12
776.295	1209.26
776.481	1240.06
776.667	1206.35
776.853	1215.26
777.04	1174.96
777.226	1194.92
777.412	1282.3
777.598	1179.03
777.784	1160.63
777.97	1185.04
778.156	1229.79
778.342	1177.48
778.528	1170.12
778.715	1136.99
778.901	1151.71
779.087	1224.18
779.272	1144.74
779.458	1135.44
779.644	1179.23
779.83	1168.96
780.016	1220.11
780.202	1205.19
780.388	1140.48
780.574	1099.4
780.76	1157.33
780.946	1158.5
781.131	1177.68
781.317	1144.16
781.503	1125.75
781.689	1119.75
781.874	1263.89
782.06	1145.13
782.246	1134.28
782.432	1122.46
782.617	1141.06
782.803	1198.41
782.989	1088.75
783.174	1125.56
783.36	1067.24
783.545	1131.95
783.731	1110.64
783.916	1075.57
784.102	1123.23
784.288	1111.8
784.473	1110.83
784.659	1074.8
784.844	1167.41
785.029	1087.58
785.215	1094.37
785.4	1074.6
785.586	1131.37
785.771	1088.75
785.956	1092.43
786.142	1113.35
786.327	1025.97
786.512	1076.54
786.698	1106.96
786.883	1051.55
787.068	1046.32
787.254	1074.99
787.439	1058.52
787.624	1044.57
787.809	1067.43
787.994	1044.57
788.18	1101.15
788.365	1051.35
788.55	1064.14
788.735	1052.9
788.92	1020.16
789.105	1046.32
789.29	1069.76
789.475	993.42
789.66	1018.8
789.845	996.14
790.03	1003.69
790.215	1062.78
790.4	1058.33
790.585	1090.1
790.77	1034.5
790.955	929.29
791.14	1027.33
791.325	1046.12
791.51	950.6
791.695	985.29
791.879	988.39
792.064	949.83
792.249	1045.93
792.434	986.06
792.618	989.16
792.803	1011.25
792.988	1005.44
793.173	978.5
793.357	1020.55
793.542	972.69
793.727	1004.85
793.911	1027.72
794.096	979.09
794.281	1023.26
794.465	1102.31
794.65	981.99
794.834	1019.19
795.019	1055.23
795.203	1030.82
795.388	1067.24
795.572	1057.17
795.757	1029.07
795.941	1019.97
796.126	1071.12
796.31	969.4
796.494	1037.4
796.679	994.2
796.863	972.89
797.048	1040.89
797.232	1037.6
797.416	1024.62
797.601	991.1
797.785	1070.73
797.969	1072.08
798.153	991.49
798.338	1009.7
798.522	1020.93
798.706	1005.82
798.89	1031.4
799.074	1086.03
799.258	1044.77
799.443	992.45
799.627	1017.25
799.811	1061.23
799.995	1026.94
800.179	1022.68
800.363	987.42
800.547	1062.2
800.731	1059.3
800.915	990.52
801.099	1007.57
801.283	1058.72
801.467	1008.92
801.651	975.99
801.835	1089.13
802.019	1022.1
802.202	1020.74
802.386	1006.6
802.57	1007.18
802.754	1024.62
802.938	1018.03
803.121	999.43
803.305	1073.63
803.489	1018.22
803.673	1040.31
803.856	1053.48
804.04	1040.89
804.224	1042.05
804.407	1029.46
804.591	999.43
804.775	1013.18
804.958	1017.25
805.142	1155.98
805.326	1024.81
805.509	1031.78
805.693	1053.1
805.876	1069.76
806.06	1003.69
806.243	1030.23
806.427	1085.45
806.61	1072.47
806.794	997.88
806.977	1084.87
807.16	1048.25
807.344	1027.91
807.527	1023.65
807.71	986.45
807.894	1044.38
808.077	1082.16
808.26	1017.06
808.444	1006.79
808.627	1084.29
808.81	991.87
808.993	994.97
809.177	950.22
809.36	1011.83
809.543	1036.82
809.726	960.87
809.909	987.42
810.092	960.1
810.276	993.23
810.459	987.22
810.642	977.92
810.825	962.42
811.008	970.17
811.191	892.29
811.374	910.5
811.557	926.58
811.74	1024.81
811.923	902.36
812.106	885.51
812.289	855.67
812.472	871.17
812.654	910.11
812.837	879.69
813.02	864.39
813.203	858.38
813.386	779.91
813.569	804.13
813.751	781.46
813.934	828.54
814.117	799.87
814.3	764.8
814.482	753.95
814.665	763.06
814.848	738.84
815.03	727.8
815.213	730.9
815.396	723.15
815.578	689.63
815.761	675.48
815.943	747.56
816.126	659.6
816.309	642.74
816.491	641.97
816.674	595.85
816.856	659.21
817.039	621.43
817.221	686.53
817.403	622.2
817.586	643.52
817.768	656.69
817.951	595.85
818.133	620.85
818.315	619.3
818.498	648.94
818.68	697.57
818.862	659.98
819.045	700.48
819.227	666.96
819.409	624.14
819.591	681.1
819.774	673.16
819.956	608.83
820.138	693.11
820.32	684.2
820.502	672.58
820.684	710.55
820.866	736.13
821.048	754.92
821.231	750.27
821.413	738.84
821.595	725.08
821.777	718.5
821.959	698.73
822.141	785.34
822.323	694.66
822.505	666.57
822.686	642.16
822.868	642.16
823.05	613.1
823.232	594.88
823.414	578.8
823.596	587.13
823.778	558.85
823.96	572.99
824.141	586.75
824.323	581.9
824.505	615.62
824.687	634.02
824.868	640.22
825.05	715.98
825.232	713.65
825.413	792.51
825.595	714.62
825.777	673.16
825.958	716.36
826.14	719.08
826.321	749.3
826.503	717.33
826.685	723.73
826.866	735.74
827.048	715.78
827.229	695.25
827.411	653.2
827.592	681.68
827.773	668.12
827.955	646.03
828.136	633.25
828.318	622.98
828.499	666.57
828.68	583.65
828.862	658.63
829.043	664.63
829.224	633.44
829.406	636.73
829.587	632.67
829.768	616.78
829.949	657.47
830.131	626.08
830.312	727.99
830.493	640.42
830.674	677.81
830.855	663.47
831.036	635.57
831.218	725.66
831.399	706.87
831.58	661.53
831.761	656.88
831.942	667.15
832.123	671.22
832.304	588.49
832.485	607.67
832.666	642.16
832.847	668.51
833.028	630.15
833.209	634.6
833.389	615.23
833.57	599.73
833.751	627.43
833.932	686.91
834.113	641.38
834.294	615.42
834.475	662.7
834.655	648.55
834.836	695.05
835.017	658.63
835.198	590.04
835.378	645.26
835.559	680.13
835.74	665.21
835.92	628.02
836.101	623.56
836.281	663.28
836.462	667.15
836.643	701.83
836.823	678.78
837.004	678.2
837.184	724.11
837.365	695.05
837.545	723.34
837.726	653.98
837.906	742.13
838.087	656.69
838.267	652.62
838.448	610.19
838.628	674.13
838.808	682.26
838.989	735.35
839.169	651.46
839.349	676.45
839.53	696.6
839.71	700.67
839.89	653.2
840.07	752.98
840.251	621.62
840.431	698.35
840.611	685.17
840.791	616.2
840.971	676.45
841.151	679.94
841.332	656.11
841.512	721.01
841.692	609.61
841.872	662.12
842.052	681.68
842.232	693.11
842.412	633.44
842.592	647.97
842.772	686.91
842.952	665.8
843.132	653.98
843.312	619.3
843.492	629.37
843.672	667.73
843.851	606.51
844.031	673.35
844.211	684.01
844.391	639.25
844.571	622.01
844.751	696.8
844.93	659.79
845.11	640.8
845.29	661.92
845.47	688.27
845.649	636.93
845.829	688.85
846.009	600.5
846.188	641.58
846.368	658.43
846.547	649.52
846.727	691.37
846.907	598.18
847.086	671.41
847.266	669.48
847.445	644.1
847.625	645.84
847.804	617.75
847.984	649.72
848.163	616.2
848.343	621.82
848.522	643.52
848.701	637.51
848.881	622.4
849.06	628.02
849.239	672.38
849.419	652.43
849.598	591.01
849.777	637.7
849.957	624.53
850.136	574.74
850.315	565.24
850.494	560.98
850.674	571.83
850.853	649.72
851.032	581.13
851.211	646.23
851.39	614.84
851.569	573.19
851.748	560.2
851.927	612.9
852.107	594.3
852.286	566.02
852.465	551.49
852.644	623.56
852.823	627.63
853.002	580.93
853.181	569.31
853.359	602.83
853.538	514.48
853.717	656.69
853.896	569.31
854.075	520.1
854.254	538.31
854.433	497.24
854.611	583.07
854.79	492.2
854.969	517.39
855.148	555.36
855.327	484.84
855.505	536.18
855.684	517
855.863	548.39
856.041	494.72
856.22	550.71
856.399	476.12
856.577	590.82
856.756	529.79
856.934	682.46
857.113	637.12
857.291	588.68
857.47	565.63
857.648	552.07
857.827	577.64
858.005	614.84
858.184	550.9
858.362	627.82
858.541	564.47
858.719	579.77
858.898	550.32
859.076	559.43
859.254	645.26
859.433	536.18
859.611	550.32
859.789	503.05
859.967	611.93
860.146	625.5
860.324	520.29
860.502	542.96
860.68	512.74
860.859	516.8
861.037	559.43
861.215	566.99
861.393	545.48
861.571	530.75
861.749	531.53
861.927	534.44
862.105	565.82
862.283	550.13
862.461	502.66
862.639	487.74
862.817	529.01
862.995	524.75
863.173	489.1
863.351	575.7
863.529	536.18
863.707	561.56
863.885	510.22
864.063	490.26
864.241	473.41
864.418	541.02
864.596	503.82
864.774	470.5
864.952	512.93
865.129	550.32
865.307	490.65
865.485	483.67
865.663	548.97
865.84	497.04
866.018	516.8
866.196	405.01
866.373	468.17
866.551	445.12
866.728	366.07
866.906	437.95
867.084	440.86
867.261	491.23
867.439	473.41
867.616	482.51
867.794	480.57
867.971	457.52
868.149	481.93
868.326	531.14
868.503	491.04
868.681	495.88
868.858	452.09
869.035	455.39
869.213	505.37
869.39	471.86
869.567	517.97
869.745	444.73
869.922	511.77
870.099	473.41
870.276	510.6
870.454	489.87
870.631	476.12
870.808	491.42
870.985	518.16
871.162	575.9
871.339	485.81
871.517	443.18
871.694	454.81
871.871	449.57
872.048	497.43
872.225	452.87
872.402	503.63
872.579	446.47
872.756	479.41
872.933	411.6
873.11	461.39
873.287	486
873.463	460.23
873.64	446.28
873.817	475.15
873.994	446.86
874.171	461.97
874.348	488.9
874.524	393.39
874.701	444.34
874.878	386.41
875.055	478.83
875.231	444.34
875.408	494.72
875.585	442.41
875.762	444.73
875.938	461.59
876.115	443.37
876.291	414.89
876.468	441.24
876.645	419.54
876.821	456.36
876.998	418.77
877.174	423.61
877.351	441.24
877.527	431.75
877.704	468.17
877.88	466.82
878.057	412.57
878.233	466.04
878.409	425.94
878.586	443.96
878.762	438.53
878.938	433.88
879.115	360.45
879.291	426.13
879.467	360.45
879.644	363.16
879.82	428.07
879.996	388.93
880.172	382.15
880.349	408.31
880.525	454.03
880.701	390.68
880.877	380.21
881.053	433.88
881.229	399.2
881.405	423.81
881.581	380.21
881.757	405.01
881.933	443.96
882.109	440.86
882.285	399.39
882.461	374.4
882.637	386.41
882.813	363.36
882.989	375.37
883.165	461.2
883.341	355.99
883.517	426.32
883.693	395.71
883.869	412.18
884.044	385.25
884.22	430.97
884.396	435.24
884.572	436.4
884.747	444.73
884.923	403.46
885.099	439.89
885.275	414.12
885.45	381.18
885.626	401.91
885.801	376.73
885.977	385.83
886.153	365.29
886.328	383.89
886.504	390.87
886.679	413.15
886.855	375.76
887.03	421.67
887.206	449.57
887.381	426.52
887.557	400.36
887.732	429.42
887.908	436.01
888.083	466.24
888.258	368.39
888.434	379.83
888.609	381.57
888.784	453.45
888.96	398.81
889.135	356.19
889.31	366.84
889.485	398.43
889.661	380.79
889.836	435.24
890.011	399.01
890.186	383.89
890.361	374.79
890.537	431.56
890.712	380.21
890.887	395.13
891.062	390.29
891.237	451.51
891.412	350.76
891.587	411.6
891.762	406.76
891.937	449.96
892.112	371.11
892.287	387.58
892.462	374.21
892.637	353.28
892.812	353.09
892.987	354.06
893.161	334.29
893.336	376.73
893.511	398.23
893.686	371.11
893.861	365.29
894.035	379.44
894.21	361.23
894.385	334.1
894.56	389.71
894.734	330.03
894.909	329.64
895.084	334.88
895.258	341.66
895.433	355.03
895.608	325.38
895.782	330.61
895.957	307.95
896.131	291.67
896.306	281.21
896.48	287.99
896.655	322.86
896.829	250.4
897.004	260.48
897.178	271.33
897.353	262.41
897.527	312.79
897.701	274.23
897.876	232.77
898.05	293.61
898.224	278.5
898.399	332.74
898.573	334.68
898.747	226.96
898.921	306.4
899.096	207.39
899.27	220.76
899.444	227.73
899.618	238.2
899.792	243.23
899.967	227.15
900.141	247.88
900.315	195.96
900.489	238.2
900.663	251.76
900.837	219.4
901.011	186.85
901.185	321.7
901.359	253.89
901.533	244.78
901.707	254.08
901.881	249.05
902.055	200.8
902.229	209.33
902.403	272.88
902.576	258.93
902.75	233.35
902.924	337.01
903.098	250.01
903.272	307.75
903.446	319.96
903.619	272.88
903.793	304.46
903.967	289.54
904.14	317.83
904.314	314.92
904.488	297.68
904.661	319.96
904.835	295.93
905.009	314.53
905.182	331
905.356	319.96
905.529	308.72
905.703	287.41
905.876	275.01
906.05	256.41
906.223	261.45
906.397	198.09
906.57	226.38
906.744	202.93
906.917	227.15
907.09	249.63
907.264	251.56
907.437	206.23
907.61	192.08
907.784	233.93
907.957	225.6
908.13	189.95
908.304	257.76
908.477	202.16
908.65	228.31
908.823	167.28
908.996	281.21
909.17	210.88
909.343	219.79
909.516	211.07
909.689	252.73
909.862	191.12
910.035	202.35
910.208	198.28
910.381	202.55
910.554	292.25
910.727	189.18
910.9	192.28
911.073	194.41
911.246	241.49
911.419	245.95
911.592	213.4
911.765	187.63
911.938	199.45
912.11	227.73
912.283	201.38
912.456	246.91
912.629	221.15
912.802	186.85
912.974	169.42
913.147	169.61
913.32	104.32
913.493	160.5
913.665	194.22
913.838	171.93
914.01	167.28
914.183	164.18
914.356	157.79
914.528	186.66
914.701	262.61
914.873	201
915.046	160.5
915.218	189.76
915.391	111.29
915.563	145.39
915.736	191.5
915.908	200.03
916.081	168.06
916.253	154.88
916.425	162.83
916.598	187.82
916.77	183.75
916.942	144.23
917.115	109.35
917.287	190.34
917.459	190.15
917.632	145.58
917.804	94.82
917.976	166.12
918.148	153.33
918.32	162.44
918.493	190.73
918.665	223.86
918.837	185.5
919.009	232.19
919.181	238.58
919.353	194.99
919.525	166.9
919.697	188.79
919.869	172.71
920.041	223.86
920.213	254.66
920.385	193.05
920.557	164.18
920.729	185.69
920.901	176.58
921.073	146.55
921.244	171.55
921.416	204.87
921.588	190.92
921.76	142.68
921.932	266.29
922.103	187.05
922.275	188.6
922.447	184.53
922.619	99.86
922.79	181.43
922.962	161.28
923.134	207.2
923.305	150.62
923.477	136.67
923.648	150.23
923.82	165.54
923.991	95.79
924.163	116.52
924.335	143.07
924.506	125.24
924.677	172.71
924.849	132.02
925.02	154.88
925.192	168.25
925.363	156.43
925.535	166.9
925.706	164.18
925.877	201.19
926.049	119.24
926.22	171.74
926.391	178.72
926.562	195.96
926.734	119.43
926.905	172.52
927.076	98.31
927.247	149.46
927.419	104.7
927.59	137.45
927.761	142.87
927.932	126.79
928.103	146.55
928.274	95.4
928.445	112.45
928.616	118.85
928.787	118.46
928.958	142.48
929.129	143.45
929.3	139.58
929.471	84.75
929.642	63.05
929.813	49.29
929.984	123.89
930.155	52
930.326	120.59
930.496	41.16
930.667	36.89
930.838	93.08
931.009	46
931.18	64.79
931.35	63.24
931.521	76.03
931.692	22.94
931.863	6.09
932.033	80.87
932.204	71.38
932.374	86.69
932.545	51.04
932.716	94.05
932.886	60.34
933.057	27.01
933.227	7.06
933.398	137.06
933.568	26.43
933.739	-13.87
933.909	26.62
934.08	70.22
934.25	-15.23
934.421	-19.68
934.591	38.44
934.761	8.41
934.932	-37.89
935.102	18.29
935.272	1.44
935.443	9.77
935.613	-3.6
935.783	21.2
935.953	-26.66
936.123	151.2
936.294	4.73
936.464	13.45
936.634	30.31
936.804	-4.18
936.974	2.21
937.144	49.68
937.314	24.69
937.484	22.17
937.655	-18.91
937.825	77.19
937.995	-13.29
938.165	60.72
938.334	-20.07
938.504	19.84
938.674	-12.71
938.844	7.83
939.014	29.53
939.184	17.52
939.354	68.09
939.524	57.04
939.694	13.26
939.863	33.6
940.033	81.26
940.203	61.89
940.373	68.28
940.542	81.07
940.712	20.23
940.882	57.04
941.051	68.09
941.221	49.49
941.391	76.42
941.56	23.52
941.73	-4.76
941.899	132.02
942.069	23.72
942.238	64.21
942.408	13.84
942.577	57.82
942.747	14.81
942.916	-25.88
943.086	2.21
943.255	74.48
943.425	42.32
943.594	3.96
943.763	-42.74
943.933	-32.28
944.102	-30.73
944.271	55.3
944.441	28.95
944.61	26.04
944.779	13.45
944.948	99.86
945.117	-9.61
945.287	5.12
945.456	-50.68
945.625	9.96
945.794	28.95
945.963	23.72
946.132	22.94
946.301	5.89
946.47	53.75
946.639	-62.11
946.808	-2.05
946.977	34.96
947.146	52.39
947.315	-12.13
947.484	39.8
947.653	6.47
947.822	26.62
947.991	-1.86
948.16	99.67
948.329	64.99
948.498	9.77
948.666	14.81
948.835	33.79
949.004	-39.25
949.173	-16
949.341	52.2
949.51	37.09
949.679	66.34
949.847	53.75
950.016	93.66
950.185	74.67
950.353	24.3
950.522	23.14
950.69	26.62
950.859	3.37
951.028	60.53
951.196	38.25
951.365	-10.96
951.533	18.29
951.701	74.29
951.87	73.51
952.038	-1.86
952.207	9.38
952.375	108.19
952.543	-5.93
952.712	28.17
952.88	-10.19
953.048	84.75
953.217	38.44
953.385	45.22
953.553	71.38
953.721	11.71
953.89	22.36
954.058	-7.28
954.226	-32.47
954.394	34.57
954.562	-16.58
954.73	25.07
954.898	-20.84
955.067	45.03
955.235	1.24
955.403	63.63
955.571	110.9
955.739	55.1
955.907	3.76
956.075	-2.44
956.243	-28.01
956.41	36.31
956.578	-35.38
956.746	-37.51
956.914	11.51
957.082	40.38
957.25	37.86
957.418	-10.77
957.585	18.29
957.753	41.93
957.921	-21.62
958.089	15
958.256	17.91
958.424	42.51
958.592	35.73
958.759	19.07
958.927	58.4
959.095	-6.12
959.262	38.06
959.43	28.76
959.597	-6.7
959.765	19.26
959.932	-20.26
960.1	39.61
960.267	33.41
960.435	18.87
960.602	46.97
960.77	19.65
960.937	-36.54
961.104	13.84
961.272	-29.37
961.439	-5.93
961.606	40.77
961.774	42.12
961.941	16.36
962.108	54.14
962.275	15.39
962.443	52
962.61	46.58
962.777	109.74
962.944	46.97
963.111	54.91
963.278	29.72
963.446	16.55
963.613	38.25
963.78	52.2
963.947	55.69
964.114	30.69
964.281	106.25
964.448	63.82
964.615	-1.47
964.782	23.52
964.949	51.04
965.116	41.93
965.282	87.46
965.449	27.01
965.616	11.9
965.783	33.99
965.95	25.66
966.117	0.47
966.283	33.21
966.45	54.14
966.617	45.81
966.784	82.04
966.95	54.14
967.117	49.87
967.284	-16.19
967.45	27.21
967.617	74.87
967.784	45.61
967.95	114.59
968.117	52.39
968.283	73.32
968.45	139.38
968.616	28.76
968.783	54.33
968.949	58.98
969.116	48.52
969.282	31.66
969.449	58.2
969.615	21.2
969.781	-12.51
969.948	28.76
970.114	-12.13
970.28	81.07
970.447	35.34
970.613	82.23
970.779	18.49
970.945	43.67
971.112	20.04
971.278	26.24
971.444	32.05
971.61	64.6
971.776	12.09
971.942	23.14
972.108	69.44
972.275	14.81
972.441	45.81
972.607	115.75
972.773	29.53
972.939	65.37
973.105	32.24
973.271	-25.3
973.437	10.54
973.602	1.24
973.768	43.87
973.934	37.47
974.1	38.44
974.266	-36.54
974.432	29.34
974.598	11.12
974.763	77
974.929	19.07
975.095	92.3
975.261	-0.31
975.426	8.8
975.592	27.21
975.758	86.69
975.923	-16.58
976.089	28.17
976.255	79.32
976.42	51.62
976.586	58.4
976.751	26.24
976.917	121.17
977.082	38.64
977.248	10.93
977.413	-21.81
977.579	24.69
977.744	28.76
977.91	-1.66
978.075	0.86
978.24	47.55
978.406	13.64
978.571	35.54
978.736	-3.6
978.902	45.61
979.067	-5.54
979.232	-34.79
979.397	39.41
979.563	91.72
979.728	-2.05
979.893	40.38
980.058	21.39
980.223	41.54
980.388	40.77
980.554	27.01
980.719	15.19
980.884	49.1
981.049	78.74
981.214	-3.02
981.379	39.22
981.544	17.91
981.709	30.5
981.874	10.74
982.039	3.76
982.204	75.84
982.368	29.14
982.533	-23.75
982.698	49.68
982.863	58.01
983.028	27.59
983.193	53.94
983.357	39.41
983.522	25.07
983.687	12.29
983.852	16.16
984.016	28.37
984.181	26.62
984.346	30.31
984.51	55.3
984.675	8.02
984.839	53.94
985.004	58.01
985.168	65.95
985.333	56.46
985.498	40.57
985.662	59.17
985.827	51.62
985.991	46.77
986.155	31.86
986.32	72.74
986.484	75.06
986.649	41.74
986.813	-16.97
986.977	33.79
987.142	57.24
987.306	3.37
987.47	12.09
987.634	59.95
987.799	46.97
987.963	41.74
988.127	52.59
988.291	102.77
988.455	57.04
988.62	42.71
988.784	72.35
988.948	64.99
989.112	5.89
989.276	49.1
989.44	18.1
989.604	10.54
989.768	6.47
989.932	91.72
990.096	12.87
990.26	-16.39
990.424	-19.49
990.588	46.77
990.752	69.44
990.915	39.02
991.079	3.96
991.243	41.16
991.407	56.85
991.571	26.24
991.734	57.82
991.898	49.29
992.062	109.16
992.226	9.96
992.389	-9.8
992.553	-21.04
992.717	-4.57
992.88	1.24
993.044	22.94
993.207	45.42
993.371	64.4
993.535	22.56
993.698	30.69
993.862	55.49
994.025	69.44
994.189	22.36
994.352	29.34
994.515	36.51
994.679	60.72
994.842	17.91
995.006	46.58
995.169	-7.86
995.332	22.56
995.496	46.39
995.659	-22.01
995.822	53.36
995.985	49.87
996.149	67.5
996.312	14.22
996.475	82.81
996.638	0.27
996.801	91.14
996.964	77.97
997.128	41.93
997.291	26.82
997.454	43.48
997.617	-25.88
997.78	79.32
997.943	17.71
998.106	71.77
998.269	-11.54
998.432	26.24
998.595	40.77
998.758	-12.71
998.92	-13.48
999.083	-17.55
999.246	6.47
999.409	-21.43
999.572	-0.31
999.735	13.26
999.897	12.48
1000.06	7.06
1000.223	13.06
1000.386	41.35
1000.548	54.14
1000.711	43.67
1000.874	23.33
1001.036	-0.69
1001.199	74.87
1001.361	42.9
1001.524	26.24
1001.687	48.13
1001.849	6.47
1002.012	47.36
1002.174	41.16
1002.337	54.33
1002.499	6.47
1002.661	49.1
1002.824	-9.41
1002.986	5.31
1003.149	21.2
1003.311	-19.88
1003.473	92.11
1003.636	2.41
1003.798	25.85
1003.96	30.89
1004.123	15.39
1004.285	19.46
1004.447	7.25
1004.609	23.91
1004.771	105.67
1004.933	-41.96
1005.096	8.41
1005.258	-1.47
1005.42	19.07
1005.582	64.21
1005.744	39.99
1005.906	-14.84
1006.068	20.42
1006.23	0.66
1006.392	-32.28
1006.554	-3.41
1006.716	36.12
1006.878	28.76
1007.04	-28.21
1007.202	0.66
1007.363	13.64
1007.525	24.49
1007.687	56.46
1007.849	51.81
1008.011	-39.06
1008.172	-20.46
1008.334	13.45
1008.496	32.24
1008.658	-33.24
1008.819	-8.64
1008.981	-21.81
1009.143	-9.61
1009.304	-0.69
1009.466	44.84
1009.627	62.85
1009.789	122.72
1009.95	24.88
1010.112	4.92
1010.273	50.65
1010.435	-15.61
1010.596	16.36
1010.758	1.44
1010.919	-19.68
1011.081	-32.47
1011.242	7.83
1011.403	53.36
1011.565	24.49
1011.726	38.64
1011.887	-11.54
1012.049	7.06
1012.21	29.92
1012.371	75.64
1012.532	-33.05
1012.693	42.71
1012.855	4.15
1013.016	25.27
1013.177	24.88
1013.338	-0.11
1013.499	79.32
1013.66	21.59
1013.821	21.39
1013.982	44.84
1014.143	-0.89
1014.304	-2.24
1014.465	43.67
1014.626	35.34
1014.787	-6.31
1014.948	99.47
1015.109	-40.61
1015.27	56.07
1015.431	-5.54
1015.592	-6.12
1015.752	59.95
1015.913	18.68
1016.074	47.16
1016.235	24.49
1016.395	-1.66
1016.556	43.67
1016.717	26.43
1016.877	34.57
1017.038	-0.89
1017.199	38.25
1017.359	22.36
1017.52	0.08
1017.681	18.68
1017.841	-13.48
1018.002	-13.09
1018.162	17.32
1018.323	56.46
1018.483	-9.22
1018.644	2.41
1018.804	-14.64
1018.964	-44.87
1019.125	-9.22
1019.285	12.87
1019.446	-17.55
1019.606	-27.63
1019.766	-27.24
1019.926	25.46
1020.087	42.71
1020.247	-36.73
1020.407	33.21
1020.567	65.18
1020.728	-3.99
1020.888	-19.88
1021.048	-19.88
1021.208	-15.23
1021.368	-34.21
1021.528	46.58
1021.688	40.19
1021.848	62.66
1022.008	56.65
1022.168	-16.39
1022.328	16.55
1022.488	2.02
1022.648	-22.01
1022.808	29.92
1022.968	-0.89
1023.128	-22.59
1023.288	5.7
1023.448	9.38
1023.608	42.51
1023.767	47.55
1023.927	-39.44
1024.087	-30.14
1024.247	-53.97
1024.406	22.56
1024.566	-16.78
1024.726	-16.19
1024.885	8.99
1025.045	50.26
1025.205	11.32
1025.364	2.79
1025.524	12.09
1025.683	4.34
1025.843	58.2
1026.003	21.39
1026.162	64.6
1026.321	29.72
1026.481	-2.05
1026.64	3.76
1026.8	30.5
1026.959	11.9
1027.119	29.14
1027.278	-16.97
1027.437	-8.44
1027.597	-5.54
1027.756	15.97
1027.915	35.73
1028.074	44.45
1028.234	13.84
1028.393	22.56
1028.552	-16.58
1028.711	-78.97
1028.87	77.58
1029.03	-19.1
1029.189	7.06
1029.348	-33.63
1029.507	-6.12
1029.666	-12.51
1029.825	-30.73
1029.984	-22.98
1030.143	12.09
1030.302	8.22
1030.461	-67.73
1030.62	24.3
1030.779	31.27
1030.938	-22.2
1031.097	-48.16
1031.255	47.74
1031.414	56.27
1031.573	55.49
1031.732	-45.84
1031.891	-14.64
1032.049	41.74
1032.208	20.04
1032.367	6.67
1032.525	-17.55
1032.684	10.16
1032.843	6.28
1033.001	-36.92
1033.16	149.85
1033.319	53.36
1033.477	17.71
1033.636	0.27
1033.794	-42.74
1033.953	51.04
1034.111	25.46
1034.27	-32.28
1034.428	4.54
1034.587	-42.93
1034.745	-2.05
1034.903	32.44
1035.062	35.92
1035.22	-46.22
1035.378	18.68
1035.537	-12.13
1035.695	17.52
1035.853	3.96
1036.011	23.33
1036.17	12.67
1036.328	-38.28
1036.486	5.89
1036.644	-25.3
1036.802	-60.17
1036.96	-17.74
1037.119	-10.77
1037.277	5.89
1037.435	-29.37
1037.593	2.41
1037.751	8.61
1037.909	26.43
1038.067	26.43
