Data from pine_FLMT105791__92__17-21-32-077.txt Node

Date: Mon Mar 20 17:21:32 GMT 2023
User: antho
Spectrometer: FLMT10579
Trigger mode: 0
Integration Time (sec): 1.000000E-1
Scans to average: 10
Electric dark correction enabled: true
Nonlinearity correction enabled: false
Boxcar width: 0
XAxis mode: Wavelengths
Number of Pixels in Spectrum: 3648
>>>>>Begin Spectral Data<<<<<
345.248	-153.19
345.464	-153.19
345.681	-153.19
345.898	-177.6
346.114	-158.61
346.331	-51.08
346.548	29.9
346.764	12.08
346.981	-19.31
347.197	-12.53
347.414	25.06
347.631	-15.63
347.847	55.28
348.064	10.14
348.28	6.85
348.497	-38.49
348.713	-2.26
348.93	17.11
349.146	5.3
349.363	-2.26
349.579	30.48
349.796	-10.98
350.012	-5.55
350.229	40.95
350.445	8.78
350.661	-7.3
350.878	3.94
351.094	19.44
351.311	23.7
351.527	12.85
351.743	-21.83
351.96	15.95
352.176	46.95
352.392	50.44
352.609	33.2
352.825	-11.17
353.041	-5.94
353.257	-12.92
353.474	7.62
353.69	3.16
353.906	8.4
354.122	-44.69
354.339	61.29
354.555	-1.68
354.771	-3.42
354.987	51.02
355.203	41.72
355.42	-7.3
355.636	-7.69
355.852	-15.05
356.068	4.13
356.284	-30.35
356.5	43.08
356.716	-4
356.932	-7.88
357.148	19.05
357.364	-5.36
357.58	59.16
357.796	59.35
358.012	18.47
358.228	13.24
358.444	-57.67
358.66	69.62
358.876	7.62
359.092	-47.4
359.308	10.72
359.524	36.88
359.74	2.78
359.956	-15.24
360.172	2.2
360.388	26.41
360.604	8.98
360.819	77.95
361.035	21.76
361.251	28.93
361.467	0.65
361.683	32.81
361.898	30.1
362.114	32.23
362.33	24.67
362.546	34.36
362.762	23.7
362.977	11.3
363.193	-24.93
363.409	41.33
363.624	-17.37
363.84	-16.99
364.056	-11.75
364.271	13.63
364.487	17.11
364.703	-33.45
364.918	-14.27
365.134	4.52
365.35	-15.44
365.565	103.91
365.781	6.46
365.996	10.91
366.212	74.08
366.427	30.68
366.643	-7.1
366.858	-14.66
367.074	-24.15
367.289	67.29
367.505	97.13
367.72	-45.27
367.936	-10.59
368.151	46.56
368.367	24.67
368.582	20.21
368.798	25.45
369.013	52.96
369.228	8.4
369.444	4.13
369.659	59.93
369.874	28.35
370.09	36.1
370.305	-70.65
370.52	25.83
370.736	44.05
370.951	9.95
371.166	64
371.381	65.94
371.597	51.02
371.812	10.14
372.027	-28.42
372.242	1.23
372.458	84.93
372.673	-5.94
372.888	5.49
373.103	15.56
373.318	89.58
373.533	31.84
373.749	61.48
373.964	-46.82
374.179	38.62
374.394	-11.75
374.609	77.56
374.824	-18.15
375.039	67.29
375.254	-30.16
375.469	45.79
375.684	33.97
375.899	63.61
376.114	-3.42
376.329	27
376.544	52.96
376.759	50.44
376.974	-2.65
377.189	-2.84
377.404	-3.62
377.619	33.97
377.834	-5.17
378.049	-28.22
378.264	-27.64
378.478	5.49
378.693	-13.3
378.908	35.33
379.123	-1.29
379.338	50.25
379.553	32.23
379.767	18.86
379.982	13.43
380.197	20.41
380.412	28.16
380.626	30.1
380.841	80.08
381.056	28.93
381.271	60.13
381.485	-22.22
381.7	-15.44
381.915	6.46
382.129	2.39
382.344	29.51
382.559	14.6
382.773	41.91
382.988	-50.5
383.202	-0.71
383.417	-25.51
383.632	99.65
383.846	18.66
384.061	11.11
384.275	9.95
384.49	19.25
384.704	37.07
384.919	26.8
385.133	18.47
385.348	30.87
385.562	-28.42
385.777	53.73
385.991	18.28
386.206	-4
386.42	2
386.634	61.29
386.849	47.73
387.063	29.71
387.277	-24.54
387.492	-8.65
387.706	-10.79
387.92	-32.1
388.135	50.25
388.349	49.28
388.563	33.58
388.778	24.86
388.992	53.54
389.206	24.09
389.42	102.94
389.635	3.55
389.849	38.23
390.063	40.17
390.277	7.81
390.491	63.03
390.706	26.03
390.92	49.86
391.134	11.3
391.348	54.12
391.562	-14.66
391.776	23.31
391.99	-3.81
392.205	30.68
392.419	0.06
392.633	39.2
392.847	63.81
393.061	19.25
393.275	84.15
393.489	18.28
393.703	42.11
393.917	57.03
394.131	10.14
394.345	51.41
394.559	66.33
394.773	-2.07
394.986	29.32
395.2	4.91
395.414	73.3
395.628	-4.59
395.842	28.35
396.056	-1.49
396.27	-37.52
396.484	44.05
396.697	30.29
396.911	85.51
397.125	20.02
397.339	45.21
397.553	26.03
397.766	103.14
397.98	60.32
398.194	100.04
398.408	-0.13
398.621	34.75
398.835	73.88
399.049	32.03
399.262	45.6
399.476	53.54
399.69	50.63
399.903	105.08
400.117	19.83
400.331	55.86
400.544	14.01
400.758	131.62
400.971	37.85
401.185	51.99
401.398	2.58
401.612	53.54
401.826	36.3
402.039	61.29
402.253	-8.85
402.466	72.91
402.68	67.68
402.893	39.78
403.106	12.85
403.32	35.52
403.533	62.06
403.747	28.55
403.96	58.38
404.174	64.78
404.387	12.27
404.6	36.49
404.814	68.84
405.027	30.29
405.24	35.13
405.454	10.91
405.667	97.71
405.88	-9.43
406.094	42.5
406.307	76.4
406.52	63.61
406.733	1.61
406.947	-9.43
407.16	120.96
407.373	64.39
407.586	44.24
407.799	17.31
408.012	67.29
408.226	38.81
408.439	69.81
408.652	-2.45
408.865	20.41
409.078	94.81
409.291	35.71
409.504	4.33
409.717	48.11
409.93	70.2
410.143	29.51
410.357	1.42
410.57	8.78
410.783	41.53
410.996	63.81
411.209	41.53
411.421	88.03
411.634	44.63
411.847	23.51
412.06	39.4
412.273	39.59
412.486	28.35
412.699	135.69
412.912	52.96
413.125	80.66
413.338	45.6
413.55	76.01
413.763	52.76
413.976	91.13
414.189	7.81
414.402	23.7
414.615	104.88
414.827	21.96
415.04	90.74
415.253	50.83
415.466	69.62
415.678	99.07
415.891	55.86
416.104	51.02
416.316	65.16
416.529	38.43
416.742	63.61
416.954	84.73
417.167	60.9
417.38	49.28
417.592	84.15
417.805	41.33
418.017	14.4
418.23	89.96
418.442	24.67
418.655	61.68
418.868	81.24
419.08	95.19
419.293	106.63
419.505	87.25
419.718	57.61
419.93	99.65
420.142	44.82
420.355	98.49
420.567	110.69
420.78	76.98
420.992	45.01
421.205	145.96
421.417	26.8
421.629	29.9
421.842	22.73
422.054	9.17
422.266	89.58
422.479	97.33
422.691	70.78
422.903	80.86
423.115	50.25
423.328	58.38
423.54	63.23
423.752	46.76
423.964	47.53
424.177	73.69
424.389	62.26
424.601	156.03
424.813	72.91
425.025	108.56
425.238	129.1
425.45	73.88
425.662	71.56
425.874	373.8
426.086	79.89
426.298	120.77
426.51	80.86
426.722	82.21
426.934	70.01
427.146	117.86
427.358	54.9
427.57	112.05
427.782	83.76
427.994	95.97
428.206	63.61
428.418	47.15
428.63	108.76
428.842	140.92
429.054	96.74
429.266	143.24
429.478	53.73
429.69	81.83
429.902	60.13
430.114	115.15
430.325	102.75
430.537	75.63
430.749	94.23
430.961	33.97
431.173	95.19
431.384	119.22
431.596	28.93
431.808	80.66
432.02	116.7
432.231	95.78
432.443	154.09
432.655	124.26
432.867	83.57
433.078	125.23
433.29	160.29
433.502	126
433.713	170.76
433.925	121.16
434.136	158.36
434.348	72.53
434.56	54.31
434.771	213.57
434.983	88.22
435.194	64.58
435.406	111.47
435.617	169.01
435.829	163.2
436.04	150.02
436.252	180.44
436.463	188.77
436.675	155.45
436.886	149.25
437.098	137.63
437.309	175.99
437.521	156.22
437.732	152.35
437.943	152.16
438.155	129.49
438.366	70.98
438.578	194.39
438.789	148.09
439	177.15
439.211	143.83
439.423	156.61
439.634	153.9
439.845	170.17
440.057	175.21
440.268	179.09
440.479	130.65
440.69	153.9
440.902	151.96
441.113	154.87
441.324	144.41
441.535	188.77
441.746	223.46
441.957	141.31
442.168	140.14
442.38	190.52
442.591	176.76
442.802	135.49
443.013	149.06
443.224	207.57
443.435	158.74
443.646	157.19
443.857	172.5
444.068	165.72
444.279	149.06
444.49	246.32
444.701	182.38
444.912	291.65
445.123	215.71
445.334	231.59
445.545	229.27
445.756	191.87
445.967	178.7
446.178	237.79
446.388	254.84
446.599	217.26
446.81	220.94
447.021	174.24
447.232	234.5
447.443	276.54
447.653	166.88
447.864	222.49
448.075	212.61
448.286	231.98
448.496	210.47
448.707	240.12
448.918	195.17
449.129	298.44
449.339	192.46
449.55	237.4
449.761	195.17
449.971	284.68
450.182	202.53
450.393	251.55
450.603	186.45
450.814	293.59
451.024	252.32
451.235	272.09
451.446	280.61
451.656	277.32
451.867	240.31
452.077	221.32
452.288	311.8
452.498	274.22
452.709	228.88
452.919	263.75
453.13	224.62
453.34	297.85
453.55	188.58
453.761	278.87
453.971	290.49
454.182	268.79
454.392	272.86
454.602	312.58
454.813	271.89
455.023	316.26
455.233	206.21
455.444	254.84
455.654	215.71
455.864	254.45
456.075	232.17
456.285	205.82
456.495	260.65
456.705	286.62
456.916	287.78
457.126	309.29
457.336	262.01
457.546	207.57
457.756	218.03
457.967	306.38
458.177	242.44
458.387	276.93
458.597	238.18
458.807	263.37
459.017	238.37
459.227	242.05
459.437	271.5
459.647	315.29
459.857	327.5
460.068	245.54
460.278	354.62
460.488	308.12
460.698	332.15
460.908	284.49
461.117	231.59
461.327	263.17
461.537	268.21
461.747	279.06
461.957	303.86
462.167	365.28
462.377	310.84
462.587	284.87
462.797	324.59
463.007	275.38
463.216	334.67
463.426	358.69
463.636	339.9
463.846	246.32
464.056	273.83
464.265	332.15
464.475	270.54
464.685	297.47
464.895	334.86
465.104	293.98
465.314	334.47
465.524	273.83
465.733	275.19
465.943	356.37
466.153	367.22
466.362	359.27
466.572	331.57
466.782	315.1
466.991	312.58
467.201	369.15
467.41	275.77
467.62	349.58
467.829	307.74
468.039	334.67
468.249	334.86
468.458	308.32
468.668	367.22
468.877	357.14
469.086	384.07
469.296	398.6
469.505	341.25
469.715	399.96
469.924	395.31
470.134	393.76
470.343	392.21
470.552	358.88
470.762	339.7
470.971	311.03
471.18	350.55
471.39	370.9
471.599	347.65
471.808	382.33
472.018	335.63
472.227	393.37
472.436	432.9
472.645	372.25
472.855	348.23
473.064	434.83
473.273	397.83
473.482	425.92
473.691	452.66
473.901	419.14
474.11	371.87
474.319	477.26
474.528	403.83
474.737	448.4
474.946	414.1
475.155	418.36
475.364	463.9
475.573	436
475.783	434.45
475.992	445.68
476.201	465.83
476.41	400.15
476.619	419.14
476.828	445.88
477.037	437.93
477.245	434.45
477.454	472.42
477.663	433.86
477.872	426.5
478.081	523.96
478.29	430.38
478.499	537.33
478.708	481.72
478.917	537.52
479.125	464.67
479.334	495.28
479.543	471.45
479.752	471.65
479.961	483.08
480.169	542.94
480.378	447.23
480.587	603.2
480.796	513.3
481.004	500.71
481.213	499.16
481.422	502.64
481.63	504.58
481.839	546.82
482.048	573.94
482.256	517.37
482.465	511.94
482.674	538.49
482.882	569.88
483.091	603.2
483.299	526.09
483.508	553.41
483.716	553.41
483.925	567.16
484.134	554.57
484.342	530.35
484.551	594.87
484.759	570.84
484.967	577.24
485.176	595.06
485.384	607.66
485.593	618.31
485.801	607.66
486.01	535.58
486.218	555.54
486.426	470.29
486.635	531.9
486.843	504.78
487.051	540.04
487.26	547.21
487.468	559.99
487.676	570.07
487.885	558.25
488.093	566.58
488.301	585.96
488.509	610.56
488.717	636.91
488.926	621.61
489.134	597.19
489.342	615.21
489.55	562.51
489.758	610.37
489.967	568.71
490.175	721
490.383	627.03
490.591	722.55
490.799	569.49
491.007	685.15
491.215	683.6
491.423	629.94
491.631	665.2
491.839	639.04
492.047	712.28
492.255	616.57
492.463	603.39
492.671	634.97
492.879	688.45
493.087	631.49
493.295	697.94
493.503	676.05
493.711	699.49
493.919	695.81
494.127	719.25
494.334	739.6
494.542	658.61
494.75	697.36
494.958	707.05
495.166	747.74
495.374	738.05
495.581	750.84
495.789	706.08
495.997	778.73
496.205	720.42
496.412	691.55
496.62	682.83
496.828	747.15
497.035	741.92
497.243	748.32
497.451	711.12
497.658	744.44
497.866	733.2
498.074	792.3
498.281	703.37
498.489	822.33
498.696	743.28
498.904	716.15
499.112	710.54
499.319	798.69
499.527	719.45
499.734	788.03
499.942	710.54
500.149	728.36
500.357	756.84
500.564	713.25
500.771	767.69
500.979	702.98
501.186	720.42
501.394	772.15
501.601	725.65
501.808	782.22
502.016	732.62
502.223	757.23
502.43	766.33
502.638	751.42
502.845	715.57
503.052	803.15
503.26	761.1
503.467	834.92
503.674	783.58
503.881	818.65
504.089	831.63
504.296	812.45
504.503	761.1
504.71	795.4
504.917	771.18
505.125	807.8
505.332	811.87
505.539	813.22
505.746	891.69
505.953	836.28
506.16	838.6
506.367	902.93
506.574	891.88
506.781	887.04
506.988	834.53
507.195	863.79
507.402	833.18
507.609	905.83
507.816	821.75
508.023	838.02
508.23	806.05
508.437	814.97
508.644	868.05
508.851	881.23
509.058	907.96
509.265	866.11
509.472	881.61
509.679	1005.61
509.885	895.56
510.092	895.95
510.299	873.86
510.506	863.98
510.713	904.86
510.92	888.78
511.126	883.55
511.333	955.43
511.54	928.89
511.746	975.39
511.953	967.06
512.16	971.71
512.367	925.79
512.573	913.39
512.78	915.33
512.987	921.91
513.193	902.15
513.4	838.02
513.606	935.67
513.813	946.91
514.02	937.99
514.226	1021.69
514.433	999.99
514.639	881.03
514.846	953.11
515.052	913
515.259	945.74
515.465	955.24
515.672	942.45
515.878	1043.59
516.085	984.69
516.291	1022.47
516.497	963.96
516.704	972.68
516.91	895.76
517.117	883.55
517.323	866.5
517.529	875.61
517.736	877.55
517.942	921.53
518.148	901.38
518.354	955.63
518.561	949.62
518.767	943.81
518.973	977.13
519.179	967.83
519.386	944.58
519.592	956.79
519.798	955.04
520.004	1045.14
520.21	1026.73
520.417	1034.67
520.623	1070.13
520.829	1075.36
521.035	1109.46
521.241	1078.27
521.447	1084.47
521.653	1212.15
521.859	1064.71
522.065	1102.29
522.271	1190.06
522.477	1151.89
522.683	1176.89
522.889	1127.29
523.095	1120.31
523.301	1107.52
523.507	1111.4
523.713	1136
523.919	1088.73
524.125	1187.74
524.331	1167.78
524.537	1216.02
524.742	1185.8
524.948	1206.72
525.154	1191.61
525.36	1263.3
525.566	1199.17
525.772	1254.58
525.977	1161.39
526.183	1214.67
526.389	1250.32
526.595	1180.18
526.8	1154.22
527.006	1087.57
527.212	1122.25
527.417	1074.01
527.623	1081.56
527.829	1168.94
528.034	1204.2
528.24	1206.33
528.446	1164.1
528.651	1243.73
528.857	1242.57
529.062	1307.47
529.268	1270.08
529.473	1282.67
529.679	1280.54
529.884	1320.45
530.09	1291.97
530.295	1366.37
530.501	1337.11
530.706	1314.25
530.912	1282.09
531.117	1293.13
531.323	1306.5
531.528	1347.96
531.733	1332.66
531.939	1313.86
532.144	1333.82
532.35	1334.98
532.555	1354.16
532.76	1337.5
532.966	1346.22
533.171	1320.84
533.376	1270.66
533.581	1247.6
533.787	1306.89
533.992	1353.2
534.197	1344.28
534.402	1338.66
534.607	1304.18
534.813	1440.38
535.018	1324.71
535.223	1312.51
535.428	1369.47
535.633	1412.48
535.838	1380.9
536.043	1399.89
536.249	1468.86
536.454	1393.3
536.659	1403.18
536.864	1387.1
537.069	1394.85
537.274	1428.76
537.479	1377.03
537.684	1392.14
537.889	1343.51
538.094	1473.32
538.299	1390.2
538.504	1436.31
538.708	1427.98
538.913	1440.96
539.118	1396.59
539.323	1421.98
539.528	1366.56
539.733	1401.24
539.938	1417.33
540.142	1391.94
540.347	1385.74
540.552	1373.34
540.757	1355.13
540.962	1333.63
541.166	1310.18
541.371	1289.06
541.576	1355.71
541.781	1283.25
541.985	1412.29
542.19	1382.45
542.395	1435.54
542.599	1491.53
542.804	1417.71
543.008	1474.87
543.213	1384.39
543.418	1355.33
543.622	1408.22
543.827	1398.14
544.031	1508.39
544.236	1493.27
544.44	1423.53
544.645	1455.88
544.849	1409.96
545.054	1468.67
545.258	1577.36
545.463	1517.11
545.667	1418.1
545.872	1463.24
546.076	1441.35
546.281	1453.56
546.485	1417.71
546.689	1442.9
546.894	1497.92
547.098	1468.67
547.302	1439.41
547.507	1468.28
547.711	1475.26
547.915	1537.06
548.119	1459.56
548.324	1461.69
548.528	1536.29
548.732	1470.61
548.936	1507.81
549.141	1555.85
549.345	1454.14
549.549	1456.66
549.753	1469.83
549.957	1562.83
550.161	1572.13
550.366	1519.43
550.57	1456.27
550.774	1454.33
550.978	1486.11
551.182	1488.62
551.386	1497.34
551.59	1501.22
551.794	1492.89
551.998	1496.57
552.202	1468.86
552.406	1498.31
552.61	1537.64
552.814	1516.52
553.018	1566.12
553.222	1508.97
553.426	1475.45
553.63	1532.22
553.833	1503.54
554.037	1458.79
554.241	1542.1
554.445	1514.01
554.649	1498.31
554.853	1482.04
555.056	1530.47
555.26	1552.17
555.464	1509.16
555.668	1529.12
555.871	1534.74
556.075	1537.45
556.279	1488.62
556.483	1514.59
556.686	1474.48
556.89	1502.96
557.094	1517.3
557.297	1429.73
557.501	1490.17
557.704	1409.58
557.908	1476.22
558.112	1461.31
558.315	1494.82
558.519	1464.21
558.722	1470.22
558.926	1453.75
559.129	1419.65
559.333	1385.55
559.536	1388.46
559.74	1390.98
559.943	1388.26
560.147	1369.86
560.35	1393.3
560.553	1430.5
560.757	1379.16
560.96	1478.55
561.164	1450.46
561.367	1521.95
561.57	1428.95
561.774	1451.23
561.977	1447.16
562.18	1430.89
562.384	1496.76
562.587	1425.27
562.79	1421.2
562.993	1438.25
563.197	1464.99
563.4	1509.16
563.603	1475.84
563.806	1560.5
564.009	1409.38
564.212	1431.28
564.416	1333.24
564.619	1458.79
564.822	1385.55
565.025	1455.69
565.228	1378.96
565.431	1435.54
565.634	1330.33
565.837	1394.27
566.04	1389.04
566.243	1381.29
566.446	1302.63
566.649	1376.25
566.852	1324.91
567.055	1356.68
567.258	1403.38
567.461	1397.56
567.664	1426.82
567.867	1341.76
568.07	1383.61
568.273	1351.26
568.475	1415.97
568.678	1345.64
568.881	1373.34
569.084	1374.51
569.287	1266.2
569.489	1304.56
569.692	1354.94
569.895	1361.91
570.098	1238.88
570.3	1276.86
570.503	1220.09
570.706	1303.6
570.909	1219.9
571.111	1210.79
571.314	1205.56
571.516	1242.37
571.719	1241.02
571.922	1223.38
572.124	1259.23
572.327	1280.15
572.529	1202.65
572.732	1215.05
572.935	1272.21
573.137	1316.96
573.34	1258.07
573.542	1281.7
573.745	1283.25
573.947	1253.22
574.15	1243.15
574.352	1201.1
574.554	1287.32
574.757	1216.02
574.959	1206.14
575.162	1191.42
575.364	1188.7
575.566	1293.33
575.769	1135.23
575.971	1193.35
576.173	1108.49
576.376	1193.35
576.578	1221.06
576.78	1274.73
576.982	1103.65
577.185	1200.33
577.387	1159.06
577.589	1128.64
577.791	1228.23
577.993	1183.47
578.196	1177.08
578.398	1188.12
578.6	1216.8
578.802	1107.33
579.004	1131.35
579.206	1125.54
579.408	1180.18
579.61	1120.31
579.812	1222.22
580.014	1177.47
580.216	1160.8
580.418	1146.08
580.62	1146.47
580.822	1100.74
581.024	1179.6
581.226	1222.42
581.428	1142.01
581.63	1257.48
581.832	1158.67
582.034	1229.97
582.236	1206.14
582.438	1208.47
582.64	1226.29
582.841	1243.53
583.043	1265.82
583.245	1212.34
583.447	1221.45
583.649	1198.2
583.85	1217.38
584.052	1207.88
584.254	1150.92
584.456	1254.19
584.657	1166.81
584.859	1189.67
585.061	1139.49
585.262	1134.45
585.464	1101.71
585.666	1213.12
585.867	1131.94
586.069	1208.85
586.27	1149.37
586.472	1139.1
586.674	1125.35
586.875	1133.1
587.077	1114.11
587.278	1139.69
587.48	1153.83
587.681	1245.67
587.883	1141.82
588.084	1090.09
588.285	1118.57
588.487	1100.36
588.688	1096.48
588.89	1072.46
589.091	1053.47
589.292	1043.01
589.494	1041.07
589.695	1009.49
589.896	938.38
590.098	938.77
590.299	1013.36
590.5	1004.84
590.702	1010.26
590.903	1048.62
591.104	1083.5
591.305	1081.76
591.507	1122.25
591.708	1089.12
591.909	1042.81
592.11	1153.25
592.311	1082.34
592.512	1053.66
592.714	1027.12
592.915	1043.78
593.116	1052.5
593.317	1051.92
593.518	1049.59
593.719	1058.12
593.92	1074.01
594.121	1100.16
594.322	1087.96
594.523	1029.83
594.724	1016.27
594.925	1038.16
595.126	1054.44
595.327	1035.26
595.528	1046.49
595.729	1037.77
595.929	1067.03
596.13	1065.29
596.331	1080.4
596.532	1053.86
596.733	1056.76
596.934	1055.41
597.135	1086.6
597.335	1094.74
597.536	1017.04
597.737	1091.44
597.938	1023.63
598.138	1021.5
598.339	1036.81
598.54	1043.2
598.74	1051.92
598.941	1032.16
599.142	1105.97
599.342	1068.39
599.543	1024.6
599.744	1035.64
599.944	1054.44
600.145	1026.34
600.345	1033.32
600.546	1122.25
600.746	1080.59
600.947	1125.15
601.147	1036.03
601.348	1077.3
601.548	1002.9
601.749	1061.99
601.949	1001.54
602.15	1033.12
602.35	1020.72
602.551	1073.42
602.751	1032.93
602.951	1027.31
603.152	955.63
603.352	1082.53
603.552	1023.63
603.753	1122.64
603.953	1090.86
604.153	1063.74
604.354	1068.97
604.554	1043.2
604.754	1053.86
604.954	1017.04
605.155	1053.08
605.355	1067.81
605.555	1073.81
605.755	1095.12
605.955	1036.61
606.155	1094.16
606.356	1065.29
606.556	1063.16
606.756	1098.22
606.956	1019.18
607.156	1111.4
607.356	1009.68
607.556	1068.97
607.756	1047.66
607.956	1100.94
608.156	1025.18
608.356	1005.23
608.556	1049.79
608.756	1027.7
608.956	1005.03
609.156	1049.79
609.356	979.46
609.556	986.63
609.755	1028.67
609.955	1000.58
610.155	1026.15
610.355	1035.84
610.555	991.66
610.755	1000.38
610.954	974.23
611.154	999.03
611.354	1022.86
611.554	1005.61
611.753	988.56
611.953	950.59
612.153	1029.64
612.352	1009.1
612.552	962.79
612.752	936.64
612.951	998.83
613.151	955.63
613.351	928.89
613.55	968.61
613.75	996.7
613.949	965.7
614.149	968.41
614.348	959.89
614.548	939.16
614.747	894.01
614.947	948.84
615.146	891.3
615.346	994.96
615.545	943.81
615.745	978.68
615.944	1014.33
616.144	961.63
616.343	961.83
616.542	925.21
616.742	936.83
616.941	939.35
617.14	903.9
617.34	942.06
617.539	961.05
617.738	898.47
617.938	1005.03
618.137	958.53
618.336	895.76
618.535	953.3
618.734	917.07
618.934	966.48
619.133	946.91
619.332	981.98
619.531	903.31
619.73	928.89
619.929	969.77
620.128	940.51
620.328	1008.52
620.527	923.66
620.726	951.36
620.925	940.32
621.124	927.15
621.323	948.07
621.522	899.63
621.721	890.53
621.92	913.97
622.119	954.27
622.318	910.68
622.517	935.09
622.715	914.36
622.914	864.95
623.113	891.88
623.312	838.6
623.511	901.76
623.71	889.36
623.909	867.08
624.107	966.48
624.306	840.93
624.505	874.45
624.704	863.79
624.902	879.87
625.101	982.17
625.3	894.6
625.499	871.35
625.697	868.83
625.896	851.2
626.095	885.1
626.293	829.88
626.492	841.9
626.69	892.27
626.889	859.91
627.088	913.2
627.286	830.27
627.485	851.78
627.683	872.31
627.882	886.46
628.08	813.8
628.279	799.08
628.477	915.52
628.676	815.55
628.874	848.1
629.073	810.12
629.271	800.63
629.469	845.38
629.668	830.08
629.866	805.86
630.065	808.77
630.263	867.86
630.461	770.4
630.66	835.12
630.858	831.43
631.056	891.3
631.254	888.98
631.453	801.6
631.651	836.86
631.849	824.85
632.047	847.13
632.245	817.87
632.444	832.6
632.642	857.4
632.84	854.3
633.038	814.97
633.236	771.57
633.434	784.93
633.632	778.15
633.83	813.61
634.028	842.09
634.227	823.49
634.425	890.91
634.623	794.04
634.821	840.15
635.019	842.67
635.216	797.72
635.414	876.77
635.612	857.78
635.81	821.36
636.008	868.05
636.206	833.57
636.404	863.79
636.602	760.13
636.8	812.45
636.997	843.25
637.195	867.86
637.393	873.86
637.591	863.4
637.789	859.72
637.986	836.08
638.184	837.05
638.382	885.49
638.58	863.98
638.777	927.73
638.975	841.12
639.173	853.13
639.37	864.56
639.568	853.33
639.765	884.71
639.963	833.37
640.161	888.01
640.358	891.69
640.556	804.12
640.753	800.24
640.951	796.37
641.148	835.12
641.346	836.08
641.543	814.77
641.741	831.63
641.938	788.81
642.136	812.06
642.333	791.72
642.531	843.06
642.728	884.33
642.925	831.05
643.123	799.66
643.32	828.53
643.517	819.42
643.715	798.5
643.912	786.29
644.109	832.4
644.306	814.97
644.504	778.15
644.701	790.36
644.898	830.85
645.095	768.85
645.293	799.27
645.49	831.82
645.687	782.42
645.884	839.77
646.081	746.96
646.278	761.3
646.475	758.2
646.672	741.54
646.87	803.53
647.067	749.87
647.264	781.64
647.461	716.35
647.658	739.21
647.855	790.75
648.052	726.04
648.249	706.66
648.446	692.9
648.642	697.94
648.839	680.31
649.036	692.13
649.233	686.12
649.43	704.34
649.627	698.91
649.824	718.09
650.021	674.11
650.217	673.92
650.414	707.44
650.611	703.37
650.808	746.77
651.004	719.84
651.201	758.97
651.398	774.67
651.595	708.79
651.791	673.72
651.988	756.45
652.185	697.55
652.381	764.78
652.578	663.65
652.775	711.89
652.971	701.82
653.168	712.09
653.364	737.27
653.561	633.62
653.757	713.64
653.954	711.5
654.15	700.27
654.347	801.21
654.543	680.5
654.74	661.91
654.936	678.18
655.133	723.32
655.329	694.65
655.525	710.34
655.722	717.9
655.918	646.02
656.115	693.49
656.311	599.32
656.507	582.66
656.704	549.73
656.9	579.76
657.096	583.05
657.292	587.51
657.489	671.4
657.685	670.82
657.881	624.12
658.077	612.11
658.273	644.47
658.47	751.61
658.666	655.12
658.862	688.84
659.058	664.81
659.254	701.04
659.45	692.13
659.646	679.34
659.842	664.81
660.038	720.22
660.234	643.31
660.43	672.37
660.626	730.3
660.822	682.05
661.018	687.29
661.214	648.73
661.41	628
661.606	671.59
661.802	720.03
661.998	700.65
662.194	668.88
662.39	698.52
662.586	684.96
662.781	679.92
662.977	710.15
663.173	703.75
663.369	684.19
663.564	664.62
663.76	703.37
663.956	656.09
664.152	710.34
664.347	571.62
664.543	657.06
664.739	628.19
664.934	605.14
665.13	589.25
665.326	677.79
665.521	674.69
665.717	613.08
665.912	620.83
666.108	580.73
666.304	614.24
666.499	612.5
666.695	589.06
666.89	599.52
667.086	643.69
667.281	651.25
667.477	662.68
667.672	610.17
667.867	655.71
668.063	610.95
668.258	603.01
668.454	618.7
668.649	696.59
668.844	617.73
669.04	638.85
669.235	563.87
669.43	599.32
669.626	550.11
669.821	593.32
670.016	575.88
670.211	630.32
670.407	587.89
670.602	624.51
670.797	594.09
670.992	650.28
671.187	583.05
671.382	639.04
671.578	572.01
671.773	634.2
671.968	540.62
672.163	587.12
672.358	650.28
672.553	580.53
672.748	566.58
672.943	648.92
673.138	591.19
673.333	609.4
673.528	587.12
673.723	608.43
673.918	606.3
674.113	572.98
674.308	682.83
674.503	621.41
674.698	635.36
674.892	628.58
675.087	615.41
675.282	622.19
675.477	540.81
675.672	631.49
675.867	564.84
676.061	566
676.256	568.33
676.451	574.14
676.646	588.67
676.84	548.56
677.035	541.2
677.23	546.04
677.424	618.89
677.619	625.87
677.814	609.21
678.008	634.78
678.203	549.34
678.397	568.13
678.592	591.57
678.787	640.01
678.981	559.8
679.176	587.7
679.37	595.64
679.565	588.86
679.759	591.38
679.954	594.09
680.148	656.29
680.342	629.16
680.537	598.16
680.731	579.18
680.926	597.97
681.12	596.61
681.314	566.39
681.509	571.04
681.703	599.13
681.897	616.57
682.092	590.02
682.286	607.07
682.48	624.71
682.674	621.02
682.869	610.76
683.063	584.6
683.257	617.73
683.451	560.58
683.645	607.66
683.839	604.75
684.034	598.74
684.228	638.85
684.422	559.41
684.616	552.24
684.81	623.16
685.004	570.65
685.198	559.99
685.392	641.56
685.586	573.75
685.78	614.24
685.974	637.88
686.168	603.39
686.362	653.19
686.556	529.38
686.75	513.3
686.944	525.31
687.138	533.64
687.331	458.86
687.525	451.5
687.719	410.81
687.913	462.35
688.107	456.53
688.301	443.75
688.494	497.22
688.688	461.76
688.882	436.19
689.076	432.51
689.269	478.04
689.463	564.06
689.657	504.19
689.85	458.28
690.044	485.4
690.238	485.6
690.431	499.54
690.625	501.48
690.818	509.04
691.012	533.26
691.205	566
691.399	500.9
691.593	546.43
691.786	614.63
691.98	588.86
692.173	642.34
692.366	593.9
692.56	617.15
692.753	657.45
692.947	562.32
693.14	662.29
693.333	630.71
693.527	575.3
693.72	653.19
693.914	634.2
694.107	618.7
694.3	649.7
694.493	600.87
694.687	645.24
694.88	596.03
695.073	670.43
695.266	650.86
695.46	693.68
695.653	712.09
695.846	690.77
696.039	608.43
696.232	674.5
696.425	716.54
696.618	711.89
696.812	688.84
697.005	778.35
697.198	833.18
697.391	780.09
697.584	775.63
697.777	855.26
697.97	804.12
698.163	820.2
698.356	785.71
698.549	869.02
698.742	836.08
698.935	777.38
699.127	848.68
699.32	819.62
699.513	789.39
699.706	831.05
699.899	856.04
700.092	820.97
700.285	842.67
700.477	819.03
700.67	857.98
700.863	898.86
701.056	962.41
701.248	920.36
701.441	931.02
701.634	875.8
701.826	976.74
702.019	878.71
702.212	922.88
702.404	876
702.597	903.31
702.79	936.25
702.982	939.93
703.175	998.64
703.367	993.6
703.56	980.04
703.752	1099.97
703.945	1030.41
704.137	1061.99
704.33	1059.47
704.522	1061.61
704.715	1071.87
704.907	1066.84
705.1	1115.47
705.292	1118.95
705.484	1094.16
705.677	1109.27
705.869	1131.55
706.061	1212.53
706.254	1213.12
706.446	1128.06
706.638	1154.22
706.831	1237.33
707.023	1173.79
707.215	1291.78
707.407	1260
707.599	1232.88
707.792	1274.15
707.984	1276.47
708.176	1289.84
708.368	1262.13
708.56	1278.41
708.752	1278.8
708.944	1282.28
709.136	1302.63
709.329	1295.65
709.521	1382.64
709.713	1351.65
709.905	1330.14
710.097	1374.12
710.289	1337.7
710.481	1400.66
710.672	1387.1
710.864	1402.02
711.056	1466.73
711.248	1426.63
711.44	1450.26
711.632	1437.67
711.824	1484.56
712.016	1539.58
712.207	1487.27
712.399	1540.94
712.591	1589.76
712.783	1554.89
712.975	1532.99
713.166	1521.56
713.358	1535.71
713.55	1632.97
713.741	1633.93
713.933	1629.48
714.125	1608.75
714.316	1583.95
714.508	1673.46
714.7	1644.01
714.891	1651.18
715.083	1671.13
715.274	1615.92
715.466	1664.16
715.657	1702.72
715.849	1571.16
716.04	1631.8
716.232	1589.18
716.423	1656.41
716.615	1617.85
716.806	1593.44
716.998	1527.18
717.189	1494.63
717.381	1399.5
717.572	1404.73
717.763	1456.85
717.955	1433.21
718.146	1383.61
718.337	1351.65
718.528	1296.81
718.72	1264.07
718.911	1317.74
719.102	1291.2
719.293	1345.64
719.485	1298.95
719.676	1330.33
719.867	1277.63
720.058	1291.2
720.249	1288.87
720.44	1316.19
720.632	1328.2
720.823	1380.9
721.014	1486.3
721.205	1473.71
721.396	1585.5
721.587	1670.55
721.778	1678.11
721.969	1675.98
722.16	1743.21
722.351	1726.74
722.542	1854.23
722.733	1872.24
722.924	1763.16
723.115	1826.33
723.305	1787.19
723.496	1796.1
723.687	1704.27
723.878	1725
724.069	1715.89
724.26	1716.08
724.45	1669.58
724.641	1714.73
724.832	1688.38
725.023	1684.89
725.213	1650.21
725.404	1645.75
725.595	1692.83
725.785	1651.18
725.976	1722.48
726.167	1751.54
726.357	1678.3
726.548	1798.81
726.739	1736.23
726.929	1802.5
727.12	1804.05
727.31	1845.51
727.501	1799.2
727.691	1828.07
727.882	1812.18
728.072	1804.24
728.263	1812.57
728.453	1881.35
728.644	1860.23
728.834	1858.29
729.024	1818.96
729.215	1800.75
729.405	1833.3
729.596	1935.79
729.786	1958.07
729.976	1973.57
730.167	1983.45
730.357	1920.1
730.547	1903.24
730.737	1964.47
730.928	1979
731.118	2006.51
731.308	1979
731.498	1988.88
731.688	2096.41
731.879	2058.63
732.069	2107.84
732.259	2132.64
732.449	2153.18
732.639	2208.4
732.829	2222.73
733.019	2242.3
733.209	2347.7
733.399	2270.01
733.589	2387.42
733.779	2400.21
733.969	2363.59
734.159	2438.76
734.349	2456.59
734.539	2537.18
734.729	2485.07
734.919	2530.98
735.109	2544.16
735.299	2476.93
735.488	2525.75
735.678	2552.49
735.868	2542.61
736.058	2487.78
736.248	2467.05
736.437	2484.29
736.627	2490.69
736.817	2607.9
737.007	2536.6
737.196	2565.86
737.386	2547.84
737.576	2528.66
737.765	2600.93
737.955	2570.7
738.144	2643.16
738.334	2619.14
738.524	2570.7
738.713	2603.06
738.903	2619.53
739.092	2630.96
739.282	2654.98
739.471	2670.1
739.661	2624.18
739.85	2683.08
740.04	2691.21
740.229	2732.87
740.419	2761.74
740.608	2756.31
740.797	2741.2
740.987	2795.84
741.176	2789.44
741.365	2747.98
741.555	2713.11
741.744	2745.46
741.933	2731.13
742.123	2753.79
742.312	2766.39
742.501	2811.14
742.69	2786.34
742.88	2767.55
743.069	2866.17
743.258	2784.21
743.447	2854.16
743.636	2825.67
743.825	2817.15
744.014	2842.72
744.204	2869.85
744.393	2810.17
744.582	2870.43
744.771	2880.12
744.96	2855.9
745.149	2908.02
745.338	2840.79
745.527	2875.66
745.716	2873.34
745.905	2836.52
746.094	2904.72
746.283	2902.59
746.471	2918.09
746.66	2955.87
746.849	2882.83
747.038	2976.22
747.227	2878.18
747.416	2927.2
747.604	2880.7
747.793	2858.22
747.982	2907.24
748.171	2943.86
748.359	2882.44
748.548	2919.25
748.737	2923.71
748.926	2900.07
749.114	2818.89
749.303	2907.63
749.491	2877.99
749.68	2859.58
749.869	2934.95
750.057	2926.62
750.246	2826.26
750.434	2847.76
750.623	2889.61
750.811	2827.03
751	2942.89
751.188	2833.62
751.377	2902.79
751.565	2904.34
751.754	2835.36
751.942	2817.54
752.131	2920.22
752.319	2809.59
752.507	2785.76
752.696	2853.77
752.884	2897.55
753.072	2818.7
753.261	2846.41
753.449	2849.7
753.637	2818.89
753.825	2925.45
754.014	2867.14
754.202	2847.37
754.39	2889.03
754.578	2847.96
754.766	2784.99
754.955	2837.49
755.143	2886.9
755.331	2822.19
755.519	2786.15
755.707	2818.31
755.895	2800.49
756.083	2844.47
756.271	2790.99
756.459	2768.32
756.647	2830.13
756.835	2763.68
757.023	2763.87
757.211	2754.96
757.399	2755.73
757.587	2743.53
757.775	2721.05
757.963	2771.62
758.151	2748.76
758.339	2731.13
758.526	2692.18
758.714	2773.75
758.902	2656.53
759.09	2558.5
759.278	2381.61
759.465	2224.48
759.653	1895.3
759.841	1707.17
760.028	1447.16
760.216	1272.98
760.404	1181.15
760.591	965.51
760.779	786.1
760.967	715.38
761.154	598.74
761.342	610.95
761.529	623.16
761.717	704.53
761.905	713.44
762.092	772.53
762.28	712.28
762.467	729.52
762.655	650.09
762.842	670.04
763.029	726.62
763.217	702.79
763.404	712.47
763.592	695.42
763.779	670.43
763.966	715.77
764.154	753.16
764.341	801.98
764.528	823.88
764.716	867.47
764.903	913.78
765.09	974.03
765.277	1006.78
765.465	1149.57
765.652	1214.28
765.839	1251.48
766.026	1377.61
766.213	1393.88
766.4	1474.67
766.588	1645.75
766.775	1616.89
766.962	1739.72
767.149	1753.09
767.336	1902.86
767.523	1857.33
767.71	1979.39
767.897	2103
768.084	2155.31
768.271	2167.13
768.458	2186.7
768.645	2253.15
768.832	2249.28
769.019	2267.29
769.206	2324.64
769.392	2388.58
769.579	2452.52
769.766	2399.24
769.953	2419.19
770.14	2432.75
770.327	2374.24
770.513	2466.66
770.7	2524.78
770.887	2459.49
771.073	2461.62
771.26	2437.21
771.447	2420.55
771.634	2444.38
771.82	2537.18
772.007	2439.34
772.193	2472.09
772.38	2530.4
772.567	2447.29
772.753	2434.69
772.94	2513.93
773.126	2527.5
773.313	2530.02
773.499	2489.33
773.686	2513.93
773.872	2483.52
774.059	2470.15
774.245	2467.05
774.432	2456.78
774.618	2417.64
774.804	2477.32
774.991	2427.91
775.177	2490.69
775.363	2438.76
775.55	2478.09
775.736	2377.34
775.922	2434.89
776.109	2460.27
776.295	2488.17
776.481	2427.33
776.667	2472.67
776.853	2458.72
777.04	2398.27
777.226	2408.15
777.412	2456.59
777.598	2388.19
777.784	2388.39
777.97	2377.15
778.156	2440.5
778.342	2383.74
778.528	2349.64
778.715	2304.11
778.901	2376.96
779.087	2405.24
779.272	2342.08
779.458	2334.72
779.644	2382.77
779.83	2330.07
780.016	2410.09
780.202	2311.28
780.388	2325.23
780.574	2263.42
780.76	2302.75
780.946	2340.34
781.131	2324.45
781.317	2343.24
781.503	2266.91
781.689	2290.35
781.874	2413.96
782.06	2284.54
782.246	2267.88
782.432	2270.98
782.617	2290.74
782.803	2339.95
782.989	2216.53
783.174	2265.74
783.36	2223.31
783.545	2245.01
783.731	2233.78
783.916	2149.3
784.102	2227.77
784.288	2237.46
784.473	2222.73
784.659	2229.32
784.844	2258.96
785.029	2188.05
785.215	2202.58
785.4	2190.18
785.586	2261.87
785.771	2162.09
785.956	2172.36
786.142	2177.78
786.327	2158.6
786.512	2189.6
786.698	2154.73
786.883	2109.39
787.068	2124.7
787.254	2135.16
787.439	2149.3
787.624	2097.96
787.809	2116.17
787.994	2120.24
788.18	2166.93
788.365	2027.82
788.55	2088.27
788.735	2084.2
788.92	2050.69
789.105	2059.99
789.29	2091.18
789.475	2002.25
789.66	2062.31
789.845	2030.92
790.03	2002.44
790.215	2060.18
790.4	2080.72
790.585	2103.77
790.77	2029.37
790.955	1943.93
791.14	1999.15
791.325	2092.92
791.51	1935.79
791.695	2023.75
791.879	2005.54
792.064	1982.29
792.249	2045.45
792.434	1999.34
792.618	1985.2
792.803	2005.74
792.988	1976.09
793.173	1999.73
793.357	2026.08
793.542	1965.63
793.727	1999.34
793.911	1994.11
794.096	1983.26
794.281	1997.21
794.465	2085.95
794.65	2009.22
794.834	2022.4
795.019	2088.47
795.203	2070.25
795.388	2046.62
795.572	2056.69
795.757	2090.21
795.941	2048.75
796.126	2028.4
796.31	1988.49
796.494	2053.59
796.679	2018.52
796.863	1949.94
797.048	2065.99
797.232	2048.36
797.416	2024.34
797.601	2048.94
797.785	2067.93
797.969	2104.16
798.153	2027.82
798.338	2053.01
798.522	2085.75
798.706	2075.29
798.89	2090.79
799.074	2169.65
799.258	2092.15
799.443	2035.19
799.627	2046.62
799.811	2104.93
799.995	2041
800.179	2049.33
800.363	2046.42
800.547	2074.32
800.731	2080.91
800.915	1987.91
801.099	2050.49
801.283	2048.94
801.467	2034.99
801.651	1998.57
801.835	2063.86
802.019	2038.48
802.202	2057.66
802.386	2021.62
802.57	2014.65
802.754	1996.44
802.938	1991.4
803.121	1976.67
803.305	2067.35
803.489	2004.19
803.673	2048.75
803.856	2043.52
804.04	2045.45
804.224	2059.02
804.407	2029.95
804.591	1998.18
804.775	2027.82
804.958	2031.5
805.142	2142.91
805.326	2055.72
805.509	2013.87
805.693	2082.65
805.876	2113.46
806.06	2016.78
806.243	2104.16
806.427	2072.97
806.61	2101.83
806.794	2047.39
806.977	2077.62
807.16	2032.28
807.344	2051.65
807.527	2007.48
807.71	2038.09
807.894	2039.45
808.077	2090.98
808.26	2025.11
808.444	2017.94
808.627	2073.74
808.81	2008.45
808.993	1925.33
809.177	1945.29
809.36	1979.97
809.543	1997.21
809.726	1905.76
809.909	1929.98
810.092	1922.81
810.276	1923.2
810.459	1936.37
810.642	1933.27
810.825	1858.49
811.008	1900.53
811.191	1796.88
811.374	1807.92
811.557	1831.17
811.74	1909.83
811.923	1758.13
812.106	1785.25
812.289	1730.23
812.472	1773.63
812.654	1807.73
812.837	1742.05
813.02	1695.93
813.203	1693.42
813.386	1602.74
813.569	1594.6
813.751	1539.77
813.934	1588.6
814.117	1590.54
814.3	1473.9
814.482	1506.64
814.665	1458.01
814.848	1470.8
815.03	1417.91
815.213	1408.03
815.396	1415.58
815.578	1390.59
815.761	1349.71
815.943	1400.08
816.126	1322.97
816.309	1338.86
816.491	1251.48
816.674	1193.35
816.856	1266.4
817.039	1288.48
817.221	1351.84
817.403	1266.78
817.586	1278.02
817.768	1301.27
817.951	1232.68
818.133	1204.78
818.315	1218.93
818.498	1256.32
818.68	1315.03
818.862	1282.09
819.045	1315.41
819.227	1315.8
819.409	1290.42
819.591	1277.25
819.774	1305.53
819.956	1249.93
820.138	1336.15
820.32	1306.11
820.502	1360.56
820.684	1389.23
820.866	1405.31
821.048	1448.52
821.231	1470.41
821.413	1488.62
821.595	1462.27
821.777	1464.02
821.959	1382.06
822.141	1474.29
822.323	1383.03
822.505	1317.35
822.686	1309.8
822.868	1229.78
823.05	1154.8
823.232	1119.34
823.414	1064.12
823.596	1145.89
823.778	1111.79
823.96	1178.44
824.141	1145.69
824.323	1169.14
824.505	1239.66
824.687	1281.32
824.868	1281.7
825.05	1403.76
825.232	1409.38
825.413	1484.36
825.595	1438.44
825.777	1360.56
825.958	1385.94
826.14	1371.21
826.321	1459.17
826.503	1421.98
826.685	1425.27
826.866	1462.47
827.048	1450.84
827.229	1352.81
827.411	1319.48
827.592	1295.65
827.773	1303.98
827.955	1261.55
828.136	1282.67
828.318	1236.37
828.499	1282.86
828.68	1251.09
828.862	1303.6
829.043	1298.56
829.224	1288.87
829.406	1232.49
829.587	1266.01
829.768	1247.22
829.949	1256.13
830.131	1268.33
830.312	1329.95
830.493	1251.48
830.674	1263.68
830.855	1280.73
831.036	1260.97
831.218	1318.13
831.399	1319.29
831.58	1278.02
831.761	1293.33
831.942	1292.36
832.123	1266.4
832.304	1233.85
832.485	1258.07
832.666	1253.22
832.847	1288.48
833.028	1274.53
833.209	1260.58
833.389	1231.13
833.57	1225.13
833.751	1244.7
833.932	1312.7
834.113	1249.15
834.294	1225.71
834.475	1306.5
834.655	1319.29
834.836	1288.29
835.017	1311.35
835.198	1263.68
835.378	1294.3
835.559	1313.86
835.74	1313.09
835.92	1268.33
836.101	1260.39
836.281	1316.38
836.462	1305.15
836.643	1337.89
836.823	1333.24
837.004	1328.01
837.184	1395.24
837.365	1336.34
837.545	1368.31
837.726	1301.85
837.906	1367.53
838.087	1342.93
838.267	1325.88
838.448	1291.78
838.628	1303.79
838.808	1290.42
838.989	1341.18
839.169	1236.95
839.349	1331.5
839.53	1359.4
839.71	1343.12
839.89	1282.48
840.07	1335.18
840.251	1275.7
840.431	1361.91
840.611	1332.85
840.791	1316
840.971	1312.31
841.151	1314.64
841.332	1266.98
841.512	1361.53
841.692	1211.57
841.872	1321.03
842.052	1322.2
842.232	1331.69
842.412	1267.17
842.592	1279.38
842.772	1340.02
842.952	1341.96
843.132	1310.96
843.312	1292.16
843.492	1267.75
843.672	1329.75
843.851	1206.33
844.031	1310.18
844.211	1284.41
844.391	1214.67
844.571	1262.72
844.751	1287.9
844.93	1274.73
845.11	1215.05
845.29	1266.01
845.47	1299.91
845.649	1259.23
845.829	1269.88
846.009	1247.41
846.188	1277.83
846.368	1272.4
846.547	1249.73
846.727	1312.12
846.907	1238.3
847.086	1276.86
847.266	1282.67
847.445	1247.8
847.625	1219.12
847.804	1255.16
847.984	1260.97
848.163	1231.33
848.343	1228.42
848.522	1231.91
848.701	1233.65
848.881	1213.89
849.06	1249.93
849.239	1247.8
849.419	1245.67
849.598	1173.2
849.777	1184.83
849.957	1160.61
850.136	1112.37
850.315	1119.54
850.494	1133.29
850.674	1121.86
850.853	1196.45
851.032	1153.44
851.211	1233.65
851.39	1161.39
851.569	1112.75
851.748	1098.81
851.927	1216.99
852.107	1138.91
852.286	1110.82
852.465	1091.06
852.644	1188.32
852.823	1165.26
853.002	1152.47
853.181	1150.92
853.359	1184.05
853.538	1091.06
853.717	1183.09
853.896	1061.02
854.075	1036.42
854.254	1001.74
854.433	952.14
854.611	987.4
854.79	980.81
854.969	1033.71
855.148	1034.67
855.327	998.64
855.505	1014.33
855.684	1023.63
855.863	1035.06
856.041	1014.14
856.22	1072.46
856.399	992.63
856.577	1111.79
856.756	1093.96
856.934	1195.48
857.113	1212.15
857.291	1088.92
857.47	1099.39
857.648	1098.81
857.827	1089.7
858.005	1128.64
858.184	1073.23
858.362	1144.14
858.541	1098.61
858.719	1095.32
858.898	1057.54
859.076	1081.37
859.254	1126.32
859.433	1084.47
859.611	1077.3
859.789	1071.29
859.967	1137.75
860.146	1160.42
860.324	1031.19
860.502	1057.34
860.68	1016.85
860.859	1054.44
861.037	1031.38
861.215	1045.72
861.393	1070.13
861.571	1045.52
861.749	1037.19
861.927	1070.32
862.105	1086.02
862.283	1041.65
862.461	1008.33
862.639	1003.48
862.817	1019.95
862.995	1052.11
863.173	1026.34
863.351	1036.61
863.529	1055.6
863.707	1050.76
863.885	1034.67
864.063	945.94
864.241	992.44
864.418	1097.06
864.596	1003.68
864.774	996.12
864.952	1015.49
865.129	1042.04
865.307	1003.68
865.485	970.74
865.663	1018.98
865.84	971.51
866.018	977.33
866.196	852.94
866.373	898.47
866.551	883.75
866.728	815.16
866.906	878.32
867.084	872.51
867.261	933.34
867.439	903.9
867.616	950.78
867.794	947.68
867.971	947.29
868.149	933.93
868.326	953.49
868.503	986.82
868.681	954.46
868.858	926.56
869.035	917.07
869.213	1001.74
869.39	917.65
869.567	1009.88
869.745	949.23
869.922	935.28
870.099	977.33
870.276	950.98
870.454	966.09
870.631	947.49
870.808	948.84
870.985	976.74
871.162	1005.81
871.339	976.36
871.517	889.17
871.694	898.86
871.871	925.6
872.048	942.84
872.225	903.9
872.402	951.17
872.579	884.52
872.756	950.2
872.933	872.9
873.11	914.75
873.287	905.45
873.463	903.7
873.64	875.8
873.817	942.06
873.994	920.17
874.171	868.83
874.348	901.76
874.524	864.76
874.701	888.59
874.878	856.81
875.055	901.38
875.231	902.35
875.408	888.4
875.585	800.82
875.762	887.23
875.938	846.74
876.115	822.13
876.291	858.56
876.468	871.54
876.645	837.83
876.821	820.58
876.998	846.55
877.174	865.34
877.351	851.39
877.527	834.34
877.704	842.87
877.88	869.99
878.057	829.88
878.233	894.98
878.409	820.97
878.586	896.15
878.762	810.9
878.938	822.72
879.115	761.49
879.291	821.55
879.467	771.57
879.644	784.16
879.82	813.42
879.996	813.61
880.172	780.28
880.349	791.91
880.525	849.06
880.701	759.75
880.877	779.32
881.053	791.13
881.229	789
881.405	830.08
881.581	763.23
881.757	800.05
881.933	776.6
882.109	813.03
882.285	830.85
882.461	734.56
882.637	798.5
882.813	775.44
882.989	759.17
883.165	829.69
883.341	742.7
883.517	795.2
883.693	798.88
883.869	824.65
884.044	778.35
884.22	803.73
884.396	844.03
884.572	780.28
884.747	828.53
884.923	819.62
885.099	807.6
885.275	858.56
885.45	783.38
885.626	778.93
885.801	772.53
885.977	764.2
886.153	719.64
886.328	776.6
886.504	776.99
886.679	786.48
886.855	762.27
887.03	814.19
887.206	804.12
887.381	796.17
887.557	814.19
887.732	791.33
887.908	800.24
888.083	785.9
888.258	741.15
888.434	777.18
888.609	774.08
888.784	842.28
888.96	767.3
889.135	750.64
889.31	742.12
889.485	783.38
889.661	783
889.836	842.09
890.011	792.3
890.186	765.75
890.361	774.86
890.537	807.6
890.712	786.1
890.887	798.11
891.062	782.03
891.237	835.89
891.412	715.96
891.587	765.17
891.762	811.09
891.937	826.78
892.112	756.84
892.287	755.68
892.462	745.22
892.637	698.14
892.812	702.59
892.987	716.54
893.161	702.59
893.336	709.57
893.511	694.07
893.686	718.29
893.861	729.14
894.035	705.3
894.21	735.92
894.385	684.77
894.56	740.95
894.734	659
894.909	656.29
895.084	665.01
895.258	641.56
895.433	662.29
895.608	623.74
895.782	593.9
895.957	615.79
896.131	603.97
896.306	561.93
896.48	561.54
896.655	546.24
896.829	498.19
897.004	518.14
897.178	540.81
897.353	518.34
897.527	573.17
897.701	528.22
897.876	523.38
898.05	582.86
898.224	542.56
898.399	600.49
898.573	558.06
898.747	425.15
898.921	509.04
899.096	405.58
899.27	450.33
899.444	406.55
899.618	449.75
899.792	458.28
899.967	452.08
900.141	508.46
900.315	469.51
900.489	449.75
900.663	476.3
900.837	457.89
901.011	420.3
901.185	537.33
901.359	457.89
901.533	470.48
901.707	466.8
901.881	474.55
902.055	396.67
902.229	460.99
902.403	526.09
902.576	455.95
902.75	474.94
902.924	586.34
903.098	511.75
903.272	540.62
903.446	575.3
903.619	563.09
903.793	570.46
903.967	541.78
904.14	585.76
904.314	616.37
904.488	531.51
904.661	614.44
904.835	588.86
905.009	597.19
905.182	622.96
905.356	611.14
905.529	569.88
905.703	545.85
905.876	541.39
906.05	539.65
906.223	485.4
906.397	476.49
906.57	464.86
906.744	439.1
906.917	436.58
907.09	456.15
907.264	473.97
907.437	430.57
907.61	399.38
907.784	429.41
907.957	448.01
908.13	410.81
908.304	456.92
908.477	413.71
908.65	432.31
908.823	383.68
908.996	462.93
909.17	414.68
909.343	427.08
909.516	426.11
909.689	392.02
909.862	394.73
910.035	433.09
910.208	401.51
910.381	378.07
910.554	459.25
910.727	399.38
910.9	396.47
911.073	389.3
911.246	463.51
911.419	430.57
911.592	422.63
911.765	391.63
911.938	389.11
912.11	381.55
912.283	385.23
912.456	449.17
912.629	400.54
912.802	346.29
912.974	358.88
913.147	337.77
913.32	274.99
913.493	347.65
913.665	367.41
913.838	343.19
914.01	361.98
914.183	340.87
914.356	323.23
914.528	394.15
914.701	437.16
914.873	389.11
915.046	361.6
915.218	308.32
915.391	291.27
915.563	284.87
915.736	339.32
915.908	370.32
916.081	349.97
916.253	343.58
916.425	340.09
916.598	368.18
916.77	342.03
916.942	339.7
917.115	246.7
917.287	328.08
917.459	303.86
917.632	290.49
917.804	240.5
917.976	324.4
918.148	344.93
918.32	347.45
918.493	341.83
918.665	381.55
918.837	332.73
919.009	396.08
919.181	398.8
919.353	349.39
919.525	356.37
919.697	339.32
919.869	348.23
920.041	418.36
920.213	469.51
920.385	386.59
920.557	374.97
920.729	387.37
920.901	360.82
921.073	378.45
921.244	335.63
921.416	434.64
921.588	371.09
921.76	337.38
921.932	414.68
922.103	349.78
922.275	351.72
922.447	339.9
922.619	302.5
922.79	338.93
922.962	306.96
923.134	361.4
923.305	284.49
923.477	292.24
923.648	305.99
923.82	342.42
923.991	255.62
924.163	269.18
924.335	307.93
924.506	286.62
924.677	334.86
924.849	282.74
925.02	332.53
925.192	338.35
925.363	310.25
925.535	316.65
925.706	270.54
925.877	349.39
926.049	277.7
926.22	292.43
926.391	306.77
926.562	325.75
926.734	299.02
926.905	334.28
927.076	243.02
927.247	278.09
927.419	252.52
927.59	245.74
927.761	277.51
927.932	222.68
928.103	273.83
928.274	219.97
928.445	191.49
928.616	212.22
928.787	221.32
928.958	243.99
929.129	227.33
929.3	228.11
929.471	180.44
929.642	136.66
929.813	114.76
929.984	184.9
930.155	125.42
930.326	192.07
930.496	137.43
930.667	87.44
930.838	134.53
931.009	89.77
931.18	131.62
931.35	126.19
931.521	120.19
931.692	78.92
931.863	47.73
932.033	101.2
932.204	96.55
932.374	84.73
932.545	30.29
932.716	131.04
932.886	96.74
933.057	13.24
933.227	50.63
933.398	146.34
933.568	26.41
933.739	9.75
933.909	44.05
934.08	60.9
934.25	26.41
934.421	16.92
934.591	60.13
934.761	11.88
934.932	-2.07
935.102	44.63
935.272	28.35
935.443	27
935.613	34.94
935.783	18.47
935.953	-30.16
936.123	159.32
936.294	0.65
936.464	34.36
936.634	8.78
936.804	-12.53
936.974	-36.75
937.144	58.38
937.314	39.4
937.484	8.98
937.655	9.17
937.825	64.97
937.995	-15.24
938.165	54.12
938.334	18.86
938.504	50.83
938.674	6.07
938.844	28.93
939.014	68.26
939.184	94.03
939.354	105.66
939.524	98.49
939.694	71.36
939.863	48.31
940.033	145.18
940.203	110.11
940.373	99.26
940.542	88.61
940.712	80.28
940.882	91.71
941.051	93.64
941.221	99.07
941.391	100.23
941.56	49.47
941.73	53.15
941.899	149.83
942.069	40.56
942.238	81.05
942.408	54.9
942.577	107.98
942.747	60.71
942.916	-7.1
943.086	35.91
943.255	104.11
943.425	77.56
943.594	39.01
943.763	-27.84
943.933	10.33
944.102	-9.62
944.271	43.27
944.441	52.18
944.61	47.34
944.779	72.72
944.948	131.81
945.117	9.95
945.287	30.87
945.456	-12.34
945.625	2.97
945.794	47.53
945.963	12.66
946.132	54.51
946.301	34.75
946.47	69.04
946.639	9.17
946.808	20.41
946.977	64.19
947.146	85.31
947.315	39.4
947.484	75.24
947.653	23.7
947.822	20.99
947.991	21.76
948.16	141.69
948.329	60.71
948.498	41.33
948.666	40.75
948.835	50.05
949.004	-2.07
949.173	-9.82
949.341	57.22
949.51	40.17
949.679	93.45
949.847	76.21
950.016	113.02
950.185	88.41
950.353	23.9
950.522	34.36
950.69	82.99
950.859	41.53
951.028	76.98
951.196	46.95
951.365	12.27
951.533	43.85
951.701	88.99
951.87	57.03
952.038	28.35
952.207	26.41
952.375	119.41
952.543	29.9
952.712	59.54
952.88	26.03
953.048	109.34
953.217	32.42
953.385	31.84
953.553	81.24
953.721	20.41
953.89	49.86
954.058	-0.52
954.226	52.96
954.394	26.61
954.562	-4.97
954.73	64.97
954.898	38.23
955.067	74.08
955.235	33
955.403	77.95
955.571	115.54
955.739	90.54
955.907	31.84
956.075	-7.49
956.243	44.43
956.41	74.08
956.578	-1.29
956.746	3.36
956.914	44.82
957.082	63.81
957.25	69.81
957.418	16.92
957.585	55.48
957.753	82.41
957.921	4.52
958.089	54.12
958.256	66.33
958.424	71.56
958.592	70.01
958.759	29.32
958.927	61.29
959.095	19.44
959.262	46.37
959.43	43.85
959.597	40.17
959.765	20.21
959.932	9.95
960.1	63.42
960.267	47.53
960.435	28.93
960.602	85.31
960.77	23.51
960.937	20.6
961.104	47.92
961.272	11.3
961.439	39.2
961.606	60.32
961.774	77.56
961.941	24.48
962.108	71.56
962.275	88.99
962.443	90.74
962.61	78.34
962.777	104.69
962.944	76.21
963.111	68.07
963.278	72.53
963.446	55.48
963.613	50.44
963.78	75.82
963.947	77.18
964.114	78.53
964.281	154.29
964.448	85.89
964.615	36.49
964.782	79.11
964.949	83.76
965.116	107.98
965.282	91.32
965.449	51.8
965.616	6.07
965.783	88.22
965.95	72.14
966.117	34.36
966.283	56.64
966.45	52.76
966.617	82.99
966.784	98.88
966.95	130.46
967.117	62.06
967.284	19.83
967.45	33.78
967.617	85.51
967.784	86.09
967.95	108.18
968.117	58.19
968.283	128.33
968.45	168.82
968.616	72.91
968.783	112.05
968.949	91.51
969.116	115.93
969.282	61.48
969.449	87.83
969.615	46.95
969.781	21.57
969.948	61.68
970.114	15.76
970.28	100.04
970.447	65.36
970.613	107.79
970.779	78.53
970.945	92.87
971.112	88.41
971.278	69.04
971.444	87.06
971.61	123.87
971.776	60.51
971.942	92.09
972.108	118.64
972.275	71.17
972.441	70.78
972.607	151.57
972.773	50.25
972.939	82.99
973.105	82.21
973.271	52.18
973.437	36.3
973.602	53.54
973.768	93.06
973.934	59.74
974.1	79.11
974.266	-18.92
974.432	76.4
974.598	61.87
974.763	67.68
974.929	68.26
975.095	131.23
975.261	45.79
975.426	24.67
975.592	55.28
975.758	105.08
975.923	13.63
976.089	33.58
976.255	100.62
976.42	86.67
976.586	65.16
976.751	89.77
976.917	155.26
977.082	116.7
977.248	31.26
977.413	16.34
977.579	58.58
977.744	58.38
977.91	45.6
978.075	2.58
978.24	102.75
978.406	70.98
978.571	42.5
978.736	48.31
978.902	67.49
979.067	15.56
979.232	9.17
979.397	80.86
979.563	119.41
979.728	19.25
979.893	76.79
980.058	29.13
980.223	74.85
980.388	97.13
980.554	51.41
980.719	13.43
980.884	73.49
981.049	106.63
981.214	30.1
981.379	54.12
981.544	60.51
981.709	47.34
981.874	58.96
982.039	40.75
982.204	81.63
982.368	37.26
982.533	18.47
982.698	75.24
982.863	115.73
983.028	41.53
983.193	89.38
983.357	87.06
983.522	79.89
983.687	21.96
983.852	66.71
984.016	52.38
984.181	58.96
984.346	76.4
984.51	90.54
984.675	69.81
984.839	82.02
985.004	66.13
985.168	104.88
985.333	57.03
985.498	47.73
985.662	90.16
985.827	82.21
985.991	39.4
986.155	63.23
986.32	96.55
986.484	105.85
986.649	62.06
986.813	1.23
986.977	86.28
987.142	63.81
987.306	34.36
987.47	17.89
987.634	45.21
987.799	74.08
987.963	59.54
988.127	73.69
988.291	130.46
988.455	70.98
988.62	42.11
988.784	66.33
988.948	69.81
989.112	26.03
989.276	88.61
989.44	69.62
989.604	11.3
989.768	40.36
989.932	123.87
990.096	12.08
990.26	36.68
990.424	3.75
990.588	57.41
990.752	121.74
990.915	82.21
991.079	53.54
991.243	42.88
991.407	94.23
991.571	53.15
991.734	65.55
991.898	79.5
992.062	147.31
992.226	29.51
992.389	31.84
992.553	-20.28
992.717	38.43
992.88	29.9
993.044	23.31
993.207	39.01
993.371	80.66
993.535	75.43
993.698	56.45
993.862	79.89
994.025	80.86
994.189	53.73
994.352	90.35
994.515	92.68
994.679	91.32
994.842	45.4
995.006	69.62
995.169	10.33
995.332	29.9
995.496	88.22
995.659	-9.04
995.822	44.05
995.985	57.22
996.149	69.43
996.312	23.9
996.475	99.46
996.638	68.26
996.801	90.35
996.964	97.91
997.128	36.49
997.291	27.38
997.454	33.2
997.617	-5.17
997.78	121.93
997.943	32.03
998.106	73.69
998.269	27.77
998.432	35.91
998.595	57.41
998.758	1.81
998.92	15.76
999.083	-4
999.246	34.36
999.409	-1.1
999.572	-51.67
999.735	0.06
999.897	62.26
1000.06	2.2
1000.223	24.67
1000.386	64
1000.548	75.04
1000.711	59.16
1000.874	74.85
1001.036	-3.62
1001.199	72.14
1001.361	6.46
1001.524	48.7
1001.687	56.25
1001.849	31.26
1002.012	42.11
1002.174	39.01
1002.337	66.13
1002.499	38.23
1002.661	78.34
1002.824	13.05
1002.986	19.44
1003.149	59.93
1003.311	20.6
1003.473	107.4
1003.636	9.95
1003.798	67.1
1003.96	58.19
1004.123	35.91
1004.285	19.25
1004.447	54.51
1004.609	48.31
1004.771	88.03
1004.933	-4.59
1005.096	-7.1
1005.258	-9.43
1005.42	5.68
1005.582	76.98
1005.744	33.39
1005.906	-13.3
1006.068	27
1006.23	5.49
1006.392	-4.39
1006.554	-11.56
1006.716	64.78
1006.878	51.21
1007.04	-27.25
1007.202	24.67
1007.363	28.55
1007.525	38.23
1007.687	51.02
1007.849	66.71
1008.011	-18.15
1008.172	6.85
1008.334	-3.42
1008.496	26.03
1008.658	-42.37
1008.819	-5.75
1008.981	17.5
1009.143	-12.92
1009.304	24.48
1009.466	33.97
1009.627	81.24
1009.789	109.53
1009.95	42.5
1010.112	2.39
1010.273	43.66
1010.435	5.49
1010.596	11.3
1010.758	-7.3
1010.919	32.23
1011.081	-21.05
1011.242	-2.45
1011.403	37.26
1011.565	1.61
1011.726	52.18
1011.887	-5.55
1012.049	21.18
1012.21	34.75
1012.371	74.66
1012.532	-27.64
1012.693	22.35
1012.855	-0.9
1013.016	6.26
1013.177	62.64
1013.338	15.95
1013.499	98.29
1013.66	58.58
1013.821	58.77
1013.982	21.38
1014.143	21.57
1014.304	-20.86
1014.465	47.92
1014.626	50.05
1014.787	16.73
1014.948	125.03
1015.109	-54.18
1015.27	73.11
1015.431	-6.14
1015.592	-10.79
1015.752	69.62
1015.913	33.97
1016.074	40.56
1016.235	19.25
1016.395	9.17
1016.556	9.75
1016.717	33.97
1016.877	60.13
1017.038	10.14
1017.199	3.94
1017.359	4.71
1017.52	27.58
1017.681	-4.97
1017.841	0.84
1018.002	-4.97
1018.162	2.78
1018.323	33.2
1018.483	13.05
1018.644	16.15
1018.804	-34.03
1018.964	-35.2
1019.125	8.01
1019.285	2.2
1019.446	-10.4
1019.606	11.69
1019.766	-27.64
1019.926	37.85
1020.087	27.58
1020.247	-33.84
1020.407	30.68
1020.567	57.22
1020.728	15.95
1020.888	-26.09
1021.048	0.26
1021.208	-23.38
1021.368	-24.54
1021.528	49.86
1021.688	78.92
1021.848	33.39
1022.008	31.84
1022.168	0.45
1022.328	9.75
1022.488	47.73
1022.648	-20.67
1022.808	17.89
1022.968	11.88
1023.128	-0.32
1023.288	-5.55
1023.448	33
1023.608	25.83
1023.767	52.57
1023.927	-9.24
1024.087	-28.22
1024.247	-19.31
1024.406	3.16
1024.566	1.42
1024.726	-12.34
1024.885	11.5
1025.045	9.17
1025.205	30.48
1025.364	18.66
1025.524	40.36
1025.683	18.28
1025.843	-2.84
1026.003	16.92
1026.162	73.3
1026.321	54.51
1026.481	22.93
1026.64	33
1026.8	30.68
1026.959	14.79
1027.119	16.34
1027.278	-9.04
1027.437	-28.03
1027.597	16.34
1027.756	22.54
1027.915	31.26
1028.074	29.13
1028.234	7.23
1028.393	28.74
1028.552	-11.75
1028.711	-62.32
1028.87	58.19
1029.03	-44.88
1029.189	2.78
1029.348	-39.85
1029.507	-11.95
1029.666	23.9
1029.825	-26.09
1029.984	6.26
1030.143	10.72
1030.302	-12.72
1030.461	-31.13
1030.62	27.38
1030.779	42.3
1030.938	-14.66
1031.097	-33.45
1031.255	36.49
1031.414	74.27
1031.573	45.21
1031.732	-27.06
1031.891	5.49
1032.049	64.78
1032.208	19.05
1032.367	-19.5
1032.525	-4.2
1032.684	-9.04
1032.843	7.23
1033.001	-28.8
1033.16	115.15
1033.319	24.48
1033.477	41.33
1033.636	-2.07
1033.794	-51.86
1033.953	12.08
1034.111	34.75
1034.27	2.97
1034.428	14.01
1034.587	-12.14
1034.745	0.26
1034.903	7.43
1035.062	21.57
1035.22	-50.12
1035.378	42.69
1035.537	-30.16
1035.695	34.36
1035.853	-5.75
1036.011	32.03
1036.17	19.83
1036.328	-67.94
1036.486	19.83
1036.644	-4.2
1036.802	-89.45
1036.96	-34.23
1037.119	0.84
1037.277	-33.07
1037.435	-35.2
1037.593	-31.52
1037.751	-3.04
1037.909	26.22
1038.067	26.22
