Data from pine_FLMT105791__122__17-22-21-075.txt Node

Date: Mon Mar 20 17:22:21 GMT 2023
User: antho
Spectrometer: FLMT10579
Trigger mode: 0
Integration Time (sec): 1.000000E-1
Scans to average: 10
Electric dark correction enabled: true
Nonlinearity correction enabled: false
Boxcar width: 0
XAxis mode: Wavelengths
Number of Pixels in Spectrum: 3648
>>>>>Begin Spectral Data<<<<<
345.248	-144.1
345.464	-144.1
345.681	-144.1
345.898	-159.6
346.114	-166.96
346.331	-40.64
346.548	26.2
346.764	-5.57
346.981	-3.44
347.197	-28.82
347.414	19.62
347.631	-19.52
347.847	57.4
348.064	2.57
348.28	6.05
348.497	-20.88
348.713	7.02
348.93	30.47
349.146	53.72
349.363	9.74
349.579	7.02
349.796	7.02
350.012	-4.8
350.229	30.27
350.445	7.6
350.661	-25.53
350.878	1.02
351.094	25.04
351.311	29.11
351.527	45.77
351.743	6.44
351.96	17.68
352.176	49.84
352.392	20.59
352.609	26.4
352.825	-11.38
353.041	8.38
353.257	-7.9
353.474	14
353.69	-19.52
353.906	14
354.122	-28.82
354.339	45
354.555	7.02
354.771	-15.06
354.987	35.5
355.203	32.6
355.42	-8.86
355.636	-13.9
355.852	4.89
356.068	2.95
356.284	-11.58
356.5	59.92
356.716	16.32
356.932	16.71
357.148	55.46
357.364	-2.66
357.58	51.39
357.796	33.37
358.012	41.51
358.228	29.11
358.444	-48.58
358.66	54.3
358.876	36.47
359.092	-18.55
359.308	25.04
359.524	16.32
359.74	7.8
359.956	-16.81
360.172	-7.51
360.388	74.45
360.604	6.64
360.819	77.93
361.035	-7.12
361.251	44.8
361.467	-28.24
361.683	44.03
361.898	36.86
362.114	36.28
362.33	11.67
362.546	34.34
362.762	0.24
362.977	12.45
363.193	-0.73
363.409	63.4
363.624	-21.85
363.84	-23.59
364.056	3.54
364.271	6.44
364.487	7.22
364.703	4.5
364.918	13.61
365.134	-26.88
365.35	8.96
365.565	125.98
365.781	12.45
365.996	14
366.212	76.19
366.427	26.59
366.643	-23.2
366.858	13.22
367.074	9.35
367.289	64.76
367.505	119.59
367.72	-36.18
367.936	-9.64
368.151	52.55
368.367	27.95
368.582	34.34
368.798	-6.15
369.013	53.72
369.228	20.97
369.444	-14.29
369.659	63.99
369.874	35.89
370.09	70.18
370.305	-42.77
370.52	29.5
370.736	47.52
370.951	19.81
371.166	66.31
371.381	82.39
371.597	74.45
371.812	-21.65
372.027	-12.16
372.242	17.87
372.458	94.21
372.673	10.7
372.888	15.35
373.103	29.5
373.318	86.46
373.533	48.87
373.749	39.19
373.964	-5.76
374.179	65.73
374.394	-6.93
374.609	79.48
374.824	-8.67
375.039	72.9
375.254	9.35
375.469	58.17
375.684	24.46
375.899	56.43
376.114	23.88
376.329	44.03
376.544	73.09
376.759	57.59
376.974	-12.93
377.189	36.67
377.404	15.35
377.619	31.82
377.834	-30.76
378.049	-17.78
378.264	-25.53
378.478	29.3
378.693	-9.45
378.908	53.14
379.123	15.35
379.338	59.92
379.553	32.79
379.767	13.8
379.982	34.73
380.197	48.1
380.412	-4.02
380.626	43.06
380.841	91.11
381.056	48.49
381.271	68.05
381.485	3.73
381.7	1.4
381.915	26.2
382.129	-3.63
382.344	46.55
382.559	2.18
382.773	45.39
382.988	-17.58
383.202	43.64
383.417	6.25
383.632	135.87
383.846	28.92
384.061	32.02
384.275	16.32
384.49	41.7
384.704	59.14
384.919	43.84
385.133	6.44
385.348	48.87
385.562	-4.41
385.777	36.86
385.991	32.99
386.206	29.5
386.42	-16.61
386.634	78.9
386.849	42.09
387.063	56.24
387.277	-14.48
387.492	8.96
387.706	-26.3
387.92	-4.8
388.135	32.79
388.349	33.18
388.563	23.1
388.778	20.97
388.992	68.63
389.206	16.9
389.42	93.24
389.635	33.57
389.849	56.43
390.063	53.52
390.277	52.75
390.491	76.38
390.706	26.98
390.92	67.08
391.134	36.28
391.348	56.62
391.562	-17
391.776	24.65
391.99	-6.35
392.205	76.77
392.419	-3.63
392.633	0.63
392.847	89.17
393.061	-14.29
393.275	85.1
393.489	31.44
393.703	43.06
393.917	75.42
394.131	17.87
394.345	36.86
394.559	60.69
394.773	31.44
394.986	76.77
395.2	30.27
395.414	77.16
395.628	-3.25
395.842	38.02
396.056	39.19
396.27	-16.42
396.484	59.14
396.697	38.8
396.911	99.83
397.125	59.92
397.339	54.49
397.553	68.05
397.766	79.48
397.98	85.1
398.194	74.25
398.408	27.75
398.621	56.04
398.835	78.52
399.049	44.8
399.262	94.02
399.476	84.33
399.69	41.32
399.903	122.11
400.117	69.22
400.331	46.94
400.544	23.1
400.758	160.28
400.971	38.6
401.185	117.85
401.398	7.22
401.612	97.5
401.826	55.65
402.039	72.9
402.253	33.57
402.466	86.46
402.68	42.87
402.893	54.49
403.106	63.6
403.32	48.68
403.533	80.07
403.747	61.47
403.96	57.59
404.174	83.17
404.387	22.33
404.6	41.12
404.814	88.59
405.027	48.49
405.24	42.67
405.454	40.54
405.667	116.68
405.88	-2.66
406.094	57.59
406.307	73.48
406.52	63.6
406.733	26.4
406.947	21.55
407.16	96.53
407.373	108.93
407.586	21.55
407.799	7.6
408.012	107.58
408.226	49.84
408.439	116.68
408.652	16.13
408.865	59.14
409.078	81.23
409.291	49.26
409.504	11.87
409.717	77.16
409.93	74.25
410.143	37.05
410.357	14.58
410.57	14.97
410.783	21.94
410.996	76.38
411.209	50.62
411.421	81.81
411.634	70.38
411.847	47.52
412.06	67.67
412.273	52.94
412.486	90.72
412.699	141.1
412.912	57.2
413.125	88.01
413.338	66.12
413.55	87.43
413.763	51.2
413.976	73.67
414.189	31.24
414.402	62.05
414.615	100.8
414.827	40.54
415.04	93.05
415.253	72.7
415.466	108.35
415.678	113.97
415.891	83.17
416.104	82.97
416.316	48.87
416.529	33.57
416.742	109.71
416.954	140.13
417.167	73.67
417.38	62.05
417.592	112.62
417.805	68.83
418.017	26.4
418.23	88.98
418.442	56.43
418.655	65.53
418.868	68.44
419.08	109.9
419.293	131.22
419.505	63.79
419.718	95.18
419.93	118.62
420.142	81.23
420.355	130.44
420.567	125.02
420.78	125.98
420.992	87.82
421.205	131.99
421.417	45.58
421.629	78.71
421.842	46.16
422.054	42.09
422.266	100.99
422.479	110.87
422.691	70.38
422.903	106.8
423.115	76.58
423.328	93.24
423.54	102.54
423.752	90.92
423.964	60.89
424.177	102.15
424.389	81.62
424.601	183.33
424.813	93.63
425.025	145.17
425.238	109.71
425.45	82.58
425.662	92.08
425.874	386.96
426.086	98.86
426.298	101.18
426.51	112.81
426.722	82.78
426.934	72.12
427.146	118.04
427.358	75.03
427.57	114.55
427.782	116.68
427.994	98.28
428.206	75.42
428.418	71.54
428.63	112.42
428.842	118.43
429.054	113.39
429.266	147.1
429.478	78.9
429.69	82
429.902	54.88
430.114	148.07
430.325	122.3
430.537	100.41
430.749	117.27
430.961	49.65
431.173	89.56
431.384	132.96
431.596	42.87
431.808	80.26
432.02	125.4
432.231	110.87
432.443	156.21
432.655	145.55
432.867	94.4
433.078	136.45
433.29	216.66
433.502	170.74
433.713	161.05
433.925	125.98
434.136	176.16
434.348	106.8
434.56	82.78
434.771	234.48
434.983	100.99
435.194	86.07
435.406	120.56
435.617	175.2
435.829	204.06
436.04	163.57
436.252	176.75
436.463	198.25
436.675	186.05
436.886	168.61
437.098	145.55
437.309	216.46
437.521	156.21
437.732	157.56
437.943	174.03
438.155	178.1
438.366	113.2
438.578	214.91
438.789	185.46
439	205.61
439.211	155.43
439.423	174.42
439.634	206
439.845	195.35
440.057	176.94
440.268	191.08
440.479	153.5
440.69	181.2
440.902	169.58
441.113	156.01
441.324	161.05
441.535	195.93
441.746	222.66
441.957	156.21
442.168	169.58
442.38	206.39
442.591	211.62
442.802	178.3
443.013	196.51
443.224	221.31
443.435	164.15
443.646	171.32
443.857	183.72
444.068	175.58
444.279	174.23
444.49	240.1
444.701	181.01
444.912	265.87
445.123	232.35
445.334	224.99
445.545	204.65
445.756	212.01
445.967	174.23
446.178	243.98
446.388	224.99
446.599	246.88
446.81	223.05
447.021	177.71
447.232	262.19
447.443	269.36
447.653	164.73
447.864	256.76
448.075	212.01
448.286	247.85
448.496	253.66
448.707	253.86
448.918	229.45
449.129	312.76
449.339	181.2
449.55	234.48
449.761	221.5
449.971	270.52
450.182	230.41
450.393	267.42
450.603	230.8
450.814	244.94
451.024	272.46
451.235	299.19
451.446	289.31
451.656	299.39
451.867	250.37
452.077	263.54
452.288	301.91
452.498	316.44
452.709	245.14
452.919	291.83
453.13	248.63
453.34	293.96
453.55	176.36
453.761	316.24
453.971	271.29
454.182	290.09
454.392	274.01
454.602	291.44
454.813	284.47
455.023	291.44
455.233	241.46
455.444	261.61
455.654	198.25
455.864	274.39
456.075	248.04
456.285	247.27
456.495	295.13
456.705	283.31
456.916	329.42
457.126	344.92
457.336	292.99
457.546	211.43
457.756	274.2
457.967	314.5
458.177	262.58
458.387	281.37
458.597	238.75
458.807	271.29
459.017	293.58
459.227	275.36
459.437	265.48
459.647	323.8
459.857	307.53
460.068	266.45
460.278	327.87
460.488	308.69
460.698	344.34
460.908	275.56
461.117	234.48
461.327	254.44
461.537	333.1
461.747	311.98
461.957	295.51
462.167	403.04
462.377	336.01
462.587	305.01
462.797	327.29
463.007	299.97
463.216	338.33
463.426	352.28
463.636	334.07
463.846	277.11
464.056	287.76
464.265	350.92
464.475	304.81
464.685	324.77
464.895	348.41
465.104	324.96
465.314	362.16
465.524	303.26
465.733	296.48
465.943	397.04
466.153	378.63
466.362	362.16
466.572	319.54
466.782	277.49
466.991	305.98
467.201	392.58
467.41	260.06
467.62	347.44
467.829	319.93
468.039	330.97
468.249	324.19
468.458	344.34
468.668	345.31
468.877	340.27
469.086	384.83
469.296	391.03
469.505	342.98
469.715	403.62
469.924	359.64
470.134	384.06
470.343	404.21
470.552	357.9
470.762	389.09
470.971	342.98
471.18	369.14
471.39	383.09
471.599	325.35
471.808	386.38
472.018	347.44
472.227	409.82
472.436	407.31
472.645	392
472.855	354.8
473.064	404.01
473.273	387.35
473.482	423.97
473.691	450.32
473.901	417.96
474.11	396.65
474.319	491.39
474.528	409.82
474.737	481.9
474.946	421.64
475.155	425.13
475.364	468.34
475.573	422.61
475.783	437.34
475.992	467.75
476.201	475.5
476.41	435.2
476.619	402.46
476.828	444.7
477.037	430.36
477.245	440.05
477.454	460.59
477.663	441.4
477.872	447.41
478.081	508.05
478.29	449.93
478.499	509.8
478.708	462.33
478.917	534.98
479.125	469.11
479.334	497.79
479.543	488.1
479.752	480.15
479.961	483.06
480.169	533.24
480.378	447.99
480.587	606.09
480.796	531.69
481.004	497.59
481.213	526.65
481.422	539.05
481.63	513.87
481.839	534.6
482.048	618.68
482.256	544.48
482.465	552.03
482.674	565.4
482.882	547.77
483.091	596.21
483.299	573.73
483.508	597.95
483.716	560.56
483.925	566.57
484.134	510.96
484.342	555.72
484.551	579.93
484.759	589.04
484.967	582.65
485.176	580.52
485.384	599.7
485.593	605.51
485.801	564.43
486.01	568.7
486.218	559.78
486.426	491.39
486.635	508.83
486.843	513.28
487.051	524.52
487.26	565.4
487.468	582.84
487.676	604.35
487.885	503.79
488.093	589.81
488.301	588.07
488.509	622.75
488.717	656.08
488.926	617.71
489.134	593.3
489.342	617.71
489.55	554.94
489.758	633.6
489.967	583.62
490.175	712.07
490.383	640.96
490.591	708.97
490.799	603.57
491.007	689.01
491.215	678.55
491.423	669.83
491.631	634.38
491.839	665.57
492.047	702.58
492.255	593.5
492.463	596.98
492.671	629.92
492.879	726.79
493.087	628.37
493.295	688.43
493.503	723.5
493.711	730.67
493.919	741.52
494.127	731.06
494.334	704.32
494.542	662.86
494.75	664.21
494.958	671
495.166	766.9
495.374	726.41
495.581	707.03
495.789	714.98
495.997	743.07
496.205	712.46
496.412	683.59
496.62	709.94
496.828	728.15
497.035	722.14
497.243	754.5
497.451	702.77
497.658	760.89
497.866	737.26
498.074	777.75
498.281	694.24
498.489	810.11
498.696	735.51
498.904	741.13
499.112	709.74
499.319	797.9
499.527	743.07
499.734	776.97
499.942	705.29
500.149	746.94
500.357	758.96
500.564	714.01
500.771	763.22
500.979	726.41
501.186	758.76
501.394	744.81
501.601	745.98
501.808	744.62
502.016	745.59
502.223	743.46
502.43	777.36
502.638	735.13
502.845	705.09
503.052	819.79
503.26	748.49
503.467	827.16
503.674	770.19
503.881	801.19
504.089	882.95
504.296	820.37
504.503	749.66
504.71	792.28
504.917	756.83
505.125	797.12
505.332	757.02
505.539	813.98
505.746	890.9
505.953	824.25
506.16	858.35
506.367	907.95
506.574	915.89
506.781	900.97
506.988	826.57
507.195	844.59
507.402	838.39
507.609	856.8
507.816	839.75
508.023	829.09
508.23	831.42
508.437	841.49
508.644	854.28
508.851	885.47
509.058	907.75
509.265	881.02
509.472	898.07
509.679	965.3
509.885	882.57
510.092	886.25
510.299	901.55
510.506	897.49
510.713	900.2
510.92	918.6
511.126	899.81
511.333	962.39
511.54	939.53
511.746	982.15
511.953	979.25
512.16	992.23
512.367	938.56
512.573	918.99
512.78	970.33
512.987	947.47
513.193	896.52
513.4	875.01
513.606	881.4
513.813	956.97
514.02	935.85
514.226	1018.38
514.433	1006.57
514.639	910.66
514.846	953.67
515.052	926.55
515.259	937.98
515.465	975.95
515.672	982.54
515.878	1082.71
516.085	961.62
516.291	1024.58
516.497	977.31
516.704	951.15
516.91	938.56
517.117	891.67
517.323	856.8
517.529	900.78
517.736	897.29
517.942	915.12
518.148	911.05
518.354	944.18
518.561	942.24
518.767	977.7
518.973	1008.89
519.179	1008.5
519.386	957.74
519.592	961.42
519.798	961.42
520.004	1065.66
520.21	1039.7
520.417	1073.41
520.623	1102.66
520.829	1140.06
521.035	1089.88
521.241	1135.21
521.447	1129.4
521.653	1198.38
521.859	1106.73
522.065	1097.05
522.271	1222.21
522.477	1155.94
522.683	1190.43
522.889	1135.21
523.095	1140.25
523.301	1149.55
523.507	1100.73
523.713	1158.46
523.919	1123.01
524.125	1188.11
524.331	1194.31
524.537	1266.38
524.742	1237.51
524.948	1256.89
525.154	1239.26
525.36	1348.72
525.566	1252.43
525.772	1314.62
525.977	1222.59
526.183	1264.25
526.389	1271.03
526.595	1216.39
526.8	1214.84
527.006	1167.76
527.212	1142.58
527.417	1111.38
527.623	1111.77
527.829	1184.62
528.034	1231.31
528.24	1197.21
528.446	1226.86
528.651	1304.74
528.857	1262.51
529.062	1325.86
529.268	1287.31
529.473	1343.1
529.679	1288.27
529.884	1366.94
530.09	1331.09
530.295	1391.93
530.501	1385.73
530.706	1322.57
530.912	1338.07
531.117	1361.12
531.323	1353.18
531.528	1357.44
531.733	1402.78
531.939	1361.9
532.144	1430.68
532.35	1357.83
532.555	1418.28
532.76	1379.53
532.966	1416.53
533.171	1368.68
533.376	1358.6
533.581	1331.48
533.787	1352.21
533.992	1439.78
534.197	1437.85
534.402	1372.55
534.607	1384.37
534.813	1466.71
535.018	1365.19
535.223	1414.21
535.428	1421.18
535.633	1453.54
535.838	1487.83
536.043	1456.45
536.249	1515.15
536.454	1455.48
536.659	1453.35
536.864	1450.25
537.069	1455.09
537.274	1436.3
537.479	1435.72
537.684	1471.17
537.889	1396
538.094	1542.66
538.299	1464.39
538.504	1508.56
538.708	1487.25
538.913	1496.55
539.118	1489.38
539.323	1499.26
539.528	1445.21
539.733	1461.1
539.938	1450.05
540.142	1482.02
540.347	1458.38
540.552	1447.15
540.757	1421.57
540.962	1445.79
541.166	1404.91
541.371	1371
541.576	1442.88
541.781	1336.71
541.985	1473.3
542.19	1478.34
542.395	1499.46
542.599	1549.06
542.804	1507.01
543.008	1556.23
543.213	1461.1
543.418	1458.38
543.622	1497.33
543.827	1453.35
544.031	1564.36
544.236	1542.08
544.44	1506.05
544.645	1576.18
544.849	1494.03
545.054	1527.55
545.258	1610.28
545.463	1607.38
545.667	1490.16
545.872	1569.79
546.076	1570.95
546.281	1557.19
546.485	1517.67
546.689	1555.84
546.894	1567.66
547.098	1544.99
547.302	1514.96
547.507	1562.43
547.711	1530.85
547.915	1574.44
548.119	1514.57
548.324	1530.07
548.528	1613.96
548.732	1498.49
548.936	1587.81
549.141	1565.14
549.345	1554.48
549.549	1558.55
549.753	1573.08
549.957	1657.36
550.161	1667.82
550.366	1584.9
550.57	1538.6
550.774	1542.47
550.978	1568.63
551.182	1604.47
551.386	1562.23
551.59	1541.11
551.794	1553.51
551.998	1599.63
552.202	1553.9
552.406	1541.5
552.61	1582.96
552.814	1592.07
553.018	1655.62
553.222	1581.8
553.426	1574.24
553.63	1633.14
553.833	1619.78
554.037	1511.28
554.241	1579.09
554.445	1586.06
554.649	1571.53
554.853	1575.21
555.056	1633.73
555.26	1626.75
555.464	1620.74
555.668	1602.92
555.871	1595.56
556.075	1632.37
556.279	1569.01
556.483	1559.71
556.686	1588.58
556.89	1568.43
557.094	1593.23
557.297	1507.79
557.501	1586.45
557.704	1485.12
557.908	1564.17
558.112	1545.57
558.315	1613.77
558.519	1552.74
558.722	1545.38
558.926	1540.92
559.129	1470.59
559.333	1423.9
559.536	1476.6
559.74	1474.46
559.943	1454.7
560.147	1437.65
560.35	1470.98
560.553	1480.86
560.757	1446.95
560.96	1532.98
561.164	1487.83
561.367	1559.33
561.57	1486.48
561.774	1498.49
561.977	1483.76
562.18	1444.82
562.384	1562.81
562.587	1495
562.79	1501.4
562.993	1455.48
563.197	1502.75
563.4	1552.16
563.603	1521.16
563.806	1565.14
564.009	1479.31
564.212	1480.86
564.416	1415.95
564.619	1453.15
564.822	1441.33
565.025	1536.08
565.228	1480.08
565.431	1445.21
565.634	1388.25
565.837	1417.31
566.04	1396
566.243	1400.84
566.446	1316.17
566.649	1419.44
566.852	1366.16
567.055	1398.32
567.258	1416.92
567.461	1501.4
567.664	1451.41
567.867	1347.17
568.07	1387.67
568.273	1418.08
568.475	1433.58
568.678	1347.56
568.881	1374.3
569.084	1414.79
569.287	1287.5
569.489	1299.51
569.692	1394.64
569.895	1408.78
570.098	1314.43
570.3	1296.02
570.503	1258.44
570.706	1290.79
570.909	1292.15
571.111	1236.54
571.314	1248.17
571.516	1277.42
571.719	1322.18
571.922	1262.31
572.124	1254.95
572.327	1306.1
572.529	1223.37
572.732	1264.64
572.935	1293.31
573.137	1345.43
573.34	1303
573.542	1303.58
573.745	1239.45
573.947	1280.52
574.15	1265.8
574.352	1254.17
574.554	1338.45
574.757	1248.56
574.959	1247.97
575.162	1238.67
575.364	1229.76
575.566	1301.25
575.769	1194.5
575.971	1250.69
576.173	1119.33
576.376	1210.19
576.578	1240.22
576.78	1296.6
576.982	1148.58
577.185	1220.85
577.387	1186.75
577.589	1173.58
577.791	1225.89
577.993	1223.76
578.196	1194.69
578.398	1203.8
578.6	1207.87
578.802	1142.19
579.004	1123.78
579.206	1174.16
579.408	1199.54
579.61	1182.68
579.812	1221.82
580.014	1188.11
580.216	1168.93
580.418	1156.53
580.62	1157.49
580.822	1131.53
581.024	1177.84
581.226	1197.41
581.428	1174.74
581.63	1225.89
581.832	1148.97
582.034	1212.52
582.236	1194.5
582.438	1209.03
582.64	1242.74
582.841	1268.51
583.043	1310.75
583.245	1218.33
583.447	1217.56
583.649	1163.11
583.85	1203.41
584.052	1252.62
584.254	1151.1
584.456	1250.11
584.657	1157.11
584.859	1222.59
585.061	1206.51
585.262	1160.98
585.464	1147.23
585.666	1201.47
585.867	1147.03
586.069	1216.97
586.27	1185.59
586.472	1188.88
586.674	1103.83
586.875	1101.5
587.077	1123.59
587.278	1146.84
587.48	1140.06
587.681	1268.12
587.883	1186.17
588.084	1096.85
588.285	1131.14
588.487	1116.03
588.688	1137.93
588.89	1048.22
589.091	1023.81
589.292	1054.42
589.494	1034.66
589.695	1011.99
589.896	970.72
590.098	967.82
590.299	1012.38
590.5	967.04
590.702	989.52
590.903	1002.69
591.104	1091.81
591.305	1070.89
591.507	1145.48
591.708	1093.36
591.909	1044.73
592.11	1120.88
592.311	1089.3
592.512	1047.83
592.714	1012.96
592.915	1010.44
593.116	1019.74
593.317	1033.69
593.518	1051.13
593.719	1031.17
593.92	1094.14
594.121	1126.11
594.322	1060.43
594.523	1050.55
594.724	1030.59
594.925	1017.22
595.126	1050.74
595.327	1029.81
595.528	1061.2
595.729	1057.33
595.929	1076.51
596.13	1010.44
596.331	1055.97
596.532	1062.17
596.733	1123.78
596.934	1103.05
597.135	1064.5
597.335	1067.21
597.536	1025.36
597.737	1057.91
597.938	1012.77
598.138	1071.08
598.339	1042.6
598.54	1045.51
598.74	1045.9
598.941	1028.46
599.142	1096.66
599.342	1104.41
599.543	1047.45
599.744	1015.48
599.944	1049
600.145	1042.99
600.345	1052.1
600.546	1116.23
600.746	1095.5
600.947	1142.58
601.147	1074.96
601.348	1070.31
601.548	1019.74
601.749	1055.78
601.949	1007.53
602.15	1047.64
602.35	1065.27
602.551	1075.93
602.751	1017.61
602.951	1023.81
603.152	983.7
603.352	1097.82
603.552	1030.59
603.753	1101.5
603.953	1102.28
604.153	1047.45
604.354	1057.71
604.554	1047.06
604.754	1037.76
604.954	1016.83
605.155	1064.5
605.355	1021.1
605.555	1073.41
605.755	1084.45
605.955	1042.99
606.155	1093.17
606.356	1066.24
606.556	1068.56
606.756	1073.8
606.956	1014.51
607.156	1098.6
607.356	998.43
607.556	1029.43
607.756	1066.24
607.956	1077.28
608.156	1031.36
608.356	992.03
608.556	1032.72
608.756	1025.94
608.956	1000.95
609.156	1020.52
609.356	997.07
609.556	973.24
609.755	1020.9
609.955	957.35
610.155	1019.93
610.355	1013.73
610.555	996.49
610.755	1006.18
610.954	946.5
611.154	1032.53
611.354	1034.27
611.554	1007.15
611.753	963.75
611.953	925
612.153	1026.52
612.352	1000.56
612.552	944.95
612.752	919.19
612.951	947.67
613.151	984.48
613.351	951.54
613.55	956.77
613.75	990.48
613.949	982.73
614.149	971.69
614.348	935.85
614.548	907.56
614.747	938.56
614.947	948.44
615.146	856.41
615.346	978.08
615.545	980.99
615.745	976.92
615.944	949.41
616.144	942.05
616.343	949.22
616.542	947.67
616.742	931.39
616.941	937.01
617.14	898.45
617.34	911.82
617.539	946.5
617.738	913.76
617.938	993.2
618.137	892.84
618.336	880.82
618.535	940.11
618.734	939.14
618.934	946.5
619.133	936.24
619.332	947.47
619.531	910.47
619.73	930.62
619.929	960.84
620.128	968.59
620.328	1006.18
620.527	907.17
620.726	910.66
620.925	926.55
621.124	934.3
621.323	939.72
621.522	889.93
621.721	896.71
621.92	869.59
622.119	917.64
622.318	887.6
622.517	862.61
622.715	908.53
622.914	822.12
623.113	857.19
623.312	829.29
623.511	910.85
623.71	868.04
623.909	857.38
624.107	942.82
624.306	833.16
624.505	864.35
624.704	863.97
624.902	866.49
625.101	916.09
625.3	865.32
625.499	818.24
625.697	832.58
625.896	794.8
626.095	872.1
626.293	828.71
626.492	841.3
626.69	852.92
626.889	842.27
627.088	894
627.286	834.91
627.485	851.95
627.683	850.99
627.882	844.21
628.08	767.09
628.279	815.72
628.477	895.55
628.676	818.24
628.874	845.37
629.073	793.64
629.271	794.99
629.469	833.16
629.668	796.35
629.866	819.99
630.065	789.76
630.263	856.6
630.461	804.29
630.66	794.99
630.858	819.41
631.056	859.9
631.254	854.67
631.453	797.71
631.651	830.45
631.849	805.07
632.047	840.33
632.245	793.83
632.444	827.54
632.642	838.39
632.84	861.06
633.038	787.63
633.236	796.35
633.434	793.83
633.632	798.87
633.83	777.36
634.028	817.47
634.227	809.14
634.425	873.27
634.623	822.7
634.821	810.3
635.019	792.86
635.216	786.08
635.414	842.46
635.612	808.17
635.81	802.74
636.008	867.07
636.206	811.27
636.404	824.06
636.602	764.19
636.8	788.41
636.997	805.46
637.195	825.8
637.393	808.17
637.591	857.19
637.789	832.39
637.986	770.97
638.184	831.03
638.382	867.84
638.58	844.01
638.777	898.26
638.975	793.25
639.173	841.88
639.37	831.61
639.568	847.89
639.765	847.69
639.963	795.57
640.161	872.88
640.358	825.8
640.556	795.77
640.753	784.92
640.951	776.2
641.148	819.41
641.346	779.49
641.543	786.08
641.741	828.71
641.938	747.14
642.136	789.18
642.333	757.02
642.531	816.5
642.728	829.29
642.925	789.76
643.123	783.17
643.32	818.82
643.517	771.55
643.715	786.86
643.912	767.48
644.109	772.13
644.306	778.33
644.504	740.94
644.701	756.44
644.898	789.37
645.095	732.22
645.293	753.92
645.49	772.13
645.687	764.38
645.884	806.81
646.081	705.09
646.278	752.95
646.475	747.33
646.672	738.03
646.87	737.64
647.067	760.31
647.264	744.81
647.461	692.31
647.658	667.51
647.855	737.26
648.052	737.45
648.249	630.89
648.446	706.06
648.642	679.52
648.839	690.56
649.036	680.1
649.233	633.99
649.43	682.04
649.627	631.28
649.824	665.76
650.021	662.47
650.217	656.46
650.414	678.74
650.611	690.95
650.808	685.91
651.004	715.94
651.201	687.08
651.398	733.96
651.595	698.31
651.791	683.01
651.988	718.85
652.185	648.33
652.381	699.48
652.578	630.89
652.775	678.16
652.971	666.15
653.168	643.48
653.364	713.23
653.561	635.93
653.757	646.58
653.954	687.27
654.15	660.15
654.347	714.2
654.543	683.78
654.74	640.58
654.936	667.7
655.133	703.16
655.329	674.87
655.525	679.91
655.722	693.47
655.918	606.09
656.115	661.89
656.311	551.26
656.507	576.83
656.704	524.72
656.9	582.26
657.096	576.83
657.292	541.96
657.489	638.25
657.685	613.06
657.881	627.21
658.077	612.48
658.273	612.48
658.47	680.49
658.666	646.39
658.862	657.43
659.058	639.41
659.254	676.81
659.45	603.18
659.646	629.34
659.842	642.13
660.038	693.47
660.234	607.64
660.43	635.93
660.626	703.93
660.822	690.56
661.018	700.06
661.214	650.07
661.41	617.13
661.606	657.63
661.802	716.53
661.998	647.94
662.194	615.58
662.39	652.2
662.586	658.79
662.781	667.7
662.977	667.7
663.173	654.33
663.369	645.81
663.564	621.59
663.76	669.45
663.956	619.85
664.152	682.81
664.347	583.42
664.543	637.28
664.739	617.91
664.934	574.51
665.13	565.98
665.326	627.4
665.521	643.1
665.717	572.77
665.912	592.14
666.108	540.22
666.304	591.75
666.499	600.28
666.695	523.36
666.89	597.37
667.086	639.8
667.281	610.93
667.477	659.56
667.672	598.34
667.867	631.47
668.063	606.67
668.258	568.7
668.454	603.18
668.649	670.22
668.844	598.15
669.04	640.58
669.235	588.85
669.43	571.41
669.626	527.82
669.821	584.97
670.016	539.05
670.211	597.37
670.407	602.21
670.602	588.46
670.797	595.82
670.992	629.73
671.187	554.94
671.382	621.78
671.578	558.23
671.773	601.83
671.968	564.82
672.163	610.16
672.358	585.94
672.553	568.5
672.748	574.9
672.943	621.01
673.138	572.18
673.333	610.74
673.528	535.37
673.723	608.22
673.918	555.13
674.113	514.83
674.308	613.84
674.503	568.12
674.698	621.2
674.892	578.97
675.087	633.8
675.282	595.05
675.477	575.09
675.672	614.42
675.867	538.28
676.061	539.63
676.256	499.34
676.451	557.85
676.646	575.67
676.84	497.98
677.035	534.98
677.23	516.97
677.424	592.53
677.619	602.6
677.814	611.32
678.008	568.7
678.203	499.14
678.397	529.56
678.592	596.01
678.787	601.05
678.981	554.94
679.176	554.75
679.37	578.19
679.565	522.78
679.759	555.13
679.954	567.53
680.148	606.48
680.342	603.76
680.537	598.53
680.731	553
680.926	597.76
681.12	586.33
681.314	554.75
681.509	571.6
681.703	589.23
681.897	609.96
682.092	562.69
682.286	542.93
682.48	621.78
682.674	582.26
682.869	542.54
683.063	554.75
683.257	633.99
683.451	535.95
683.645	591.95
683.839	552.81
684.034	557.46
684.228	601.44
684.422	516.77
684.616	528.59
684.81	581.1
685.004	547.38
685.198	566.57
685.392	584.39
685.586	569.67
685.78	578.97
685.974	572.77
686.168	597.95
686.362	608.22
686.556	540.99
686.75	480.93
686.944	486.74
687.138	499.72
687.331	408.66
687.525	444.89
687.719	407.11
687.913	454.39
688.107	454.58
688.301	432.1
688.494	482.09
688.688	446.64
688.882	418.15
689.076	408.86
689.269	457.1
689.463	529.95
689.657	486.35
689.85	454.19
690.044	492.75
690.238	485.39
690.431	498.95
690.625	494.1
690.818	503.21
691.012	536.15
691.205	530.14
691.399	472.4
691.593	552.23
691.786	591.17
691.98	616.36
692.173	601.63
692.366	565.98
692.56	610.35
692.753	630.89
692.947	557.65
693.14	634.57
693.333	594.27
693.527	551.26
693.72	611.51
693.914	613.65
694.107	608.41
694.3	593.11
694.493	586.33
694.687	639.41
694.88	580.13
695.073	703.54
695.266	662.47
695.46	628.37
695.653	667.7
695.846	682.81
696.039	604.93
696.232	659.18
696.425	710.71
696.618	703.93
696.812	692.11
697.005	782.01
697.198	836.65
697.391	761.48
697.584	759.54
697.777	825.02
697.97	837.42
698.163	836.07
698.356	781.24
698.549	883.15
698.742	857.96
698.935	812.43
699.127	832.39
699.32	778.14
699.513	809.52
699.706	815.72
699.899	840.91
700.092	831.61
700.285	856.41
700.477	798.09
700.67	856.22
700.863	883.92
701.056	966.65
701.248	934.88
701.441	958.71
701.634	922.87
701.826	1037.95
702.019	919.38
702.212	947.67
702.404	926.55
702.597	931.78
702.79	936.04
702.982	994.75
703.175	1029.23
703.367	1019.74
703.56	1011.22
703.752	1109.06
703.945	1079.8
704.137	1068.18
704.33	1113.9
704.522	1098.01
704.715	1123.39
704.907	1150.13
705.1	1151.49
705.292	1161.56
705.484	1123.2
705.677	1192.18
705.869	1183.26
706.061	1191.01
706.254	1259.41
706.446	1189.85
706.638	1181.52
706.831	1286.34
707.023	1269.67
707.215	1350.66
707.407	1262.89
707.599	1278.97
707.792	1300.48
707.984	1313.46
708.176	1382.43
708.368	1311.91
708.56	1356.28
708.752	1370.04
708.944	1357.05
709.136	1409.37
709.329	1404.91
709.521	1492.68
709.713	1418.67
709.905	1481.25
710.097	1510.7
710.289	1426.61
710.481	1396.97
710.672	1500.23
710.864	1468.26
711.056	1577.54
711.248	1536.27
711.44	1542.66
711.632	1561.26
711.824	1569.59
712.016	1628.3
712.207	1605.05
712.399	1588.58
712.591	1683.32
712.783	1602.73
712.975	1683.52
713.166	1644.96
713.358	1668.02
713.55	1691.66
713.741	1726.92
713.933	1708.32
714.125	1695.14
714.316	1724.79
714.508	1798.41
714.7	1768.19
714.891	1700.57
715.083	1755.79
715.274	1748.23
715.466	1776.52
715.657	1795.5
715.849	1702.12
716.04	1792.79
716.232	1696.31
716.423	1780.39
716.615	1677.32
716.806	1641.28
716.998	1635.86
717.189	1568.04
717.381	1511.08
717.572	1486.09
717.763	1504.5
717.955	1473.69
718.146	1485.51
718.337	1401.03
718.528	1407.82
718.72	1323.73
718.911	1422.15
719.102	1363.64
719.293	1411.88
719.485	1387.67
719.676	1368.87
719.867	1314.43
720.058	1374.3
720.249	1351.82
720.44	1407.23
720.632	1447.53
720.823	1481.63
721.014	1558.74
721.205	1583.54
721.396	1661.43
721.587	1692.82
721.778	1719.75
721.969	1728.08
722.16	1786.4
722.351	1789.89
722.542	1927.25
722.733	1926.09
722.924	1897.61
723.115	1872.81
723.305	1848.98
723.496	1881.72
723.687	1743.19
723.878	1813.91
724.069	1822.05
724.26	1810.04
724.45	1776.9
724.641	1756.95
724.832	1780.78
725.023	1759.85
725.213	1763.34
725.404	1727.69
725.595	1757.92
725.785	1729.24
725.976	1788.72
726.167	1768.77
726.357	1759.27
726.548	1909.43
726.739	1788.92
726.929	1834.83
727.12	1865.25
727.31	1844.91
727.501	1833.87
727.691	1858.67
727.882	1875.91
728.072	1944.11
728.263	1870.29
728.453	1903.81
728.644	1924.35
728.834	1936.94
729.024	1893.73
729.215	1900.13
729.405	1942.95
729.596	1966
729.786	2007.46
729.976	2003.59
730.167	1994.09
730.357	1973.36
730.547	1998.74
730.737	2076.24
730.928	2110.54
731.118	2127.2
731.308	2047.76
731.498	2042.53
731.688	2142.12
731.879	2108.6
732.069	2210.51
732.259	2201.4
732.449	2231.44
732.639	2265.92
732.829	2269.8
733.019	2304.67
733.209	2370.55
733.399	2394.76
733.589	2452.89
733.779	2440.88
733.969	2415.5
734.159	2519.92
734.349	2520.7
734.539	2574.76
734.729	2519.15
734.919	2580.57
735.109	2590.26
735.299	2525.35
735.488	2562.16
735.678	2564.49
735.868	2588.9
736.058	2583.67
736.248	2559.06
736.437	2514.31
736.627	2512.76
736.817	2644.89
737.007	2575.72
737.196	2653.8
737.386	2636.75
737.576	2591.22
737.765	2636.95
737.955	2596.26
738.144	2711.73
738.334	2701.08
738.524	2644.5
738.713	2679.38
738.903	2661.94
739.092	2740.41
739.282	2707.28
739.471	2738.67
739.661	2728.4
739.85	2746.22
740.04	2734.4
740.229	2769.08
740.419	2777.41
740.608	2745.83
740.797	2750.68
740.987	2802.02
741.176	2817.13
741.365	2755.72
741.555	2699.53
741.744	2807.64
741.933	2766.37
742.123	2814.81
742.312	2878.16
742.501	2834.57
742.69	2882.62
742.88	2791.17
743.069	2906.84
743.258	2868.67
743.447	2953.34
743.636	2858.79
743.825	2819.26
744.014	2860.53
744.204	2880.1
744.393	2828.18
744.582	2914.01
744.771	2964.38
744.96	2853.95
745.149	2944.62
745.338	2928.93
745.527	2942.88
745.716	2934.93
745.905	2883.01
746.094	2929.51
746.283	2926.02
746.471	2924.28
746.66	2974.65
746.849	2986.66
747.038	2984.92
747.227	2901.61
747.416	2928.93
747.604	2869.83
747.793	2947.91
747.982	2951.59
748.171	2956.63
748.359	2975.42
748.548	2909.55
748.737	2892.11
748.926	2956.63
749.114	2844.65
749.303	2916.14
749.491	2898.51
749.68	2848.13
749.869	2964.19
750.057	2899.67
750.246	2874.09
750.434	2865.76
750.623	2871.38
750.811	2885.72
751	2932.61
751.188	2901.61
751.377	2912.84
751.565	2866.54
751.754	2845.23
751.942	2800.08
752.131	2929.51
752.319	2865.38
752.507	2800.66
752.696	2886.88
752.884	2934.54
753.072	2868.67
753.261	2883.01
753.449	2862.66
753.637	2808.41
753.825	2913.81
754.014	2805.7
754.202	2842.51
754.39	2893.28
754.578	2906.45
754.766	2867.31
754.955	2836.31
755.143	2886.11
755.331	2839.8
755.519	2861.5
755.707	2820.23
755.895	2823.33
756.083	2826.24
756.271	2805.12
756.459	2787.88
756.647	2857.05
756.835	2772.77
757.023	2736.53
757.211	2776.45
757.399	2762.3
757.587	2798.15
757.775	2711.73
757.963	2748.55
758.151	2744.87
758.339	2674.73
758.526	2749.13
758.714	2697.59
758.902	2687.13
759.09	2589.09
759.278	2405.23
759.465	2229.89
759.653	1895.09
759.841	1773.42
760.028	1514.38
760.216	1327.41
760.404	1258.82
760.591	1029.23
760.779	858.35
760.967	745.59
761.154	601.83
761.342	672.93
761.529	655.11
761.717	723.31
761.905	704.71
762.092	783.56
762.28	695.99
762.467	725.44
762.655	646.39
762.842	695.41
763.029	651.62
763.217	726.79
763.404	699.09
763.592	707.03
763.779	664.02
763.966	701.8
764.154	777.75
764.341	799.64
764.528	812.04
764.716	882.95
764.903	925
765.09	943.21
765.277	993.39
765.465	1172.61
765.652	1170.28
765.839	1253.98
766.026	1342.91
766.213	1390.77
766.4	1470.59
766.588	1646.12
766.775	1615.32
766.962	1727.5
767.149	1809.26
767.336	1899.93
767.523	1829.02
767.71	1986.15
767.897	2088.06
768.084	2148.9
768.271	2162.27
768.458	2212.84
768.645	2232.02
768.832	2211.87
769.019	2224.27
769.206	2304.48
769.392	2355.43
769.579	2422.86
769.766	2381.4
769.953	2384.69
770.14	2447.46
770.327	2395.73
770.513	2442.62
770.7	2552.86
770.887	2424.6
771.073	2497.64
771.26	2469.36
771.447	2438.55
771.634	2409.68
771.82	2500.94
772.007	2438.55
772.193	2502.88
772.38	2507.91
772.567	2465.87
772.753	2438.55
772.94	2522.06
773.126	2526.12
773.313	2546.08
773.499	2513.34
773.686	2543.17
773.872	2493.58
774.059	2477.69
774.245	2455.6
774.432	2465.48
774.618	2378.1
774.804	2457.34
774.991	2381.59
775.177	2473.23
775.363	2452.89
775.55	2486.79
775.736	2426.34
775.922	2388.18
776.109	2470.52
776.295	2435.06
776.481	2423.25
776.667	2451.34
776.853	2437.58
777.04	2398.25
777.226	2421.5
777.412	2466.84
777.598	2406.78
777.784	2413.17
777.97	2420.34
778.156	2432.54
778.342	2403.1
778.528	2404.06
778.715	2288.78
778.901	2351.75
779.087	2373.45
779.272	2358.34
779.458	2321.92
779.644	2385.85
779.83	2345.75
780.016	2437.97
780.202	2359.7
780.388	2338.19
780.574	2268.44
780.76	2330.05
780.946	2333.15
781.131	2330.05
781.317	2316.3
781.503	2282
781.689	2263.6
781.874	2412.2
782.06	2291.11
782.246	2318.82
782.432	2289.17
782.617	2298.08
782.803	2333.73
782.989	2216.13
783.174	2251.58
783.36	2208.38
783.545	2253.52
783.731	2241.51
783.916	2216.13
784.102	2295.57
784.288	2234.73
784.473	2213.8
784.659	2178.93
784.844	2215.35
785.029	2187.26
785.215	2179.9
785.4	2149.87
785.586	2250.81
785.771	2120.03
785.956	2168.47
786.142	2161.49
786.327	2194.04
786.512	2151.81
786.698	2143.47
786.883	2093.68
787.068	2120.81
787.254	2157.42
787.439	2103.76
787.624	2096.78
787.809	2097.75
787.994	2120.61
788.18	2152.97
788.365	2072.76
788.55	2128.36
788.735	2086.51
788.92	2100.07
789.105	2021.61
789.29	2076.63
789.475	2014.05
789.66	2019.86
789.845	1994.09
790.03	1983.83
790.215	2048.73
790.4	2069.08
790.585	2064.43
790.77	1990.22
790.955	1920.66
791.14	2000.88
791.325	2073.73
791.51	1924.15
791.695	2026.84
791.879	1938.88
792.064	1915.05
792.249	2055.51
792.434	2011.92
792.618	1977.24
792.803	2025.48
792.988	1999.91
793.173	2014.24
793.357	2050.67
793.542	1966.78
793.727	1982.86
793.911	2014.05
794.096	1952.05
794.281	2006.11
794.465	2059.19
794.65	2005.53
794.834	2038.85
795.019	2096.97
795.203	2052.03
795.388	2058.03
795.572	2103.95
795.757	2022.58
795.941	2040.4
796.126	2030.52
796.31	1967.16
796.494	2051.44
796.679	2020.06
796.863	1991.77
797.048	2088.06
797.232	2051.06
797.416	2048.54
797.601	2023.54
797.785	2060.94
797.969	2082.83
798.153	1988.86
798.338	2032.65
798.522	2067.72
798.706	2070.63
798.89	2093.29
799.074	2191.72
799.258	2142.7
799.443	2071.21
799.627	2092.71
799.811	2103.56
799.995	2046.41
800.179	2025.48
800.363	2048.15
800.547	2026.64
800.731	2137.27
800.915	1999.13
801.099	2036.33
801.283	2024.13
801.467	2094.46
801.651	2027.03
801.835	2073.92
802.019	2112.67
802.202	2076.63
802.386	1971.43
802.57	2015.99
802.754	2016.38
802.938	1975.11
803.121	2012.89
803.305	2073.73
803.489	2056.68
803.673	2054.16
803.856	2058.23
804.04	2045.83
804.224	2058.03
804.407	2019.09
804.591	1985.76
804.775	2018.89
804.958	2046.02
805.142	2148.9
805.326	2037.69
805.509	2008.24
805.693	2073.73
805.876	2055.32
806.06	2046.21
806.243	2079.92
806.427	2096.78
806.61	2090.97
806.794	2014.24
806.977	2102.98
807.16	2029.55
807.344	2067.91
807.527	2066.17
807.71	2013.86
807.894	2052.41
808.077	2061.71
808.26	2031.1
808.444	1977.24
808.627	2057.06
808.81	1990.41
808.993	1945.66
809.177	1937.33
809.36	1967.75
809.543	1994.09
809.726	1940.43
809.909	1942.17
810.092	1914.46
810.276	1903.61
810.459	1905.94
810.642	1924.35
810.825	1870.48
811.008	1898.97
811.191	1789.89
811.374	1796.47
811.557	1826.89
811.74	1911.56
811.923	1782.72
812.106	1781.75
812.289	1762.76
812.472	1769.93
812.654	1783.49
812.837	1747.84
813.02	1699.99
813.203	1688.94
813.386	1589.55
813.569	1580.44
813.751	1557.58
813.934	1576.18
814.117	1574.83
814.3	1523.1
814.482	1462.07
814.665	1463.61
814.848	1441.14
815.03	1409.95
815.213	1370.04
815.396	1376.23
815.578	1375.85
815.761	1330.9
815.943	1427.58
816.126	1351.24
816.309	1299.51
816.491	1257.27
816.674	1189.27
816.856	1250.11
817.039	1245.46
817.221	1346.79
817.403	1280.33
817.586	1276.46
817.768	1290.6
817.951	1199.34
818.133	1202.83
818.315	1256.11
818.498	1268.71
818.68	1392.51
818.862	1336.13
819.045	1350.85
819.227	1278.39
819.409	1292.73
819.591	1314.24
819.774	1291.37
819.956	1267.93
820.138	1370.23
820.32	1326.64
820.502	1352.02
820.684	1394.83
820.866	1415.18
821.048	1481.44
821.231	1448.89
821.413	1444.43
821.595	1424.28
821.777	1445.98
821.959	1431.26
822.141	1482.02
822.323	1397.55
822.505	1322.76
822.686	1288.47
822.868	1273.36
823.05	1135.6
823.232	1163.31
823.414	1091.04
823.596	1135.41
823.778	1126.88
823.96	1197.21
824.141	1148.97
824.323	1191.79
824.505	1215.42
824.687	1264.83
824.868	1283.43
825.05	1390.57
825.232	1417.12
825.413	1465.16
825.595	1410.53
825.777	1348.53
825.958	1414.6
826.14	1387.47
826.321	1416.53
826.503	1346.4
826.685	1434.94
826.866	1458.97
827.048	1420.41
827.229	1399.48
827.411	1347.75
827.592	1300.48
827.773	1296.8
827.955	1286.34
828.136	1283.62
828.318	1228.41
828.499	1273.94
828.68	1246.81
828.862	1288.47
829.043	1301.84
829.224	1268.51
829.406	1228.6
829.587	1237.71
829.768	1235.96
829.949	1264.44
830.131	1281.88
830.312	1320.24
830.493	1265.8
830.674	1267.16
830.855	1254.76
831.036	1275.49
831.218	1309.39
831.399	1356.86
831.58	1286.14
831.761	1276.26
831.942	1286.14
832.123	1270.64
832.304	1202.06
832.485	1247.59
832.666	1266.96
832.847	1322.76
833.028	1282.46
833.209	1262.7
833.389	1250.11
833.57	1235.77
833.751	1228.99
833.932	1326.05
834.113	1314.24
834.294	1267.93
834.475	1294.28
834.655	1336.71
834.836	1318.11
835.017	1289.05
835.198	1234.8
835.378	1252.43
835.559	1335.74
835.74	1274.91
835.92	1300.09
836.101	1231.7
836.281	1300.09
836.462	1277.62
836.643	1363.25
836.823	1352.02
837.004	1340.2
837.184	1368.1
837.365	1362.09
837.545	1347.37
837.726	1292.15
837.906	1369.26
838.087	1318.69
838.267	1309.78
838.448	1269.67
838.628	1304.16
838.808	1341.94
838.989	1373.72
839.169	1249.52
839.349	1342.33
839.53	1345.43
839.71	1319.47
839.89	1268.9
840.07	1380.3
840.251	1273.16
840.431	1347.17
840.611	1312.49
840.791	1279.75
840.971	1324.89
841.151	1271.42
841.332	1268.12
841.512	1327.22
841.692	1271.61
841.872	1338.84
842.052	1281.3
842.232	1334.97
842.412	1246.42
842.592	1280.33
842.772	1309.59
842.952	1339.23
843.132	1306.87
843.312	1297.57
843.492	1253.79
843.672	1311.72
843.851	1231.12
844.031	1249.52
844.211	1281.49
844.391	1251.85
844.571	1322.76
844.751	1325.86
844.93	1278.01
845.11	1263.86
845.29	1258.44
845.47	1325.09
845.649	1290.4
845.829	1309
846.009	1252.82
846.188	1300.87
846.368	1267.54
846.547	1255.53
846.727	1300.87
846.907	1232.67
847.086	1253.59
847.266	1292.54
847.445	1269.87
847.625	1233.83
847.804	1227.63
847.984	1245.65
848.163	1242.16
848.343	1243.13
848.522	1254.56
848.701	1240.42
848.881	1228.79
849.06	1244.1
849.239	1228.99
849.419	1248.56
849.598	1178.42
849.777	1220.66
849.957	1194.69
850.136	1129.4
850.315	1139.86
850.494	1158.46
850.674	1130.95
850.853	1203.02
851.032	1134.44
851.211	1197.41
851.39	1160.79
851.569	1124.36
851.748	1117.97
851.927	1208.26
852.107	1157.49
852.286	1136.76
852.465	1091.04
852.644	1176.09
852.823	1160.01
853.002	1159.24
853.181	1128.82
853.359	1156.53
853.538	1148.58
853.717	1177.26
853.896	1072.83
854.075	1046.28
854.254	1051.71
854.433	959.48
854.611	1005.02
854.79	937.98
854.969	999.2
855.148	1049.77
855.327	1005.4
855.505	1035.24
855.684	1030.98
855.863	1052.87
856.041	1024.2
856.22	1065.27
856.399	1020.32
856.577	1116.23
856.756	1092.98
856.934	1210
857.113	1199.93
857.291	1117.78
857.47	1076.9
857.648	1086.39
857.827	1115.84
858.005	1152.26
858.184	1091.81
858.362	1162.14
858.541	1083.1
858.719	1102.08
858.898	1093.95
859.076	1105.57
859.254	1138.31
859.433	1080.58
859.611	1097.05
859.789	1043.18
859.967	1129.98
860.146	1144.32
860.324	1037.18
860.502	1062.17
860.68	1031.95
860.859	1047.45
861.037	1051.51
861.215	1084.06
861.393	1085.03
861.571	1065.85
861.749	1012.77
861.927	1058.3
862.105	1077.86
862.283	1043.57
862.461	1054.81
862.639	994.75
862.817	1031.75
862.995	1009.28
863.173	1036.21
863.351	1008.31
863.529	1036.4
863.707	1098.6
863.885	1023.03
864.063	975.18
864.241	1039.31
864.418	1123.59
864.596	991.45
864.774	1004.82
864.952	980.41
865.129	1035.82
865.307	960.45
865.485	953.09
865.663	1008.5
865.84	939.92
866.018	968.98
866.196	853.31
866.373	907.37
866.551	861.06
866.728	807.59
866.906	859.51
867.084	879.08
867.261	935.46
867.439	944.18
867.616	965.49
867.794	915.5
867.971	948.44
868.149	934.49
868.326	1004.05
868.503	967.82
868.681	931
868.858	939.72
869.035	872.3
869.213	987.77
869.39	932.36
869.567	1018
869.745	902.33
869.922	935.65
870.099	956
870.276	991.84
870.454	926.94
870.631	969.75
870.808	947.47
870.985	968.78
871.162	1029.04
871.339	969.17
871.517	898.84
871.694	902.14
871.871	957.74
872.048	918.99
872.225	921.9
872.402	919.38
872.579	894.19
872.756	939.92
872.933	876.56
873.11	886.64
873.287	935.65
873.463	893.42
873.64	885.09
873.817	923.84
873.994	912.79
874.171	860.48
874.348	914.15
874.524	827.74
874.701	907.95
874.878	821.34
875.055	917.44
875.231	874.04
875.408	897.49
875.585	812.24
875.762	885.86
875.938	829.09
876.115	861.25
876.291	867.45
876.468	846.14
876.645	813.4
876.821	834.32
876.998	862.22
877.174	860.48
877.351	859.12
877.527	850.02
877.704	845.56
877.88	865.9
878.057	828.9
878.233	900.39
878.409	831.22
878.586	842.85
878.762	828.9
878.938	820.76
879.115	807.59
879.291	806.04
879.467	757.99
879.644	777.36
879.82	877.34
879.996	770.77
880.172	732.41
880.349	803.91
880.525	874.24
880.701	764.96
880.877	790.92
881.053	833.94
881.229	767.09
881.405	810.69
881.581	759.54
881.757	787.44
881.933	820.76
882.109	818.05
882.285	811.85
882.461	767.87
882.637	790.92
882.813	741.13
882.989	795.38
883.165	850.02
883.341	742.29
883.517	822.51
883.693	779.49
883.869	814.76
884.044	782.59
884.22	817.66
884.396	829.48
884.572	800.81
884.747	831.22
884.923	831.03
885.099	794.8
885.275	841.88
885.45	793.44
885.626	782.01
885.801	767.09
885.977	785.69
886.153	757.41
886.328	794.02
886.504	767.87
886.679	787.82
886.855	741.91
887.03	797.12
887.206	791.89
887.381	796.16
887.557	815.92
887.732	801.19
887.908	815.53
888.083	804.87
888.258	761.67
888.434	776.01
888.609	772.52
888.784	808.94
888.96	770.77
889.135	785.11
889.31	773.29
889.485	823.28
889.661	780.27
889.836	792.28
890.011	789.37
890.186	763.03
890.361	748.11
890.537	783.56
890.712	780.46
890.887	788.99
891.062	799.45
891.237	841.49
891.412	744.43
891.587	795.38
891.762	800.42
891.937	801.77
892.112	735.71
892.287	786.86
892.462	721.56
892.637	705.48
892.812	709.55
892.987	713.43
893.161	685.33
893.336	679.71
893.511	709.16
893.686	740.36
893.861	729.7
894.035	728.54
894.21	757.02
894.385	658.21
894.56	700.06
894.734	637.48
894.909	615.58
895.084	640.96
895.258	622.56
895.433	668.09
895.608	634.18
895.782	584.97
895.957	599.7
896.131	605.9
896.306	549.71
896.48	575.67
896.655	547.58
896.829	505.92
897.004	491.59
897.178	493.91
897.353	507.47
897.527	576.83
897.701	534.98
897.876	482.67
898.05	562.5
898.224	554.94
898.399	595.63
898.573	527.04
898.747	456.32
898.921	484.8
899.096	430.94
899.27	406.92
899.444	429
899.618	445.47
899.792	448.77
899.967	443.92
900.141	497.79
900.315	422.61
900.489	429
900.663	460.59
900.837	479.19
901.011	430.17
901.185	516
901.359	476.47
901.533	486.16
901.707	463.3
901.881	476.86
902.055	418.93
902.229	465.04
902.403	516.19
902.576	456.9
902.75	446.25
902.924	564.05
903.098	494.49
903.272	563.66
903.446	585.94
903.619	536.15
903.793	585.17
903.967	528.4
904.14	590.98
904.314	561.14
904.488	590.4
904.661	580.71
904.835	568.31
905.009	616.75
905.182	650.46
905.356	615.78
905.529	576.83
905.703	531.5
905.876	551.45
906.05	542.54
906.223	529.37
906.397	466.01
906.57	469.3
906.744	424.74
906.917	453.22
907.09	462.14
907.264	453.8
907.437	432.88
907.61	379.79
907.784	441.4
907.957	459.23
908.13	392
908.304	436.17
908.477	394.52
908.65	422.8
908.823	388.9
908.996	456.71
909.17	408.86
909.343	389.29
909.516	407.11
909.689	405.56
909.862	418.54
910.035	428.62
910.208	334.07
910.381	395.1
910.554	489.26
910.727	400.14
910.9	398.01
911.073	392
911.246	445.28
911.419	450.7
911.592	429.97
911.765	392
911.938	392.58
912.11	383.28
912.283	392.77
912.456	446.05
912.629	397.04
912.802	382.51
912.974	350.54
913.147	338.52
913.32	290.09
913.493	311.21
913.665	349.57
913.838	357.32
914.01	322.44
914.183	372.82
914.356	344.14
914.528	363.52
914.701	430.17
914.873	404.4
915.046	332.13
915.218	309.46
915.391	289.31
915.563	309.66
915.736	347.44
915.908	391.03
916.081	348.21
916.253	334.26
916.425	323.22
916.598	347.24
916.77	344.53
916.942	314.11
917.115	249.98
917.287	346.86
917.459	342.21
917.632	295.32
917.804	245.14
917.976	332.32
918.148	333.1
918.32	338.91
918.493	383.47
918.665	384.06
918.837	334.65
919.009	391.81
919.181	429.97
919.353	376.89
919.525	322.64
919.697	349.18
919.869	385.61
920.041	409.44
920.213	493.91
920.385	417.77
920.557	368.17
920.729	386.77
920.901	384.25
921.073	364.49
921.244	343.76
921.416	395.1
921.588	377.86
921.76	348.02
921.932	422.03
922.103	365.65
922.275	385.8
922.447	365.84
922.619	294.35
922.79	371.27
922.962	339.49
923.134	382.31
923.305	292.22
923.477	287.96
923.648	304.23
923.82	322.64
923.991	287.18
924.163	265.68
924.335	329.03
924.506	295.32
924.677	326.71
924.849	294.54
925.02	311.01
925.192	364.49
925.363	300.74
925.535	302.88
925.706	297.64
925.877	352.67
926.049	297.64
926.22	328.84
926.391	320.7
926.562	350.34
926.734	279.63
926.905	331.55
927.076	253.28
927.247	300.55
927.419	253.08
927.59	242.23
927.761	267.61
927.932	231.77
928.103	264.32
928.274	214.53
928.445	218.6
928.616	204.06
928.787	200.38
928.958	267.03
929.129	236.23
929.3	232.35
929.471	176.36
929.642	157.95
929.813	99.63
929.984	221.7
930.155	108.16
930.326	201.35
930.496	147.1
930.667	99.44
930.838	142.26
931.009	102.93
931.18	115.13
931.35	131.41
931.521	122.3
931.692	64.95
931.863	53.72
932.033	103.32
932.204	90.92
932.374	110.87
932.545	40.74
932.716	120.37
932.886	107.19
933.057	48.1
933.227	49.45
933.398	140.13
933.568	57.01
933.739	21.94
933.909	24.07
934.08	100.41
934.25	-1.89
934.421	16.71
934.591	62.44
934.761	18.84
934.932	5.09
935.102	48.68
935.272	20
935.443	27.95
935.613	1.99
935.783	59.14
935.953	3.34
936.123	170.55
936.294	-15.06
936.464	42.09
936.634	53.14
936.804	-6.73
936.974	-4.8
937.144	55.65
937.314	24.65
937.484	0.63
937.655	-33.66
937.825	69.22
937.995	10.51
938.165	75.03
938.334	16.52
938.504	29.89
938.674	16.9
938.844	22.52
939.014	92.85
939.184	64.95
939.354	100.41
939.524	120.37
939.694	45.77
939.863	52.55
940.033	112.42
940.203	116.49
940.373	91.3
940.542	99.25
940.712	71.54
940.882	119.4
941.051	132.38
941.221	82
941.391	139.55
941.56	57.2
941.73	37.25
941.899	206.58
942.069	81.23
942.238	97.12
942.408	54.88
942.577	93.82
942.747	51.2
942.916	2.57
943.086	52.17
943.255	80.45
943.425	84.52
943.594	64.76
943.763	-23.2
943.933	28.72
944.102	-0.15
944.271	64.95
944.441	62.24
944.61	39.19
944.779	55.07
944.948	136.25
945.117	13.03
945.287	51.39
945.456	10.12
945.625	13.42
945.794	72.32
945.963	31.05
946.132	57.4
946.301	35.7
946.47	69.41
946.639	3.73
946.808	23.69
946.977	76.38
947.146	93.82
947.315	27.95
947.484	72.51
947.653	59.14
947.822	30.27
947.991	27.17
948.16	111.65
948.329	80.65
948.498	48.1
948.666	59.14
948.835	77.55
949.004	8.19
949.173	25.24
949.341	76.58
949.51	63.4
949.679	74.25
949.847	77.93
950.016	130.63
950.185	96.34
950.353	42.29
950.522	61.47
950.69	115.33
950.859	24.46
951.028	81.62
951.196	73.09
951.365	34.54
951.533	36.28
951.701	79.68
951.87	86.07
952.038	22.72
952.207	40.93
952.375	108.16
952.543	23.88
952.712	28.53
952.88	31.82
953.048	90.33
953.217	51.97
953.385	82.58
953.553	102.73
953.721	12.84
953.89	59.92
954.058	22.33
954.226	9.35
954.394	60.69
954.562	41.7
954.73	45.97
954.898	71.54
955.067	77.74
955.235	24.65
955.403	94.79
955.571	123.85
955.739	56.82
955.907	34.34
956.075	25.04
956.243	16.13
956.41	64.18
956.578	-1.7
956.746	5.09
956.914	45
957.082	73.48
957.25	45.58
957.418	25.82
957.585	76.38
957.753	87.23
957.921	33.18
958.089	32.02
958.256	36.67
958.424	80.65
958.592	45.58
958.759	43.25
958.927	69.99
959.095	56.43
959.262	66.12
959.43	48.29
959.597	29.3
959.765	53.33
959.932	33.57
960.1	84.72
960.267	57.2
960.435	31.05
960.602	91.11
960.77	26.2
960.937	11.29
961.104	50.81
961.272	8.57
961.439	38.41
961.606	68.44
961.774	98.08
961.941	49.26
962.108	62.05
962.275	68.44
962.443	94.79
962.61	52.75
962.777	114.94
962.944	88.59
963.111	92.08
963.278	81.23
963.446	70.77
963.613	67.28
963.78	89.75
963.947	64.95
964.114	60.5
964.281	124.82
964.448	83.55
964.615	71.93
964.782	51.39
964.949	79.48
965.116	96.34
965.282	127.53
965.449	68.83
965.616	23.88
965.783	92.27
965.95	89.95
966.117	26.4
966.283	65.73
966.45	70.38
966.617	82
966.784	126.37
966.95	96.34
967.117	108.74
967.284	66.12
967.45	30.85
967.617	85.1
967.784	93.82
967.95	152.33
968.117	74.25
968.283	114.75
968.45	179.85
968.616	96.92
968.783	120.75
968.949	88.01
969.116	108.93
969.282	68.05
969.449	99.05
969.615	94.6
969.781	36.47
969.948	32.6
970.114	29.89
970.28	106.22
970.447	71.73
970.613	95.95
970.779	90.92
970.945	100.02
971.112	68.83
971.278	58.37
971.444	88.4
971.61	122.88
971.776	48.29
971.942	114.55
972.108	106.03
972.275	64.37
972.441	94.21
972.607	135.48
972.773	71.15
972.939	104.48
973.105	90.72
973.271	76.58
973.437	58.95
973.602	57.01
973.768	121.14
973.934	69.22
974.1	90.14
974.266	-2.66
974.432	77.16
974.598	60.69
974.763	92.08
974.929	40.54
975.095	125.4
975.261	48.87
975.426	47.13
975.592	63.99
975.758	146.91
975.923	5.86
976.089	49.65
976.255	100.22
976.42	60.89
976.586	81.42
976.751	72.9
976.917	141.29
977.082	95.37
977.248	28.14
977.413	23.49
977.579	73.67
977.744	71.73
977.91	29.5
978.075	53.52
978.24	94.79
978.406	44.61
978.571	24.85
978.736	22.72
978.902	69.41
979.067	31.63
979.232	20.2
979.397	73.87
979.563	129.47
979.728	23.49
979.893	72.51
980.058	40.93
980.223	113.78
980.388	67.86
980.554	62.05
980.719	50.23
980.884	76
981.049	108.74
981.214	40.15
981.379	70.96
981.544	63.6
981.709	65.73
981.874	47.71
982.039	38.99
982.204	101.38
982.368	78.52
982.533	57.59
982.698	104.28
982.863	91.5
983.028	36.86
983.193	73.67
983.357	84.13
983.522	67.47
983.687	60.5
983.852	31.24
984.016	58.37
984.181	92.66
984.346	80.84
984.51	91.3
984.675	81.03
984.839	70.38
985.004	100.99
985.168	85.68
985.333	60.3
985.498	71.93
985.662	110.48
985.827	88.59
985.991	70.18
986.155	47.52
986.32	88.78
986.484	105.06
986.649	109.71
986.813	26.98
986.977	76.19
987.142	76.19
987.306	25.43
987.47	43.06
987.634	57.4
987.799	92.85
987.963	70.38
988.127	87.43
988.291	142.84
988.455	59.53
988.62	47.9
988.784	81.62
988.948	87.04
989.112	37.44
989.276	71.15
989.44	63.4
989.604	23.3
989.768	54.3
989.932	136.83
990.096	62.63
990.26	15.94
990.424	10.51
990.588	62.82
990.752	129.08
990.915	93.63
991.079	58.95
991.243	39.19
991.407	67.28
991.571	57.79
991.734	83.75
991.898	101.38
992.062	144
992.226	57.98
992.389	45.97
992.553	30.85
992.717	31.63
992.88	32.02
993.044	37.83
993.207	58.95
993.371	67.86
993.535	106.22
993.698	79.1
993.862	73.48
994.025	104.48
994.189	56.62
994.352	51.39
994.515	84.52
994.679	97.12
994.842	35.12
995.006	69.99
995.169	35.5
995.332	16.9
995.496	69.99
995.659	16.71
995.822	60.5
995.985	56.04
996.149	87.82
996.312	47.13
996.475	117.27
996.638	32.79
996.801	104.67
996.964	108.55
997.128	61.66
997.291	49.45
997.454	72.9
997.617	20.2
997.78	98.67
997.943	16.52
998.106	89.17
998.269	18.26
998.432	63.4
998.595	46.16
998.758	-4.02
998.92	17.68
999.083	-5.96
999.246	43.45
999.409	22.14
999.572	-20.68
999.735	9.35
999.897	52.75
1000.06	25.82
1000.223	9.93
1000.386	108.16
1000.548	64.37
1000.711	65.92
1000.874	45
1001.036	9.93
1001.199	86.27
1001.361	49.45
1001.524	51.97
1001.687	72.7
1001.849	27.17
1002.012	66.5
1002.174	42.87
1002.337	79.87
1002.499	44.8
1002.661	104.28
1002.824	9.35
1002.986	15.16
1003.149	61.08
1003.311	-1.7
1003.473	109.52
1003.636	40.54
1003.798	73.28
1003.96	67.67
1004.123	41.9
1004.285	38.02
1004.447	45.58
1004.609	39.19
1004.771	93.43
1004.933	-8.09
1005.096	21.36
1005.258	-16.42
1005.42	29.5
1005.582	69.02
1005.744	40.15
1005.906	-26.49
1006.068	32.02
1006.23	6.64
1006.392	-19.13
1006.554	15.94
1006.716	47.71
1006.878	42.67
1007.04	11.29
1007.202	20.39
1007.363	50.42
1007.525	37.44
1007.687	58.56
1007.849	76.58
1008.011	-32.69
1008.172	18.07
1008.334	17.29
1008.496	56.62
1008.658	-21.46
1008.819	-0.34
1008.981	-15.65
1009.143	6.44
1009.304	-6.35
1009.466	64.37
1009.627	83.75
1009.789	113.58
1009.95	40.54
1010.112	7.41
1010.273	53.33
1010.435	-0.34
1010.596	4.89
1010.758	15.55
1010.919	30.47
1011.081	8.57
1011.242	13.22
1011.403	88.01
1011.565	22.72
1011.726	52.75
1011.887	-1.31
1012.049	28.34
1012.21	80.07
1012.371	97.31
1012.532	-28.63
1012.693	53.33
1012.855	3.92
1013.016	46.55
1013.177	69.02
1013.338	37.25
1013.499	85.3
1013.66	56.04
1013.821	56.24
1013.982	48.49
1014.143	42.67
1014.304	32.21
1014.465	10.9
1014.626	71.35
1014.787	15.35
1014.948	134.12
1015.109	-30.95
1015.27	61.08
1015.431	10.12
1015.592	18.65
1015.752	94.98
1015.913	32.21
1016.074	28.14
1016.235	27.37
1016.395	34.73
1016.556	27.75
1016.717	19.42
1016.877	87.43
1017.038	27.37
1017.199	37.64
1017.359	33.95
1017.52	56.82
1017.681	8.57
1017.841	11.09
1018.002	26.2
1018.162	18.84
1018.323	67.08
1018.483	40.15
1018.644	14.58
1018.804	-11.77
1018.964	-23.01
1019.125	-6.73
1019.285	13.22
1019.446	-26.49
1019.606	-12.35
1019.766	-27.46
1019.926	24.07
1020.087	69.22
1020.247	-17.39
1020.407	44.42
1020.567	83.94
1020.728	15.74
1020.888	14.97
1021.048	24.65
1021.208	9.54
1021.368	16.52
1021.528	66.89
1021.688	40.35
1021.848	50.04
1022.008	17.68
1022.168	4.12
1022.328	32.99
1022.488	38.6
1022.648	11.09
1022.808	-1.5
1022.968	29.3
1023.128	12.06
1023.288	16.52
1023.448	-1.89
1023.608	29.89
1023.767	40.93
1023.927	-2.66
1024.087	-16.81
1024.247	-25.91
1024.406	-0.92
1024.566	-2.86
1024.726	-11
1024.885	-4.41
1025.045	40.15
1025.205	9.74
1025.364	18.26
1025.524	23.88
1025.683	5.09
1025.843	10.7
1026.003	14.19
1026.162	76.97
1026.321	39.77
1026.481	9.15
1026.64	-0.34
1026.8	18.65
1026.959	12.45
1027.119	8.77
1027.278	-15.65
1027.437	-15.26
1027.597	0.05
1027.756	30.66
1027.915	51.2
1028.074	47.9
1028.234	0.44
1028.393	17.29
1028.552	-8.28
1028.711	-61.95
1028.87	60.5
1029.03	-28.04
1029.189	13.03
1029.348	-65.83
1029.507	11.87
1029.666	32.6
1029.825	-26.11
1029.984	-26.88
1030.143	14
1030.302	8.57
1030.461	-42.58
1030.62	12.84
1030.779	58.56
1030.938	-1.11
1031.097	-8.48
1031.255	50.42
1031.414	73.28
1031.573	71.35
1031.732	-45.87
1031.891	17.49
1032.049	85.1
1032.208	52.55
1032.367	-1.5
1032.525	6.44
1032.684	-16.61
1032.843	-11.38
1033.001	-26.49
1033.16	159.31
1033.319	53.52
1033.477	26.2
1033.636	23.1
1033.794	-34.05
1033.953	37.64
1034.111	26.59
1034.27	-19.13
1034.428	15.74
1034.587	-20.68
1034.745	4.89
1034.903	2.95
1035.062	32.02
1035.22	-17.78
1035.378	43.25
1035.537	-17
1035.695	42.87
1035.853	13.03
1036.011	45.97
1036.17	34.54
1036.328	-58.08
1036.486	19.62
1036.644	21.94
1036.802	-76.68
1036.96	-7.9
1037.119	3.92
1037.277	-4.8
1037.435	-27.08
1037.593	-12.55
1037.751	26.01
1037.909	38.02
1038.067	38.02
