Data from pine_FLMT105791__147__17-22-46-074.txt Node

Date: Mon Mar 20 17:22:46 GMT 2023
User: antho
Spectrometer: FLMT10579
Trigger mode: 0
Integration Time (sec): 1.000000E-1
Scans to average: 10
Electric dark correction enabled: true
Nonlinearity correction enabled: false
Boxcar width: 0
XAxis mode: Wavelengths
Number of Pixels in Spectrum: 3648
>>>>>Begin Spectral Data<<<<<
345.248	-163.31
345.464	-163.31
345.681	-163.31
345.898	-151.49
346.114	-149.56
346.331	-16.65
346.548	32.37
346.764	0.98
346.981	-7.54
347.197	-24.2
347.414	3.89
347.631	-13.74
347.847	45.55
348.064	3.89
348.28	33.92
348.497	-39.9
348.713	-18.58
348.93	44.38
349.146	15.9
349.363	29.27
349.579	19.78
349.796	4.28
350.012	-3.47
350.229	43.61
350.445	42.45
350.661	3.31
350.878	11.25
351.094	20.17
351.311	-3.47
351.527	22.49
351.743	3.89
351.96	26.56
352.176	27.53
352.392	29.66
352.609	42.83
352.825	-16.06
353.041	-14.13
353.257	-0.76
353.474	18.42
353.69	27.33
353.906	16.87
354.122	-32.53
354.339	38.77
354.555	-8.31
354.771	-9.67
354.987	66.67
355.203	43.42
355.42	-10.06
355.636	5.44
355.852	-12.38
356.068	5.83
356.284	-43.19
356.5	48.26
356.716	29.47
356.932	10.28
357.148	48.07
357.364	-8.31
357.58	44.58
357.796	55.23
358.012	27.14
358.228	14.93
358.444	-59.46
358.66	66.67
358.876	18.62
359.092	-28.27
359.308	4.08
359.524	39.73
359.74	-18
359.956	-23.62
360.172	36.63
360.388	38.96
360.604	3.7
360.819	96.31
361.035	6.99
361.251	31.4
361.467	-19.94
361.683	50.2
361.898	24.43
362.114	39.15
362.33	32.95
362.546	10.48
362.762	34.12
362.977	31.79
363.193	-39.7
363.409	29.66
363.624	-18.2
363.84	-23.62
364.056	-8.9
364.271	7.38
364.487	27.14
364.703	-10.06
364.918	-22.65
365.134	-9.86
365.35	15.9
365.565	87.01
365.781	37.6
365.996	23.27
366.212	82.36
366.427	30.63
366.643	7.18
366.858	10.87
367.074	-35.25
367.289	62.21
367.505	104.45
367.72	-47.45
367.936	0.4
368.151	58.53
368.367	42.45
368.582	17.07
368.798	12.42
369.013	37.02
369.228	-0.57
369.444	-12.19
369.659	88.36
369.874	36.83
370.09	33.15
370.305	-70.7
370.52	-8.51
370.736	49.81
370.951	-3.67
371.166	59.5
371.381	77.9
371.597	15.9
371.812	-4.05
372.027	-32.34
372.242	10.87
372.458	98.83
372.673	1.95
372.888	3.89
373.103	47.1
373.318	99.02
373.533	31.98
373.749	44.77
373.964	-45.71
374.179	60.08
374.394	-13.93
374.609	58.53
374.824	-21.49
375.039	48.45
375.254	-23.81
375.469	68.02
375.684	28.88
375.899	63.57
376.114	19
376.329	34.89
376.544	58.33
376.759	55.04
376.974	-7.15
377.189	18.62
377.404	2.34
377.619	44.77
377.834	-33.31
378.049	-21.3
378.264	-14.32
378.478	18.03
378.693	3.12
378.908	35.28
379.123	9.7
379.338	49.03
379.553	27.14
379.767	33.15
379.982	20.55
380.197	32.76
380.412	-3.47
380.626	43.8
380.841	92.63
381.056	27.92
381.271	72.48
381.485	7.96
381.7	-12.38
381.915	30.24
382.129	-10.25
382.344	18.81
382.559	15.71
382.773	62.21
382.988	-37.57
383.202	37.22
383.417	14.55
383.632	100.57
383.846	33.34
384.061	17.45
384.275	7.18
384.49	56.98
384.704	29.85
384.919	23.27
385.133	13.19
385.348	28.5
385.562	-22.07
385.777	56.4
385.991	30.05
386.206	-20.52
386.42	-0.18
386.634	61.05
386.849	52.91
387.063	26.75
387.277	-18.97
387.492	6.02
387.706	-30.6
387.92	-6.57
388.135	60.27
388.349	41.48
388.563	24.62
388.778	38.77
388.992	52.52
389.206	53.3
389.42	126.53
389.635	43.03
389.849	48.65
390.063	87.2
390.277	48.26
390.491	105.41
390.706	47.1
390.92	43.61
391.134	-8.31
391.348	62.6
391.562	-20.91
391.776	16.29
391.99	-16.65
392.205	61.43
392.419	4.08
392.633	16.1
392.847	64.53
393.061	-11.41
393.275	95.73
393.489	34.5
393.703	21.33
393.917	78.1
394.131	20.55
394.345	61.24
394.559	67.63
394.773	7.77
394.986	47.68
395.2	43.42
395.414	47.29
395.628	-4.44
395.842	37.99
396.056	19.58
396.27	-18.58
396.484	40.32
396.697	20.94
396.911	56.59
397.125	51.94
397.339	49.23
397.553	32.37
397.766	111.03
397.98	43.03
398.194	79.07
398.408	33.34
398.621	63.95
398.835	40.51
399.049	66.08
399.262	73.45
399.476	61.43
399.69	57.56
399.903	92.63
400.117	54.85
400.331	44.19
400.544	24.23
400.758	148.43
400.971	35.28
401.185	100.18
401.398	11.25
401.612	73.83
401.826	44
402.039	73.83
402.253	-5.41
402.466	40.32
402.68	17.26
402.893	56.59
403.106	36.05
403.32	35.47
403.533	42.25
403.747	36.44
403.96	32.18
404.174	74.61
404.387	19.2
404.6	32.95
404.814	75
405.027	70.93
405.24	74.03
405.454	45.35
405.667	79.65
405.88	-23.43
406.094	51.75
406.307	60.08
406.52	51.36
406.733	48.84
406.947	-8.51
407.16	104.25
407.373	96.31
407.586	41.28
407.799	42.83
408.012	88.95
408.226	52.13
408.439	86.23
408.652	-1.92
408.865	50.39
409.078	91.46
409.291	53.68
409.504	-5.22
409.717	62.02
409.93	37.41
410.143	57.37
410.357	-13.16
410.57	16.29
410.783	62.4
410.996	48.07
411.209	53.3
411.421	67.05
411.634	38.57
411.847	24.04
412.06	67.05
412.273	46.13
412.486	41.87
412.699	126.15
412.912	47.87
413.125	65.7
413.338	49.62
413.55	88.36
413.763	51.94
413.976	34.89
414.189	27.92
414.402	51.36
414.615	121.5
414.827	27.53
415.04	111.42
415.253	76.35
415.466	71.12
415.678	107.16
415.891	60.08
416.104	52.91
416.316	37.22
416.529	49.23
416.742	100.18
416.954	98.05
417.167	59.88
417.38	48.84
417.592	86.81
417.805	36.44
418.017	19
418.23	77.52
418.442	54.65
418.655	43.61
418.868	72.67
419.08	102.7
419.293	104.64
419.505	78.1
419.718	85.85
419.93	118.98
420.142	62.4
420.355	131.57
420.567	109.48
420.78	56.78
420.992	74.42
421.205	106.38
421.417	17.65
421.629	29.27
421.842	43.8
422.054	13.58
422.266	74.61
422.479	92.24
422.691	50.2
422.903	93.21
423.115	53.3
423.328	60.47
423.54	80.61
423.752	67.25
423.964	40.32
424.177	76.16
424.389	50.39
424.601	164.9
424.813	85.65
425.025	112.2
425.238	109.29
425.45	75.97
425.662	55.82
425.874	367.17
426.086	61.82
426.298	94.18
426.51	99.6
426.722	96.5
426.934	64.92
427.146	116.85
427.358	28.69
427.57	111.03
427.782	89.91
427.994	60.47
428.206	67.44
428.418	32.76
428.63	111.81
428.842	126.73
429.054	79.07
429.266	90.69
429.478	66.28
429.69	82.55
429.902	65.5
430.114	101.35
430.325	85.26
430.537	69.77
430.749	79.45
430.961	33.92
431.173	79.07
431.384	115.49
431.596	14.35
431.808	72.48
432.02	73.45
432.231	108.71
432.443	122.08
432.655	70.35
432.867	81.39
433.078	112
433.29	137.19
433.502	103.67
433.713	143.78
433.925	98.05
434.136	155.21
434.348	37.41
434.56	40.9
434.771	182.14
434.983	65.7
435.194	73.83
435.406	98.05
435.617	124.01
435.829	171.09
436.04	130.41
436.252	132.54
436.463	108.32
436.675	113.55
436.886	113.16
437.098	95.15
437.309	161.41
437.521	108.9
437.732	111.42
437.943	101.93
438.155	117.04
438.366	81.2
438.578	170.71
438.789	118.4
439	136.03
439.211	112.78
439.423	106.58
439.634	144.75
439.845	146.3
440.057	130.8
440.268	159.28
440.479	85.46
440.69	136.8
440.902	95.92
441.113	130.8
441.324	102.31
441.535	136.61
441.746	193.57
441.957	89.14
442.168	90.5
442.38	148.23
442.591	159.28
442.802	116.07
443.013	108.71
443.224	122.85
443.435	100.38
443.646	143.78
443.857	125.95
444.068	104.25
444.279	75.97
444.49	194.15
444.701	114.33
444.912	224.76
445.123	160.63
445.334	158.5
445.545	139.13
445.756	107.93
445.967	114.91
446.178	141.26
446.388	205.97
446.599	176.91
446.81	146.3
447.021	115.68
447.232	171.09
447.443	181.94
447.653	112.2
447.864	188.92
448.075	164.31
448.286	181.75
448.496	166.83
448.707	181.94
448.918	115.68
449.129	222.63
449.339	128.47
449.55	170.32
449.761	117.81
449.971	197.44
450.182	146.68
450.393	185.04
450.603	127.11
450.814	179.04
451.024	174.19
451.235	188.14
451.446	210.62
451.656	222.24
451.867	155.6
452.077	189.31
452.288	240.46
452.498	237.36
452.709	172.45
452.919	180.98
453.13	165.28
453.34	201.51
453.55	117.81
453.761	192.02
453.971	188.14
454.182	190.47
454.392	187.18
454.602	230.38
454.813	202.87
455.023	191.83
455.233	137.58
455.444	185.24
455.654	124.6
455.864	179.04
456.075	172.45
456.285	166.45
456.495	167.61
456.705	209.07
456.916	238.52
457.126	217.98
457.336	195.31
457.546	117.04
457.756	157.53
457.967	216.04
458.177	200.16
458.387	164.51
458.597	157.34
458.807	151.53
459.017	167.03
459.227	178.07
459.437	181.94
459.647	209.46
459.857	219.34
460.068	163.15
460.278	227.86
460.488	213.33
460.698	278.82
460.908	192.02
461.117	173.23
461.327	163.54
461.537	184.27
461.747	202.48
461.957	207.71
462.167	277.85
462.377	221.86
462.587	191.05
462.797	227.48
463.007	193.18
463.216	218.56
463.426	257.7
463.636	232.51
463.846	154.63
464.056	192.99
464.265	247.63
464.475	195.7
464.685	224.76
464.895	256.54
465.104	204.61
465.314	252.28
465.524	164.31
465.733	193.38
465.943	266.22
466.153	256.73
466.362	269.71
466.572	225.34
466.782	204.61
466.991	236.19
467.201	267.58
467.41	197.06
467.62	217.59
467.829	222.24
468.039	242.39
468.249	214.3
468.458	213.33
468.668	252.47
468.877	233.87
469.086	304.78
469.296	267.19
469.505	212.56
469.715	293.16
469.924	238.91
470.134	258.67
470.343	286.96
470.552	231.54
470.762	259.64
470.971	189.31
471.18	249.18
471.39	233.29
471.599	189.89
471.808	282.31
472.018	237.16
472.227	284.63
472.436	291.99
472.645	223.41
472.855	223.99
473.064	273.39
473.273	246.66
473.482	272.04
473.691	290.44
473.901	295.87
474.11	250.92
474.319	353.99
474.528	276.11
474.737	336.56
474.946	274.56
475.155	277.27
475.364	286.76
475.573	250.53
475.783	296.84
475.992	288.89
476.201	330.55
476.41	260.8
476.619	245.11
476.828	283.27
477.037	234.26
477.245	277.85
477.454	308.07
477.663	278.04
477.872	279.59
478.081	323.77
478.29	264.87
478.499	404.37
478.708	304.97
478.917	357.09
479.125	316.79
479.334	324.16
479.543	285.02
479.752	307.11
479.961	298.77
480.169	333.84
480.378	289.47
480.587	432.07
480.796	318.92
481.004	321.44
481.213	331.13
481.422	318.34
481.63	342.17
481.839	358.45
482.048	368.33
482.256	331.52
482.465	341.4
482.674	354.96
482.882	352.44
483.091	415.6
483.299	360.77
483.508	372.59
483.716	355.93
483.925	349.15
484.134	335.01
484.342	331.91
484.551	397.59
484.759	388.09
484.967	342.95
485.176	395.45
485.384	406.89
485.593	408.44
485.801	360.77
486.01	378.21
486.218	370.85
486.426	341.79
486.635	324.54
486.843	316.99
487.051	352.83
487.26	344.11
487.468	374.14
487.676	375.5
487.885	333.07
488.093	358.64
488.301	369.1
488.509	379.18
488.717	407.08
488.926	384.6
489.134	347.02
489.342	384.99
489.55	368.52
489.758	404.17
489.967	387.51
490.175	506.28
490.383	377.82
490.591	440.02
490.799	340.04
491.007	431.1
491.215	441.76
491.423	400.1
491.631	407.27
491.839	404.95
492.047	437.88
492.255	378.6
492.463	363.1
492.671	384.6
492.879	404.56
493.087	414.44
493.295	444.28
493.503	439.63
493.711	428.39
493.919	445.83
494.127	436.72
494.334	466.17
494.542	388.67
494.75	422
494.958	405.92
495.166	473.15
495.374	430.72
495.581	442.15
495.789	467.72
495.997	496.59
496.205	434.4
496.412	438.47
496.62	422.39
496.828	465.59
497.035	423.35
497.243	470.43
497.451	457.45
497.658	447.57
497.866	454.35
498.074	501.05
498.281	433.43
498.489	510.54
498.696	483.61
498.904	456.48
499.112	469.27
499.319	527.59
499.527	480.51
499.734	498.92
499.942	445.25
500.149	463.46
500.357	465.2
500.564	451.25
500.771	471.4
500.979	470.43
501.186	442.15
501.394	497.17
501.601	462.49
501.808	491.55
502.016	490.78
502.223	455.32
502.43	476.25
502.638	487.48
502.845	456.48
503.052	534.95
503.26	465.98
503.467	559.95
503.674	468.5
503.881	512.28
504.089	560.53
504.296	513.06
504.503	440.21
504.71	483.42
504.917	442.73
505.125	484.38
505.332	507.25
505.539	497.56
505.746	580.87
505.953	508.02
506.16	491.75
506.367	575.83
506.574	537.86
506.781	568.86
506.988	482.06
507.195	527.4
507.402	512.09
507.609	542.9
507.816	511.9
508.023	497.37
508.23	515.38
508.437	469.27
508.644	569.25
508.851	592.3
509.058	558.98
509.265	554.71
509.472	542.12
509.679	634.54
509.885	554.13
510.092	537.47
510.299	561.69
510.506	547.74
510.713	557.81
510.92	536.89
511.126	541.54
511.333	571.76
511.54	594.24
511.746	579.51
511.953	643.64
512.16	628.73
512.367	557.43
512.573	540.38
512.78	572.54
512.987	555.1
513.193	583.2
513.4	504.53
513.606	549.87
513.813	578.93
514.02	594.82
514.226	634.54
514.433	597.15
514.639	545.8
514.846	579.9
515.052	548.71
515.259	571.57
515.465	586.88
515.672	599.28
515.878	679.88
516.085	582.23
516.291	646.16
516.497	577.38
516.704	579.9
516.91	565.95
517.117	538.63
517.323	522.94
517.529	562.85
517.736	547.93
517.942	577
518.148	558.01
518.354	572.54
518.561	559.75
518.767	576.22
518.973	634.15
519.179	608.77
519.386	574.48
519.592	591.14
519.798	583.2
520.004	625.24
520.21	581.26
520.417	671.54
520.623	671.35
520.829	667.48
521.035	642.87
521.241	658.95
521.447	673.29
521.653	738
521.859	645.78
522.065	693.44
522.271	738.39
522.477	663.02
522.683	747.49
522.889	702.16
523.095	701.77
523.301	701.96
523.507	669.8
523.713	716.88
523.919	665.73
524.125	728.7
524.331	688.01
524.537	761.25
524.742	740.52
524.948	746.91
525.154	721.72
525.36	840.49
525.566	745.36
525.772	760.47
525.977	708.55
526.183	750.21
526.389	756.21
526.595	719.01
526.8	761.64
527.006	709.52
527.212	664.57
527.417	672.71
527.623	650.81
527.829	747.49
528.034	713.01
528.24	734.51
528.446	687.04
528.651	772.1
528.857	771.13
529.062	804.07
529.268	742.07
529.473	792.25
529.679	745.36
529.884	863.16
530.09	798.45
530.295	815.11
530.501	798.64
530.706	830.42
530.912	772.49
531.117	792.25
531.323	789.34
531.528	807.55
531.733	816.85
531.939	780.82
532.144	821.5
532.35	810.07
532.555	846.89
532.76	831.77
532.966	820.92
533.171	833.52
533.376	790.12
533.581	769
533.787	788.57
533.992	792.44
534.197	876.53
534.402	807.94
534.607	812.79
534.813	918.18
535.018	816.47
535.223	795.15
535.428	808.91
535.633	847.47
535.838	858.51
536.043	824.6
536.249	903.27
536.454	833.32
536.659	851.54
536.864	813.37
537.069	855.99
537.274	845.53
537.479	845.72
537.684	892.42
537.889	811.43
538.094	946.86
538.299	858.51
538.504	866.26
538.708	873.82
538.913	903.46
539.118	865.68
539.323	874.59
539.528	836.42
539.733	850.95
539.938	874.78
540.142	886.41
540.347	866.07
540.552	855.6
540.757	848.82
540.962	847.66
541.166	795.54
541.371	816.27
541.576	869.55
541.781	773.07
541.985	850.95
542.19	852.31
542.395	926.32
542.599	936.01
542.804	908.69
543.008	928.45
543.213	886.6
543.418	851.54
543.622	890.87
543.827	846.5
544.031	917.8
544.236	903.07
544.44	888.15
544.645	959.65
544.849	859.29
545.054	927.68
545.258	979.02
545.463	963.71
545.667	901.13
545.872	917.8
546.076	909.47
546.281	924.38
546.485	874.2
546.689	922.25
546.894	952.48
547.098	911.02
547.302	894.35
547.507	893.97
547.711	938.14
547.915	952.48
548.119	868.58
548.324	927.29
548.528	936.78
548.732	946.28
548.936	941.24
549.141	966.62
549.345	895.71
549.549	940.66
549.753	912.37
549.957	1044.7
550.161	982.7
550.366	910.82
550.57	908.88
550.774	919.35
550.978	919.54
551.182	955.38
551.386	930
551.59	855.02
551.794	902.68
551.998	912.76
552.202	911.21
552.406	867.03
552.61	951.7
552.814	912.37
553.018	980.76
553.222	890.09
553.426	913.15
553.63	963.13
553.833	900.55
554.037	874.2
554.241	927.48
554.445	949.38
554.649	886.6
554.853	895.32
555.056	944.73
555.26	968.36
555.464	935.43
555.668	953.45
555.871	952.09
556.075	958.29
556.279	932.52
556.483	865.68
556.686	920.12
556.89	904.62
557.094	947.83
557.297	880.21
557.501	992
557.704	881.37
557.908	960.42
558.112	873.82
558.315	965.85
558.519	924.58
558.722	927.48
558.926	906.95
559.129	848.44
559.333	834.49
559.536	835.26
559.74	887.57
559.943	851.73
560.147	861.8
560.35	882.53
560.553	857.74
560.757	824.8
560.96	962.75
561.164	833.13
561.367	921.28
561.57	856.57
561.774	874.01
561.977	876.14
562.18	835.84
562.384	976.31
562.587	866.65
562.79	846.11
562.993	869.55
563.197	924.19
563.4	917.02
563.603	936.59
563.806	951.9
564.009	844.95
564.212	895.71
564.416	818.4
564.619	868.39
564.822	813.95
565.025	892.42
565.228	839.72
565.431	862
565.634	778.11
565.837	834.87
566.04	797.67
566.243	806
566.446	769.19
566.649	864.52
566.852	778.69
567.055	843.2
567.258	866.07
567.461	903.27
567.664	883.5
567.867	761.64
568.07	835.65
568.273	842.04
568.475	877.11
568.678	840.1
568.881	818.79
569.084	814.92
569.287	745.75
569.489	779.46
569.692	858.9
569.895	835.26
570.098	768.22
570.3	767.64
570.503	684.91
570.706	756.21
570.909	750.98
571.111	702.16
571.314	745.94
571.516	752.72
571.719	793.41
571.922	729.28
572.124	758.15
572.327	765.71
572.529	703.71
572.732	704.29
572.935	722.11
573.137	818.79
573.34	741.49
573.542	770.36
573.745	789.73
573.947	766.87
574.15	722.69
574.352	710.87
574.554	800.77
574.757	708.36
574.959	732.96
575.162	717.46
575.364	720.56
575.566	800.58
575.769	704.48
575.971	745.17
576.173	637.83
576.376	711.65
576.578	758.54
576.78	807.94
576.982	636.86
577.185	707.39
577.387	683.56
577.589	667.48
577.791	739.55
577.993	738.19
578.196	695.76
578.398	728.12
578.6	753.11
578.802	670.38
579.004	675.81
579.206	673.29
579.408	742.65
579.61	698.86
579.812	736.64
580.014	703.32
580.216	689.76
580.418	701.77
580.62	701.96
580.822	648.68
581.024	680.84
581.226	731.8
581.428	693.05
581.63	770.16
581.832	677.55
582.034	727.15
582.236	713.97
582.438	736.84
582.64	744.2
582.841	766.87
583.043	808.33
583.245	742.46
583.447	725.21
583.649	706.22
583.85	722.31
584.052	733.16
584.254	692.08
584.456	754.08
584.657	651.39
584.859	720.95
585.061	706.42
585.262	670.58
585.464	660.11
585.666	744.2
585.867	664.96
586.069	748.27
586.27	714.75
586.472	696.15
586.674	676
586.875	691.5
587.077	676
587.278	724.63
587.48	692.08
587.681	797.09
587.883	683.56
588.084	644.81
588.285	648.49
588.487	671.16
588.688	673.87
588.89	624.85
589.091	603.15
589.292	642.48
589.494	615.16
589.695	625.82
589.896	539.99
590.098	551.81
590.299	607.99
590.5	578.16
590.702	599.66
590.903	609.16
591.104	686.27
591.305	643.84
591.507	714.36
591.708	635.89
591.909	612.26
592.11	709.13
592.311	650.81
592.512	668.64
592.714	577.77
592.915	624.46
593.116	597.73
593.317	632.6
593.518	620.39
593.719	614.78
593.92	674.06
594.121	671.16
594.322	656.43
594.523	627.37
594.724	629.11
594.925	608.38
595.126	653.33
595.327	652.36
595.528	645.78
595.729	629.11
595.929	635.51
596.13	623.69
596.331	638.61
596.532	639.77
596.733	684.72
596.934	688.98
597.135	666.31
597.335	648.88
597.536	604.31
597.737	635.12
597.938	596.37
598.138	633.76
598.339	608.96
598.54	653.53
598.74	626.21
598.941	633.57
599.142	693.24
599.342	634.54
599.543	602.76
599.744	617.1
599.944	613.03
600.145	631.63
600.345	669.22
600.546	704.67
600.746	671.93
600.947	722.5
601.147	645.58
601.348	701.19
601.548	621.56
601.749	645.97
601.949	592.5
602.15	603.35
602.35	671.54
602.551	680.65
602.751	614.58
602.951	625.43
603.152	549.87
603.352	655.66
603.552	637.06
603.753	640.54
603.953	638.99
604.153	635.12
604.354	637.83
604.554	633.18
604.754	627.76
604.954	556.46
605.155	635.31
605.355	625.04
605.555	656.82
605.755	639.77
605.955	629.69
606.155	658.95
606.356	626.59
606.556	630.66
606.756	653.53
606.956	573.12
607.156	696.54
607.356	581.06
607.556	649.46
607.756	628.73
607.956	668.25
608.156	650.04
608.356	602.76
608.556	638.41
608.756	639.96
608.956	592.69
609.156	597.73
609.356	582.23
609.556	588.62
609.755	603.15
609.955	593.85
610.155	634.73
610.355	632.99
610.555	589.4
610.755	640.35
610.954	563.82
611.154	624.85
611.354	641.9
611.554	588.43
611.753	594.24
611.953	570.6
612.153	601.99
612.352	602.38
612.552	574.67
612.752	513.25
612.951	591.14
613.151	589.2
613.351	521.78
613.55	580.68
613.75	599.66
613.949	599.47
614.149	574.09
614.348	614.78
614.548	540.38
614.747	514.8
614.947	563.43
615.146	519.26
615.346	620.78
615.545	583.97
615.745	582.23
615.944	591.33
616.144	565.95
616.343	607.8
616.542	555.49
616.742	558.98
616.941	554.52
617.14	520.23
617.34	540.76
617.539	543.28
617.738	562.85
617.938	611.29
618.137	573.31
618.336	513.45
618.535	590.75
618.734	560.91
618.934	601.41
619.133	553.55
619.332	575.45
619.531	537.86
619.73	567.31
619.929	598.89
620.128	574.28
620.328	620.98
620.527	544.45
620.726	533.4
620.925	560.72
621.124	544.64
621.323	574.67
621.522	530.3
621.721	517.9
621.92	530.3
622.119	568.28
622.318	529.53
622.517	559.56
622.715	536.7
622.914	477.22
623.113	499.3
623.312	487.68
623.511	524.49
623.71	544.06
623.909	548.51
624.107	579.71
624.306	476.63
624.505	517.51
624.704	531.66
624.902	538.25
625.101	580.1
625.3	529.72
625.499	492.13
625.697	490.2
625.896	497.17
626.095	534.95
626.293	448.35
626.492	500.47
626.69	540.76
626.889	478.18
627.088	535.15
627.286	486.9
627.485	495.23
627.683	507.25
627.882	552
628.08	454.16
628.279	506.28
628.477	542.12
628.676	476.44
628.874	493.49
629.073	462.88
629.271	452.8
629.469	516.16
629.668	467.14
629.866	488.84
630.065	458.62
630.263	504.34
630.461	465.4
630.66	485.35
630.858	503.76
631.056	516.35
631.254	524.49
631.453	462.68
631.651	512.48
631.849	494.65
632.047	507.83
632.245	494.27
632.444	492.72
632.642	501.43
632.84	507.25
633.038	464.62
633.236	463.27
633.434	459.58
633.632	436.14
633.83	431.68
634.028	510.15
634.227	469.08
634.425	534.76
634.623	484.58
634.821	498.33
635.019	451.25
635.216	464.62
635.414	509.18
635.612	497.75
635.81	493.49
636.008	541.54
636.206	482.25
636.404	533.98
636.602	437.3
636.8	467.53
636.997	480.12
637.195	535.92
637.393	507.25
637.591	552.2
637.789	504.73
637.986	483.22
638.184	478.57
638.382	517.32
638.58	534.95
638.777	566.34
638.975	521.78
639.173	501.82
639.37	487.1
639.568	512.67
639.765	514.03
639.963	474.89
640.161	513.83
640.358	504.15
640.556	438.85
640.753	484.38
640.951	419.48
641.148	490.78
641.346	467.14
641.543	477.41
641.741	497.56
641.938	460.55
642.136	458.03
642.333	437.3
642.531	545.8
642.728	547.55
642.925	459.97
643.123	472.37
643.32	496.78
643.517	465.4
643.715	493.3
643.912	470.82
644.109	480.51
644.306	455.32
644.504	453.97
644.701	454.93
644.898	524.49
645.095	442.73
645.293	504.15
645.49	493.88
645.687	473.15
645.884	492.13
646.081	407.66
646.278	429.55
646.475	453.19
646.672	445.25
646.87	482.64
647.067	457.45
647.264	475.47
647.461	413.09
647.658	416.77
647.855	480.7
648.052	437.69
648.249	341.59
648.446	441.18
648.642	409.4
648.839	400.69
649.036	441.95
649.233	385.19
649.43	372.2
649.627	362.9
649.824	396.23
650.021	429.75
650.217	436.14
650.414	410.76
650.611	435.56
650.808	406.11
651.004	428.39
651.201	450.09
651.398	469.47
651.595	446.6
651.791	417.35
651.988	461.33
652.185	389.45
652.381	439.43
652.578	397.78
652.775	445.05
652.971	418.32
653.168	430.52
653.364	419.09
653.561	365.04
653.757	428.59
653.954	409.4
654.15	381.31
654.347	455.71
654.543	379.18
654.74	380.92
654.936	374.53
655.133	436.72
655.329	418.51
655.525	396.04
655.722	458.03
655.918	386.15
656.115	443.7
656.311	346.63
656.507	369.3
656.704	320.28
656.9	375.69
657.096	334.81
657.292	331.71
657.489	426.26
657.685	397
657.881	382.09
658.077	388.87
658.273	388.09
658.47	448.93
658.666	388.48
658.862	406.3
659.058	350.5
659.254	406.11
659.45	334.81
659.646	399.33
659.842	388.29
660.038	403.2
660.234	334.42
660.43	409.4
660.626	451.06
660.822	405.72
661.018	421.61
661.214	417.15
661.41	348.95
661.606	426.65
661.802	416.19
661.998	384.41
662.194	366.39
662.39	413.09
662.586	404.75
662.781	426.26
662.977	432.65
663.173	406.69
663.369	381.89
663.564	404.95
663.76	428.97
663.956	381.89
664.152	449.7
664.347	340.24
664.543	365.42
664.739	404.17
664.934	311.95
665.13	350.12
665.326	406.89
665.521	391
665.717	360
665.912	355.93
666.108	303.42
666.304	336.36
666.499	378.6
666.695	321.06
666.89	363.87
667.086	414.25
667.281	376.66
667.477	448.15
667.672	366.59
667.867	354.57
668.063	407.66
668.258	337.72
668.454	360.77
668.649	458.23
668.844	378.21
669.04	391.39
669.235	403.2
669.43	373.95
669.626	328.81
669.821	355.54
670.016	338.3
670.211	368.14
670.407	298.19
670.602	360.97
670.797	376.27
670.992	403.4
671.187	337.72
671.382	401.27
671.578	366.59
671.773	366.97
671.968	316.02
672.163	372.59
672.358	404.56
672.553	360.39
672.748	364.07
672.943	438.27
673.138	380.54
673.333	385.38
673.528	320.28
673.723	370.27
673.918	353.8
674.113	324.93
674.308	406.69
674.503	392.16
674.698	393.13
674.892	396.81
675.087	357.48
675.282	413.86
675.477	336.56
675.672	403.4
675.867	357.87
676.061	320.09
676.256	330.36
676.451	346.44
676.646	357.87
676.84	311.56
677.035	316.41
677.23	315.63
677.424	367.17
677.619	366
677.814	389.45
678.008	393.71
678.203	301.1
678.397	336.17
678.592	367.17
678.787	420.25
678.981	343.53
679.176	331.32
679.37	334.04
679.565	306.52
679.759	330.55
679.954	368.14
680.148	411.54
680.342	432.46
680.537	386.74
680.731	332.1
680.926	387.51
681.12	379.76
681.314	316.6
681.509	359.03
681.703	356.51
681.897	390.8
682.092	326.67
682.286	323.19
682.48	409.99
682.674	400.3
682.869	342.95
683.063	341.79
683.257	392.74
683.451	335.97
683.645	366.97
683.839	348.37
684.034	325.32
684.228	398.55
684.422	312.14
684.616	322.22
684.81	367.55
685.004	341.98
685.198	346.24
685.392	422.58
685.586	340.43
685.78	339.07
685.974	378.79
686.168	354.19
686.362	436.72
686.556	345.08
686.75	313.11
686.944	321.06
687.138	358.25
687.331	276.88
687.525	305.75
687.719	254.79
687.913	303.62
688.107	298
688.301	278.62
688.494	288.7
688.688	271.26
688.882	264.87
689.076	233.87
689.269	293.93
689.463	380.34
689.657	299.36
689.85	284.24
690.044	296.06
690.238	319.12
690.431	316.99
690.625	311.76
690.818	283.47
691.012	381.5
691.205	334.81
691.399	289.28
691.593	331.32
691.786	400.69
691.98	383.44
692.173	388.48
692.366	350.12
692.56	398.36
692.753	430.91
692.947	350.89
693.14	440.21
693.333	386.74
693.527	341.01
693.72	408.24
693.914	348.57
694.107	378.79
694.3	376.66
694.493	344.3
694.687	420.06
694.88	370.07
695.073	450.87
695.266	423.16
695.46	411.92
695.653	451.64
695.846	437.5
696.039	357.87
696.232	378.79
696.425	448.35
696.618	448.35
696.812	448.35
697.005	469.27
697.198	523.71
697.391	473.73
697.584	515.19
697.777	533.98
697.97	497.95
698.163	503.76
698.356	487.1
698.549	563.82
698.742	546.19
698.935	485.93
699.127	517.9
699.32	482.64
699.513	467.14
699.706	529.91
699.899	546.19
700.092	512.87
700.285	542.12
700.477	494.65
700.67	533.01
700.863	561.5
701.056	625.04
701.248	598.5
701.441	575.06
701.634	552.58
701.826	664.96
702.019	547.16
702.212	604.12
702.404	589.01
702.597	527.98
702.79	608.58
702.982	607.99
703.175	637.25
703.367	629.69
703.56	648.1
703.752	690.53
703.945	654.3
704.137	673.68
704.33	679.1
704.522	681.23
704.715	670.19
704.907	686.46
705.1	714.36
705.292	732.77
705.484	679.1
705.677	748.46
705.869	717.46
706.061	752.53
706.254	794.57
706.446	756.21
706.638	701.96
706.831	810.27
707.023	744.39
707.215	847.66
707.407	808.14
707.599	782.37
707.792	828.48
707.984	828.48
708.176	876.14
708.368	788.76
708.56	848.24
708.752	841.65
708.944	796.51
709.136	855.02
709.329	830.8
709.521	971.08
709.713	904.62
709.905	879.43
710.097	942.79
710.289	886.22
710.481	900.36
710.672	912.76
710.864	928.07
711.056	928.07
711.248	950.15
711.44	967.78
711.632	901.72
711.824	960.42
712.016	1005.95
712.207	1023
712.399	1018.93
712.591	1095.46
712.783	1027.07
712.975	1024.36
713.166	970.88
713.358	1048.58
713.55	1057.68
713.741	1045.09
713.933	1050.71
714.125	1056.71
714.316	1024.36
714.508	1068.34
714.7	1084.42
714.891	1059.04
715.083	1128.59
715.274	1091.2
715.466	1093.53
715.657	1126.46
715.849	1028.23
716.04	1105.54
716.232	1031.53
716.423	1129.76
716.615	1058.07
716.806	1057.68
716.998	1024.16
717.189	985.61
717.381	943.57
717.572	949.77
717.763	936.4
717.955	967.98
718.146	922.64
718.337	902.1
718.528	859.09
718.72	824.22
718.911	938.92
719.102	816.47
719.293	902.88
719.485	899
719.676	871.68
719.867	852.12
720.058	849.79
720.249	848.44
720.44	906.56
720.632	902.68
720.823	948.99
721.014	979.6
721.205	973.79
721.396	1061.56
721.587	1084.23
721.778	1121.62
721.969	1120.84
722.16	1168.12
722.351	1123.94
722.542	1230.31
722.733	1252.59
722.924	1162.69
723.115	1201.06
723.305	1203.77
723.496	1234.77
723.687	1153.39
723.878	1161.72
724.069	1192.14
724.26	1146.42
724.45	1103.41
724.641	1064.08
724.832	1134.6
725.023	1129.17
725.213	1108.64
725.404	1103.6
725.595	1140.41
725.785	1084.81
725.976	1190.01
726.167	1122.78
726.357	1168.7
726.548	1212.68
726.739	1149.71
726.929	1202.99
727.12	1201.44
727.31	1207.84
727.501	1178.58
727.691	1227.02
727.882	1228.57
728.072	1228.37
728.263	1224.69
728.453	1258.02
728.644	1258.99
728.834	1245.81
729.024	1221.79
729.215	1194.27
729.405	1249.88
729.596	1334.74
729.786	1301.03
729.976	1329.9
730.167	1345.98
730.357	1274.1
730.547	1270.22
730.737	1320.6
730.928	1339.97
731.118	1401.2
731.308	1318.47
731.498	1355.67
731.688	1392.48
731.879	1366.9
732.069	1432.97
732.259	1447.31
732.449	1426.58
732.639	1489.74
732.829	1505.24
733.019	1510.08
733.209	1589.91
733.399	1545.93
733.589	1587.19
733.779	1622.07
733.969	1601.14
734.159	1611.99
734.349	1676.51
734.539	1673.6
734.729	1674.57
734.919	1730.95
735.109	1743.93
735.299	1681.55
735.488	1728.63
735.678	1698.79
735.868	1715.84
736.058	1692.79
736.248	1702.28
736.437	1646.48
736.627	1615.67
736.817	1757.3
737.007	1725.92
737.196	1777.84
737.386	1734.83
737.576	1718.36
737.765	1728.05
737.955	1723.01
738.144	1849.14
738.334	1762.15
738.524	1735.22
738.713	1778.81
738.903	1759.24
739.092	1791.4
739.282	1766.22
739.471	1813.68
739.661	1771.45
739.85	1824.73
740.04	1824.73
740.229	1821.63
740.419	1867.16
740.608	1832.28
740.797	1858.25
740.987	1898.55
741.176	1903.97
741.365	1831.7
741.555	1846.23
741.744	1909.98
741.933	1830.15
742.123	1884.4
742.312	1915.01
742.501	1910.56
742.69	1940.59
742.88	1856.5
743.069	1953.38
743.258	1887.7
743.447	1955.7
743.636	1966.16
743.825	1894.86
744.014	1914.82
744.204	1956.86
744.393	1896.41
744.582	1988.64
744.771	2018.86
744.96	1953.76
745.149	1971.78
745.338	1929.16
745.527	1936.33
745.716	1953.96
745.905	1957.64
746.094	1973.33
746.283	1968.1
746.471	1951.63
746.66	2024.29
746.849	1996.58
747.038	2015.18
747.227	1953.38
747.416	2016.15
747.604	1932.64
747.793	1971.78
747.982	1961.9
748.171	2010.72
748.359	2024.87
748.548	2015.96
748.737	1967.71
748.926	1969.84
749.114	1923.73
749.303	1952.99
749.491	1980.11
749.68	1911.72
749.869	2010.92
750.057	1963.45
750.246	1937.1
750.434	1950.28
750.623	1977.4
750.811	1930.51
751	1971.98
751.188	1946.59
751.377	1974.11
751.565	1962.29
751.754	1945.04
751.942	1952.99
752.131	1975.27
752.319	1947.18
752.507	1863.67
752.696	1972.75
752.884	1991.93
753.072	1946.98
753.261	1930.71
753.449	1941.17
753.637	1926.25
753.825	2007.43
754.014	1934
754.202	1936.91
754.39	1976.24
754.578	1946.79
754.766	1941.94
754.955	1919.86
755.143	2032.23
755.331	1878.98
755.519	1923.15
755.707	1904.36
755.895	1961.71
756.083	1897.58
756.271	1912.69
756.459	1890.6
756.647	1963.45
756.835	1910.36
757.023	1879.75
757.211	1877.23
757.399	1888.28
757.587	1849.72
757.775	1842.16
757.963	1913.66
758.151	1876.65
758.339	1857.66
758.526	1867.35
758.714	1880.33
758.902	1799.35
759.09	1755.37
759.278	1663.14
759.465	1508.14
759.653	1313.23
759.841	1256.08
760.028	997.43
760.216	889.51
760.404	888.15
760.591	717.27
760.779	601.99
760.967	529.14
761.154	425.68
761.342	472.37
761.529	459
761.717	517.71
761.905	447.57
762.092	515
762.28	474.31
762.467	475.67
762.655	422
762.842	463.85
763.029	475.08
763.217	482.25
763.404	504.92
763.592	485.16
763.779	441.57
763.966	506.86
764.154	505.12
764.341	542.9
764.528	530.5
764.716	598.89
764.903	626.4
765.09	650.23
765.277	681.62
765.465	803.29
765.652	790.7
765.839	858.7
766.026	929.03
766.213	955.96
766.4	1000.33
766.588	1138.09
766.775	1113.87
766.962	1168.51
767.149	1196.21
767.336	1323.31
767.523	1231.28
767.71	1330.09
767.897	1414.18
768.084	1451.76
768.271	1454.67
768.458	1475.21
768.645	1550.58
768.832	1486.64
769.019	1530.23
769.206	1559.1
769.392	1601.92
769.579	1677.48
769.766	1608.51
769.953	1623.81
770.14	1657.33
770.327	1632.53
770.513	1684.07
770.7	1774.74
770.887	1656.55
771.073	1711
771.26	1638.54
771.447	1632.92
771.634	1651.32
771.82	1746.07
772.007	1662.75
772.193	1689.69
772.38	1722.82
772.567	1653.45
772.753	1696.66
772.94	1713.13
773.126	1743.55
773.313	1717.59
773.499	1733.28
773.686	1702.47
773.872	1699.95
774.059	1660.04
774.245	1634.66
774.432	1663.72
774.618	1632.92
774.804	1697.44
774.991	1649.39
775.177	1697.63
775.363	1676.7
775.55	1704.41
775.736	1643.96
775.922	1632.53
776.109	1648.61
776.295	1657.91
776.481	1667.99
776.667	1712.94
776.853	1657.14
777.04	1638.92
777.226	1621.29
777.412	1702.09
777.598	1640.09
777.784	1609.09
777.97	1600.76
778.156	1635.82
778.342	1623.42
778.528	1611.22
778.715	1585.84
778.901	1610.64
779.087	1649.39
779.272	1590.87
779.458	1588.74
779.644	1609.86
779.83	1577.89
780.016	1686.97
780.202	1574.6
780.388	1557.16
780.574	1522.09
780.76	1579.25
780.946	1619.94
781.131	1605.21
781.317	1610.06
781.503	1533.53
781.689	1573.05
781.874	1636.79
782.06	1552.71
782.246	1561.43
782.432	1552.51
782.617	1596.69
782.803	1600.56
782.989	1539.73
783.174	1547.28
783.36	1484.7
783.545	1546.12
783.731	1528.88
783.916	1501.56
784.102	1579.06
784.288	1512.99
784.473	1499.23
784.659	1492.64
784.844	1540.5
785.029	1494
785.215	1480.63
785.4	1463.97
785.586	1574.21
785.771	1417.66
785.956	1532.36
786.142	1486.44
786.327	1474.63
786.512	1471.33
786.698	1483.73
786.883	1430.06
787.068	1436.65
787.254	1463.97
787.439	1451.38
787.624	1469.01
787.809	1446.53
787.994	1465.52
788.18	1495.55
788.365	1396.35
788.55	1390.15
788.735	1457.19
788.92	1454.86
789.105	1426
789.29	1427.74
789.475	1391.12
789.66	1391.7
789.845	1363.22
790.03	1353.53
790.215	1414.37
790.4	1437.43
790.585	1477.15
790.77	1386.67
790.955	1299.87
791.14	1388.02
791.325	1430.06
791.51	1342.88
791.695	1371.36
791.879	1356.44
792.064	1330.28
792.249	1424.45
792.434	1346.56
792.618	1369.81
792.803	1407.59
792.988	1375.82
793.173	1351.21
793.357	1394.03
793.542	1331.06
793.727	1369.81
793.911	1358.57
794.096	1350.63
794.281	1397.71
794.465	1461.26
794.65	1358.38
794.834	1389.96
795.019	1410.69
795.203	1387.05
795.388	1383.95
795.572	1398.68
795.757	1374.27
795.941	1401
796.126	1405.85
796.31	1329.32
796.494	1372.91
796.679	1347.14
796.863	1349.66
797.048	1432.2
797.232	1415.73
797.416	1371.55
797.601	1337.26
797.785	1443.63
797.969	1385.7
798.153	1325.25
798.338	1377.37
798.522	1421.15
798.706	1388.99
798.89	1407.59
799.074	1481.02
799.258	1444.79
799.443	1425.22
799.627	1371.94
799.811	1439.75
799.995	1394.41
800.179	1347.33
800.363	1358.77
800.547	1414.37
800.731	1448.47
800.915	1346.56
801.099	1342.49
801.283	1353.34
801.467	1400.03
801.651	1364.97
801.835	1427.74
802.019	1421.35
802.202	1399.84
802.386	1318.85
802.57	1372.13
802.754	1333.38
802.938	1320.79
803.121	1360.9
803.305	1465.33
803.489	1395
803.673	1392.28
803.856	1409.14
804.04	1405.46
804.224	1413.98
804.407	1385.89
804.591	1348.88
804.775	1409.14
804.958	1372.52
805.142	1488.38
805.326	1379.5
805.509	1413.4
805.693	1412.63
805.876	1428.9
806.06	1408.36
806.243	1414.18
806.427	1457.96
806.61	1448.66
806.794	1406.62
806.977	1453.31
807.16	1431.23
807.344	1410.88
807.527	1390.35
807.71	1342.1
807.894	1431.23
808.077	1424.64
808.26	1376.98
808.444	1359.93
808.627	1407.98
808.81	1377.56
808.993	1359.73
809.177	1313.43
809.36	1342.3
809.543	1362.45
809.726	1315.95
809.909	1312.46
810.092	1311.88
810.276	1312.27
810.459	1354.12
810.642	1292.12
810.825	1285.34
811.008	1273.13
811.191	1241.35
811.374	1237.09
811.557	1280.69
811.74	1325.05
811.923	1220.24
812.106	1222.17
812.289	1192.14
812.472	1214.62
812.654	1234.77
812.837	1191.17
813.02	1164.44
813.203	1145.64
813.386	1082.09
813.569	1103.79
813.751	1077.64
813.934	1104.18
814.117	1067.56
814.3	1054
814.482	1009.83
814.665	1015.06
814.848	991.61
815.03	979.41
815.213	979.8
815.396	959.06
815.578	957.9
815.761	933.68
815.943	945.12
816.126	884.08
816.309	879.82
816.491	849.79
816.674	825.77
816.856	881.95
817.039	838.55
817.221	871.3
817.403	862.58
817.586	878.47
817.768	916.44
817.951	844.56
818.133	843.2
818.315	865.1
818.498	899.39
818.68	939.3
818.862	894.16
819.045	912.95
819.227	894.55
819.409	868.97
819.591	919.54
819.774	894.93
819.956	847.66
820.138	959.45
820.32	911.6
820.502	936.01
820.684	980.76
820.866	970.3
821.048	999.56
821.231	1010.99
821.413	975.92
821.595	963.91
821.777	982.7
821.959	1002.46
822.141	1028.62
822.323	947.44
822.505	880.4
822.686	897.65
822.868	879.05
823.05	760.09
823.232	783.14
823.414	715.14
823.596	804.65
823.778	765.51
823.96	789.92
824.141	769.39
824.323	792.25
824.505	834.87
824.687	898.81
824.868	878.85
825.05	952.28
825.232	952.28
825.413	1051.29
825.595	964.68
825.777	899.97
825.958	969.53
826.14	951.9
826.321	974.37
826.503	924
826.685	972.82
826.866	1000.14
827.048	985.8
827.229	940.85
827.411	917.41
827.592	902.68
827.773	883.5
827.955	875.56
828.136	894.16
828.318	858.12
828.499	910.43
828.68	816.66
828.862	883.89
829.043	910.05
829.224	893.77
829.406	883.7
829.587	857.74
829.768	827.51
829.949	888.73
830.131	865.1
830.312	946.86
830.493	878.08
830.674	894.16
830.855	865.29
831.036	859.87
831.218	930.39
831.399	937.37
831.58	875.75
831.761	888.73
831.942	944.15
832.123	880.21
832.304	806
832.485	835.26
832.666	860.06
832.847	905.59
833.028	861.61
833.209	888.73
833.389	864.9
833.57	810.85
833.751	816.27
833.932	895.32
834.113	846.11
834.294	863.55
834.475	881.95
834.655	923.22
834.836	901.33
835.017	894.55
835.198	822.28
835.378	840.69
835.559	908.5
835.74	869.17
835.92	837
836.101	824.6
836.281	894.74
836.462	905.01
836.643	937.56
836.823	940.66
837.004	915.86
837.184	955.77
837.365	927.1
837.545	958.48
837.726	888.73
837.906	961.39
838.087	897.65
838.267	887.96
838.448	828.87
838.628	927.1
838.808	918.77
838.989	974.56
839.169	861.8
839.349	926.9
839.53	933.68
839.71	939.88
839.89	905.2
840.07	947.83
840.251	874.78
840.431	919.93
840.611	909.85
840.791	875.75
840.971	921.67
841.151	884.86
841.332	880.21
841.512	925.93
841.692	824.02
841.872	887.77
842.052	914.7
842.232	905.4
842.412	829.84
842.592	877.5
842.772	925.35
842.952	908.11
843.132	891.64
843.312	862.39
843.492	841.27
843.672	905.59
843.851	819.76
844.031	880.4
844.211	903.07
844.391	845.72
844.571	872.07
844.751	906.75
844.93	892.42
845.11	846.69
845.29	867.23
845.47	891.06
845.649	896.1
845.829	893.19
846.009	867.81
846.188	889.12
846.368	851.34
846.547	865.49
846.727	903.65
846.907	806.59
847.086	868.39
847.266	906.37
847.445	883.5
847.625	845.72
847.804	834.87
847.984	860.06
848.163	833.52
848.343	816.66
848.522	873.82
848.701	852.5
848.881	832.35
849.06	864.9
849.239	845.34
849.419	877.3
849.598	799.03
849.777	815.11
849.957	791.09
850.136	748.46
850.315	754.27
850.494	777.52
850.674	759.89
850.853	834.29
851.032	781.98
851.211	812.01
851.39	810.27
851.569	790.5
851.748	743.23
851.927	825.38
852.107	787.02
852.286	771.71
852.465	736.26
852.644	822.09
852.823	812.2
853.002	776.36
853.181	801.74
853.359	789.54
853.538	766.67
853.717	813.17
853.896	719.98
854.075	690.92
854.254	697.7
854.433	646.55
854.611	741.29
854.79	664.57
854.969	691.69
855.148	732.38
855.327	672.51
855.505	717.46
855.684	657.59
855.863	710.87
856.041	670.19
856.22	728.12
856.399	668.64
856.577	781.2
856.756	737.42
856.934	841.65
857.113	878.47
857.291	750.98
857.47	758.15
857.648	764.16
857.827	753.69
858.005	755.24
858.184	738.39
858.362	812.98
858.541	761.64
858.719	726.18
858.898	744.78
859.076	743.42
859.254	793.6
859.433	756.41
859.611	755.05
859.789	710.87
859.967	805.81
860.146	802.32
860.324	707.39
860.502	725.79
860.68	708.94
860.859	726.18
861.037	734.9
861.215	738.77
861.393	738.58
861.571	726.37
861.749	701.96
861.927	736.64
862.105	715.72
862.283	755.82
862.461	690.53
862.639	666.89
862.817	662.44
862.995	740.71
863.173	683.36
863.351	721.72
863.529	696.54
863.707	756.41
863.885	724.63
864.063	660.5
864.241	664.38
864.418	732.77
864.596	693.82
864.774	659.14
864.952	692.47
865.129	688.79
865.307	686.08
865.485	644.23
865.663	752.34
865.84	626.01
866.018	656.04
866.196	577.58
866.373	640.35
866.551	585.71
866.728	531.08
866.906	579.71
867.084	602.57
867.261	661.28
867.439	622.53
867.616	657.98
867.794	645.58
867.971	655.46
868.149	626.59
868.326	676.39
868.503	662.05
868.681	646.36
868.858	628.73
869.035	622.91
869.213	686.27
869.39	643.26
869.567	695.76
869.745	626.79
869.922	627.76
870.099	677.16
870.276	668.64
870.454	671.54
870.631	644.23
870.808	639.77
870.985	686.66
871.162	707
871.339	675.81
871.517	624.85
871.694	649.84
871.871	645
872.048	669.8
872.225	613.42
872.402	611.29
872.579	582.61
872.756	639.19
872.933	606.25
873.11	597.34
873.287	635.89
873.463	622.53
873.64	618.46
873.817	650.81
873.994	621.36
874.171	590.75
874.348	620.59
874.524	565.18
874.701	613.42
874.878	533.01
875.055	638.03
875.231	627.18
875.408	635.51
875.585	558.01
875.762	595.6
875.938	622.91
876.115	579.9
876.291	567.89
876.468	589.98
876.645	550.65
876.821	564.01
876.998	581.45
877.174	577.38
877.351	567.5
877.527	571.96
877.704	580.1
877.88	586.49
878.057	549.48
878.233	644.61
878.409	568.66
878.586	595.98
878.762	557.43
878.938	579.51
879.115	512.67
879.291	539.02
879.467	498.72
879.644	524.3
879.82	556.46
879.996	550.65
880.172	502.6
880.349	521.78
880.525	571.18
880.701	516.35
880.877	518.29
881.053	511.7
881.229	555.1
881.405	592.88
881.581	520.61
881.757	509.77
881.933	539.99
882.109	559.17
882.285	576.41
882.461	490.39
882.637	528.36
882.813	498.14
882.989	506.28
883.165	594.43
883.341	502.98
883.517	560.91
883.693	564.79
883.869	569.05
884.044	515.19
884.22	575.83
884.396	584.94
884.572	558.78
884.747	538.83
884.923	531.27
885.099	563.24
885.275	581.65
885.45	517.9
885.626	544.25
885.801	544.06
885.977	533.98
886.153	463.65
886.328	550.06
886.504	501.05
886.679	565.18
886.855	496.98
887.03	561.11
887.206	560.33
887.381	549.68
887.557	570.8
887.732	561.5
887.908	571.76
888.083	564.21
888.258	534.95
888.434	531.27
888.609	515
888.784	569.25
888.96	523.13
889.135	520.81
889.31	477.41
889.485	541.93
889.661	539.6
889.836	599.86
890.011	551.23
890.186	531.27
890.361	513.25
890.537	537.28
890.712	520.23
890.887	525.65
891.062	514.61
891.237	565.95
891.412	509.38
891.587	542.31
891.762	564.4
891.937	631.44
892.112	493.3
892.287	512.28
892.462	481.87
892.637	472.76
892.812	459.39
892.987	491.55
893.161	462.49
893.336	474.31
893.511	486.71
893.686	503.57
893.861	469.47
894.035	491.36
894.21	495.62
894.385	468.3
894.56	477.41
894.734	442.73
894.909	452.22
895.084	444.67
895.258	428.78
895.433	453.77
895.608	434.2
895.782	414.05
895.957	437.11
896.131	439.43
896.306	362.13
896.48	376.85
896.655	401.46
896.829	336.56
897.004	339.85
897.178	360.39
897.353	316.6
897.527	399.33
897.701	370.85
897.876	346.63
898.05	398.75
898.224	365.23
898.399	411.73
898.573	356.12
898.747	267
898.921	374.72
899.096	256.34
899.27	288.12
899.444	285.02
899.618	301.29
899.792	292.77
899.967	298.39
900.141	335.78
900.315	285.6
900.489	330.36
900.663	348.18
900.837	309.24
901.011	297.03
901.185	394.87
901.359	311.17
901.533	333.46
901.707	342.56
901.881	313.5
902.055	270.87
902.229	318.34
902.403	366.78
902.576	285.99
902.75	303.81
902.924	397.59
903.098	361.16
903.272	388.67
903.446	402.82
903.619	381.12
903.793	373.56
903.967	366.39
904.14	411.15
904.314	411.54
904.488	406.3
904.661	419.48
904.835	378.4
905.009	429.75
905.182	452.03
905.356	426.45
905.529	405.14
905.703	360.19
905.876	360
906.05	329.77
906.223	346.44
906.397	310.98
906.57	319.7
906.744	281.72
906.917	308.66
907.09	330.36
907.264	318.54
907.437	302.26
907.61	269.91
907.784	289.28
907.957	318.92
908.13	290.06
908.304	331.52
908.477	282.5
908.65	276.3
908.823	232.13
908.996	368.33
909.17	290.06
909.343	250.73
909.516	287.34
909.689	295.29
909.862	272.42
910.035	275.91
910.208	239.1
910.381	250.14
910.554	346.63
910.727	282.69
910.9	279.4
911.073	243.17
911.246	323.19
911.419	321.44
911.592	311.95
911.765	252.47
911.938	268.74
912.11	264.09
912.283	257.12
912.456	320.86
912.629	279.01
912.802	267.39
912.974	239.88
913.147	214.88
913.32	188.14
913.493	204.61
913.665	243.17
913.838	246.08
914.01	222.24
914.183	251.11
914.356	230.96
914.528	264.67
914.701	314.27
914.873	260.99
915.046	263.12
915.218	217.79
915.391	175.94
915.563	203.06
915.736	246.27
915.908	255.37
916.081	221.47
916.253	232.13
916.425	246.85
916.598	218.95
916.77	238.13
916.942	206.55
917.115	158.11
917.287	246.66
917.459	210.23
917.632	195.7
917.804	176.33
917.976	230.96
918.148	198.22
918.32	240.26
918.493	243.17
918.665	271.65
918.837	209.84
919.009	272.62
919.181	277.85
919.353	262.16
919.525	262.74
919.697	260.99
919.869	226.31
920.041	266.22
920.213	342.37
920.385	276.3
920.557	255.37
920.729	273.78
920.901	243.56
921.073	235.42
921.244	246.46
921.416	253.63
921.588	279.79
921.76	247.63
921.932	316.99
922.103	240.84
922.275	244.53
922.447	258.86
922.619	168.58
922.79	250.14
922.962	204.42
923.134	278.43
923.305	230.96
923.477	164.7
923.648	186.79
923.82	209.07
923.991	181.17
924.163	162.18
924.335	210.62
924.506	162.18
924.677	260.02
924.849	218.18
925.02	225.15
925.192	249.37
925.363	240.65
925.535	243.56
925.706	210.04
925.877	268.55
926.049	162.57
926.22	200.16
926.391	230.96
926.562	227.48
926.734	213.14
926.905	241.43
927.076	170.51
927.247	210.43
927.419	172.84
927.59	159.66
927.761	179.43
927.932	174.39
928.103	214.49
928.274	136.61
928.445	154.63
928.616	156.95
928.787	141.06
928.958	195.31
929.129	174.58
929.3	151.14
929.471	121.69
929.642	106.38
929.813	80.03
929.984	148.04
930.155	75
930.326	135.25
930.496	112.78
930.667	46.32
930.838	99.41
931.009	66.86
931.18	86.62
931.35	95.53
931.521	104.06
931.692	38.96
931.863	31.79
932.033	88.75
932.204	81.2
932.374	76.74
932.545	41.09
932.716	109.48
932.886	83.71
933.057	0.98
933.227	31.21
933.398	127.31
933.568	36.44
933.739	-11.03
933.909	15.71
934.08	75.97
934.25	-10.64
934.421	-1.34
934.591	56.98
934.761	9.7
934.932	-8.31
935.102	23.46
935.272	15.32
935.443	31.98
935.613	11.64
935.783	41.09
935.953	-3.67
936.123	156.37
936.294	-3.67
936.464	-10.64
936.634	1.76
936.804	-5.02
936.974	-33.11
937.144	31.79
937.314	48.84
937.484	9.12
937.655	11.45
937.825	69.57
937.995	2.15
938.165	51.36
938.334	-5.6
938.504	25.59
938.674	6.02
938.844	-6.96
939.014	66.67
939.184	39.35
939.354	72.87
939.524	55.82
939.694	6.02
939.863	53.1
940.033	117.43
940.203	95.53
940.373	68.8
940.542	80.61
940.712	29.27
940.882	64.34
941.051	75
941.221	71.12
941.391	112
941.56	43.8
941.73	27.33
941.899	129.63
942.069	34.7
942.238	57.75
942.408	31.6
942.577	83.71
942.747	53.68
942.916	8.35
943.086	22.68
943.255	57.17
943.425	33.92
943.594	5.25
943.763	-38.54
943.933	18.81
944.102	-24.78
944.271	13.77
944.441	54.46
944.61	21.72
944.779	5.05
944.948	119.17
945.117	13.77
945.287	13.97
945.456	10.67
945.625	33.34
945.794	32.18
945.963	16.68
946.132	63.37
946.301	31.02
946.47	74.42
946.639	-20.33
946.808	15.9
946.977	90.88
947.146	79.26
947.315	23.07
947.484	63.37
947.653	33.15
947.822	23.27
947.991	0.98
948.16	87.4
948.329	76.16
948.498	37.99
948.666	14.16
948.835	69.38
949.004	14.55
949.173	1.37
949.341	26.75
949.51	46.32
949.679	74.42
949.847	83.71
950.016	108.32
950.185	81.58
950.353	1.76
950.522	35.86
950.69	77.52
950.859	2.92
951.028	59.3
951.196	35.86
951.365	-7.93
951.533	39.15
951.701	82.36
951.87	47.1
952.038	6.99
952.207	48.84
952.375	124.98
952.543	28.3
952.712	17.45
952.88	25.78
953.048	73.45
953.217	41.67
953.385	70.15
953.553	98.25
953.721	13
953.89	18.62
954.058	-2.31
954.226	24.23
954.394	36.44
954.562	-31.56
954.73	32.57
954.898	27.53
955.067	63.76
955.235	-9.48
955.403	76.16
955.571	100.57
955.739	34.7
955.907	20.17
956.075	27.33
956.243	22.68
956.41	29.27
956.578	-22.65
956.746	-4.25
956.914	30.63
957.082	39.93
957.25	58.72
957.418	10.67
957.585	53.3
957.753	72.87
957.921	-10.25
958.089	37.8
958.256	60.85
958.424	53.88
958.592	59.11
958.759	4.86
958.927	53.49
959.095	28.69
959.262	7.96
959.43	23.85
959.597	-17.42
959.765	56.4
959.932	-23.04
960.1	76.35
960.267	33.92
960.435	30.63
960.602	68.22
960.77	29.08
960.937	-9.28
961.104	43.8
961.272	-22.07
961.439	21.72
961.606	56.01
961.774	45.93
961.941	26.17
962.108	51.94
962.275	31.98
962.443	79.84
962.61	41.28
962.777	112
962.944	89.33
963.111	43.8
963.278	66.08
963.446	40.51
963.613	30.05
963.78	41.28
963.947	50.58
964.114	60.47
964.281	109.87
964.448	56.2
964.615	36.63
964.782	59.88
964.949	107.93
965.116	54.07
965.282	107.74
965.449	38.77
965.616	19
965.783	109.68
965.95	63.37
966.117	0.4
966.283	24.43
966.45	64.34
966.617	55.82
966.784	76.74
966.95	55.43
967.117	78.48
967.284	19.39
967.45	9.51
967.617	89.33
967.784	55.43
967.95	82.36
968.117	48.07
968.283	69.38
968.45	121.11
968.616	43.8
968.783	84.68
968.949	73.64
969.116	77.52
969.282	55.43
969.449	70.73
969.615	74.8
969.781	1.76
969.948	33.92
970.114	2.34
970.28	99.02
970.447	35.08
970.613	77.71
970.779	44.97
970.945	58.72
971.112	57.37
971.278	32.76
971.444	37.02
971.61	97.86
971.776	49.62
971.942	64.15
972.108	59.11
972.275	36.63
972.441	72.48
972.607	122.08
972.773	44.38
972.939	91.08
973.105	40.32
973.271	8.35
973.437	43.42
973.602	24.62
973.768	66.86
973.934	34.31
974.1	44
974.266	-32.53
974.432	55.04
974.598	56.01
974.763	82.55
974.929	42.64
975.095	111.42
975.261	13.19
975.426	25.98
975.592	14.55
975.758	108.71
975.923	20.55
976.089	20.94
976.255	88.75
976.42	61.05
976.586	50.97
976.751	80.42
976.917	145.91
977.082	64.92
977.248	15.52
977.413	-10.64
977.579	31.4
977.744	47.48
977.91	5.05
978.075	15.52
978.24	43.61
978.406	19.58
978.571	41.28
978.736	10.28
978.902	66.08
979.067	5.25
979.232	0.98
979.397	52.33
979.563	107.55
979.728	26.75
979.893	38.38
980.058	45.35
980.223	51.17
980.388	46.9
980.554	36.63
980.719	24.23
980.884	58.92
981.049	81.58
981.214	24.43
981.379	58.14
981.544	41.09
981.709	34.31
981.874	27.33
982.039	44.58
982.204	62.4
982.368	20.75
982.533	30.82
982.698	92.43
982.863	75.77
983.028	32.57
983.193	42.06
983.357	36.05
983.522	56.4
983.687	10.48
983.852	48.26
984.016	21.91
984.181	25.98
984.346	23.65
984.51	83.52
984.675	27.72
984.839	79.45
985.004	48.65
985.168	72.09
985.333	55.43
985.498	41.09
985.662	74.61
985.827	38.77
985.991	37.41
986.155	46.52
986.32	56.98
986.484	100.57
986.649	72.87
986.813	0.98
986.977	44.97
987.142	62.4
987.306	12.8
987.47	32.57
987.634	18.81
987.799	48.65
987.963	35.28
988.127	63.76
988.291	112
988.455	34.31
988.62	52.13
988.784	73.25
988.948	64.92
989.112	8.15
989.276	54.65
989.44	44.77
989.604	11.64
989.768	8.15
989.932	116.46
990.096	13.77
990.26	14.55
990.424	13.58
990.588	44.19
990.752	98.25
990.915	68.99
991.079	41.28
991.243	13.58
991.407	77.13
991.571	35.47
991.734	57.95
991.898	74.03
992.062	144.55
992.226	39.35
992.389	41.67
992.553	-0.18
992.717	18.62
992.88	37.8
993.044	25.4
993.207	22.68
993.371	48.65
993.535	52.91
993.698	33.34
993.862	48.45
994.025	55.43
994.189	44.19
994.352	25.01
994.515	48.65
994.679	90.3
994.842	26.37
995.006	89.72
995.169	1.76
995.332	19.39
995.496	65.31
995.659	-3.08
995.822	39.35
995.985	16.29
996.149	93.01
996.312	54.65
996.475	85.46
996.638	27.72
996.801	117.04
996.964	117.23
997.128	24.62
997.291	24.82
997.454	31.02
997.617	-16.26
997.78	111.42
997.943	22.88
998.106	64.73
998.269	28.88
998.432	38.38
998.595	31.21
998.758	-1.53
998.92	13
999.083	-35.44
999.246	37.6
999.409	-14.71
999.572	-22.07
999.735	23.07
999.897	54.65
1000.06	5.83
1000.223	31.4
1000.386	61.82
1000.548	57.17
1000.711	64.92
1000.874	29.27
1001.036	-34.86
1001.199	67.05
1001.361	5.44
1001.524	28.5
1001.687	81.2
1001.849	10.28
1002.012	41.28
1002.174	48.84
1002.337	42.64
1002.499	14.35
1002.661	76.55
1002.824	-25.36
1002.986	4.67
1003.149	53.49
1003.311	-18.2
1003.473	68.8
1003.636	4.08
1003.798	50
1003.96	26.37
1004.123	23.27
1004.285	-2.7
1004.447	31.98
1004.609	32.18
1004.771	87.59
1004.933	-8.9
1005.096	6.6
1005.258	-32.92
1005.42	22.49
1005.582	66.08
1005.744	34.12
1005.906	-5.8
1006.068	15.13
1006.23	-3.08
1006.392	-27.5
1006.554	4.47
1006.716	67.44
1006.878	64.73
1007.04	-22.46
1007.202	17.84
1007.363	32.37
1007.525	63.18
1007.687	32.18
1007.849	88.17
1008.011	-0.37
1008.172	-19.55
1008.334	21.91
1008.496	31.4
1008.658	-17.61
1008.819	-2.12
1008.981	8.73
1009.143	5.44
1009.304	-1.34
1009.466	45.16
1009.627	98.05
1009.789	87.01
1009.95	36.25
1010.112	-11.61
1010.273	59.88
1010.435	-8.7
1010.596	5.83
1010.758	13.38
1010.919	34.89
1011.081	-8.31
1011.242	16.48
1011.403	44
1011.565	1.76
1011.726	34.5
1011.887	-31.56
1012.049	10.67
1012.21	17.65
1012.371	64.15
1012.532	-41.83
1012.693	22.1
1012.855	4.47
1013.016	-2.12
1013.177	29.66
1013.338	2.53
1013.499	68.41
1013.66	37.02
1013.821	47.1
1013.982	2.15
1014.143	30.82
1014.304	-8.31
1014.465	47.68
1014.626	57.75
1014.787	-4.44
1014.948	111.61
1015.109	-25.36
1015.27	66.67
1015.431	26.95
1015.592	-26.14
1015.752	73.64
1015.913	25.01
1016.074	23.27
1016.235	3.5
1016.395	0.6
1016.556	2.73
1016.717	10.09
1016.877	73.83
1017.038	-0.95
1017.199	45.16
1017.359	32.37
1017.52	21.91
1017.681	-14.13
1017.841	18.42
1018.002	10.87
1018.162	-10.06
1018.323	39.73
1018.483	-10.64
1018.644	3.12
1018.804	-35.63
1018.964	-18.97
1019.125	-9.09
1019.285	21.13
1019.446	-29.24
1019.606	-10.83
1019.766	-47.84
1019.926	45.93
1020.087	16.87
1020.247	-27.69
1020.407	33.53
1020.567	63.18
1020.728	10.48
1020.888	-8.7
1021.048	-19.94
1021.208	-5.22
1021.368	-20.71
1021.528	42.64
1021.688	37.6
1021.848	44.77
1022.008	14.74
1022.168	-10.25
1022.328	27.92
1022.488	0.4
1022.648	6.99
1022.808	-1.53
1022.968	24.43
1023.128	24.04
1023.288	2.15
1023.448	11.45
1023.608	6.99
1023.767	24.23
1023.927	-11.8
1024.087	-15.1
1024.247	-34.47
1024.406	-5.6
1024.566	-29.82
1024.726	-22.85
1024.885	1.76
1025.045	15.13
1025.205	7.77
1025.364	-19.55
1025.524	26.17
1025.683	-7.35
1025.843	21.72
1026.003	6.8
1026.162	70.54
1026.321	35.08
1026.481	-3.67
1026.64	-2.89
1026.8	23.27
1026.959	6.99
1027.119	-7.15
1027.278	-14.13
1027.437	-15.29
1027.597	-2.5
1027.756	8.15
1027.915	31.98
1028.074	46.71
1028.234	-12.58
1028.393	10.67
1028.552	7.57
1028.711	-71.86
1028.87	46.71
1029.03	-26.72
1029.189	13.38
1029.348	-38.73
1029.507	-26.14
1029.666	11.83
1029.825	-30.6
1029.984	-11.03
1030.143	29.47
1030.302	-35.63
1030.461	-49.97
1030.62	24.62
1030.779	22.49
1030.938	-14.32
1031.097	-25.36
1031.255	43.8
1031.414	37.8
1031.573	30.82
1031.732	-50.36
1031.891	11.83
1032.049	36.25
1032.208	34.7
1032.367	-10.25
1032.525	-12
1032.684	6.02
1032.843	9.32
1033.001	-50.75
1033.16	157.53
1033.319	59.88
1033.477	57.17
1033.636	-22.85
1033.794	-31.56
1033.953	53.1
1034.111	19
1034.27	-31.95
1034.428	-2.12
1034.587	-14.9
1034.745	18.81
1034.903	29.08
1035.062	16.87
1035.22	-29.24
1035.378	45.93
1035.537	-31.56
1035.695	5.83
1035.853	3.31
1036.011	44.97
1036.17	40.51
1036.328	-37.57
1036.486	12.61
1036.644	0.21
1036.802	-82.91
1036.96	-44.16
1037.119	28.3
1037.277	-30.01
1037.435	-30.6
1037.593	-25.75
1037.751	-3.67
1037.909	34.89
1038.067	34.89
