Data from pine_FLMT105791__73__17-21-13-077.txt Node

Date: Mon Mar 20 17:21:13 GMT 2023
User: antho
Spectrometer: FLMT10579
Trigger mode: 0
Integration Time (sec): 1.000000E-1
Scans to average: 10
Electric dark correction enabled: true
Nonlinearity correction enabled: false
Boxcar width: 0
XAxis mode: Wavelengths
Number of Pixels in Spectrum: 3648
>>>>>Begin Spectral Data<<<<<
345.248	-165.04
345.464	-165.04
345.681	-165.04
345.898	-176.28
346.114	-151.87
346.331	-18.76
346.548	26.96
346.764	-0.74
346.981	-8.88
347.197	0.42
347.414	2.94
347.631	-2.1
347.847	64.55
348.064	15.34
348.28	5.46
348.497	-51.31
348.713	-33.87
348.93	20.57
349.146	40.33
349.363	-18.37
349.579	9.53
349.796	-2.1
350.012	11.46
350.229	26.58
350.445	-11.01
350.661	-35.42
350.878	2.94
351.094	13.98
351.311	13.98
351.527	-0.16
351.743	-6.17
351.96	27.54
352.176	40.72
352.392	17.08
352.609	28.32
352.825	10.69
353.041	0.03
353.257	14.56
353.474	1.39
353.69	28.13
353.906	3.13
354.122	-14.89
354.339	47.69
354.555	-32.52
354.771	17.66
354.987	45.95
355.203	69.2
355.42	7.2
355.636	-4.81
355.852	6.23
356.068	19.41
356.284	-35.42
356.5	56.03
356.716	0.23
356.932	-17.02
357.148	33.16
357.364	5.65
357.58	43.43
357.796	43.24
358.012	42.27
358.228	30.84
358.444	-70.88
358.66	70.17
358.876	23.48
359.092	-14.31
359.308	18.83
359.524	40.14
359.74	-4.23
359.956	-11.98
360.172	18.05
360.388	28.51
360.604	-15.47
360.819	79.86
361.035	37.43
361.251	25.61
361.467	-26.32
361.683	20.57
361.898	18.44
362.114	41.3
362.33	-2.49
362.546	44.79
362.762	19.02
362.977	-2.29
363.193	-5.01
363.409	28.9
363.624	-4.04
363.84	-19.15
364.056	-6.56
364.271	54.86
364.487	23.09
364.703	-2.29
364.918	-22.64
365.134	1.19
365.35	-14.11
365.565	100.78
365.781	28.9
365.996	23.86
366.212	63.78
366.427	22.89
366.643	-10.82
366.858	18.24
367.074	-27.09
367.289	57.58
367.505	103.88
367.72	-61.19
367.936	-12.76
368.151	62.03
368.367	18.63
368.582	10.11
368.798	11.27
369.013	50.21
369.228	31.23
369.444	3.71
369.659	74.24
369.874	23.67
370.09	32.19
370.305	-63.52
370.52	-3.46
370.736	53.31
370.951	0.42
371.166	32.19
371.381	65.91
371.597	49.24
371.812	-21.09
372.027	-15.85
372.242	2.94
372.458	99.81
372.673	6.62
372.888	14.18
373.103	35.88
373.318	93.61
373.533	32.39
373.749	34.52
373.964	-37.94
374.179	59.32
374.394	-10.24
374.609	75.21
374.824	-26.7
375.039	54.67
375.254	-9.07
375.469	69.78
375.684	13.01
375.899	59.51
376.114	-3.46
376.329	14.95
376.544	54.67
376.759	56.8
376.974	-15.85
377.189	9.14
377.404	10.3
377.619	34.71
377.834	-21.47
378.049	-38.33
378.264	-10.24
378.478	19.41
378.693	-9.27
378.908	23.67
379.123	10.11
379.338	49.05
379.553	30.45
379.767	11.27
379.982	7.39
380.197	44.4
380.412	14.76
380.626	38.59
380.841	67.65
381.056	34.33
381.271	62.03
381.485	28.71
381.7	-7.33
381.915	22.89
382.129	-14.11
382.344	40.33
382.559	15.73
382.773	51.57
382.988	-38.14
383.202	33.36
383.417	-15.27
383.632	110.86
383.846	35.49
384.061	10.88
384.275	1.97
384.49	51.76
384.704	43.82
384.919	13.4
385.133	8.75
385.348	20.18
385.562	-8.69
385.777	82.18
385.991	15.92
386.206	31.81
386.42	8.56
386.634	56.8
386.849	31.03
387.063	20.38
387.277	-20.5
387.492	-4.23
387.706	-9.27
387.92	-3.07
388.135	54.28
388.349	31.03
388.563	14.76
388.778	3.13
388.992	42.46
389.206	48.28
389.42	109.89
389.635	7.78
389.849	33.55
390.063	39.36
390.277	38.59
390.491	83.34
390.706	34.71
390.92	27.93
391.134	16.89
391.348	33.74
391.562	-33.49
391.776	8.17
391.99	-29.03
392.205	61.45
392.419	-23.6
392.633	12.24
392.847	75.4
393.061	-4.04
393.275	102.14
393.489	44.79
393.703	28.32
393.917	53.51
394.131	17.08
394.345	55.83
394.559	42.46
394.773	20.76
394.986	50.79
395.2	12.43
395.414	45.95
395.628	-8.11
395.842	25.22
396.056	-9.27
396.27	-16.24
396.484	35.29
396.697	20.76
396.911	68.04
397.125	54.48
397.339	60.48
397.553	35.88
397.766	99.62
397.98	55.64
398.194	80.82
398.408	15.14
398.621	31.03
398.835	64.74
399.049	37.81
399.262	60.87
399.476	61.26
399.69	49.83
399.903	121.71
400.117	6.43
400.331	37.43
400.544	9.53
400.758	127.52
400.971	26.96
401.185	81.99
401.398	-14.31
401.612	74.04
401.826	61.64
402.039	73.66
402.253	-2.49
402.466	48.47
402.68	20.57
402.893	41.69
403.106	23.09
403.32	31.42
403.533	60.48
403.747	10.88
403.96	37.43
404.174	80.44
404.387	9.53
404.6	14.95
404.814	46.92
405.027	-0.55
405.24	27.93
405.454	-14.31
405.667	59.13
405.88	-27.29
406.094	47.5
406.307	83.34
406.52	61.26
406.733	19.6
406.947	-5.01
407.16	90.51
407.373	64.94
407.586	-8.69
407.799	16.31
408.012	65.33
408.226	35.29
408.439	79.86
408.652	12.82
408.865	54.28
409.078	76.37
409.291	49.05
409.504	-8.88
409.717	60.68
409.93	51.18
410.143	53.31
410.357	-25.35
410.57	-18.57
410.783	38.01
410.996	46.14
411.209	16.69
411.421	80.44
411.634	47.89
411.847	8.56
412.06	16.5
412.273	30.26
412.486	58.16
412.699	162.2
412.912	35.29
413.125	74.62
413.338	48.47
413.55	56.8
413.763	54.09
413.976	63.19
414.189	51.38
414.402	13.59
414.615	67.07
414.827	15.92
415.04	74.62
415.253	54.48
415.466	93.42
415.678	106.59
415.891	38.2
416.104	29.09
416.316	47.31
416.529	29.68
416.742	73.07
416.954	79.08
417.167	25.8
417.38	22.31
417.592	93.22
417.805	6.23
418.017	-7.72
418.23	78.31
418.442	25.03
418.655	29.29
418.868	63
419.08	91.09
419.293	88.57
419.505	86.06
419.718	66.68
419.93	98.84
420.142	29.29
420.355	98.84
420.567	97.87
420.78	50.6
420.992	53.31
421.205	114.54
421.417	15.92
421.629	33.16
421.842	26.19
422.054	15.73
422.266	91.87
422.479	77.14
422.691	46.14
422.903	85.67
423.115	44.59
423.328	41.11
423.54	58.93
423.752	58.16
423.964	33.55
424.177	61.64
424.389	44.4
424.601	170.92
424.813	80.63
425.025	79.27
425.238	109.31
425.45	34.33
425.662	53.51
425.874	342
426.086	50.41
426.298	94.77
426.51	76.17
426.722	43.82
426.934	34.91
427.146	100.01
427.358	41.88
427.57	107.95
427.782	81.21
427.994	70.75
428.206	61.06
428.418	9.91
428.63	92.64
428.842	94.39
429.054	94.58
429.266	107.76
429.478	47.11
429.69	64.16
429.902	9.91
430.114	102.33
430.325	90.32
430.537	24.44
430.749	58.93
430.961	38.78
431.173	83.92
431.384	114.15
431.596	25.99
431.808	78.31
432.02	76.56
432.231	81.41
432.443	129.84
432.655	96.52
432.867	52.15
433.078	92.06
433.29	161.23
433.502	106.4
433.713	142.63
433.925	84.7
434.136	123.45
434.348	38.01
434.56	34.13
434.771	169.75
434.983	38.39
435.194	51.18
435.406	64.16
435.617	151.35
435.829	182.93
436.04	117.06
436.252	138.95
436.463	151.16
436.675	130.04
436.886	100.59
437.098	115.31
437.309	184.87
437.521	94.58
437.732	121.71
437.943	114.92
438.155	101.36
438.366	78.69
438.578	170.53
438.789	126.94
439	144.37
439.211	118.22
439.423	126.74
439.634	147.09
439.845	152.12
440.057	127.91
440.268	166.65
440.479	97.49
440.69	124.42
440.902	135.46
441.113	98.26
441.324	123.26
441.535	147.86
441.746	183.32
441.957	119.77
442.168	119.38
442.38	182.93
442.591	168.98
442.802	113.57
443.013	118.8
443.224	181.38
443.435	123.84
443.646	144.57
443.857	134.69
444.068	113.18
444.279	120.35
444.49	191.07
444.701	137.01
444.912	234.47
445.123	147.09
445.334	162.2
445.545	162.78
445.756	155.61
445.967	117.25
446.178	187
446.388	206.95
446.599	165.69
446.81	177.12
447.021	141.27
447.232	204.05
447.443	223.04
447.653	156.58
447.864	196.3
448.075	185.25
448.286	192.62
448.496	169.37
448.707	216.25
448.918	180.99
449.129	270.89
449.339	156.58
449.55	197.27
449.761	194.17
449.971	221.1
450.182	185.45
450.393	230.4
450.603	179.64
450.814	228.65
451.024	199.98
451.235	219.16
451.446	253.07
451.656	252.68
451.867	171.11
452.077	218.19
452.288	267.79
452.498	263.33
452.709	198.04
452.919	247.45
453.13	187.19
453.34	234.27
453.55	162.97
453.761	248.22
453.971	226.52
454.182	261.78
454.392	221.49
454.602	269.34
454.813	240.28
455.023	258.88
455.233	170.34
455.444	230.2
455.654	178.67
455.864	224.59
456.075	197.46
456.285	206.76
456.495	205.99
456.705	228.85
456.916	287.75
457.126	259.46
457.336	236.6
457.546	200.37
457.756	203.85
457.967	252.68
458.177	206.76
458.387	255.78
458.597	194.36
458.807	221.49
459.017	210.25
459.227	198.82
459.437	213.54
459.647	250.74
459.857	275.15
460.068	230.4
460.278	270.7
460.488	250.93
460.698	298.79
460.908	224.39
461.117	199.4
461.327	207.92
461.537	261.01
461.747	260.23
461.957	240.86
462.167	358.08
462.377	290.27
462.587	268.18
462.797	292.2
463.007	255.97
463.216	256.94
463.426	319.13
463.636	269.34
463.846	222.07
464.056	248.03
464.265	281.35
464.475	219.55
464.685	265.08
464.895	294.53
465.104	256.94
465.314	317
465.524	259.27
465.733	264.5
465.943	326.3
466.153	342.58
466.362	324.17
466.572	301.7
466.782	288.72
466.991	298.79
467.201	326.3
467.41	245.9
467.62	268.18
467.829	288.91
468.039	320.49
468.249	258.1
468.458	283.1
468.668	327.08
468.877	324.17
469.086	326.69
469.296	333.86
469.505	275.35
469.715	360.01
469.924	323.4
470.134	381.52
470.343	357.69
470.552	309.06
470.762	300.92
470.971	250.55
471.18	320.88
471.39	306.73
471.599	269.73
471.808	352.65
472.018	286.78
472.227	361.76
472.436	338.31
472.645	330.95
472.855	302.86
473.064	373.38
473.273	347.42
473.482	317.78
473.691	390.63
473.901	385.59
474.11	345.87
474.319	436.54
474.528	359.05
474.737	410.2
474.946	362.92
475.155	375.32
475.364	367.18
475.573	369.31
475.783	389.85
475.992	390.82
476.201	419.69
476.41	355.95
476.619	349.16
476.828	395.66
477.037	348.97
477.245	372.61
477.454	416.78
477.663	345.29
477.872	394.11
478.081	454.18
478.29	349.94
478.499	485.56
478.708	420.85
478.917	493.7
479.125	395.28
479.334	405.93
479.543	400.51
479.752	420.27
479.961	422.98
480.169	463.48
480.378	401.48
480.587	549.31
480.796	468.71
481.004	446.81
481.213	466.19
481.422	451.27
481.63	444.29
481.839	483.24
482.048	514.62
482.256	476.26
482.465	461.93
482.674	501.06
482.882	504.74
483.091	565.58
483.299	492.34
483.508	525.28
483.716	489.24
483.925	516.95
484.134	464.25
484.342	473.16
484.551	498.93
484.759	497.58
484.967	482.46
485.176	556.28
485.384	517.34
485.593	546.21
485.801	525.09
486.01	496.99
486.218	481.69
486.426	416.01
486.635	460.38
486.843	447.59
487.051	479.56
487.26	467.54
487.468	510.36
487.676	509.2
487.885	466.58
488.093	500.09
488.301	528.38
488.509	511.52
488.717	552.21
488.926	536.71
489.134	516.95
489.342	553.96
489.55	492.73
489.758	574.49
489.967	494.28
490.175	659.16
490.383	516.17
490.591	609.17
490.799	502.61
491.007	599.1
491.215	579.34
491.423	577.21
491.631	567.52
491.839	564.61
492.047	599.29
492.255	521.21
492.463	476.26
492.671	539.42
492.879	604.14
493.087	574.88
493.295	613.44
493.503	609.95
493.711	620.99
493.919	630.87
494.127	636.3
494.334	668.07
494.542	561.32
494.75	606.07
494.958	621.57
495.166	615.37
495.374	648.89
495.581	621.38
495.789	641.14
495.997	715.35
496.205	616.15
496.412	625.64
496.62	607.82
496.828	670.01
497.035	627.97
497.243	642.89
497.451	657.03
497.658	659.16
497.866	673.3
498.074	741.5
498.281	636.49
498.489	698.88
498.696	671.37
498.904	664.97
499.112	637.07
499.319	711.67
499.527	656.25
499.734	697.91
499.942	638.62
500.149	653.35
500.357	679.7
500.564	654.9
500.771	703.33
500.979	623.7
501.186	635.91
501.394	670.2
501.601	672.53
501.808	700.23
502.016	673.89
502.223	658
502.43	677.37
502.638	659.74
502.845	672.72
503.052	693.84
503.26	682.22
503.467	768.43
503.674	705.27
503.881	695
504.089	800.98
504.296	711.67
504.503	668.85
504.71	698.3
504.917	655.09
505.125	713.6
505.332	711.28
505.539	718.45
505.746	787.61
505.953	752.93
506.16	722.13
506.367	795.36
506.574	807.57
506.781	786.65
506.988	730.27
507.195	751
507.402	744.6
507.609	784.71
507.816	748.09
508.023	738.02
508.23	755.65
508.437	703.92
508.644	777.54
508.851	829.27
509.058	799.43
509.265	777.15
509.472	787.61
509.679	871.51
509.885	806.02
510.092	782.38
510.299	793.81
510.506	806.41
510.713	801.76
510.92	796.14
511.126	824.43
511.333	831.98
511.54	818.23
511.746	912.39
511.953	878.48
512.16	919.94
512.367	826.17
512.573	832.18
512.78	806.99
512.987	825.98
513.193	834.5
513.4	784.13
513.606	804.08
513.813	831.01
514.02	854.46
514.226	912.39
514.433	924.59
514.639	870.73
514.846	826.95
515.052	842.25
515.259	870.54
515.465	859.69
515.672	897.08
515.878	947.26
516.085	879.84
516.291	929.05
516.497	844.96
516.704	883.52
516.91	806.02
517.117	789.36
517.323	769.6
517.529	810.67
517.736	774.83
517.942	853.88
518.148	812.22
518.354	840.7
518.561	865.69
518.767	836.63
518.973	869.57
519.179	905.8
519.386	850.58
519.592	869.57
519.798	859.11
520.004	965.67
520.21	902.51
520.417	967.8
520.623	1003.06
520.829	985.43
521.035	961.21
521.241	977.29
521.447	1003.64
521.653	1103.23
521.859	936.41
522.065	1032.51
522.271	1087.34
522.477	1023.02
522.683	1051.5
522.889	1056.54
523.095	1047.43
523.301	1026.7
523.507	989.31
523.713	1067.97
523.919	999.57
524.125	1105.36
524.331	1011.78
524.537	1086.76
524.742	1089.47
524.948	1084.24
525.154	1107.49
525.36	1198.36
525.566	1103.81
525.772	1147.4
525.977	1065.45
526.183	1159.42
526.389	1144.69
526.595	1068.74
526.8	1096.06
527.006	1050.14
527.212	1022.82
527.417	977.29
527.623	997.64
527.829	1073.97
528.034	1071.07
528.24	1096.45
528.446	1095.67
528.651	1169.49
528.857	1159.22
529.062	1242.15
529.268	1140.62
529.473	1196.03
529.679	1148.57
529.884	1251.06
530.09	1207.85
530.295	1235.56
530.501	1234.01
530.706	1226.06
530.912	1175.88
531.117	1178.79
531.323	1191.97
531.528	1245.63
531.733	1249.7
531.939	1238.46
532.144	1238.08
532.35	1212.7
532.555	1291.75
532.76	1248.73
532.966	1242.53
533.171	1209.6
533.376	1199.52
533.581	1187.51
533.787	1183.83
533.992	1228.2
534.197	1299.69
534.402	1201.85
534.607	1265.2
534.813	1328.36
535.018	1223.93
535.223	1234.4
535.428	1253.77
535.633	1324.1
535.838	1294.85
536.043	1306.08
536.249	1367.69
536.454	1292.52
536.659	1326.04
536.864	1279.54
537.069	1233.43
537.274	1277.99
537.479	1287.48
537.684	1304.92
537.889	1262.3
538.094	1407.22
538.299	1274.11
538.504	1317.32
538.708	1342.31
538.913	1352.39
539.118	1322.55
539.323	1361.49
539.528	1290.58
539.733	1324.1
539.938	1319.06
540.142	1326.04
540.347	1273.15
540.552	1291.75
540.757	1278.76
540.962	1308.79
541.166	1253.19
541.371	1237.3
541.576	1275.66
541.781	1204.17
541.985	1310.93
542.19	1321.78
542.395	1389.59
542.599	1389.39
542.804	1353.55
543.008	1382.03
543.213	1331.08
543.418	1299.88
543.622	1348.13
543.827	1271.79
544.031	1365.56
544.236	1389.01
544.44	1346.96
544.645	1439.96
544.849	1316.74
545.054	1393.46
545.258	1453.72
545.463	1394.43
545.667	1316.74
545.872	1369.63
546.076	1395.01
546.281	1391.14
546.485	1344.44
546.689	1372.73
546.894	1412.84
547.098	1388.81
547.302	1335.92
547.507	1366.73
547.711	1398.11
547.915	1394.24
548.119	1384.16
548.324	1358.39
548.528	1443.45
548.732	1379.9
548.936	1407.99
549.141	1417.68
549.345	1396.56
549.549	1456.82
549.753	1421.36
549.957	1496.92
550.161	1493.24
550.366	1445.19
550.57	1398.89
550.774	1422.72
550.978	1448.68
551.182	1414.77
551.386	1396.76
551.59	1414.39
551.794	1401.41
551.998	1457.21
552.202	1438.99
552.406	1394.24
552.61	1447.52
552.814	1445.77
553.018	1460.31
553.222	1434.34
553.426	1435.89
553.63	1513.59
553.833	1430.08
554.037	1372.73
554.241	1406.25
554.445	1423.88
554.649	1416.52
554.853	1410.51
555.056	1452.56
555.26	1503.32
555.464	1428.53
555.668	1454.49
555.871	1444.03
556.075	1466.7
556.279	1362.46
556.483	1362.66
556.686	1441.12
556.89	1411.29
557.094	1422.72
557.297	1356.26
557.501	1476.77
557.704	1341.34
557.908	1428.34
558.112	1397.72
558.315	1452.17
558.519	1376.99
558.722	1382.81
558.926	1375.44
559.129	1351.81
559.333	1275.86
559.536	1319.26
559.74	1320.03
559.943	1307.83
560.147	1343.67
560.35	1357.62
560.553	1341.54
560.757	1299.69
560.96	1412.26
561.164	1357.23
561.367	1437.44
561.57	1349.48
561.774	1373.89
561.977	1373.51
562.18	1308.41
562.384	1413.03
562.587	1329.33
562.79	1314.99
562.993	1344.64
563.197	1387.26
563.4	1411.09
563.603	1423.88
563.806	1449.46
564.009	1353.36
564.212	1380.87
564.416	1293.1
564.619	1366.92
564.822	1301.43
565.025	1368.86
565.228	1341.93
565.431	1316.54
565.634	1230.33
565.837	1300.46
566.04	1259.97
566.243	1286.32
566.446	1184.8
566.649	1270.05
566.852	1248.35
567.055	1258.42
567.258	1302.21
567.461	1370.99
567.664	1366.34
567.867	1227.81
568.07	1278.76
568.273	1291.16
568.475	1326.62
568.678	1257.26
568.881	1260.94
569.084	1274.7
569.287	1174.33
569.489	1215.99
569.692	1257.84
569.895	1263.85
570.098	1179.57
570.3	1152.25
570.503	1146.43
570.706	1152.44
570.909	1178.4
571.111	1145.66
571.314	1173.95
571.516	1209.21
571.719	1173.56
571.922	1195.07
572.124	1156.7
572.327	1195.65
572.529	1120.86
572.732	1173.56
572.935	1199.52
573.137	1241.95
573.34	1146.43
573.542	1222.38
573.745	1209.6
573.947	1208.43
574.15	1195.07
574.352	1156.51
574.554	1225.48
574.757	1140.82
574.959	1119.31
575.162	1117.37
575.364	1145.08
575.566	1247.57
575.769	1139.27
575.971	1143.53
576.173	1041.42
576.376	1130.74
576.578	1185.77
576.78	1208.82
576.982	1080.75
577.185	1149.34
577.387	1077.07
577.589	1079.2
577.791	1141.4
577.993	1154.57
578.196	1109.43
578.398	1144.5
578.6	1139.65
578.802	1059.25
579.004	1038.71
579.206	1087.54
579.408	1098.39
579.61	1114.27
579.812	1143.33
580.014	1117.37
580.216	1111.75
580.418	1106.91
580.62	1070.87
580.822	1064.29
581.024	1083.27
581.226	1140.23
581.428	1117.37
581.63	1185.18
581.832	1108.07
582.034	1170.46
582.236	1100.9
582.438	1130.93
582.64	1160.38
582.841	1177.43
583.043	1231.1
583.245	1157.87
583.447	1142.56
583.649	1151.28
583.85	1126.67
584.052	1165.42
584.254	1111.95
584.456	1178.6
584.657	1088.89
584.859	1114.66
585.061	1100.32
585.262	1078.04
585.464	1039.49
585.666	1147.6
585.867	1082.5
586.069	1126.67
586.27	1092.96
586.472	1082.11
586.674	1080.37
586.875	1094.51
587.077	1053.82
587.278	1153.6
587.48	1073
587.681	1201.65
587.883	1110.01
588.084	1018.17
588.285	1053.24
588.487	1039.1
588.688	1053.63
588.89	993.76
589.091	976.91
589.292	1026.31
589.494	985.24
589.695	946.87
589.896	910.06
590.098	893.79
590.299	954.43
590.5	905.03
590.702	943
590.903	950.75
591.104	1021.47
591.305	1034.84
591.507	1064.67
591.708	1024.76
591.909	994.73
592.11	1059.44
592.311	1008.68
592.512	990.08
592.714	961.21
592.915	955.4
593.116	993.96
593.317	1025.34
593.518	1008.29
593.719	993.57
593.92	1059.25
594.121	1056.73
594.322	1011.59
594.523	1011.97
594.724	992.79
594.925	1006.94
595.126	1026.31
595.327	1005.19
595.528	1021.86
595.729	1011.59
595.929	987.56
596.13	986.98
596.331	996.28
596.532	1035.42
596.733	1066.03
596.934	1038.71
597.135	1064.87
597.335	1028.83
597.536	943.39
597.737	987.37
597.938	975.36
598.138	1053.05
598.339	1031.54
598.54	1023.99
598.74	974.97
598.941	998.8
599.142	1049.56
599.342	1010.04
599.543	947.65
599.744	972.06
599.944	989.69
600.145	1024.76
600.345	995.51
600.546	1090.64
600.746	1081.53
600.947	1077.27
601.147	997.25
601.348	1051.69
601.548	981.36
601.749	999.19
601.949	963.15
602.15	980.59
602.35	973.22
602.551	1019.34
602.751	974.39
602.951	958.31
603.152	956.76
603.352	998.61
603.552	977.1
603.753	1007.91
603.953	1011.59
604.153	974.77
604.354	1002.09
604.554	1001.51
604.754	990.08
604.954	952.49
605.155	1007.13
605.355	953.46
605.555	1020.5
605.755	1062.35
605.955	974.97
606.155	1030.57
606.356	993.96
606.556	1009.65
606.756	996.09
606.956	938.74
607.156	1029.02
607.356	952.49
607.556	997.44
607.756	974.58
607.956	1007.91
608.156	993.76
608.356	990.08
608.556	1020.11
608.756	984.07
608.956	972.45
609.156	955.59
609.356	926.34
609.556	943.97
609.755	972.26
609.955	930.79
610.155	962.57
610.355	998.61
610.555	934.09
610.755	978.07
610.954	897.86
611.154	941.06
611.354	987.76
611.554	922.08
611.753	958.69
611.953	887.01
612.153	963.73
612.352	925.56
612.552	899.02
612.752	855.81
612.951	952.11
613.151	945.33
613.351	918.78
613.55	929.63
613.75	955.79
613.949	904.06
614.149	944.55
614.348	890.49
614.548	905.03
614.747	868.6
614.947	890.11
615.146	825.2
615.346	896.89
615.545	936.41
615.745	904.64
615.944	907.54
616.144	876.93
616.343	904.25
616.542	865.69
616.742	861.82
616.941	869.38
617.14	803.31
617.34	830.43
617.539	846.32
617.738	867.63
617.938	944.55
618.137	872.48
618.336	866.66
618.535	876.16
618.734	858.33
618.934	912.19
619.133	850.78
619.332	892.24
619.531	864.73
619.73	891.08
619.929	920.33
620.128	919.75
620.328	928.08
620.527	830.82
620.726	868.99
620.925	892.63
621.124	882.55
621.323	898.44
621.522	845.74
621.721	835.66
621.92	815.32
622.119	856.98
622.318	840.12
622.517	837.02
622.715	834.31
622.914	785.87
623.113	857.17
623.312	809.12
623.511	859.49
623.71	858.33
623.909	846.71
624.107	871.7
624.306	780.45
624.505	800.79
624.704	826.56
624.902	791.1
625.101	851.55
625.3	856.4
625.499	807.57
625.697	812.8
625.896	804.66
626.095	832.95
626.293	786.65
626.492	784.51
626.69	838.96
626.889	793.81
627.088	854.07
627.286	798.46
627.485	829.85
627.683	755.07
627.882	809.7
628.08	708.57
628.279	762.04
628.477	850.97
628.676	751.97
628.874	814.55
629.073	756.03
629.271	757.58
629.469	794.2
629.668	755.45
629.866	787.03
630.065	746.54
630.263	813
630.461	768.43
630.66	763.78
630.858	800.01
631.056	816.87
631.254	828.11
631.453	727.36
631.651	780.83
631.849	781.03
632.047	794.4
632.245	757.39
632.444	805.44
632.642	776.38
632.84	777.35
633.038	762.43
633.236	754.48
633.434	745.77
633.632	718.06
633.83	744.02
634.028	780.06
634.227	757.78
634.425	821.71
634.623	756.03
634.821	799.24
635.019	797.11
635.216	735.88
635.414	827.53
635.612	791.88
635.81	761.85
636.008	827.53
636.206	753.71
636.404	788.78
636.602	732.78
636.8	755.07
636.997	807.96
637.195	807.57
637.393	770.57
637.591	819.2
637.789	775.02
637.986	762.23
638.184	808.54
638.382	813
638.58	794.01
638.777	861.43
638.975	774.05
639.173	790.71
639.37	813.38
639.568	810.09
639.765	825.98
639.963	775.8
640.161	801.18
640.358	797.3
640.556	759.91
640.753	718.45
640.951	757.97
641.148	790.91
641.346	742.47
641.543	733.75
641.741	786.84
641.938	756.62
642.136	760.88
642.333	742.08
642.531	780.83
642.728	819.78
642.925	762.04
643.123	750.22
643.32	784.32
643.517	747.51
643.715	767.85
643.912	753.52
644.109	749.64
644.306	728.72
644.504	727.55
644.701	754.68
644.898	778.7
645.095	727.75
645.293	787.03
645.49	745.38
645.687	736.08
645.884	761.85
646.081	666.52
646.278	713.8
646.475	702.37
646.672	711.08
646.87	750.22
647.067	711.67
647.264	742.47
647.461	646.57
647.658	645.6
647.855	735.5
648.052	702.95
648.249	577.79
648.446	704.11
648.642	681.05
648.839	658.19
649.036	637.65
649.233	634.17
649.43	633.2
649.627	619.25
649.824	636.49
650.021	624.29
650.217	648.5
650.414	630.1
650.611	667.69
650.808	651.02
651.004	676.79
651.201	675.63
651.398	708.95
651.595	666.33
651.791	672.34
651.988	714.57
652.185	631.45
652.381	673.89
652.578	612.08
652.775	651.99
652.971	697.13
653.168	658.77
653.364	672.72
653.561	622.54
653.757	637.85
653.954	661.1
654.15	633.78
654.347	705.08
654.543	667.69
654.74	618.47
654.936	600.84
655.133	630.1
655.329	635.14
655.525	633.97
655.722	647.54
655.918	609.37
656.115	639.4
656.311	563.06
656.507	535.74
656.704	513.66
656.9	568.87
657.096	537.29
657.292	539.62
657.489	609.56
657.685	614.6
657.881	586.31
658.077	605.1
658.273	603.94
658.47	677.57
658.666	589.02
658.862	669.43
659.058	578.56
659.254	662.84
659.45	598.9
659.646	629.9
659.842	610.72
660.038	650.83
660.234	570.04
660.43	627.19
660.626	698.1
660.822	660.9
661.018	659.94
661.214	614.4
661.41	568.29
661.606	641.92
661.802	629.13
661.998	604.52
662.194	586.31
662.39	643.66
662.586	640.17
662.781	661.87
662.977	636.69
663.173	645.02
663.369	597.16
663.564	620.02
663.76	612.85
663.956	601.42
664.152	625.45
664.347	558.22
664.543	611.89
664.739	599.87
664.934	550.08
665.13	554.15
665.326	633.97
665.521	631.45
665.717	558.99
665.912	577.01
666.108	522.18
666.304	588.25
666.499	578.17
666.695	500.29
666.89	545.82
667.086	637.27
667.281	607.43
667.477	630.1
667.672	593.09
667.867	572.56
668.063	572.17
668.258	545.43
668.454	570.62
668.649	653.15
668.844	588.83
669.04	610.53
669.235	573.72
669.43	527.99
669.626	551.63
669.821	557.06
670.016	533.61
670.211	546.98
670.407	540.39
670.602	561.51
670.797	552.79
670.992	607.24
671.187	545.62
671.382	583.21
671.578	559.57
671.773	580.11
671.968	537.68
672.163	555.89
672.358	601.42
672.553	536.91
672.748	539.23
672.943	622.15
673.138	557.83
673.333	572.94
673.528	535.36
673.723	535.74
673.918	547.76
674.113	499.71
674.308	634.36
674.503	574.11
674.698	603.55
674.892	564.81
675.087	597.74
675.282	560.35
675.477	541.17
675.672	569.65
675.867	509.78
676.061	501.64
676.256	465.41
676.451	520.05
676.646	529.54
676.84	523.73
677.035	507.46
677.23	503.39
677.424	547.37
677.619	548.53
677.814	576.04
678.008	551.24
678.203	478.39
678.397	503.58
678.592	542.91
678.787	590.38
678.981	527.61
679.176	530.9
679.37	534.97
679.565	516.95
679.759	521.41
679.954	559.19
680.148	605.3
680.342	607.04
680.537	599.29
680.731	544.07
680.926	553.18
681.12	567.32
681.314	506.49
681.509	518.5
681.703	522.96
681.897	565.58
682.092	556.47
682.286	507.84
682.48	595.42
682.674	575.66
682.869	520.05
683.063	548.92
683.257	614.02
683.451	519.08
683.645	571.39
683.839	527.8
684.034	527.02
684.228	564.61
684.422	502.42
684.616	490.41
684.81	560.74
685.004	528.77
685.198	544.27
685.392	573.91
685.586	488.08
685.78	538.26
685.974	545.62
686.168	544.85
686.362	588.83
686.556	513.27
686.75	471.81
686.944	492.54
687.138	508.43
687.331	414.07
687.525	410.2
687.719	358.08
687.913	421.43
688.107	458.05
688.301	402.64
688.494	464.25
688.688	390.63
688.882	388.3
689.076	408.65
689.269	440.81
689.463	524.12
689.657	444.29
689.85	436.54
690.044	465.41
690.238	438.48
690.431	464.25
690.625	439.06
690.818	494.09
691.012	460.38
691.205	540.59
691.399	468.51
691.593	499.71
691.786	571.97
691.98	544.27
692.173	591.16
692.366	538.65
692.56	554.73
692.753	606.46
692.947	512.88
693.14	606.65
693.333	585.92
693.527	533.22
693.72	573.14
693.914	544.66
694.107	541.94
694.3	552.6
694.493	580.31
694.687	630.49
694.88	572.56
695.073	643.66
695.266	620.99
695.46	597.35
695.653	633
695.846	657.61
696.039	593.87
696.232	619.25
696.425	675.63
696.618	689.19
696.812	644.63
697.005	716.51
697.198	778.9
697.391	711.28
697.584	726
697.777	783.55
697.97	759.91
698.163	768.43
698.356	743.63
698.549	827.53
698.742	782.96
698.935	719.22
699.127	750.22
699.32	762.62
699.513	761.46
699.706	783.35
699.899	762.62
700.092	748.67
700.285	803.5
700.477	719.61
700.67	782
700.863	867.05
701.056	896.31
701.248	835.86
701.441	878.48
701.634	820.16
701.826	950.17
702.019	845.35
702.212	888.17
702.404	818.81
702.597	853.88
702.79	887.01
702.982	895.53
703.175	933.31
703.367	942.42
703.56	932.34
703.752	1008.1
703.945	971.48
704.137	986.01
704.33	1008.49
704.522	1005.39
704.715	1022.44
704.907	1020.5
705.1	1087.15
705.292	1089.47
705.484	1020.11
705.677	1064.09
705.869	1083.08
706.061	1121.63
706.254	1140.04
706.446	1124.93
706.638	1087.92
706.831	1129.77
707.023	1104.2
707.215	1216.57
707.407	1180.53
707.599	1182.86
707.792	1197.58
707.984	1227.03
708.176	1237.88
708.368	1220.64
708.56	1251.83
708.752	1237.3
708.944	1197.2
709.136	1285.93
709.329	1213.47
709.521	1347.93
709.713	1291.36
709.905	1327.98
710.097	1355.1
710.289	1284.77
710.481	1320.03
710.672	1305.31
710.864	1327.01
711.056	1379.13
711.248	1367.11
711.44	1374.67
711.632	1366.14
711.824	1375.06
712.016	1465.34
712.207	1447.52
712.399	1425.43
712.591	1495.37
712.783	1460.69
712.975	1488.01
713.166	1414.39
713.358	1468.06
713.55	1525.6
713.741	1492.08
713.933	1505.64
714.125	1518.62
714.316	1482.2
714.508	1544.39
714.7	1524.44
714.891	1533.74
715.083	1586.24
715.274	1539.94
715.466	1522.11
715.657	1584.3
715.849	1505.84
716.04	1581.4
716.232	1519.2
716.423	1574.62
716.615	1508.74
716.806	1439.19
716.998	1420.01
717.189	1403.54
717.381	1294.85
717.572	1305.69
717.763	1352.58
717.955	1350.06
718.146	1307.63
718.337	1246.02
718.528	1224.9
718.72	1165.03
718.911	1220.06
719.102	1205.72
719.293	1282.06
719.485	1273.53
719.676	1224.71
719.867	1203.78
720.058	1224.32
720.249	1209.21
720.44	1219.28
720.632	1255.9
720.823	1314.03
721.014	1424.85
721.205	1423.11
721.396	1464.76
721.587	1543.04
721.778	1533.93
721.969	1600.77
722.16	1623.25
722.351	1618.4
722.542	1723.41
722.733	1747.05
722.924	1628.87
723.115	1654.83
723.305	1672.46
723.496	1682.34
723.687	1627.7
723.878	1597.09
724.069	1610.27
724.26	1615.3
724.45	1546.33
724.641	1556.79
724.832	1580.62
725.023	1590.7
725.213	1579.46
725.404	1537.22
725.595	1568.8
725.785	1533.15
725.976	1626.15
726.167	1614.53
726.357	1579.65
726.548	1694.74
726.739	1631.38
726.929	1698.81
727.12	1716.44
727.31	1736.98
727.501	1643.78
727.691	1687.76
727.882	1688.54
728.072	1756.16
728.263	1752.09
728.453	1779.99
728.644	1776.11
728.834	1750.54
729.024	1707.72
729.215	1713.15
729.405	1753.44
729.596	1828.81
729.786	1813.51
729.976	1824.74
730.167	1869.31
730.357	1824.55
730.547	1795.1
730.737	1832.3
730.928	1878.99
731.118	1924.33
731.308	1884.22
731.498	1891.39
731.688	1950.1
731.879	1934.99
732.069	2009.77
732.259	2030.7
732.449	2029.92
732.639	2140.75
732.829	2109.94
733.019	2124.08
733.209	2207.98
733.399	2196.35
733.589	2262.22
733.779	2271.91
733.969	2229.87
734.159	2338.37
734.349	2330.04
734.539	2366.85
734.729	2352.51
734.919	2415.67
735.109	2405.99
735.299	2318.8
735.488	2416.64
735.678	2445.32
735.868	2419.55
736.058	2402.3
736.248	2359.1
736.437	2350.38
736.627	2317.06
736.817	2446.09
737.007	2374.6
737.196	2460.82
737.386	2417.22
737.576	2423.62
737.765	2469.92
737.955	2449.19
738.144	2555.95
738.334	2509.06
738.524	2402.69
738.713	2486.97
738.903	2464.88
739.092	2532.89
739.282	2545.68
739.471	2543.35
739.661	2502.08
739.85	2526.5
740.04	2511.19
740.229	2562.34
740.419	2573.38
740.608	2603.22
740.797	2601.09
740.987	2655.14
741.176	2629.18
741.365	2528.63
741.555	2574.93
741.744	2609.03
741.933	2610.97
742.123	2658.63
742.312	2647.78
742.501	2656.5
742.69	2732.45
742.88	2622.01
743.069	2744.07
743.258	2661.15
743.447	2734.19
743.636	2748.92
743.825	2687.69
744.014	2671.42
744.204	2726.25
744.393	2664.06
744.582	2737.49
744.771	2757.06
744.96	2695.25
745.149	2736.32
745.338	2681.69
745.527	2718.89
745.716	2681.3
745.905	2687.89
746.094	2737.29
746.283	2743.69
746.471	2712.69
746.66	2803.94
746.849	2748.14
747.038	2817.5
747.227	2722.37
747.416	2795.22
747.604	2705.91
747.793	2711.72
747.982	2791.93
748.171	2728.96
748.359	2771.01
748.548	2752.21
748.737	2714.82
748.926	2693.89
749.114	2619.11
749.303	2737.87
749.491	2720.24
749.68	2677.43
749.869	2740.2
750.057	2711.91
750.246	2700.48
750.434	2706.87
750.623	2708.81
750.811	2723.54
751	2758.22
751.188	2687.31
751.377	2685.76
751.565	2668.32
751.754	2641.78
751.942	2674.91
752.131	2705.52
752.319	2667.54
752.507	2632.09
752.696	2685.37
752.884	2769.84
753.072	2685.95
753.261	2714.04
753.449	2710.56
753.637	2681.3
753.825	2803.17
754.014	2687.89
754.202	2713.27
754.39	2767.91
754.578	2734
754.766	2640.61
754.955	2616.01
755.143	2745.04
755.331	2676.07
755.519	2677.23
755.707	2663.86
755.895	2647.01
756.083	2658.44
756.271	2621.63
756.459	2636.54
756.647	2670.64
756.835	2628.21
757.023	2614.65
757.211	2606.51
757.399	2602.25
757.587	2598.76
757.775	2593.34
757.963	2632.48
758.151	2631.51
758.339	2559.82
758.526	2547.61
758.714	2595.66
758.902	2497.82
759.09	2416.64
759.278	2290.51
759.465	2105.68
759.653	1786.58
759.841	1633.71
760.028	1383.58
760.216	1180.34
760.404	1140.62
760.591	906.58
760.779	755.65
760.967	696.55
761.154	556.09
761.342	606.07
761.529	625.64
761.717	636.88
761.905	657.03
762.092	715.54
762.28	686.28
762.467	664.97
762.655	608.98
762.842	620.02
763.029	642.3
763.217	649.67
763.404	647.54
763.592	705.47
763.779	634.17
763.966	678.73
764.154	723.48
764.341	778.51
764.528	760.3
764.716	829.46
764.903	875.19
765.09	909.68
765.277	950.94
765.465	1077.46
765.652	1147.98
765.839	1179.57
766.026	1296.2
766.213	1256.1
766.4	1414.77
766.588	1558.15
766.775	1535.48
766.962	1660.25
767.149	1671.3
767.336	1774.18
767.523	1736.59
767.71	1887.71
767.897	1979.16
768.084	2015.39
768.271	2015.39
768.458	2092.11
768.645	2153.34
768.832	2102.19
769.019	2175.43
769.206	2172.33
769.392	2239.36
769.579	2338.76
769.766	2250.41
769.953	2227.93
770.14	2282.76
770.327	2280.63
770.513	2356.97
770.7	2386.03
770.887	2315.51
771.073	2309.89
771.26	2318.99
771.447	2286.44
771.634	2284.12
771.82	2407.54
772.007	2291.09
772.193	2357.55
772.38	2375.76
772.567	2328.87
772.753	2334.49
772.94	2373.24
773.126	2368.59
773.313	2395.72
773.499	2413.93
773.686	2372.66
773.872	2326.94
774.059	2371.89
774.245	2325.77
774.432	2334.88
774.618	2293.81
774.804	2323.45
774.991	2274.43
775.177	2302.52
775.363	2270.94
775.55	2349.6
775.736	2256.8
775.922	2287.41
776.109	2304.66
776.295	2307.95
776.481	2331.39
776.667	2388.55
776.853	2311.44
777.04	2259.12
777.226	2292.06
777.412	2356.19
777.598	2258.54
777.784	2277.34
777.97	2264.55
778.156	2262.22
778.342	2303.49
778.528	2220.76
778.715	2193.64
778.901	2227.54
779.087	2265.52
779.272	2217.28
779.458	2224.64
779.644	2233.74
779.83	2185.69
780.016	2330.04
780.202	2215.92
780.388	2207.39
780.574	2152.95
780.76	2188.21
780.946	2214.37
781.131	2214.95
781.317	2201.58
781.503	2161.86
781.689	2188.6
781.874	2302.33
782.06	2177.36
782.246	2148.69
782.432	2182.01
782.617	2205.07
782.803	2178.72
782.989	2077.2
783.174	2150.63
783.36	2059.37
783.545	2127.76
783.731	2118.27
783.916	2019.65
784.102	2134.93
784.288	2082.23
784.473	2107.03
784.659	2062.86
784.844	2124.28
785.029	2069.83
785.215	2062.08
785.4	2022.75
785.586	2123.5
785.771	2030.7
785.956	2085.33
786.142	2058.98
786.327	2049.3
786.512	2019.27
786.698	1982.07
786.883	1956.88
787.068	1985.17
787.254	2042.52
787.439	2015.97
787.624	2003.77
787.809	1992.53
787.994	1974.32
788.18	2050.65
788.365	1934.99
788.55	1940.99
788.735	1956.69
788.92	1958.82
789.105	1931.89
789.29	1972.19
789.475	1879.57
789.66	1917.74
789.845	1876.47
790.03	1867.76
790.215	1925.49
790.4	1968.31
790.585	1961.92
790.77	1926.65
790.955	1835.21
791.14	1853.61
791.325	1949.71
791.51	1779.79
791.695	1881.12
791.879	1838.5
792.064	1852.26
792.249	1937.7
792.434	1865.04
792.618	1880.35
792.803	1883.26
792.988	1847.22
793.173	1857.68
793.357	1929.17
793.542	1826.29
793.727	1892.17
793.911	1922.97
794.096	1866.21
794.281	1937.7
794.465	1973.35
794.65	1885.77
794.834	1889.65
795.019	1951.84
795.203	1934.79
795.388	1955.72
795.572	1969.09
795.757	1938.47
795.941	1903.6
796.126	1949.71
796.31	1820.67
796.494	1932.47
796.679	1902.63
796.863	1905.34
797.048	1958.62
797.232	1935.18
797.416	1908.05
797.601	1887.71
797.785	1977.22
797.969	1982.26
798.153	1866.79
798.338	1950.68
798.522	1973.74
798.706	1954.17
798.89	1921.81
799.074	2064.22
799.258	1988.27
799.443	1976.64
799.627	1953.39
799.811	1984.78
799.995	1953.78
800.179	1921.04
800.363	1948.16
800.547	1954.55
800.731	2003.38
800.915	1872.02
801.099	1895.66
801.283	1945.06
801.467	1969.86
801.651	1886.55
801.835	1982.84
802.019	1927.82
802.202	1942.74
802.386	1873.96
802.57	1905.54
802.754	1926.65
802.938	1882.48
803.121	1882.48
803.305	1984.97
803.489	1904.96
803.673	1926.07
803.856	1919.49
804.04	1940.41
804.224	1938.67
804.407	1923.17
804.591	1902.44
804.775	1915.8
804.958	1908.05
805.142	2013.65
805.326	1887.13
805.509	1983.23
805.693	1949.13
805.876	1970.05
806.06	1932.47
806.243	1960.17
806.427	1973.35
806.61	1985.55
806.794	1937.5
806.977	1989.24
807.16	1942.54
807.344	1952.23
807.527	1962.5
807.71	1918.13
807.894	1933.82
808.077	1971.99
808.26	1897.59
808.444	1888.29
808.627	1966.76
808.81	1893.91
808.993	1855.16
809.177	1853.22
809.36	1885
809.543	1919.87
809.726	1789.87
809.909	1835.79
810.092	1788.9
810.276	1827.07
810.459	1828.62
810.642	1829.2
810.825	1792.97
811.008	1781.93
811.191	1676.53
811.374	1722.25
811.557	1716.05
811.74	1804.4
811.923	1689.51
812.106	1675.56
812.289	1643.59
812.472	1705.78
812.654	1693.77
812.837	1629.83
813.02	1604.26
813.203	1592.44
813.386	1480.07
813.569	1507.19
813.751	1456.24
813.934	1521.14
814.117	1448.68
814.3	1466.89
814.482	1435.31
814.665	1386.29
814.848	1365.76
815.03	1331.85
815.213	1339.79
815.396	1344.25
815.578	1304.53
815.761	1252.61
815.943	1306.28
816.126	1244.66
816.309	1237.11
816.491	1179.37
816.674	1139.46
816.856	1179.57
817.039	1202.62
817.221	1250.09
817.403	1187.7
817.586	1220.64
817.768	1244.66
817.951	1154.57
818.133	1133.26
818.315	1188.87
818.498	1205.92
818.68	1262.3
818.862	1264.23
819.045	1291.75
819.227	1262.3
819.409	1228
819.591	1272.56
819.774	1239.82
819.956	1192.16
820.138	1254.74
820.32	1226.26
820.502	1252.41
820.684	1358.59
820.866	1357.43
821.048	1417.68
821.231	1404.31
821.413	1355.29
821.595	1364.79
821.777	1387.84
821.959	1374.48
822.141	1450.04
822.323	1317.32
822.505	1240.01
822.686	1203.78
822.868	1160.97
823.05	1047.04
823.232	1096.45
823.414	1002.48
823.596	1074.55
823.778	1078.62
823.96	1112.14
824.141	1096.84
824.323	1104.97
824.505	1184.22
824.687	1249.51
824.868	1283.8
825.05	1353.94
825.232	1349.09
825.413	1382.23
825.595	1322.55
825.777	1298.53
825.958	1334.18
826.14	1308.02
826.321	1343.67
826.503	1300.66
826.685	1358.59
826.866	1393.46
827.048	1373.51
827.229	1295.23
827.411	1293.68
827.592	1256.87
827.773	1259.58
827.955	1231.3
828.136	1224.13
828.318	1170.46
828.499	1243.31
828.68	1159.22
828.862	1229.94
829.043	1223.16
829.224	1233.23
829.406	1195.65
829.587	1175.88
829.768	1207.47
829.949	1228.2
830.131	1204.37
830.312	1257.45
830.493	1201.65
830.674	1231.1
830.855	1209.01
831.036	1202.23
831.218	1274.11
831.399	1259
831.58	1226.26
831.761	1203.01
831.942	1232.07
832.123	1183.05
832.304	1154.96
832.485	1200.3
832.666	1205.14
832.847	1209.79
833.028	1213.08
833.209	1211.15
833.389	1176.85
833.57	1160.38
833.751	1201.65
833.932	1232.46
834.113	1209.79
834.294	1165.81
834.475	1219.09
834.655	1246.8
834.836	1259.97
835.017	1230.33
835.198	1192.93
835.378	1226.65
835.559	1266.17
835.74	1228
835.92	1209.01
836.101	1210.95
836.281	1247.18
836.462	1260.36
836.643	1258.03
836.823	1241.56
837.004	1264.62
837.184	1300.46
837.365	1277.02
837.545	1274.31
837.726	1231.49
837.906	1290.78
838.087	1242.73
838.267	1268.69
838.448	1226.45
838.628	1226.84
838.808	1225.48
838.989	1293.68
839.169	1223.55
839.349	1245.63
839.53	1299.3
839.71	1292.33
839.89	1229.94
840.07	1317.9
840.251	1230.33
840.431	1310.15
840.611	1255.13
840.791	1233.04
840.971	1228.97
841.151	1252.03
841.332	1220.25
841.512	1296.39
841.692	1186.35
841.872	1282.25
842.052	1244.28
842.232	1296.39
842.412	1201.07
842.592	1238.66
842.772	1252.8
842.952	1228.39
843.132	1212.89
843.312	1233.62
843.492	1197.78
843.672	1241.56
843.851	1167.94
844.031	1207.27
844.211	1205.33
844.391	1184.02
844.571	1196.81
844.751	1242.53
844.93	1223.35
845.11	1182.86
845.29	1208.05
845.47	1228.58
845.649	1200.49
845.829	1198.75
846.009	1188.09
846.188	1248.73
846.368	1229.55
846.547	1205.53
846.727	1233.43
846.907	1152.05
847.086	1235.75
847.266	1262.1
847.445	1203.4
847.625	1204.56
847.804	1156.7
847.984	1187.32
848.163	1161.35
848.343	1166
848.522	1199.91
848.701	1203.4
848.881	1158.64
849.06	1184.02
849.239	1203.78
849.419	1183.83
849.598	1131.52
849.777	1140.62
849.957	1119.89
850.136	1038.13
850.315	1049.75
850.494	1048.79
850.674	1053.24
850.853	1122.02
851.032	1075.91
851.211	1125.9
851.39	1100.9
851.569	1056.73
851.748	1074.75
851.927	1141.2
852.107	1078.43
852.286	1068.94
852.465	1021.47
852.644	1125.32
852.823	1077.85
853.002	1127.45
853.181	1118.15
853.359	1070.1
853.538	1042
853.717	1102.65
853.896	981.75
854.075	996.86
854.254	944.74
854.433	921.49
854.611	974.39
854.79	885.07
854.969	967.41
855.148	945.91
855.327	930.41
855.505	972.26
855.684	943
855.863	958.89
856.041	949.2
856.22	1010.04
856.399	959.27
856.577	1077.85
856.756	1061.96
856.934	1140.82
857.113	1157.87
857.291	1025.54
857.47	1014.88
857.648	1047.24
857.827	1044.14
858.005	1079.59
858.184	1026.89
858.362	1092.38
858.541	1051.11
858.719	1068.55
858.898	1045.1
859.076	1033.48
859.254	1091.41
859.433	1066.42
859.611	1009.84
859.789	988.14
859.967	1050.14
860.146	1108.46
860.324	1012.75
860.502	995.31
860.68	966.25
860.859	985.04
861.037	992.41
861.215	1050.72
861.393	984.46
861.571	1026.51
861.749	961.21
861.927	1026.31
862.105	999.77
862.283	989.31
862.461	946.68
862.639	963.34
862.817	967.8
862.995	986.59
863.173	943.39
863.351	999.57
863.529	987.95
863.707	1038.9
863.885	1005
864.063	897.08
864.241	932.73
864.418	1019.92
864.596	967.8
864.774	895.14
864.952	931.18
865.129	992.21
865.307	918.39
865.485	886.81
865.663	971.29
865.84	911.23
866.018	940.68
866.196	815.71
866.373	847.48
866.551	816.29
866.728	748.67
866.906	832.56
867.084	833.53
867.261	883.33
867.439	907.54
867.616	875.38
867.794	901.93
867.971	905.61
868.149	896.11
868.326	962.18
868.503	918.39
868.681	879.84
868.858	879.84
869.035	829.08
869.213	931.38
869.39	854.46
869.567	967.02
869.745	878.48
869.922	889.14
870.099	916.84
870.276	914.52
870.454	922.85
870.631	906.96
870.808	867.24
870.985	939.32
871.162	978.84
871.339	917.62
871.517	824.04
871.694	854.26
871.871	880.61
872.048	887.01
872.225	846.71
872.402	886.43
872.579	824.81
872.756	893.98
872.933	850.97
873.11	853.1
873.287	876.16
873.463	851.94
873.64	840.12
873.817	879.26
873.994	847.1
874.171	838.76
874.348	886.81
874.524	823.07
874.701	841.86
874.878	821.91
875.055	882.36
875.231	822.88
875.408	874.22
875.585	785.87
875.762	843.22
875.938	814.16
876.115	812.22
876.291	817.45
876.468	823.46
876.645	786.45
876.821	837.8
876.998	811.25
877.174	830.63
877.351	813.38
877.527	778.9
877.704	803.11
877.88	815.32
878.057	780.45
878.233	803.7
878.409	795.36
878.586	810.09
878.762	778.9
878.938	832.18
879.115	732.98
879.291	766.3
879.467	753.13
879.644	738.6
879.82	806.21
879.996	775.6
880.172	717.28
880.349	749.25
880.525	765.72
880.701	731.23
880.877	763.4
881.053	744.22
881.229	756.23
881.405	820.75
881.581	733.75
881.757	756.62
881.933	754.68
882.109	769.98
882.285	773.47
882.461	718.06
882.637	736.85
882.813	708.57
882.989	731.04
883.165	803.7
883.341	741.5
883.517	791.3
883.693	761.65
883.869	800.4
884.044	752.74
884.22	770.57
884.396	785.87
884.572	777.54
884.747	838.18
884.923	802.53
885.099	758.75
885.275	790.33
885.45	734.92
885.626	725.62
885.801	711.86
885.977	756.42
886.153	685.12
886.328	771.53
886.504	721.55
886.679	774.63
886.855	731.62
887.03	760.3
887.206	768.63
887.381	762.23
887.557	766.11
887.732	763.98
887.908	790.91
888.083	782.19
888.258	754.48
888.434	750.03
888.609	744.8
888.784	796.14
888.96	757.2
889.135	693.65
889.31	714.57
889.485	741.31
889.661	732.4
889.836	782.77
890.011	747.12
890.186	741.5
890.361	715.54
890.537	779.09
890.712	761.65
890.887	748.87
891.062	727.75
891.237	752.35
891.412	704.3
891.587	773.28
891.762	797.3
891.937	787.42
892.112	676.99
892.287	741.7
892.462	703.72
892.637	639.4
892.812	652.19
892.987	648.5
893.161	664.2
893.336	665.17
893.511	688.03
893.686	718.25
893.861	665.94
894.035	680.47
894.21	662.26
894.385	631.65
894.56	706.24
894.734	595.03
894.909	604.52
895.084	640.75
895.258	611.69
895.433	627.77
895.608	639.98
895.782	570.42
895.957	555.31
896.131	595.22
896.306	500.87
896.48	542.33
896.655	559.38
896.829	496.03
897.004	495.83
897.178	511.91
897.353	478.01
897.527	550.66
897.701	538.46
897.876	463.86
898.05	566.16
898.224	531.29
898.399	537.1
898.573	508.43
898.747	401.28
898.921	459.02
899.096	378.42
899.27	410.58
899.444	418.33
899.618	449.91
899.792	429.96
899.967	432.86
900.141	497.96
900.315	432.09
900.489	452.63
900.663	426.28
900.837	436.93
901.011	380.16
901.185	467.74
901.359	452.63
901.533	429.76
901.707	465.41
901.881	445.46
902.055	365.44
902.229	439.26
902.403	477.62
902.576	459.6
902.75	444.49
902.924	533.61
903.098	496.61
903.272	520.63
903.446	552.6
903.619	517.92
903.793	542.91
903.967	509.39
904.14	579.72
904.314	576.82
904.488	520.24
904.661	563.84
904.835	557.06
905.009	605.88
905.182	634.75
905.356	587.67
905.529	557.44
905.703	510.36
905.876	513.66
906.05	546.01
906.223	521.02
906.397	453.21
906.57	423.95
906.744	425.11
906.917	422.01
907.09	413.49
907.264	419.88
907.437	389.66
907.61	385.98
907.784	411.94
907.957	402.64
908.13	376.68
908.304	431.12
908.477	396.63
908.65	387.33
908.823	340.06
908.996	448.17
909.17	400.12
909.343	383.46
909.516	400.12
909.689	388.88
909.862	360.79
910.035	382.49
910.208	333.08
910.381	353.23
910.554	455.34
910.727	381.71
910.9	388.11
911.073	368.15
911.246	422.4
911.419	411.75
911.592	389.08
911.765	386.36
911.938	353.23
912.11	368.15
912.283	376.68
912.456	411.16
912.629	383.07
912.802	361.37
912.974	343.55
913.147	302.47
913.32	291.23
913.493	292.4
913.665	338.31
913.838	377.06
914.01	324.56
914.183	315.45
914.356	335.41
914.528	352.26
914.701	443.13
914.873	375.71
915.046	330.76
915.218	302.86
915.391	261.78
915.563	267.6
915.736	330.76
915.908	339.67
916.081	326.11
916.253	303.83
916.425	311.19
916.598	358.08
916.77	336.38
916.942	303.63
917.115	258.3
917.287	335.02
917.459	316.62
917.632	270.89
917.804	228.07
917.976	298.6
918.148	313.52
918.32	314.68
918.493	348.78
918.665	380.75
918.837	311.58
919.009	374.55
919.181	368.35
919.353	348.58
919.525	343.55
919.697	333.47
919.869	333.86
920.041	393.73
920.213	439.84
920.385	358.08
920.557	353.23
920.729	378.61
920.901	382.1
921.073	351.1
921.244	327.08
921.416	391.4
921.588	359.43
921.76	350.33
921.932	389.27
922.103	353.04
922.275	336.76
922.447	345.68
922.619	266.05
922.79	339.86
922.962	314.87
923.134	337.93
923.305	285.42
923.477	281.55
923.648	285.42
923.82	295.3
923.991	274.38
924.163	243.77
924.335	272.83
924.506	289.68
924.677	326.5
924.849	282.52
925.02	308.67
925.192	329.21
925.363	329.4
925.535	304.8
925.706	309.25
925.877	342.58
926.049	268.76
926.22	291.04
926.391	297.24
926.562	341.22
926.734	271.28
926.905	318.55
927.076	244.54
927.247	262.95
927.419	223.23
927.59	256.55
927.761	242.99
927.932	263.53
928.103	259.85
928.274	208.12
928.445	186.42
928.616	216.06
928.787	186.22
928.958	222.65
929.129	221.87
929.3	213.35
929.471	168.98
929.642	167.62
929.813	112.6
929.984	201.34
930.155	93.22
930.326	138.17
930.496	149.8
930.667	92.45
930.838	134.88
931.009	108.53
931.18	108.72
931.35	97.87
931.521	137.21
931.692	80.05
931.863	39.17
932.033	98.26
932.204	102.91
932.374	100.59
932.545	63.58
932.716	132.17
932.886	110.27
933.057	32
933.227	59.71
933.398	147.09
933.568	60.68
933.739	7.78
933.909	22.31
934.08	73.85
934.25	15.34
934.421	6.81
934.591	58.93
934.761	27.16
934.932	-15.66
935.102	38.01
935.272	8.75
935.443	18.44
935.613	41.88
935.783	10.88
935.953	-18.76
936.123	189.13
936.294	4.29
936.464	-9.27
936.634	42.46
936.804	-22.05
936.974	-0.94
937.144	33.16
937.314	54.48
937.484	28.51
937.655	8.75
937.825	56.41
937.995	10.11
938.165	60.68
938.334	29.48
938.504	36.84
938.674	34.71
938.844	52.15
939.014	61.64
939.184	42.08
939.354	99.04
939.524	108.14
939.694	73.07
939.863	67.65
940.033	122.29
940.203	105.04
940.373	72.11
940.542	88.19
940.712	58.54
940.882	100.97
941.051	97.29
941.221	74.24
941.391	99.42
941.56	40.91
941.73	26.77
941.899	154.84
942.069	56.22
942.238	66.88
942.408	58.35
942.577	127.91
942.747	85.47
942.916	-20.31
943.086	34.33
943.255	101.75
943.425	46.73
943.594	35.1
943.763	0.03
943.933	16.69
944.102	0.03
944.271	58.74
944.441	59.9
944.61	22.89
944.779	39.94
944.948	140.31
945.117	11.08
945.287	36.84
945.456	7.78
945.625	28.9
945.794	52.73
945.963	22.12
946.132	59.9
946.301	12.63
946.47	59.9
946.639	-2.49
946.808	7.01
946.977	76.95
947.146	89.74
947.315	47.5
947.484	80.63
947.653	34.13
947.822	17.08
947.991	21.73
948.16	82.57
948.329	102.14
948.498	49.24
948.666	29.87
948.835	82.57
949.004	16.11
949.173	11.46
949.341	69.98
949.51	75.4
949.679	80.05
949.847	65.33
950.016	78.69
950.185	86.06
950.353	-0.16
950.522	31.03
950.69	84.7
950.859	41.3
951.028	77.53
951.196	53.51
951.365	23.67
951.533	49.63
951.701	84.7
951.87	81.6
952.038	20.96
952.207	65.33
952.375	111.44
952.543	26.77
952.712	24.44
952.88	39.17
953.048	127.91
953.217	45.18
953.385	56.8
953.553	87.41
953.721	41.11
953.89	62.42
954.058	2.16
954.226	18.05
954.394	67.46
954.562	-17.99
954.73	45.18
954.898	43.43
955.067	63.19
955.235	7.98
955.403	82.57
955.571	84.12
955.739	70.36
955.907	21.93
956.075	34.33
956.243	6.43
956.41	64.36
956.578	10.49
956.746	-4.42
956.914	57.38
957.082	70.17
957.25	60.87
957.418	16.69
957.585	40.72
957.753	95.94
957.921	22.51
958.089	63
958.256	57.19
958.424	53.7
958.592	71.53
958.759	39.17
958.927	76.56
959.095	26.96
959.262	25.03
959.43	60.68
959.597	1.58
959.765	39.94
959.932	14.95
960.1	103.49
960.267	65.91
960.435	19.99
960.602	73.46
960.77	27.35
960.937	8.56
961.104	50.21
961.272	-7.14
961.439	27.93
961.606	66.88
961.774	84.89
961.941	51.76
962.108	62.03
962.275	24.25
962.443	100.39
962.61	81.6
962.777	126.55
962.944	93.42
963.111	62.61
963.278	80.24
963.446	69.01
963.613	36.65
963.78	74.24
963.947	64.94
964.114	49.05
964.281	130.23
964.448	72.88
964.615	38.78
964.782	69.59
964.949	87.8
965.116	80.05
965.282	82.76
965.449	61.64
965.616	15.92
965.783	88.77
965.95	46.14
966.117	14.76
966.283	57.77
966.45	64.16
966.617	62.61
966.784	102.91
966.95	68.62
967.117	100.97
967.284	23.09
967.45	40.33
967.617	111.24
967.784	91.29
967.95	117.06
968.117	66.29
968.283	99.62
968.45	170.14
968.616	91.87
968.783	96.52
968.949	74.62
969.116	118.99
969.282	58.54
969.449	88.77
969.615	71.91
969.781	32.78
969.948	48.66
970.114	27.93
970.28	127.13
970.447	73.66
970.613	106.98
970.779	93.61
970.945	85.86
971.112	55.25
971.278	65.91
971.444	63.39
971.61	98.65
971.776	73.07
971.942	72.11
972.108	104.85
972.275	55.25
972.441	66.49
972.607	149.22
972.773	81.6
972.939	88.57
973.105	53.89
973.271	35.68
973.437	69.01
973.602	41.11
973.768	89.16
973.934	65.91
974.1	67.07
974.266	4.49
974.432	74.43
974.598	63.19
974.763	77.53
974.929	54.67
975.095	91.29
975.261	52.93
975.426	39.94
975.592	66.29
975.758	116.47
975.923	18.44
976.089	40.72
976.255	105.04
976.42	95.16
976.586	75.4
976.751	68.04
976.917	156.58
977.082	81.02
977.248	16.5
977.413	4.49
977.579	26.96
977.744	63
977.91	45.37
978.075	43.24
978.24	83.15
978.406	67.46
978.571	49.05
978.736	49.63
978.902	58.54
979.067	32.39
979.232	12.43
979.397	65.71
979.563	103.88
979.728	27.35
979.893	51.96
980.058	25.8
980.223	107.76
980.388	77.14
980.554	47.31
980.719	24.44
980.884	81.21
981.049	97.68
981.214	21.73
981.379	64.55
981.544	34.13
981.709	40.91
981.874	28.13
982.039	59.51
982.204	82.76
982.368	50.79
982.533	35.1
982.698	134.69
982.863	101.75
983.028	28.71
983.193	74.82
983.357	68.23
983.522	65.13
983.687	41.88
983.852	45.37
984.016	51.38
984.181	47.69
984.346	79.66
984.51	65.52
984.675	40.14
984.839	91.29
985.004	66.88
985.168	84.7
985.333	52.73
985.498	46.34
985.662	77.53
985.827	85.09
985.991	75.98
986.155	31.61
986.32	87.02
986.484	123.26
986.649	84.89
986.813	10.11
986.977	57.38
987.142	77.34
987.306	7.2
987.47	19.99
987.634	51.96
987.799	54.48
987.963	40.72
988.127	85.67
988.291	118.22
988.455	56.03
988.62	37.62
988.784	76.17
988.948	69.39
989.112	28.9
989.276	63.97
989.44	42.27
989.604	37.23
989.768	39.17
989.932	130.04
990.096	43.63
990.26	42.66
990.424	3.13
990.588	29.68
990.752	113.57
990.915	78.69
991.079	33.36
991.243	38.01
991.407	80.44
991.571	44.59
991.734	75.79
991.898	75.21
992.062	140.69
992.226	49.05
992.389	15.53
992.553	5.46
992.717	19.79
992.88	18.63
993.044	71.14
993.207	41.49
993.371	78.11
993.535	73.66
993.698	21.73
993.862	73.46
994.025	75.21
994.189	53.31
994.352	80.05
994.515	78.89
994.679	105.04
994.842	33.16
995.006	103.88
995.169	17.66
995.332	11.27
995.496	73.66
995.659	1
995.822	37.04
995.985	54.09
996.149	109.5
996.312	43.82
996.475	92.84
996.638	16.31
996.801	98.26
996.964	90.32
997.128	42.66
997.291	30.06
997.454	64.55
997.617	-11.4
997.78	79.08
997.943	18.44
998.106	70.56
998.269	17.86
998.432	54.48
998.595	70.17
998.758	-11.59
998.92	10.11
999.083	-4.81
999.246	38.2
999.409	-6.94
999.572	-15.47
999.735	9.91
999.897	54.28
1000.06	19.6
1000.223	27.54
1000.386	65.13
1000.548	79.86
1000.711	52.54
1000.874	59.9
1001.036	-8.11
1001.199	77.53
1001.361	38.39
1001.524	38.59
1001.687	55.44
1001.849	11.08
1002.012	39.36
1002.174	31.61
1002.337	82.37
1002.499	25.22
1002.661	72.88
1002.824	15.14
1002.986	-5.2
1003.149	57.77
1003.311	20.38
1003.473	117.64
1003.636	20.96
1003.798	27.16
1003.96	58.74
1004.123	31.42
1004.285	25.22
1004.447	26.38
1004.609	35.88
1004.771	101.17
1004.933	-19.73
1005.096	1.58
1005.258	-4.04
1005.42	25.99
1005.582	68.43
1005.744	74.04
1005.906	-2.87
1006.068	51.18
1006.23	-22.05
1006.392	-37.94
1006.554	4.29
1006.716	47.89
1006.878	46.53
1007.04	-11.79
1007.202	30.06
1007.363	17.08
1007.525	22.7
1007.687	33.16
1007.849	61.45
1008.011	2.36
1008.172	0.42
1008.334	6.81
1008.496	54.09
1008.658	-18.57
1008.819	-0.74
1008.981	-14.89
1009.143	-5.39
1009.304	11.27
1009.466	53.51
1009.627	78.31
1009.789	131.97
1009.95	50.41
1010.112	21.54
1010.273	34.13
1010.435	-7.52
1010.596	12.43
1010.758	11.08
1010.919	9.53
1011.081	-34.65
1011.242	32.78
1011.403	48.08
1011.565	34.52
1011.726	61.64
1011.887	-2.49
1012.049	34.52
1012.21	62.23
1012.371	85.67
1012.532	-43.17
1012.693	55.25
1012.855	6.81
1013.016	8.94
1013.177	71.53
1013.338	25.61
1013.499	88.19
1013.66	23.67
1013.821	53.89
1013.982	45.37
1014.143	30.26
1014.304	34.13
1014.465	37.04
1014.626	24.06
1014.787	-16.05
1014.948	100.01
1015.109	-44.92
1015.27	55.06
1015.431	17.86
1015.592	-7.14
1015.752	77.92
1015.913	22.12
1016.074	15.14
1016.235	14.95
1016.395	37.62
1016.556	-4.62
1016.717	5.26
1016.877	72.88
1017.038	-4.62
1017.199	30.26
1017.359	6.81
1017.52	16.69
1017.681	-2.87
1017.841	14.56
1018.002	4.68
1018.162	-2.49
1018.323	54.67
1018.483	-0.74
1018.644	-4.04
1018.804	-9.27
1018.964	-5.59
1019.125	-11.59
1019.285	1.78
1019.446	-21.47
1019.606	-4.62
1019.766	-31.35
1019.926	25.8
1020.087	38.98
1020.247	-24.96
1020.407	41.69
1020.567	43.63
1020.728	12.43
1020.888	0.81
1021.048	6.04
1021.208	-12.76
1021.368	-23.8
1021.528	57.19
1021.688	47.89
1021.848	42.27
1022.008	24.64
1022.168	12.24
1022.328	-9.85
1022.488	32.97
1022.648	5.46
1022.808	0.42
1022.968	19.99
1023.128	-37.75
1023.288	-4.62
1023.448	13.01
1023.608	29.87
1023.767	31.03
1023.927	-8.3
1024.087	-21.09
1024.247	-29.03
1024.406	-7.72
1024.566	-36.59
1024.726	-29.61
1024.885	4.68
1025.045	40.14
1025.205	24.44
1025.364	-10.43
1025.524	32
1025.683	-9.85
1025.843	32.19
1026.003	0.03
1026.162	77.53
1026.321	56.99
1026.481	28.32
1026.64	3.91
1026.8	25.41
1026.959	32.39
1027.119	8.17
1027.278	-3.65
1027.437	-22.64
1027.597	45.37
1027.756	8.36
1027.915	10.11
1028.074	49.05
1028.234	-18.18
1028.393	9.53
1028.552	0.61
1028.711	-54.22
1028.87	43.24
1029.03	-29.61
1029.189	27.16
1029.348	-63.71
1029.507	0.03
1029.666	-1.13
1029.825	6.43
1029.984	-1.32
1030.143	18.44
1030.302	16.31
1030.461	-60.42
1030.62	8.36
1030.779	15.73
1030.938	-17.99
1031.097	-34.26
1031.255	39.36
1031.414	75.59
1031.573	50.79
1031.732	-38.33
1031.891	9.72
1032.049	60.29
1032.208	47.89
1032.367	-15.27
1032.525	7.59
1032.684	-10.62
1032.843	6.43
1033.001	-64.29
1033.16	151.74
1033.319	43.24
1033.477	43.82
1033.636	-22.44
1033.794	-53.83
1033.953	44.59
1034.111	16.5
1034.27	-16.63
1034.428	26.77
1034.587	-23.8
1034.745	2.55
1034.903	3.91
1035.062	19.79
1035.22	-22.44
1035.378	38.98
1035.537	-20.5
1035.695	29.09
1035.853	13.59
1036.011	27.74
1036.17	20.76
1036.328	-73.01
1036.486	40.72
1036.644	15.73
1036.802	-83.47
1036.96	-6.36
1037.119	17.47
1037.277	-27.09
1037.435	-25.74
1037.593	-47.63
1037.751	12.24
1037.909	28.13
1038.067	28.13
