Data from pine_FLMT105791__149__17-22-48-074.txt Node

Date: Mon Mar 20 17:22:48 GMT 2023
User: antho
Spectrometer: FLMT10579
Trigger mode: 0
Integration Time (sec): 1.000000E-1
Scans to average: 10
Electric dark correction enabled: true
Nonlinearity correction enabled: false
Boxcar width: 0
XAxis mode: Wavelengths
Number of Pixels in Spectrum: 3648
>>>>>Begin Spectral Data<<<<<
345.248	-170.3
345.464	-170.3
345.681	-170.3
345.898	-183.48
346.114	-174.95
346.331	-42.24
346.548	31.19
346.764	-5.62
346.981	8.52
347.197	-14.92
347.414	-1.16
347.631	-36.42
347.847	41.46
348.064	27.12
348.28	21.31
348.497	-40.69
348.713	11.43
348.93	29.26
349.146	12.59
349.363	2.52
349.579	25.38
349.796	-5.42
350.012	-10.66
350.229	19.18
350.445	9.69
350.661	8.33
350.878	-15.69
351.094	27.9
351.311	20.34
351.527	28.09
351.743	-9.49
351.96	41.27
352.176	34.87
352.392	21.12
352.609	39.91
352.825	-18.79
353.041	-3.29
353.257	14.14
353.474	18.6
353.69	-5.04
353.906	25.57
354.122	-21.12
354.339	66.07
354.555	22.09
354.771	5.62
354.987	59.48
355.203	59.09
355.42	-7.94
355.636	-2.52
355.852	-20.34
356.068	11.04
356.284	-49.41
356.5	83.31
356.716	2.52
356.932	5.04
357.148	29.64
357.364	16.66
357.58	42.24
357.796	67.62
358.012	46.89
358.228	30.61
358.444	-41.07
358.66	54.25
358.876	32.94
359.092	-15.11
359.308	34.29
359.524	13.76
359.74	11.43
359.956	-5.81
360.172	11.04
360.388	50.96
360.604	-3.29
360.819	91.25
361.035	17.24
361.251	41.07
361.467	-3.68
361.683	46.89
361.898	17.82
362.114	43.4
362.33	17.63
362.546	39.33
362.762	23.06
362.977	24.22
363.193	-22.47
363.409	39.33
363.624	-26.93
363.84	-11.43
364.056	1.55
364.271	46.5
364.487	4.26
364.703	-1.16
364.918	-26.93
365.134	-5.62
365.35	-13.95
365.565	96.29
365.781	2.91
365.996	23.25
366.212	55.22
366.427	23.25
366.643	-14.14
366.858	14.72
367.074	-46.5
367.289	45.72
367.505	83.7
367.72	-46.31
367.936	4.65
368.151	43.98
368.367	28.48
368.582	32.16
368.798	-24.02
369.013	40.69
369.228	41.46
369.444	30.81
369.659	49.99
369.874	14.72
370.09	61.81
370.305	-54.44
370.52	-7.94
370.736	50.57
370.951	7.56
371.166	65.1
371.381	47.27
371.597	37.59
371.812	-10.66
372.027	-24.8
372.242	29.64
372.458	93
372.673	25.38
372.888	8.91
373.103	30.03
373.318	105.98
373.533	39.52
373.749	12.79
373.964	-34.68
374.179	72.85
374.394	-15.31
374.609	65.29
374.824	-1.36
375.039	69.75
375.254	-9.3
375.469	64.91
375.684	5.23
375.899	41.46
376.114	35.26
376.329	33.71
376.544	58.51
376.759	37.39
376.974	-6.2
377.189	15.89
377.404	-17.05
377.619	43.4
377.834	-41.46
378.049	-25.77
378.264	-18.02
378.478	29.84
378.693	-4.84
378.908	45.92
379.123	6.59
379.338	46.69
379.553	32.94
379.767	10.46
379.982	17.82
380.197	52.12
380.412	16.27
380.626	28.09
380.841	87.19
381.056	24.41
381.271	90.48
381.485	-21.7
381.7	-19.96
381.915	13.76
382.129	-3.87
382.344	27.71
382.559	10.66
382.773	61.22
382.988	-35.26
383.202	28.87
383.417	-10.66
383.632	99
383.846	33.91
384.061	43.59
384.275	14.72
384.49	39.33
384.704	36.42
384.919	37.2
385.133	23.83
385.348	37.97
385.562	-5.42
385.777	73.43
385.991	24.99
386.206	4.84
386.42	2.71
386.634	59.09
386.849	34.29
387.063	24.99
387.277	-30.03
387.492	9.88
387.706	-18.21
387.92	-3.68
388.135	48.82
388.349	25.57
388.563	17.24
388.778	29.26
388.992	39.52
389.206	44.76
389.42	108.89
389.635	23.44
389.849	59.48
390.063	49.79
390.277	18.41
390.491	54.83
390.706	46.5
390.92	55.8
391.134	44.56
391.348	52.89
391.562	-28.87
391.776	17.44
391.99	-29.26
392.205	39.33
392.419	1.16
392.633	12.21
392.847	70.52
393.061	-5.23
393.275	74.21
393.489	41.07
393.703	37.01
393.917	66.84
394.131	-8.52
394.345	55.41
394.559	60.26
394.773	15.89
394.986	40.11
395.2	6.01
395.414	37.97
395.628	-1.16
395.842	10.07
396.056	8.91
396.27	-17.44
396.484	44.76
396.697	25.77
396.911	50.57
397.125	27.71
397.339	74.21
397.553	51.15
397.766	85.25
397.98	79.63
398.194	52.51
398.408	17.63
398.621	53.67
398.835	63.74
399.049	33.71
399.262	68.39
399.476	55.22
399.69	43.79
399.903	84.67
400.117	19.18
400.331	66.26
400.544	15.89
400.758	148.6
400.971	45.92
401.185	53.86
401.398	20.54
401.612	94.55
401.826	52.89
402.039	61.42
402.253	14.72
402.466	38.75
402.68	4.07
402.893	28.67
403.106	47.66
403.32	-1.74
403.533	55.99
403.747	36.42
403.96	38.56
404.174	69.17
404.387	28.87
404.6	35.07
404.814	80.41
405.027	49.79
405.24	1.94
405.454	57.16
405.667	67.81
405.88	-6.39
406.094	39.52
406.307	87.19
406.52	32.55
406.733	3.87
406.947	-10.27
407.16	88.74
407.373	87.77
407.586	22.67
407.799	-5.23
408.012	83.51
408.226	32.94
408.439	68.39
408.652	-29.64
408.865	52.89
409.078	77.5
409.291	54.06
409.504	4.84
409.717	49.79
409.93	48.05
410.143	54.06
410.357	-17.82
410.57	-2.32
410.783	43.79
410.996	38.17
411.209	59.29
411.421	69.94
411.634	44.56
411.847	4.84
412.06	44.56
412.273	35.84
412.486	53.86
412.699	112.95
412.912	32.94
413.125	68.78
413.338	32.74
413.55	79.44
413.763	39.52
413.976	55.99
414.189	8.33
414.402	16.27
414.615	97.26
414.827	-3.68
415.04	71.3
415.253	65.68
415.466	79.82
415.678	104.62
415.891	43.98
416.104	51.15
416.316	14.34
416.529	30.61
416.742	69.75
416.954	77.5
417.167	49.21
417.38	35.26
417.592	56.96
417.805	22.09
418.017	8.72
418.23	74.98
418.442	37.59
418.655	52.12
418.868	59.29
419.08	93.97
419.293	98.42
419.505	85.83
419.718	68.01
419.93	81.37
420.142	46.5
420.355	83.51
420.567	114.5
420.78	59.09
420.992	57.16
421.205	112.37
421.417	2.91
421.629	38.94
421.842	11.43
422.054	-8.72
422.266	65.29
422.479	69.56
422.691	21.7
422.903	69.75
423.115	15.31
423.328	28.87
423.54	45.72
423.752	56.19
423.964	43.79
424.177	81.76
424.389	52.89
424.601	143.18
424.813	59.67
425.025	73.43
425.238	81.76
425.45	66.26
425.662	56.77
425.874	319.3
426.086	54.44
426.298	60.64
426.51	71.3
426.722	81.18
426.934	8.72
427.146	75.76
427.358	24.02
427.57	94.55
427.782	54.06
427.994	85.25
428.206	39.72
428.418	8.91
428.63	99.59
428.842	114.5
429.054	78.27
429.266	84.47
429.478	61.42
429.69	54.44
429.902	4.65
430.114	105.59
430.325	95.13
430.537	17.63
430.749	64.32
430.961	18.41
431.173	64.13
431.384	63.74
431.596	-9.88
431.808	36.42
432.02	77.5
432.231	85.25
432.443	112.18
432.655	92.8
432.867	30.61
433.078	74.79
433.29	134.65
433.502	116.44
433.713	100.94
433.925	75.76
434.136	115.28
434.348	63.55
434.56	2.13
434.771	188.13
434.983	47.08
435.194	38.36
435.406	49.21
435.617	92.42
435.829	142.79
436.04	83.31
436.252	106.37
436.463	159.26
436.675	135.62
436.886	91.06
437.098	86.02
437.309	136.01
437.521	71.88
437.732	104.24
437.943	113.73
438.155	103.07
438.366	70.52
438.578	147.44
438.789	111.4
439	121.29
439.211	93.97
439.423	106.37
439.634	124.39
439.845	94.94
440.057	110.44
440.268	108.3
440.479	68.97
440.69	100.55
440.902	95.52
441.113	94.55
441.324	74.21
441.535	134.85
441.746	164.1
441.957	70.72
442.168	87.19
442.38	99.39
442.591	149.19
442.802	72.85
443.013	84.67
443.224	112.57
443.435	85.64
443.646	92.03
443.857	87.77
444.068	70.33
444.279	75.76
444.49	177.86
444.701	118.57
444.912	192.2
445.123	123.8
445.334	127.87
445.545	121.87
445.756	103.65
445.967	94.74
446.178	146.47
446.388	144.92
446.599	138.92
446.81	164.88
447.021	126.52
447.232	142.99
447.443	161.78
447.653	83.51
447.864	152.67
448.075	124.19
448.286	164.49
448.496	129.23
448.707	154.22
448.918	127.68
449.129	208.47
449.339	114.7
449.55	143.37
449.761	128.65
449.971	176.5
450.182	122.84
450.393	164.49
450.603	138.34
450.814	184.83
451.024	155.77
451.235	193.55
451.446	194.91
451.656	211.57
451.867	111.99
452.077	159.07
452.288	209.44
452.498	199.75
452.709	155.58
452.919	173.02
453.13	135.62
453.34	221.65
453.55	120.7
453.761	180.57
453.971	171.47
454.182	186.38
454.392	183.09
454.602	220.1
454.813	174.95
455.023	162.75
455.233	104.62
455.444	130
455.654	116.25
455.864	175.15
456.075	142.4
456.285	117.22
456.495	159.26
456.705	148.41
456.916	187.16
457.126	204.21
457.336	173.79
457.546	118.38
457.756	134.46
457.967	206.53
458.177	143.18
458.387	180.77
458.597	119.74
458.807	153.84
459.017	176.7
459.227	161.2
459.437	155.39
459.647	198.78
459.857	181.54
460.068	142.02
460.278	212.54
460.488	197.04
460.698	207.89
460.908	178.25
461.117	136.59
461.327	148.8
461.537	173.99
461.747	148.99
461.957	189.1
462.167	268.15
462.377	224.55
462.587	191.81
462.797	199.37
463.007	186.77
463.216	207.5
463.426	219.71
463.636	243.35
463.846	123.42
464.056	154.8
464.265	230.37
464.475	154.61
464.685	184.83
464.895	201.11
465.104	196.65
465.314	232.69
465.524	162.75
465.733	149.77
465.943	235.21
466.153	255.55
466.362	223.78
466.572	193.55
466.782	166.04
466.991	163.33
467.201	251.68
467.41	146.86
467.62	214.67
467.829	187.93
468.039	200.33
468.249	186.19
468.458	215.25
468.668	233.27
468.877	210.41
469.086	257.68
469.296	200.33
469.505	192.58
469.715	267.37
469.924	210.41
470.134	257.88
470.343	251.29
470.552	191.81
470.762	214.28
470.971	197.82
471.18	230.56
471.39	215.64
471.599	158.68
471.808	253.23
472.018	188.32
472.227	251.87
472.436	248.38
472.645	220.68
472.855	186.38
473.064	270.86
473.273	237.34
473.482	234.82
473.691	256.52
473.901	286.16
474.11	245.87
474.319	305.15
474.528	238.89
474.737	307.67
474.946	239.08
475.155	260.59
475.364	286.75
475.573	262.14
475.783	259.04
475.992	282.87
476.201	281.9
476.41	270.86
476.619	225.91
476.828	270.86
477.037	244.12
477.245	232.11
477.454	286.16
477.663	243.54
477.872	250.13
478.081	316.78
478.29	229.59
478.499	343.9
478.708	295.27
478.917	323.95
479.125	249.74
479.334	280.16
479.543	254.97
479.752	288.1
479.961	302.44
480.169	309.61
480.378	248.58
480.587	379.94
480.796	303.21
481.004	304.57
481.213	288.1
481.422	322.01
481.63	289.26
481.839	321.04
482.048	346.03
482.256	313.87
482.465	300.7
482.674	329.18
482.882	341.19
483.091	382.65
483.299	337.51
483.508	372.77
483.716	298.56
483.925	305.15
484.134	298.56
484.342	313.29
484.551	362.31
484.759	353.59
484.967	353.98
485.176	349.71
485.384	354.94
485.593	357.27
485.801	362.89
486.01	339.83
486.218	333.25
486.426	268.73
486.635	321.43
486.843	337.51
487.051	304.57
487.26	306.51
487.468	370.83
487.676	339.83
487.885	297.21
488.093	325.11
488.301	339.64
488.509	361.92
488.717	362.31
488.926	340.41
489.134	335.18
489.342	363.28
489.55	314.84
489.758	355.33
489.967	327.05
490.175	445.23
490.383	345.06
490.591	373.35
490.799	348.55
491.007	404.35
491.215	366.18
491.423	348.55
491.631	379.74
491.839	389.82
492.047	403.58
492.255	353.59
492.463	325.69
492.671	347.39
492.879	415.01
493.087	373.74
493.295	381.88
493.503	393.11
493.711	386.91
493.919	432.44
494.127	423.73
494.334	433.03
494.542	365.41
494.75	404.16
494.958	404.93
495.166	438.26
495.374	397.96
495.581	407.06
495.789	416.17
495.997	479.91
496.205	395.63
496.412	405.51
496.62	412.1
496.828	444.84
497.035	403.38
497.243	464.02
497.451	404.16
497.658	430.7
497.866	394.66
498.074	486.31
498.281	431.48
498.489	511.88
498.696	452.4
498.904	428.38
499.112	424.11
499.319	497.16
499.527	422.37
499.734	467.12
499.942	403.96
500.149	430.51
500.357	447.75
500.564	409.19
500.771	437.48
500.979	432.44
501.186	406.68
501.394	463.25
501.601	451.43
501.808	451.62
502.016	448.52
502.223	422.37
502.43	455.89
502.638	417.91
502.845	398.54
503.052	479.33
503.26	410.36
503.467	535.71
503.674	443.68
503.881	476.62
504.089	541.72
504.296	502
504.503	437.48
504.71	464.41
504.917	402.8
505.125	475.46
505.332	488.82
505.539	503.74
505.746	513.43
505.953	503.36
506.16	509.36
506.367	512.07
506.574	541.52
506.781	533.39
506.988	453.95
507.195	499.67
507.402	453.37
507.609	528.15
507.816	460.34
508.023	471.39
508.23	450.85
508.437	438.45
508.644	512.66
508.851	572.72
509.058	526.02
509.265	497.93
509.472	504.32
509.679	595.77
509.885	500.06
510.092	506.46
510.299	502.39
510.506	516.14
510.713	535.52
510.92	513.04
511.126	541.33
511.333	579.5
511.54	526.8
511.746	587.64
511.953	585.5
512.16	556.44
512.367	537.84
512.573	529.7
512.78	532.42
512.987	531.64
513.193	563.8
513.4	475.07
513.606	545.79
513.813	576.01
514.02	530.09
514.226	633.75
514.433	586.28
514.639	500.26
514.846	563.61
515.052	543.65
515.259	551.6
515.465	547.14
515.672	572.52
515.878	661.45
516.085	560.32
516.291	605.65
516.497	550.63
516.704	540.17
516.91	552.95
517.117	498.9
517.323	503.55
517.529	557.8
517.736	544.62
517.942	550.44
518.148	539.39
518.354	540.17
518.561	561.29
518.767	560.51
518.973	587.44
519.179	590.35
519.386	562.84
519.592	541.52
519.798	537.84
520.004	621.54
520.21	561.09
520.417	625.8
520.623	634.91
520.829	627.35
521.035	626.38
521.241	638.78
521.447	640.72
521.653	736.63
521.859	635.88
522.065	640.92
522.271	741.47
522.477	670.56
522.683	731.98
522.889	676.18
523.095	689.55
523.301	650.22
523.507	661.65
523.713	689.55
523.919	643.05
524.125	695.17
524.331	665.72
524.537	732.75
524.742	719.96
524.948	691.87
525.154	715.7
525.36	829.82
525.566	721.13
525.772	766.27
525.977	682.38
526.183	711.05
526.389	759.49
526.595	705.24
526.8	699.81
527.006	680.83
527.212	680.63
527.417	646.34
527.623	623.67
527.829	699.62
528.034	738.95
528.24	717.83
528.446	669.59
528.651	773.05
528.857	749.03
529.062	780.41
529.268	727.52
529.473	724.23
529.679	735.66
529.884	829.24
530.09	792.04
530.295	804.44
530.501	800.95
530.706	774.41
530.912	737.4
531.117	786.81
531.323	766.66
531.528	768.21
531.733	811.03
531.939	761.62
532.144	792.43
532.35	780.61
532.555	853.84
532.76	818.19
532.966	805.21
533.171	808.12
533.376	750.19
533.581	739.15
533.787	766.08
533.992	805.41
534.197	831.18
534.402	793.59
534.607	807.73
534.813	925.72
535.018	789.91
535.223	788.16
535.428	794.56
535.633	849.78
535.838	847.64
536.043	809.09
536.249	904.41
536.454	839.89
536.659	828.46
536.864	788.16
537.069	836.41
537.274	840.86
537.479	863.34
537.684	839.12
537.889	790.88
538.094	916.04
538.299	840.09
538.504	870.7
538.708	866.05
538.913	860.43
539.118	843.38
539.323	861.21
539.528	846.29
539.733	835.44
539.938	871.48
540.142	871.86
540.347	850.94
540.552	805.6
540.757	857.72
540.962	842.22
541.166	777.51
541.371	799.59
541.576	835.24
541.781	752.32
541.985	852.29
542.19	815.87
542.395	918.17
542.599	914.68
542.804	897.82
543.008	909.64
543.213	819.74
543.418	824.59
543.622	892.4
543.827	819.94
544.031	936.19
544.236	936.19
544.44	870.7
544.645	945.29
544.849	861.98
545.054	899.96
545.258	956.34
545.463	947.04
545.667	843.58
545.872	882.52
546.076	912.74
546.281	915.46
546.485	867.79
546.689	878.64
546.894	935.22
547.098	864.69
547.302	840.48
547.507	902.28
547.711	916.62
547.915	942.19
548.119	857.14
548.324	882.71
548.528	963.12
548.732	880.97
548.936	923.59
549.141	954.4
549.345	880.77
549.549	955.95
549.753	903.64
549.957	969.51
550.161	955.95
550.366	907.51
550.57	898.99
550.774	917.59
550.978	897.24
551.182	953.43
551.386	859.27
551.59	909.26
551.794	894.34
551.998	882.91
552.202	909.64
552.406	853.65
552.61	899.76
552.814	919.52
553.018	1002.64
553.222	906.74
553.426	923.01
553.63	989.66
553.833	883.49
554.037	856.36
554.241	961.57
554.445	936.38
554.649	906.93
554.853	895.31
555.056	922.82
555.26	935.99
555.464	916.04
555.668	930.76
555.871	943.55
556.075	937.16
556.279	901.31
556.483	861.98
556.686	909.26
556.89	900.73
557.094	950.91
557.297	870.31
557.501	973
557.704	865.47
557.908	969.7
558.112	871.09
558.315	977.07
558.519	906.93
558.722	894.72
558.926	892.4
559.129	843.58
559.333	815.09
559.536	867.02
559.74	850.74
559.943	873.8
560.147	861.4
560.35	886.59
560.553	883.49
560.757	810.44
560.96	932.31
561.164	835.63
561.367	929.99
561.57	856.36
561.774	877.67
561.977	850.94
562.18	844.74
562.384	950.52
562.587	864.31
562.79	848.03
562.993	855.01
563.197	878.64
563.4	931.15
563.603	898.21
563.806	960.99
564.009	845.51
564.212	872.25
564.416	781.19
564.619	888.14
564.822	855.98
565.025	904.22
565.228	867.6
565.431	847.26
565.634	788.94
565.837	815.29
566.04	821.29
566.243	808.7
566.446	737.98
566.649	856.17
566.852	783.71
567.055	824.59
567.258	858.3
567.461	905.57
567.664	861.21
567.867	766.85
568.07	844.35
568.273	809.48
568.475	885.23
568.678	806.57
568.881	826.72
569.084	820.52
569.287	750.38
569.489	758.71
569.692	834.86
569.895	824.2
570.098	758.71
570.3	763.56
570.503	700.78
570.706	745.73
570.909	729.26
571.111	744.57
571.314	710.66
571.516	737.01
571.719	777.7
571.922	720.74
572.124	753.68
572.327	781
572.529	703.5
572.732	704.08
572.935	720.74
573.137	790.1
573.34	735.08
573.542	777.51
573.745	742.63
573.947	738.95
574.15	740.7
574.352	704.85
574.554	778.28
574.757	721.71
574.959	709.11
575.162	682.38
575.364	723.84
575.566	825.94
575.769	695.55
575.971	701.56
576.173	639.75
576.376	719.38
576.578	766.27
576.78	786.23
576.982	650.99
577.185	698.07
577.387	662.23
577.589	657.19
577.791	725.58
577.993	699.43
578.196	688.19
578.398	690.71
578.6	739.53
578.802	661.07
579.004	676.95
579.206	688.38
579.408	724.81
579.61	656.8
579.812	722.29
580.014	692.45
580.216	703.88
580.418	676.95
580.62	696.72
580.822	623.87
581.024	663.97
581.226	728.3
581.428	659.9
581.63	776.35
581.832	679.08
582.034	753.87
582.236	691.1
582.438	708.15
582.64	710.08
582.841	748.83
583.043	788.16
583.245	728.3
583.447	719.96
583.649	695.36
583.85	731.59
584.052	746.51
584.254	680.44
584.456	762.2
584.657	651.38
584.859	702.72
585.061	693.42
585.262	673.85
585.464	664.55
585.666	711.83
585.867	689.93
586.069	702.72
586.27	710.47
586.472	689.35
586.674	649.25
586.875	674.82
587.077	662.81
587.278	687.22
587.48	682.77
587.681	777.9
587.883	696.72
588.084	632.78
588.285	648.28
588.487	675.4
588.688	678.89
588.89	613.21
589.091	606.04
589.292	634.33
589.494	626.19
589.695	626
589.896	542.88
590.098	534.74
590.299	626.97
590.5	581.63
590.702	606.04
590.903	614.95
591.104	643.05
591.305	637.23
591.507	673.47
591.708	626.77
591.909	630.45
592.11	721.32
592.311	647.5
592.512	654.67
592.714	597.52
592.915	588.02
593.116	608.95
593.317	649.83
593.518	607.79
593.719	620.18
593.92	667.65
594.121	676.57
594.322	680.25
594.523	644.21
594.724	577.75
594.925	639.56
595.126	649.25
595.327	654.67
595.528	634.72
595.729	626.97
595.929	589.19
596.13	648.08
596.331	653.7
596.532	642.85
596.733	695.94
596.934	653.7
597.135	653.7
597.335	675.79
597.536	617.47
597.737	642.66
597.938	609.72
598.138	633.36
598.339	645.37
598.54	641.69
598.74	621.35
598.941	589.38
599.142	682.96
599.342	619.02
599.543	607.01
599.744	580.08
599.944	614.18
600.145	621.93
600.345	622.9
600.546	714.54
600.746	665.91
600.947	702.91
601.147	640.53
601.348	657.38
601.548	594.22
601.749	652.35
601.949	581.24
602.15	624.64
602.35	654.09
602.551	698.07
602.751	597.32
602.951	607.98
603.152	568.26
603.352	655.25
603.552	645.18
603.753	641.88
603.953	640.53
604.153	616.89
604.354	608.37
604.554	586.67
604.754	600.23
604.954	585.31
605.155	639.37
605.355	597.52
605.555	658.93
605.755	647.31
605.955	638.98
606.155	649.05
606.356	603.72
606.556	642.47
606.756	633.55
606.956	575.82
607.156	657.97
607.356	576.4
607.556	643.43
607.756	629.68
607.956	672.88
608.156	627.16
608.356	589.96
608.556	674.43
608.756	641.3
608.956	574.07
609.156	622.12
609.356	575.43
609.556	579.5
609.755	603.52
609.955	548.5
610.155	618.83
610.355	638.4
610.555	593.64
610.755	625.42
610.954	555.09
611.154	610.11
611.354	655.83
611.554	596.94
611.753	614.95
611.953	588.22
612.153	609.72
612.352	616.31
612.552	581.05
612.752	536.68
612.951	588.8
613.151	605.27
613.351	539.59
613.55	608.95
613.75	588.8
613.949	597.32
614.149	597.32
614.348	604.49
614.548	563.42
614.747	505.1
614.947	553.34
615.146	486.5
615.346	601.2
615.545	583.95
615.745	574.27
615.944	599.65
616.144	561.48
616.343	613.79
616.542	541.91
616.742	570.78
616.941	555.28
617.14	506.46
617.34	579.11
617.539	569.23
617.738	524.67
617.938	619.02
618.137	546.37
618.336	505.1
618.535	574.46
618.734	544.04
618.934	554.89
619.133	538.81
619.332	607.4
619.531	554.89
619.73	554.7
619.929	576.79
620.128	561.87
620.328	601.2
620.527	526.02
620.726	553.54
620.925	556.64
621.124	550.44
621.323	562.45
621.522	520.02
621.721	497.16
621.92	513.62
622.119	550.82
622.318	530.29
622.517	555.09
622.715	529.7
622.914	467.12
623.113	531.45
623.312	466.54
623.511	536.1
623.71	481.27
623.909	508.2
624.107	570.97
624.306	484.56
624.505	506.65
624.704	503.16
624.902	510.52
625.101	546.75
625.3	534.16
625.499	494.25
625.697	496.96
625.896	483.59
626.095	562.64
626.293	450.07
626.492	475.46
626.69	517.69
626.889	486.89
627.088	538.62
627.286	466.35
627.485	512.85
627.683	488.82
627.882	540.36
628.08	462.28
628.279	470.81
628.477	575.62
628.676	477.01
628.874	516.72
629.073	467.51
629.271	434.96
629.469	497.16
629.668	483.79
629.866	484.56
630.065	463.44
630.263	527.38
630.461	441.74
630.66	484.95
630.858	499.29
631.056	512.85
631.254	523.7
631.453	452.01
631.651	530.87
631.849	491.92
632.047	528.93
632.245	470.61
632.444	481.27
632.642	497.54
632.84	521.76
633.038	481.85
633.236	446.39
633.434	481.46
633.632	454.53
633.83	430.51
634.028	521.37
634.227	470.22
634.425	553.15
634.623	485.14
634.821	459.18
635.019	497.93
635.216	468.48
635.414	516.14
635.612	473.71
635.81	472.55
636.008	557.6
636.206	483.79
636.404	507.62
636.602	433.61
636.8	487.47
636.997	534.55
637.195	505.1
637.393	492.51
637.591	520.99
637.789	522.15
637.986	458.02
638.184	512.85
638.382	541.52
638.58	519.24
638.777	558.77
638.975	493.28
639.173	480.88
639.37	525.44
639.568	472.94
639.765	484.95
639.963	497.54
640.161	533.58
640.358	519.44
640.556	455.89
640.753	447.56
640.951	458.99
641.148	516.14
641.346	446.78
641.543	458.79
641.741	508.2
641.938	451.24
642.136	463.25
642.333	472.16
642.531	525.64
642.728	525.25
642.925	452.79
643.123	466.16
643.32	485.53
643.517	472.55
643.715	475.65
643.912	453.76
644.109	480.88
644.306	480.3
644.504	467.71
644.701	474.49
644.898	468.09
645.095	424.5
645.293	467.12
645.49	498.71
645.687	476.81
645.884	522.73
646.081	394.08
646.278	439.03
646.475	419.66
646.672	421.01
646.87	490.37
647.067	449.69
647.264	448.91
647.461	390.21
647.658	411.91
647.855	454.34
648.052	427.79
648.249	347
648.446	408.81
648.642	428.38
648.839	407.06
649.036	423.14
649.233	401.83
649.43	375.09
649.627	421.01
649.824	409.78
650.021	384.98
650.217	378.19
650.414	398.54
650.611	443.68
650.808	435.35
651.004	425.08
651.201	449.88
651.398	461.51
651.595	404.74
651.791	375.48
651.988	458.79
652.185	398.54
652.381	441.55
652.578	368.12
652.775	435.54
652.971	388.66
653.168	408.23
653.364	430.7
653.561	354.56
653.757	425.47
653.954	419.27
654.15	393.31
654.347	488.63
654.543	404.16
654.74	357.08
654.936	397.57
655.133	388.66
655.329	404.16
655.525	412.49
655.722	438.64
655.918	373.16
656.115	457.05
656.311	352.43
656.507	339.64
656.704	339.45
656.9	347
657.096	356.88
657.292	331.31
657.489	395.63
657.685	374.71
657.881	365.99
658.077	362.69
658.273	356.11
658.47	458.99
658.666	338.86
658.862	393.11
659.058	370.06
659.254	415.59
659.45	341.19
659.646	399.51
659.842	389.43
660.038	410.16
660.234	360.95
660.43	378.78
660.626	439.42
660.822	430.12
661.018	423.92
661.214	376.45
661.41	341.77
661.606	424.11
661.802	426.63
661.998	393.5
662.194	346.42
662.39	433.8
662.586	403.58
662.781	426.83
662.977	408.81
663.173	415.39
663.369	383.62
663.564	392.34
663.76	427.99
663.956	373.74
664.152	427.79
664.347	343.13
664.543	386.72
664.739	378.97
664.934	334.8
665.13	324.33
665.326	404.16
665.521	408.81
665.717	337.7
665.912	365.79
666.108	303.41
666.304	344.1
666.499	356.49
666.695	289.07
666.89	332.66
667.086	384.01
667.281	385.17
667.477	437.09
667.672	372.77
667.867	381.29
668.063	385.56
668.258	352.62
668.454	369.67
668.649	458.99
668.844	372.77
669.04	373.74
669.235	369.67
669.43	328.01
669.626	319.49
669.821	349.33
670.016	335.57
670.211	356.3
670.407	306.31
670.602	351.07
670.797	351.65
670.992	388.08
671.187	340.22
671.382	390.4
671.578	348.55
671.773	383.62
671.968	284.61
672.163	352.81
672.358	387.3
672.553	352.04
672.748	328.01
672.943	415.01
673.138	356.69
673.333	384.39
673.528	332.08
673.723	374.71
673.918	349.71
674.113	303.8
674.308	427.02
674.503	367.93
674.698	381.1
674.892	355.53
675.087	389.24
675.282	369.48
675.477	341.58
675.672	336.93
675.867	341.58
676.061	318.71
676.256	310.58
676.451	335.76
676.646	330.53
676.84	334.6
677.035	305.93
677.23	304.18
677.424	341.96
677.619	349.91
677.814	382.65
678.008	380.52
678.203	268.53
678.397	332.28
678.592	339.64
678.787	379.94
678.981	323.56
679.176	356.11
679.37	361.73
679.565	305.15
679.759	314.84
679.954	349.71
680.148	395.44
680.342	392.73
680.537	375.68
680.731	306.7
680.926	346.03
681.12	367.15
681.314	317.55
681.509	318.71
681.703	325.69
681.897	365.79
682.092	329.37
682.286	309.22
682.48	400.09
682.674	360.56
682.869	363.08
683.063	301.08
683.257	409.58
683.451	285.97
683.645	353.2
683.839	332.86
684.034	339.06
684.228	359.79
684.422	298.56
684.616	285.39
684.81	351.65
685.004	343.13
685.198	354.56
685.392	360.56
685.586	343.9
685.78	369.28
685.974	365.99
686.168	363.47
686.362	384.39
686.556	303.41
686.75	281.71
686.944	330.92
687.138	325.3
687.331	269.31
687.525	293.33
687.719	219.52
687.913	293.33
688.107	302.83
688.301	261.75
688.494	300.11
688.688	245.28
688.882	223.97
689.076	238.89
689.269	263.3
689.463	344.1
689.657	308.64
689.85	254
690.044	299.34
690.238	271.05
690.431	284.81
690.625	278.03
690.818	312.32
691.012	331.89
691.205	300.89
691.399	271.63
691.593	323.75
691.786	364.05
691.98	357.85
692.173	386.91
692.366	335.18
692.56	340.8
692.753	419.66
692.947	317.36
693.14	408.81
693.333	395.05
693.527	335.57
693.72	372.58
693.914	344.68
694.107	341.58
694.3	364.24
694.493	345.06
694.687	429.34
694.88	342.74
695.073	437.87
695.266	406.09
695.46	402.03
695.653	439.61
695.846	447.75
696.039	328.4
696.232	413.84
696.425	444.26
696.618	424.69
696.812	401.25
697.005	456.47
697.198	515.56
697.391	482.82
697.584	483.21
697.777	543.85
697.97	512.27
698.163	484.95
698.356	495.99
698.549	582.79
698.742	507.04
698.935	498.32
699.127	499.09
699.32	502.58
699.513	442.71
699.706	533
699.899	561.48
700.092	491.73
700.285	544.24
700.477	494.44
700.67	534.94
700.863	554.12
701.056	607.59
701.248	573.1
701.441	586.67
701.634	540.17
701.826	632.2
702.019	558.57
702.212	592.67
702.404	559.54
702.597	548.69
702.79	553.92
702.982	564
703.175	607.01
703.367	621.35
703.56	649.44
703.752	687.03
703.945	642.08
704.137	679.08
704.33	691.68
704.522	683.35
704.715	648.86
704.907	674.63
705.1	711.83
705.292	734.88
705.484	660.29
705.677	751.16
705.869	699.62
706.061	744.76
706.254	763.75
706.446	749.41
706.638	727.71
706.831	802.11
707.023	760.07
707.215	789.71
707.407	807.15
707.599	828.66
707.792	836.21
707.984	815.68
708.176	831.18
708.368	796.3
708.56	837.18
708.752	798.63
708.944	783.71
709.136	858.11
709.329	835.05
709.521	958.47
709.713	891.04
709.905	884.26
710.097	891.04
710.289	860.04
710.481	896.66
710.672	892.01
710.864	890.27
711.056	942.97
711.248	915.26
711.44	949.94
711.632	883.68
711.824	927.86
712.016	975.13
712.207	966.6
712.399	963.7
712.591	1037.52
712.783	964.09
712.975	1028.99
713.166	966.41
713.358	966.22
713.55	1040.23
713.741	1015.43
713.933	1007.68
714.125	1016.59
714.316	990.24
714.508	1041.39
714.7	1065.03
714.891	1040.04
715.083	1135.55
715.274	1064.06
715.466	1094.09
715.657	1112.69
715.849	1003.03
716.04	1088.08
716.232	989.08
716.423	1094.87
716.615	1018.72
716.806	1034.03
716.998	1019.5
717.189	990.05
717.381	893.95
717.572	886.59
717.763	937.54
717.955	917.59
718.146	918.56
718.337	891.43
718.528	851.13
718.72	806.96
718.911	863.92
719.102	840.86
719.293	911.97
719.485	877.29
719.676	862.18
719.867	816.64
720.058	846.68
720.249	883.87
720.44	847.26
720.632	886.39
720.823	900.73
721.014	970.48
721.205	971.06
721.396	1039.07
721.587	1097.38
721.778	1082.08
721.969	1120.25
722.16	1154.15
722.351	1079.56
722.542	1237.08
722.733	1251.22
722.924	1145.24
723.115	1190.19
723.305	1183.02
723.496	1192.13
723.687	1098.16
723.878	1171.98
724.069	1122.77
724.26	1181.28
724.45	1088.28
724.641	1116.95
724.832	1147.76
725.023	1141.17
725.213	1114.24
725.404	1088.47
725.595	1073.94
725.785	1084.21
725.976	1139.62
726.167	1109.78
726.357	1114.82
726.548	1212.08
726.739	1142.72
726.929	1185.73
727.12	1220.22
727.31	1212.66
727.501	1206.46
727.691	1221.58
727.882	1191.93
728.072	1208.98
728.263	1226.61
728.453	1250.06
728.644	1236.3
728.834	1221.19
729.024	1201.23
729.215	1229.52
729.405	1246.38
729.596	1304.89
729.786	1293.07
729.976	1291.13
730.167	1286.29
730.357	1275.63
730.547	1263.43
730.737	1297.53
730.928	1326.97
731.118	1373.47
731.308	1324.65
731.498	1318.64
731.688	1379.09
731.879	1358.56
732.069	1399.63
732.259	1406.99
732.449	1414.16
732.639	1494.76
732.829	1478.29
733.019	1488.95
733.209	1534.28
733.399	1529.83
733.589	1559.86
733.779	1595.31
733.969	1528.86
734.159	1581.75
734.349	1641.23
734.539	1643.95
734.729	1626.7
734.919	1667.97
735.109	1734.43
735.299	1638.52
735.488	1666.81
735.678	1715.05
735.868	1703.04
736.058	1712.34
736.248	1678.43
736.437	1624.96
736.627	1643.36
736.817	1726.68
737.007	1725.32
737.196	1744.69
737.386	1697.81
737.576	1692.77
737.765	1747.41
737.955	1746.44
738.144	1843.31
738.334	1747.6
738.524	1757.29
738.713	1797.78
738.903	1748.57
739.092	1797.01
739.282	1799.91
739.471	1789.45
739.661	1763.68
739.85	1798.56
740.04	1798.36
740.229	1790.22
740.419	1828.2
740.608	1844.47
740.797	1835.37
740.987	1908.41
741.176	1866.37
741.365	1829.36
741.555	1829.75
741.744	1848.54
741.933	1861.72
742.123	1861.14
742.312	1900.66
742.501	1895.62
742.69	1879.15
742.88	1860.75
743.069	1964.6
743.258	1857.26
743.447	1950.26
743.636	1960.72
743.825	1901.24
744.014	1930.11
744.204	1931.85
744.393	1881.67
744.582	1952.58
744.771	1958.2
744.96	1923.13
745.149	1944.25
745.338	1915.77
745.527	1913.45
745.716	1899.3
745.905	1915.19
746.094	1921.59
746.283	1947.35
746.471	1939.02
746.66	1996.76
746.849	1958.78
747.038	1994.63
747.227	1945.42
747.416	2010.71
747.604	1931.08
747.793	1965.95
747.982	1971.18
748.171	1948.9
748.359	1985.52
748.548	1971.96
748.737	1974.87
748.926	1950.45
749.114	1900.85
749.303	1994.82
749.491	1949.1
749.68	1902.79
749.869	2006.64
750.057	1925.07
750.246	1898.14
750.434	1914.03
750.623	1942.12
750.811	1899.3
751	1974.28
751.188	1961.88
751.377	1945.61
751.565	1898.53
751.754	1876.83
751.942	1863.27
752.131	1927.98
752.319	1900.85
752.507	1837.89
752.696	1942.7
752.884	1977.58
753.072	1911.9
753.261	1881.67
753.449	1876.64
753.637	1925.46
753.825	2000.44
754.014	1892.52
754.202	1906.67
754.39	1952.78
754.578	1932.63
754.766	1909.38
754.955	1847.38
755.143	1982.03
755.331	1923.72
755.519	1881.29
755.707	1866.95
755.895	1889.81
756.083	1900.66
756.271	1879.54
756.459	1836.14
756.647	1916.16
756.835	1834.59
757.023	1900.47
757.211	1855.9
757.399	1889.42
757.587	1845.25
757.775	1813.28
757.963	1847.96
758.151	1857.84
758.339	1804.56
758.526	1849.7
758.714	1843.31
758.902	1768.72
759.09	1729.19
759.278	1639.88
759.465	1520.72
759.653	1257.03
759.841	1220.03
760.028	975.32
760.216	896.86
760.404	845.9
760.591	673.08
760.779	587.64
760.967	496.57
761.154	395.05
761.342	459.57
761.529	449.11
761.717	482.04
761.905	452.79
762.092	499.67
762.28	457.63
762.467	464.99
762.655	386.72
762.842	411.13
763.029	455.69
763.217	467.12
763.404	484.17
763.592	477.97
763.779	427.79
763.966	471.97
764.154	480.11
764.341	554.89
764.528	545.98
764.716	551.99
764.903	617.86
765.09	637.43
765.277	664.17
765.465	754.06
765.652	793.2
765.839	842.03
766.026	899.37
766.213	943.16
766.4	984.82
766.588	1114.05
766.775	1054.76
766.962	1154.15
767.149	1183.21
767.336	1297.72
767.523	1219.83
767.71	1312.44
767.897	1357.01
768.084	1432.18
768.271	1434.5
768.458	1478.87
768.645	1499.8
768.832	1466.28
769.019	1502.32
769.206	1522.27
769.392	1599.96
769.579	1692.96
769.766	1608.3
769.953	1591.63
770.14	1650.53
770.327	1605.2
770.513	1630.19
770.7	1714.86
770.887	1609.07
771.073	1695.87
771.26	1660.8
771.447	1663.32
771.634	1650.73
771.82	1732.1
772.007	1645.88
772.193	1628.06
772.38	1706.33
772.567	1673.98
772.753	1669.71
772.94	1747.41
773.126	1727.84
773.313	1697.42
773.499	1671.46
773.686	1704.01
773.872	1666.03
774.059	1635.61
774.245	1625.15
774.432	1632.32
774.618	1595.31
774.804	1659.45
774.991	1609.46
775.177	1648.79
775.363	1640.26
775.55	1704.39
775.736	1615.46
775.922	1636.97
776.109	1624.18
776.295	1630.19
776.481	1641.81
776.667	1699.16
776.853	1614.69
777.04	1600.16
777.226	1656.73
777.412	1723.19
777.598	1630
777.784	1595.31
777.97	1582.72
778.156	1616.63
778.342	1629.8
778.528	1587.76
778.715	1535.45
778.901	1563.15
779.087	1610.62
779.272	1537
779.458	1530.22
779.644	1618.37
779.83	1555.6
780.016	1698
780.202	1588.15
780.388	1572.26
780.574	1504.64
780.76	1495.34
780.946	1578.85
781.131	1580.98
781.317	1563.93
781.503	1524.6
781.689	1509.87
781.874	1689.09
782.06	1528.67
782.246	1550.75
782.432	1514.13
782.617	1545.52
782.803	1608.88
782.989	1482.36
783.174	1523.43
783.36	1480.04
783.545	1551.72
783.731	1507.55
783.916	1465.7
784.102	1491.66
784.288	1468.02
784.473	1473.84
784.659	1476.55
784.844	1545.72
785.029	1466.09
785.215	1482.75
785.4	1407.19
785.586	1547.07
785.771	1441.48
785.956	1490.5
786.142	1461.63
786.327	1424.04
786.512	1463.57
786.698	1447.29
786.883	1424.24
787.068	1440.9
787.254	1425.79
787.439	1424.82
787.624	1452.52
787.809	1392.46
787.994	1431.99
788.18	1465.7
788.365	1378.51
788.55	1382
788.735	1394.4
788.92	1402.34
789.105	1397.89
789.29	1406.8
789.475	1349.26
789.66	1401.37
789.845	1356.62
790.03	1344.41
790.215	1433.34
790.4	1416.49
790.585	1446.13
790.77	1359.91
790.955	1324.07
791.14	1348.09
791.325	1391.88
791.51	1290.36
791.695	1335.5
791.879	1326.59
792.064	1296.17
792.249	1384.32
792.434	1345.19
792.618	1318.84
792.803	1357.59
792.988	1323.68
793.173	1349.45
793.357	1374.25
793.542	1309.54
793.727	1340.54
793.911	1354.29
794.096	1341.12
794.281	1364.37
794.465	1420.55
794.65	1327.17
794.834	1347.71
795.019	1406.99
795.203	1392.07
795.388	1372.12
795.572	1370.76
795.757	1339.57
795.941	1402.34
796.126	1380.84
796.31	1319.61
796.494	1339.37
796.679	1351.58
796.863	1290.55
797.048	1415.52
797.232	1349.45
797.416	1371.15
797.601	1344.61
797.785	1426.95
797.969	1415.13
798.153	1360.11
798.338	1368.63
798.522	1380.84
798.706	1372.31
798.89	1372.7
799.074	1442.84
799.258	1400.02
799.443	1387.42
799.627	1364.76
799.811	1423.65
799.995	1361.07
800.179	1346.35
800.363	1351.58
800.547	1374.06
800.731	1410.87
800.915	1313.41
801.099	1330.66
801.283	1352.74
801.467	1366.11
801.651	1349.84
801.835	1384.32
802.019	1356.23
802.202	1361.85
802.386	1324.46
802.57	1321.36
802.754	1348.48
802.938	1330.27
803.121	1342.86
803.305	1405.83
803.489	1371.54
803.673	1364.37
803.856	1383.16
804.04	1343.64
804.224	1359.72
804.407	1388.59
804.591	1366.69
804.775	1350.03
804.958	1374.83
805.142	1449.04
805.326	1348.67
805.509	1381.22
805.693	1422.88
805.876	1420.17
806.06	1370.18
806.243	1407.19
806.427	1424.82
806.61	1404.47
806.794	1387.62
806.977	1414.94
807.16	1375.99
807.344	1379.29
807.527	1368.24
807.71	1357.78
807.894	1356.62
808.077	1425.79
808.26	1340.54
808.444	1351.39
808.627	1407.38
808.81	1349.84
808.993	1331.82
809.177	1319.81
809.36	1338.02
809.543	1347.32
809.726	1284.93
809.909	1306.63
810.092	1290.74
810.276	1295.39
810.459	1321.55
810.642	1303.14
810.825	1262.46
811.008	1302.37
811.191	1191.93
811.374	1224.48
811.557	1255.48
811.74	1306.44
811.923	1224.48
812.106	1222.93
812.289	1190.38
812.472	1179.15
812.654	1232.62
812.837	1170.43
813.02	1160.16
813.203	1137.1
813.386	1059.02
813.569	1092.54
813.751	1043.33
813.934	1094.09
814.117	1069.68
814.3	1032.48
814.482	1044.69
814.665	1003.42
814.848	985.59
815.03	917.97
815.213	958.08
815.396	967.77
815.578	930.57
815.761	911.39
815.943	970.09
816.126	882.52
816.309	873.41
816.491	830.98
816.674	802.31
816.856	854.43
817.039	821.29
817.221	897.44
817.403	880.77
817.586	842.41
817.768	933.67
817.951	812.19
818.133	830.59
818.315	856.56
818.498	874.57
818.68	907.32
818.862	872.06
819.045	913.91
819.227	874.77
819.409	866.24
819.591	877.29
819.774	830.4
819.956	839.89
820.138	892.59
820.32	888.33
820.502	899.18
820.684	955.37
820.866	944.13
821.048	967.38
821.231	1014.85
821.413	989.08
821.595	971.84
821.777	983.85
821.959	947.23
822.141	1010.97
822.323	919.72
822.505	907.71
822.686	880.58
822.868	829.43
823.05	778.09
823.232	781.77
823.414	713.96
823.596	781.96
823.778	723.84
823.96	787.19
824.141	782.35
824.323	766.46
824.505	843.77
824.687	873.22
824.868	829.43
825.05	923.21
825.232	952.85
825.413	1021.63
825.595	960.6
825.777	922.43
825.958	966.6
826.14	949.17
826.321	959.05
826.503	923.98
826.685	948.97
826.866	983.65
827.048	967.57
827.229	933.67
827.411	918.56
827.592	894.92
827.773	881.16
827.955	849.58
828.136	891.04
828.318	824.39
828.499	870.89
828.68	799.01
828.862	864.11
829.043	880.58
829.224	861.01
829.406	825.56
829.587	860.63
829.768	830.01
829.949	897.24
830.131	844.74
830.312	878.06
830.493	877.87
830.674	892.79
830.855	854.81
831.036	840.86
831.218	895.5
831.399	947.62
831.58	862.56
831.761	861.01
831.942	886.39
832.123	865.08
832.304	819.94
832.485	818.97
832.666	838.15
832.847	864.89
833.028	852.29
833.209	849.58
833.389	849.78
833.57	830.01
833.751	809.67
833.932	873.99
834.113	863.14
834.294	849.19
834.475	884.46
834.655	894.53
834.836	886.78
835.017	857.14
835.198	843.38
835.378	856.75
835.559	899.18
835.74	833.69
835.92	846.09
836.101	831.56
836.281	883.29
836.462	890.27
836.643	884.65
836.823	918.94
837.004	874.38
837.184	938.9
837.365	902.67
837.545	939.67
837.726	871.28
837.906	948.2
838.087	895.5
838.267	903.06
838.448	849.97
838.628	890.66
838.808	911.97
838.989	950.52
839.169	868.57
839.349	918.75
839.53	926.89
839.71	939.09
839.89	869.15
840.07	962.15
840.251	880.19
840.431	887.17
840.611	885.62
840.791	841.44
840.971	896.08
841.151	875.54
841.332	855.78
841.512	939.67
841.692	811.03
841.872	918.36
842.052	870.51
842.232	953.82
842.412	843.96
842.592	879.22
842.772	897.24
842.952	906.74
843.132	866.63
843.312	854.43
843.492	862.76
843.672	895.69
843.851	829.04
844.031	864.31
844.211	869.34
844.391	827.69
844.571	892.79
844.751	884.46
844.93	876.71
845.11	832.14
845.29	859.27
845.47	862.56
845.649	861.4
845.829	883.87
846.009	833.89
846.188	889.69
846.368	860.43
846.547	849.39
846.727	900.34
846.907	821.29
847.086	863.34
847.266	859.46
847.445	854.04
847.625	840.67
847.804	849.39
847.984	821.29
848.163	822.07
848.343	826.53
848.522	840.86
848.701	855.01
848.881	810.64
849.06	840.09
849.239	853.07
849.419	854.04
849.598	812.96
849.777	824.98
849.957	787.97
850.136	747.67
850.315	778.09
850.494	712.02
850.674	750.58
850.853	787.58
851.032	766.66
851.211	816.84
851.39	802.11
851.569	730.04
851.748	753.87
851.927	805.99
852.107	771.7
852.286	737.6
852.465	729.26
852.644	777.51
852.823	806.96
853.002	778.28
853.181	746.12
853.359	773.63
853.538	731.78
853.717	818.78
853.896	728.1
854.075	687.42
854.254	697.68
854.433	647.31
854.611	696.33
854.79	647.89
854.969	696.52
855.148	714.35
855.327	659.13
855.505	683.54
855.684	653.32
855.863	720.55
856.041	649.44
856.22	676.37
856.399	686.83
856.577	766.66
856.756	696.13
856.934	849
857.113	843.38
857.291	740.7
857.47	721.71
857.648	754.06
857.827	758.33
858.005	780.8
858.184	695.17
858.362	807.54
858.541	755.81
858.719	758.33
858.898	769.76
859.076	731.59
859.254	826.72
859.433	726.55
859.611	699.04
859.789	704.46
859.967	786.81
860.146	792.81
860.324	696.52
860.502	726.16
860.68	664.36
860.859	677.73
861.037	700.01
861.215	734.11
861.393	724.61
861.571	699.04
861.749	700.98
861.927	763.75
862.105	729.85
862.283	716.67
862.461	669.2
862.639	626.38
862.817	698.27
862.995	680.83
863.173	673.08
863.351	693.62
863.529	694.58
863.707	726.16
863.885	681.22
864.063	650.41
864.241	634.72
864.418	740.89
864.596	675.4
864.774	635.1
864.952	694
865.129	714.73
865.307	663.97
865.485	609.53
865.663	697.49
865.84	638.78
866.018	675.02
866.196	563.42
866.373	605.85
866.551	611.66
866.728	525.44
866.906	584.54
867.084	618.44
867.261	634.13
867.439	644.02
867.616	648.08
867.794	622.12
867.971	608.95
868.149	639.56
868.326	647.31
868.503	693.62
868.681	613.98
868.858	637.62
869.035	591.32
869.213	672.69
869.39	639.95
869.567	716.86
869.745	642.66
869.922	616.31
870.099	646.92
870.276	655.45
870.454	673.85
870.631	676.37
870.808	625.61
870.985	654.48
871.162	699.04
871.339	647.5
871.517	621.15
871.694	608.56
871.871	600.62
872.048	628.71
872.225	589.19
872.402	632.78
872.579	576.01
872.756	623.67
872.933	581.82
873.11	605.27
873.287	616.7
873.463	610.89
873.64	601.39
873.817	638.4
873.994	602.55
874.171	569.04
874.348	600.62
874.524	547.72
874.701	609.72
874.878	545.01
875.055	590.93
875.231	594.03
875.408	605.07
875.585	560.7
875.762	616.31
875.938	582.02
876.115	551.21
876.291	569.04
876.468	575.62
876.645	555.86
876.821	570.78
876.998	583.57
877.174	598.49
877.351	567.87
877.527	555.47
877.704	590.35
877.88	572.72
878.057	542.88
878.233	594.03
878.409	543.27
878.586	567.1
878.762	551.02
878.938	550.24
879.115	478.56
879.291	539.59
879.467	497.74
879.644	513.82
879.82	569.62
879.996	517.31
880.172	481.07
880.349	536.68
880.525	552.37
880.701	511.11
880.877	495.99
881.053	555.47
881.229	530.87
881.405	597.52
881.581	510.91
881.757	521.18
881.933	548.3
882.109	554.12
882.285	529.12
882.461	476.23
882.637	514.79
882.813	500.06
882.989	507.23
883.165	578.14
883.341	509.17
883.517	558.57
883.693	554.89
883.869	559.93
884.044	520.02
884.22	528.74
884.396	561.48
884.572	528.54
884.747	570.2
884.923	544.62
885.099	564.77
885.275	563.61
885.45	484.17
885.626	531.45
885.801	496.19
885.977	507.23
886.153	475.07
886.328	547.34
886.504	500.26
886.679	554.7
886.855	487.27
887.03	537.45
887.206	554.89
887.381	567.68
887.557	543.07
887.732	543.07
887.908	555.67
888.083	562.64
888.258	527.57
888.434	474.1
888.609	540.75
888.784	549.85
888.96	527.77
889.135	510.14
889.31	489.99
889.485	523.31
889.661	490.76
889.836	571.94
890.011	531.64
890.186	491.92
890.361	513.62
890.537	548.69
890.712	528.74
890.887	544.24
891.062	504.91
891.237	558.38
891.412	477.01
891.587	552.18
891.762	573.69
891.937	566.52
892.112	467.12
892.287	502.58
892.462	473.13
892.637	455.31
892.812	439.81
892.987	498.51
893.161	453.37
893.336	491.34
893.511	512.07
893.686	486.31
893.861	500.26
894.035	472.94
894.21	504.91
894.385	443.1
894.56	496.96
894.734	451.62
894.909	419.85
895.084	454.53
895.258	428.96
895.433	456.66
895.608	412.29
895.782	381.49
895.957	413.84
896.131	413.46
896.306	352.04
896.48	342.16
896.655	386.53
896.829	374.32
897.004	341.58
897.178	380.33
897.353	337.7
897.527	412.49
897.701	352.04
897.876	298.56
898.05	386.14
898.224	375.87
898.399	397.38
898.573	382.84
898.747	288.88
898.921	337.12
899.096	265.43
899.27	272.6
899.444	285
899.618	309.61
899.792	322.78
899.967	285
900.141	328.79
900.315	265.63
900.489	296.82
900.663	341
900.837	320.07
901.011	295.85
901.185	366.96
901.359	309.8
901.533	324.91
901.707	312.13
901.881	310.58
902.055	254.97
902.229	302.83
902.403	356.88
902.576	321.23
902.75	296.43
902.924	410.16
903.098	346.61
903.272	373.54
903.446	382.26
903.619	370.06
903.793	387.69
903.967	346.42
904.14	423.14
904.314	411.13
904.488	389.04
904.661	402.61
904.835	378.97
905.009	444.65
905.182	464.99
905.356	414.81
905.529	392.53
905.703	372.19
905.876	358.82
906.05	357.85
906.223	327.05
906.397	327.24
906.57	315.03
906.744	297.98
906.917	313.1
907.09	340.8
907.264	312.51
907.437	306.9
907.61	296.82
907.784	277.83
907.957	300.89
908.13	255.36
908.304	335.76
908.477	290.43
908.65	286.55
908.823	244.9
908.996	319.49
909.17	293.72
909.343	272.41
909.516	292.56
909.689	305.35
909.862	250.32
910.035	302.63
910.208	255.75
910.381	270.47
910.554	328.4
910.727	279
910.9	289.07
911.073	275.12
911.246	303.99
911.419	300.7
911.592	300.7
911.765	255.36
911.938	256.72
912.11	264.66
912.283	262.14
912.456	301.86
912.629	272.02
912.802	266.01
912.974	228.23
913.147	200.53
913.32	179.02
913.493	205.57
913.665	220.68
913.838	259.82
914.01	231.14
914.183	243.15
914.356	217.38
914.528	290.43
914.701	301.66
914.873	287.52
915.046	237.15
915.218	221.45
915.391	171.85
915.563	194.91
915.736	216.61
915.908	255.94
916.081	235.21
916.253	217
916.425	210.99
916.598	241.99
916.77	224.17
916.942	225.91
917.115	147.25
917.287	249.93
917.459	207.12
917.632	206.92
917.804	150.54
917.976	230.75
918.148	217.77
918.32	234.24
918.493	265.63
918.665	285
918.837	235.6
919.009	257.1
919.181	269.7
919.353	233.85
919.525	223.97
919.697	226.1
919.869	256.72
920.041	282.29
920.213	352.04
920.385	278.61
920.557	222.81
920.729	260.78
920.901	234.43
921.073	250.32
921.244	237.15
921.416	273.38
921.588	260.4
921.76	207.5
921.932	318.33
922.103	251.68
922.275	223
922.447	242.18
922.619	177.08
922.79	221.84
922.962	205.37
923.134	243.73
923.305	203.82
923.477	195.3
923.648	186.58
923.82	213.12
923.991	159.45
924.163	158.1
924.335	182.9
924.506	176.7
924.677	221.84
924.849	202.47
925.02	204.79
925.192	221.65
925.363	200.92
925.535	194.91
925.706	193.94
925.877	274.73
926.049	178.05
926.22	215.83
926.391	219.71
926.562	242.38
926.734	151.32
926.905	214.87
927.076	147.64
927.247	178.05
927.419	147.25
927.59	192
927.761	172.44
927.932	173.6
928.103	193.94
928.274	146.09
928.445	127.1
928.616	164.69
928.787	146.09
928.958	182.9
929.129	189.68
929.3	139.89
929.471	99.97
929.642	87.96
929.813	50.76
929.984	172.44
930.155	74.98
930.326	119.54
930.496	110.82
930.667	55.02
930.838	78.66
931.009	50.96
931.18	101.14
931.35	86.41
931.521	94.16
931.692	41.27
931.863	17.24
932.033	63.74
932.204	85.44
932.374	89.51
932.545	39.72
932.716	86.22
932.886	96.87
933.057	32.74
933.227	43.59
933.398	116.64
933.568	40.88
933.739	14.53
933.909	31
934.08	89.51
934.25	-7.56
934.421	5.81
934.591	24.8
934.761	2.32
934.932	-37.01
935.102	1.74
935.272	4.26
935.443	14.34
935.613	5.04
935.783	33.32
935.953	-7.94
936.123	139.89
936.294	-14.14
936.464	6.78
936.634	31.19
936.804	-16.86
936.974	-31.58
937.144	39.33
937.314	23.83
937.484	32.74
937.655	-10.27
937.825	73.24
937.995	4.07
938.165	67.62
938.334	20.34
938.504	22.86
938.674	5.42
938.844	5.81
939.014	14.14
939.184	44.95
939.354	80.6
939.524	60.26
939.694	10.07
939.863	54.44
940.033	108.5
940.203	109.47
940.373	79.44
940.542	83.12
940.712	49.41
940.882	71.88
941.051	83.12
941.221	86.22
941.391	97.45
941.56	0.39
941.73	6.78
941.899	136.2
942.069	25.96
942.238	66.65
942.408	18.99
942.577	81.76
942.747	39.91
942.916	-4.84
943.086	36.23
943.255	68.39
943.425	42.82
943.594	33.71
943.763	-35.26
943.933	13.17
944.102	-22.47
944.271	30.61
944.441	42.43
944.61	31.77
944.779	11.43
944.948	117.6
945.117	4.46
945.287	63.55
945.456	-14.92
945.625	7.17
945.794	76.14
945.963	-12.01
946.132	36.81
946.301	28.09
946.47	76.53
946.639	-25.19
946.808	-5.81
946.977	28.67
947.146	64.52
947.315	-0.77
947.484	58.12
947.653	18.6
947.822	-0.97
947.991	10.27
948.16	105.01
948.329	61.42
948.498	28.67
948.666	22.67
948.835	59.29
949.004	-30.22
949.173	-12.59
949.341	16.86
949.51	46.11
949.679	88.35
949.847	84.09
950.016	114.12
950.185	81.37
950.353	-0.58
950.522	7.75
950.69	58.51
950.859	6.59
951.028	90.09
951.196	43.21
951.365	48.82
951.533	26.35
951.701	60.84
951.87	90.87
952.038	-8.33
952.207	45.34
952.375	94.16
952.543	-8.52
952.712	40.88
952.88	7.56
953.048	82.15
953.217	40.11
953.385	36.81
953.553	71.3
953.721	-13.17
953.89	62.19
954.058	-18.6
954.226	20.15
954.394	47.86
954.562	-20.54
954.73	37.59
954.898	43.4
955.067	64.52
955.235	29.06
955.403	63.55
955.571	111.6
955.739	63.16
955.907	-2.91
956.075	27.51
956.243	-2.71
956.41	62
956.578	-23.25
956.746	-6.01
956.914	-4.46
957.082	33.32
957.25	64.13
957.418	-16.66
957.585	26.74
957.753	49.41
957.921	-9.11
958.089	42.04
958.256	30.81
958.424	43.98
958.592	57.35
958.759	-3.87
958.927	46.31
959.095	45.53
959.262	33.32
959.43	43.59
959.597	4.26
959.765	42.04
959.932	-19.18
960.1	48.82
960.267	31.97
960.435	5.81
960.602	74.01
960.77	11.43
960.937	-26.16
961.104	41.46
961.272	-20.34
961.439	11.82
961.606	45.72
961.774	90.29
961.941	16.47
962.108	53.67
962.275	58.9
962.443	68.59
962.61	24.22
962.777	96.87
962.944	50.18
963.111	54.06
963.278	59.67
963.446	32.16
963.613	37.78
963.78	61.03
963.947	74.59
964.114	43.01
964.281	112.18
964.448	62.19
964.615	33.32
964.782	45.92
964.949	76.53
965.116	43.59
965.282	105.98
965.449	44.56
965.616	-2.91
965.783	86.02
965.95	62.97
966.117	10.85
966.283	40.11
966.45	43.98
966.617	62.39
966.784	74.21
966.95	55.61
967.117	83.7
967.284	21.12
967.45	30.61
967.617	69.36
967.784	32.55
967.95	94.35
968.117	33.13
968.283	81.96
968.45	121.48
968.616	42.04
968.783	70.14
968.949	69.17
969.116	74.79
969.282	31.58
969.449	73.24
969.615	44.95
969.781	-17.05
969.948	45.34
970.114	9.49
970.28	89.7
970.447	26.93
970.613	85.83
970.779	41.66
970.945	54.06
971.112	47.27
971.278	32.74
971.444	45.72
971.61	88.74
971.776	24.8
971.942	58.9
972.108	75.37
972.275	49.79
972.441	68.97
972.607	108.3
972.773	42.62
972.939	53.86
973.105	49.6
973.271	31.58
973.437	38.36
973.602	64.91
973.768	57.35
973.934	41.46
974.1	31
974.266	-28.48
974.432	64.52
974.598	46.69
974.763	67.81
974.929	20.73
975.095	109.27
975.261	25.38
975.426	10.07
975.592	64.13
975.758	117.41
975.923	15.89
976.089	11.43
976.255	80.02
976.42	53.09
976.586	83.12
976.751	60.84
976.917	158.87
977.082	59.87
977.248	-10.46
977.413	-18.6
977.579	39.33
977.744	32.94
977.91	16.66
978.075	20.54
978.24	93.39
978.406	66.65
978.571	1.36
978.736	3.87
978.902	77.5
979.067	-3.1
979.232	-26.35
979.397	44.56
979.563	90.48
979.728	11.82
979.893	26.35
980.058	0.97
980.223	81.57
980.388	36.81
980.554	37.39
980.719	-18.02
980.884	47.47
981.049	103.27
981.214	30.42
981.379	67.23
981.544	36.23
981.709	40.3
981.874	36.62
982.039	50.18
982.204	56.19
982.368	42.82
982.533	4.84
982.698	97.26
982.863	89.7
983.028	-4.07
983.193	44.56
983.357	30.22
983.522	31.58
983.687	32.36
983.852	30.81
984.016	19.57
984.181	60.64
984.346	48.24
984.51	62
984.675	48.63
984.839	69.17
985.004	30.42
985.168	77.69
985.333	58.9
985.498	31.19
985.662	84.28
985.827	24.61
985.991	35.07
986.155	37.01
986.32	77.31
986.484	100.94
986.649	49.79
986.813	-14.53
986.977	42.24
987.142	73.43
987.306	-6.2
987.47	38.36
987.634	32.36
987.799	18.79
987.963	45.53
988.127	49.21
988.291	105.59
988.455	37.01
988.62	24.8
988.784	57.16
988.948	78.27
989.112	3.68
989.276	68.39
989.44	24.8
989.604	20.73
989.768	36.23
989.932	114.5
990.096	-1.74
990.26	-6.78
990.424	2.52
990.588	18.99
990.752	90.48
990.915	72.07
991.079	26.93
991.243	12.98
991.407	68.59
991.571	39.14
991.734	78.27
991.898	35.84
992.062	127.68
992.226	-10.27
992.389	13.76
992.553	-12.01
992.717	2.32
992.88	27.71
993.044	14.92
993.207	17.63
993.371	60.26
993.535	44.95
993.698	59.87
993.862	62.19
994.025	71.88
994.189	43.01
994.352	49.02
994.515	64.71
994.679	82.54
994.842	7.94
995.006	84.67
995.169	17.82
995.332	10.07
995.496	63.55
995.659	2.32
995.822	5.81
995.985	50.18
996.149	55.8
996.312	23.25
996.475	79.63
996.638	15.11
996.801	85.64
996.964	109.85
997.128	4.65
997.291	46.69
997.454	50.57
997.617	-23.64
997.78	86.02
997.943	36.62
998.106	84.47
998.269	12.21
998.432	25.77
998.595	25.96
998.758	-13.37
998.92	18.99
999.083	-31.39
999.246	60.64
999.409	16.47
999.572	9.3
999.735	26.54
999.897	31.58
1000.06	40.49
1000.223	30.03
1000.386	49.41
1000.548	48.63
1000.711	53.28
1000.874	51.15
1001.036	-1.74
1001.199	78.47
1001.361	30.22
1001.524	47.47
1001.687	69.17
1001.849	-8.91
1002.012	54.44
1002.174	40.88
1002.337	56.38
1002.499	30.22
1002.661	63.74
1002.824	16.08
1002.986	4.26
1003.149	33.13
1003.311	-14.92
1003.473	87.38
1003.636	29.84
1003.798	59.09
1003.96	42.43
1004.123	26.93
1004.285	30.81
1004.447	58.9
1004.609	16.47
1004.771	61.03
1004.933	-2.52
1005.096	-4.84
1005.258	-5.62
1005.42	17.63
1005.582	62.97
1005.744	40.88
1005.906	-27.12
1006.068	48.05
1006.23	-11.82
1006.392	-18.02
1006.554	-7.94
1006.716	60.64
1006.878	30.81
1007.04	-13.17
1007.202	-14.72
1007.363	43.59
1007.525	21.12
1007.687	62.39
1007.849	69.17
1008.011	-34.1
1008.172	-12.21
1008.334	2.91
1008.496	58.9
1008.658	-30.03
1008.819	9.11
1008.981	-6.39
1009.143	-14.14
1009.304	13.37
1009.466	41.07
1009.627	52.7
1009.789	113.34
1009.95	27.12
1010.112	-0
1010.273	16.08
1010.435	1.74
1010.596	24.02
1010.758	-3.49
1010.919	12.21
1011.081	-18.21
1011.242	12.98
1011.403	52.51
1011.565	-0.77
1011.726	55.02
1011.887	14.53
1012.049	31.58
1012.21	47.08
1012.371	59.09
1012.532	-28.67
1012.693	11.04
1012.855	7.94
1013.016	11.62
1013.177	44.17
1013.338	13.76
1013.499	82.34
1013.66	34.68
1013.821	32.74
1013.982	13.56
1014.143	35.46
1014.304	12.01
1014.465	22.28
1014.626	52.89
1014.787	-0
1014.948	94.35
1015.109	-34.68
1015.27	52.31
1015.431	-14.53
1015.592	15.89
1015.752	67.42
1015.913	20.34
1016.074	36.81
1016.235	-4.46
1016.395	8.33
1016.556	12.59
1016.717	24.02
1016.877	62.58
1017.038	-0.39
1017.199	50.76
1017.359	4.07
1017.52	5.04
1017.681	22.28
1017.841	0.77
1018.002	1.94
1018.162	3.68
1018.323	84.67
1018.483	6.78
1018.644	17.63
1018.804	-41.27
1018.964	-27.32
1019.125	3.1
1019.285	7.94
1019.446	-12.21
1019.606	-23.83
1019.766	-65.87
1019.926	54.06
1020.087	19.76
1020.247	-0
1020.407	25.77
1020.567	71.69
1020.728	-9.49
1020.888	-15.69
1021.048	6.78
1021.208	5.04
1021.368	-25.96
1021.528	51.34
1021.688	35.07
1021.848	48.44
1022.008	12.79
1022.168	18.41
1022.328	16.47
1022.488	33.52
1022.648	-2.71
1022.808	-5.23
1022.968	36.23
1023.128	-18.99
1023.288	20.54
1023.448	7.17
1023.608	12.01
1023.767	61.42
1023.927	-30.81
1024.087	-29.64
1024.247	-18.99
1024.406	-13.37
1024.566	-1.16
1024.726	-23.25
1024.885	13.95
1025.045	49.02
1025.205	12.79
1025.364	4.84
1025.524	12.4
1025.683	-10.27
1025.843	22.09
1026.003	17.44
1026.162	71.69
1026.321	38.56
1026.481	23.44
1026.64	-26.16
1026.8	15.11
1026.959	19.96
1027.119	39.33
1027.278	4.26
1027.437	-18.41
1027.597	7.36
1027.756	24.02
1027.915	26.54
1028.074	39.52
1028.234	-24.99
1028.393	28.67
1028.552	20.15
1028.711	-64.91
1028.87	58.12
1029.03	-43.4
1029.189	-8.52
1029.348	-56.19
1029.507	-11.43
1029.666	29.06
1029.825	-10.07
1029.984	-5.42
1030.143	22.47
1030.302	4.26
1030.461	-60.26
1030.62	6.78
1030.779	40.88
1030.938	7.17
1031.097	-30.22
1031.255	29.26
1031.414	51.34
1031.573	38.17
1031.732	-20.92
1031.891	0.77
1032.049	46.31
1032.208	18.41
1032.367	-19.57
1032.525	-9.11
1032.684	-1.94
1032.843	-4.84
1033.001	-63.55
1033.16	133.1
1033.319	45.53
1033.477	10.46
1033.636	-11.82
1033.794	-10.66
1033.953	46.5
1034.111	9.69
1034.27	-5.42
1034.428	10.27
1034.587	-16.66
1034.745	29.26
1034.903	-15.31
1035.062	32.55
1035.22	-32.55
1035.378	1.94
1035.537	-0.97
1035.695	41.46
1035.853	-13.17
1036.011	38.17
1036.17	27.51
1036.328	-37.78
1036.486	17.44
1036.644	4.26
1036.802	-60.64
1036.96	-18.41
1037.119	26.16
1037.277	-19.96
1037.435	-27.71
1037.593	-18.21
1037.751	17.44
1037.909	45.72
1038.067	45.72
