Data from pine_FLMT105791__1__17-19-35-080.txt Node

Date: Mon Mar 20 17:19:35 GMT 2023
User: antho
Spectrometer: FLMT10579
Trigger mode: 0
Integration Time (sec): 1.000000E-1
Scans to average: 10
Electric dark correction enabled: true
Nonlinearity correction enabled: false
Boxcar width: 0
XAxis mode: Wavelengths
Number of Pixels in Spectrum: 3648
>>>>>Begin Spectral Data<<<<<
345.248	-172.26
345.464	-172.26
345.681	-172.26
345.898	-192.99
346.114	-157.15
346.331	-28.3
346.548	22.07
346.764	7.35
346.981	0.37
347.197	-12.22
347.414	14.71
347.631	-36.63
347.847	55.98
348.064	-17.65
348.28	34.28
348.497	-39.35
348.713	-0.6
348.93	18.97
349.146	20.71
349.363	-11.83
349.579	12.58
349.796	-2.53
350.012	-19
350.229	10.25
350.445	7.54
350.661	-23.46
350.878	13.93
351.094	26.33
351.311	32.73
351.527	0.76
351.743	-21.52
351.96	18.58
352.176	37.38
352.392	12.77
352.609	22.26
352.825	1.53
353.041	12.96
353.257	-11.83
353.474	17.23
353.69	0.76
353.906	9.48
354.122	-30.82
354.339	31.37
354.555	5.6
354.771	-9.7
354.987	47.06
355.203	45.51
355.42	-28.3
355.636	-22.88
355.852	-29.47
356.068	28.08
356.284	-36.25
356.5	65.08
356.716	26.72
356.932	-18.23
357.148	38.73
357.364	10.83
357.58	25.56
357.796	69.35
358.012	43.19
358.228	27.88
358.444	-55.82
358.66	62.56
358.876	9.86
359.092	1.34
359.308	8.7
359.524	10.06
359.74	-12.42
359.956	-13
360.172	-0.21
360.388	20.52
360.604	-3.12
360.819	86.4
361.035	13.93
361.251	25.36
361.467	-21.33
361.683	55.4
361.898	7.54
362.114	7.15
362.33	15.29
362.546	43.19
362.762	1.92
362.977	13.35
363.193	-30.05
363.409	55.59
363.624	-17.07
363.84	-48.45
364.056	-15.71
364.271	38.73
364.487	10.06
364.703	-13.38
364.918	-44.97
365.134	-10.28
365.35	0.76
365.565	98.02
365.781	23.04
365.996	28.66
366.212	68.76
366.427	9.48
366.643	-2.92
366.858	-11.64
367.074	-33.34
367.289	35.44
367.505	111.58
367.72	-31.6
367.936	-13.38
368.151	22.85
368.367	27.11
368.582	24.78
368.798	-23.85
369.013	61.4
369.228	-6.41
369.444	7.15
369.659	69.54
369.874	22.85
370.09	48.03
370.305	-48.26
370.52	-8.73
370.736	61.01
370.951	6.96
371.166	49.78
371.381	70.12
371.597	53.46
371.812	-19.78
372.027	-11.83
372.242	-0.21
372.458	96.47
372.673	2.5
372.888	19.55
373.103	45.32
373.318	114.68
373.533	45.32
373.749	39.51
373.964	-31.02
374.179	61.79
374.394	6.77
374.609	71.67
374.824	-41.87
375.039	54.81
375.254	-18.62
375.469	72.83
375.684	3.47
375.899	45.51
376.114	-17.45
376.329	18.78
376.544	39.12
376.759	33.7
376.974	-5.83
377.189	36.6
377.404	-18.42
377.619	47.06
377.834	-41.28
378.049	-24.43
378.264	-9.32
378.478	2.5
378.693	-13.77
378.908	33.7
379.123	-20.55
379.338	67.99
379.553	10.45
379.767	5.6
379.982	49
380.197	41.64
380.412	15.1
380.626	6.18
380.841	109.45
381.056	20.91
381.271	74
381.485	-42.45
381.7	-29.85
381.915	13.55
382.129	-6.22
382.344	37.18
382.559	-1.37
382.773	25.95
382.988	-52.72
383.202	35.44
383.417	-32.18
383.632	107.13
383.846	30.21
384.061	24.2
384.275	9.09
384.49	29.82
384.704	36.99
384.919	3.08
385.133	9.67
385.348	36.41
385.562	-21.52
385.777	33.11
385.991	12.58
386.206	0.57
386.42	-13
386.634	51.33
386.849	25.95
387.063	42.8
387.277	-34.12
387.492	-26.17
387.706	-29.66
387.92	-17.65
388.135	52.1
388.349	10.06
388.563	23.62
388.778	28.27
388.992	34.66
389.206	54.04
389.42	76.51
389.635	2.7
389.849	52.88
390.063	51.52
390.277	15.1
390.491	68.18
390.706	34.47
390.92	49
391.134	20.71
391.348	46.29
391.562	-35.28
391.776	8.31
391.99	1.92
392.205	28.66
392.419	11.41
392.633	1.92
392.847	62.18
393.061	-13.97
393.275	88.72
393.489	5.02
393.703	25.56
393.917	63.15
394.131	-4.67
394.345	31.76
394.559	45.9
394.773	-6.99
394.986	52.88
395.2	1.53
395.414	49.39
395.628	-5.83
395.842	34.08
396.056	8.12
396.27	-23.27
396.484	35.44
396.697	42.22
396.911	56.75
397.125	33.11
397.339	66.44
397.553	21.68
397.766	81.75
397.98	55.59
398.194	59.27
398.408	18.78
398.621	59.85
398.835	54.43
399.049	22.26
399.262	65.08
399.476	67.21
399.69	52.3
399.903	91.82
400.117	17.03
400.331	41.83
400.544	-5.25
400.758	125.92
400.971	44.74
401.185	65.86
401.398	-14.16
401.612	74
401.826	63.34
402.039	61.21
402.253	22.85
402.466	55.01
402.68	30.79
402.893	30.79
403.106	48.81
403.32	15.68
403.533	43.38
403.747	26.91
403.96	60.43
404.174	53.26
404.387	2.31
404.6	43.19
404.814	71.67
405.027	28.08
405.24	44.93
405.454	17.23
405.667	72.45
405.88	-29.08
406.094	46.1
406.307	72.83
406.52	44.93
406.733	-5.05
406.947	-25.78
407.16	106.54
407.373	50.75
407.586	17.81
407.799	14.51
408.012	74.19
408.226	50.36
408.439	73.61
408.652	-27.53
408.865	40.28
409.078	88.72
409.291	42.61
409.504	-5.44
409.717	56.95
409.93	20.52
410.143	33.31
410.357	-5.83
410.57	-7.57
410.783	30.98
410.996	55.98
411.209	30.4
411.421	69.93
411.634	59.66
411.847	-12.61
412.06	25.75
412.273	35.25
412.486	51.13
412.699	117.78
412.912	26.91
413.125	58.5
413.338	49.58
413.55	55.98
413.763	43.58
413.976	40.86
414.189	0.18
414.402	32.73
414.615	112.55
414.827	19.94
415.04	54.81
415.253	52.3
415.466	60.63
415.678	119.33
415.891	17.61
416.104	33.31
416.316	4.25
416.529	14.9
416.742	50.55
416.954	77.68
417.167	41.06
417.38	30.6
417.592	76.71
417.805	7.93
418.017	-13
418.23	79.61
418.442	55.78
418.655	12
418.868	57.91
419.08	75.35
419.293	116.04
419.505	54.43
419.718	56.36
419.93	117.39
420.142	44.35
420.355	110.03
420.567	114.29
420.78	58.11
420.992	24.98
421.205	93.56
421.417	28.27
421.629	25.56
421.842	30.98
422.054	-13.97
422.266	71.67
422.479	69.73
422.691	26.72
422.903	67.41
423.115	23.62
423.328	63.92
423.54	71.09
423.752	53.46
423.964	23.23
424.177	35.44
424.389	26.53
424.601	157.69
424.813	54.81
425.025	90.27
425.238	81.16
425.45	33.31
425.662	64.31
425.874	356.09
426.086	56.75
426.298	88.72
426.51	79.81
426.722	33.89
426.934	61.4
427.146	85.81
427.358	28.85
427.57	102.86
427.782	60.63
427.994	63.73
428.206	60.05
428.418	19.16
428.63	71.86
428.842	83.49
429.054	69.35
429.266	91.24
429.478	51.71
429.69	78.65
429.902	1.92
430.114	71.67
430.325	114.49
430.537	66.25
430.749	66.63
430.961	17.61
431.173	86.59
431.384	72.64
431.596	8.12
431.808	57.33
432.02	70.7
432.231	87.75
432.443	102.09
432.655	52.49
432.867	43.77
433.078	86.2
433.29	143.55
433.502	121.66
433.713	123.59
433.925	86.98
434.136	98.21
434.348	28.46
434.56	22.07
434.771	185.98
434.983	37.96
435.194	63.34
435.406	60.63
435.617	107.9
435.829	129.02
436.04	88.72
436.252	105.38
436.463	139.87
436.675	104.03
436.886	112.36
437.098	86.01
437.309	145.49
437.521	84.46
437.732	124.18
437.943	102.09
438.155	111.39
438.366	42.61
438.578	160.99
438.789	106.93
439	127.86
439.211	66.25
439.423	119.72
439.634	122.04
439.845	149.56
440.057	126.31
440.268	135.99
440.479	89.11
440.69	107.32
440.902	72.45
441.113	97.83
441.324	104.61
441.535	129.99
441.746	150.53
441.957	83.1
442.168	105.19
442.38	113.13
442.591	152.46
442.802	92.98
443.013	71.28
443.224	145.49
443.435	123.98
443.646	107.13
443.857	113.52
444.068	121.08
444.279	87.36
444.49	165.64
444.701	102.48
444.912	222.99
445.123	159.05
445.334	159.44
445.545	143.16
445.756	151.49
445.967	98.21
446.178	145.68
446.388	155.95
446.599	177.84
446.81	151.3
447.021	121.27
447.232	169.51
447.443	172.81
447.653	122.24
447.864	156.34
448.075	158.28
448.286	161.96
448.496	162.73
448.707	176.68
448.918	155.18
449.129	265.03
449.339	122.63
449.55	188.11
449.761	136.19
449.971	207.49
450.182	144.33
450.393	169.71
450.603	126.5
450.814	186.76
451.024	162.34
451.235	168.93
451.446	205.36
451.656	217.37
451.867	140.64
452.077	196.83
452.288	223.57
452.498	212.91
452.709	157.69
452.919	182.49
453.13	134.44
453.34	209.62
453.55	119.33
453.761	186.17
453.971	188.69
454.182	186.17
454.392	204.97
454.602	236.94
454.813	178.43
455.023	220.08
455.233	127.66
455.444	178.23
455.654	132.7
455.864	171.26
456.075	153.63
456.285	167.96
456.495	155.18
456.705	186.56
456.916	231.51
457.126	237.52
457.336	191.21
457.546	119.53
457.756	167.77
457.967	205.55
458.177	175.71
458.387	177.07
458.597	169.51
458.807	187.14
459.017	158.08
459.227	165.83
459.437	182.69
459.647	228.41
459.857	207.49
460.068	172.81
460.278	231.32
460.488	184.04
460.698	256.51
460.908	195.86
461.117	148.78
461.327	172.23
461.537	192.76
461.747	208.84
461.957	200.51
462.167	307.85
462.377	228.8
462.587	213.69
462.797	229.96
463.007	209.42
463.216	237.32
463.426	229.77
463.636	243.91
463.846	162.34
464.056	202.26
464.265	236.36
464.475	196.06
464.685	209.62
464.895	234.81
465.104	213.88
465.314	250.89
465.524	191.41
465.733	205.55
465.943	263.48
466.153	312.89
466.362	252.44
466.572	240.81
466.782	214.46
466.991	231.32
467.201	256.31
467.41	176.49
467.62	235
467.829	203.22
468.039	215.04
468.249	217.95
468.458	231.71
468.668	267.16
468.877	258.06
469.086	296.22
469.296	288.47
469.505	205.94
469.715	291.57
469.924	266.58
470.134	278.01
470.343	303.78
470.552	249.92
470.762	243.33
470.971	218.72
471.18	253.41
471.39	235
471.599	234.42
471.808	265.61
472.018	235.39
472.227	300.68
472.436	306.69
472.645	241.39
472.855	225.7
473.064	309.2
473.273	270.45
473.482	294.87
473.691	311.53
473.901	275.3
474.11	270.07
474.319	362.1
474.528	286.34
474.737	314.05
474.946	316.57
475.155	298.16
475.364	342.92
475.573	302.23
475.783	280.72
475.992	331.29
476.201	373.53
476.41	305.33
476.619	257.86
476.828	306.69
477.037	276.46
477.245	301.07
477.454	317.34
477.663	297.19
477.872	277.24
478.081	324.32
478.29	277.24
478.499	397.55
478.708	316.37
478.917	347.95
479.125	317.73
479.334	342.14
479.543	306.1
479.752	347.95
479.961	349.12
480.169	362.87
480.378	286.54
480.587	419.83
480.796	350.09
481.004	365.78
481.213	394.07
481.422	347.18
481.63	346.02
481.839	367.33
482.048	418.48
482.256	348.73
482.465	361.9
482.674	382.63
482.882	398.72
483.091	423.52
483.299	397.17
483.508	410.34
483.716	363.26
483.925	389.03
484.134	353.96
484.342	340.01
484.551	402.4
484.759	411.89
484.967	418.48
485.176	416.93
485.384	391.93
485.593	419.25
485.801	398.72
486.01	396.78
486.218	360.93
486.426	326.06
486.635	370.23
486.843	343.5
487.051	370.62
487.26	374.3
487.468	403.95
487.676	427.2
487.885	363.45
488.093	433.01
488.301	429.33
488.509	424.87
488.717	428.17
488.926	412.08
489.134	399.49
489.342	421.97
489.55	362.29
489.758	418.48
489.967	391.35
490.175	530.27
490.383	421.77
490.591	475.44
490.799	399.88
491.007	482.41
491.215	453.35
491.423	445.41
491.631	438.82
491.839	447.93
492.047	480.67
492.255	409.37
492.463	373.72
492.671	411.7
492.879	485.9
493.087	432.82
493.295	498.3
493.503	477.38
493.711	509.93
493.919	495.01
494.127	509.15
494.334	518.26
494.542	421.38
494.75	473.11
494.958	477.76
495.166	508.57
495.374	476.99
495.581	494.43
495.789	492.68
495.997	521.55
496.205	475.05
496.412	470.6
496.62	470.6
496.828	503.15
497.035	453.74
497.243	508.18
497.451	504.5
497.658	528.91
497.866	510.7
498.074	558.17
498.281	486.1
498.489	587.43
498.696	510.9
498.904	492.1
499.112	492.3
499.319	570.96
499.527	486.29
499.734	558.94
499.942	456.26
500.149	502.37
500.357	535.31
500.564	486.1
500.771	543.06
500.979	476.8
501.186	457.61
501.394	479.7
501.601	531.63
501.808	544.61
502.016	538.99
502.223	528.33
502.43	526.59
502.638	530.46
502.845	502.56
503.052	593.43
503.26	512.45
503.467	629.66
503.674	537.83
503.881	559.33
504.089	625.21
504.296	609.71
504.503	513.61
504.71	552.94
504.917	511.67
505.125	562.82
505.332	550.03
505.539	547.71
505.746	624.24
505.953	610.68
506.16	609.9
506.367	644.77
506.574	606.99
506.781	633.92
506.988	563.4
507.195	608.54
507.402	564.56
507.609	626.56
507.816	572.31
508.023	575.22
508.23	566.11
508.437	573.28
508.644	626.95
508.851	664.92
509.058	623.66
509.265	639.35
509.472	638.77
509.679	701.54
509.885	597.11
510.092	606.22
510.299	620.75
510.506	619.59
510.713	626.56
510.92	622.11
511.126	645.16
511.333	676.74
511.54	648.84
511.746	674.03
511.953	674.03
512.16	688.76
512.367	645.16
512.573	628.5
512.78	640.32
512.987	639.74
513.193	638.96
513.4	590.72
513.606	648.46
513.813	663.18
514.02	644.77
514.226	731.38
514.433	699.61
514.639	615.91
514.846	657.95
515.052	639.54
515.259	656.01
515.465	666.86
515.672	656.21
515.878	748.24
516.085	648.84
516.291	705.61
516.497	655.04
516.704	646.13
516.91	659.5
517.117	600.99
517.323	575.22
517.529	617.07
517.736	628.31
517.942	658.53
518.148	632.37
518.354	678.87
518.561	648.65
518.767	675.58
518.973	676.36
519.179	696.7
519.386	628.5
519.592	686.04
519.798	657.56
520.004	727.5
520.21	695.34
520.417	748.04
520.623	783.89
520.829	763.74
521.035	762.19
521.241	736.42
521.447	758.5
521.653	828.45
521.859	742.23
522.065	763.74
522.271	864.87
522.477	785.24
522.683	840.07
522.889	809.46
523.095	793.19
523.301	768.39
523.507	761.41
523.713	771.29
523.919	745.91
524.125	831.74
524.331	786.79
524.537	879.6
524.742	835.23
524.948	848.6
525.154	872.23
525.36	919.51
525.566	856.35
525.772	913.7
525.977	809.46
526.183	879.02
526.389	889.86
526.595	846.66
526.8	841.82
527.006	766.25
527.212	807.72
527.417	756.18
527.623	745.14
527.829	825.15
528.034	833.68
528.24	844.72
528.446	816.24
528.651	867.58
528.857	865.07
529.062	943.34
529.268	856.93
529.473	909.43
529.679	862.74
529.884	960.97
530.09	913.11
530.295	944.5
530.501	951.48
530.706	889.28
530.912	887.73
531.117	911.95
531.323	890.25
531.528	955.35
531.733	955.55
531.939	934.43
532.144	944.31
532.35	916.99
532.555	960
532.76	963.88
532.966	935.2
533.171	943.92
533.376	950.9
533.581	897.23
533.787	927.65
533.992	941.21
534.197	954.19
534.402	927.65
534.607	942.76
534.813	1013.48
535.018	920.67
535.223	932.68
535.428	957.87
535.633	1010.76
535.838	981.12
536.043	997.78
536.249	1030.72
536.454	972.01
536.659	1039.63
536.864	979.57
537.069	975.89
537.274	984.61
537.479	1002.24
537.684	1030.72
537.889	927.26
538.094	1028.98
538.299	978.99
538.504	1008.05
538.708	1015.03
538.913	1054.16
539.118	1002.24
539.323	986.35
539.528	991.78
539.733	981.7
539.938	1040.41
540.142	1030.33
540.347	972.4
540.552	950.7
540.757	978.79
540.962	997.01
541.166	955.35
541.371	957.68
541.576	970.85
541.781	873.2
541.985	1019.48
542.19	1010.18
542.395	1028.98
542.599	1048.74
542.804	1023.36
543.008	1051.26
543.213	997.59
543.418	984.03
543.622	1045.25
543.827	951.86
544.031	1049.9
544.236	1070.44
544.44	1041.96
544.645	1088.07
544.849	1028.59
545.054	1058.62
545.258	1116.55
545.463	1096.21
545.667	1020.45
545.872	1043.89
546.076	1040.41
546.281	1058.04
546.485	1043.12
546.689	1071.79
546.894	1088.26
547.098	1058.62
547.302	973.18
547.507	1048.54
547.711	1075.86
547.915	1109.77
548.119	1019.09
548.324	1066.17
548.528	1127.01
548.732	1066.56
548.936	1094.27
549.141	1102.02
549.345	1027.81
549.549	1037.11
549.753	1095.82
549.957	1161.69
550.161	1142.32
550.366	1087.68
550.57	1033.24
550.774	1090.97
550.978	1040.6
551.182	1099.11
551.386	1060.36
551.59	1046.03
551.794	1049.71
551.998	1100.47
552.202	1075.28
552.406	1043.89
552.61	1084
552.814	1081.29
553.018	1130.69
553.222	1075.67
553.426	1057.46
553.63	1136.51
553.833	1081.29
554.037	1013.67
554.241	1130.11
554.445	1089.23
554.649	1093.88
554.853	1052.61
555.056	1131.08
555.26	1115.19
555.464	1098.92
555.668	1084.77
555.871	1118.49
556.075	1100.27
556.279	1068.69
556.483	1050.09
556.686	1051.64
556.89	1054.55
557.094	1083.81
557.297	1028.01
557.501	1120.81
557.704	1019.87
557.908	1116.74
558.112	1038.28
558.315	1120.23
558.519	1056.1
558.722	1060.56
558.926	1047.77
559.129	1011.93
559.333	990.61
559.536	1000.3
559.74	997.2
559.943	972.98
560.147	969.11
560.35	1019.09
560.553	968.33
560.757	948.18
560.96	1065.59
561.164	976.08
561.367	1064.04
561.57	1043.7
561.774	1038.66
561.977	1024.33
562.18	984.8
562.384	1087.87
562.587	1029.36
562.79	1001.85
562.993	1016.38
563.197	1064.04
563.4	1058.42
563.603	1111.12
563.806	1124.49
564.009	1013.28
564.212	1044.09
564.416	1003.59
564.619	1057.46
564.822	997.39
565.025	1049.51
565.228	1001.85
565.431	1022.39
565.634	914.66
565.837	978.6
566.04	975.31
566.243	988.48
566.446	898.58
566.649	1031.69
566.852	918.93
567.055	958.06
567.258	1002.24
567.461	1056.29
567.664	1032.66
567.867	931.33
568.07	991.58
568.273	984.03
568.475	1021.42
568.678	953.03
568.881	959.23
569.084	957.29
569.287	878.82
569.489	896.65
569.692	982.67
569.895	968.33
570.098	876.3
570.3	899.16
570.503	834.26
570.706	865.65
570.909	905.95
571.111	847.05
571.314	854.02
571.516	877.66
571.719	909.24
571.922	908.27
572.124	883.08
572.327	892.58
572.529	830.19
572.732	861.38
572.935	925.32
573.137	972.59
573.34	875.53
573.542	942.37
573.745	892.77
573.947	914.47
574.15	883.08
574.352	829.03
574.554	930.75
574.757	847.82
574.959	873.98
575.162	874.95
575.364	815.66
575.566	973.56
575.769	842.59
575.971	878.63
576.173	755.6
576.376	849.95
576.578	888.7
576.78	923.58
576.982	790.09
577.185	859.25
577.387	807.52
577.589	816.82
577.791	836.58
577.993	903.04
578.196	824.38
578.398	872.62
578.6	889.48
578.802	785.44
579.004	823.99
579.206	794.15
579.408	855.77
579.61	792.99
579.812	842.98
580.014	803.45
580.216	804.03
580.418	830
580.62	799.38
580.822	741.84
581.024	812.37
581.226	877.66
581.428	838.52
581.63	924.74
581.832	819.15
582.034	875.14
582.236	811.4
582.438	828.06
582.64	862.93
582.841	877.08
583.043	945.66
583.245	854.8
583.447	858.67
583.649	866.23
583.85	856.73
584.052	887.15
584.254	836.78
584.456	871.65
584.657	781.95
584.859	821.86
585.061	843.95
585.262	803.65
585.464	777.69
585.666	831.74
585.867	803.65
586.069	847.63
586.27	840.27
586.472	850.53
586.674	825.73
586.875	805.78
587.077	828.45
587.278	829.61
587.48	803.65
587.681	923.19
587.883	820.7
588.084	774.39
588.285	798.03
588.487	798.22
588.688	796.09
588.89	744.36
589.091	721.11
589.292	759.09
589.494	741.26
589.695	737.97
589.896	639.93
590.098	661.82
590.299	729.44
590.5	674.61
590.702	703.87
590.903	747.27
591.104	780.4
591.305	745.72
591.507	831.35
591.708	785.24
591.909	716.07
592.11	827.28
592.311	773.62
592.512	736.61
592.714	721.69
592.915	716.65
593.116	754.63
593.317	753.27
593.518	737.58
593.719	775.36
593.92	777.49
594.121	811.4
594.322	744.75
594.523	748.43
594.724	702.32
594.925	742.81
595.126	771.1
595.327	758.5
595.528	734.48
595.729	749.2
595.929	754.63
596.13	747.46
596.331	772.65
596.532	766.84
596.733	799.19
596.934	770.13
597.135	750.95
597.335	764.7
597.536	707.16
597.737	754.44
597.938	743.39
598.138	765.29
598.339	723.82
598.54	757.92
598.74	730.22
598.941	729.05
599.142	794.73
599.342	793.77
599.543	721.11
599.744	744.94
599.944	733.12
600.145	739.71
600.345	764.7
600.546	834.65
600.746	817.98
600.947	847.05
601.147	788.92
601.348	786.21
601.548	733.7
601.749	763.93
601.949	700.19
602.15	725.57
602.35	731.77
602.551	802.29
602.751	710.84
602.951	726.54
603.152	703.67
603.352	769.55
603.552	746.1
603.753	792.22
603.953	742.81
604.153	745.52
604.354	750.95
604.554	784.08
604.754	740.29
604.954	724.79
605.155	761.22
605.355	748.62
605.555	791.05
605.755	807.72
605.955	754.44
606.155	745.91
606.356	765.87
606.556	784.47
606.756	770.9
606.956	716.85
607.156	810.04
607.356	721.5
607.556	761.02
607.756	767.22
607.956	794.35
608.156	746.3
608.356	762.77
608.556	774.59
608.756	757.15
608.956	700.57
609.156	764.12
609.356	709.49
609.556	706.19
609.755	760.25
609.955	697.28
610.155	712.78
610.355	748.43
610.555	730.02
610.755	731.38
610.954	650.97
611.154	712.59
611.354	795.12
611.554	716.27
611.753	709.1
611.953	666.28
612.153	754.82
612.352	715.1
612.552	700.38
612.752	640.51
612.951	689.92
613.151	708.52
613.351	700.96
613.55	684.88
613.75	720.53
613.949	683.91
614.149	731.38
614.348	712.59
614.548	663.96
614.747	656.4
614.947	683.52
615.146	634.51
615.346	728.47
615.545	701.93
615.745	698.25
615.944	731.96
616.144	680.62
616.343	719.95
616.542	690.5
616.742	692.44
616.941	699.61
617.14	611.64
617.34	656.21
617.539	657.37
617.738	627.14
617.938	715.1
618.137	676.74
618.336	641.09
618.535	682.94
618.734	672.29
618.934	697.09
619.133	703.67
619.332	686.82
619.531	638.77
619.73	672.48
619.929	724.21
620.128	706
620.328	731.38
620.527	646.13
620.726	682.56
620.925	724.02
621.124	669.96
621.323	680.42
621.522	635.09
621.721	638.19
621.92	645.74
622.119	697.67
622.318	622.88
622.517	647.68
622.715	653.49
622.914	587.23
623.113	649.04
623.312	583.55
623.511	676.94
623.71	625.4
623.909	634.7
624.107	710.26
624.306	617.65
624.505	640.12
624.704	637.61
624.902	621.14
625.101	706.39
625.3	656.59
625.499	642.45
625.697	621.91
625.896	616.88
626.095	660.47
626.293	597.89
626.492	608.74
626.69	621.91
626.889	586.46
627.088	670.16
627.286	611.64
627.485	620.75
627.683	616.88
627.882	602.93
628.08	556.23
628.279	569.79
628.477	653.49
628.676	552.74
628.874	635.67
629.073	585.88
629.271	554.68
629.469	619.01
629.668	586.46
629.866	581.03
630.065	576.38
630.263	634.7
630.461	586.26
630.66	600.79
630.858	618.62
631.056	641.29
631.254	621.91
631.453	556.43
631.651	633.92
631.849	588.2
632.047	622.3
632.245	602.54
632.444	611.45
632.642	634.7
632.84	645.55
633.038	579.87
633.236	571.34
633.434	571.54
633.632	572.89
633.83	572.89
634.028	615.33
634.227	600.02
634.425	663.18
634.623	592.46
634.821	594.79
635.019	596.53
635.216	578.51
635.414	632.18
635.612	625.4
635.81	576.96
636.008	651.17
636.206	592.27
636.404	620.56
636.602	560.88
636.8	579.09
636.997	630.24
637.195	646.13
637.393	615.71
637.591	666.86
637.789	629.86
637.986	598.86
638.184	625.59
638.382	660.86
638.58	632.96
638.777	684.49
638.975	605.44
639.173	613
639.37	615.52
639.568	614.36
639.765	618.81
639.963	585.1
640.161	636.06
640.358	627.92
640.556	583.94
640.753	552.94
640.951	530.27
641.148	582.97
641.346	583.36
641.543	571.73
641.741	631.99
641.938	538.99
642.136	603.12
642.333	527.75
642.531	625.79
642.728	654.27
642.925	581.81
643.123	561.66
643.32	618.23
643.517	547.9
643.715	608.16
643.912	574.83
644.109	585.68
644.306	562.24
644.504	552.74
644.701	557.98
644.898	601.96
645.095	553.33
645.293	556.62
645.49	610.29
645.687	593.24
645.884	598.47
646.081	491.71
646.278	549.45
646.475	548.48
646.672	553.13
646.87	579.87
647.067	572.89
647.264	540.93
647.461	502.95
647.658	486.87
647.855	575.03
648.052	524.07
648.249	481.83
648.446	527.36
648.642	512.64
648.839	512.83
649.036	528.14
649.233	486.29
649.43	464.59
649.627	450.64
649.824	520
650.021	497.72
650.217	473.7
650.414	470.98
650.611	532.98
650.808	544.99
651.004	508.38
651.201	538.21
651.398	567.08
651.595	542.48
651.791	494.81
651.988	531.43
652.185	516.71
652.381	508.76
652.578	464.4
652.775	509.73
652.971	518.84
653.168	496.56
653.364	550.03
653.561	458.97
653.757	491.71
653.954	527.17
654.15	500.05
654.347	565.34
654.543	519.23
654.74	466.53
654.936	462.07
655.133	513.22
655.329	504.11
655.525	504.5
655.722	505.47
655.918	463.62
656.115	514.77
656.311	428.75
656.507	422.35
656.704	375.66
656.9	401.62
657.096	405.11
657.292	416.35
657.489	465.95
657.685	464.4
657.881	456.06
658.077	447.54
658.273	464.4
658.47	520.58
658.666	443.08
658.862	504.89
659.058	476.21
659.254	524.26
659.45	448.31
659.646	504.7
659.842	473.89
660.038	512.06
660.234	476.21
660.43	486.29
660.626	557.78
660.822	508.38
661.018	524.85
661.214	479.9
661.41	437.85
661.606	529.5
661.802	517.87
661.998	485.32
662.194	449.48
662.39	496.36
662.586	490.36
662.781	508.76
662.977	496.75
663.173	532.4
663.369	480.48
663.564	500.24
663.76	507.41
663.956	446.76
664.152	501.21
664.347	425.45
664.543	489.39
664.739	467.11
664.934	394.65
665.13	394.65
665.326	495.2
665.521	499.27
665.717	439.98
665.912	434.17
666.108	376.43
666.304	458.78
666.499	418.09
666.695	398.33
666.89	447.35
667.086	482.61
667.281	470.6
667.477	515.35
667.672	472.92
667.867	434.17
668.063	486.68
668.258	452.77
668.454	423.9
668.649	516.51
668.844	440.37
669.04	474.47
669.235	436.3
669.43	420.42
669.626	418.87
669.821	430.3
670.016	395.42
670.211	446.76
670.407	414.02
670.602	432.04
670.797	414.99
670.992	502.56
671.187	435.14
671.382	507.6
671.578	429.33
671.773	459.94
671.968	423.32
672.163	440.76
672.358	471.76
672.553	410.15
672.748	432.43
672.943	478.35
673.138	452.38
673.333	464.59
673.528	377.21
673.723	437.08
673.918	430.88
674.113	371.59
674.308	539.76
674.503	478.35
674.698	458.2
674.892	452.19
675.087	480.67
675.282	421.58
675.477	406.66
675.672	433.01
675.867	394.65
676.061	392.32
676.256	369.65
676.451	435.92
676.646	436.3
676.84	404.33
677.035	384.77
677.23	381.47
677.424	441.92
677.619	455.87
677.814	464.78
678.008	454.13
678.203	373.72
678.397	411.89
678.592	441.92
678.787	499.85
678.981	409.57
679.176	442.31
679.37	431.07
679.565	398.33
679.759	395.62
679.954	445.41
680.148	458.39
680.342	457.42
680.537	447.93
680.731	410.34
680.926	451.8
681.12	490.16
681.314	412.08
681.509	394.45
681.703	408.98
681.897	465.36
682.092	419.06
682.286	417.32
682.48	522.13
682.674	431.65
682.869	410.34
683.063	431.65
683.257	460.13
683.451	397.75
683.645	406.08
683.839	440.76
684.034	399.49
684.228	469.05
684.422	373.33
684.616	399.1
684.81	428.55
685.004	417.9
685.198	420.03
685.392	453.16
685.586	390.58
685.78	411.31
685.974	472.73
686.168	444.44
686.362	456.06
686.556	398.72
686.75	368.88
686.944	390.97
687.138	407.05
687.331	313.85
687.525	316.95
687.719	289.44
687.913	346.21
688.107	359.38
688.301	318.5
688.494	382.05
688.688	317.54
688.882	297.77
689.076	303.39
689.269	334.97
689.463	413.25
689.657	349.89
689.85	340.59
690.044	351.83
690.238	369.65
690.431	383.41
690.625	359.58
690.818	379.53
691.012	376.82
691.205	408.98
691.399	342.14
691.593	422.55
691.786	446.96
691.98	451.03
692.173	476.99
692.366	414.22
692.56	457.42
692.753	469.24
692.947	346.21
693.14	473.5
693.333	480.67
693.527	394.65
693.72	460.52
693.914	438.82
694.107	426.23
694.3	462.65
694.493	422.16
694.687	512.25
694.88	424.87
695.073	507.21
695.266	492.3
695.46	465.75
695.653	540.15
695.846	534.14
696.039	441.53
696.232	487.26
696.425	537.83
696.618	511.09
696.812	510.31
697.005	572.51
697.198	640.51
697.391	587.81
697.584	552.55
697.777	627.14
697.97	597.11
698.163	636.83
698.356	591.3
698.549	681.59
698.742	643.42
698.935	580.64
699.127	604.86
699.32	594.4
699.513	608.35
699.706	629.27
699.899	618.23
700.092	606.22
700.285	639.35
700.477	591.3
700.67	644.39
700.863	631.6
701.056	757.54
701.248	708.32
701.441	682.94
701.634	639.54
701.826	766.06
702.019	657.56
702.212	743
702.404	676.55
702.597	656.4
702.79	705.81
702.982	698.06
703.175	774.2
703.367	766.64
703.56	784.66
703.752	856.73
703.945	778.65
704.137	818.76
704.33	815.66
704.522	802.68
704.715	833.87
704.907	833.1
705.1	865.84
705.292	870.49
705.484	847.24
705.677	898.97
705.869	861
706.061	916.6
706.254	947.02
706.446	885.6
706.638	891.41
706.831	941.79
707.023	920.48
707.215	1012.89
707.407	968.53
707.599	978.6
707.792	1009.02
707.984	975.11
708.176	1031.69
708.368	947.99
708.56	1046.41
708.752	1013.48
708.944	1018.9
709.136	1058.81
709.329	1025.1
709.521	1153.17
709.713	1124.49
709.905	1134.57
710.097	1160.14
710.289	1102.6
710.481	1099.5
710.672	1146.19
710.864	1146.77
711.056	1198.5
711.248	1198.31
711.44	1149.68
711.632	1175.84
711.824	1195.99
712.016	1251.78
712.207	1252.56
712.399	1255.66
712.591	1315.14
712.783	1299.83
712.975	1316.5
713.166	1265.73
713.358	1290.53
713.55	1306.81
713.741	1325.6
713.933	1302.35
714.125	1319.01
714.316	1331.61
714.508	1363.58
714.7	1387.6
714.891	1373.46
715.083	1431.19
715.274	1359.7
715.466	1411.24
715.657	1431
715.849	1321.73
716.04	1393.22
716.232	1366.29
716.423	1418.41
716.615	1323.08
716.806	1313.98
716.998	1282.78
717.189	1247.91
717.381	1181.45
717.572	1167.31
717.763	1207.61
717.955	1200.05
718.146	1167.5
718.337	1163.63
718.528	1144.25
718.72	1073.92
718.911	1127.79
719.102	1106.47
719.293	1136.51
719.485	1133.99
719.676	1117.13
719.867	1109.77
720.058	1082.84
720.249	1124.88
720.44	1154.91
720.632	1181.07
720.823	1199.47
721.014	1286.66
721.205	1294.41
721.396	1382.37
721.587	1461.03
721.778	1480.79
721.969	1454.06
722.16	1524.97
722.351	1520.12
722.542	1606.15
722.733	1624.55
722.924	1534.46
723.115	1587.94
723.305	1584.84
723.496	1606.54
723.687	1452.89
723.878	1515.47
724.069	1521.09
724.26	1503.27
724.45	1474.98
724.641	1452.7
724.832	1529.81
725.023	1503.07
725.213	1475.76
725.404	1468.98
725.595	1482.34
725.785	1483.12
725.976	1549.38
726.167	1536.21
726.357	1544.73
726.548	1620.1
726.739	1542.99
726.929	1615.64
727.12	1623.39
727.31	1652.07
727.501	1607.7
727.691	1626.1
727.882	1604.99
728.072	1682.29
728.263	1656.52
728.453	1685.78
728.644	1708.06
728.834	1679.38
729.024	1660.01
729.215	1679.38
729.405	1687.91
729.596	1757.85
729.786	1751.46
729.976	1781.88
730.167	1785.95
730.357	1754.37
730.547	1748.94
730.737	1781.3
730.928	1811.91
731.118	1889.99
731.308	1787.11
731.498	1808.81
731.688	1874.29
731.879	1898.51
732.069	1953.73
732.259	1956.83
732.449	1946.37
732.639	2048.67
732.829	2040.14
733.019	2083.35
733.209	2112.99
733.399	2099.24
733.589	2190.68
733.779	2199.79
733.969	2168.98
734.159	2233.11
734.349	2249
734.539	2328.44
734.729	2277.87
734.919	2289.49
735.109	2336.96
735.299	2256.95
735.488	2352.66
735.678	2353.82
735.868	2331.15
736.058	2314.49
736.248	2306.16
736.437	2295.69
736.627	2266.05
736.817	2380.17
737.007	2354.21
737.196	2364.86
737.386	2377.07
737.576	2295.5
737.765	2411.94
737.955	2401.09
738.144	2467.74
738.334	2438.1
738.524	2373.58
738.713	2440.42
738.903	2466.77
739.092	2453.21
739.282	2455.73
739.471	2458.44
739.661	2463.09
739.85	2493.9
740.04	2498.16
740.229	2536.52
740.419	2559.58
740.608	2555.12
740.797	2534.39
740.987	2588.64
741.176	2574.69
741.365	2515.02
741.555	2504.55
741.744	2585.35
741.933	2503.97
742.123	2614.99
742.312	2604.33
742.501	2639.6
742.69	2616.15
742.88	2534.97
743.069	2666.91
743.258	2597.75
743.447	2668.66
743.636	2636.11
743.825	2638.82
744.014	2641.15
744.204	2639.6
744.393	2615.57
744.582	2695.78
744.771	2680.86
744.96	2644.63
745.149	2649.48
745.338	2631.85
745.527	2664.59
745.716	2636.69
745.905	2639.21
746.094	2676.41
746.283	2662.26
746.471	2713.03
746.66	2766.89
746.849	2698.3
747.038	2736.28
747.227	2696.95
747.416	2751.19
747.604	2709.54
747.793	2693.46
747.982	2699.46
748.171	2713.8
748.359	2728.14
748.548	2725.04
748.737	2734.73
748.926	2672.15
749.114	2630.88
749.303	2708.57
749.491	2659.75
749.68	2627.58
749.869	2685.9
750.057	2661.49
750.246	2657.81
750.434	2643.28
750.623	2665.17
750.811	2638.82
751	2709.15
751.188	2654.9
751.377	2715.16
751.565	2640.37
751.754	2594.84
751.942	2642.5
752.131	2680.67
752.319	2636.3
752.507	2591.16
752.696	2651.8
752.884	2706.44
753.072	2642.31
753.261	2633.59
753.449	2662.07
753.637	2607.63
753.825	2731.82
754.014	2629.91
754.202	2612.47
754.39	2702.56
754.578	2683.58
754.766	2612.08
754.955	2623.52
755.143	2723.49
755.331	2638.82
755.519	2620.03
755.707	2598.91
755.895	2603.75
756.083	2679.9
756.271	2572.75
756.459	2593.29
756.647	2601.62
756.835	2592.71
757.023	2600.65
757.211	2575.08
757.399	2602.2
757.587	2569.07
757.775	2535.75
757.963	2572.17
758.151	2554.15
758.339	2491.96
758.526	2472.2
758.714	2522.19
758.902	2453.41
759.09	2360.02
759.278	2220.91
759.465	2090.32
759.653	1747
759.841	1649.94
760.028	1372.88
760.216	1203.54
760.404	1152.39
760.591	921.25
760.779	766.25
760.967	665.7
761.154	539.96
761.342	630.44
761.529	613.39
761.717	708.71
761.905	651.75
762.092	736.22
762.28	651.75
762.467	682.94
762.655	617.84
762.842	652.14
763.029	644
763.217	635.47
763.404	684.69
763.592	678.68
763.779	622.11
763.966	675.39
764.154	713.75
764.341	765.67
764.528	760.83
764.716	815.27
764.903	854.8
765.09	918.15
765.277	953.03
765.465	1112.48
765.652	1115
765.839	1164.02
766.026	1252.95
766.213	1273.48
766.4	1393.22
766.588	1556.55
766.775	1518.19
766.962	1638.89
767.149	1637.15
767.336	1804.16
767.523	1705.15
767.71	1842.52
767.897	1926.61
768.084	1995.39
768.271	2001.78
768.458	2077.34
768.645	2098.27
768.832	2033.75
769.019	2092.65
769.206	2126.75
769.392	2194.75
769.579	2276.71
769.766	2198.43
769.953	2218.78
770.14	2292.79
770.327	2240.67
770.513	2270.31
770.7	2329.6
770.887	2274.19
771.073	2325.53
771.26	2303.44
771.447	2253.07
771.634	2259.27
771.82	2362.34
772.007	2239.12
772.193	2286.39
772.38	2332.89
772.567	2291.82
772.753	2287.36
772.94	2335.8
773.126	2335.8
773.313	2349.75
773.499	2323.79
773.686	2364.28
773.872	2289.88
774.059	2331.34
774.245	2244.35
774.432	2281.36
774.618	2229.05
774.804	2327.47
774.991	2259.46
775.177	2313.71
775.363	2250.94
775.55	2316.04
775.736	2236.02
775.922	2241.45
776.109	2286.39
776.295	2267.02
776.481	2290.66
776.667	2317.78
776.853	2247.84
777.04	2199.01
777.226	2274.58
777.412	2345.68
777.598	2239.9
777.784	2203.28
777.97	2211.41
778.156	2241.25
778.342	2276.13
778.528	2180.22
778.715	2122.48
778.901	2194.75
779.087	2230.01
779.272	2186.23
779.458	2140.5
779.644	2214.71
779.83	2199.79
780.016	2262.56
780.202	2211.41
780.388	2148.06
780.574	2108.53
780.76	2199.21
780.946	2191.27
781.131	2136.63
781.317	2097.88
781.503	2124.23
781.689	2125.39
781.874	2187.58
782.06	2135.08
782.246	2132.75
782.432	2129.85
782.617	2160.27
782.803	2164.92
782.989	2056.22
783.174	2123.07
783.36	2049.05
783.545	2113.18
783.731	2079.67
783.916	2021.35
784.102	2085.29
784.288	2021.93
784.473	2066.49
784.659	2056.03
784.844	2125.39
785.029	2016.51
785.215	2023.09
785.4	1989.38
785.586	2069.79
785.771	1998.1
785.956	2055.25
786.142	2036.85
786.327	1986.09
786.512	2008.95
786.698	1985.7
786.883	1924.48
787.068	1974.85
787.254	1984.92
787.439	1954.7
787.624	1953.54
787.809	1926.8
787.994	1949.86
788.18	2017.86
788.365	1920.21
788.55	1923.12
788.735	1922.34
788.92	1922.15
789.105	1946.56
789.29	1952.37
789.475	1892.7
789.66	1919.24
789.845	1902.19
790.03	1862.48
790.215	1928.35
790.4	1920.6
790.585	1940.56
790.77	1889.6
790.955	1769.48
791.14	1867.51
791.325	1969.81
791.51	1814.04
791.695	1862.09
791.879	1872.94
792.064	1834.38
792.249	1897.35
792.434	1856.66
792.618	1862.09
792.803	1864.61
792.988	1819.08
793.173	1860.34
793.357	1920.02
793.542	1819.46
793.727	1854.53
793.911	1875.07
794.096	1830.31
794.281	1889.79
794.465	1964.19
794.65	1861.89
794.834	1910.53
795.019	1907.04
795.203	1923.51
795.388	1908.98
795.572	1965.16
795.757	1867.9
795.941	1902
796.126	1893.67
796.31	1846.2
796.494	1870.61
796.679	1871.19
796.863	1845.62
797.048	1907.81
797.232	1906.07
797.416	1869.84
797.601	1852.01
797.785	1953.92
797.969	1932.22
798.153	1826.44
798.338	1867.13
798.522	1934.16
798.706	1964.19
798.89	1931.26
799.074	2020.77
799.258	1935.32
799.443	1906.65
799.627	1894.64
799.811	1909.94
799.995	1919.05
800.179	1868.48
800.363	1885.34
800.547	1914.01
800.731	1970.2
800.915	1827.41
801.099	1908.59
801.283	1880.69
801.467	1899.87
801.651	1891.54
801.835	1968.46
802.019	1912.46
802.202	1898.51
802.386	1836.9
802.57	1858.99
802.754	1842.91
802.938	1843.68
803.121	1858.02
803.305	1916.14
803.489	1871.19
803.673	1900.26
803.856	1913.82
804.04	1867.51
804.224	1884.37
804.407	1878.17
804.591	1867.9
804.775	1820.43
804.958	1890.96
805.142	1959.35
805.326	1894.25
805.509	1933
805.693	1891.15
805.876	1906.46
806.06	1900.64
806.243	1920.21
806.427	1981.63
806.61	1948.11
806.794	1875.84
806.977	1957.61
807.16	1898.71
807.344	1922.15
807.527	1929.9
807.71	1881.46
807.894	1907.04
808.077	1901.03
808.26	1886.11
808.444	1838.84
808.627	1905.49
808.81	1847.75
808.993	1833.41
809.177	1781.88
809.36	1858.79
809.543	1859.57
809.726	1803.58
809.909	1840.2
810.092	1792.92
810.276	1760.95
810.459	1821.79
810.642	1765.8
810.825	1750.3
811.008	1747
811.191	1672.41
811.374	1694.88
811.557	1720.85
811.74	1777.42
811.923	1672.99
812.106	1669.7
812.289	1651.68
812.472	1628.43
812.654	1694.88
812.837	1623.39
813.02	1574.18
813.203	1559.84
813.386	1484.48
813.569	1460.84
813.751	1459.48
813.934	1488.54
814.117	1487.38
814.3	1429.64
814.482	1415.11
814.665	1372.68
814.848	1341.49
815.03	1306.42
815.213	1338.58
815.396	1332
815.578	1289.18
815.761	1253.33
815.943	1342.26
816.126	1228.92
816.309	1222.14
816.491	1172.74
816.674	1120.42
816.856	1183.97
817.039	1128.95
817.221	1241.13
817.403	1192.69
817.586	1212.07
817.768	1199.09
817.951	1131.08
818.133	1093.11
818.315	1189.4
818.498	1198.89
818.68	1286.27
818.862	1188.82
819.045	1259.34
819.227	1205.67
819.409	1210.13
819.591	1204.7
819.774	1206.84
819.956	1187.27
820.138	1219.43
820.32	1254.3
820.502	1257.4
820.684	1320.76
820.866	1336.45
821.048	1379.27
821.231	1341.88
821.413	1324.44
821.595	1345.75
821.777	1325.21
821.959	1328.12
822.141	1407.94
822.323	1280.85
822.505	1242.1
822.686	1204.32
822.868	1186.88
823.05	1057.65
823.232	1053.78
823.414	1001.46
823.596	1054.55
823.778	1066.17
823.96	1073.54
824.141	1072.76
824.323	1099.69
824.505	1162.27
824.687	1219.04
824.868	1206.06
825.05	1288.02
825.232	1350.79
825.413	1371.52
825.595	1324.05
825.777	1247.91
825.958	1334.51
826.14	1286.85
826.321	1324.83
826.503	1286.27
826.685	1308.17
826.866	1338.39
827.048	1333.16
827.229	1317.47
827.411	1254.3
827.592	1204.12
827.773	1227.37
827.955	1162.66
828.136	1194.82
828.318	1162.85
828.499	1216.91
828.68	1161.69
828.862	1197.73
829.043	1237.25
829.224	1208.77
829.406	1144.06
829.587	1161.11
829.768	1153.17
829.949	1152.39
830.131	1188.24
830.312	1237.25
830.493	1189.59
830.674	1230.86
830.855	1183.2
831.036	1164.99
831.218	1233.18
831.399	1263.02
831.58	1185.91
831.761	1187.65
831.942	1213.23
832.123	1178.94
832.304	1177.19
832.485	1145.61
832.666	1166.34
832.847	1197.92
833.028	1198.89
833.209	1167.12
833.389	1127.98
833.57	1137.28
833.751	1146.58
833.932	1227.95
834.113	1180.49
834.294	1139.02
834.475	1226.21
834.655	1204.9
834.836	1235.7
835.017	1230.28
835.198	1147.16
835.378	1175.84
835.559	1231.63
835.74	1184.94
835.92	1219.04
836.101	1164.6
836.281	1180.87
836.462	1196.95
836.643	1270.58
836.823	1274.07
837.004	1246.55
837.184	1311.85
837.365	1250.43
837.545	1255.27
837.726	1214.2
837.906	1259.15
838.087	1237.64
838.267	1237.25
838.448	1184.17
838.628	1227.37
838.808	1237.64
838.989	1301.58
839.169	1176.61
839.349	1264.38
839.53	1276.39
839.71	1254.69
839.89	1239.19
840.07	1245.58
840.251	1212.84
840.431	1273.87
840.611	1232.6
840.791	1207.42
840.971	1233.18
841.151	1233.38
841.332	1195.21
841.512	1258.57
841.692	1179.32
841.872	1225.63
842.052	1215.55
842.232	1235.7
842.412	1165.95
842.592	1210.9
842.772	1204.12
842.952	1234.35
843.132	1180.49
843.312	1177.77
843.492	1170.41
843.672	1232.99
843.851	1127.4
844.031	1189.98
844.211	1161.5
844.391	1162.47
844.571	1201.99
844.751	1221.56
844.93	1203.35
845.11	1182.81
845.29	1217.88
845.47	1240.74
845.649	1199.67
845.829	1204.7
846.009	1153.36
846.188	1209.74
846.368	1197.92
846.547	1142.9
846.727	1224.47
846.907	1136.12
847.086	1159.37
847.266	1186.69
847.445	1189.79
847.625	1146.58
847.804	1115
847.984	1136.89
848.163	1133.41
848.343	1169.83
848.522	1163.44
848.701	1181.26
848.881	1121.78
849.06	1164.4
849.239	1134.57
849.419	1184.17
849.598	1079.16
849.777	1081.29
849.957	1064.82
850.136	1030.53
850.315	1004.37
850.494	1017.35
850.674	1070.44
850.853	1115.58
851.032	1083.42
851.211	1113.26
851.39	1068.31
851.569	1031.3
851.748	1051.84
851.927	1088.46
852.107	1103.76
852.286	1028.78
852.465	1028.78
852.644	1100.86
852.823	1094.85
853.002	1074.51
853.181	1040.02
853.359	1061.52
853.538	1028.98
853.717	1098.14
853.896	980.15
854.075	962.91
854.254	945.86
854.433	892.38
854.611	939.08
854.79	898.78
854.969	939.27
855.148	957.1
855.327	934.43
855.505	951.28
855.684	935.4
855.863	987.51
856.041	948.76
856.22	1017.16
856.399	947.99
856.577	1044.28
856.756	984.61
856.934	1142.12
857.113	1107.25
857.291	1008.83
857.47	1017.16
857.648	1010.38
857.827	1028.98
858.005	1077.99
858.184	979.38
858.362	1094.66
858.541	1014.44
858.719	1015.99
858.898	985.96
859.076	962.91
859.254	1080.12
859.433	1006.89
859.611	987.13
859.789	965.81
859.967	1077.22
860.146	1057.65
860.324	959.61
860.502	975.69
860.68	915.83
860.859	991.78
861.037	1004.37
861.215	1017.54
861.393	1024.13
861.571	961.94
861.749	946.44
861.927	994.49
862.105	996.81
862.283	979.96
862.461	935.98
862.639	931.52
862.817	923.38
862.995	986.74
863.173	938.5
863.351	975.5
863.529	976.47
863.707	1010.76
863.885	958.65
864.063	929.39
864.241	943.73
864.418	971.63
864.596	947.21
864.774	892.96
864.952	969.69
865.129	978.41
865.307	914.47
865.485	898.2
865.663	940.82
865.84	882.31
866.018	916.6
866.196	791.64
866.373	806.94
866.551	805.58
866.728	735.64
866.906	778.27
867.084	789.5
867.261	842.4
867.439	849.76
867.616	887.35
867.794	854.8
867.971	849.37
868.149	884.44
868.326	933.46
868.503	904.2
868.681	883.28
868.858	853.44
869.035	814.5
869.213	900.91
869.39	871.85
869.567	929.39
869.745	861.58
869.922	854.02
870.099	872.43
870.276	888.51
870.454	892.38
870.631	911.37
870.808	810.43
870.985	913.7
871.162	947.02
871.339	909.82
871.517	852.86
871.694	818.57
871.871	884.05
872.048	859.83
872.225	836.39
872.402	846.66
872.579	827.48
872.756	844.72
872.933	805.58
873.11	857.12
873.287	845.88
873.463	830.77
873.64	838.52
873.817	870.88
873.994	817.79
874.171	789.31
874.348	822.05
874.524	782.72
874.701	806.75
874.878	733.32
875.055	842.59
875.231	808.68
875.408	833.68
875.585	768
875.762	807.91
875.938	785.63
876.115	790.28
876.291	811.78
876.468	797.45
876.645	748.24
876.821	788.34
876.998	782.34
877.174	784.08
877.351	789.12
877.527	757.34
877.704	800.55
877.88	776.52
878.057	741.84
878.233	805.78
878.409	780.01
878.586	795.32
878.762	790.67
878.938	769.16
879.115	708.13
879.291	784.85
879.467	718.79
879.644	729.05
879.82	773.23
879.996	729.25
880.172	702.32
880.349	732.74
880.525	785.05
880.701	697.47
880.877	683.72
881.053	748.24
881.229	715.1
881.405	775.36
881.581	719.17
881.757	736.22
881.933	779.04
882.109	780.79
882.285	738.74
882.461	669.38
882.637	755.79
882.813	703.87
882.989	704.64
883.165	794.93
883.341	710.07
883.517	765.87
883.693	756.18
883.869	747.27
884.044	687.98
884.22	755.99
884.396	779.82
884.572	747.85
884.747	795.9
884.923	753.08
885.099	768.77
885.275	770.71
885.45	725.18
885.626	710.65
885.801	703.29
885.977	707.74
886.153	662.21
886.328	745.72
886.504	707.55
886.679	764.7
886.855	716.65
887.03	743.78
887.206	758.89
887.381	729.44
887.557	740.29
887.732	747.27
887.908	760.44
888.083	782.72
888.258	725.95
888.434	710.26
888.609	734.48
888.784	770.9
888.96	670.93
889.135	706.58
889.31	699.22
889.485	741.45
889.661	717.43
889.836	756.57
890.011	726.34
890.186	698.64
890.361	706.39
890.537	717.24
890.712	717.04
890.887	725.37
891.062	725.57
891.237	784.08
891.412	699.61
891.587	726.73
891.762	758.89
891.937	749.01
892.112	700.77
892.287	735.06
892.462	670.35
892.637	670.16
892.812	653.3
892.987	687.59
893.161	662.02
893.336	684.49
893.511	643.03
893.686	675.97
893.861	679.07
894.035	708.32
894.21	651.36
894.385	654.07
894.56	654.07
894.734	609.71
894.909	583.55
895.084	604.67
895.258	580.45
895.433	599.63
895.608	591.11
895.782	562.63
895.957	561.66
896.131	568.44
896.306	505.08
896.48	528.72
896.655	520.58
896.829	439.4
897.004	491.91
897.178	506.05
897.353	476.02
897.527	535.31
897.701	498.5
897.876	453.74
898.05	527.36
898.224	492.49
898.399	556.23
898.573	501.4
898.747	417.12
898.921	441.73
899.096	390.19
899.27	406.85
899.444	365.97
899.618	422.93
899.792	449.67
899.967	449.09
900.141	487.45
900.315	370.62
900.489	401.43
900.663	425.84
900.837	434.95
901.011	375.08
901.185	504.5
901.359	428.75
901.533	442.89
901.707	431.65
901.881	436.69
902.055	373.92
902.229	453.35
902.403	477.18
902.576	418.09
902.75	450.64
902.924	558.56
903.098	464.98
903.272	515.74
903.446	535.89
903.619	507.99
903.793	533.56
903.967	524.26
904.14	531.82
904.314	561.66
904.488	535.69
904.661	557.78
904.835	528.33
905.009	606.22
905.182	632.18
905.356	559.33
905.529	555.07
905.703	485.51
905.876	519.42
906.05	472.15
906.223	485.51
906.397	407.05
906.57	436.88
906.744	417.12
906.917	435.72
907.09	428.75
907.264	423.9
907.437	379.92
907.61	377.21
907.784	420.61
907.957	400.65
908.13	377.79
908.304	430.88
908.477	378.76
908.65	395.42
908.823	362.48
908.996	444.25
909.17	348.54
909.343	373.33
909.516	399.88
909.689	365.58
909.862	352.8
910.035	371.01
910.208	345.82
910.381	359
910.554	439.02
910.727	383.02
910.9	352.8
911.073	343.69
911.246	427.2
911.419	422.55
911.592	395.23
911.765	388.64
911.938	351.05
912.11	405.3
912.283	380.5
912.456	404.53
912.629	404.14
912.802	357.45
912.974	328
913.147	300.49
913.32	294.09
913.493	304.75
913.665	319.47
913.838	293.32
914.01	307.85
914.183	338.85
914.356	313.08
914.528	380.31
914.701	390.77
914.873	374.11
915.046	326.84
915.218	317.92
915.391	251.27
915.563	260.77
915.736	341.37
915.908	340.4
916.081	312.11
916.253	295.06
916.425	330.32
916.598	313.47
916.77	342.14
916.942	303.39
917.115	230.54
917.287	300.87
917.459	278.79
917.632	281.11
917.804	229.57
917.976	286.15
918.148	281.89
918.32	276.46
918.493	340.4
918.665	351.44
918.837	326.45
919.009	377.98
919.181	328.77
919.353	348.34
919.525	336.72
919.697	354.74
919.869	312.69
920.041	380.5
920.213	432.62
920.385	376.24
920.557	305.33
920.729	346.4
920.901	345.44
921.073	308.82
921.244	314.63
921.416	367.33
921.588	325.29
921.76	305.91
921.932	404.33
922.103	329.16
922.275	328
922.447	347.95
922.619	278.01
922.79	337.3
922.962	309.98
923.134	336.72
923.305	291.77
923.477	260.96
923.648	274.52
923.82	303.97
923.991	243.91
924.163	252.82
924.335	261.74
924.506	235.97
924.677	361.9
924.849	258.25
925.02	294.29
925.192	326.25
925.363	304.55
925.535	322.77
925.706	272
925.877	333.04
926.049	286.92
926.22	282.08
926.391	322.19
926.562	333.42
926.734	283.82
926.905	294.09
927.076	227.06
927.247	283.24
927.419	229.38
927.59	225.51
927.761	243.52
927.932	226.47
928.103	233.06
928.274	191.41
928.445	199.16
928.616	223.37
928.787	218.14
928.958	243.14
929.129	242.17
929.3	213.88
929.471	169.51
929.642	108.48
929.813	83.3
929.984	194.31
930.155	97.05
930.326	155.95
930.496	128.24
930.667	72.06
930.838	128.63
931.009	99.57
931.18	100.15
931.35	106.35
931.521	115.84
931.692	80.2
931.863	24.4
932.033	87.17
932.204	81.36
932.374	92.79
932.545	33.5
932.716	115.46
932.886	86.01
933.057	11.03
933.227	53.65
933.398	118.75
933.568	40.48
933.739	0.95
933.909	32.53
934.08	80.58
934.25	-37.99
934.421	-17.07
934.591	3.47
934.761	23.43
934.932	-38.38
935.102	-0.02
935.272	2.5
935.443	-0.02
935.613	32.15
935.783	64.11
935.953	-6.02
936.123	165.44
936.294	1.53
936.464	21.1
936.634	11.61
936.804	-6.02
936.974	-9.32
937.144	46.48
937.314	7.54
937.484	-7.57
937.655	-4.28
937.825	56.95
937.995	-3.5
938.165	75.35
938.334	13.74
938.504	25.95
938.674	14.13
938.844	14.51
939.014	86.59
939.184	48.23
939.354	93.56
939.524	116.04
939.694	55.01
939.863	46.68
940.033	102.67
940.203	109.06
940.373	109.84
940.542	91.43
940.712	52.68
940.882	95.11
941.051	88.14
941.221	101.89
941.391	100.54
941.56	30.98
941.73	34.47
941.899	151.49
942.069	39.51
942.238	94.73
942.408	23.81
942.577	88.14
942.747	42.22
942.916	-12.61
943.086	25.36
943.255	88.91
943.425	44.16
943.594	45.9
943.763	-8.54
943.933	6.57
944.102	-22.3
944.271	11.03
944.441	57.33
944.61	18
944.779	12
944.948	119.91
945.117	7.15
945.287	24.78
945.456	-19.2
945.625	21.3
945.794	48.61
945.963	9.67
946.132	60.43
946.301	20.91
946.47	57.33
946.639	-42.45
946.808	6.38
946.977	56.95
947.146	84.07
947.315	8.31
947.484	54.23
947.653	33.5
947.822	10.25
947.991	28.27
948.16	107.13
948.329	61.4
948.498	43
948.666	38.73
948.835	58.69
949.004	7.54
949.173	-18.81
949.341	44.16
949.51	32.53
949.679	86.78
949.847	74.96
950.016	117.78
950.185	93.18
950.353	11.22
950.522	24.01
950.69	62.56
950.859	32.15
951.028	80.78
951.196	46.29
951.365	6.96
951.533	39.7
951.701	70.7
951.87	51.71
952.038	17.61
952.207	25.36
952.375	99.18
952.543	21.88
952.712	24.01
952.88	1.15
953.048	102.67
953.217	42.22
953.385	35.63
953.553	73.61
953.721	21.88
953.89	32.15
954.058	-4.28
954.226	21.88
954.394	51.33
954.562	-25.4
954.73	37.57
954.898	11.41
955.067	69.15
955.235	22.65
955.403	72.64
955.571	115.46
955.739	43.96
955.907	-2.53
956.075	34.47
956.243	-13.77
956.41	72.83
956.578	-31.6
956.746	25.17
956.914	7.15
957.082	71.86
957.25	50.94
957.418	24.78
957.585	34.66
957.753	73.8
957.921	-0.21
958.089	32.92
958.256	45.71
958.424	27.5
958.592	51.71
958.759	19.55
958.927	87.56
959.095	5.99
959.262	38.73
959.43	41.64
959.597	14.51
959.765	40.86
959.932	-5.25
960.1	61.21
960.267	31.76
960.435	39.12
960.602	76.71
960.77	31.95
960.937	-5.44
961.104	35.63
961.272	0.95
961.439	30.4
961.606	64.31
961.774	70.12
961.941	32.92
962.108	53.07
962.275	37.96
962.443	80.58
962.61	64.5
962.777	113.33
962.944	80.58
963.111	68.96
963.278	53.26
963.446	61.6
963.613	52.88
963.78	48.03
963.947	69.35
964.114	70.51
964.281	112.94
964.448	41.83
964.615	36.99
964.782	57.53
964.949	81.94
965.116	66.25
965.282	80.78
965.449	43.77
965.616	14.71
965.783	80.39
965.95	58.69
966.117	6.77
966.283	54.23
966.45	42.61
966.617	76.51
966.784	117.39
966.95	75.35
967.117	72.64
967.284	35.63
967.45	11.22
967.617	89.3
967.784	78.26
967.95	108.48
968.117	44.74
968.283	80.97
968.45	155.56
968.616	74.77
968.783	111.97
968.949	59.46
969.116	102.28
969.282	70.7
969.449	83.49
969.615	75.16
969.781	22.85
969.948	54.62
970.114	19.75
970.28	127.28
970.447	60.63
970.613	107.71
970.779	54.04
970.945	90.85
971.112	74
971.278	57.14
971.444	66.83
971.61	120.69
971.776	42.03
971.942	85.81
972.108	96.08
972.275	56.56
972.441	66.05
972.607	122.24
972.773	39.31
972.939	71.67
973.105	63.34
973.271	28.85
973.437	58.88
973.602	43
973.768	41.64
973.934	70.51
974.1	83.3
974.266	-17.26
974.432	58.69
974.598	41.25
974.763	86.59
974.929	38.54
975.095	107.9
975.261	60.43
975.426	36.21
975.592	60.63
975.758	98.79
975.923	14.32
976.089	31.56
976.255	98.02
976.42	61.98
976.586	82.91
976.751	83.1
976.917	155.95
977.082	90.85
977.248	11.22
977.413	-10.28
977.579	48.61
977.744	73.03
977.91	2.12
978.075	26.72
978.24	78.26
978.406	54.04
978.571	23.43
978.736	37.76
978.902	53.46
979.067	9.09
979.232	-19.58
979.397	50.55
979.563	112.74
979.728	27.69
979.893	49
980.058	65.28
980.223	82.52
980.388	79.03
980.554	53.85
980.719	34.86
980.884	51.13
981.049	77.29
981.214	23.43
981.379	82.13
981.544	28.08
981.709	41.45
981.874	32.15
982.039	65.66
982.204	89.11
982.368	65.08
982.533	8.9
982.698	77.29
982.863	88.53
983.028	39.12
983.193	67.8
983.357	44.74
983.522	54.04
983.687	30.6
983.852	41.06
984.016	59.27
984.181	69.35
984.346	68.76
984.51	61.79
984.675	70.12
984.839	57.33
985.004	51.33
985.168	86.98
985.333	54.23
985.498	45.51
985.662	53.26
985.827	54.81
985.991	42.41
986.155	57.33
986.32	105.77
986.484	104.22
986.649	40.48
986.813	3.47
986.977	42.41
987.142	74.77
987.306	2.12
987.47	43
987.634	48.03
987.799	21.1
987.963	73.22
988.127	67.02
988.291	109.45
988.455	51.52
988.62	47.84
988.784	55.01
988.948	59.85
989.112	18.39
989.276	76.13
989.44	48.81
989.604	23.81
989.768	48.03
989.932	132.51
990.096	32.53
990.26	-12.03
990.424	4.05
990.588	26.33
990.752	123.98
990.915	79.81
991.079	12.77
991.243	32.73
991.407	82.33
991.571	35.83
991.734	83.88
991.898	64.11
992.062	144.33
992.226	38.35
992.389	10.83
992.553	-10.87
992.717	21.49
992.88	59.66
993.044	47.26
993.207	45.9
993.371	73.61
993.535	68.76
993.698	29.82
993.862	83.1
994.025	112.74
994.189	34.66
994.352	69.54
994.515	26.72
994.679	85.43
994.842	16.26
995.006	58.5
995.169	24.01
995.332	16.06
995.496	62.18
995.659	-0.6
995.822	21.3
995.985	16.26
996.149	103.44
996.312	30.6
996.475	95.5
996.638	30.01
996.801	112.16
996.964	111
997.128	28.27
997.291	49.97
997.454	60.82
997.617	14.32
997.78	76.32
997.943	4.44
998.106	71.09
998.269	23.43
998.432	18.2
998.595	29.24
998.758	5.02
998.92	11.22
999.083	-22.49
999.246	34.86
999.409	-39.54
999.572	-22.88
999.735	1.53
999.897	47.06
1000.06	-10.09
1000.223	11.61
1000.386	68.18
1000.548	37.76
1000.711	42.22
1000.874	52.68
1001.036	-33.34
1001.199	83.49
1001.361	23.81
1001.524	38.35
1001.687	62.76
1001.849	-11.64
1002.012	34.08
1002.174	39.31
1002.337	57.33
1002.499	41.25
1002.661	72.06
1002.824	1.73
1002.986	10.25
1003.149	47.45
1003.311	-19.2
1003.473	93.37
1003.636	15.29
1003.798	57.14
1003.96	36.8
1004.123	39.51
1004.285	19.55
1004.447	2.12
1004.609	24.78
1004.771	77.48
1004.933	5.8
1005.096	-13
1005.258	-6.22
1005.42	23.23
1005.582	74.19
1005.744	47.26
1005.906	-49.42
1006.068	31.37
1006.23	7.73
1006.392	-29.47
1006.554	-4.86
1006.716	67.8
1006.878	37.38
1007.04	-39.93
1007.202	-4.47
1007.363	30.01
1007.525	11.03
1007.687	36.41
1007.849	62.95
1008.011	-13.58
1008.172	-30.05
1008.334	5.8
1008.496	53.46
1008.658	-55.04
1008.819	5.99
1008.981	-28.88
1009.143	-13.38
1009.304	12.19
1009.466	68.57
1009.627	81.75
1009.789	117.59
1009.95	47.65
1010.112	-14.74
1010.273	27.3
1010.435	-0.79
1010.596	18.2
1010.758	17.81
1010.919	-4.08
1011.081	-11.64
1011.242	-8.54
1011.403	65.66
1011.565	13.55
1011.726	36.8
1011.887	-5.05
1012.049	0.57
1012.21	51.13
1012.371	74
1012.532	-29.47
1012.693	23.62
1012.855	-6.8
1013.016	18.2
1013.177	22.07
1013.338	6.77
1013.499	54.81
1013.66	39.7
1013.821	34.66
1013.982	20.33
1014.143	29.63
1014.304	-8.15
1014.465	9.28
1014.626	42.41
1014.787	4.05
1014.948	91.63
1015.109	-62.6
1015.27	46.68
1015.431	-0.79
1015.592	-19.39
1015.752	26.91
1015.913	14.13
1016.074	32.53
1016.235	12.58
1016.395	39.51
1016.556	13.74
1016.717	14.13
1016.877	55.59
1017.038	-5.05
1017.199	24.01
1017.359	27.69
1017.52	31.95
1017.681	-0.6
1017.841	-3.89
1018.002	25.17
1018.162	-31.6
1018.323	48.03
1018.483	3.47
1018.644	5.22
1018.804	-28.88
1018.964	-20.17
1019.125	-28.3
1019.285	26.91
1019.446	5.41
1019.606	-10.28
1019.766	-46.71
1019.926	24.78
1020.087	36.8
1020.247	-38.57
1020.407	37.57
1020.567	51.91
1020.728	1.15
1020.888	-21.91
1021.048	0.76
1021.208	-50.78
1021.368	-34.12
1021.528	56.95
1021.688	61.01
1021.848	40.86
1022.008	43.96
1022.168	-15.32
1022.328	8.12
1022.488	22.26
1022.648	-3.89
1022.808	1.73
1022.968	37.38
1023.128	-26.75
1023.288	-16.87
1023.448	-7.18
1023.608	44.16
1023.767	21.49
1023.927	-24.62
1024.087	-37.02
1024.247	-36.05
1024.406	5.02
1024.566	-48.26
1024.726	3.67
1024.885	12.77
1025.045	40.86
1025.205	12.77
1025.364	6.18
1025.524	12
1025.683	-20.36
1025.843	10.06
1026.003	15.29
1026.162	61.21
1026.321	37.96
1026.481	0.95
1026.64	18.78
1026.8	14.9
1026.959	-8.73
1027.119	18.78
1027.278	-23.07
1027.437	-3.7
1027.597	9.28
1027.756	10.45
1027.915	8.51
1028.074	16.06
1028.234	-37.22
1028.393	-1.76
1028.552	-11.83
1028.711	-54.65
1028.87	26.14
1029.03	-34.5
1029.189	3.86
1029.348	-80.03
1029.507	-15.52
1029.666	1.92
1029.825	-37.8
1029.984	-19.58
1030.143	5.02
1030.302	-22.1
1030.461	-88.17
1030.62	21.1
1030.779	26.14
1030.938	-53.68
1031.097	-36.05
1031.255	8.9
1031.414	40.67
1031.573	24.01
1031.732	-54.07
1031.891	-17.07
1032.049	18.39
1032.208	28.46
1032.367	-18.42
1032.525	7.35
1032.684	-11.06
1032.843	-1.76
1033.001	-57.17
1033.16	146.65
1033.319	32.73
1033.477	13.16
1033.636	0.57
1033.794	-45.74
1033.953	38.93
1034.111	30.21
1034.27	-23.27
1034.428	35.05
1034.587	-0.02
1034.745	20.13
1034.903	8.9
1035.062	15.68
1035.22	-37.99
1035.378	14.51
1035.537	-38.77
1035.695	24.59
1035.853	22.07
1036.011	27.5
1036.17	7.54
1036.328	-47.48
1036.486	20.91
1036.644	15.29
1036.802	-92.43
1036.96	-29.47
1037.119	-43.22
1037.277	-5.83
1037.435	-55.04
1037.593	-20.94
1037.751	9.48
1037.909	31.18
1038.067	31.18
