Data from pine_FLMT105791__89__17-21-29-077.txt Node

Date: Mon Mar 20 17:21:29 GMT 2023
User: antho
Spectrometer: FLMT10579
Trigger mode: 0
Integration Time (sec): 1.000000E-1
Scans to average: 10
Electric dark correction enabled: true
Nonlinearity correction enabled: false
Boxcar width: 0
XAxis mode: Wavelengths
Number of Pixels in Spectrum: 3648
>>>>>Begin Spectral Data<<<<<
345.248	-147.09
345.464	-147.09
345.681	-147.09
345.898	-165.49
346.114	-174.02
346.331	-16.11
346.548	21.09
346.764	1.71
346.981	-5.84
347.197	-33.74
347.414	16.05
347.631	-30.84
347.847	56.74
348.064	10.62
348.28	5.01
348.497	-25.22
348.713	0.55
348.93	13.14
349.146	1.13
349.363	2.49
349.579	3.26
349.796	13.92
350.012	-21.73
350.229	51.31
350.445	10.04
350.661	-18.05
350.878	10.62
351.094	28.84
351.311	26.32
351.527	30.19
351.743	12.76
351.96	24.77
352.176	51.7
352.392	16.63
352.609	51.12
352.825	17.99
353.041	32.9
353.257	11.59
353.474	19.15
353.69	19.15
353.906	16.44
354.122	-21.15
354.339	38.72
354.555	9.07
354.771	4.23
354.987	82.7
355.203	63.32
355.42	4.23
355.636	12.17
355.852	2.29
356.068	23.99
356.284	-22.51
356.5	65.84
356.716	17.21
356.932	1.91
357.148	24.19
357.364	-3.71
357.58	54.8
357.796	71.07
358.012	54.8
358.228	9.85
358.444	-47.69
358.66	68.55
358.876	18.37
359.092	-1.97
359.308	25.74
359.524	15.08
359.74	6.94
359.956	-16.5
360.172	4.04
360.388	68.36
360.604	2.29
360.819	67.97
361.035	60.03
361.251	34.26
361.467	-7.39
361.683	32.32
361.898	46.85
362.114	35.42
362.33	41.82
362.546	58.29
362.762	11.4
362.977	20.31
363.193	-12.43
363.409	53.44
363.624	-13.79
363.84	-9.91
364.056	-1.97
364.271	29.8
364.487	4.42
364.703	-2.55
364.918	-23.28
365.134	-1.19
365.35	2.68
365.565	115.25
365.781	20.12
365.996	36
366.212	67.78
366.427	22.44
366.643	-7.01
366.858	-3.52
367.074	-30.26
367.289	82.5
367.505	111.76
367.72	-23.28
367.936	7.72
368.151	56.15
368.367	28.06
368.582	6.94
368.798	13.72
369.013	68.94
369.228	21.86
369.444	41.04
369.659	72.62
369.874	42.98
370.09	72.43
370.305	-44.21
370.52	-16.11
370.736	38.52
370.951	18.57
371.166	57.9
371.381	81.92
371.597	43.95
371.812	-3.71
372.027	-17.66
372.242	10.43
372.458	95.49
372.673	16.05
372.888	11.98
373.103	32.13
373.318	96.65
373.533	47.24
373.749	33.68
373.964	-7.01
374.179	35.23
374.394	-23.28
374.609	56.15
374.824	-27.35
375.039	53.05
375.254	33.29
375.469	82.89
375.684	24.19
375.899	79.99
376.114	29.61
376.329	24.77
376.544	60.61
376.759	48.6
376.974	-12.82
377.189	40.85
377.404	9.07
377.619	67.97
377.834	-16.31
378.049	-23.09
378.264	-18.83
378.478	12.95
378.693	4.23
378.908	21.09
379.123	14.89
379.338	71.07
379.553	37.17
379.767	36.97
379.982	40.07
380.197	52.67
380.412	27.87
380.626	46.85
380.841	92.97
381.056	23.99
381.271	79.99
381.485	0.94
381.7	-28.13
381.915	43.17
382.129	7.14
382.344	45.69
382.559	8.49
382.773	59.06
382.988	-26.19
383.202	19.34
383.417	-12.43
383.632	116.8
383.846	30
384.061	20.89
384.275	21.67
384.49	59.84
384.704	39.3
384.919	27.29
385.133	6.94
385.348	45.3
385.562	-6.43
385.777	57.9
385.991	-12.04
386.206	8.11
386.42	-16.31
386.634	74.95
386.849	50.92
387.063	24.77
387.277	-34.91
387.492	18.37
387.706	-7.78
387.92	6.36
388.135	65.45
388.349	41.62
388.563	29.03
388.778	31.55
388.992	46.85
389.206	66.04
389.42	99.94
389.635	27.87
389.849	52.67
390.063	58.09
390.277	22.25
390.491	74.75
390.706	51.31
390.92	77.08
391.134	50.73
391.348	54.22
391.562	-8.56
391.776	19.15
391.99	-0.81
392.205	45.5
392.419	5.97
392.633	34.45
392.847	54.6
393.061	6.94
393.275	97.62
393.489	37.94
393.703	10.04
393.917	93.35
394.131	14.31
394.345	55.19
394.559	81.73
394.773	13.72
394.986	28.64
395.2	34.26
395.414	65.07
395.628	-10.11
395.842	9.85
396.056	13.53
396.27	-19.99
396.484	53.05
396.697	27.67
396.911	93.35
397.125	30.39
397.339	70.69
397.553	48.79
397.766	81.34
397.98	83.86
398.194	59.06
398.408	27.29
398.621	37.75
398.835	58.29
399.049	32.13
399.262	61
399.476	41.82
399.69	79.79
399.903	110.4
400.117	29.8
400.331	76.11
400.544	40.85
400.758	140.43
400.971	46.08
401.185	64.68
401.398	23.6
401.612	75.53
401.826	73.59
402.039	54.41
402.253	20.7
402.466	70.1
402.68	24.19
402.893	52.67
403.106	43.37
403.32	40.07
403.533	73.01
403.747	44.53
403.96	28.06
404.174	75.14
404.387	-16.5
404.6	46.85
404.814	95.87
405.027	36.39
405.24	45.3
405.454	46.47
405.667	99.55
405.88	-2.74
406.094	66.23
406.307	49.76
406.52	79.21
406.733	17.79
406.947	7.33
407.16	104.4
407.373	69.52
407.586	17.02
407.799	17.6
408.012	60.61
408.226	76.69
408.439	137.33
408.652	-1.39
408.865	80.57
409.078	103.04
409.291	73.59
409.504	12.76
409.717	67.39
409.93	77.66
410.143	80.18
410.357	-7.98
410.57	-9.91
410.783	45.11
410.996	87.15
411.209	56.93
411.421	105.56
411.634	40.27
411.847	-5.65
412.06	52.28
412.273	61
412.486	81.54
412.699	116.02
412.912	55.96
413.125	100.52
413.338	57.9
413.55	83.47
413.763	45.69
413.976	74.75
414.189	25.74
414.402	26.12
414.615	116.6
414.827	36.97
415.04	86.38
415.253	81.15
415.466	92.58
415.678	138.69
415.891	52.28
416.104	65.26
416.316	64.49
416.529	32.13
416.742	93.35
416.954	96.07
417.167	67.97
417.38	48.79
417.592	87.74
417.805	19.54
418.017	7.52
418.23	81.15
418.442	28.64
418.655	51.5
418.868	89.29
419.08	106.53
419.293	128.81
419.505	62.94
419.718	98
419.93	108.47
420.142	51.5
420.355	118.35
420.567	124.35
420.78	75.92
420.992	76.69
421.205	132.68
421.417	39.49
421.629	58.48
421.842	49.57
422.054	26.51
422.266	87.15
422.479	115.63
422.691	55.77
422.903	97.04
423.115	52.28
423.328	86.77
423.54	100.91
423.752	95.87
423.964	70.1
424.177	56.74
424.389	69.14
424.601	158.07
424.813	74.37
425.025	130.55
425.238	123
425.45	52.47
425.662	74.75
425.874	378.55
426.086	79.6
426.298	84.25
426.51	103.43
426.722	97.62
426.934	79.99
427.146	101.88
427.358	42.59
427.57	132.1
427.782	78.63
427.994	90.45
428.206	82.31
428.418	67
428.63	133.46
428.842	146.63
429.054	92
429.266	147.8
429.478	85.99
429.69	99.17
429.902	46.85
430.114	110.4
430.325	128.81
430.537	87.15
430.749	106.72
430.961	29.03
431.173	93.55
431.384	106.92
431.596	27.67
431.808	64.1
432.02	92.77
432.231	128.62
432.443	146.25
432.655	125.13
432.867	89.87
433.078	133.46
433.29	173.37
433.502	123.77
433.713	152.25
433.925	127.26
434.136	163.49
434.348	85.22
434.56	81.73
434.771	221.03
434.983	59.25
435.194	99.75
435.406	120.48
435.617	159.62
435.829	197.59
436.04	152.64
436.252	163.49
436.463	193.13
436.675	158.45
436.886	141.02
437.098	162.91
437.309	218.13
437.521	154.38
437.732	159.42
437.943	154.19
438.155	153.03
438.366	102.27
438.578	219.48
438.789	168.92
439	155.16
439.211	162.72
439.423	158.45
439.634	190.03
439.845	195.65
440.057	161.55
440.268	207.86
440.479	147.99
440.69	160.2
440.902	150.12
441.113	191
441.324	147.41
441.535	185.38
441.746	206.31
441.957	137.72
442.168	147.99
442.38	202.82
442.591	219.48
442.802	140.24
443.013	158.84
443.224	199.53
443.435	155.55
443.646	191.78
443.857	173.18
444.068	181.12
444.279	132.68
444.49	239.63
444.701	184.22
444.912	293.11
445.123	219.87
445.334	217.35
445.545	206.7
445.756	207.08
445.967	177.25
446.178	210.57
446.388	255.33
446.599	238.08
446.81	234.79
447.021	203.6
447.232	258.23
447.443	252.03
447.653	171.24
447.864	249.13
448.075	256.49
448.286	251.65
448.496	200.5
448.707	264.82
448.918	212.31
449.129	316.16
449.339	201.66
449.55	259.78
449.761	236.92
449.971	280.13
450.182	240.8
450.393	259.01
450.603	210.76
450.814	277.99
451.024	266.18
451.235	284.97
451.446	318.88
451.656	299.89
451.867	248.55
452.077	252.23
452.288	296.79
452.498	301.83
452.709	271.6
452.919	280.9
453.13	219.68
453.34	286.33
453.55	239.44
453.761	285.55
453.971	278.38
454.182	266.18
454.392	283.23
454.602	324.3
454.813	284.97
455.023	305.51
455.233	247
455.444	265.98
455.654	192.16
455.864	259.98
456.075	275.86
456.285	253.97
456.495	291.56
456.705	295.04
456.916	299.69
457.126	315
457.336	265.6
457.546	197.78
457.756	247.77
457.967	313.26
458.177	288.84
458.387	307.83
458.597	275.86
458.807	267.92
459.017	277.22
459.227	286.33
459.437	268.89
459.647	296.4
459.857	345.61
460.068	247.38
460.278	335.93
460.488	305.31
460.698	354.53
460.908	305.31
461.117	260.36
461.327	272.38
461.537	313.64
461.747	301.44
461.957	300.86
462.167	410.52
462.377	336.7
462.587	308.61
462.797	327.59
463.007	314.03
463.216	369.64
463.426	355.11
463.636	330.69
463.846	265.21
464.056	296.01
464.265	351.04
464.475	304.73
464.685	309.58
464.895	334.96
465.104	315.19
465.314	364.6
465.524	340.77
465.733	288.07
465.943	376.42
466.153	390.17
466.362	386.11
466.572	337.86
466.782	340.77
466.991	355.49
467.201	383.01
467.41	290.39
467.62	347.55
467.829	292.91
468.039	322.56
468.249	347.74
468.458	335.93
468.668	380.1
468.877	358.79
469.086	386.88
469.296	380.29
469.505	348.71
469.715	429.51
469.924	395.02
470.134	416.72
470.343	408.58
470.552	351.04
470.762	372.74
470.971	330.69
471.18	383.97
471.39	363.83
471.599	368.67
471.808	413.81
472.018	369.06
472.227	432.8
472.436	420.79
472.645	391.92
472.855	383.97
473.064	441.13
473.273	408.77
473.482	418.85
473.691	443.26
473.901	437.84
474.11	394.24
474.319	493.83
474.528	430.67
474.737	457.21
474.946	450.04
475.155	443.26
475.364	462.64
475.573	438.03
475.783	454.69
475.992	468.64
476.201	481.82
476.41	427.96
476.619	409.55
476.828	464.57
477.037	471.74
477.245	419.04
477.454	476.78
477.663	478.52
477.872	459.92
478.081	519.4
478.29	436.67
478.499	559.32
478.708	469.22
478.917	558.35
479.125	480.85
479.334	510.3
479.543	495.77
479.752	508.36
479.961	482.98
480.169	567.84
480.378	485.5
480.587	604.85
480.796	558.54
481.004	503.13
481.213	556.8
481.422	506.42
481.63	539.94
481.839	578.88
482.048	614.15
482.256	563
482.465	561.83
482.674	597.68
482.882	591.09
483.091	652.51
483.299	521.92
483.508	601.55
483.716	565.71
483.925	596.9
484.134	559.12
484.342	563.58
484.551	607.17
484.759	607.37
484.967	617.05
485.176	619.57
485.384	615.5
485.593	616.47
485.801	614.73
486.01	566.87
486.218	561.25
486.426	494.6
486.635	519.4
486.843	520.37
487.051	557.77
487.26	543.62
487.468	580.43
487.676	629.06
487.885	552.15
488.093	597.29
488.301	619.77
488.509	610.66
488.717	628.1
488.926	622.28
489.134	605.62
489.342	652.51
489.55	586.83
489.758	639.91
489.967	620.54
490.175	761.39
490.383	674.6
490.591	731.17
490.799	658.71
491.007	703.85
491.215	674.98
491.423	665.3
491.631	686.03
491.839	692.03
492.047	686.03
492.255	626.74
492.463	622.09
492.671	656.38
492.879	724.39
493.087	688.74
493.295	710.63
493.503	718.77
493.711	720.51
493.919	743.38
494.127	723.42
494.334	757.52
494.542	699.4
494.75	741.24
494.958	711.02
495.166	795.49
495.374	751.51
495.581	764.49
495.789	753.06
495.997	806.15
496.205	738.73
496.412	710.05
496.62	740.08
496.828	767.79
497.035	724.58
497.243	798.21
497.451	762.36
497.658	748.41
497.866	758.88
498.074	806.73
498.281	749.19
498.489	846.64
498.696	745.7
498.904	734.66
499.112	774.57
499.319	837.15
499.527	768.95
499.734	821.26
499.942	748.99
500.149	759.26
500.357	795.49
500.564	730.2
500.771	790.07
500.979	742.99
501.186	721.87
501.394	782.13
501.601	758.68
501.808	804.21
502.016	792.2
502.223	779.22
502.43	781.54
502.638	780.38
502.845	784.45
503.052	844.32
503.26	799.37
503.467	878.81
503.674	825.14
503.881	822.42
504.089	913.68
504.296	849.74
504.503	794.72
504.71	805.37
504.917	802.08
505.125	828.04
505.332	863.69
505.539	862.53
505.746	898.57
505.953	898.57
506.16	896.24
506.367	936.15
506.574	908.45
506.781	912.71
506.988	855.56
507.195	902.05
507.402	860.98
507.609	918.14
507.816	856.14
508.023	841.61
508.23	854.39
508.437	852.84
508.644	883.65
508.851	922.98
509.058	900.12
509.265	916.78
509.472	933.64
509.679	1003.77
509.885	908.25
510.092	914.65
510.299	915.81
510.506	930.54
510.713	919.69
510.92	897.6
511.126	945.84
511.333	984.2
511.54	963.86
511.746	1007.84
511.953	980.33
512.16	1026.83
512.367	964.83
512.573	923.17
512.78	979.55
512.987	981.1
513.193	960.95
513.4	875.9
513.606	959.21
513.813	961.34
514.02	953.2
514.226	1048.53
514.433	1017.33
514.639	942.16
514.846	946.04
515.052	963.28
515.259	976.65
515.465	981.68
515.672	1004.35
515.878	1029.15
516.085	1003
516.291	1014.23
516.497	983.62
516.704	981.88
516.91	942.55
517.117	903.6
517.323	895.66
517.529	919.69
517.736	917.55
517.942	934.99
518.148	959.02
518.354	962.7
518.561	962.89
518.767	1006.68
518.973	1033.03
519.179	1039.23
519.386	971.03
519.592	1004.74
519.798	1007.26
520.004	1066.16
520.21	1039.81
520.417	1080.3
520.623	1103.36
520.829	1124.86
521.035	1113.63
521.241	1134.94
521.447	1122.73
521.653	1217.48
521.859	1096.96
522.065	1116.92
522.271	1252.54
522.477	1191.9
522.683	1176.79
522.889	1176.01
523.095	1135.52
523.301	1163.42
523.507	1117.89
523.713	1152.57
523.919	1140.56
524.125	1226.19
524.331	1196.16
524.537	1254.67
524.742	1225.23
524.948	1263.59
525.154	1232.01
525.36	1336.44
525.566	1228.91
525.772	1291.87
525.977	1164.39
526.183	1275.79
526.389	1293.62
526.595	1202.94
526.8	1199.65
527.006	1141.72
527.212	1105.88
527.417	1148.89
527.623	1107.04
527.829	1184.15
528.034	1213.41
528.24	1246.34
528.446	1226.97
528.651	1286.45
528.857	1298.85
529.062	1342.25
529.268	1267.46
529.473	1318.42
529.679	1304.66
529.884	1383.13
530.09	1346.12
530.295	1362.4
530.501	1323.07
530.706	1333.14
530.912	1296.91
531.117	1348.06
531.323	1366.66
531.528	1400.57
531.733	1367.44
531.939	1349.03
532.144	1380.22
532.35	1394.75
532.555	1413.93
532.76	1384.49
532.966	1389.14
533.171	1354.26
533.376	1325.2
533.581	1295.36
533.787	1325.01
533.992	1364.34
534.197	1387.78
534.402	1348.06
534.607	1391.85
534.813	1466.83
535.018	1354.84
535.223	1401.54
535.428	1383.9
535.633	1469.35
535.838	1416.26
536.043	1428.27
536.249	1529.99
536.454	1456.56
536.659	1423.23
536.864	1430.6
537.069	1439.9
537.274	1450.17
537.479	1436.41
537.684	1416.45
537.889	1396.69
538.094	1495.89
538.299	1464.7
538.504	1485.43
538.708	1471.67
538.913	1442.61
539.118	1464.12
539.323	1441.64
539.528	1433.7
539.733	1423.43
539.938	1436.22
540.142	1484.07
540.347	1425.37
540.552	1381.77
540.757	1402.7
540.962	1391.65
541.166	1293.23
541.371	1391.46
541.576	1391.27
541.781	1341.86
541.985	1439.7
542.19	1424.4
542.395	1484.65
542.599	1522.43
542.804	1493.76
543.008	1538.51
543.213	1434.47
543.418	1411.8
543.622	1442.03
543.827	1412
544.031	1493.95
544.236	1496.67
544.44	1449
544.645	1543.16
544.849	1481.17
545.054	1513.52
545.258	1550.91
545.463	1539.29
545.667	1505.38
545.872	1488.53
546.076	1504.41
546.281	1495.31
546.485	1448.03
546.689	1509.26
546.894	1527.86
547.098	1487.95
547.302	1469.15
547.507	1488.92
547.711	1517.59
547.915	1590.24
548.119	1471.48
548.324	1489.3
548.528	1579.59
548.732	1530.76
548.936	1555.76
549.141	1551.3
549.345	1489.69
549.549	1517.4
549.753	1555.56
549.957	1609.43
550.161	1578.81
550.366	1576.88
550.57	1502.09
550.774	1534.25
550.978	1515.46
551.182	1542.58
551.386	1509.06
551.59	1536.19
551.794	1501.12
551.998	1539.48
552.202	1536
552.406	1525.92
552.61	1551.3
552.814	1522.63
553.018	1583.27
553.222	1521.08
553.426	1511.97
553.63	1588.5
553.833	1535.8
554.037	1483.88
554.241	1557.89
554.445	1540.06
554.649	1529.02
554.853	1518.36
555.056	1581.53
555.26	1592.38
555.464	1532.9
555.668	1533.67
555.871	1581.53
556.075	1626.67
556.279	1565.25
556.483	1498.02
556.686	1563.9
556.89	1547.04
557.094	1554.6
557.297	1423.62
557.501	1553.63
557.704	1476.9
557.908	1557.7
558.112	1458.11
558.315	1548.59
558.519	1467.8
558.722	1521.08
558.926	1480
559.129	1416.26
559.333	1414.13
559.536	1438.15
559.74	1433.31
559.943	1454.23
560.147	1418.2
560.35	1429.24
560.553	1448.23
560.757	1389.52
560.96	1554.6
561.164	1481.55
561.367	1526.89
561.57	1480.78
561.774	1505.96
561.977	1473.8
562.18	1448.42
562.384	1567.96
562.587	1486.01
562.79	1466.05
562.993	1460.63
563.197	1532.12
563.4	1499.77
563.603	1527.28
563.806	1548.2
564.009	1443.58
564.212	1486.2
564.416	1400.37
564.619	1496.47
564.822	1428.27
565.025	1493.76
565.228	1454.82
565.431	1496.08
565.634	1375.38
565.837	1415.48
566.04	1400.37
566.243	1405.22
566.446	1345.15
566.649	1430.6
566.852	1389.72
567.055	1408.51
567.258	1436.41
567.461	1471.48
567.664	1464.89
567.867	1359.88
568.07	1455.59
568.273	1420.13
568.475	1448.23
568.678	1385.07
568.881	1392.24
569.084	1381.77
569.287	1288.77
569.489	1335.08
569.692	1395.34
569.895	1392.82
570.098	1323.65
570.3	1342.25
570.503	1268.43
570.706	1266.11
570.909	1308.15
571.111	1261.07
571.314	1232.39
571.516	1281.8
571.719	1306.02
571.922	1241.31
572.124	1297.69
572.327	1300.4
572.529	1223.48
572.732	1234.53
572.935	1287.03
573.137	1340.5
573.34	1244.79
573.542	1327.52
573.745	1305.82
573.947	1300.79
574.15	1248.28
574.352	1259.71
574.554	1330.62
574.757	1270.37
574.959	1236.66
575.162	1219.03
575.364	1222.32
575.566	1333.92
575.769	1210.69
575.971	1278.12
576.173	1162.26
576.376	1202.17
576.578	1253.32
576.78	1308.54
576.982	1170.78
577.185	1232.39
577.387	1191.9
577.589	1176.21
577.791	1291.87
577.993	1273.27
578.196	1213.99
578.398	1246.92
578.6	1257
578.802	1203.33
579.004	1176.98
579.206	1164.58
579.408	1229.49
579.61	1212.24
579.812	1231.23
580.014	1192.48
580.216	1196.94
580.418	1200.23
580.62	1204.49
580.822	1175.82
581.024	1213.41
581.226	1236.46
581.428	1207.59
581.63	1269.59
581.832	1193.64
582.034	1239.76
582.236	1221.74
582.438	1256.03
582.64	1260.49
582.841	1273.47
583.043	1323.07
583.245	1238.4
583.447	1217.09
583.649	1219.41
583.85	1249.25
584.052	1286.64
584.254	1198.68
584.456	1254.67
584.657	1179.89
584.859	1240.92
585.061	1161.09
585.262	1174.46
585.464	1151.02
585.666	1226
585.867	1187.83
586.069	1236.66
586.27	1189.58
586.472	1174.27
586.674	1157.8
586.875	1164.58
587.077	1181.83
587.278	1192.68
587.48	1183.18
587.681	1261.46
587.883	1168.26
588.084	1102.39
588.285	1119.63
588.487	1135.71
588.688	1153.93
588.89	1072.36
589.091	1046.98
589.292	1075.46
589.494	1017.14
589.695	1023.92
589.896	973.55
590.098	970.64
590.299	1038.84
590.5	1008.03
590.702	1063.45
590.903	1079.72
591.104	1114.01
591.305	1092.31
591.507	1134.16
591.708	1087.08
591.909	1049.88
592.11	1182.99
592.311	1131.26
592.512	1076.81
592.714	1026.25
592.915	1016.95
593.116	1096
593.317	1062.67
593.518	1086.31
593.719	1083.4
593.92	1099.29
594.121	1141.91
594.322	1067.71
594.523	1092.51
594.724	1028.38
594.925	1059.18
595.126	1077.98
595.327	1083.79
595.528	1069.45
595.729	1086.11
595.929	1093.09
596.13	1091.93
596.331	1081.85
596.532	1095.61
596.733	1157.61
596.934	1139.98
597.135	1081.85
597.335	1095.61
597.536	1068.68
597.737	1073.13
597.938	1056.47
598.138	1077.59
598.339	1105.88
598.54	1119.44
598.74	1062.09
598.941	1100.45
599.142	1110.33
599.342	1088.25
599.543	1062.09
599.744	1063.45
599.944	1093.09
600.145	1072.75
600.345	1080.11
600.546	1151.41
600.746	1147.53
600.947	1182.99
601.147	1095.03
601.348	1097.93
601.548	1031.09
601.749	1075.46
601.949	1033.61
602.15	1055.5
602.35	1061.12
602.551	1117.31
602.751	1046.2
602.951	1064.03
603.152	1000.67
603.352	1117.7
603.552	1078.36
603.753	1139.98
603.953	1093.67
604.153	1092.12
604.354	1050.47
604.554	1071.78
604.754	1068.48
604.954	1019.47
605.155	1077.01
605.355	1039.23
605.555	1090.38
605.755	1126.61
605.955	1062.28
606.155	1089.99
606.356	1090.96
606.556	1109.56
606.756	1083.98
606.956	1032.45
607.156	1156.83
607.356	1025.28
607.556	1091.73
607.756	1055.12
607.956	1129.71
608.156	1098.13
608.356	1052.21
608.556	1110.14
608.756	1072.75
608.956	1052.79
609.156	1091.35
609.356	1035.93
609.556	1046.59
609.755	1088.05
609.955	1035.55
610.155	1084.37
610.355	1043.1
610.555	1010.75
610.755	1023.15
610.954	990.98
611.154	1058.6
611.354	1074.68
611.554	980.52
611.753	1005.9
611.953	978.58
612.153	1003.19
612.352	1024.5
612.552	991.18
612.752	925.3
612.951	999.32
613.151	1013.27
613.351	958.63
613.55	1004.35
613.75	1003.77
613.949	1004.93
614.149	1010.17
614.348	1016.17
614.548	955.14
614.747	913.1
614.947	992.15
615.146	929.37
615.346	1029.54
615.545	1000.48
615.745	1008.81
615.944	1033.22
616.144	999.9
616.343	1014.62
616.542	950.1
616.742	963.09
616.941	986.14
617.14	941
617.34	1016.17
617.539	956.11
617.738	956.5
617.938	1027.8
618.137	952.43
618.336	969.87
618.535	982.07
618.734	985.56
618.934	969.48
619.133	976.07
619.332	970.45
619.531	924.92
619.73	934.22
619.929	1023.34
620.128	965.41
620.328	1012.49
620.527	935.77
620.726	986.72
620.925	995.83
621.124	972
621.323	976.84
621.522	915.23
621.721	947.97
621.92	907.09
622.119	992.15
622.318	918.14
622.517	952.04
622.715	955.53
622.914	873.96
623.113	928.02
623.312	916.97
623.511	923.75
623.71	903.8
623.909	920.85
624.107	976.26
624.306	901.67
624.505	910.19
624.704	879.77
624.902	926.27
625.101	941
625.3	941.39
625.499	900.89
625.697	919.49
625.896	877.45
626.095	936.35
626.293	855.75
626.492	837.73
626.69	930.54
626.889	849.16
627.088	953.2
627.286	876.29
627.485	866.6
627.683	895.08
627.882	912.9
628.08	831.92
628.279	851.1
628.477	917.55
628.676	825.72
628.874	867.18
629.073	831.72
629.271	814.87
629.469	866.02
629.668	846.06
629.866	840.83
630.065	829.21
630.263	861.95
630.461	836.18
630.66	871.83
630.858	841.99
631.056	928.6
631.254	889.46
631.453	823.59
631.651	921.24
631.849	857.69
632.047	880.16
632.245	828.04
632.444	846.64
632.642	857.11
632.84	899.15
633.038	868.54
633.236	843.16
633.434	824.56
633.632	808.47
633.83	839.47
634.028	899.54
634.227	857.3
634.425	933.64
634.623	849.16
634.821	874.35
635.019	881.71
635.216	843.54
635.414	889.65
635.612	854.39
635.81	839.67
636.008	897.21
636.206	851.1
636.404	895.66
636.602	862.92
636.8	854.01
636.997	895.47
637.195	885.39
637.393	868.73
637.591	941.39
637.789	879.19
637.986	867.37
638.184	864.08
638.382	927.63
638.58	912.32
638.777	925.5
638.975	872.41
639.173	897.21
639.37	877.45
639.568	902.05
639.765	923.37
639.963	892.37
640.161	894.89
640.358	869.51
640.556	876.48
640.753	860.98
640.951	806.34
641.148	859.43
641.346	826.49
641.543	830.95
641.741	870.47
641.938	781.54
642.136	845.29
642.333	797.04
642.531	899.34
642.728	875.9
642.925	831.34
643.123	841.22
643.32	879.19
643.517	865.05
643.715	871.64
643.912	841.22
644.109	855.17
644.306	857.11
644.504	793.56
644.701	829.01
644.898	882.1
645.095	837.73
645.293	811.96
645.49	839.47
645.687	842.19
645.884	868.73
646.081	757.52
646.278	800.73
646.475	775.54
646.672	788.91
646.87	820.87
647.067	811.96
647.264	810.61
647.461	764.3
647.658	754.81
647.855	825.91
648.052	786.19
648.249	669.36
648.446	771.08
648.642	723.81
648.839	710.44
649.036	725.74
649.233	677.31
649.43	692.61
649.627	704.63
649.824	714.31
650.021	743.18
650.217	709.08
650.414	755.58
650.611	744.54
650.808	777.28
651.004	773.21
651.201	771.66
651.398	810.8
651.595	742.99
651.791	715.48
651.988	761.01
652.185	698.23
652.381	792.78
652.578	702.88
652.775	738.14
652.971	739.5
653.168	724.78
653.364	756.16
653.561	676.34
653.757	714.31
653.954	702.11
654.15	697.85
654.347	807.89
654.543	747.44
654.74	676.15
654.936	668.01
655.133	737.18
655.329	706.76
655.525	717.41
655.722	761.78
655.918	644.95
656.115	712.76
656.311	645.53
656.507	601.75
656.704	557.18
656.9	619.77
657.096	631.78
657.292	594.38
657.489	659.1
657.685	649.02
657.881	660.45
658.077	643.79
658.273	693.97
658.47	747.44
658.666	661.03
658.862	713.15
659.058	681.76
659.254	727.49
659.45	698.23
659.646	714.7
659.842	706.76
660.038	763.72
660.234	684.28
660.43	700.75
660.626	729.81
660.822	717.61
661.018	733.49
661.214	688.16
661.41	659.48
661.606	713.93
661.802	700.17
661.998	696.3
662.194	659.48
662.39	690.1
662.586	693.78
662.781	699.78
662.977	721.48
663.173	762.17
663.369	653.67
663.564	710.63
663.76	722.64
663.956	682.93
664.152	714.12
664.347	653.48
664.543	689.32
664.739	649.41
664.934	624.22
665.13	649.6
665.326	721.87
665.521	707.15
665.717	664.33
665.912	637.78
666.108	609.69
666.304	652.7
666.499	637.78
666.695	587.22
666.89	635.85
667.086	690.68
667.281	661.23
667.477	730.01
667.672	643.79
667.867	662.78
668.063	701.14
668.258	587.02
668.454	632.94
668.649	704.82
668.844	637.78
669.04	658.51
669.235	626.93
669.43	628.87
669.626	584.12
669.821	608.14
670.016	608.92
670.211	618.99
670.407	585.47
670.602	606.98
670.797	618.99
670.992	649.21
671.187	581.21
671.382	662.2
671.578	586.05
671.773	634.1
671.968	571.72
672.163	591.87
672.358	659.48
672.553	595.16
672.748	613.18
672.943	664.52
673.138	581.4
673.333	644.95
673.528	589.93
673.723	625.58
673.918	620.54
674.113	552.15
674.308	675.37
674.503	651.15
674.698	639.33
674.892	622.48
675.087	647.28
675.282	630.81
675.477	617.63
675.672	622.67
675.867	587.22
676.061	607.17
676.256	583.53
676.451	594.58
676.646	631.97
676.84	561.06
677.035	558.93
677.23	556.99
677.424	616.47
677.619	632.16
677.814	647.86
678.008	641.08
678.203	578.3
678.397	576.17
678.592	589.73
678.787	654.64
678.981	562.8
679.176	630.81
679.37	615.89
679.565	558.15
679.759	578.5
679.954	634.3
680.148	641.27
680.342	656.96
680.537	641.85
680.731	613.57
680.926	657.74
681.12	653.48
681.314	568.62
681.509	599.03
681.703	620.54
681.897	636.43
682.092	633.13
682.286	599.03
682.48	658.9
682.674	643.4
682.869	625.38
683.063	628.68
683.257	690.48
683.451	587.99
683.645	628.68
683.839	645.73
684.034	615.12
684.228	651.35
684.422	587.02
684.616	590.51
684.81	600.2
685.004	617.25
685.198	589.15
685.392	635.65
685.586	581.4
685.78	630.03
685.974	628.29
686.168	605.43
686.362	670.91
686.556	597.87
686.75	536.84
686.944	549.43
687.138	548.47
687.331	438.81
687.525	469.61
687.719	422.34
687.913	485.69
688.107	485.5
688.301	457.79
688.494	509.14
688.688	470
688.882	452.17
689.076	458.18
689.269	489.95
689.463	583.53
689.657	512.24
689.85	497.9
690.044	511.07
690.238	497.32
690.431	500.03
690.625	529.29
690.818	554.47
691.012	569
691.205	565.32
691.399	526.57
691.593	532.58
691.786	608.14
691.98	600.97
692.173	639.14
692.366	646.5
692.56	640.88
692.753	670.72
692.947	584.12
693.14	649.8
693.333	620.35
693.527	580.43
693.72	664.71
693.914	640.11
694.107	640.5
694.3	667.81
694.493	643.98
694.687	686.22
694.88	614.34
695.073	712.96
695.266	681.38
695.46	715.48
695.653	734.85
695.846	706.95
696.039	640.5
696.232	675.95
696.425	737.56
696.618	741.44
696.812	710.44
697.005	788.52
697.198	878.61
697.391	823.2
697.584	811.57
697.777	862.53
697.97	854.78
698.163	819.32
698.356	833.27
698.549	913.1
698.742	854.59
698.935	849.94
699.127	873.57
699.32	825.52
699.513	828.43
699.706	872.8
699.899	865.63
700.092	846.84
700.285	896.63
700.477	807.31
700.67	890.62
700.863	929.57
701.056	985.17
701.248	934.99
701.441	954.17
701.634	901.86
701.826	1015.2
702.019	918.33
702.212	976.45
702.404	915.42
702.597	890.04
702.79	938.09
702.982	977.03
703.175	999.51
703.367	985.56
703.56	1037.1
703.752	1089.99
703.945	1054.92
704.137	1073.33
704.33	1103.16
704.522	1115.18
704.715	1085.34
704.907	1096.38
705.1	1162.26
705.292	1139.01
705.484	1126.8
705.677	1179.5
705.869	1134.75
706.061	1195.58
706.254	1232.2
706.446	1191.9
706.638	1172.91
706.831	1270.76
707.023	1216.89
707.215	1321.13
707.407	1279.09
707.599	1252.74
707.792	1302.92
707.984	1272.89
708.176	1291.68
708.368	1284.12
708.56	1329.27
708.752	1339.92
708.944	1328.88
709.136	1353.49
709.329	1299.24
709.521	1427.5
709.713	1377.51
709.905	1387.2
710.097	1409.87
710.289	1365.11
710.481	1402.5
710.672	1414.71
710.864	1424.01
711.056	1478.26
711.248	1492.21
711.44	1507.32
711.632	1459.66
711.824	1508.48
712.016	1546.26
712.207	1555.18
712.399	1511.2
712.591	1603.42
712.783	1555.37
712.975	1580.17
713.166	1519.72
713.358	1576.3
713.55	1657.48
713.741	1621.24
713.933	1619.11
714.125	1622.6
714.316	1589.86
714.508	1707.85
714.7	1655.34
714.891	1646.43
715.083	1715.6
715.274	1684.41
715.466	1710.17
715.657	1740.4
715.849	1653.6
716.04	1697.77
716.232	1618.53
716.423	1698.36
716.615	1636.55
716.806	1609.23
716.998	1577.85
717.189	1500.93
717.381	1450.17
717.572	1411.42
717.763	1455.4
717.955	1439.32
718.146	1427.11
718.337	1378.48
718.528	1346.32
718.72	1267.66
718.911	1376.35
719.102	1319.58
719.293	1373.44
719.485	1339.73
719.676	1323.26
719.867	1264.94
720.058	1305.44
720.249	1318.03
720.44	1357.75
720.632	1406.19
720.823	1442.42
721.014	1524.18
721.205	1487.75
721.396	1609.04
721.587	1708.04
721.778	1767.33
721.969	1747.18
722.16	1799.3
722.351	1805.69
722.542	1889.78
722.733	1864.4
722.924	1778.18
723.115	1856.07
723.305	1830.69
723.496	1846.19
723.687	1752.99
723.878	1777.02
724.069	1713.66
724.26	1791.35
724.45	1676.27
724.641	1712.69
724.832	1728.39
725.023	1741.17
725.213	1672.01
725.404	1692.93
725.595	1692.35
725.785	1690.99
725.976	1789.03
726.167	1756.48
726.357	1737.11
726.548	1826.42
726.739	1795.04
726.929	1834.95
727.12	1865.95
727.31	1895.4
727.501	1815.57
727.691	1821.58
727.882	1805.89
728.072	1849.87
728.263	1860.52
728.453	1905.47
728.644	1878.73
728.834	1907.6
729.024	1841.34
729.215	1844.44
729.405	1895.78
729.596	1952.16
729.786	1988.4
729.976	1971.73
730.167	1984.13
730.357	1940.93
730.547	1958.56
730.737	1994.01
730.928	2047.88
731.118	2085.85
731.308	2027.92
731.498	2065.51
731.688	2090.31
731.879	2104.06
732.069	2148.43
732.259	2165.29
732.449	2219.15
732.639	2262.35
732.829	2254.41
733.019	2317.57
733.209	2369.5
733.399	2373.37
733.589	2433.43
733.779	2441.76
733.969	2396.62
734.159	2460.75
734.349	2525.27
734.539	2561.69
734.729	2527.01
734.919	2563.63
735.109	2597.92
735.299	2534.96
735.488	2532.24
735.678	2591.92
735.868	2566.34
736.058	2573.71
736.248	2540.19
736.437	2504.73
736.627	2501.05
736.817	2614.2
737.007	2584.75
737.196	2649.46
737.386	2594.63
737.576	2606.06
737.765	2640.55
737.955	2621.76
738.144	2661.47
738.334	2701.97
738.524	2638.8
738.713	2665.74
738.903	2653.34
739.092	2704.1
739.282	2710.88
739.471	2696.15
739.661	2682.4
739.85	2744.2
740.04	2742.07
740.229	2789.35
740.419	2798.45
740.608	2802.52
740.797	2781.02
740.987	2854.45
741.176	2811.63
741.365	2722.7
741.555	2724.05
741.744	2814.53
741.933	2800.97
742.123	2797.1
742.312	2841.27
742.501	2852.7
742.69	2827.71
742.88	2783.53
743.069	2884.86
743.258	2858.51
743.447	2868.98
743.636	2890.29
743.825	2863.36
744.014	2888.55
744.204	2867.43
744.393	2857.93
744.582	2934.27
744.771	2961.39
744.96	2878.66
745.149	2906.18
745.338	2884.86
745.527	2915.48
745.716	2905.4
745.905	2868.98
746.094	2971.08
746.283	2963.14
746.471	2948.22
746.66	3029.79
746.849	2928.07
747.038	3019.13
747.227	2946.67
747.416	2963.91
747.604	2904.24
747.793	2895.52
747.982	2971.28
748.171	2928.26
748.359	2997.04
748.548	2950.93
748.737	2988.13
748.926	2976.7
749.114	2838.36
749.303	2992.2
749.491	2938.73
749.68	2887
749.869	2986.97
750.057	2950.54
750.246	2920.13
750.434	2878.08
750.623	2883.31
750.811	2881.38
751	2947.25
751.188	2917.61
751.377	2950.35
751.565	2913.15
751.754	2897.65
751.942	2904.82
752.131	2952.09
752.319	2894.36
752.507	2807.95
752.696	2929.81
752.884	2950.35
753.072	2870.53
753.261	2883.7
753.449	2887.19
753.637	2899.78
753.825	2937.56
754.014	2916.25
754.202	2902.3
754.39	2939.89
754.578	2901.33
754.766	2852.31
754.955	2872.66
755.143	2934.08
755.331	2857.74
755.519	2838.95
755.707	2825.77
755.895	2844.95
756.083	2882.54
756.271	2816.28
756.459	2826.35
756.647	2858.71
756.835	2803.49
757.023	2829.84
757.211	2836.81
757.399	2803.68
757.587	2816.47
757.775	2742.27
757.963	2742.85
758.151	2800.2
758.339	2789.93
758.526	2766.1
758.714	2820.15
758.902	2662.64
759.09	2619.43
759.278	2479.54
759.465	2218.95
759.653	1962.05
759.841	1784.77
760.028	1491.24
760.216	1292.65
760.404	1211.66
760.591	956.89
760.779	802.86
760.967	746.09
761.154	581.4
761.342	668.78
761.529	656.77
761.717	727.29
761.905	706.95
762.092	797.24
762.28	722.45
762.467	738.73
762.655	674.79
762.842	676.53
763.029	686.61
763.217	699.4
763.404	716.25
763.592	718.19
763.779	655.61
763.966	749.58
764.154	766.24
764.341	823.78
764.528	840.25
764.716	879.39
764.903	941.77
765.09	1012.49
765.277	1017.33
765.465	1150.63
765.652	1201.2
765.839	1250.8
766.026	1343.8
766.213	1427.11
766.4	1492.6
766.588	1678.4
766.775	1687.7
766.962	1747.96
767.149	1809.57
767.336	1961.85
767.523	1906.83
767.71	2029.28
767.897	2101.16
768.084	2190.28
768.271	2195.71
768.458	2249.57
768.645	2267
768.832	2297.62
769.019	2310.98
769.206	2341.21
769.392	2329
769.579	2464.63
769.766	2382.09
769.953	2411.73
770.14	2493.49
770.327	2469.28
770.513	2497.95
770.7	2569.83
770.887	2463.66
771.073	2537.86
771.26	2522.17
771.447	2488.84
771.634	2493.69
771.82	2561.5
772.007	2488.84
772.193	2516.36
772.38	2546.58
772.567	2524.3
772.753	2518.88
772.94	2549.1
773.126	2536.12
773.313	2587.27
773.499	2553.36
773.686	2565.96
773.872	2494.66
774.059	2524.88
774.245	2456.3
774.432	2507.25
774.618	2460.56
774.804	2540.58
774.991	2445.83
775.177	2495.63
775.363	2472.76
775.55	2506.86
775.736	2443.7
775.922	2477.22
776.109	2496.79
776.295	2560.53
776.481	2512.48
776.667	2493.49
776.853	2452.81
777.04	2434.6
777.226	2458.62
777.412	2519.84
777.598	2426.26
777.784	2432.85
777.97	2414.25
778.156	2445.06
778.342	2401.46
778.528	2387.32
778.715	2328.62
778.901	2352.45
779.087	2381.12
779.272	2345.86
779.458	2375.5
779.644	2407.86
779.83	2360.39
780.016	2507.44
780.202	2416.96
780.388	2367.95
780.574	2298
780.76	2335.4
780.946	2366.59
781.131	2351.09
781.317	2343.73
781.503	2285.99
781.689	2320.28
781.874	2432.27
782.06	2310.6
782.246	2329.97
782.432	2294.52
782.617	2355.16
782.803	2355.93
782.989	2295.48
783.174	2287.15
783.36	2238.14
783.545	2266.81
783.731	2231.74
783.916	2241.62
784.102	2276.5
784.288	2279.99
784.473	2251.7
784.659	2216.44
784.844	2254.41
785.029	2196.29
785.215	2224.38
785.4	2173.04
785.586	2276.69
785.771	2190.47
785.956	2236.97
786.142	2174.59
786.327	2197.26
786.512	2181.17
786.698	2191.83
786.883	2150.76
787.068	2181.56
787.254	2141.65
787.439	2135.64
787.624	2161.61
787.809	2141.46
787.994	2150.37
788.18	2181.76
788.365	2077.33
788.55	2120.53
788.735	2117.04
788.92	2103.48
789.105	2108.13
789.29	2126.92
789.475	2055.04
789.66	2042.06
789.845	2060.66
790.03	2024.05
790.215	2097.48
790.4	2110.65
790.585	2114.33
790.77	2090.5
790.955	1993.43
791.14	2070.93
791.325	2129.64
791.51	1979.1
791.695	2062.99
791.879	2021.53
792.064	1938.02
792.249	2052.72
792.434	1995.95
792.618	2055.43
792.803	2051.17
792.988	2006.8
793.173	2009.32
793.357	2047.49
793.542	1979.1
793.727	2032.38
793.911	2044.58
794.096	2038.77
794.281	2033.73
794.465	2117.82
794.65	2047.68
794.834	2082.94
795.019	2110.26
795.203	2114.33
795.388	2078.29
795.572	2098.44
795.757	2077.71
795.941	2077.52
796.126	2036.83
796.31	2007.96
796.494	2074.81
796.679	2062.02
796.863	2008.55
797.048	2118.98
797.232	2050.01
797.416	2061.44
797.601	2033.93
797.785	2121.5
797.969	2147.46
798.153	2050.01
798.338	2065.31
798.522	2124.41
798.706	2110.07
798.89	2118.98
799.074	2189.31
799.258	2158.89
799.443	2071.32
799.627	2107.16
799.811	2139.71
799.995	2097.67
800.179	2069.38
800.363	2042.26
800.547	2094.57
800.731	2143.39
800.915	2028.5
801.099	2072.09
801.283	2080.23
801.467	2073.06
801.651	2042.06
801.835	2083.53
802.019	2097.28
802.202	2118.4
802.386	2027.14
802.57	2058.73
802.754	2065.89
802.938	2037.8
803.121	2031.99
803.305	2102.32
803.489	2043.42
803.673	2077.13
803.856	2080.04
804.04	2036.44
804.224	2052.14
804.407	2022.69
804.591	2021.33
804.775	2083.33
804.958	2056.4
805.142	2176.72
805.326	2069.77
805.509	2100.77
805.693	2124.6
805.876	2111.04
806.06	2081.98
806.243	2116.27
806.427	2112.2
806.61	2112.2
806.794	2075.78
806.977	2118.79
807.16	2053.88
807.344	2118.59
807.527	2064.93
807.71	2026.95
807.894	2084.69
808.077	2069.77
808.26	2037.03
808.444	2014.36
808.627	2067.44
808.81	2030.44
808.993	1990.33
809.177	1970.57
809.36	2000.41
809.543	2028.5
809.726	1939.38
809.909	1957.59
810.092	1949.06
810.276	1940.15
810.459	1973.28
810.642	1963.6
810.825	1913.03
811.008	1931.82
811.191	1842.5
811.374	1873.12
811.557	1885.32
811.74	1959.91
811.923	1847.15
812.106	1866.53
812.289	1792.32
812.472	1794.07
812.654	1833.79
812.837	1800.07
813.02	1743.89
813.203	1734.97
813.386	1614.66
813.569	1643.72
813.751	1599.54
813.934	1611.94
814.117	1581.14
814.3	1579.59
814.482	1535.22
814.665	1513.52
814.848	1493.18
815.03	1419.94
815.213	1439.51
815.396	1417.62
815.578	1383.13
815.761	1383.13
815.943	1439.7
816.126	1353.49
816.309	1310.09
816.491	1288.58
816.674	1217.48
816.856	1280.83
817.039	1270.17
817.221	1372.67
817.403	1298.85
817.586	1306.6
817.768	1315.12
817.951	1225.03
818.133	1231.04
818.315	1270.56
818.498	1295.94
818.68	1373.64
818.862	1324.23
819.045	1335.27
819.227	1312.22
819.409	1277.73
819.591	1340.12
819.774	1344.96
819.956	1270.37
820.138	1386.42
820.32	1371.31
820.502	1381.97
820.684	1432.34
820.866	1461.98
821.048	1493.37
821.231	1536
821.413	1481.75
821.595	1439.7
821.777	1455.78
821.959	1463.15
822.141	1491.24
822.323	1395.92
822.505	1366.85
822.686	1310.67
822.868	1272.89
823.05	1122.54
823.232	1143.46
823.414	1087.47
823.596	1181.44
823.778	1160.51
823.96	1197.13
824.141	1213.21
824.323	1189.38
824.505	1272.31
824.687	1317.84
824.868	1312.61
825.05	1367.05
825.232	1444.93
825.413	1518.75
825.595	1434.86
825.777	1399.79
825.958	1447.84
826.14	1441.25
826.321	1439.9
826.503	1394.95
826.685	1438.15
826.866	1479.81
827.048	1454.23
827.229	1371.31
827.411	1384.1
827.592	1345.93
827.773	1337.4
827.955	1279.67
828.136	1288.97
828.318	1268.62
828.499	1334.3
828.68	1233.17
828.862	1299.82
829.043	1308.15
829.224	1290.13
829.406	1270.37
829.587	1291.68
829.768	1282.96
829.949	1316.48
830.131	1274.05
830.312	1346.12
830.493	1275.21
830.674	1331.59
830.855	1279.28
831.036	1276.96
831.218	1366.66
831.399	1343.6
831.58	1314.35
831.761	1284.12
831.942	1315.12
832.123	1310.28
832.304	1257
832.485	1296.33
832.666	1277.73
832.847	1317.45
833.028	1258.94
833.209	1287.42
833.389	1273.86
833.57	1239.17
833.751	1270.95
833.932	1315.32
834.113	1292.26
834.294	1266.88
834.475	1312.02
834.655	1325.97
834.836	1330.62
835.017	1305.05
835.198	1279.86
835.378	1332.37
835.559	1365.5
835.74	1321.13
835.92	1316.67
836.101	1287.22
836.281	1302.92
836.462	1320.94
836.643	1380.8
836.823	1383.52
837.004	1385.65
837.184	1385.07
837.365	1364.72
837.545	1364.92
837.726	1321.71
837.906	1407.54
838.087	1358.72
838.267	1341.47
838.448	1291.1
838.628	1366.47
838.808	1338.37
838.989	1376.15
839.169	1295.17
839.349	1358.14
839.53	1395.53
839.71	1370.15
839.89	1313.57
840.07	1371.5
840.251	1282.38
840.431	1394.37
840.611	1326.75
840.791	1322.29
840.971	1365.69
841.151	1350.19
841.332	1298.85
841.512	1363.95
841.692	1286.84
841.872	1350.77
842.052	1333.53
842.232	1357.17
842.412	1281.02
842.592	1311.06
842.772	1308.34
842.952	1323.65
843.132	1285.48
843.312	1285.48
843.492	1257.19
843.672	1310.47
843.851	1239.76
844.031	1303.31
844.211	1288.77
844.391	1244.99
844.571	1317.84
844.751	1358.72
844.93	1327.33
845.11	1295.75
845.29	1287.22
845.47	1331.79
845.649	1334.5
845.829	1329.65
846.009	1238.4
846.188	1306.6
846.368	1272.31
846.547	1291.29
846.727	1312.99
846.907	1260.29
847.086	1267.27
847.266	1318.42
847.445	1256.61
847.625	1208.56
847.804	1244.79
847.984	1282.77
848.163	1259.13
848.343	1269.01
848.522	1257.77
848.701	1248.47
848.881	1211.66
849.06	1271.53
849.239	1248.09
849.419	1273.66
849.598	1196.36
849.777	1218.25
849.957	1189.77
850.136	1150.25
850.315	1134.36
850.494	1117.5
850.674	1117.11
850.853	1235.11
851.032	1197.52
851.211	1192.48
851.39	1178.34
851.569	1124.09
851.748	1147.92
851.927	1210.89
852.107	1196.55
852.286	1139.59
852.465	1167.1
852.644	1212.05
852.823	1187.06
853.002	1151.99
853.181	1168.07
853.359	1176.59
853.538	1116.15
853.717	1208.76
853.896	1064.41
854.075	1052.6
854.254	1024.12
854.433	987.69
854.611	1049.69
854.79	984.78
854.969	1027.99
855.148	1053.95
855.327	1028.38
855.505	1036.52
855.684	1068.87
855.863	1075.07
856.041	1002.61
856.22	1095.8
856.399	1045.62
856.577	1154.89
856.756	1128.74
856.934	1241.69
857.113	1237.63
857.291	1153.34
857.47	1120.21
857.648	1120.02
857.827	1171.75
858.005	1143.27
858.184	1080.3
858.362	1206.82
858.541	1105.49
858.719	1106.26
858.898	1128.55
859.076	1079.33
859.254	1189.19
859.433	1125.83
859.611	1102
859.789	1085.34
859.967	1145.79
860.146	1164.78
860.324	1077.01
860.502	1069.65
860.68	1044.85
860.859	1070.03
861.037	1077.2
861.215	1097.35
861.393	1095.03
861.571	1086.5
861.749	1072.55
861.927	1090.76
862.105	1073.33
862.283	1093.48
862.461	1056.67
862.639	1015.78
862.817	1060.35
862.995	1073.71
863.173	1043.3
863.351	1085.53
863.529	1085.73
863.707	1118.47
863.885	1069.06
864.063	980.13
864.241	996.6
864.418	1105.88
864.596	1057.05
864.774	993.31
864.952	1058.22
865.129	1033.03
865.307	1003.97
865.485	1001.45
865.663	1050.27
865.84	978.58
866.018	1015.01
866.196	868.15
866.373	899.15
866.551	872.61
866.728	829.21
866.906	894.5
867.084	913.87
867.261	957.27
867.439	935.57
867.616	958.05
867.794	936.15
867.971	984.59
868.149	945.84
868.326	1008.03
868.503	981.88
868.681	971.42
868.858	930.92
869.035	932.47
869.213	998.54
869.39	941.58
869.567	1021.79
869.745	958.24
869.922	967.74
870.099	1001.83
870.276	977.81
870.454	962.5
870.631	1019.08
870.808	956.5
870.985	988.08
871.162	1037.29
871.339	976.65
871.517	929.76
871.694	925.3
871.871	935.38
872.048	993.12
872.225	940.03
872.402	962.7
872.579	903.8
872.756	960.76
872.933	908.64
873.11	928.6
873.287	929.57
873.463	944.29
873.64	910.39
873.817	942.35
873.994	941.19
874.171	920.27
874.348	933.83
874.524	847.81
874.701	903.8
874.878	822.81
875.055	935.96
875.231	896.05
875.408	955.92
875.585	851.1
875.762	850.52
875.938	882.68
876.115	886.75
876.291	863.69
876.468	873.77
876.645	839.28
876.821	859.04
876.998	880.16
877.174	868.73
877.351	866.6
877.527	839.86
877.704	887.52
877.88	842.19
878.057	850.52
878.233	886.75
878.409	865.05
878.586	857.49
878.762	842.38
878.938	865.63
879.115	771.28
879.291	838.12
879.467	804.99
879.644	817.58
879.82	845.29
879.996	789.88
880.172	804.21
880.349	809.25
880.525	872.22
880.701	777.09
880.877	756.36
881.053	846.06
881.229	806.73
881.405	864.66
881.581	813.32
881.757	797.24
881.933	822.62
882.109	857.69
882.285	836.37
882.461	763.53
882.637	854.01
882.813	781.93
882.989	792.78
883.165	888.69
883.341	786.58
883.517	843.54
883.693	826.49
883.869	821.65
884.044	766.82
884.22	838.31
884.396	855.94
884.572	832.89
884.747	869.51
884.923	816.42
885.099	877.26
885.275	856.33
885.45	805.57
885.626	823.39
885.801	807.89
885.977	783.09
886.153	741.44
886.328	814.48
886.504	760.62
886.679	823.39
886.855	807.89
887.03	832.69
887.206	820.87
887.381	809.25
887.557	822.23
887.732	842.77
887.908	815.06
888.083	843.16
888.258	765.27
888.434	773.41
888.609	799.76
888.784	845.67
888.96	747.06
889.135	780.96
889.31	789.1
889.485	822.42
889.661	775.54
889.836	852.26
890.011	825.33
890.186	757.71
890.361	790.26
890.537	811.38
890.712	798.79
890.887	810.41
891.062	795.88
891.237	887.33
891.412	769.73
891.587	809.06
891.762	830.56
891.937	863.11
892.112	752.68
892.287	802.86
892.462	763.53
892.637	740.86
892.812	721.29
892.987	742.02
893.161	703.46
893.336	733.49
893.511	739.89
893.686	736.01
893.861	711.02
894.035	746.86
894.21	730.98
894.385	665.49
894.56	749.58
894.734	641.46
894.909	636.04
895.084	672.27
895.258	657.35
895.433	705.79
895.608	640.5
895.782	589.54
895.957	621.12
896.131	605.62
896.306	552.34
896.48	556.41
896.655	604.07
896.829	523.09
897.004	526.57
897.178	563.38
897.353	537.42
897.527	582.18
897.701	520.95
897.876	474.84
898.05	606.2
898.224	567.26
898.399	592.25
898.573	546.14
898.747	457.79
898.921	485.5
899.096	415.17
899.27	441.91
899.444	428.34
899.618	462.44
899.792	464.57
899.967	462.05
900.141	529.48
900.315	469.03
900.489	473.29
900.663	485.11
900.837	454.69
901.011	393.86
901.185	545.37
901.359	473.1
901.533	501.39
901.707	493.25
901.881	503.13
902.055	443.26
902.229	466.7
902.403	539.17
902.576	463.41
902.75	458.37
902.924	582.95
903.098	537.23
903.272	547.11
903.446	608.92
903.619	576.56
903.793	575.98
903.967	558.15
904.14	612.6
904.314	605.82
904.488	591.67
904.661	598.07
904.835	600.78
905.009	628.87
905.182	674.6
905.356	621.51
905.529	599.81
905.703	604.07
905.876	568.23
906.05	562.22
906.223	551.57
906.397	488.4
906.57	475.42
906.744	448.49
906.917	486.66
907.09	455.47
907.264	461.28
907.437	465.35
907.61	411.87
907.784	440.36
907.957	450.43
908.13	438.42
908.304	469.22
908.477	416.14
908.65	461.67
908.823	398.51
908.996	471.16
909.17	412.26
909.343	422.92
909.516	444.23
909.689	422.72
909.862	399.67
910.035	422.72
910.208	387.66
910.381	397.73
910.554	504.29
910.727	421.95
910.9	409.16
911.073	407.81
911.246	478.72
911.419	466.9
911.592	434.93
911.765	397.92
911.938	390.95
912.11	411.1
912.283	431.64
912.456	455.47
912.629	418.85
912.802	391.92
912.974	370.02
913.147	337.28
913.32	330.89
913.493	323.33
913.665	363.63
913.838	370.41
914.01	341.74
914.183	358.98
914.356	333.99
914.528	366.54
914.701	449.85
914.873	389.59
915.046	361.5
915.218	331.86
915.391	291.56
915.563	312.29
915.736	349.68
915.908	362.28
916.081	358.21
916.253	358.01
916.425	345.42
916.598	394.82
916.77	375.45
916.942	358.01
917.115	278.96
917.287	353.75
917.459	314.03
917.632	310.16
917.804	244.09
917.976	326.82
918.148	370.22
918.32	339.61
918.493	380.49
918.665	387.85
918.837	355.88
919.009	420.79
919.181	406.26
919.353	390.37
919.525	373.71
919.697	349.49
919.869	335.93
920.041	453.34
920.213	491.7
920.385	375.84
920.557	375.26
920.729	398.7
920.901	384.56
921.073	385.72
921.244	351.81
921.416	420.01
921.588	374.09
921.76	352.01
921.932	392.31
922.103	371.57
922.275	397.54
922.447	394.05
922.619	297.37
922.79	400.44
922.962	333.99
923.134	366.34
923.305	337.86
923.477	280.51
923.648	318.49
923.82	337.48
923.991	289.23
924.163	297.37
924.335	311.9
924.506	267.15
924.677	373.12
924.849	297.37
925.02	310.93
925.192	364.6
925.363	313.26
925.535	313.45
925.706	313.84
925.877	360.73
926.049	298.73
926.22	329.73
926.391	333.99
926.562	344.06
926.734	306.67
926.905	327.21
927.076	262.69
927.247	290.01
927.419	261.14
927.59	258.23
927.761	270.44
927.932	261.91
928.103	245.06
928.274	221.42
928.445	222
928.616	245.64
928.787	241.18
928.958	265.98
929.129	241.18
929.3	217.35
929.471	210.96
929.642	165.04
929.813	134.62
929.984	232.66
930.155	135.4
930.326	178.8
930.496	163.88
930.667	103.04
930.838	160.2
931.009	109.05
931.18	125.9
931.35	117.38
931.521	165.43
931.692	65.65
931.863	37.75
932.033	85.22
932.204	126.48
932.374	120.09
932.545	38.14
932.716	119.32
932.886	120.09
933.057	13.53
933.227	54.8
933.398	136.75
933.568	55.38
933.739	29.22
933.909	19.73
934.08	88.51
934.25	-11.66
934.421	-0.42
934.591	66.81
934.761	33.68
934.932	-3.33
935.102	70.49
935.272	44.53
935.443	40.27
935.613	22.05
935.783	48.6
935.953	9.07
936.123	186.74
936.294	5.78
936.464	5.78
936.634	42.4
936.804	13.53
936.974	-14.37
937.144	42.4
937.314	24.96
937.484	20.31
937.655	17.6
937.825	58.48
937.995	-5.07
938.165	97.81
938.334	37.36
938.504	66.42
938.674	35.62
938.844	47.63
939.014	95.1
939.184	74.75
939.354	113.7
939.524	112.73
939.694	49.95
939.863	64.87
940.033	124.74
940.203	128.62
940.373	89.87
940.542	112.92
940.712	73.01
940.882	100.91
941.051	106.53
941.221	92.58
941.391	128.03
941.56	57.7
941.73	46.85
941.899	194.3
942.069	64.29
942.238	108.47
942.408	69.72
942.577	94.52
942.747	57.9
942.916	17.6
943.086	68.17
943.255	103.82
943.425	78.82
943.594	49.76
943.763	27.29
943.933	2.87
944.102	-27.54
944.271	61.19
944.441	67
944.61	34.84
944.779	60.8
944.948	142.95
945.117	-8.36
945.287	42.01
945.456	-38.98
945.625	11.01
945.794	70.69
945.963	9.07
946.132	63.52
946.301	59.45
946.47	77.85
946.639	9.66
946.808	47.82
946.977	52.67
947.146	105.17
947.315	44.14
947.484	77.85
947.653	40.85
947.822	24.38
947.991	35.23
948.16	154.97
948.329	103.23
948.498	50.92
948.666	54.8
948.835	98
949.004	25.93
949.173	31.74
949.341	60.22
949.51	91.61
949.679	88.51
949.847	71.65
950.016	126.1
950.185	99.94
950.353	43.17
950.522	32.32
950.69	108.27
950.859	39.1
951.028	81.73
951.196	54.41
951.365	42.79
951.533	67.2
951.701	74.95
951.87	58.48
952.038	12.76
952.207	29.42
952.375	140.24
952.543	69.33
952.712	56.54
952.88	34.84
953.048	96.07
953.217	55.38
953.385	63.52
953.553	99.55
953.721	32.71
953.89	48.02
954.058	3.46
954.226	46.66
954.394	82.89
954.562	22.83
954.73	61.19
954.898	69.91
955.067	93.74
955.235	51.89
955.403	94.32
955.571	139.08
955.739	88.7
955.907	24.38
956.075	16.05
956.243	56.35
956.41	82.31
956.578	12.17
956.746	13.34
956.914	29.22
957.082	79.21
957.25	47.82
957.418	25.54
957.585	65.26
957.753	76.11
957.921	51.7
958.089	43.95
958.256	63.32
958.424	71.65
958.592	56.15
958.759	55.57
958.927	70.3
959.095	59.84
959.262	75.72
959.43	47.44
959.597	42.2
959.765	67.78
959.932	19.73
960.1	89.87
960.267	69.14
960.435	67.97
960.602	72.62
960.77	14.5
960.937	19.92
961.104	76.3
961.272	9.07
961.439	48.21
961.606	60.03
961.774	80.37
961.941	59.06
962.108	67.78
962.275	60.03
962.443	88.51
962.61	91.8
962.777	160.78
962.944	95.87
963.111	74.56
963.278	84.05
963.446	63.13
963.613	48.02
963.78	82.31
963.947	80.18
964.114	87.15
964.281	149.15
964.448	73.4
964.615	41.62
964.782	84.05
964.949	82.31
965.116	85.41
965.282	101.69
965.449	76.89
965.616	35.42
965.783	86.96
965.95	72.82
966.117	26.12
966.283	64.1
966.45	62.16
966.617	89.29
966.784	110.4
966.95	93.55
967.117	107.3
967.284	58.87
967.45	47.63
967.617	111.76
967.784	104.4
967.95	116.99
968.117	79.79
968.283	123.97
968.45	178.8
968.616	98.59
968.783	124.16
968.949	73.59
969.116	140.05
969.282	86.57
969.449	112.53
969.615	91.8
969.781	27.67
969.948	57.51
970.114	48.4
970.28	126.1
970.447	80.57
970.613	120.28
970.779	64.29
970.945	72.24
971.112	101.49
971.278	62.35
971.444	53.83
971.61	133.85
971.776	79.79
971.942	92.19
972.108	84.44
972.275	71.65
972.441	70.49
972.607	154.19
972.773	52.86
972.939	98.2
973.105	85.22
973.271	44.53
973.437	75.34
973.602	62.55
973.768	93.55
973.934	92.39
974.1	106.53
974.266	5.39
974.432	108.08
974.598	54.6
974.763	98.39
974.929	61.77
975.095	123.97
975.261	69.72
975.426	37.36
975.592	45.89
975.758	118.15
975.923	33.1
976.089	51.7
976.255	110.21
976.42	62.74
976.586	69.33
976.751	78.82
976.917	168.14
977.082	88.51
977.248	53.83
977.413	10.04
977.579	41.24
977.744	82.5
977.91	41.04
978.075	55.38
978.24	103.23
978.406	66.81
978.571	35.23
978.736	37.36
978.902	90.84
979.067	29.61
979.232	3.46
979.397	71.46
979.563	121.83
979.728	42.4
979.893	59.25
980.058	49.95
980.223	92.97
980.388	71.07
980.554	48.6
980.719	53.83
980.884	70.88
981.049	101.3
981.214	82.7
981.379	76.11
981.544	48.99
981.709	70.88
981.874	60.8
982.039	42.98
982.204	119.9
982.368	74.17
982.533	36.59
982.698	118.93
982.863	107.69
983.028	34.65
983.193	52.86
983.357	90.25
983.522	80.57
983.687	49.57
983.852	46.08
984.016	63.13
984.181	58.48
984.346	79.6
984.51	68.17
984.675	92.77
984.839	95.29
985.004	73.98
985.168	118.73
985.333	75.92
985.498	99.55
985.662	80.95
985.827	81.73
985.991	85.99
986.155	43.37
986.32	69.33
986.484	122.8
986.649	70.69
986.813	10.82
986.977	74.95
987.142	98.39
987.306	25.15
987.47	42.01
987.634	88.9
987.799	61.39
987.963	60.42
988.127	76.5
988.291	123.58
988.455	75.14
988.62	63.32
988.784	91.61
988.948	97.42
989.112	15.27
989.276	79.02
989.44	56.35
989.604	46.27
989.768	30.39
989.932	159.42
990.096	31.16
990.26	14.31
990.424	35.04
990.588	32.9
990.752	117.77
990.915	114.08
991.079	72.62
991.243	30.97
991.407	80.95
991.571	65.45
991.734	98.59
991.898	76.3
992.062	160.97
992.226	40.07
992.389	30.58
992.553	15.47
992.717	55.96
992.88	44.14
993.044	56.35
993.207	61.77
993.371	86.38
993.535	63.32
993.698	52.47
993.862	90.64
994.025	82.7
994.189	55.38
994.352	80.76
994.515	62.94
994.679	102.65
994.842	51.31
995.006	87.54
995.169	22.44
995.332	39.1
995.496	62.94
995.659	48.79
995.822	45.11
995.985	52.86
996.149	122.03
996.312	72.24
996.475	126.1
996.638	43.37
996.801	115.25
996.964	132.68
997.128	57.51
997.291	69.91
997.454	62.94
997.617	27.67
997.78	78.63
997.943	53.05
998.106	81.54
998.269	16.05
998.432	43.17
998.595	65.45
998.758	22.64
998.92	29.42
999.083	-11.66
999.246	63.71
999.409	12.76
999.572	-8.75
999.735	50.15
999.897	68.75
1000.06	19.92
1000.223	35.42
1000.386	68.36
1000.548	54.8
1000.711	61.58
1000.874	69.91
1001.036	11.4
1001.199	89.29
1001.361	25.54
1001.524	51.89
1001.687	69.91
1001.849	32.13
1002.012	65.07
1002.174	37.55
1002.337	55.19
1002.499	66.62
1002.661	96.65
1002.824	19.92
1002.986	26.9
1003.149	51.12
1003.311	38.52
1003.473	70.1
1003.636	26.12
1003.798	77.27
1003.96	66.04
1004.123	35.81
1004.285	31.35
1004.447	51.7
1004.609	36.59
1004.771	123.97
1004.933	-4.29
1005.096	2.68
1005.258	0.16
1005.42	10.24
1005.582	105.95
1005.744	59.25
1005.906	15.85
1006.068	55.57
1006.23	19.73
1006.392	-7.98
1006.554	13.53
1006.716	83.67
1006.878	76.89
1007.04	-1.97
1007.202	26.32
1007.363	58.67
1007.525	61.19
1007.687	16.44
1007.849	89.87
1008.011	-31.61
1008.172	-12.24
1008.334	25.74
1008.496	71.65
1008.658	-17.47
1008.819	11.59
1008.981	-0.03
1009.143	18.18
1009.304	29.03
1009.466	58.87
1009.627	87.74
1009.789	123
1009.95	29.03
1010.112	23.6
1010.273	50.54
1010.435	9.85
1010.596	20.31
1010.758	21.47
1010.919	18.37
1011.081	2.49
1011.242	9.66
1011.403	60.03
1011.565	23.99
1011.726	62.94
1011.887	-34.13
1012.049	50.73
1012.21	65.84
1012.371	81.34
1012.532	-38.2
1012.693	19.92
1012.855	-7.2
1013.016	13.72
1013.177	65.07
1013.338	15.08
1013.499	91.22
1013.66	65.45
1013.821	43.95
1013.982	56.93
1014.143	13.92
1014.304	23.02
1014.465	30
1014.626	69.14
1014.787	17.4
1014.948	98.78
1015.109	-61.26
1015.27	71.27
1015.431	11.01
1015.592	20.7
1015.752	72.04
1015.913	47.05
1016.074	44.53
1016.235	20.12
1016.395	42.98
1016.556	23.41
1016.717	23.99
1016.877	75.92
1017.038	0.55
1017.199	45.5
1017.359	11.59
1017.52	36.39
1017.681	11.01
1017.841	24.57
1018.002	29.03
1018.162	17.79
1018.323	83.28
1018.483	12.76
1018.644	-8.94
1018.804	-15.73
1018.964	-3.52
1019.125	14.69
1019.285	32.71
1019.446	-2.55
1019.606	-11.27
1019.766	-7.98
1019.926	38.33
1020.087	51.89
1020.247	-26.58
1020.407	12.95
1020.567	60.22
1020.728	37.17
1020.888	-17.28
1021.048	17.79
1021.208	-3.71
1021.368	-32.97
1021.528	57.51
1021.688	68.17
1021.848	61.58
1022.008	11.79
1022.168	-0.61
1022.328	28.25
1022.488	62.55
1022.648	7.14
1022.808	37.75
1022.968	48.4
1023.128	6.75
1023.288	-3.33
1023.448	32.9
1023.608	31.55
1023.767	61.39
1023.927	10.04
1024.087	-27.54
1024.247	-24.83
1024.406	36.97
1024.566	-7.01
1024.726	-22.12
1024.885	18.18
1025.045	24.38
1025.205	27.48
1025.364	22.64
1025.524	42.01
1025.683	29.8
1025.843	31.16
1026.003	43.17
1026.162	70.3
1026.321	81.73
1026.481	33.68
1026.64	12.56
1026.8	14.89
1026.959	24.19
1027.119	7.52
1027.278	8.69
1027.437	-4.49
1027.597	-17.47
1027.756	38.72
1027.915	42.2
1028.074	45.11
1028.234	1.71
1028.393	22.05
1028.552	15.66
1028.711	-28.51
1028.87	45.69
1029.03	-27.54
1029.189	37.36
1029.348	-37.04
1029.507	-25.8
1029.666	25.15
1029.825	-41.11
1029.984	-42.27
1030.143	7.52
1030.302	16.63
1030.461	-56.22
1030.62	24.19
1030.779	37.75
1030.938	-18.44
1031.097	-27.16
1031.255	49.95
1031.414	44.92
1031.573	61.58
1031.732	-31.42
1031.891	-2.16
1032.049	62.16
1032.208	41.62
1032.367	4.04
1032.525	-26.77
1032.684	14.5
1032.843	34.84
1033.001	-47.31
1033.16	160.78
1033.319	76.3
1033.477	11.98
1033.636	2.29
1033.794	-22.7
1033.953	36.97
1034.111	30
1034.27	-13.21
1034.428	31.74
1034.587	-3.52
1034.745	25.15
1034.903	28.64
1035.062	21.09
1035.22	-45.18
1035.378	34.45
1035.537	-5.46
1035.695	30.97
1035.853	10.24
1036.011	39.49
1036.17	54.8
1036.328	-60.48
1036.486	29.61
1036.644	5.39
1036.802	-64.94
1036.96	-5.26
1037.119	15.27
1037.277	-35.29
1037.435	-20.57
1037.593	-5.07
1037.751	-5.84
1037.909	40.65
1038.067	40.65
