Data from pine_FLMT105791__78__17-21-18-077.txt Node

Date: Mon Mar 20 17:21:18 GMT 2023
User: antho
Spectrometer: FLMT10579
Trigger mode: 0
Integration Time (sec): 1.000000E-1
Scans to average: 10
Electric dark correction enabled: true
Nonlinearity correction enabled: false
Boxcar width: 0
XAxis mode: Wavelengths
Number of Pixels in Spectrum: 3648
>>>>>Begin Spectral Data<<<<<
345.248	-146.54
345.464	-146.54
345.681	-146.54
345.898	-199.82
346.114	-158.36
346.331	-30.68
346.548	14.27
346.764	-12.08
346.981	-17.31
347.197	2.84
347.414	11.17
347.631	-27
347.847	56.12
348.064	12.72
348.28	28.03
348.497	-29.32
348.713	-8.78
348.93	10.4
349.146	26.48
349.363	-25.45
349.579	28.42
349.796	-19.05
350.012	-24.48
350.229	8.65
350.445	5.36
350.661	-31.84
350.878	16.79
351.094	19.12
351.311	16.6
351.527	-3.55
351.743	-28.35
351.96	30.55
352.176	33.45
352.392	29.97
352.609	26.67
352.825	-47.15
353.041	31.52
353.257	2.26
353.474	-6.26
353.69	-5.49
353.906	12.92
354.122	-40.17
354.339	18.54
354.555	-0.84
354.771	-3.94
354.987	62.13
355.203	49.34
355.42	-28.93
355.636	-14.21
355.852	-2.78
356.068	9.82
356.284	-30.29
356.5	58.83
356.716	-9.95
356.932	-12.46
357.148	20.86
357.364	2.07
357.58	42.75
357.796	53.6
358.012	38.88
358.228	18.15
358.444	-79.89
358.66	49.15
358.876	4.97
359.092	-9.56
359.308	3.81
359.524	27.06
359.74	-18.66
359.956	-43.46
360.172	8.07
360.388	26.48
360.604	-19.83
360.819	67.55
361.035	16.6
361.251	10.59
361.467	-23.9
361.683	28.8
361.898	39.65
362.114	36.94
362.33	23.96
362.546	26.29
362.762	-16.92
362.977	-0.45
363.193	3.04
363.409	42.17
363.624	-30.1
363.84	-9.75
364.056	-13.82
364.271	18.34
364.487	-8.59
364.703	0.9
364.918	-13.82
365.134	-17.5
365.35	21.83
365.565	111.53
365.781	6.14
365.996	9.62
366.212	53.22
366.427	12.72
366.643	-28.16
366.858	-38.23
367.074	-34.16
367.289	48.37
367.505	106.69
367.72	-40.95
367.936	5.55
368.151	51.47
368.367	27.84
368.582	16.02
368.798	-9.75
369.013	45.08
369.228	-3.75
369.444	6.33
369.659	68.72
369.874	32.29
370.09	31.52
370.305	-54.31
370.52	-9.95
370.736	25.51
370.951	16.99
371.166	53.6
371.381	32.1
371.597	43.14
371.812	-13.43
372.027	-46.18
372.242	-10.72
372.458	70.46
372.673	-14.01
372.888	-2.39
373.103	23.19
373.318	92.74
373.533	15.63
373.749	13.5
373.964	-37.46
374.179	69.68
374.394	-18.47
374.609	47.4
374.824	-37.07
375.039	50.7
375.254	-24.67
375.469	37.13
375.684	18.73
375.899	41.2
376.114	23.38
376.329	33.26
376.544	30.74
376.759	42.75
376.974	-13.82
377.189	9.24
377.404	4.39
377.619	48.76
377.834	-55.67
378.049	-16.34
378.264	-47.73
378.478	5.94
378.693	-5.68
378.908	43.33
379.123	-0.84
379.338	33.84
379.553	4.97
379.767	19.31
379.982	32.29
380.197	47.21
380.412	22.8
380.626	48.57
380.841	84.8
381.056	11.17
381.271	62.13
381.485	-9.17
381.7	-19.05
381.915	34.81
382.129	-8.01
382.344	23.57
382.559	-16.73
382.773	51.08
382.988	-35.91
383.202	11.37
383.417	-38.04
383.632	118.31
383.846	10.4
384.061	0.13
384.275	5.55
384.49	7.49
384.704	19.12
384.919	16.79
385.133	7.88
385.348	60.19
385.562	-52.96
385.777	50.89
385.991	2.45
386.206	-4.71
386.42	-10.33
386.634	47.21
386.849	44.3
387.063	38.1
387.277	-39.01
387.492	-8.98
387.706	-27.19
387.92	12.34
388.135	24.15
388.349	38.49
388.563	9.62
388.778	5.36
388.992	48.95
389.206	33.26
389.42	79.18
389.635	-10.33
389.849	41.98
390.063	43.14
390.277	19.12
390.491	67.94
390.706	40.43
390.92	54.18
391.134	5.55
391.348	51.08
391.562	-46.56
391.776	-8.4
391.99	-9.75
392.205	48.37
392.419	8.85
392.633	9.62
392.847	51.08
393.061	-15.95
393.275	83.05
393.489	30.55
393.703	22.6
393.917	60.58
394.131	24.35
394.345	41.98
394.559	24.35
394.773	8.27
394.986	18.34
395.2	38.1
395.414	24.15
395.628	-12.08
395.842	-12.27
396.056	-4.33
396.27	-36.68
396.484	5.55
396.697	26.09
396.911	88.48
397.125	43.33
397.339	64.07
397.553	36.17
397.766	102.82
397.98	34.03
398.194	53.6
398.408	-9.75
398.621	35.39
398.835	41.98
399.049	26.87
399.262	70.46
399.476	57.28
399.69	26.87
399.903	98.36
400.117	26.48
400.331	27.84
400.544	5.55
400.758	134.78
400.971	37.13
401.185	66
401.398	-5.1
401.612	87.32
401.826	34.03
402.039	71.04
402.253	13.69
402.466	37.91
402.68	10.79
402.893	48.57
403.106	15.05
403.32	28.61
403.533	36.55
403.747	27.84
403.96	35.58
404.174	75.88
404.387	22.99
404.6	20.28
404.814	53.41
405.027	32.1
405.24	26.29
405.454	29.38
405.667	94.68
405.88	-23.51
406.094	39.27
406.307	78.6
406.52	51.86
406.733	8.46
406.947	-25.45
407.16	114.83
407.373	58.83
407.586	-11.5
407.799	21.83
408.012	65.62
408.226	53.22
408.439	93.52
408.652	-9.95
408.865	68.52
409.078	72.01
409.291	52.63
409.504	17.18
409.717	36.36
409.93	58.83
410.143	46.63
410.357	-6.26
410.57	-24.48
410.783	32.48
410.996	35.2
411.209	33.26
411.421	85.57
411.634	30.55
411.847	0.71
412.06	24.93
412.273	30.74
412.486	27.64
412.699	126.26
412.912	39.65
413.125	71.43
413.338	53.99
413.55	65.42
413.763	63.87
413.976	66.58
414.189	2.26
414.402	5.94
414.615	94.68
414.827	2.45
415.04	46.63
415.253	29.97
415.466	77.05
415.678	103.98
415.891	53.99
416.104	37.33
416.316	28.42
416.529	14.85
416.742	72.01
416.954	73.56
417.167	37.13
417.38	35.58
417.592	72.2
417.805	12.14
418.017	1.87
418.23	75.5
418.442	1.87
418.655	37.91
418.868	58.64
419.08	93.71
419.293	102.23
419.505	47.21
419.718	63.29
419.93	78.79
420.142	56.9
420.355	103.98
420.567	95.07
420.78	60.77
420.992	65.62
421.205	119.09
421.417	-0.06
421.629	40.23
421.842	3.81
422.054	3.62
422.266	72.4
422.479	94.1
422.691	9.82
422.903	88.67
423.115	44.5
423.328	50.89
423.54	68.52
423.752	39.65
423.964	33.07
424.177	75.88
424.389	51.86
424.601	159.97
424.813	80.73
425.025	101.27
425.238	73.37
425.45	28.03
425.662	58.25
425.874	343.45
426.086	55.54
426.298	99.52
426.51	75.88
426.722	89.45
426.934	33.07
427.146	83.05
427.358	17.95
427.57	104.37
427.782	55.93
427.994	76.08
428.206	71.04
428.418	5.36
428.63	69.88
428.842	105.14
429.054	62.71
429.266	119.28
429.478	41.78
429.69	60.38
429.902	41.78
430.114	110.18
430.325	69.88
430.537	45.47
430.749	83.44
430.961	33.65
431.173	84.41
431.384	76.27
431.596	10.01
431.808	56.51
432.02	67.75
432.231	109.02
432.443	110.57
432.655	117.15
432.867	50.5
433.078	86.35
433.29	167.14
433.502	90.42
433.713	105.92
433.925	94.87
434.136	140.6
434.348	62.52
434.56	50.89
434.771	200.66
434.983	42.95
435.194	70.07
435.406	77.63
435.617	120.06
435.829	158.81
436.04	110.37
436.252	140.4
436.463	171.79
436.675	131.88
436.886	106.5
437.098	128.58
437.309	157.26
437.521	99.33
437.732	129.75
437.943	107.85
438.155	110.18
438.366	70.85
438.578	183.22
438.789	116.96
439	128.78
439.211	90.61
439.423	129.55
439.634	139.43
439.845	132.07
440.057	156.87
440.268	153.96
440.479	114.44
440.69	151.83
440.902	123.55
441.113	145.63
441.324	142.15
441.535	144.08
441.746	200.27
441.957	96.42
442.168	115.02
442.38	156.68
442.591	166.56
442.802	113.28
443.013	114.83
443.224	163.07
443.435	131.68
443.646	130.13
443.857	140.01
444.068	123.55
444.279	127.81
444.49	204.34
444.701	139.82
444.912	245.22
445.123	185.93
445.334	169.46
445.545	152.61
445.756	154.93
445.967	150.86
446.178	174.5
446.388	200.85
446.599	191.55
446.81	172.56
447.021	169.27
447.232	213.64
447.443	216.93
447.653	154.35
447.864	210.54
448.075	176.63
448.286	211.51
448.496	177.8
448.707	255.49
448.918	162.88
449.129	271.38
449.339	134.98
449.55	226.43
449.761	168.88
449.971	243.28
450.182	184.19
450.393	226.04
450.603	170.24
450.814	196.78
451.024	212.67
451.235	234.56
451.446	243.86
451.656	258.39
451.867	188.84
452.077	230.88
452.288	259.94
452.498	283.78
452.709	199.69
452.919	224.68
453.13	199.11
453.34	239.02
453.55	144.08
453.761	256.07
453.971	215.19
454.182	246.58
454.392	244.44
454.602	283.58
454.813	243.09
455.023	247.54
455.233	190.58
455.444	214.61
455.654	175.47
455.864	217.13
456.075	214.99
456.285	230.69
456.495	196.2
456.705	238.63
456.916	248.9
457.126	279.13
457.336	222.74
457.546	174.11
457.756	233.98
457.967	252.19
458.177	226.81
458.387	248.51
458.597	203.76
458.807	231.27
459.017	212.86
459.227	265.76
459.437	216.35
459.647	272.93
459.857	259.36
460.068	223.52
460.278	267.89
460.488	251.42
460.698	303.92
460.908	266.14
461.117	195.43
461.327	198.14
461.537	241.15
461.747	266.73
461.957	260.53
462.167	367.47
462.377	297.53
462.587	259.36
462.797	306.25
463.007	262.66
463.216	275.25
463.426	295.98
463.636	295.4
463.846	229.53
464.056	236.31
464.265	308.57
464.475	258.01
464.685	262.66
464.895	306.64
465.104	255.68
465.314	286.68
465.524	248.32
465.733	241.73
465.943	314.77
466.153	347.13
466.362	312.45
466.572	274.09
466.782	272.15
466.991	305.28
467.201	332.21
467.41	233.4
467.62	307.8
467.829	291.52
468.039	302.18
468.249	276.61
468.458	275.64
468.668	289.59
468.877	316.71
469.086	321.94
469.296	332.6
469.505	302.76
469.715	362.82
469.924	348.87
470.134	373.09
470.343	369.8
470.552	285.91
470.762	284.94
470.971	253.36
471.18	323.69
471.39	309.93
471.599	267.31
471.808	338.41
472.018	312.06
472.227	342.87
472.436	338.41
472.645	318.07
472.855	301.02
473.064	370.96
473.273	319.23
473.482	359.92
473.691	393.24
473.901	354.69
474.11	348.1
474.319	445.94
474.528	346.55
474.737	398.67
474.946	372.51
475.155	346.36
475.364	392.85
475.573	349.84
475.783	371.93
475.992	384.72
476.201	415.91
476.41	367.09
476.619	326.98
476.828	386.46
477.037	369.41
477.245	361.08
477.454	406.61
477.663	367.86
477.872	375.61
478.081	455.05
478.29	357.59
478.499	462.22
478.708	412.62
478.917	481.78
479.125	439.55
479.334	416.1
479.543	378.52
479.752	419.59
479.961	438
480.169	439.35
480.378	425.99
480.587	537.2
480.796	442.84
481.004	431.99
481.213	478.68
481.422	443.42
481.63	440.71
481.839	470.16
482.048	533.32
482.256	478.3
482.465	487.4
482.674	457.37
482.882	502.13
483.091	526.15
483.299	467.25
483.508	495.54
483.716	476.55
483.925	484.5
484.134	457.57
484.342	472.68
484.551	524.6
484.759	502.71
484.967	507.94
485.176	492.25
485.384	518.6
485.593	533.13
485.801	534.87
486.01	488.57
486.218	461.83
486.426	408.16
486.635	458.92
486.843	448.46
487.051	485.08
487.26	474.42
487.468	509.88
487.676	510.07
487.885	455.63
488.093	493.8
488.301	520.92
488.509	534.68
488.717	579.82
488.926	547.27
489.134	531.58
489.342	568.39
489.55	502.71
489.758	545.14
489.967	531.77
490.175	608.5
490.383	535.26
490.591	611.4
490.799	505.42
491.007	611.98
491.215	573.43
491.423	576.14
491.631	549.4
491.839	584.47
492.047	591.25
492.255	547.08
492.463	518.79
492.671	542.04
492.879	615.08
493.087	586.02
493.295	607.33
493.503	616.63
493.711	611.6
493.919	621.48
494.127	657.32
494.334	631.36
494.542	578.08
494.75	625.16
494.958	576.14
495.166	662.94
495.374	648.02
495.581	651.51
495.789	639.5
495.997	665.65
496.205	621.09
496.412	597.84
496.62	634.85
496.828	645.69
497.035	600.55
497.243	655.77
497.451	656.35
497.658	642.01
497.866	675.34
498.074	732.49
498.281	609.27
498.489	704.01
498.696	673.59
498.904	621.67
499.112	630.58
499.319	717.77
499.527	646.28
499.734	692.58
499.942	622.45
500.149	664.49
500.357	679.6
500.564	638.14
500.771	664.88
500.979	636.2
501.186	608.69
501.394	659.06
501.601	665.84
501.808	695.29
502.016	667.59
502.223	680.18
502.43	680.38
502.638	694.33
502.845	660.23
503.052	735.98
503.26	660.03
503.467	739.86
503.674	682.31
503.881	698.01
504.089	760.2
504.296	725.13
504.503	657.32
504.71	677.47
504.917	682.31
505.125	697.43
505.332	720.87
505.539	723.19
505.746	806.89
505.953	727.07
506.16	748.96
506.367	765.62
506.574	796.04
506.781	782.09
506.988	722.23
507.195	770.47
507.402	766.4
507.609	776.09
507.816	753.61
508.023	747.8
508.23	734.24
508.437	694.13
508.644	778.02
508.851	822.59
509.058	784.81
509.265	772.99
509.472	826.07
509.679	866.37
509.885	788.68
510.092	768.34
510.299	797.4
510.506	780.16
510.713	806.31
510.92	795.07
511.126	806.89
511.333	804.76
511.54	811.93
511.746	899.5
511.953	855.52
512.16	918.88
512.367	800.5
512.573	840.22
512.78	841.77
512.987	795.85
513.193	842.15
513.4	773.96
513.606	831.3
513.813	847.58
514.02	840.99
514.226	903.18
514.433	865.6
514.639	825.49
514.846	873.54
515.052	811.93
515.259	867.34
515.465	870.83
515.672	865.4
515.878	966.93
516.085	873.35
516.291	909.97
516.497	855.72
516.704	856.88
516.91	805.15
517.117	791.59
517.323	770.08
517.529	794.11
517.736	802.24
517.942	816.58
518.148	830.72
518.354	840.6
518.561	831.69
518.767	844.67
518.973	906.28
519.179	887.88
519.386	865.6
519.592	864.05
519.798	880.13
520.004	963.05
520.21	915.78
520.417	949.1
520.623	1003.16
520.829	982.82
521.035	925.47
521.241	959.76
521.447	976.81
521.653	1072.91
521.859	983.98
522.065	964.8
522.271	1074.07
522.477	1009.16
522.683	1082.98
522.889	1041.33
523.095	1015.75
523.301	1026.21
523.507	985.33
523.713	1035.9
523.919	999.48
524.125	1056.44
524.331	1033.19
524.537	1117.08
524.742	1091.12
524.948	1084.34
525.154	1092.67
525.36	1216.09
525.566	1101.78
525.772	1149.05
525.977	1035.32
526.183	1133.36
526.389	1142.66
526.595	1061.09
526.8	1045.98
527.006	1037.45
527.212	982.82
527.417	1014.78
527.623	998.7
527.829	1064.77
528.034	1075.62
528.24	1070.78
528.446	1039
528.651	1143.82
528.857	1165.32
529.062	1174.82
529.268	1145.37
529.473	1119.6
529.679	1135.49
529.884	1228.68
530.09	1192.84
530.295	1240.69
530.501	1211.24
530.706	1180.63
530.912	1163.97
531.117	1222.09
531.323	1203.11
531.528	1248.83
531.733	1245.15
531.939	1187.22
532.144	1232.75
532.35	1215.51
532.555	1249.02
532.76	1210.66
532.966	1211.63
533.171	1224.22
533.376	1154.86
533.581	1158.54
533.787	1206.4
533.992	1206.01
534.197	1288.35
534.402	1225
534.607	1205.24
534.813	1332.14
535.018	1230.42
535.223	1232.56
535.428	1242.05
535.633	1285.84
535.838	1322.26
536.043	1303.66
536.249	1361.2
536.454	1285.84
536.659	1311.6
536.864	1274.02
537.069	1281.38
537.274	1285.84
537.479	1295.91
537.684	1324.59
537.889	1230.04
538.094	1369.15
538.299	1311.8
538.504	1327.69
538.708	1328.07
538.913	1327.3
539.118	1268.79
539.323	1296.69
539.528	1276.15
539.733	1282.93
539.938	1303.85
540.142	1330.79
540.347	1279.05
540.552	1262.97
540.757	1272.47
540.962	1305.99
541.166	1225.58
541.371	1255.22
541.576	1283.7
541.781	1184.89
541.985	1273.63
542.19	1307.73
542.395	1381.55
542.599	1426.88
542.804	1340.47
543.008	1378.06
543.213	1268.4
543.418	1286.61
543.622	1305.6
543.827	1265.3
544.031	1340.86
544.236	1390.65
544.44	1316.64
544.645	1406.73
544.849	1300.17
545.054	1342.99
545.258	1442.19
545.463	1381.74
545.667	1291.07
545.872	1373.99
546.076	1360.82
546.281	1385.81
546.485	1364.69
546.689	1351.71
546.894	1409.64
547.098	1386.39
547.302	1323.62
547.507	1351.32
547.711	1383.87
547.915	1421.85
548.119	1343.57
548.324	1345.51
548.528	1405.57
548.732	1365.85
548.936	1438.7
549.141	1423.4
549.345	1390.65
549.549	1378.83
549.753	1417
549.957	1466.99
550.161	1468.73
550.366	1385.03
550.57	1397.82
550.774	1418.17
550.978	1411.38
551.182	1399.95
551.386	1364.69
551.59	1370.7
551.794	1358.49
551.998	1416.62
552.202	1417.39
552.406	1358.88
552.61	1411.77
552.814	1382.71
553.018	1464.86
553.222	1377.48
553.426	1407.32
553.63	1510.2
553.833	1385.42
554.037	1336.4
554.241	1420.88
554.445	1444.71
554.649	1401.7
554.853	1417.78
555.056	1461.56
555.26	1459.63
555.464	1437.35
555.668	1424.37
555.871	1453.23
556.075	1433.47
556.279	1362.56
556.483	1375.73
556.686	1400.34
556.89	1385.03
557.094	1400.34
557.297	1372.83
557.501	1446.06
557.704	1320.9
557.908	1410.03
558.112	1373.8
558.315	1427.46
558.519	1369.92
558.722	1392.2
558.926	1382.32
559.129	1299.98
559.333	1282.74
559.536	1319.35
559.74	1304.24
559.943	1275.95
560.147	1305.21
560.35	1333.3
560.553	1298.62
560.757	1287.19
560.96	1400.92
561.164	1377.48
561.367	1402.47
561.57	1315.87
561.774	1345.12
561.977	1318.58
562.18	1325.36
562.384	1402.08
562.587	1306.95
562.79	1342.02
562.993	1299.2
563.197	1376.32
563.4	1393.37
563.603	1379.03
563.806	1404.99
564.009	1316.25
564.212	1335.05
564.416	1294.17
564.619	1366.63
564.822	1262.97
565.025	1363.53
565.228	1319.35
565.431	1339.89
565.634	1221.32
565.837	1297.27
566.04	1267.04
566.243	1274.4
566.446	1203.88
566.649	1308.5
566.852	1245.54
567.055	1254.06
567.258	1304.82
567.461	1332.92
567.664	1348.22
567.867	1212.79
568.07	1280.41
568.273	1261.42
568.475	1298.62
568.678	1260.45
568.881	1231.97
569.084	1245.92
569.287	1137.43
569.489	1208.34
569.692	1218.02
569.895	1257.35
570.098	1183.92
570.3	1185.47
570.503	1125.41
570.706	1157.19
570.909	1176.17
571.111	1168.04
571.314	1169.01
571.516	1158.54
571.719	1156.99
571.922	1156.99
572.124	1148.66
572.327	1195.74
572.529	1115.92
572.732	1134.71
572.935	1193.81
573.137	1229.07
573.34	1133.55
573.542	1173.46
573.745	1165.91
573.947	1151.38
574.15	1163.39
574.352	1127.16
574.554	1197.1
574.757	1147.5
574.959	1119.02
575.162	1119.99
575.364	1129.29
575.566	1193.22
575.769	1091.12
575.971	1147.69
576.173	1040.36
576.376	1107.2
576.578	1146.92
576.78	1172.3
576.982	1025.05
577.185	1113.4
577.387	1092.86
577.589	1078.53
577.791	1101.39
577.993	1125.61
578.196	1064.19
578.398	1144.79
578.6	1142.85
578.802	1049.85
579.004	1081.63
579.206	1052.56
579.408	1098.68
579.61	1073.1
579.812	1146.34
580.014	1091.51
580.216	1075.23
580.418	1089.57
580.62	1045.78
580.822	1025.25
581.024	1100.61
581.226	1120.57
581.428	1075.43
581.63	1169.01
581.832	1083.56
582.034	1154.09
582.236	1131.23
582.438	1131.81
582.64	1140.53
582.841	1184.31
583.043	1182.96
583.245	1135.1
583.447	1116.5
583.649	1128.13
583.85	1132.78
584.052	1144.79
584.254	1073.1
584.456	1124.44
584.657	1074.85
584.859	1135.68
585.061	1136.26
585.262	1081.63
585.464	1058.57
585.666	1116.11
585.867	1076.78
586.069	1132.97
586.27	1084.92
586.472	1099.45
586.674	1057.02
586.875	1055.47
587.077	1080.85
587.278	1122.7
587.48	1050.63
587.681	1200.59
587.883	1098.29
588.084	1053.92
588.285	1057.99
588.487	1048.69
588.688	1068.45
588.89	1009.36
589.091	1017.5
589.292	987.66
589.494	987.27
589.695	938.45
589.896	866.95
590.098	893.3
590.299	976.81
590.5	890.59
590.702	958.6
590.903	965.96
591.104	1032.41
591.305	994.05
591.507	1051.4
591.708	1021.37
591.909	959.37
592.11	1048.3
592.311	1055.66
592.512	997.35
592.714	947.94
592.915	940.97
593.116	966.35
593.317	967.51
593.518	993.86
593.719	963.63
593.92	1028.93
594.121	1038.23
594.322	1013.23
594.523	1012.85
594.724	976.62
594.925	966.54
595.126	1034.93
595.327	1023.5
595.528	999.09
595.729	989.6
595.929	958.21
596.13	964.8
596.331	958.21
596.532	987.85
596.733	1036.1
596.934	1000.64
597.135	1034.74
597.335	1002.96
597.536	929.73
597.737	980.68
597.938	966.35
598.138	1003.35
598.339	957.43
598.54	973.71
598.74	987.85
598.941	953.95
599.142	1001.41
599.342	1006.26
599.543	971.58
599.744	972.35
599.944	955.3
600.145	983.98
600.345	1014.4
600.546	1051.6
600.746	1017.69
600.947	1070.58
601.147	1016.14
601.348	1043.85
601.548	987.47
601.749	1002.77
601.949	950.65
602.15	933.41
602.35	998.51
602.551	999.09
602.751	915
602.951	963.05
603.152	890.98
603.352	1011.49
603.552	980.3
603.753	1001.22
603.953	1018.27
604.153	981.65
604.354	970.22
604.554	980.49
604.754	992.7
604.954	918.3
605.155	990.18
605.355	949.1
605.555	1028.73
605.755	1041.91
605.955	1007.42
606.155	1006.65
606.356	985.33
606.556	983.78
606.756	987.47
606.956	923.92
607.156	1029.9
607.356	927.6
607.556	962.28
607.756	979.72
607.956	1028.35
608.156	1022.92
608.356	955.88
608.556	1013.62
608.756	983.2
608.956	948.91
609.156	942.32
609.356	927.79
609.556	934.38
609.755	965.57
609.955	888.27
610.155	946.2
610.355	980.68
610.555	923.14
610.755	956.85
610.954	880.13
611.154	939.61
611.354	1008.2
611.554	895.63
611.753	938.06
611.953	897.18
612.153	953.17
612.352	942.9
612.552	903.18
612.752	837.31
612.951	940.97
613.151	919.85
613.351	897.95
613.55	908.42
613.75	926.63
613.949	905.12
614.149	916.55
614.348	910.74
614.548	832.66
614.747	799.92
614.947	861.14
615.146	828.4
615.346	925.66
615.545	905.51
615.745	912.87
615.944	912.29
616.144	911.9
616.343	910.55
616.542	862.11
616.742	865.99
616.941	857.85
617.14	772.02
617.34	847.58
617.539	861.53
617.738	816
617.938	954.53
618.137	866.37
618.336	806.7
618.535	892.92
618.734	863.85
618.934	889.82
619.133	850.29
619.332	893.69
619.531	823.55
619.73	893.11
619.929	897.76
620.128	883.62
620.328	919.07
620.527	858.24
620.726	860.37
620.925	892.72
621.124	853.2
621.323	881.29
621.522	821.42
621.721	848.55
621.92	824.14
622.119	890.01
622.318	831.69
622.517	841.19
622.715	824.33
622.914	781.71
623.113	874.12
623.312	788.49
623.511	850.29
623.71	825.49
623.909	799.92
624.107	891.95
624.306	781.51
624.505	791.01
624.704	822.78
624.902	817.74
625.101	894.08
625.3	842.54
625.499	787.91
625.697	803.41
625.896	751.09
626.095	843.32
626.293	771.05
626.492	764.66
626.69	835.76
626.889	791.39
627.088	802.44
627.286	802.63
627.485	767.37
627.683	759.81
627.882	804.57
628.08	724.94
628.279	759.81
628.477	835.76
628.676	766.4
628.874	786.74
629.073	740.05
629.271	767.56
629.469	758.46
629.668	725.91
629.866	734.82
630.065	756.52
630.263	770.86
630.461	729.01
630.66	760.59
630.858	778.61
631.056	836.15
631.254	811.35
631.453	713.7
631.651	767.56
631.849	729.39
632.047	766.98
632.245	716.22
632.444	777.25
632.642	778.99
632.84	762.91
633.038	743.73
633.236	756.32
633.434	726.29
633.632	710.79
633.83	715.44
634.028	798.17
634.227	748.57
634.425	835.57
634.623	787.13
634.821	739.86
635.019	776.86
635.216	747.22
635.414	787.71
635.612	749.16
635.81	760.2
636.008	790.62
636.206	762.52
636.404	759.42
636.602	713.31
636.8	733.07
636.997	781.32
637.195	780.74
637.393	769.89
637.591	821.04
637.789	795.46
637.986	772.02
638.184	776.47
638.382	826.85
638.58	802.82
638.777	847.97
638.975	809.8
639.173	811.35
639.37	816
639.568	773.18
639.765	816.39
639.963	751.67
640.161	782.67
640.358	790.04
640.556	741.21
640.753	748.77
640.951	719.13
641.148	778.22
641.346	738.11
641.543	747.99
641.741	798.37
641.938	707.11
642.136	772.41
642.333	728.04
642.531	770.47
642.728	835.95
642.925	762.91
643.123	712.15
643.32	772.41
643.517	747.99
643.715	768.72
643.912	722.23
644.109	769.69
644.306	749.54
644.504	690.06
644.701	768.53
644.898	789.07
645.095	714.09
645.293	738.69
645.49	745.47
645.687	757.87
645.884	753.61
646.081	683.67
646.278	681.73
646.475	696.84
646.672	698.98
646.87	748.57
647.067	728.62
647.264	716.99
647.461	661.78
647.658	651.51
647.855	737.72
648.052	672.04
648.249	609.85
648.446	661.97
648.642	688.51
648.839	652.67
649.036	656.93
649.233	622.45
649.43	620.12
649.627	607.72
649.824	649.38
650.021	648.79
650.217	645.89
650.414	643.56
650.611	678.05
650.808	673.79
651.004	640.08
651.201	691.23
651.398	700.33
651.595	653.64
651.791	620.12
651.988	693.36
652.185	624.96
652.381	677.66
652.578	586.21
652.775	655.58
652.971	664.88
653.168	651.7
653.364	675.92
653.561	607.14
653.757	649.18
653.954	648.02
654.15	618.76
654.347	730.17
654.543	632.33
654.74	614.7
654.936	610.63
655.133	630.2
655.329	636.4
655.525	613.53
655.722	657.51
655.918	602.68
656.115	623.03
656.311	555.8
656.507	541.46
656.704	521.12
656.9	552.5
657.096	542.62
657.292	544.56
657.489	592.61
657.685	576.14
657.881	584.86
658.077	596.29
658.273	593.77
658.47	682.89
658.666	623.61
658.862	641.24
659.058	611.01
659.254	666.43
659.45	590.48
659.646	616.63
659.842	618.38
660.038	630
660.234	585.25
660.43	626.9
660.626	686.19
660.822	641.04
661.018	646.47
661.214	602.88
661.41	573.23
661.606	626.9
661.802	664.49
661.998	600.16
662.194	588.73
662.39	625.74
662.586	619.15
662.781	641.04
662.977	610.63
663.173	670.3
663.369	620.7
663.564	617.99
663.76	624
663.956	609.85
664.152	639.88
664.347	551.53
664.543	618.57
664.739	595.71
664.934	544.56
665.13	547.27
665.326	628.84
665.521	616.25
665.717	558.12
665.912	569.16
666.108	527.51
666.304	569.55
666.499	586.21
666.695	522.08
666.89	582.53
667.086	584.08
667.281	581.76
667.477	630.58
667.672	573.43
667.867	576.72
668.063	569.94
668.258	559.28
668.454	563.74
668.649	642.59
668.844	582.34
669.04	602.3
669.235	578.27
669.43	536.81
669.626	528.09
669.821	528.28
670.016	527.9
670.211	549.98
670.407	521.31
670.602	571.1
670.797	531
670.992	589.51
671.187	547.08
671.382	600.16
671.578	567.03
671.773	591.06
671.968	490.89
672.163	537.58
672.358	569.55
672.553	525.77
672.748	537
672.943	616.44
673.138	542.82
673.333	588.15
673.528	524.41
673.723	586.6
673.918	543.59
674.113	509.3
674.308	616.63
674.503	576.14
674.698	590.28
674.892	550.18
675.087	583.7
675.282	565.48
675.477	537.97
675.672	570.33
675.867	519.37
676.061	481.98
676.256	491.86
676.451	528.67
676.646	554.83
676.84	510.85
677.035	506.78
677.23	496.51
677.424	542.23
677.619	548.05
677.814	562.19
678.008	549.98
678.203	479.46
678.397	503.87
678.592	570.71
678.787	579.05
678.981	535.65
679.176	531.19
679.37	560.25
679.565	500.38
679.759	507.17
679.954	571.88
680.148	600.36
680.342	599.78
680.537	577.69
680.731	536.03
680.926	556.57
681.12	556.18
681.314	493.6
681.509	511.82
681.703	539.13
681.897	541.65
682.092	535.84
682.286	524.41
682.48	616.25
682.674	583.5
682.869	527.7
683.063	525.57
683.257	594.93
683.451	520.92
683.645	543.2
683.839	543.78
684.034	532.16
684.228	577.11
684.422	491.47
684.616	508.52
684.81	544.56
685.004	519.37
685.198	541.27
685.392	554.44
685.586	483.14
685.78	541.27
685.974	569.36
686.168	529.06
686.362	582.53
686.556	508.91
686.75	449.04
686.944	476.36
687.138	470.74
687.331	392.27
687.525	400.6
687.719	339.38
687.913	400.6
688.107	430.64
688.301	429.09
688.494	480.04
688.688	428.7
688.882	372.12
689.076	394.21
689.269	434.12
689.463	497.48
689.657	452.14
689.85	428.5
690.044	455.05
690.238	465.32
690.431	448.27
690.625	440.9
690.818	508.13
691.012	484.69
691.205	512.01
691.399	442.45
691.593	503.29
691.786	574.98
691.98	528.28
692.173	589.7
692.366	537.78
692.56	557.54
692.753	612.76
692.947	515.11
693.14	593
693.333	602.88
693.527	503.87
693.72	567.61
693.914	566.06
694.107	572.65
694.3	586.6
694.493	563.16
694.687	617.8
694.88	545.14
695.073	646.28
695.266	628.26
695.46	606.36
695.653	669.14
695.846	643.76
696.039	579.63
696.232	613.73
696.425	646.08
696.618	644.53
696.812	655.58
697.005	719.9
697.198	756.32
697.391	704.79
697.584	710.21
697.777	760.01
697.97	754.77
698.163	758.84
698.356	716.8
698.549	835.57
698.742	766.79
698.935	705.95
699.127	756.13
699.32	747.02
699.513	737.53
699.706	761.17
699.899	791.01
700.092	759.23
700.285	774.73
700.477	708.08
700.67	809.22
700.863	790.42
701.056	858.04
701.248	829.56
701.441	860.17
701.634	796.04
701.826	942.9
702.019	788.49
702.212	901.83
702.404	819.1
702.597	834.6
702.79	849.32
702.982	879.55
703.175	894.47
703.367	925.08
703.56	911.52
703.752	1015.95
703.945	953.75
704.137	971.38
704.33	958.02
704.522	992.89
704.715	1012.26
704.907	1015.75
705.1	1040.75
705.292	1054.11
705.484	1021.37
705.677	1051.4
705.869	1049.08
706.061	1096.93
706.254	1101.78
706.446	1070
706.638	1031.83
706.831	1145.56
707.023	1092.28
707.215	1159.9
707.407	1151.57
707.599	1127.16
707.792	1156.22
707.984	1175.98
708.176	1232.36
708.368	1162.42
708.56	1224.42
708.752	1190.12
708.944	1190.71
709.136	1214.92
709.329	1206.21
709.521	1326.14
709.713	1305.02
709.905	1306.57
710.097	1353.65
710.289	1257.16
710.481	1258.32
710.672	1292.81
710.864	1346.67
711.056	1341.63
711.248	1323.62
711.44	1330.59
711.632	1342.99
711.824	1361.4
712.016	1402.28
712.207	1384.26
712.399	1434.44
712.591	1465.25
712.783	1466.02
712.975	1460.6
713.166	1375.35
713.358	1461.56
713.55	1528.99
713.741	1530.54
713.933	1465.83
714.125	1484.23
714.316	1448.58
714.508	1529.76
714.7	1535.19
714.891	1522.21
715.083	1540.81
715.274	1522.59
715.466	1540.61
715.657	1566.96
715.849	1514.65
716.04	1547.2
716.232	1485.4
716.423	1576.65
716.615	1454.59
716.806	1457.69
716.998	1404.41
717.189	1366.24
717.381	1290.1
717.572	1290.68
717.763	1322.07
717.955	1308.5
718.146	1269.56
718.337	1231.78
718.528	1206.98
718.72	1150.6
718.911	1242.24
719.102	1198.65
719.293	1229.46
719.485	1222.09
719.676	1224.81
719.867	1191.87
720.058	1203.11
720.249	1191.67
720.44	1239.92
720.632	1276.92
720.823	1297.46
721.014	1368.95
721.205	1386
721.396	1465.25
721.587	1499.15
721.778	1495.28
721.969	1578.78
722.16	1572.39
722.351	1590.6
722.542	1682.24
722.733	1730.68
722.924	1639.62
723.115	1686.51
723.305	1632.06
723.496	1677.01
723.687	1576.46
723.878	1577.04
724.069	1590.41
724.26	1571.81
724.45	1564.25
724.641	1535.38
724.832	1589.05
725.023	1586.14
725.213	1537.32
725.404	1550.69
725.595	1541.19
725.785	1486.17
725.976	1613.27
726.167	1609.01
726.357	1592.73
726.548	1696.58
726.739	1600.09
726.929	1647.17
727.12	1697.94
727.31	1719.83
727.501	1643.69
727.691	1678.95
727.882	1676.82
728.072	1734.55
728.263	1730.49
728.453	1771.37
728.644	1763.62
728.834	1731.45
729.024	1678.56
729.215	1699.1
729.405	1726.42
729.596	1781.44
729.786	1829.49
729.976	1801.98
730.167	1803.33
730.357	1766.33
730.547	1779.12
730.737	1833.37
730.928	1880.64
731.118	1891.3
731.308	1857.2
731.498	1863.98
731.688	1895.36
731.879	1908.93
732.069	1990.3
732.259	1980.81
732.449	2034.48
732.639	2090.27
732.829	2072.06
733.019	2117.21
733.209	2160.22
733.399	2171.45
733.589	2215.05
733.779	2224.15
733.969	2207.88
734.159	2274.72
734.349	2289.64
734.539	2323.16
734.729	2309.6
734.919	2332.26
735.109	2390.19
735.299	2342.34
735.488	2335.36
735.678	2389.42
735.868	2375.66
736.058	2373.34
736.248	2354.55
736.437	2290.8
736.627	2268.52
736.817	2452.58
737.007	2401.63
737.196	2445.8
737.386	2400.08
737.576	2368.3
737.765	2453.16
737.955	2411.51
738.144	2544.81
738.334	2457.23
738.524	2423.91
738.713	2498.11
738.903	2448.32
739.092	2504.12
739.282	2462.27
739.471	2477.57
739.661	2504.12
739.85	2497.14
740.04	2463.82
740.229	2535.51
740.419	2541.32
740.608	2583.17
740.797	2543.06
740.987	2578.13
741.176	2547.52
741.365	2544.61
741.555	2505.86
741.744	2612.23
741.933	2554.88
742.123	2607
742.312	2604.67
742.501	2648.46
742.69	2622.3
742.88	2591.5
743.069	2732.35
743.258	2647.49
743.447	2703.1
743.636	2679.46
743.825	2630.44
744.014	2654.08
744.204	2688.37
744.393	2650.98
744.582	2688.95
744.771	2718.02
744.96	2661.25
745.149	2704.45
745.338	2632.38
745.527	2712.2
745.716	2674.81
745.905	2655.24
746.094	2720.15
746.283	2717.63
746.471	2705.03
746.66	2743.78
746.849	2721.31
747.038	2740.49
747.227	2713.95
747.416	2746.3
747.604	2698.64
747.793	2715.5
747.982	2713.37
748.171	2720.53
748.359	2727.7
748.548	2691.67
748.737	2721.12
748.926	2685.27
749.114	2628.31
749.303	2661.44
749.491	2695.54
749.68	2645.36
749.869	2729.06
750.057	2666.48
750.246	2658.92
750.434	2683.33
750.623	2683.72
750.811	2662.99
751	2737.97
751.188	2685.66
751.377	2678.88
751.565	2675.2
751.754	2630.44
751.942	2683.53
752.131	2712.2
752.319	2642.26
752.507	2584.52
752.696	2655.24
752.884	2700.38
753.072	2702.71
753.261	2690.7
753.449	2675.39
753.637	2639.55
753.825	2751.73
754.014	2658.53
754.202	2642.84
754.39	2724.99
754.578	2698.25
754.766	2617.85
754.955	2603.12
755.143	2721.5
755.331	2639.74
755.519	2681.59
755.707	2658.34
755.895	2646.91
756.083	2622.3
756.271	2601.96
756.459	2565.92
756.647	2674.81
756.835	2589.75
757.023	2580.07
757.211	2595.57
757.399	2612.42
757.587	2627.92
757.775	2540.93
757.963	2567.09
758.151	2583.75
758.339	2491.91
758.526	2450.26
758.714	2572.12
758.902	2433.79
759.09	2433.4
759.278	2210.01
759.465	2066.06
759.653	1740.95
759.841	1645.43
760.028	1377.48
760.216	1156.8
760.404	1115.53
760.591	895.63
760.779	762.52
760.967	681.93
761.154	541.27
761.342	588.15
761.529	578.08
761.717	633.88
761.905	650.73
762.092	709.24
762.28	673.98
762.467	671.46
762.655	581.95
762.842	634.07
763.029	624.38
763.217	652.48
763.404	660.61
763.592	670.88
763.779	607.33
763.966	692.19
764.154	718.54
764.341	743.92
764.528	764.85
764.716	811.74
764.903	857.07
765.09	890.98
765.277	931.08
765.465	1061.48
765.652	1118.83
765.839	1166.87
766.026	1260.45
766.213	1262
766.4	1385.62
766.588	1543.33
766.775	1528.99
766.962	1598.54
767.149	1639.81
767.336	1774.47
767.523	1716.15
767.71	1838.02
767.897	1912.61
768.084	1996.31
768.271	1984.88
768.458	2070.71
768.645	2148.2
768.832	2101.32
769.019	2104.61
769.206	2092.02
769.392	2191.02
769.579	2314.44
769.766	2239.85
769.953	2231.9
770.14	2293.13
770.327	2262.13
770.513	2324.9
770.7	2404.53
770.887	2273.95
771.073	2322.58
771.26	2288.67
771.447	2242.75
771.634	2295.07
771.82	2370.63
772.007	2282.28
772.193	2330.52
772.38	2378.57
772.567	2290.22
772.753	2344.86
772.94	2371.4
773.126	2377.6
773.313	2387.48
773.499	2308.63
773.686	2366.75
773.872	2329.16
774.059	2351.25
774.245	2313.86
774.432	2315.6
774.618	2229.77
774.804	2332.26
774.991	2272.59
775.177	2326.26
775.363	2291.77
775.55	2322.96
775.736	2220.86
775.922	2260.97
776.109	2282.08
776.295	2243.53
776.481	2319.48
776.667	2313.66
776.853	2249.53
777.04	2247.79
777.226	2255.15
777.412	2331.3
777.598	2233.26
777.784	2252.25
777.97	2214.08
778.156	2251.86
778.342	2197.42
778.528	2217.37
778.715	2177.65
778.901	2222.6
779.087	2253.02
779.272	2209.62
779.458	2160.99
779.644	2183.66
779.83	2115.85
780.016	2295.84
780.202	2204.78
780.388	2187.34
780.574	2127.86
780.76	2137.35
780.946	2191.99
781.131	2173.97
781.317	2153.44
781.503	2128.25
781.689	2155.18
781.874	2305.53
782.06	2125.73
782.246	2117.01
782.432	2136.19
782.617	2184.63
782.803	2185.02
782.989	2096.09
783.174	2088.72
783.36	2084.27
783.545	2110.42
783.731	2102.67
783.916	1991.85
784.102	2098.02
784.288	2056.76
784.473	2064.12
784.659	2066.06
784.844	2105
785.029	2066.64
785.215	2044.55
785.4	2001.34
785.586	2115.66
785.771	2035.44
785.956	2064.51
786.142	2024.59
786.327	1983.91
786.512	1996.5
786.698	1992.24
786.883	1942.06
787.068	1949.03
787.254	1999.79
787.439	1978.29
787.624	1965.11
787.809	1932.95
787.994	1961.04
788.18	2010.84
788.365	1914.16
788.55	1925.78
788.735	1914.93
788.92	1905.63
789.105	1898.27
789.29	1948.26
789.475	1885.1
789.66	1911.83
789.845	1846.35
790.03	1856.62
790.215	1898.08
790.4	1929.46
790.585	1947.87
790.77	1866.5
790.955	1787.64
791.14	1891.3
791.325	1937.41
791.51	1795.2
791.695	1853.71
791.879	1825.81
792.064	1775.05
792.249	1879.86
792.434	1832.01
792.618	1859.33
792.803	1896.33
792.988	1863.98
793.173	1822.52
793.357	1894.59
793.542	1829.88
793.727	1863.98
793.911	1908.15
794.096	1842.86
794.281	1875.02
794.465	1990.49
794.65	1834.72
794.834	1867.27
795.019	1968.6
795.203	1934.11
795.388	1919
795.572	1934.7
795.757	1897.69
795.941	1941.48
796.126	1909.7
796.31	1802.56
796.494	1906.21
796.679	1867.66
796.863	1846.73
797.048	1907.18
797.232	1899.24
797.416	1889.75
797.601	1839.18
797.785	1937.21
797.969	1944.58
798.153	1847.12
798.338	1902.53
798.522	1921.52
798.706	1921.33
798.89	1919.39
799.074	1990.11
799.258	1937.8
799.443	1926.95
799.627	1896.72
799.811	1977.9
799.995	1945.74
800.179	1879.67
800.363	1907.96
800.547	1944.96
800.731	1954.84
800.915	1862.82
801.099	1898.27
801.283	1882.77
801.467	1942.64
801.651	1883.16
801.835	1947.29
802.019	1880.45
802.202	1923.46
802.386	1869.98
802.57	1888.58
802.754	1869.6
802.938	1849.06
803.121	1823.29
803.305	1952.13
803.489	1897.88
803.673	1934.5
803.856	1940.12
804.04	1908.35
804.224	1924.43
804.407	1926.56
804.591	1844.22
804.775	1860.49
804.958	1894.01
805.142	1978.87
805.326	1889.94
805.509	1900.4
805.693	1934.11
805.876	1936.25
806.06	1923.46
806.243	1925.98
806.427	1971.51
806.61	1974.03
806.794	1895.75
806.977	1969.38
807.16	1926.95
807.344	1918.61
807.527	1921.71
807.71	1879.86
807.894	1902.34
808.077	1959.69
808.26	1863.59
808.444	1865.53
808.627	1959.11
808.81	1916.68
808.993	1844.99
809.177	1842.86
809.36	1862.04
809.543	1868.43
809.726	1795.2
809.909	1814.96
810.092	1803.33
810.276	1822.9
810.459	1836.08
810.642	1814.18
810.825	1784.54
811.008	1774.27
811.191	1640.2
811.374	1673.33
811.557	1697.74
811.74	1776.21
811.923	1686.12
812.106	1648.14
812.289	1633.81
812.472	1662.48
812.654	1658.8
812.837	1650.86
813.02	1598.16
813.203	1571.42
813.386	1490.05
813.569	1465.83
813.751	1436.18
813.934	1478.23
814.117	1459.43
814.3	1418.17
814.482	1380.19
814.665	1369.53
814.848	1359.46
815.03	1277.89
815.213	1312.57
815.396	1322.65
815.578	1286.42
815.761	1266.07
815.943	1326.14
816.126	1259.1
816.309	1194.97
816.491	1124.25
816.674	1112.82
816.856	1164.16
817.039	1153.31
817.221	1231.01
817.403	1184.7
817.586	1187.22
817.768	1223.84
817.951	1147.69
818.133	1112.43
818.315	1139.94
818.498	1191.29
818.68	1268.4
818.862	1222.48
819.045	1267.62
819.227	1226.16
819.409	1199.42
819.591	1259.87
819.774	1193.22
819.956	1151.76
820.138	1258.52
820.32	1225.19
820.502	1261.81
820.684	1303.08
820.866	1336.02
821.048	1400.92
821.231	1342.8
821.413	1358.3
821.595	1332.14
821.777	1369.73
821.959	1356.17
822.141	1419.13
822.323	1286.8
822.505	1246.89
822.686	1186.44
822.868	1159.9
823.05	1058.38
823.232	1049.08
823.414	1022.53
823.596	1069.61
823.778	1045.59
823.96	1081.63
824.141	1084.92
824.323	1115.53
824.505	1181.99
824.687	1201.36
824.868	1237.01
825.05	1340.47
825.232	1321.29
825.413	1387.17
825.595	1328.65
825.777	1288.35
825.958	1340.28
826.14	1259.68
826.321	1343.18
826.503	1321.1
826.685	1329.43
826.866	1349.19
827.048	1348.8
827.229	1270.53
827.411	1262
827.592	1257.16
827.773	1222.67
827.955	1181.41
828.136	1216.67
828.318	1142.66
828.499	1236.24
828.68	1157.77
828.862	1195.74
829.043	1226.16
829.224	1213.18
829.406	1176.37
829.587	1184.51
829.768	1168.42
829.949	1211.82
830.131	1180.44
830.312	1250.38
830.493	1182.96
830.674	1172.69
830.855	1182.96
831.036	1181.02
831.218	1239.72
831.399	1250.57
831.58	1163.97
831.761	1196.91
831.942	1215.7
832.123	1191.48
832.304	1127.54
832.485	1178.69
832.666	1178.5
832.847	1220.74
833.028	1171.52
833.209	1187.8
833.389	1161.06
833.57	1114.76
833.751	1159.71
833.932	1225.97
834.113	1190.71
834.294	1224.03
834.475	1200.78
834.655	1223.45
834.836	1265.3
835.017	1232.36
835.198	1142.46
835.378	1212.79
835.559	1221.9
835.74	1220.16
835.92	1148.66
836.101	1163.39
836.281	1236.62
836.462	1211.24
836.643	1237.59
836.823	1248.44
837.004	1224.03
837.184	1278.47
837.365	1249.41
837.545	1260.07
837.726	1215.51
837.906	1280.99
838.087	1242.82
838.267	1242.05
838.448	1182.37
838.628	1271.3
838.808	1217.83
838.989	1285.64
839.169	1189.35
839.349	1241.08
839.53	1236.24
839.71	1259.29
839.89	1210.86
840.07	1289.71
840.251	1207.37
840.431	1275.57
840.611	1212.02
840.791	1185.28
840.971	1235.46
841.151	1212.41
841.332	1202.33
841.512	1254.84
841.692	1166.29
841.872	1244.18
842.052	1224.03
842.232	1245.73
842.412	1152.73
842.592	1203.88
842.772	1258.9
842.952	1228.29
843.132	1194.97
843.312	1204.85
843.492	1177.53
843.672	1234.11
843.851	1146.73
844.031	1202.14
844.211	1203.3
844.391	1149.44
844.571	1203.49
844.751	1224.61
844.93	1221.32
845.11	1195.94
845.29	1195.94
845.47	1202.52
845.649	1223.06
845.829	1208.34
846.009	1135.29
846.188	1230.42
846.368	1200.97
846.547	1179.66
846.727	1225.77
846.907	1145.56
847.086	1171.52
847.266	1209.31
847.445	1168.04
847.625	1174.62
847.804	1139.36
847.984	1180.63
848.163	1146.92
848.343	1137.81
848.522	1155.44
848.701	1130.06
848.881	1138.78
849.06	1173.66
849.239	1152.93
849.419	1177.14
849.598	1122.7
849.777	1100.61
849.957	1126.38
850.136	1036.29
850.315	1038.23
850.494	1062.45
850.674	1064.96
850.853	1117.66
851.032	1094.8
851.211	1119.41
851.39	1112.63
851.569	1039.78
851.748	1049.66
851.927	1105.07
852.107	1064.77
852.286	1017.69
852.465	1038.23
852.644	1090.34
852.823	1065.55
853.002	1097.9
853.181	1092.09
853.359	1109.14
853.538	1024.47
853.717	1102.94
853.896	969.25
854.075	948.33
854.254	965.77
854.433	876.64
854.611	980.1
854.79	898.73
854.969	948.91
855.148	975.26
855.327	943.29
855.505	977
855.684	946.78
855.863	976.03
856.041	929.15
856.22	1019.43
856.399	973.32
856.577	1071.55
856.756	1044.23
856.934	1136.65
857.113	1101.19
857.291	1004.32
857.47	996.57
857.648	1028.54
857.827	1026.6
858.005	1087.24
858.184	1003.35
858.362	1100.61
858.541	1030.48
858.719	1011.49
858.898	1012.07
859.076	1005.48
859.254	1096.35
859.433	1005.1
859.611	978.36
859.789	989.98
859.967	1080.27
860.146	1079.88
860.324	970.42
860.502	992.7
860.68	947.94
860.859	964.41
861.037	1001.22
861.215	1004.51
861.393	1004.32
861.571	996.18
861.749	962.47
861.927	979.72
862.105	1020.79
862.283	985.53
862.461	966.73
862.639	926.24
862.817	952.01
862.995	949.3
863.173	930.5
863.351	955.3
863.529	995.21
863.707	1016.72
863.885	992.5
864.063	929.73
864.241	916.75
864.418	1000.64
864.596	924.5
864.774	885.36
864.952	942.52
865.129	955.3
865.307	928.95
865.485	871.6
865.663	957.43
865.84	836.92
866.018	911.32
866.196	808.64
866.373	834.6
866.551	792.94
866.728	774.15
866.906	788.29
867.084	826.27
867.261	862.5
867.439	839.25
867.616	882.65
867.794	874.32
867.971	876.64
868.149	870.05
868.326	908.03
868.503	903.18
868.681	906.48
868.858	887.1
869.035	830.34
869.213	902.8
869.39	889.43
869.567	919.85
869.745	882.26
869.922	931.86
870.099	921.98
870.276	908.42
870.454	911.71
870.631	889.04
870.808	848.94
870.985	923.53
871.162	966.54
871.339	907.06
871.517	821.04
871.694	843.51
871.871	862.11
872.048	851.65
872.225	863.47
872.402	888.85
872.579	825.88
872.756	870.83
872.933	853
873.11	841.96
873.287	846.03
873.463	839.05
873.64	793.72
873.817	850.1
873.994	846.61
874.171	822.2
874.348	849.13
874.524	796.04
874.701	843.51
874.878	782.67
875.055	842.54
875.231	827.82
875.408	868.7
875.585	775.31
875.762	823.94
875.938	792.17
876.115	785
876.291	821.23
876.468	806.31
876.645	758.46
876.821	803.6
876.998	776.09
877.174	794.11
877.351	777.83
877.527	795.85
877.704	808.25
877.88	798.17
878.057	768.34
878.233	803.99
878.409	789.65
878.586	815.8
878.762	754.39
878.938	763.49
879.115	721.45
879.291	750.32
879.467	702.46
879.644	744.51
879.82	757.87
879.996	730.94
880.172	697.62
880.349	721.45
880.525	783.45
880.701	726.88
880.877	749.16
881.053	734.82
881.229	742.76
881.405	797.59
881.581	712.93
881.757	734.24
881.933	737.14
882.109	789.84
882.285	753.81
882.461	707.5
882.637	731.72
882.813	718.74
882.989	726.49
883.165	788.49
883.341	730.75
883.517	746.25
883.693	740.05
883.869	769.5
884.044	735.98
884.22	752.64
884.396	777.25
884.572	761.36
884.747	784.61
884.923	776.09
885.099	770.86
885.275	811.54
885.45	732.3
885.626	727.84
885.801	729.01
885.977	723.78
886.153	703.24
886.328	777.25
886.504	718.54
886.679	745.47
886.855	677.86
887.03	735.01
887.206	756.91
887.381	754.97
887.557	764.66
887.732	779.77
887.908	753.22
888.083	771.05
888.258	730.94
888.434	715.25
888.609	751.29
888.784	790.23
888.96	723.78
889.135	698.59
889.31	696.07
889.485	736.37
889.661	727.84
889.836	772.41
890.011	757.49
890.186	729.2
890.361	706.73
890.537	734.82
890.712	740.05
890.887	713.31
891.062	743.92
891.237	760.39
891.412	700.91
891.587	735.21
891.762	782.29
891.937	784.61
892.112	707.31
892.287	718.93
892.462	729.78
892.637	663.13
892.812	643.76
892.987	665.46
893.161	654.22
893.336	659.84
893.511	667.59
893.686	655.38
893.861	672.24
894.035	655.96
894.21	648.21
894.385	603.26
894.56	674.76
894.734	599.58
894.909	617.6
895.084	630.39
895.258	623.22
895.433	639.69
895.608	584.66
895.782	580.6
895.957	587.18
896.131	589.7
896.306	525.38
896.48	508.91
896.655	533.71
896.829	471.71
897.004	463.96
897.178	496.7
897.353	475.78
897.527	522.86
897.701	488.76
897.876	460.47
898.05	544.37
898.224	516.27
898.399	524.99
898.573	485.85
898.747	413.59
898.921	455.63
899.096	382.2
899.27	394.21
899.444	403.9
899.618	391.11
899.792	414.55
899.967	430.64
900.141	471.52
900.315	405.06
900.489	393.24
900.663	460.28
900.837	445.75
901.011	402.93
901.185	480.82
901.359	430.25
901.533	428.5
901.707	439.35
901.881	420.37
902.055	378.71
902.229	383.94
902.403	462.02
902.576	417.46
902.75	428.31
902.924	535.84
903.098	474.81
903.272	503.29
903.446	537.58
903.619	511.82
903.793	563.55
903.967	520.34
904.14	563.74
904.314	550.18
904.488	544.95
904.661	571.3
904.835	564.71
905.009	575.17
905.182	601.52
905.356	586.41
905.529	540.68
905.703	536.23
905.876	507.55
906.05	477.91
906.223	487.4
906.397	440.32
906.57	421.14
906.744	404.48
906.917	413.59
907.09	416.1
907.264	422.3
907.437	408.74
907.61	375.03
907.784	381.62
907.957	426.76
908.13	356.43
908.304	427.73
908.477	385.1
908.65	403.32
908.823	358.95
908.996	436.84
909.17	369.41
909.343	372.12
909.516	382.78
909.689	384.72
909.862	346.94
910.035	384.91
910.208	333.18
910.381	341.71
910.554	463.57
910.727	359.72
910.9	380.65
911.073	325.62
911.246	435.87
911.419	385.69
911.592	408.55
911.765	380.45
911.938	367.47
912.11	365.15
912.283	378.52
912.456	416.3
912.629	402.54
912.802	347.52
912.974	346.74
913.147	298.5
913.32	271.57
913.493	306.44
913.665	325.62
913.838	357.21
914.01	321.75
914.183	321.94
914.356	299.66
914.528	360.69
914.701	389.75
914.873	361.27
915.046	324.27
915.218	320.97
915.391	243.86
915.563	255.88
915.736	345
915.908	322.91
916.081	320.2
916.253	311.29
916.425	323.11
916.598	369.02
916.77	328.92
916.942	294.04
917.115	210.93
917.287	316.71
917.459	314.39
917.632	250.06
917.804	234.76
917.976	297.53
918.148	306.06
918.32	302.96
918.493	334.54
918.665	358.17
918.837	314.39
919.009	373.09
919.181	370.19
919.353	343.64
919.525	332.99
919.697	297.34
919.869	346.16
920.041	401.19
920.213	456.4
920.385	407
920.557	329.31
920.729	371.35
920.901	347.71
921.073	335.12
921.244	315.74
921.416	364.76
921.588	350.62
921.76	333.96
921.932	384.72
922.103	338.02
922.275	320.39
922.447	349.46
922.619	286.29
922.79	314.97
922.962	312.06
923.134	355.27
923.305	284.36
923.477	267.11
923.648	284.36
923.82	297.72
923.991	252.97
924.163	245.41
924.335	274.28
924.506	250.26
924.677	341.51
924.849	274.09
925.02	285.13
925.192	302.76
925.363	283.78
925.535	285.33
925.706	290.56
925.877	320.01
926.049	254.33
926.22	269.83
926.391	296.37
926.562	306.25
926.734	282.42
926.905	294.62
927.076	199.3
927.247	287.26
927.419	208.99
927.59	229.33
927.761	243.67
927.932	230.49
928.103	234.76
928.274	191.16
928.445	191.55
928.616	200.66
928.787	223.33
928.958	242.31
929.129	213.64
929.3	217.32
929.471	156.1
929.642	154.55
929.813	104.75
929.984	166.56
930.155	98.94
930.326	170.24
930.496	130.91
930.667	72.01
930.838	145.44
931.009	61.16
931.18	94.68
931.35	111.92
931.521	131.68
931.692	66.58
931.863	27.25
932.033	80.53
932.204	95.26
932.374	97
932.545	45.47
932.716	131.1
932.886	97.58
933.057	12.34
933.227	9.24
933.398	119.67
933.568	32.48
933.739	-14.6
933.909	18.92
934.08	58.25
934.25	-18.47
934.421	6.91
934.591	48.57
934.761	10.59
934.932	-2.39
935.102	34.81
935.272	33.07
935.443	28.61
935.613	16.6
935.783	41.59
935.953	-25.83
936.123	160.94
936.294	-8.2
936.464	37.91
936.634	31.71
936.804	-9.36
936.974	-31.45
937.144	18.34
937.314	26.48
937.484	17.37
937.655	-19.63
937.825	51.08
937.995	2.07
938.165	58.64
938.334	40.43
938.504	35
938.674	19.5
938.844	26.67
939.014	62.9
939.184	71.82
939.354	104.37
939.524	113.67
939.694	73.17
939.863	58.06
940.033	99.52
940.203	91
940.373	82.86
940.542	95.45
940.712	55.93
940.882	81.7
941.051	99.13
941.221	78.02
941.391	112.12
941.56	41.01
941.73	15.05
941.899	172.95
942.069	30.93
942.238	87.32
942.408	66.78
942.577	62.71
942.747	60.19
942.916	0.52
943.086	48.37
943.255	83.05
943.425	83.63
943.594	50.7
943.763	-14.79
943.933	7.1
944.102	-35.91
944.271	29.38
944.441	53.41
944.61	37.33
944.779	28.22
944.948	128.39
945.117	27.45
945.287	21.83
945.456	-26.41
945.625	4.39
945.794	33.07
945.963	15.05
946.132	66
946.301	26.09
946.47	76.08
946.639	-13.43
946.808	20.28
946.977	66.78
947.146	79.37
947.315	22.99
947.484	61.16
947.653	32.48
947.822	16.21
947.991	-4.13
948.16	110.37
948.329	82.28
948.498	39.27
948.666	42.56
948.835	65.42
949.004	-28.74
949.173	1.49
949.341	45.27
949.51	66.39
949.679	112.89
949.847	72.2
950.016	112.12
950.185	86.73
950.353	5.17
950.522	6.33
950.69	88.87
950.859	25.12
951.028	95.45
951.196	67.75
951.365	41.2
951.533	30.16
951.701	54.96
951.87	72.2
952.038	8.85
952.207	59.42
952.375	97.39
952.543	28.22
952.712	32.87
952.88	4.39
953.048	83.44
953.217	31.32
953.385	36.75
953.553	77.43
953.721	22.6
953.89	53.41
954.058	-11.88
954.226	38.1
954.394	46.82
954.562	-14.01
954.73	24.54
954.898	38.68
955.067	91
955.235	27.45
955.403	83.05
955.571	106.3
955.739	41.98
955.907	25.9
956.075	29.19
956.243	10.59
956.41	43.72
956.578	1.68
956.746	0.71
956.914	15.63
957.082	53.02
957.25	71.23
957.418	18.92
957.585	53.99
957.753	59.61
957.921	-10.72
958.089	52.05
958.256	51.47
958.424	69.88
958.592	50.89
958.759	17.57
958.927	77.05
959.095	27.45
959.262	21.64
959.43	47.6
959.597	26.29
959.765	28.8
959.932	21.05
960.1	90.03
960.267	31.13
960.435	6.91
960.602	86.35
960.77	-4.71
960.937	-11.5
961.104	31.71
961.272	-14.01
961.439	24.93
961.606	47.98
961.774	71.04
961.941	44.69
962.108	64.45
962.275	73.75
962.443	58.83
962.61	61.93
962.777	89.45
962.944	74.72
963.111	67.94
963.278	65.23
963.446	29.38
963.613	46.82
963.78	61.16
963.947	71.82
964.114	47.21
964.281	147.96
964.448	63.87
964.615	71.62
964.782	48.57
964.949	83.44
965.116	82.67
965.282	83.05
965.449	53.02
965.616	32.68
965.783	89.45
965.95	57.87
966.117	24.35
966.283	41.78
966.45	68.91
966.617	66.39
966.784	106.5
966.95	92.16
967.117	90.03
967.284	36.75
967.45	14.27
967.617	102.23
967.784	93.52
967.95	111.73
968.117	38.68
968.283	112.89
968.45	168.88
968.616	65.03
968.783	102.62
968.949	72.98
969.116	79.37
969.282	55.15
969.449	69.3
969.615	56.51
969.781	32.1
969.948	39.65
970.114	12.34
970.28	96.81
970.447	47.4
970.613	120.25
970.779	39.65
970.945	102.82
971.112	74.53
971.278	61.93
971.444	26.67
971.61	101.85
971.776	61.74
971.942	77.24
972.108	109.21
972.275	52.83
972.441	72.4
972.607	141.37
972.773	57.09
972.939	63.48
973.105	62.32
973.271	16.02
973.437	35.97
973.602	41.78
973.768	71.04
973.934	72.2
974.1	72.59
974.266	-9.36
974.432	56.9
974.598	31.13
974.763	114.83
974.929	27.45
975.095	99.52
975.261	21.25
975.426	44.5
975.592	79.76
975.758	129.55
975.923	0.13
976.089	32.48
976.255	86.93
976.42	87.32
976.586	59.8
976.751	81.89
976.917	138.08
977.082	64.84
977.248	-4.13
977.413	-18.08
977.579	7.69
977.744	54.96
977.91	22.8
978.075	32.48
978.24	90.42
978.406	38.3
978.571	22.22
978.736	14.27
978.902	90.61
979.067	16.79
979.232	-1.81
979.397	80.15
979.563	94.48
979.728	3.23
979.893	38.49
980.058	39.27
980.223	87.12
980.388	80.73
980.554	55.93
980.719	48.95
980.884	62.52
981.049	76.47
981.214	25.12
981.379	85.57
981.544	60
981.709	60.97
981.874	48.76
982.039	27.64
982.204	80.92
982.368	55.73
982.533	41.98
982.698	80.73
982.863	56.51
983.028	49.34
983.193	78.98
983.357	64.45
983.522	56.9
983.687	41.01
983.852	39.46
984.016	22.6
984.181	58.25
984.346	61.55
984.51	77.63
984.675	31.52
984.839	77.05
985.004	82.47
985.168	75.11
985.333	71.62
985.498	56.7
985.662	67.36
985.827	64.26
985.991	47.02
986.155	26.87
986.32	73.95
986.484	107.08
986.649	46.24
986.813	8.07
986.977	56.12
987.142	75.11
987.306	18.73
987.47	29.77
987.634	45.27
987.799	55.35
987.963	62.52
988.127	72.2
988.291	141.95
988.455	37.33
988.62	51.47
988.784	78.98
988.948	88.48
989.112	46.05
989.276	62.52
989.44	58.25
989.604	19.12
989.768	8.46
989.932	135.36
990.096	20.67
990.26	5.55
990.424	-10.33
990.588	48.37
990.752	127.81
990.915	83.25
991.079	51.67
991.243	47.4
991.407	75.5
991.571	46.05
991.734	44.88
991.898	80.92
992.062	121.41
992.226	35.58
992.389	43.72
992.553	-9.56
992.717	-5.3
992.88	44.5
993.044	18.34
993.207	36.75
993.371	60.38
993.535	43.92
993.698	33.45
993.862	89.83
994.025	95.07
994.189	31.32
994.352	53.02
994.515	62.32
994.679	87.51
994.842	35.2
995.006	63.68
995.169	33.26
995.332	22.02
995.496	59.03
995.659	-9.36
995.822	45.47
995.985	50.89
996.149	87.7
996.312	50.31
996.475	104.75
996.638	19.12
996.801	56.9
996.964	109.79
997.128	44.3
997.291	65.03
997.454	62.52
997.617	-6.07
997.78	72.01
997.943	20.67
998.106	69.68
998.269	14.47
998.432	26.48
998.595	35.2
998.758	-4.52
998.92	-7.62
999.083	-14.6
999.246	51.67
999.409	8.85
999.572	4.78
999.735	-15.56
999.897	52.25
1000.06	5.94
1000.223	28.03
1000.386	45.47
1000.548	59.03
1000.711	57.87
1000.874	28.8
1001.036	4.78
1001.199	46.24
1001.361	1.29
1001.524	37.33
1001.687	43.72
1001.849	4.2
1002.012	14.85
1002.174	21.05
1002.337	58.64
1002.499	62.13
1002.661	75.11
1002.824	2.84
1002.986	-9.36
1003.149	57.87
1003.311	-2.39
1003.473	88.48
1003.636	6.33
1003.798	44.11
1003.96	40.23
1004.123	29.97
1004.285	5.17
1004.447	18.34
1004.609	4.39
1004.771	85.38
1004.933	4
1005.096	-0.65
1005.258	-19.83
1005.42	3.04
1005.582	60.97
1005.744	21.64
1005.906	-12.46
1006.068	35.78
1006.23	-13.63
1006.392	-46.76
1006.554	-13.24
1006.716	74.33
1006.878	32.48
1007.04	-31.45
1007.202	2.45
1007.363	28.42
1007.525	31.32
1007.687	66
1007.849	58.45
1008.011	-32.61
1008.172	-22.35
1008.334	35
1008.496	47.4
1008.658	-13.82
1008.819	-3.16
1008.981	-7.81
1009.143	-3.36
1009.304	1.29
1009.466	36.17
1009.627	97.78
1009.789	93.13
1009.95	9.24
1010.112	-3.16
1010.273	38.49
1010.435	-12.85
1010.596	35
1010.758	11.95
1010.919	43.72
1011.081	-23.12
1011.242	40.04
1011.403	44.88
1011.565	20.28
1011.726	43.14
1011.887	-19.44
1012.049	3.81
1012.21	36.55
1012.371	54.57
1012.532	-47.73
1012.693	16.4
1012.855	-7.04
1013.016	34.03
1013.177	33.07
1013.338	7.1
1013.499	56.51
1013.66	61.55
1013.821	16.02
1013.982	46.63
1014.143	42.95
1014.304	-12.08
1014.465	46.24
1014.626	47.4
1014.787	12.72
1014.948	99.72
1015.109	-26.61
1015.27	55.54
1015.431	-9.95
1015.592	-41.14
1015.752	72.2
1015.913	1.68
1016.074	17.57
1016.235	13.69
1016.395	10.59
1016.556	2.45
1016.717	-13.05
1016.877	72.01
1017.038	-0.65
1017.199	12.72
1017.359	9.43
1017.52	36.75
1017.681	19.12
1017.841	26.67
1018.002	15.63
1018.162	6.14
1018.323	67.17
1018.483	-0.26
1018.644	-1.42
1018.804	-18.66
1018.964	0.13
1019.125	2.26
1019.285	16.4
1019.446	-19.63
1019.606	8.07
1019.766	-51.41
1019.926	5.94
1020.087	11.37
1020.247	-44.43
1020.407	39.85
1020.567	62.13
1020.728	1.1
1020.888	-28.35
1021.048	-5.49
1021.208	-13.63
1021.368	-20.6
1021.528	53.41
1021.688	31.32
1021.848	36.36
1022.008	24.54
1022.168	-17.11
1022.328	13.11
1022.488	28.8
1022.648	-15.56
1022.808	8.46
1022.968	6.72
1023.128	-0.26
1023.288	11.75
1023.448	24.15
1023.608	9.24
1023.767	32.68
1023.927	-9.75
1024.087	-18.47
1024.247	-17.89
1024.406	-21.18
1024.566	-27.96
1024.726	-11.5
1024.885	30.35
1025.045	25.7
1025.205	-4.91
1025.364	-9.56
1025.524	-7.04
1025.683	-1.03
1025.843	7.88
1026.003	-3.36
1026.162	67.55
1026.321	26.87
1026.481	10.2
1026.64	-7.43
1026.8	20.47
1026.959	29.19
1027.119	17.37
1027.278	-4.91
1027.437	-8.59
1027.597	18.54
1027.756	26.67
1027.915	12.34
1028.074	36.36
1028.234	-15.95
1028.393	-21.18
1028.552	2.26
1028.711	-68.07
1028.87	35.78
1029.03	-11.69
1029.189	-28.93
1029.348	-56.45
1029.507	-27.96
1029.666	-0.26
1029.825	-21.96
1029.984	-14.98
1030.143	0.71
1030.302	-3.94
1030.461	-72.72
1030.62	3.23
1030.779	10.4
1030.938	-20.99
1031.097	-39.01
1031.255	8.07
1031.414	76.08
1031.573	53.22
1031.732	-62.64
1031.891	-20.21
1032.049	22.6
1032.208	10.79
1032.367	-16.53
1032.525	-10.72
1032.684	-18.86
1032.843	-2.2
1033.001	-36.68
1033.16	152.03
1033.319	42.37
1033.477	29.38
1033.636	-10.14
1033.794	-38.04
1033.953	27.64
1034.111	44.88
1034.27	-18.86
1034.428	33.26
1034.587	-30.48
1034.745	7.1
1034.903	20.86
1035.062	4
1035.22	-25.25
1035.378	48.37
1035.537	-64.58
1035.695	13.89
1035.853	1.49
1036.011	19.12
1036.17	17.76
1036.328	-47.53
1036.486	12.92
1036.644	1.68
1036.802	-69.62
1036.96	-3.94
1037.119	5.75
1037.277	-3.55
1037.435	-35.71
1037.593	-25.06
1037.751	-24.86
1037.909	11.95
1038.067	11.95
