Data from pine_FLMT105791__139__17-22-38-075.txt Node

Date: Mon Mar 20 17:22:38 GMT 2023
User: antho
Spectrometer: FLMT10579
Trigger mode: 0
Integration Time (sec): 1.000000E-1
Scans to average: 10
Electric dark correction enabled: true
Nonlinearity correction enabled: false
Boxcar width: 0
XAxis mode: Wavelengths
Number of Pixels in Spectrum: 3648
>>>>>Begin Spectral Data<<<<<
345.248	-179.04
345.464	-179.04
345.681	-179.04
345.898	-164.31
346.114	-155.01
346.331	-20.94
346.548	39.31
346.764	-0.79
346.981	8.9
347.197	-39.93
347.414	-0.02
347.631	-15.13
347.847	54.81
348.064	0.95
348.28	23.43
348.497	-57.17
348.713	6.57
348.93	27.11
349.146	22.46
349.363	13.16
349.579	18.2
349.796	5.99
350.012	-7.77
350.229	26.53
350.445	22.26
350.661	-9.7
350.878	19.55
351.094	43.58
351.311	23.62
351.527	7.93
351.743	-8.73
351.96	43.38
352.176	32.34
352.392	50.16
352.609	33.7
352.825	-32.57
353.041	1.92
353.257	-6.02
353.474	5.8
353.69	23.23
353.906	24.4
354.122	-18.42
354.339	29.63
354.555	3.47
354.771	-3.7
354.987	78.26
355.203	72.64
355.42	0.18
355.636	10.64
355.852	-14.16
356.068	16.06
356.284	-41.67
356.5	54.81
356.716	33.89
356.932	6.77
357.148	36.6
357.364	30.01
357.58	38.35
357.796	73.61
358.012	52.3
358.228	54.43
358.444	-23.07
358.66	65.86
358.876	32.15
359.092	-18.62
359.308	30.4
359.524	47.84
359.74	20.13
359.956	10.45
360.172	12.19
360.388	33.31
360.604	5.99
360.819	75.74
361.035	24.59
361.251	62.95
361.467	-2.15
361.683	35.44
361.898	38.54
362.114	36.99
362.33	10.45
362.546	46.87
362.762	27.11
362.977	40.28
363.193	-3.89
363.409	35.05
363.624	-26.75
363.84	-0.79
364.056	18.2
364.271	28.66
364.487	45.51
364.703	-6.22
364.918	-7.18
365.134	9.09
365.35	-6.22
365.565	109.45
365.781	54.23
365.996	23.04
366.212	76.9
366.427	35.05
366.643	-25.01
366.858	4.83
367.074	-23.27
367.289	73.22
367.505	116.62
367.72	-26.17
367.936	13.74
368.151	39.9
368.367	28.85
368.582	18
368.798	-10.87
369.013	45.9
369.228	-2.34
369.444	39.31
369.659	57.33
369.874	47.84
370.09	65.28
370.305	-74.22
370.52	6.18
370.736	79.81
370.951	-7.96
371.166	58.11
371.381	102.48
371.597	47.45
371.812	-31.79
372.027	-4.67
372.242	36.41
372.458	76.71
372.673	33.31
372.888	23.81
373.103	45.13
373.318	92.01
373.533	49.78
373.749	26.91
373.964	-15.13
374.179	56.95
374.394	2.31
374.609	67.8
374.824	14.9
375.039	77.48
375.254	-1.95
375.469	61.21
375.684	33.11
375.899	60.24
376.114	14.32
376.329	40.86
376.544	62.95
376.759	58.88
376.974	-14.74
377.189	12.58
377.404	7.54
377.619	64.7
377.834	-28.69
378.049	1.53
378.264	-20.36
378.478	57.53
378.693	-17.07
378.908	52.68
379.123	25.95
379.338	65.28
379.553	44.55
379.767	37.76
379.982	35.83
380.197	31.37
380.412	32.92
380.626	43
380.841	82.71
381.056	26.14
381.271	80
381.485	15.29
381.7	-13.58
381.915	52.49
382.129	16.26
382.344	9.09
382.559	11.61
382.773	61.98
382.988	-31.4
383.202	46.1
383.417	-12.61
383.632	124.37
383.846	18.97
384.061	29.82
384.275	8.31
384.49	61.21
384.704	59.08
384.919	44.74
385.133	30.98
385.348	60.05
385.562	-10.48
385.777	63.15
385.991	33.31
386.206	24.59
386.42	11.22
386.634	47.06
386.849	63.15
387.063	35.25
387.277	0.37
387.492	19.55
387.706	-0.02
387.92	7.93
388.135	51.13
388.349	59.46
388.563	35.44
388.778	55.4
388.992	38.35
389.206	34.66
389.42	103.44
389.635	52.1
389.849	56.36
390.063	76.71
390.277	44.55
390.491	81.94
390.706	43.96
390.92	67.41
391.134	24.98
391.348	64.7
391.562	-31.02
391.776	2.89
391.99	6.18
392.205	61.98
392.419	16.84
392.633	24.4
392.847	79.81
393.061	22.85
393.275	88.14
393.489	20.71
393.703	41.06
393.917	83.49
394.131	-2.15
394.345	51.91
394.559	68.76
394.773	38.15
394.986	34.86
395.2	2.89
395.414	42.61
395.628	-5.25
395.842	49
396.056	22.07
396.27	-4.08
396.484	61.4
396.697	62.18
396.911	75.35
397.125	48.23
397.339	73.8
397.553	61.79
397.766	113.13
397.98	75.16
398.194	62.76
398.408	61.79
398.621	61.79
398.835	48.61
399.049	60.63
399.262	93.56
399.476	74.58
399.69	67.6
399.903	134.25
400.117	33.31
400.331	111.19
400.544	24.59
400.758	159.05
400.971	74.96
401.185	94.73
401.398	43.38
401.612	92.01
401.826	58.3
402.039	115.26
402.253	30.01
402.466	68.18
402.68	58.11
402.893	48.81
403.106	46.1
403.32	50.36
403.533	86.01
403.747	66.83
403.96	67.6
404.174	88.14
404.387	18.78
404.6	56.36
404.814	94.53
405.027	62.76
405.24	55.59
405.454	49.97
405.667	94.53
405.88	18.39
406.094	92.21
406.307	90.46
406.52	79.61
406.733	24.01
406.947	-9.12
407.16	115.07
407.373	116.23
407.586	36.02
407.799	32.34
408.012	123.01
408.226	74.58
408.439	133.67
408.652	34.08
408.865	77.87
409.078	91.24
409.291	99.76
409.504	38.35
409.717	100.34
409.93	88.14
410.143	71.09
410.357	24.2
410.57	50.16
410.783	62.95
410.996	96.86
411.209	92.79
411.421	97.05
411.634	65.66
411.847	32.53
412.06	71.86
412.273	55.4
412.486	68.57
412.699	160.79
412.912	79.81
413.125	97.24
413.338	107.71
413.55	77.48
413.763	119.72
413.976	94.15
414.189	50.94
414.402	73.22
414.615	152.08
414.827	53.07
415.04	126.31
415.253	96.66
415.466	109.84
415.678	122.82
415.891	73.41
416.104	76.51
416.316	103.83
416.529	69.35
416.742	117.59
416.954	115.84
417.167	81.55
417.38	66.25
417.592	109.45
417.805	76.9
418.017	21.49
418.23	112.16
418.442	84.26
418.655	64.89
418.868	103.44
419.08	147.81
419.293	127.86
419.505	92.6
419.718	109.06
419.93	121.46
420.142	89.11
420.355	134.64
420.567	150.14
420.78	130.76
420.992	66.83
421.205	178.23
421.417	69.15
421.629	92.01
421.842	68.57
422.054	46.1
422.266	136.38
422.479	138.9
422.691	91.05
422.903	126.89
423.115	90.85
423.328	89.3
423.54	122.04
423.752	98.99
423.964	89.88
424.177	109.84
424.389	86.59
424.601	192.96
424.813	116.04
425.025	149.75
425.238	116.81
425.45	120.49
425.662	115.65
425.874	377.02
426.086	111.39
426.298	133.48
426.51	134.25
426.722	113.13
426.934	100.34
427.146	132.89
427.358	84.65
427.57	150.33
427.782	119.14
427.994	139.87
428.206	77.48
428.418	106.74
428.63	134.83
428.842	163.51
429.054	129.6
429.266	155.18
429.478	96.28
429.69	97.44
429.902	85.62
430.114	141.81
430.325	114.49
430.537	95.69
430.749	107.32
430.961	74.19
431.173	94.15
431.384	129.41
431.596	55.01
431.808	117.78
432.02	130.57
432.231	171.06
432.443	167.38
432.655	142.97
432.867	115.26
433.078	185.4
433.29	221.44
433.502	174.16
433.713	199.35
433.925	161.18
434.136	190.24
434.348	104.41
434.56	80.2
434.771	240.23
434.983	112.16
435.194	140.45
435.406	166.03
435.617	186.95
435.829	223.37
436.04	181.14
436.252	185.59
436.463	221.44
436.675	224.92
436.886	190.24
437.098	201.67
437.309	230.74
437.521	176.49
437.732	186.37
437.943	180.94
438.155	152.85
438.366	110.23
438.578	254.18
438.789	181.72
439	210.97
439.211	200.51
439.423	206.71
439.634	191.99
439.845	193.73
440.057	184.04
440.268	234.22
440.479	195.09
440.69	204.39
440.902	192.57
441.113	194.7
441.324	202.06
441.535	210.59
441.746	267.55
441.957	197.41
442.168	215.43
442.38	232.09
442.591	237.91
442.802	171.06
443.013	185.98
443.224	248.56
443.435	200.71
443.646	223.37
443.857	224.73
444.068	187.14
444.279	190.44
444.49	288.67
444.701	228.61
444.912	311.72
445.123	260.77
445.334	247.21
445.545	220.08
445.756	214.46
445.967	228.41
446.178	228.22
446.388	284.6
446.599	269.87
446.81	260.77
447.021	211.94
447.232	265.42
447.443	288.28
447.653	213.69
447.864	305.33
448.075	258.83
448.286	250.31
448.496	249.14
448.707	307.07
448.918	240.42
449.129	319.86
449.339	244.3
449.55	252.05
449.761	235.77
449.971	303.2
450.182	263.48
450.393	275.49
450.603	269.29
450.814	286.92
451.024	293.12
451.235	298.55
451.446	325.29
451.656	329.35
451.867	251.86
452.077	293.9
452.288	353.77
452.498	336.14
452.709	282.27
452.919	301.07
453.13	291.57
453.34	322.38
453.55	223.96
453.761	299.9
453.971	286.15
454.182	308.62
454.392	308.62
454.602	350.86
454.813	321.99
455.023	337.88
455.233	263.48
455.444	306.1
455.654	227.83
455.864	280.14
456.075	274.14
456.285	237.13
456.495	297.19
456.705	330.71
456.916	353.57
457.126	364.62
457.336	298.16
457.546	253.99
457.756	279.56
457.967	367.72
458.177	305.14
458.387	316.57
458.597	275.49
458.807	302.62
459.017	323.93
459.227	303.97
459.437	280.53
459.647	337.49
459.857	307.65
460.068	278.4
460.278	331.49
460.488	333.04
460.698	397.17
460.908	322.57
461.117	260.96
461.327	295.06
461.537	341.37
461.747	343.5
461.957	303.97
462.167	394.65
462.377	358.8
462.587	330.13
462.797	362.87
463.007	323.93
463.216	360.16
463.426	400.65
463.636	360.93
463.846	306.88
464.056	307.07
464.265	366.75
464.475	299.52
464.685	342.14
464.895	358.03
465.104	352.6
465.314	392.9
465.524	329.16
465.733	313.27
465.943	412.67
466.153	406.85
466.362	384.96
466.572	368.3
466.782	355.32
466.991	361.9
467.201	408.02
467.41	309.4
467.62	406.66
467.829	338.65
468.039	380.89
468.249	367.72
468.458	351.44
468.668	399.1
468.877	405.11
469.086	421
469.296	426.23
469.505	342.53
469.715	443.08
469.924	400.46
470.134	415.38
470.343	430.1
470.552	368.3
470.762	394.45
470.971	349.7
471.18	367.72
471.39	391.93
471.599	356.09
471.808	422.74
472.018	368.88
472.227	432.82
472.436	430.68
472.645	418.09
472.855	409.57
473.064	477.57
473.273	436.88
473.482	458.78
473.691	456.84
473.901	422.16
474.11	404.14
474.319	501.21
474.528	453.74
474.737	511.67
474.946	478.15
475.155	453.16
475.364	510.12
475.573	451.8
475.783	489
475.992	483.19
476.201	523.88
476.41	469.05
476.619	429.72
476.828	488.03
477.037	462.65
477.245	472.15
477.454	512.45
477.663	484.93
477.872	477.38
478.081	532.59
478.29	491.71
478.499	568.63
478.708	508.57
478.917	550.23
479.125	489.78
479.334	507.99
479.543	501.01
479.752	516.9
479.961	544.61
480.169	578.32
480.378	518.84
480.587	635.09
480.796	569.79
481.004	535.11
481.213	571.34
481.422	545.19
481.63	545.58
481.839	602.15
482.048	639.54
482.256	530.08
482.465	606.41
482.674	616.68
482.882	616.88
483.091	643.61
483.299	616.68
483.508	592.27
483.716	601.38
483.925	603.31
484.134	575.61
484.342	583.36
484.551	649.42
484.759	643.61
484.967	624.82
485.176	631.6
485.384	625.59
485.593	631.79
485.801	623.46
486.01	602.15
486.218	578.71
486.426	518.84
486.635	553.71
486.843	541.89
487.051	593.82
487.26	557.39
487.468	599.63
487.676	645.74
487.885	626.37
488.093	612.23
488.301	650.78
488.509	637.8
488.717	662.79
488.926	651.75
489.134	632.18
489.342	640.9
489.55	619.78
489.758	664.34
489.967	630.05
490.175	753.08
490.383	665.89
490.591	740.49
490.799	627.53
491.007	730.6
491.215	700.38
491.423	693.41
491.631	680.81
491.839	694.37
492.047	724.79
492.255	649.62
492.463	615.52
492.671	686.24
492.879	724.79
493.087	706
493.295	714.14
493.503	748.24
493.711	774.97
493.919	778.85
494.127	751.34
494.334	767.03
494.542	728.28
494.75	755.02
494.958	716.65
495.166	800.74
495.374	771.68
495.581	764.32
495.789	761.8
495.997	799.19
496.205	723.82
496.412	739.71
496.62	753.08
496.828	771.1
497.035	752.89
497.243	797.83
497.451	787.57
497.658	766.45
497.866	780.59
498.074	838.13
498.281	775.17
498.489	845.69
498.696	785.63
498.904	753.66
499.112	789.31
499.319	839.3
499.527	773.23
499.734	826.7
499.942	750.75
500.149	779.04
500.357	783.11
500.564	756.95
500.771	817.21
500.979	759.28
501.186	789.12
501.394	777.1
501.601	796.09
501.808	836.2
502.016	785.05
502.223	789.12
502.43	807.91
502.638	790.09
502.845	778.85
503.052	851.12
503.26	795.51
503.467	888.9
503.674	804.03
503.881	826.9
504.089	876.5
504.296	855.96
504.503	782.72
504.71	829.42
504.917	811.78
505.125	848.4
505.332	809.85
505.539	881.53
505.746	918.54
505.953	912.53
506.16	885.21
506.367	938.5
506.574	956.71
506.781	939.08
506.988	847.63
507.195	912.73
507.402	868.75
507.609	930.75
507.816	884.83
508.023	887.15
508.23	860.61
508.437	866.23
508.644	915.05
508.851	959.23
509.058	920.86
509.265	933.46
509.472	943.73
509.679	1020.64
509.885	947.8
510.092	941.4
510.299	954.19
510.506	942.95
510.713	928.03
510.92	923.38
511.126	956.13
511.333	972.79
511.54	1021.03
511.746	1018.71
511.953	1045.83
512.16	1052.03
512.367	968.14
512.573	972.59
512.78	980.54
512.987	1003.79
513.193	954.58
513.4	930.36
513.606	993.71
513.813	996.23
514.02	985.19
514.226	1032.27
514.433	1030.53
514.639	971.24
514.846	1000.49
515.052	995.84
515.259	989.26
515.465	1031.88
515.672	1026.26
515.878	1104.34
516.085	1010.38
516.291	1070.63
516.497	1006.69
516.704	1020.06
516.91	984.99
517.117	919.31
517.323	914.86
517.529	959.23
517.736	944.31
517.942	994.68
518.148	992.16
518.354	980.34
518.561	1005.53
518.767	989.26
518.973	1007.47
519.179	1035.18
519.386	978.21
519.592	1040.02
519.798	1031.11
520.004	1103.76
520.21	1081.87
520.417	1110.35
520.623	1143.48
520.829	1137.28
521.035	1146
521.241	1149.1
521.447	1149.87
521.653	1271.35
521.859	1137.67
522.065	1183.78
522.271	1262.44
522.477	1192.89
522.683	1221.56
522.889	1225.44
523.095	1173.9
523.301	1186.49
523.507	1119.26
523.713	1210.13
523.919	1170.22
524.125	1237.83
524.331	1217.88
524.537	1281.62
524.742	1265.35
524.948	1284.53
525.154	1300.03
525.36	1365.32
525.566	1264.96
525.772	1307
525.977	1238.42
526.183	1289.57
526.389	1319.79
526.595	1241.13
526.8	1262.63
527.006	1208.58
527.212	1169.05
527.417	1160.92
527.623	1152.97
527.829	1239.19
528.034	1252.17
528.24	1256.24
528.446	1278.13
528.651	1335.1
528.857	1317.66
529.062	1373.65
529.268	1325.41
529.473	1357.18
529.679	1339.55
529.884	1414.14
530.09	1405.04
530.295	1433.13
530.501	1409.69
530.706	1351.95
530.912	1312.62
531.117	1380.82
531.323	1403.88
531.528	1419.18
531.733	1408.72
531.939	1412.01
532.144	1412.79
532.35	1425.38
532.555	1441.08
532.76	1388.76
532.966	1416.66
533.171	1388.18
533.376	1374.04
533.581	1326.76
533.787	1374.62
533.992	1403.3
534.197	1447.86
534.402	1386.25
534.607	1415.89
534.813	1505.01
535.018	1403.49
535.223	1411.04
535.428	1440.11
535.633	1488.74
535.838	1482.73
536.043	1483.51
536.249	1545.89
536.454	1455.22
536.659	1504.62
536.864	1458.32
537.069	1463.36
537.274	1455.61
537.479	1488.35
537.684	1480.21
537.889	1447.47
538.094	1580.77
538.299	1477.31
538.504	1541.05
538.708	1506.56
538.913	1526.91
539.118	1499.2
539.323	1524
539.528	1470.14
539.733	1473.63
539.938	1519.74
540.142	1555.58
540.347	1470.72
540.552	1474.59
540.757	1491.06
540.962	1475.76
541.166	1441.85
541.371	1422.67
541.576	1462.19
541.781	1385.28
541.985	1508.11
542.19	1541.82
542.395	1538.14
542.599	1587.55
542.804	1547.25
543.008	1542.21
543.213	1491.84
543.418	1476.53
543.622	1538.14
543.827	1508.31
544.031	1570.89
544.236	1590.07
544.44	1545.12
544.645	1615.45
544.849	1533.3
545.054	1567.01
545.258	1633.66
545.463	1603.24
545.667	1536.4
545.872	1604.6
546.076	1556.74
546.281	1563.72
546.485	1546.47
546.689	1587.94
546.894	1595.3
547.098	1525.36
547.302	1504.82
547.507	1527.1
547.711	1599.37
547.915	1591.04
548.119	1525.16
548.324	1556.55
548.528	1619.32
548.732	1601.69
548.936	1603.24
549.141	1618.74
549.345	1580.19
549.549	1579.41
549.753	1587.74
549.957	1728.6
550.161	1650.52
550.366	1592.39
550.57	1579.61
550.774	1570.11
550.978	1574.18
551.182	1637.92
551.386	1567.79
551.59	1582.12
551.794	1574.76
551.998	1628.04
552.202	1583.48
552.406	1550.74
552.61	1578.44
552.814	1614.67
553.018	1680.74
553.222	1564.69
553.426	1590.65
553.63	1667.37
553.833	1588.71
554.037	1568.17
554.241	1649.35
554.445	1607.89
554.649	1564.69
554.853	1576.89
555.056	1587.16
555.26	1630.95
555.464	1597.43
555.668	1625.14
555.871	1650.13
556.075	1632.11
556.279	1584.25
556.483	1521.29
556.686	1600.72
556.89	1604.79
557.094	1599.75
557.297	1532.14
557.501	1618.16
557.704	1521.29
557.908	1586.97
558.112	1539.89
558.315	1637.34
558.519	1555.58
558.722	1545.7
558.926	1537.95
559.129	1506.37
559.333	1462.97
559.536	1500.36
559.74	1473.82
559.943	1460.64
560.147	1478.86
560.35	1553.45
560.553	1491.45
560.757	1473.63
560.96	1542.21
561.164	1501.72
561.367	1561.78
561.57	1529.81
561.774	1552.87
561.977	1469.36
562.18	1494.94
562.384	1591.81
562.587	1508.69
562.79	1527.87
562.993	1492.03
563.197	1523.03
563.4	1529.81
563.603	1545.12
563.806	1615.84
564.009	1491.64
564.212	1509.47
564.416	1444.76
564.619	1519.35
564.822	1456.96
565.025	1524.39
565.228	1509.27
565.431	1490.09
565.634	1379.85
565.837	1470.14
566.04	1426.16
566.243	1423.44
566.446	1344.2
566.649	1442.43
566.852	1403.88
567.055	1411.24
567.258	1455.61
567.461	1519.35
567.664	1497.07
567.867	1359.51
568.07	1437.78
568.273	1419.76
568.475	1457.35
568.678	1390.9
568.881	1404.26
569.084	1417.44
569.287	1330.25
569.489	1358.54
569.692	1401.36
569.895	1429.06
570.098	1338.58
570.3	1338.58
570.503	1265.35
570.706	1297.7
570.909	1292.86
571.111	1231.25
571.314	1265.54
571.516	1295.18
571.719	1326.18
571.922	1253.72
572.124	1288.79
572.327	1322.7
572.529	1245.39
572.732	1249.65
572.935	1314.37
573.137	1356.02
573.34	1297.51
573.542	1321.92
573.745	1277.94
573.947	1344.01
574.15	1276.39
574.352	1252.17
574.554	1329.09
574.757	1250.62
574.959	1236.09
575.162	1270.19
575.364	1240.93
575.566	1354.47
575.769	1201.8
575.971	1257.98
576.173	1165.37
576.376	1208.97
576.578	1273.68
576.78	1301
576.982	1178.74
577.185	1228.15
577.387	1157.04
577.589	1164.79
577.791	1239.19
577.993	1266.32
578.196	1196.18
578.398	1245.2
578.6	1306.62
578.802	1157.43
579.004	1160.92
579.206	1151.62
579.408	1207.8
579.61	1170.41
579.812	1253.72
580.014	1165.57
580.216	1204.32
580.418	1211.87
580.62	1160.72
580.822	1134.18
581.024	1199.67
581.226	1257.21
581.428	1194.05
581.63	1284.14
581.832	1198.5
582.034	1244.03
582.236	1222.14
582.438	1251.78
582.64	1275.81
582.841	1301.58
583.043	1304.48
583.245	1222.34
583.447	1229.5
583.649	1253.33
583.85	1242.87
584.052	1247.72
584.254	1172.54
584.456	1283.17
584.657	1188.43
584.859	1238.61
585.061	1219.82
585.262	1169.25
585.464	1143.87
585.666	1257.98
585.867	1181.84
586.069	1259.15
586.27	1215.55
586.472	1216.91
586.674	1189.79
586.875	1173.32
587.077	1136.7
587.278	1171.19
587.48	1154.91
587.681	1252.95
587.883	1167.7
588.084	1114.22
588.285	1147.16
588.487	1158.79
588.688	1125.66
588.89	1114.61
589.091	1042.54
589.292	1101.24
589.494	1053.58
589.695	1048.54
589.896	991.19
590.098	1010.96
590.299	1046.99
590.5	1047.38
590.702	1040.41
590.903	1038.08
591.104	1126.24
591.305	1064.24
591.507	1122.75
591.708	1112.29
591.909	1065.21
592.11	1158.01
592.311	1132.05
592.512	1064.24
592.714	1071.99
592.915	1075.09
593.116	1048.16
593.317	1078.57
593.518	1086.32
593.719	1088.65
593.92	1114.42
594.121	1110.93
594.322	1066.17
594.523	1086.32
594.724	1044.48
594.925	1066.95
595.126	1079.74
595.327	1101.05
595.528	1077.61
595.729	1078.38
595.929	1093.49
596.13	1085.55
596.331	1067.92
596.532	1090.59
596.733	1127.01
596.934	1123.72
597.135	1121.59
597.335	1114.22
597.536	1075.28
597.737	1073.54
597.938	1056.87
598.138	1128.37
598.339	1083.03
598.54	1067.92
598.74	1074.31
598.941	1077.61
599.142	1130.69
599.342	1093.3
599.543	1050.29
599.744	1083.22
599.944	1053.19
600.145	1046.22
600.345	1099.31
600.546	1170.22
600.746	1127.4
600.947	1150.84
601.147	1076.64
601.348	1126.24
601.548	1064.62
601.749	1068.89
601.949	1045.25
602.15	1034.01
602.35	1072.76
602.551	1108.41
602.751	1039.63
602.951	1067.92
603.152	1017.54
603.352	1080.12
603.552	1046.8
603.753	1119.65
603.953	1082.26
604.153	1084.97
604.354	1060.94
604.554	1050.09
604.754	1067.92
604.954	1027.81
605.155	1104.34
605.355	1050.29
605.555	1116.36
605.755	1137.09
605.955	1071.02
606.155	1115.77
606.356	1075.86
606.556	1070.44
606.756	1101.44
606.956	1034.4
607.156	1093.11
607.356	1019.09
607.556	1081.09
607.756	1070.24
607.956	1098.53
608.156	1041.96
608.356	1036.14
608.556	1105.12
608.756	1060.94
608.956	997.59
609.156	1061.14
609.356	1032.66
609.556	982.86
609.755	1036.92
609.955	1040.41
610.155	1034.59
610.355	1082.64
610.555	976.86
610.755	1015.41
610.954	985.77
611.154	1030.91
611.354	1077.8
611.554	1005.92
611.753	1008.24
611.953	962.52
612.153	1029.75
612.352	1045.64
612.552	967.36
612.752	947.6
612.951	994.49
613.151	998.75
613.351	940.43
613.55	960.97
613.75	995.26
613.949	965.81
614.149	1000.49
614.348	970.08
614.548	946.25
614.747	920.86
614.947	957.29
615.146	911.76
615.346	1001.85
615.545	977.63
615.745	968.91
615.944	1004.95
616.144	976.08
616.343	963.68
616.542	915.25
616.742	940.43
616.941	938.5
617.14	869.72
617.34	950.31
617.539	941.79
617.738	926.1
617.938	1043.12
618.137	942.95
618.336	877.27
618.535	964.26
618.734	926.68
618.934	960.2
619.133	956.71
619.332	990.23
619.531	925.13
619.73	957.68
619.929	1000.49
620.128	990.81
620.328	994.1
620.527	916.6
620.726	920.67
620.925	948.96
621.124	949.15
621.323	960.78
621.522	919.9
621.721	910.98
621.92	899.36
622.119	972.21
622.318	899.36
622.517	932.49
622.715	904.59
622.914	840.85
623.113	929
623.312	830.58
623.511	928.81
623.71	868.17
623.909	870.3
624.107	960.2
624.306	872.62
624.505	855.18
624.704	899.94
624.902	869.91
625.101	919.31
625.3	866.81
625.499	837.55
625.697	893.93
625.896	860.8
626.095	873.78
626.293	823.41
626.492	847.63
626.69	890.64
626.889	843.56
627.088	914.47
627.286	866.62
627.485	844.14
627.683	844.53
627.882	867.39
628.08	787.57
628.279	809.46
628.477	891.03
628.676	811.4
628.874	857.32
629.073	783.5
629.271	813.14
629.469	865.65
629.668	820.31
629.866	827.28
630.065	791.25
630.263	841.23
630.461	793.19
630.66	830.58
630.858	848.02
631.056	873.4
631.254	865.84
631.453	793.19
631.651	861.97
631.849	832.71
632.047	843.56
632.245	837.94
632.444	851.12
632.642	858.28
632.84	897.23
633.038	843.95
633.236	794.73
633.434	819.92
633.632	790.86
633.83	823.41
634.028	860.8
634.227	821.86
634.425	901.88
634.623	842.98
634.821	860.42
635.019	850.53
635.216	814.88
635.414	851.12
635.612	846.47
635.81	791.64
636.008	920.28
636.206	861.77
636.404	836.39
636.602	782.14
636.8	850.92
636.997	880.18
637.195	850.73
637.393	867.58
637.591	894.13
637.789	835.42
637.986	820.5
638.184	821.67
638.382	849.76
638.58	887.93
638.777	919.12
638.975	854.22
639.173	867.58
639.37	824.57
639.568	834.26
639.765	820.12
639.963	826.51
640.161	868.55
640.358	881.92
640.556	799
640.753	791.25
640.951	819.15
641.148	818.57
641.346	808.49
641.543	808.49
641.741	803.84
641.938	785.24
642.136	807.13
642.333	760.64
642.531	871.27
642.728	856.93
642.925	815.85
643.123	787.76
643.32	809.46
643.517	791.25
643.715	823.22
643.912	803.26
644.109	811.01
644.306	780.59
644.504	738.16
644.701	801.71
644.898	811.59
645.095	784.66
645.293	774.78
645.49	817.21
645.687	816.82
645.884	820.7
646.081	696.89
646.278	764.32
646.475	755.99
646.672	757.54
646.87	780.59
647.067	762.57
647.264	774.97
647.461	737
647.658	695.15
647.855	774.97
648.052	758.7
648.249	651.17
648.446	744.55
648.642	718.2
648.839	715.1
649.036	735.64
649.233	706.19
649.43	692.24
649.627	671.51
649.824	678.49
650.021	694.57
650.217	689.72
650.414	686.24
650.611	730.8
650.808	734.09
651.004	702.51
651.201	721.3
651.398	764.7
651.595	696.51
651.791	699.41
651.988	720.14
652.185	697.67
652.381	744.55
652.578	668.41
652.775	689.72
652.971	697.47
653.168	727.12
653.364	722.08
653.561	684.11
653.757	679.84
653.954	690.11
654.15	682.75
654.347	751.92
654.543	709.29
654.74	644.19
654.936	674.61
655.133	676.94
655.329	687.98
655.525	640.12
655.722	734.87
655.918	641.29
656.115	665.7
656.311	579.87
656.507	592.27
656.704	571.15
656.9	603.7
657.096	595.18
657.292	587.81
657.489	635.47
657.685	606.03
657.881	594.01
658.077	607.38
658.273	610.29
658.47	680.42
658.666	657.37
658.862	672.67
659.058	616.88
659.254	692.44
659.45	633.15
659.646	686.43
659.842	637.61
660.038	710.26
660.234	632.76
660.43	635.67
660.626	716.65
660.822	676.55
661.018	686.43
661.214	669.57
661.41	613.78
661.606	702.32
661.802	705.42
661.998	670.93
662.194	650.78
662.39	692.44
662.586	672.48
662.781	689.92
662.977	669.38
663.173	703.87
663.369	674.81
663.564	676.16
663.76	673.64
663.956	630.44
664.152	714.14
664.347	580.26
664.543	673.84
664.739	621.33
664.934	598.28
665.13	596.14
665.326	665.89
665.521	651.36
665.717	634.12
665.912	605.83
666.108	550.23
666.304	610.68
666.499	634.12
666.695	559.14
666.89	619.39
667.086	659.69
667.281	648.65
667.477	713.17
667.672	612.81
667.867	619.97
668.063	626.37
668.258	622.3
668.454	593.82
668.649	690.31
668.844	649.23
669.04	631.99
669.235	648.26
669.43	580.45
669.626	575.99
669.821	597.31
670.016	544.22
670.211	627.92
670.407	582.97
670.602	588.98
670.797	601.57
670.992	616.29
671.187	581.61
671.382	627.53
671.578	598.08
671.773	594.98
671.968	560.49
672.163	608.54
672.358	626.76
672.553	573.09
672.748	560.3
672.943	640.71
673.138	576.96
673.333	620.36
673.528	576.58
673.723	615.71
673.918	571.93
674.113	540.54
674.308	664.92
674.503	609.71
674.698	608.93
674.892	581.23
675.087	644.19
675.282	574.44
675.477	551.58
675.672	599.24
675.867	579.87
676.061	545.96
676.256	569.02
676.451	554.68
676.646	593.43
676.84	556.81
677.035	542.48
677.23	529.5
677.424	576.77
677.619	617.07
677.814	612.23
678.008	630.24
678.203	493.46
678.397	538.02
678.592	567.47
678.787	618.43
678.981	576.19
679.176	582.19
679.37	565.92
679.565	549.26
679.759	564.95
679.954	584.13
680.148	607.38
680.342	601.76
680.537	575.99
680.731	542.67
680.926	557.98
681.12	587.43
681.314	563.01
681.509	579.48
681.703	566.89
681.897	587.43
682.092	560.3
682.286	578.71
682.48	616.68
682.674	612.61
682.869	562.43
683.063	568.44
683.257	646.71
683.451	550.81
683.645	592.46
683.839	575.8
684.034	537.83
684.228	602.34
684.422	538.79
684.616	532.21
684.81	610.87
685.004	583.74
685.198	544.22
685.392	604.48
685.586	528.14
685.78	573.86
685.974	595.76
686.168	595.76
686.362	649.04
686.556	542.09
686.75	515.35
686.944	507.02
687.138	559.72
687.331	441.73
687.525	443.47
687.719	394.26
687.913	455.87
688.107	474.86
688.301	456.45
688.494	495.98
688.688	451.41
688.882	415.77
689.076	419.06
689.269	464.4
689.463	562.43
689.657	451.03
689.85	483.96
690.044	477.38
690.238	506.05
690.431	479.31
690.625	478.35
690.818	508.38
691.012	533.95
691.205	569.99
691.399	511.48
691.593	562.04
691.786	604.28
691.98	574.06
692.173	593.63
692.366	576.38
692.56	601.76
692.753	629.66
692.947	569.6
693.14	644.58
693.333	610.29
693.527	575.8
693.72	606.8
693.914	606.41
694.107	575.8
694.3	606.03
694.493	613.97
694.687	642.64
694.88	593.63
695.073	689.14
695.266	687.59
695.46	634.7
695.653	718.98
695.846	709.1
696.039	625.4
696.232	675.39
696.425	718.4
696.618	728.67
696.812	702.51
697.005	733.32
697.198	836.97
697.391	766.06
697.584	784.85
697.777	846.85
697.97	817.6
698.163	818.18
698.356	802.68
698.549	870.49
698.742	855.96
698.935	792.41
699.127	842.2
699.32	826.7
699.513	829.03
699.706	854.6
699.899	885.21
700.092	821.47
700.285	882.11
700.477	823.8
700.67	871.65
700.863	881.92
701.056	975.89
701.248	959.81
701.441	933.07
701.634	916.21
701.826	999.53
702.019	917.18
702.212	989.45
702.404	906.14
702.597	940.63
702.79	913.7
702.982	963.68
703.175	991.97
703.367	1025.49
703.56	1031.88
703.752	1122.94
703.945	1058.81
704.137	1058.81
704.33	1109.77
704.522	1129.34
704.715	1103.96
704.907	1110.16
705.1	1194.24
705.292	1165.95
705.484	1098.92
705.677	1169.25
705.869	1153.36
706.061	1201.99
706.254	1226.99
706.446	1195.21
706.638	1206.84
706.831	1267.48
707.023	1226.79
707.215	1315.14
707.407	1324.83
707.599	1300.42
707.792	1338.97
707.984	1308.36
708.176	1357.57
708.368	1318.63
708.56	1350.6
708.752	1354.47
708.944	1326.76
709.136	1354.86
709.329	1379.46
709.521	1498.23
709.713	1410.27
709.905	1429.06
710.097	1465.88
710.289	1409.11
710.481	1436.23
710.672	1433.52
710.864	1466.65
711.056	1513.54
711.248	1527.1
711.44	1503.46
711.632	1515.67
711.824	1522.64
712.016	1577.47
712.207	1548.41
712.399	1539.89
712.591	1609.25
712.783	1590.84
712.975	1610.99
713.166	1567.59
713.358	1576.51
713.55	1641.02
713.741	1637.54
713.933	1645.87
714.125	1626.49
714.316	1653.81
714.508	1674.54
714.7	1702.25
714.891	1682.87
715.083	1790.98
715.274	1706.12
715.466	1712.71
715.657	1734.22
715.849	1644.12
716.04	1713.1
716.232	1644.7
716.423	1711.16
716.615	1648.77
716.806	1640.05
716.998	1580.96
717.189	1549.96
717.381	1458.13
717.572	1443.98
717.763	1469.75
717.955	1440.69
718.146	1430.42
718.337	1395.35
718.528	1380.43
718.72	1312.62
718.911	1359.31
719.102	1353.31
719.293	1378.3
719.485	1359.12
719.676	1344.01
719.867	1284.92
720.058	1323.47
720.249	1322.31
720.44	1350.21
720.632	1372.3
720.823	1404.46
721.014	1512.57
721.205	1512.57
721.396	1573.02
721.587	1649.94
721.778	1662.72
721.969	1721.04
722.16	1777.23
722.351	1757.85
722.542	1885.73
722.733	1846.39
722.924	1779.55
723.115	1841.16
723.305	1839.23
723.496	1867.32
723.687	1706.51
723.878	1736.54
724.069	1752.43
724.26	1765.99
724.45	1666.79
724.641	1635.21
724.832	1708.25
725.023	1712.13
725.213	1678.03
725.404	1693.14
725.595	1685.39
725.785	1645.29
725.976	1717.36
726.167	1716.39
726.357	1706.51
726.548	1781.68
726.739	1719.88
726.929	1773.16
727.12	1840
727.31	1831.09
727.501	1798.35
727.691	1754.95
727.882	1810.36
728.072	1841.16
728.263	1834
728.453	1863.06
728.644	1862.09
728.834	1865.38
729.024	1827.21
729.215	1817.91
729.405	1830.9
729.596	1896.96
729.786	1903.16
729.976	1918.86
730.167	1941.72
730.357	1894.64
730.547	1920.6
730.737	1942.69
730.928	1948.11
731.118	1998.49
731.308	1961.48
731.498	1939.97
731.688	2046.54
731.879	2024.25
732.069	2100.59
732.259	2130.04
732.449	2118.61
732.639	2205.02
732.829	2224.78
733.019	2228.66
733.209	2271.48
733.399	2258.11
733.589	2298.79
733.779	2332.12
733.969	2310.03
734.159	2400.71
734.349	2426.86
734.539	2454.95
734.729	2482.66
734.919	2515.21
735.109	2519.28
735.299	2427.44
735.488	2492.74
735.678	2466.97
735.868	2470.07
736.058	2509.2
736.248	2479.95
736.437	2447.79
736.627	2394.7
736.817	2552.41
737.007	2470.26
737.196	2534
737.386	2534.2
737.576	2465.8
737.765	2562.68
737.955	2556.28
738.144	2607.63
738.334	2609.57
738.524	2497
738.713	2575.08
738.903	2555.51
739.092	2604.92
739.282	2570.04
739.471	2577.98
739.661	2616.54
739.85	2590.58
740.04	2644.05
740.229	2657.42
740.419	2632.23
740.608	2715.16
740.797	2689.97
740.987	2710.31
741.176	2711.48
741.365	2615.57
741.555	2607.24
741.744	2722.52
741.933	2664.98
742.123	2699.85
742.312	2708.38
742.501	2725.81
742.69	2747.13
742.88	2640.18
743.069	2787.23
743.258	2708.18
743.447	2765.34
743.636	2778.51
743.825	2708.38
744.014	2747.51
744.204	2789.56
744.393	2707.8
744.582	2853.11
744.771	2836.44
744.96	2741.7
745.149	2803.89
745.338	2743.83
745.527	2782
745.716	2784.33
745.905	2709.35
746.094	2825.98
746.283	2784.33
746.471	2798.08
746.66	2801.76
746.849	2783.94
747.038	2861.44
747.227	2794.21
747.416	2791.88
747.604	2778.51
747.793	2784.52
747.982	2802.34
748.171	2800.99
748.359	2828.69
748.548	2848.46
748.737	2815.13
748.926	2789.36
749.114	2722.52
749.303	2752.16
749.491	2740.54
749.68	2664.59
749.869	2784.52
750.057	2745.96
750.246	2760.88
750.434	2761.85
750.623	2749.84
750.811	2716.32
751	2785.1
751.188	2781.42
751.377	2772.12
751.565	2739.96
751.754	2673.11
751.942	2696.36
752.131	2794.01
752.319	2714.19
752.507	2697.91
752.696	2722.33
752.884	2773.28
753.072	2743.83
753.261	2719.61
753.449	2711.67
753.637	2687.45
753.825	2788.01
754.014	2718.26
754.202	2707.6
754.39	2772.89
754.578	2747.32
754.766	2668.08
754.955	2665.75
755.143	2758.36
755.331	2678.73
755.519	2674.28
755.707	2707.02
755.895	2709.35
756.083	2741.12
756.271	2634.56
756.459	2662.26
756.647	2664.59
756.835	2661.49
757.023	2656.65
757.211	2645.02
757.399	2609.18
757.587	2608.4
757.775	2590.77
757.963	2626.03
758.151	2594.84
758.339	2608.02
758.526	2568.1
758.714	2597.55
758.902	2468.13
759.09	2449.72
759.278	2291.63
759.465	2108.34
759.653	1809
759.841	1670.08
760.028	1416.08
760.216	1228.34
760.404	1173.51
760.591	960.2
760.779	809.85
760.967	732.74
761.154	585.49
761.342	612.61
761.529	629.47
761.717	698.25
761.905	625.59
762.092	706.39
762.28	651.94
762.467	677.32
762.655	612.23
762.842	635.28
763.029	658.53
763.217	653.3
763.404	660.66
763.592	670.35
763.779	624.24
763.966	670.54
764.154	723.44
764.341	791.25
764.528	730.02
764.716	799.38
764.903	840.27
765.09	907.88
765.277	937.14
765.465	1083.61
765.652	1109.38
765.839	1192.11
766.026	1245.78
766.213	1303.52
766.4	1373.65
766.588	1546.47
766.775	1519.54
766.962	1621.45
767.149	1682.87
767.336	1805.13
767.523	1740.22
767.71	1878.56
767.897	1934.55
768.084	1996.36
768.271	2029.49
768.458	2078.7
768.645	2140.12
768.832	2117.06
769.019	2091.29
769.206	2134.5
769.392	2202.5
769.579	2324.37
769.766	2233.7
769.953	2220.13
770.14	2315.26
770.327	2298.79
770.513	2339.68
770.7	2378.62
770.887	2298.6
771.073	2339.68
771.26	2374.74
771.447	2274
771.634	2322.63
771.82	2367.77
772.007	2294.53
772.193	2308.48
772.38	2374.16
772.567	2319.33
772.753	2340.26
772.94	2347.62
773.126	2370.29
773.313	2417.17
773.499	2398.19
773.686	2343.94
773.872	2324.76
774.059	2349.75
774.245	2305.19
774.432	2299.57
774.618	2234.28
774.804	2329.6
774.991	2253.26
775.177	2309.64
775.363	2317.01
775.55	2329.6
775.736	2269.35
775.922	2274.38
776.109	2284.84
776.295	2302.09
776.481	2323.01
776.667	2281.74
776.853	2291.43
777.04	2222.65
777.226	2239.31
777.412	2350.53
777.598	2248.23
777.784	2223.23
777.97	2211.8
778.156	2251.52
778.342	2250.36
778.528	2256.56
778.715	2187.58
778.901	2203.86
779.087	2239.7
779.272	2214.13
779.458	2194.75
779.644	2231.37
779.83	2184.87
780.016	2321.27
780.202	2216.84
780.388	2178.09
780.574	2114.93
780.76	2155.81
780.946	2203.66
781.131	2167.05
781.317	2184.68
781.503	2147.48
781.689	2164.33
781.874	2268.76
782.06	2131.78
782.246	2181.97
782.432	2148.83
782.617	2144.38
782.803	2169.37
782.989	2084.9
783.174	2138.57
783.36	2061.45
783.545	2134.69
783.731	2085.87
783.916	2009.14
784.102	2140.12
784.288	2050.6
784.473	2125
784.659	2093.23
784.844	2106.02
785.029	2070.56
785.215	2060.68
785.4	2032.39
785.586	2127.13
785.771	2019.8
785.956	2058.16
786.142	2014.57
786.327	2016.51
786.512	2003.33
786.698	2007.21
786.883	1963.42
787.068	1996.94
787.254	2031.04
787.439	2000.23
787.624	1992.87
787.809	1983.76
787.994	1977.95
788.18	2067.46
788.365	1927.96
788.55	1944.62
788.735	1929.13
788.92	1954.7
789.105	1958.77
789.29	2000.42
789.475	1904.33
789.66	1935.71
789.845	1878.17
790.03	1875.46
790.215	1941.33
790.4	1966.13
790.585	1969.62
790.77	1893.48
790.955	1821.01
791.14	1920.79
791.325	1937.07
791.51	1788.46
791.695	1886.31
791.879	1874.88
792.064	1804.16
792.249	1944.04
792.434	1872.55
792.618	1907.43
792.803	1900.84
792.988	1845.81
793.173	1879.33
793.357	1910.91
793.542	1844.65
793.727	1854.53
793.911	1876.62
794.096	1871.19
794.281	1888.24
794.465	1972.52
794.65	1857.05
794.834	1890.96
795.019	1935.52
795.203	1914.79
795.388	1921.18
795.572	1962.45
795.757	1912.46
795.941	1911.11
796.126	1902.97
796.31	1861.7
796.494	1888.44
796.679	1889.41
796.863	1838.65
797.048	1917.11
797.232	1889.02
797.416	1894.64
797.601	1905.88
797.785	1965.94
797.969	1960.32
798.153	1873.52
798.338	1884.18
798.522	1912.27
798.706	1942.11
798.89	1913.24
799.074	2054.48
799.258	1973.3
799.443	1911.69
799.627	1903.74
799.811	1952.76
799.995	1911.3
800.179	1890.96
800.363	1892.7
800.547	1908.01
800.731	1930.29
800.915	1840.97
801.099	1895.03
801.283	1916.73
801.467	1903.36
801.651	1849.69
801.835	1949.08
802.019	1927.77
802.202	1909.94
802.386	1819.08
802.57	1852.4
802.754	1908.2
802.938	1860.93
803.121	1876.04
803.305	1912.27
803.489	1896.96
803.673	1892.7
803.856	1917.89
804.04	1885.73
804.224	1891.93
804.407	1903.94
804.591	1866.16
804.775	1928.93
804.958	1902.58
805.142	1992.48
805.326	1923.7
805.509	1927.58
805.693	1931.45
805.876	1961.87
806.06	1910.91
806.243	1920.79
806.427	1933.97
806.61	1987.83
806.794	1921.18
806.977	1951.6
807.16	1900.06
807.344	1889.79
807.527	1905.1
807.71	1914.4
807.894	1929.71
808.077	1957.8
808.26	1864.8
808.444	1878.36
808.627	1968.84
808.81	1878.56
808.993	1847.94
809.177	1843.1
809.36	1830.9
809.543	1876.23
809.726	1804.55
809.909	1792.53
810.092	1795.83
810.276	1791.76
810.459	1803.58
810.642	1754.95
810.825	1771.41
811.008	1756.5
811.191	1713.48
811.374	1738.87
811.557	1711.35
811.74	1799.7
811.923	1681.13
812.106	1701.67
812.289	1645.09
812.472	1661.17
812.654	1691.01
812.837	1630.56
813.02	1579.8
813.203	1576.7
813.386	1501.72
813.569	1517.22
813.751	1451.54
813.934	1507.14
814.117	1470.14
814.3	1424.61
814.482	1437.59
814.665	1363.96
814.848	1369.78
815.03	1306.23
815.213	1342.07
815.396	1312.23
815.578	1288.79
815.761	1269.8
815.943	1293.63
816.126	1225.44
816.309	1227.76
816.491	1153.94
816.674	1113.26
816.856	1158.98
817.039	1158.4
817.221	1232.8
817.403	1188.43
817.586	1195.79
817.768	1204.12
817.951	1140.57
818.133	1101.63
818.315	1163.24
818.498	1169.44
818.68	1236.28
818.862	1212.07
819.045	1233.18
819.227	1208.58
819.409	1197.34
819.591	1213.81
819.774	1210.13
819.956	1149.87
820.138	1276
820.32	1212.84
820.502	1251.59
820.684	1339.16
820.866	1313.59
821.048	1364.74
821.231	1369.78
821.413	1380.82
821.595	1325.21
821.777	1359.9
821.959	1339.16
822.141	1412.59
822.323	1282.59
822.505	1229.5
822.686	1221.75
822.868	1165.76
823.05	1084.58
823.232	1063.27
823.414	989.45
823.596	1070.05
823.778	1055.71
823.96	1088.84
824.141	1059.39
824.323	1095.24
824.505	1160.53
824.687	1187.07
824.868	1222.72
825.05	1303.32
825.232	1290.53
825.413	1381.01
825.595	1352.15
825.777	1293.83
825.958	1301.19
826.14	1315.92
826.321	1322.11
826.503	1310.3
826.685	1345.36
826.866	1341.88
827.048	1361.83
827.229	1274.65
827.411	1248.68
827.592	1224.85
827.773	1270.97
827.955	1214.39
828.136	1198.89
828.318	1149.1
828.499	1190.95
828.68	1154.33
828.862	1179.32
829.043	1238.42
829.224	1214.97
829.406	1188.04
829.587	1179.71
829.768	1183.39
829.949	1190.56
830.131	1195.02
830.312	1257.6
830.493	1169.44
830.674	1177
830.855	1179.32
831.036	1188.24
831.218	1252.37
831.399	1244.23
831.58	1192.69
831.761	1237.64
831.942	1239.97
832.123	1166.92
832.304	1129.92
832.485	1154.72
832.666	1167.31
832.847	1175.06
833.028	1169.05
833.209	1193.47
833.389	1155.1
833.57	1114.81
833.751	1137.28
833.932	1215.55
834.113	1174.48
834.294	1174.48
834.475	1191.92
834.655	1244.62
834.836	1240.16
835.017	1184.94
835.198	1153.94
835.378	1221.75
835.559	1257.4
835.74	1177
835.92	1182.42
836.101	1188.43
836.281	1218.85
836.462	1212.65
836.643	1257.21
836.823	1255.47
837.004	1244.81
837.184	1298.48
837.365	1258.57
837.545	1280.07
837.726	1207.61
837.906	1294.8
838.087	1237.06
838.267	1225.05
838.448	1190.95
838.628	1186.69
838.808	1220.2
838.989	1275.03
839.169	1180.49
839.349	1251.2
839.53	1265.35
839.71	1295.38
839.89	1204.32
840.07	1306.81
840.251	1242.87
840.431	1254.5
840.611	1214
840.791	1191.53
840.971	1245.2
841.151	1208.19
841.332	1197.54
841.512	1265.73
841.692	1196.18
841.872	1248.1
842.052	1207.22
842.232	1269.61
842.412	1162.66
842.592	1226.6
842.772	1226.02
842.952	1241.71
843.132	1191.34
843.312	1188.24
843.492	1203.74
843.672	1229.5
843.851	1130.89
844.031	1192.5
844.211	1197.73
844.391	1167.5
844.571	1203.93
844.751	1214.39
844.93	1179.32
845.11	1153.75
845.29	1181.07
845.47	1181.65
845.649	1238.22
845.829	1182.62
846.009	1178.16
846.188	1228.73
846.368	1152.78
846.547	1176.61
846.727	1220.59
846.907	1158.79
847.086	1188.62
847.266	1195.79
847.445	1195.21
847.625	1166.34
847.804	1164.99
847.984	1149.87
848.163	1120.04
848.343	1132.24
848.522	1167.5
848.701	1193.66
848.881	1133.79
849.06	1184.94
849.239	1140.96
849.419	1192.11
849.598	1102.21
849.777	1095.62
849.957	1083.22
850.136	1043.51
850.315	1029.36
850.494	1080.9
850.674	1061.14
850.853	1129.92
851.032	1091.75
851.211	1134.76
851.39	1081.67
851.569	1081.87
851.748	1029.94
851.927	1104.54
852.107	1108.99
852.286	1037.31
852.465	1031.11
852.644	1096.4
852.823	1112.67
853.002	1078.57
853.181	1090.2
853.359	1089.62
853.538	1054.36
853.717	1114.61
853.896	999.14
854.075	926.48
854.254	948.76
854.433	884.05
854.611	962.13
854.79	924.55
854.969	980.93
855.148	975.11
855.327	932.3
855.505	959.42
855.684	937.72
855.863	994.1
856.041	931.33
856.22	1003.79
856.399	957.87
856.577	1048.16
856.756	1012.12
856.934	1121.39
857.113	1132.05
857.291	1046.22
857.47	1013.28
857.648	1046.41
857.827	1054.36
858.005	1055.71
858.184	999.53
858.362	1109.19
858.541	1032.08
858.719	1034.98
858.898	1022
859.076	984.22
859.254	1096.01
859.433	1014.06
859.611	1021.42
859.789	953.22
859.967	1039.63
860.146	1082.64
860.324	966.78
860.502	986.54
860.68	931.91
860.859	980.93
861.037	999.72
861.215	1027.81
861.393	987.13
861.571	976.66
861.749	978.6
861.927	1010.57
862.105	993.33
862.283	970.66
862.461	947.6
862.639	947.8
862.817	949.54
862.995	968.72
863.173	964.46
863.351	960.97
863.529	952.64
863.707	1006.31
863.885	997.2
864.063	912.73
864.241	923.58
864.418	985.19
864.596	923.96
864.774	917.18
864.952	944.89
865.129	988.48
865.307	916.99
865.485	878.43
865.663	960
865.84	874.56
866.018	886.76
866.196	777.69
866.373	838.52
866.551	804.81
866.728	757.92
866.906	814.88
867.084	848.02
867.261	867.58
867.439	867.97
867.616	868.94
867.794	871.07
867.971	861.97
868.149	874.56
868.326	917.38
868.503	904.2
868.681	869.13
868.858	829.8
869.035	853.25
869.213	894.71
869.39	840.46
869.567	943.53
869.745	878.05
869.922	905.56
870.099	900.52
870.276	876.3
870.454	918.35
870.631	911.95
870.808	866.62
870.985	882.7
871.162	973.18
871.339	912.73
871.517	843.37
871.694	855.38
871.871	862.55
872.048	857.12
872.225	822.63
872.402	888.31
872.579	803.84
872.756	864.68
872.933	806.75
873.11	846.85
873.287	853.63
873.463	853.83
873.64	794.54
873.817	871.27
873.994	817.02
874.171	793.57
874.348	841.82
874.524	802.48
874.701	826.7
874.878	773.62
875.055	834.45
875.231	812.37
875.408	831.55
875.585	758.89
875.762	828.06
875.938	797.45
876.115	777.3
876.291	795.51
876.468	803.26
876.645	741.26
876.821	771.1
876.998	791.44
877.174	803.26
877.351	777.69
877.527	763.93
877.704	793.57
877.88	801.9
878.057	776.91
878.233	825.15
878.409	741.65
878.586	782.72
878.762	777.49
878.938	737.77
879.115	701.93
879.291	771.49
879.467	718.59
879.644	742.04
879.82	779.43
879.996	759.86
880.172	699.61
880.349	788.34
880.525	762.38
880.701	731.38
880.877	695.15
881.053	737.97
881.229	717.43
881.405	783.69
881.581	753.47
881.757	697.86
881.933	748.24
882.109	753.27
882.285	729.25
882.461	673.26
882.637	734.87
882.813	687.59
882.989	725.76
883.165	812.95
883.341	710.65
883.517	749.4
883.693	742.42
883.869	757.54
884.044	719.17
884.22	751.53
884.396	783.5
884.572	754.63
884.747	788.15
884.923	747.27
885.099	765.48
885.275	768
885.45	728.67
885.626	723.05
885.801	718.01
885.977	710.26
886.153	671.32
886.328	759.47
886.504	702.12
886.679	738.55
886.855	690.5
887.03	754.82
887.206	763.35
887.381	743
887.557	730.99
887.732	750.37
887.908	740.29
888.083	762.96
888.258	737.58
888.434	710.65
888.609	714.14
888.784	754.82
888.96	694.96
889.135	736.03
889.31	716.65
889.485	736.22
889.661	694.57
889.836	750.56
890.011	761.02
890.186	699.61
890.361	681.78
890.537	742.04
890.712	741.84
890.887	719.37
891.062	758.12
891.237	774.59
891.412	697.47
891.587	714.52
891.762	741.45
891.937	726.92
892.112	683.33
892.287	705.22
892.462	674.42
892.637	696.31
892.812	635.86
892.987	678.49
893.161	640.9
893.336	670.35
893.511	677.91
893.686	678.87
893.861	668.22
894.035	674.81
894.21	675.77
894.385	630.24
894.56	658.92
894.734	606.99
894.909	618.04
895.084	606.03
895.258	583.94
895.433	613.78
895.608	594.4
895.782	534.92
895.957	596.34
896.131	571.54
896.306	524.26
896.48	523.49
896.655	542.28
896.829	467.69
897.004	480.28
897.178	458.2
897.353	481.64
897.527	525.62
897.701	520.78
897.876	427.2
898.05	505.86
898.224	489.97
898.399	566.31
898.573	478.15
898.747	431.65
898.921	449.48
899.096	389.8
899.27	404.33
899.444	387.67
899.618	405.3
899.792	424.48
899.967	447.35
900.141	449.48
900.315	379.53
900.489	418.87
900.663	439.98
900.837	454.13
901.011	393.87
901.185	476.41
901.359	431.85
901.533	453.74
901.707	456.84
901.881	433.4
902.055	370.82
902.229	432.62
902.403	491.33
902.576	439.79
902.75	432.43
902.924	530.66
903.098	471.56
903.272	505.28
903.446	533.76
903.619	491.91
903.793	530.27
903.967	510.12
904.14	551.19
904.314	543.25
904.488	524.26
904.661	568.05
904.835	542.48
905.009	581.42
905.182	601.38
905.356	536.66
905.529	535.5
905.703	508.57
905.876	488.42
906.05	482.8
906.223	486.29
906.397	417.51
906.57	423.9
906.744	429.72
906.917	412.08
907.09	450.83
907.264	424.48
907.437	409.18
907.61	377.02
907.784	400.07
907.957	428.36
908.13	392.13
908.304	416.54
908.477	362.29
908.65	390.77
908.823	324.32
908.996	424.48
909.17	368.68
909.343	369.65
909.516	392.13
909.689	383.22
909.862	371.01
910.035	362.29
910.208	353.96
910.381	339.24
910.554	467.5
910.727	384.18
910.9	364.23
911.073	352.22
911.246	420.03
911.419	420.03
911.592	390.77
911.765	370.43
911.938	347.76
912.11	365.78
912.283	359.19
912.456	428.55
912.629	379.15
912.802	331.29
912.974	329.55
913.147	309.01
913.32	273.55
913.493	284.02
913.665	314.63
913.838	364.81
914.01	301.07
914.183	337.3
914.356	303
914.528	347.76
914.701	414.99
914.873	348.73
915.046	334.39
915.218	323.35
915.391	255.34
915.563	267.94
915.736	321.6
915.908	357.25
916.081	318.7
916.253	275.88
916.425	333.62
916.598	331.87
916.77	344.47
916.942	288.09
917.115	235
917.287	327.42
917.459	308.04
917.632	258.06
917.804	199.35
917.976	284.4
918.148	295.64
918.32	295.25
918.493	349.89
918.665	365.97
918.837	311.92
919.009	381.28
919.181	352.41
919.353	330.9
919.525	349.89
919.697	327.61
919.869	321.02
920.041	381.08
920.213	404.72
920.385	340.4
920.557	348.54
920.729	356.09
920.901	367.52
921.073	363.26
921.244	322.77
921.416	369.65
921.588	342.53
921.76	317.15
921.932	405.88
922.103	316.95
922.275	312.11
922.447	328.97
922.619	264.06
922.79	331.1
922.962	301.65
923.134	381.08
923.305	283.05
923.477	271.42
923.648	250.31
923.82	309.98
923.991	240.42
924.163	256.31
924.335	284.99
924.506	259.61
924.677	331.49
924.849	260.96
925.02	297.77
925.192	322.77
925.363	296.03
925.535	292.93
925.706	289.05
925.877	331.1
926.049	272.97
926.22	294.48
926.391	292.54
926.562	332.65
926.734	249.14
926.905	295.06
927.076	240.42
927.247	264.06
927.419	227.44
927.59	247.98
927.761	214.85
927.932	227.83
928.103	277.43
928.274	203.03
928.445	193.15
928.616	227.25
928.787	185.98
928.958	233.64
929.129	195.67
929.3	224.73
929.471	159.05
929.642	129.79
929.813	105.77
929.984	188.11
930.155	119.72
930.326	159.05
930.496	129.21
930.667	88.33
930.838	128.83
931.009	89.88
931.18	123.59
931.35	123.59
931.521	113.71
931.692	97.83
931.863	48.61
932.033	96.47
932.204	93.76
932.374	101.12
932.545	62.56
932.716	127.08
932.886	88.72
933.057	18.39
933.227	57.33
933.398	131.54
933.568	44.35
933.739	30.01
933.909	31.56
934.08	100.34
934.25	-2.53
934.421	5.6
934.591	66.83
934.761	-4.67
934.932	-6.02
935.102	24.78
935.272	17.81
935.443	44.16
935.613	23.23
935.783	31.76
935.953	-5.05
936.123	156.14
936.294	28.27
936.464	26.14
936.634	55.2
936.804	-5.63
936.974	1.73
937.144	64.31
937.314	27.69
937.484	19.36
937.655	13.35
937.825	53.85
937.995	29.63
938.165	62.18
938.334	-2.73
938.504	36.8
938.674	16.45
938.844	43.77
939.014	85.81
939.184	72.45
939.354	103.25
939.524	59.85
939.694	56.75
939.863	47.84
940.033	121.08
940.203	111.58
940.373	85.62
940.542	95.31
940.712	64.89
940.882	106.93
941.051	98.99
941.221	72.83
941.391	128.63
941.56	63.92
941.73	19.75
941.899	171.06
942.069	33.11
942.238	88.33
942.408	35.44
942.577	121.85
942.747	43
942.916	34.86
943.086	45.32
943.255	67.6
943.425	70.51
943.594	54.04
943.763	-23.07
943.933	15.48
944.102	-18.62
944.271	53.46
944.441	66.25
944.61	37.76
944.779	51.52
944.948	149.94
945.117	13.35
945.287	39.9
945.456	-4.86
945.625	4.63
945.794	79.42
945.963	34.28
946.132	73.8
946.301	30.79
946.47	77.29
946.639	-17.84
946.808	22.07
946.977	58.5
947.146	109.45
947.315	29.05
947.484	64.89
947.653	24.59
947.822	34.08
947.991	21.68
948.16	128.44
948.329	91.43
948.498	41.25
948.666	33.11
948.835	85.04
949.004	22.65
949.173	20.13
949.341	48.03
949.51	67.99
949.679	104.03
949.847	73.22
950.016	118.56
950.185	103.25
950.353	18.58
950.522	35.25
950.69	98.41
950.859	21.3
951.028	88.14
951.196	59.66
951.365	11.8
951.533	46.68
951.701	71.67
951.87	80
952.038	16.84
952.207	60.05
952.375	136.58
952.543	33.7
952.712	59.08
952.88	32.92
953.048	114.68
953.217	46.29
953.385	30.21
953.553	90.08
953.721	14.32
953.89	45.13
954.058	29.24
954.226	29.24
954.394	47.26
954.562	15.68
954.73	56.95
954.898	25.36
955.067	65.47
955.235	41.25
955.403	85.43
955.571	92.01
955.739	68.38
955.907	7.93
956.075	47.84
956.243	15.48
956.41	80.58
956.578	-0.4
956.746	-6.41
956.914	43.96
957.082	85.04
957.25	78.65
957.418	43.38
957.585	96.47
957.753	90.85
957.921	6.57
958.089	25.95
958.256	73.41
958.424	46.87
958.592	45.71
958.759	61.21
958.927	93.37
959.095	38.15
959.262	44.93
959.43	59.08
959.597	33.11
959.765	70.31
959.932	-12.42
960.1	86.78
960.267	29.05
960.435	51.13
960.602	73.61
960.77	38.35
960.937	25.95
961.104	73.22
961.272	3.86
961.439	34.86
961.606	74.19
961.774	79.23
961.941	20.71
962.108	56.75
962.275	46.68
962.443	104.22
962.61	87.75
962.777	132.12
962.944	70.31
963.111	87.17
963.278	63.73
963.446	56.95
963.613	73.61
963.78	52.68
963.947	87.17
964.114	74.96
964.281	152.08
964.448	78.45
964.615	34.66
964.782	55.59
964.949	88.53
965.116	89.3
965.282	99.57
965.449	38.73
965.616	20.13
965.783	78.84
965.95	77.29
966.117	6.18
966.283	62.56
966.45	54.62
966.617	104.61
966.784	122.82
966.95	90.27
967.117	88.33
967.284	30.01
967.45	36.8
967.617	100.54
967.784	100.73
967.95	108.87
968.117	84.85
968.283	111.78
968.45	170.29
968.616	85.04
968.783	108.29
968.949	87.95
969.116	104.99
969.282	74
969.449	91.43
969.615	59.27
969.781	38.93
969.948	73.41
970.114	18.2
970.28	125.34
970.447	46.48
970.613	116.43
970.779	70.31
970.945	96.08
971.112	89.69
971.278	74
971.444	63.92
971.61	97.83
971.776	68.57
971.942	94.53
972.108	87.17
972.275	59.27
972.441	73.41
972.607	141.42
972.773	41.83
972.939	99.18
973.105	71.48
973.271	19.16
973.437	46.1
973.602	40.28
973.768	84.26
973.934	62.18
974.1	91.43
974.266	4.63
974.432	70.31
974.598	21.49
974.763	117.98
974.929	52.3
975.095	122.24
975.261	62.18
975.426	24.2
975.592	60.63
975.758	146.07
975.923	23.81
976.089	42.61
976.255	98.99
976.42	76.9
976.586	68.18
976.751	79.03
976.917	168.16
977.082	87.75
977.248	13.55
977.413	-11.83
977.579	38.35
977.744	87.36
977.91	35.63
978.075	20.71
978.24	66.63
978.406	51.13
978.571	57.72
978.736	39.7
978.902	97.83
979.067	28.66
979.232	-14.16
979.397	85.23
979.563	105.19
979.728	36.02
979.893	52.68
980.058	24.2
980.223	83.88
980.388	64.31
980.554	63.92
980.719	49.58
980.884	42.41
981.049	91.43
981.214	27.11
981.379	72.45
981.544	46.1
981.709	59.27
981.874	50.36
982.039	47.84
982.204	72.45
982.368	44.16
982.533	29.82
982.698	93.95
982.863	107.51
983.028	33.31
983.193	80.2
983.357	57.72
983.522	78.84
983.687	79.61
983.852	47.26
984.016	64.89
984.181	84.46
984.346	69.73
984.51	75.55
984.675	33.5
984.839	71.86
985.004	48.81
985.168	86.98
985.333	52.49
985.498	80.39
985.662	105.77
985.827	73.8
985.991	62.56
986.155	34.47
986.32	101.89
986.484	111.19
986.649	61.4
986.813	20.91
986.977	72.06
987.142	65.47
987.306	15.1
987.47	40.86
987.634	47.45
987.799	99.96
987.963	90.08
988.127	78.65
988.291	135.61
988.455	78.26
988.62	49.39
988.784	97.44
988.948	108.29
989.112	28.27
989.276	79.81
989.44	33.11
989.604	46.29
989.768	48.23
989.932	139.87
990.096	26.72
990.26	22.07
990.424	13.35
990.588	68.38
990.752	82.52
990.915	99.38
991.079	51.52
991.243	37.96
991.407	83.88
991.571	71.48
991.734	81.36
991.898	65.28
992.062	142.97
992.226	9.28
992.389	67.02
992.553	6.96
992.717	58.11
992.88	45.71
993.044	77.68
993.207	63.92
993.371	75.55
993.535	72.83
993.698	50.75
993.862	82.52
994.025	91.05
994.189	64.31
994.352	53.65
994.515	74.19
994.679	72.45
994.842	47.84
995.006	65.28
995.169	33.31
995.332	23.81
995.496	72.64
995.659	-4.28
995.822	54.04
995.985	47.65
996.149	77.29
996.312	67.6
996.475	113.71
996.638	11.61
996.801	97.05
996.964	116.81
997.128	54.23
997.291	38.15
997.454	83.88
997.617	15.29
997.78	98.21
997.943	37.96
998.106	93.76
998.269	33.11
998.432	36.6
998.595	48.23
998.758	-4.08
998.92	17.23
999.083	2.12
999.246	23.81
999.409	-11.83
999.572	-24.43
999.735	40.67
999.897	56.75
1000.06	32.15
1000.223	29.82
1000.386	74.58
1000.548	80.39
1000.711	64.11
1000.874	68.76
1001.036	-6.02
1001.199	64.31
1001.361	11.03
1001.524	48.03
1001.687	64.31
1001.849	17.23
1002.012	49.58
1002.174	59.27
1002.337	67.6
1002.499	26.91
1002.661	78.45
1002.824	33.5
1002.986	-0.21
1003.149	54.62
1003.311	7.73
1003.473	93.18
1003.636	33.89
1003.798	51.71
1003.96	77.29
1004.123	31.76
1004.285	37.18
1004.447	49
1004.609	38.93
1004.771	101.51
1004.933	33.5
1005.096	2.31
1005.258	-0.21
1005.42	27.69
1005.582	69.15
1005.744	31.18
1005.906	11.41
1006.068	38.73
1006.23	1.53
1006.392	15.68
1006.554	-13
1006.716	74.77
1006.878	64.31
1007.04	-4.47
1007.202	27.5
1007.363	47.26
1007.525	51.71
1007.687	59.27
1007.849	62.76
1008.011	-17.26
1008.172	17.81
1008.334	48.23
1008.496	47.45
1008.658	8.9
1008.819	13.55
1008.981	-13.77
1009.143	24.01
1009.304	43.96
1009.466	48.23
1009.627	73.22
1009.789	135.22
1009.95	45.13
1010.112	0.76
1010.273	49.39
1010.435	-4.28
1010.596	22.65
1010.758	14.13
1010.919	4.44
1011.081	-26.56
1011.242	12.19
1011.403	36.99
1011.565	19.16
1011.726	50.94
1011.887	-21.72
1012.049	13.35
1012.21	36.99
1012.371	82.13
1012.532	-40.12
1012.693	-0.98
1012.855	3.47
1013.016	31.18
1013.177	53.65
1013.338	49.2
1013.499	89.69
1013.66	46.29
1013.821	37.18
1013.982	28.66
1014.143	22.85
1014.304	-11.45
1014.465	49.58
1014.626	42.03
1014.787	26.53
1014.948	122.24
1015.109	-43.22
1015.27	52.1
1015.431	1.53
1015.592	12.96
1015.752	52.88
1015.913	45.9
1016.074	46.68
1016.235	36.21
1016.395	28.08
1016.556	16.45
1016.717	6.38
1016.877	45.13
1017.038	15.68
1017.199	47.45
1017.359	14.9
1017.52	34.86
1017.681	17.42
1017.841	24.78
1018.002	29.24
1018.162	32.92
1018.323	81.55
1018.483	18.97
1018.644	18.39
1018.804	-26.95
1018.964	4.25
1019.125	8.7
1019.285	34.28
1019.446	3.08
1019.606	-6.41
1019.766	-33.15
1019.926	39.31
1020.087	27.69
1020.247	-16.87
1020.407	45.13
1020.567	65.28
1020.728	13.35
1020.888	-18.42
1021.048	-11.25
1021.208	-22.88
1021.368	-12.03
1021.528	63.15
1021.688	71.48
1021.848	53.07
1022.008	43.77
1022.168	12.77
1022.328	40.86
1022.488	42.8
1022.648	-9.51
1022.808	58.3
1022.968	50.94
1023.128	5.99
1023.288	8.7
1023.448	30.98
1023.608	35.83
1023.767	29.24
1023.927	-1.37
1024.087	-9.9
1024.247	-30.82
1024.406	-15.32
1024.566	-15.13
1024.726	-8.93
1024.885	14.71
1025.045	40.48
1025.205	17.42
1025.364	15.29
1025.524	7.15
1025.683	15.1
1025.843	10.06
1026.003	30.6
1026.162	61.6
1026.321	23.43
1026.481	29.63
1026.64	21.88
1026.8	25.36
1026.959	-2.73
1027.119	3.28
1027.278	17.61
1027.437	6.57
1027.597	8.7
1027.756	27.3
1027.915	30.79
1028.074	32.53
1028.234	-29.08
1028.393	17.03
1028.552	12.38
1028.711	-63.76
1028.87	48.42
1029.03	-33.92
1029.189	15.68
1029.348	-64.73
1029.507	-0.02
1029.666	-0.98
1029.825	-10.48
1029.984	-26.37
1030.143	25.17
1030.302	10.64
1030.461	-46.9
1030.62	36.21
1030.779	39.31
1030.938	-7.96
1031.097	-45.55
1031.255	42.8
1031.414	48.03
1031.573	68.18
1031.732	-35.28
1031.891	-20.17
1032.049	74.96
1032.208	36.8
1032.367	-10.28
1032.525	-16.68
1032.684	12.58
1032.843	12.58
1033.001	-17.45
1033.16	166.41
1033.319	45.51
1033.477	19.94
1033.636	-29.08
1033.794	-51.55
1033.953	33.5
1034.111	39.51
1034.27	1.73
1034.428	24.01
1034.587	-32.37
1034.745	2.12
1034.903	12
1035.062	18.97
1035.22	-18.23
1035.378	36.99
1035.537	-20.55
1035.695	38.54
1035.853	10.06
1036.011	32.92
1036.17	5.02
1036.328	-42.06
1036.486	14.51
1036.644	6.38
1036.802	-101.73
1036.96	6.57
1037.119	5.02
1037.277	-2.73
1037.435	-17.26
1037.593	-13.38
1037.751	15.1
1037.909	25.56
1038.067	25.56
