Data from pine_FLMT105791__113__17-22-12-075.txt Node

Date: Mon Mar 20 17:22:12 GMT 2023
User: antho
Spectrometer: FLMT10579
Trigger mode: 0
Integration Time (sec): 1.000000E-1
Scans to average: 10
Electric dark correction enabled: true
Nonlinearity correction enabled: false
Boxcar width: 0
XAxis mode: Wavelengths
Number of Pixels in Spectrum: 3648
>>>>>Begin Spectral Data<<<<<
345.248	-200.11
345.464	-200.11
345.681	-200.11
345.898	-166.4
346.114	-163.1
346.331	-26.7
346.548	9.33
346.764	-5.78
346.981	-4.81
347.197	-21.67
347.414	-1.32
347.631	-1.52
347.847	52.54
348.064	-5.2
348.28	28.9
348.497	-34.07
348.713	10.3
348.93	37.62
349.146	26.38
349.363	-5.2
349.579	17.28
349.796	9.53
350.012	-7.52
350.229	25.99
350.445	-14.5
350.661	-19.54
350.878	3.71
351.094	22.51
351.311	26.77
351.527	13.4
351.743	-4.62
351.96	25.03
352.176	20.18
352.392	20.18
352.609	17.08
352.825	-12.95
353.041	17.08
353.257	6.62
353.474	18.83
353.69	3.52
353.906	5.26
354.122	-11.01
354.339	44.98
354.555	0.42
354.771	-11.79
354.987	26.77
355.203	58.74
355.42	-35.81
355.636	-25.15
355.852	-11.98
356.068	-23.6
356.284	-28.45
356.5	53.7
356.716	7.01
356.932	-3.46
357.148	29.29
357.364	9.72
357.58	18.24
357.796	52.93
358.012	60.29
358.228	15.73
358.444	-64.49
358.66	62.03
358.876	26.96
359.092	-12.17
359.308	1.97
359.524	22.31
359.74	15.73
359.956	-26.7
360.172	8.36
360.388	46.73
360.604	-3.46
360.819	71.33
361.035	29.87
361.251	45.76
361.467	-33.87
361.683	18.24
361.898	-6.75
362.114	32
362.33	23.48
362.546	13.79
362.762	3.91
362.977	29.87
363.193	-50.15
363.409	44.59
363.624	-16.44
363.84	-8.69
364.056	-2.1
364.271	19.99
364.487	-9.07
364.703	-11.79
364.918	-2.87
365.134	-2.1
365.35	1
365.565	101.17
365.781	-2.68
365.996	35.88
366.212	69.78
366.427	23.09
366.643	-3.07
366.858	10.3
367.074	-14.69
367.289	54.48
367.505	95.74
367.72	-28.25
367.936	-12.56
368.151	33.16
368.367	31.42
368.582	16.11
368.798	1.58
369.013	58.35
369.228	-12.56
369.444	13.79
369.659	43.24
369.874	18.05
370.09	52.54
370.305	-49.18
370.52	-33.29
370.736	55.25
370.951	14.18
371.166	38.78
371.381	74.82
371.597	34.91
371.812	-25.54
372.027	-26.7
372.242	12.43
372.458	88.19
372.673	-7.91
372.888	7.39
373.103	28.13
373.318	81.6
373.533	33.36
373.749	50.79
373.964	-43.56
374.179	65.52
374.394	-26.12
374.609	57.58
374.824	-21.86
375.039	48.86
375.254	10.49
375.469	59.13
375.684	51.96
375.899	49.44
376.114	28.32
376.329	27.16
376.544	47.11
376.759	56.03
376.974	-2.1
377.189	13.59
377.404	-12.37
377.619	42.08
377.834	-35.04
378.049	-42.4
378.264	-8.69
378.478	24.06
378.693	-28.45
378.908	17.66
379.123	21.73
379.338	53.31
379.553	27.16
379.767	30.26
379.982	43.43
380.197	43.24
380.412	-5.2
380.626	21.73
380.841	83.73
381.056	28.13
381.271	85.86
381.485	4.68
381.7	-20.89
381.915	29.87
382.129	15.92
382.344	46.73
382.559	10.88
382.773	73.27
382.988	-54.02
383.202	52.34
383.417	-34.65
383.632	97.49
383.846	14.56
384.061	40.14
384.275	8.94
384.49	25.03
384.704	35.68
384.919	26.77
385.133	38.39
385.348	50.6
385.562	-5.78
385.777	49.83
385.991	5.46
386.206	9.14
386.42	-3.84
386.634	65.13
386.849	13.01
387.063	28.71
387.277	-4.81
387.492	-23.8
387.706	-4.81
387.92	-1.32
388.135	40.33
388.349	56.41
388.563	36.84
388.778	47.89
388.992	51.96
389.206	64.16
389.42	88.38
389.635	14.56
389.849	34.13
390.063	81.79
390.277	38.2
390.491	81.79
390.706	51.57
390.92	51.18
391.134	47.69
391.348	56.03
391.562	-14.89
391.776	22.7
391.99	5.46
392.205	68.81
392.419	1.58
392.633	13.01
392.847	63.58
393.061	2.94
393.275	97.29
393.489	34.52
393.703	64.36
393.917	61.26
394.131	18.63
394.345	37.23
394.559	61.64
394.773	4.88
394.986	47.89
395.2	24.64
395.414	60.29
395.628	-0.74
395.842	36.65
396.056	17.86
396.27	-42.2
396.484	31.42
396.697	60.09
396.911	80.82
397.125	50.79
397.339	56.99
397.553	34.13
397.766	120.54
397.98	59.32
398.194	80.44
398.408	38.39
398.621	44.4
398.835	63.78
399.049	19.21
399.262	96.32
399.476	89.54
399.69	47.31
399.903	129.84
400.117	45.18
400.331	60.87
400.544	26.58
400.758	149.61
400.971	53.31
401.185	95.74
401.398	5.65
401.612	96.13
401.826	64.94
402.039	80.05
402.253	44.21
402.466	82.76
402.68	60.29
402.893	47.31
403.106	58.74
403.32	66.68
403.533	65.71
403.747	44.59
403.96	64.55
404.174	77.14
404.387	-5.78
404.6	53.51
404.814	100.01
405.027	52.54
405.24	60.48
405.454	56.99
405.667	94.58
405.88	4.29
406.094	61.64
406.307	70.56
406.52	67.84
406.733	26.96
406.947	-0.55
407.16	156.77
407.373	97.1
407.586	60.68
407.799	25.8
408.012	84.51
408.226	53.12
408.439	102.33
408.652	7.39
408.865	62.03
409.078	133.52
409.291	101.17
409.504	49.44
409.717	82.57
409.93	105.62
410.143	72.69
410.357	2.74
410.57	42.46
410.783	47.89
410.996	69.59
411.209	86.25
411.421	119.77
411.634	65.52
411.847	56.22
412.06	86.64
412.273	65.33
412.486	71.53
412.699	176.34
412.912	85.67
413.125	140.31
413.338	76.17
413.55	80.05
413.763	76.37
413.976	83.15
414.189	64.36
414.402	69.39
414.615	140.69
414.827	79.27
415.04	135.07
415.253	105.62
415.466	138.95
415.678	144.18
415.891	89.35
416.104	70.56
416.316	72.88
416.529	51.96
416.742	134.88
416.954	134.49
417.167	91.48
417.38	74.43
417.592	123.26
417.805	52.73
418.017	54.67
418.23	126.74
418.442	84.7
418.655	87.41
418.868	90.32
419.08	119.96
419.293	144.18
419.505	120.93
419.718	108.53
419.93	123.64
420.142	97.1
420.355	172.47
420.567	162.97
420.78	151.54
420.992	92.06
421.205	164.33
421.417	59.13
421.629	75.4
421.842	86.25
422.054	61.84
422.266	117.64
422.479	152.51
422.691	87.8
422.903	137.01
423.115	89.54
423.328	94.97
423.54	130.81
423.752	134.69
423.964	75.98
424.177	126.16
424.389	86.44
424.601	215.67
424.813	117.44
425.025	152.51
425.238	177.89
425.45	99.62
425.662	111.24
425.874	403.8
426.086	117.44
426.298	143.99
426.51	131.01
426.722	131.97
426.934	117.64
427.146	183.12
427.358	96.32
427.57	140.89
427.782	138.37
427.994	136.04
428.206	102.52
428.418	110.47
428.63	136.62
428.842	156.77
429.054	147.67
429.266	155.42
429.478	96.91
429.69	156.97
429.902	106.21
430.114	142.44
430.325	154.64
430.537	123.06
430.749	121.12
430.961	51.57
431.173	101.75
431.384	153.09
431.596	54.48
431.808	115.51
432.02	173.44
432.231	167.24
432.443	220.9
432.655	141.47
432.867	126.94
433.078	151.74
433.29	240.67
433.502	193.2
433.713	218.39
433.925	182.15
434.136	205.02
434.348	107.95
434.56	118.8
434.771	252.29
434.983	134.3
435.194	136.43
435.406	152.9
435.617	212.19
435.829	241.25
436.04	213.93
436.252	228.65
436.463	283.68
436.675	248.03
436.886	223.04
437.098	235.82
437.309	296.85
437.521	227.69
437.732	211.22
437.943	216.84
438.155	209.47
438.366	157.16
438.578	279.61
438.789	188.35
439	209.09
439.211	210.44
439.423	237.37
439.634	227.69
439.845	248.8
440.057	238.34
440.268	283.48
440.479	199.59
440.69	236.4
440.902	202.69
441.113	236.79
441.324	233.11
441.535	248.03
441.746	311.58
441.957	226.52
442.168	219.55
442.38	272.83
442.591	267.4
442.802	210.25
443.013	258.49
443.224	264.11
443.435	251.9
443.646	262.95
443.857	251.13
444.068	244.54
444.279	257.52
444.49	316.81
444.701	239.12
444.912	360.21
445.123	303.25
445.334	287.36
445.545	270.12
445.756	255.58
445.967	240.28
446.178	263.72
446.388	308.67
446.599	306.73
446.81	302.67
447.021	269.15
447.232	322.43
447.443	367.57
447.653	276.9
447.864	329.4
448.075	308.48
448.286	311.19
448.496	312.74
448.707	319.91
448.918	289.3
449.129	391.01
449.339	283.48
449.55	315.26
449.761	321.46
449.971	366.6
450.182	285.23
450.393	338.12
450.603	316.23
450.814	350.71
451.024	333.86
451.235	351.49
451.446	384.04
451.656	360.6
451.867	320.1
452.077	348
452.288	388.11
452.498	404
452.709	327.08
452.919	338.31
453.13	293.95
453.34	371.64
453.55	285.23
453.761	366.02
453.971	336.96
454.182	364.47
454.392	358.85
454.602	406.9
454.813	350.33
455.023	355.56
455.233	327.27
455.444	365.25
455.654	324.17
455.864	347.81
456.075	325.72
456.285	324.17
456.495	332.7
456.705	362.92
456.916	391.6
457.126	400.7
457.336	341.22
457.546	310.42
457.756	333.08
457.967	405.93
458.177	359.05
458.387	389.27
458.597	330.18
458.807	365.44
459.017	360.4
459.227	353.81
459.437	344.51
459.647	396.44
459.857	370.86
460.068	354.2
460.278	425.31
460.488	401.28
460.698	441.97
460.908	372.22
461.117	333.08
461.327	354.4
461.537	376.87
461.747	358.46
461.957	387.33
462.167	477.43
462.377	442.16
462.587	393.92
462.797	436.74
463.007	432.67
463.216	416.59
463.426	470.45
463.636	458.83
463.846	350.13
464.056	372.22
464.265	453.59
464.475	372.22
464.685	405.55
464.895	443.71
465.104	408.45
465.314	430.54
465.524	414.07
465.733	395.47
465.943	509.01
466.153	481.88
466.362	440.23
466.572	439.26
466.782	394.5
466.991	459.02
467.201	477.23
467.41	374.16
467.62	439.45
467.829	397.21
468.039	438.48
468.249	435.58
468.458	418.14
468.668	462.7
468.877	468.51
469.086	490.02
469.296	482.27
469.505	434.8
469.715	506.49
469.924	481.3
470.134	516.56
470.343	485.95
470.552	456.11
470.762	444.29
470.971	436.74
471.18	466.38
471.39	454.95
471.599	435.96
471.808	498.54
472.018	466.58
472.227	524.31
472.436	525.86
472.645	492.34
472.855	451.27
473.064	545.04
473.273	521.21
473.482	515.59
473.691	558.8
473.901	542.14
474.11	511.33
474.319	602.2
474.528	516.17
474.737	600.45
474.946	540.78
475.155	535.74
475.364	584.76
475.573	518.69
475.783	565.39
475.992	587.09
476.201	567.91
476.41	535.36
476.619	505.52
476.828	553.57
477.037	558.02
477.245	566.94
477.454	581.27
477.663	580.5
477.872	595.61
478.081	653.93
478.29	559.57
478.499	681.44
478.708	631.07
478.917	686.87
479.125	588.06
479.334	589.22
479.543	592.12
479.752	633.2
479.961	641.72
480.169	687.64
480.378	632.81
480.587	741.12
480.796	657.03
481.004	646.37
481.213	689.77
481.422	677.95
481.63	688.22
481.839	694.42
482.048	736.27
482.256	669.04
482.465	701.98
482.674	705.27
482.882	729.88
483.091	781.22
483.299	706.63
483.508	725.42
483.716	718.64
483.925	729.88
484.134	683.57
484.342	738.21
484.551	752.93
484.759	745.57
484.967	741.89
485.176	760.3
485.384	748.87
485.593	775.6
485.801	745.18
486.01	727.17
486.218	714.77
486.426	634.17
486.635	645.21
486.843	666.91
487.051	700.62
487.26	700.04
487.468	709.73
487.676	750.22
487.885	722.71
488.093	744.02
488.301	788.58
488.509	752.35
488.717	784.51
488.926	774.25
489.134	773.86
489.342	763.98
489.55	750.22
489.758	811.25
489.967	800.98
490.175	893.4
490.383	809.7
490.591	886.04
490.799	802.34
491.007	861.43
491.215	856.4
491.423	863.37
491.631	861.43
491.839	845.93
492.047	879.64
492.255	825.59
492.463	757.2
492.671	816.87
492.879	856.2
493.087	855.23
493.295	877.71
493.503	861.24
493.711	916.84
493.919	923.24
494.127	886.81
494.334	883.52
494.542	831.98
494.75	893.21
494.958	918.98
495.166	954.43
495.374	917.81
495.581	948.23
495.789	895.53
495.997	978.07
496.205	908.13
496.412	921.3
496.62	944.55
496.828	936.61
497.035	937.19
497.243	975.94
497.451	968.19
497.658	965.09
497.866	920.14
498.074	1000.74
498.281	920.91
498.489	1032.71
498.696	952.3
498.904	914.33
499.112	907.54
499.319	995.51
499.527	973.03
499.734	991.44
499.942	931.57
500.149	952.11
500.357	942.61
500.564	929.63
500.771	959.86
500.979	921.11
501.186	925.37
501.394	971.09
501.601	939.9
501.808	960.05
502.016	945.91
502.223	953.46
502.43	967.41
502.638	975.55
502.845	941.84
503.052	1028.06
503.26	965.09
503.467	1036
503.674	1010.04
503.881	1028.44
504.089	1082.69
504.296	1033.48
504.503	956.17
504.71	1016.62
504.917	970.12
505.125	1048.4
505.332	1035.61
505.539	1030.38
505.746	1130.93
505.953	1090.64
506.16	1074.17
506.367	1139.65
506.574	1116.6
506.781	1132.48
506.988	1062.35
507.195	1082.3
507.402	1078.24
507.609	1111.37
507.816	1050.34
508.023	1057.7
508.23	1064.09
508.437	1028.06
508.644	1055.18
508.851	1147.79
509.058	1124.54
509.265	1115.63
509.472	1111.75
509.679	1218.51
509.885	1149.15
510.092	1127.25
510.299	1157.67
510.506	1134.42
510.713	1138.68
510.92	1116.02
511.126	1137.91
511.333	1204.37
511.54	1173.75
511.746	1225.68
511.953	1209.21
512.16	1246.99
512.367	1184.6
512.573	1181.31
512.78	1191
512.987	1198.17
513.193	1211.73
513.4	1157.28
513.606	1173.17
513.813	1175.11
514.02	1239.05
514.226	1274.5
514.433	1262.1
514.639	1189.06
514.846	1215.41
515.052	1211.15
515.259	1193.9
515.465	1232.26
515.672	1230.91
515.878	1323.71
516.085	1270.43
516.291	1291.16
516.497	1234.59
516.704	1244.08
516.91	1180.92
517.117	1133.26
517.323	1081.53
517.529	1167.75
517.736	1154.38
517.942	1165.81
518.148	1185.38
518.354	1215.99
518.561	1199.52
518.767	1212.11
518.973	1283.41
519.179	1273.15
519.386	1230.33
519.592	1229.16
519.798	1252.03
520.004	1346.58
520.21	1318.87
520.417	1377.38
520.623	1398.5
520.829	1399.27
521.035	1377.77
521.241	1410.71
521.447	1429.5
521.653	1512.42
521.859	1408.96
522.065	1421.56
522.271	1524.44
522.477	1470.96
522.683	1494.6
522.889	1487.04
523.095	1446.74
523.301	1438.61
523.507	1443.26
523.713	1475.42
523.919	1455.27
524.125	1537.8
524.331	1506.22
524.537	1562.99
524.742	1568.22
524.948	1553.89
525.154	1585.47
525.36	1665.87
525.566	1578.1
525.772	1636.03
525.977	1538.58
526.183	1589.15
526.389	1653.86
526.595	1555.05
526.8	1537.03
527.006	1455.27
527.212	1418.26
527.417	1417.1
527.623	1462.82
527.829	1509.32
528.034	1530.83
528.24	1566.09
528.446	1546.72
528.651	1661.41
528.857	1618.98
529.062	1677.3
529.268	1624.41
529.473	1645.14
529.679	1654.05
529.884	1709.46
530.09	1708.11
530.295	1733.29
530.501	1697.65
530.706	1720.51
530.912	1657.54
531.117	1721.67
531.323	1713.53
531.528	1754.61
531.733	1774.95
531.939	1717.41
532.144	1743.76
532.35	1714.89
532.555	1767.78
532.76	1729.03
532.966	1738.72
533.171	1723.41
533.376	1656.18
533.581	1612.2
533.787	1693.38
533.992	1756.93
534.197	1738.53
534.402	1744.53
534.607	1748.79
534.813	1832.88
535.018	1760.42
535.223	1745.5
535.428	1802.66
535.633	1814.09
535.838	1821.84
536.043	1840.63
536.249	1891.78
536.454	1819.9
536.659	1847.8
536.864	1817.58
537.069	1806.73
537.274	1840.44
537.479	1809.63
537.684	1784.44
537.889	1797.43
538.094	1890.62
538.299	1824.74
538.504	1817.96
538.708	1846.25
538.913	1852.84
539.118	1806.73
539.323	1860.78
539.528	1828.04
539.733	1816.22
539.938	1878.8
540.142	1818.16
540.347	1812.15
540.552	1807.5
540.757	1815.44
540.962	1786.58
541.166	1763.91
541.371	1774.37
541.576	1819.51
541.781	1746.66
541.985	1850.71
542.19	1829.78
542.395	1926.46
542.599	1969.47
542.804	1881.12
543.008	1934.21
543.213	1875.12
543.418	1831.33
543.622	1890.04
543.827	1830.94
544.031	1910.19
544.236	1909.6
544.44	1898.76
544.645	1975.09
544.849	1920.45
545.054	1918.32
545.258	1957.07
545.463	1972.96
545.667	1875.51
545.872	1933.82
546.076	1914.45
546.281	1925.1
546.485	1913.29
546.689	1964.63
546.894	1946.61
547.098	1934.4
547.302	1892.56
547.507	1913.67
547.711	1918.52
547.915	2003.38
548.119	1878.02
548.324	1881.9
548.528	2003.38
548.732	1930.14
548.936	2004.35
549.141	1993.3
549.345	1947.39
549.549	1998.34
549.753	2002.99
549.957	2039.8
550.161	2042.52
550.366	1977.61
550.57	1932.27
550.774	1958.24
550.978	1961.34
551.182	1985.55
551.386	1959.59
551.59	1952.62
551.794	1943.12
551.998	2008.61
552.202	1952.42
552.406	1938.09
552.61	2000.86
552.814	2000.67
553.018	2043.48
553.222	1970.44
553.426	1961.72
553.63	2060.92
553.833	1944.09
554.037	1949.13
554.241	1995.05
554.445	1997.57
554.649	1963.66
554.853	1946.42
555.056	1994.08
555.26	2046
555.464	1988.85
555.668	2013.45
555.871	1993.3
556.075	2055.69
556.279	1918.52
556.483	1927.04
556.686	1925.88
556.89	1993.89
557.094	1981.1
557.297	1929.37
557.501	2000.86
557.704	1875.89
557.908	1958.82
558.112	1939.25
558.315	2000.86
558.519	1917.74
558.722	1937.7
558.926	1901.66
559.129	1832.49
559.333	1808.86
559.536	1866.79
559.74	1839.08
559.943	1851.09
560.147	1848.96
560.35	1875.7
560.553	1881.32
560.757	1790.45
560.96	1909.8
561.164	1857.87
561.367	1977.42
561.57	1876.28
561.774	1897.79
561.977	1840.44
562.18	1834.82
562.384	1937.7
562.587	1874.15
562.79	1833.66
562.993	1847.02
563.197	1874.92
563.4	1933.82
563.603	1903.6
563.806	1970.83
564.009	1840.44
564.212	1868.72
564.416	1796.65
564.619	1843.54
564.822	1758.48
565.025	1859.04
565.228	1796.26
565.431	1832.69
565.634	1737.17
565.837	1788.71
566.04	1763.13
566.243	1760.23
566.446	1673.62
566.649	1767.59
566.852	1705.59
567.055	1756.74
567.258	1785.41
567.461	1825.71
567.664	1821.84
567.867	1707.72
568.07	1780.38
568.273	1765.46
568.475	1809.05
568.678	1742.79
568.881	1730.58
569.084	1707.14
569.287	1624.8
569.489	1647.46
569.692	1720.7
569.895	1659.67
570.098	1634.48
570.3	1651.53
570.503	1603.87
570.706	1626.35
570.909	1608.33
571.111	1558.15
571.314	1536.25
571.516	1585.66
571.719	1599.03
571.922	1606.39
572.124	1600.58
572.327	1636.03
572.529	1547.49
572.732	1522.5
572.935	1626.35
573.137	1676.14
573.34	1633.9
573.542	1619.57
573.745	1582.17
573.947	1587.21
574.15	1562.6
574.352	1540.13
574.554	1641.85
574.757	1563.18
574.959	1529.67
575.162	1542.45
575.364	1520.56
575.566	1627.7
575.769	1503.51
575.971	1551.56
576.173	1446.16
576.376	1508.35
576.578	1561.63
576.78	1606.2
576.982	1434.34
577.185	1501.96
577.387	1472.32
577.589	1493.63
577.791	1492.66
577.993	1550.01
578.196	1500.8
578.398	1501.96
578.6	1507.19
578.802	1440.35
579.004	1467.67
579.206	1420.59
579.408	1473.48
579.61	1448.49
579.812	1492.47
580.014	1445.97
580.216	1470.19
580.418	1485.1
580.62	1477.16
580.822	1424.85
581.024	1506.8
581.226	1518.04
581.428	1478.52
581.63	1557.95
581.832	1469.02
582.034	1527.34
582.236	1495.95
582.438	1512.04
582.64	1548.07
582.841	1544.39
583.043	1619.76
583.245	1560.67
583.447	1515.14
583.649	1500.41
583.85	1506.61
584.052	1581.4
584.254	1489.95
584.456	1555.63
584.657	1476.97
584.859	1508.35
585.061	1478.71
585.262	1443.64
585.464	1456.82
585.666	1516.3
585.867	1428.72
586.069	1513
586.27	1456.62
586.472	1478.13
586.674	1444.81
586.875	1459.53
587.077	1451.2
587.278	1466.89
587.48	1469.22
587.681	1539.16
587.883	1463.6
588.084	1409.93
588.285	1441.9
588.487	1418.84
588.688	1435.51
588.89	1365.56
589.091	1294.65
589.292	1306.66
589.494	1291.16
589.695	1278.18
589.896	1194.87
590.098	1212.7
590.299	1259
590.5	1239.82
590.702	1277.8
590.903	1333.4
591.104	1344.44
591.305	1346.58
591.507	1392.3
591.708	1368.08
591.909	1316.54
592.11	1372.73
592.311	1386.1
592.512	1339.41
592.714	1299.11
592.915	1315.19
593.116	1297.94
593.317	1285.16
593.518	1323.71
593.719	1318.29
593.92	1357.62
594.121	1425.24
594.322	1365.56
594.523	1350.45
594.724	1268.69
594.925	1322.74
595.126	1266.95
595.327	1346.77
595.528	1341.34
595.729	1331.85
595.929	1340.96
596.13	1335.92
596.331	1361.3
596.532	1338.44
596.733	1382.23
596.934	1352.58
597.135	1374.67
597.335	1386.29
597.536	1326.62
597.737	1328.94
597.938	1304.53
598.138	1367.11
598.339	1317.71
598.54	1323.91
598.74	1347.93
598.941	1345.41
599.142	1358.78
599.342	1363.63
599.543	1306.66
599.744	1300.85
599.944	1318.87
600.145	1308.6
600.345	1307.63
600.546	1391.33
600.746	1380.48
600.947	1398.5
601.147	1325.65
601.348	1367.11
601.548	1271.79
601.749	1293.49
601.949	1284.77
602.15	1271.98
602.35	1299.49
602.551	1332.63
602.751	1273.92
602.951	1282.83
603.152	1231.49
603.352	1318.68
603.552	1310.73
603.753	1359.36
603.953	1340.18
604.153	1321.78
604.354	1304.34
604.554	1304.14
604.754	1317.13
604.954	1273.15
605.155	1341.54
605.355	1298.14
605.555	1365.56
605.755	1355.49
605.955	1337.08
606.155	1335.53
606.356	1282.25
606.556	1334.56
606.756	1343.86
606.956	1293.88
607.156	1341.34
607.356	1262.3
607.556	1321.58
607.756	1275.66
607.956	1361.49
608.156	1301.43
608.356	1283.8
608.556	1318.68
608.756	1297.17
608.956	1268.11
609.156	1258.42
609.356	1255.51
609.556	1226.84
609.755	1268.5
609.955	1236.14
610.155	1290.2
610.355	1293.49
610.555	1268.69
610.755	1258.42
610.954	1211.73
611.154	1267.14
611.354	1313.44
611.554	1233.43
611.753	1237.69
611.953	1192.74
612.153	1260.55
612.352	1272.37
612.552	1181.31
612.752	1170.85
612.951	1215.21
613.151	1227.03
613.351	1194.68
613.55	1194.29
613.75	1235.75
613.949	1203.2
614.149	1228.58
614.348	1216.18
614.548	1180.34
614.747	1127.64
614.947	1160.38
615.146	1151.47
615.346	1222.77
615.545	1213.86
615.745	1222.38
615.944	1191
616.144	1186.73
616.343	1191.97
616.542	1163.87
616.742	1156.7
616.941	1164.45
617.14	1097.8
617.34	1158.25
617.539	1172.4
617.738	1117.95
617.938	1225.87
618.137	1134.23
618.336	1148.76
618.535	1183.05
618.734	1181.5
618.934	1184.02
619.133	1140.43
619.332	1207.27
619.531	1153.6
619.73	1164.45
619.929	1181.31
620.128	1183.25
620.328	1234.4
620.527	1141.4
620.726	1160.19
620.925	1161.93
621.124	1166.39
621.323	1176.27
621.522	1091.6
621.721	1122.02
621.92	1107.88
622.119	1130.55
622.318	1114.08
622.517	1130.35
622.715	1138.88
622.914	1060.99
623.113	1111.56
623.312	1063.9
623.511	1109.24
623.71	1082.69
623.909	1089.28
624.107	1167.36
624.306	1055.76
624.505	1102.45
624.704	1104.78
624.902	1078.62
625.101	1125.7
625.3	1079.79
625.499	1060.6
625.697	1081.53
625.896	1052.47
626.095	1075.33
626.293	1029.22
626.492	1040.45
626.69	1100.52
626.889	1050.72
627.088	1095.87
627.286	1054.6
627.485	1043.17
627.683	1040.07
627.882	1064.48
628.08	957.92
628.279	1018.76
628.477	1064.67
628.676	986.21
628.874	1053.44
629.073	992.02
629.271	982.14
629.469	1021.66
629.668	985.04
629.866	993.18
630.065	987.17
630.263	1048.98
630.461	987.56
630.66	1002.29
630.858	1032.51
631.056	1086.37
631.254	1080.37
631.453	1018.17
631.651	1059.05
631.849	1031.16
632.047	1030.96
632.245	989.31
632.444	1061.96
632.642	1054.99
632.84	1063.32
633.038	1014.69
633.236	991.63
633.434	1014.11
633.632	1017.21
633.83	1015.07
634.028	1062.35
634.227	1042
634.425	1104.2
634.623	1034.84
634.821	1050.14
635.019	1031.74
635.216	1028.44
635.414	1077.46
635.612	1035.42
635.81	1022.82
636.008	1075.33
636.206	1022.82
636.404	1012.75
636.602	981.75
636.8	1011.01
636.997	1087.54
637.195	1049.17
637.393	1010.42
637.591	1079.98
637.789	1044.91
637.986	1031.54
638.184	1028.83
638.382	1087.73
638.58	1047.62
638.777	1100.71
638.975	1031.35
639.173	1025.15
639.37	1045.3
639.568	1044.33
639.765	1037.74
639.963	1030.77
640.161	1061.77
640.358	1072.62
640.556	983.88
640.753	985.62
640.951	981.56
641.148	998.22
641.346	991.82
641.543	1017.4
641.741	998.61
641.938	961.02
642.136	995.7
642.333	981.17
642.531	1076.3
642.728	1027.67
642.925	986.21
643.123	993.18
643.32	988.53
643.517	980.97
643.715	1020.11
643.912	976.52
644.109	998.61
644.306	967.22
644.504	930.21
644.701	983.69
644.898	1010.04
645.095	931.18
645.293	977.87
645.49	981.75
645.687	948.42
645.884	1003.64
646.081	904.25
646.278	892.43
646.475	925.56
646.672	923.24
646.87	918.01
647.067	944.74
647.264	952.69
647.461	909.87
647.658	861.24
647.855	931.57
648.052	860.27
648.249	822.1
648.446	890.11
648.642	852.13
648.839	882.74
649.036	839.35
649.233	844.38
649.43	834.31
649.627	823.26
649.824	884.1
650.021	837.8
650.217	847.87
650.414	843.41
650.611	879.64
650.808	893.98
651.004	875.19
651.201	855.81
651.398	927.69
651.595	887.2
651.791	849.61
651.988	858.72
652.185	814.55
652.381	882.94
652.578	822.1
652.775	855.04
652.971	837.6
653.168	867.63
653.364	907.74
653.561	809.31
653.757	812.41
653.954	880.03
654.15	823.46
654.347	907.74
654.543	853.3
654.74	806.99
654.936	790.71
655.133	831.79
655.329	830.63
655.525	831.98
655.722	895.34
655.918	775.21
656.115	833.34
656.311	738.02
656.507	728.13
656.704	700.43
656.9	719.22
657.096	727.75
657.292	712.44
657.489	785.48
657.685	753.52
657.881	774.44
658.077	779.67
658.273	788.2
658.47	826.56
658.666	805.05
658.862	839.15
659.058	795.95
659.254	839.93
659.45	785.87
659.646	792.65
659.842	799.82
660.038	865.89
660.234	803.5
660.43	823.85
660.626	895.73
660.822	830.82
661.018	857.36
661.214	839.73
661.41	762.04
661.606	851.55
661.802	858.91
661.998	814.55
662.194	798.08
662.39	822.49
662.586	828.11
662.781	821.13
662.977	813
663.173	824.62
663.369	801.18
663.564	819
663.76	834.31
663.956	819.58
664.152	825.78
664.347	765.72
664.543	794.2
664.739	767.85
664.934	744.99
665.13	720
665.326	810.67
665.521	767.27
665.717	780.45
665.912	739.57
666.108	720.38
666.304	723.87
666.499	750.03
666.695	683.77
666.89	771.34
667.086	788.97
667.281	784.32
667.477	853.1
667.672	778.51
667.867	771.53
668.063	767.08
668.258	739.76
668.454	734.33
668.649	827.53
668.844	759.52
669.04	783.93
669.235	757.58
669.43	705.66
669.626	729.3
669.821	751.38
670.016	698.49
670.211	749.45
670.407	689.97
670.602	710.12
670.797	727.55
670.992	756.81
671.187	693.65
671.382	758.36
671.578	711.47
671.773	731.04
671.968	691.13
672.163	719.8
672.358	750.03
672.553	706.24
672.748	735.3
672.943	777.15
673.138	718.25
673.333	769.4
673.528	697.13
673.723	751.58
673.918	700.04
674.113	696.55
674.308	803.31
674.503	774.83
674.698	740.92
674.892	751.58
675.087	756.81
675.282	729.68
675.477	690.55
675.672	741.7
675.867	694.62
676.061	658.39
676.256	683.57
676.451	670.4
676.646	746.54
676.84	676.4
677.035	656.25
677.23	682.22
677.424	750.8
677.619	725.23
677.814	737.43
678.008	748.87
678.203	658.58
678.397	711.08
678.592	707.6
678.787	782.96
678.981	678.92
679.176	723.48
679.37	717.28
679.565	684.54
679.759	689.38
679.954	713.22
680.148	750.22
680.342	710.12
680.537	704.69
680.731	696.36
680.926	724.26
681.12	741.31
681.314	695.58
681.509	690.74
681.703	744.22
681.897	730.27
682.092	674.66
682.286	707.02
682.48	755.45
682.674	745.77
682.869	719.61
683.063	732.59
683.257	757.78
683.451	690.35
683.645	753.71
683.839	682.8
684.034	697.72
684.228	732.01
684.422	666.14
684.616	671.95
684.81	723.68
685.004	704.69
685.198	712.63
685.392	738.21
685.586	677.95
685.78	708.76
685.974	723.1
686.168	704.88
686.362	736.27
686.556	675.24
686.75	614.4
686.944	611.89
687.138	656.06
687.331	540.78
687.525	550.47
687.719	518.11
687.913	527.41
688.107	565
688.301	547.76
688.494	612.08
688.688	540.39
688.882	540.97
689.076	507.26
689.269	558.02
689.463	627.58
689.657	558.02
689.85	584.57
690.044	590.77
690.238	584.57
690.431	582.44
690.625	624.87
690.818	635.52
691.012	670.01
691.205	658.19
691.399	597.16
691.593	650.83
691.786	734.72
691.98	734.53
692.173	752.55
692.366	706.43
692.56	711.08
692.753	787.42
692.947	670.01
693.14	791.3
693.333	748.67
693.527	689.77
693.72	758.36
693.914	757.39
694.107	711.86
694.3	747.7
694.493	747.9
694.687	809.12
694.88	736.47
695.073	836.63
695.266	827.53
695.46	790.33
695.653	872.86
695.846	868.41
696.039	755.26
696.232	835.47
696.425	870.34
696.618	882.55
696.812	905.99
697.005	957.34
697.198	1001.51
697.391	951.91
697.584	964.7
697.777	1017.01
697.97	992.6
698.163	1009.84
698.356	994.54
698.549	1065.64
698.742	1028.06
698.935	1000.35
699.127	1019.72
699.32	1019.72
699.513	998.22
699.706	1049.17
699.899	1084.63
700.092	1024.96
700.285	1097.03
700.477	1009.84
700.67	1080.95
700.863	1098.97
701.056	1187.12
701.248	1173.37
701.441	1186.73
701.634	1122.22
701.826	1253.77
702.019	1120.86
702.212	1229.36
702.404	1164.45
702.597	1137.91
702.79	1179.57
702.982	1209.6
703.175	1254.93
703.367	1271.79
703.56	1275.66
703.752	1358.59
703.945	1325.07
704.137	1323.71
704.33	1374.28
704.522	1357.43
704.715	1391.72
704.907	1409.35
705.1	1420.01
705.292	1436.09
705.484	1416.32
705.677	1474.06
705.869	1510.49
706.061	1514.36
706.254	1544
706.446	1494.21
706.638	1480.65
706.831	1568.42
707.023	1525.21
707.215	1636.81
707.407	1625.38
707.599	1618.79
707.792	1672.85
707.984	1668.2
708.176	1670.13
708.368	1630.03
708.56	1696.87
708.752	1664.32
708.944	1697.65
709.136	1691.45
709.329	1664.32
709.521	1859.62
709.713	1772.24
709.905	1792.58
710.097	1819.9
710.289	1759.06
710.481	1806.53
710.672	1834.62
710.864	1871.82
711.056	1874.15
711.248	1848.96
711.44	1921.42
711.632	1929.56
711.824	1897.21
712.016	1974.12
712.207	1953
712.399	1932.08
712.591	2021.98
712.783	1995.43
712.975	2006.28
713.166	1970.05
713.358	1979.16
713.55	2088.05
713.741	2063.25
713.933	2033.6
714.125	2050.46
714.316	2062.67
714.508	2090.37
714.7	2101.22
714.891	2091.53
715.083	2162.06
715.274	2116.53
715.466	2179.88
715.657	2158.57
715.849	2036.51
716.04	2089.01
716.232	2063.63
716.423	2145.59
716.615	2035.73
716.806	2012.29
716.998	1951.84
717.189	1904.18
717.381	1827.65
717.572	1769.91
717.763	1791.23
717.955	1804.21
718.146	1749.18
718.337	1702.1
718.528	1643.78
718.72	1602.71
718.911	1678.85
719.102	1641.46
719.293	1681.95
719.485	1676.33
719.676	1657.54
719.867	1613.37
720.058	1647.66
720.249	1660.45
720.44	1664.51
720.632	1693
720.823	1741.43
721.014	1859.23
721.205	1878.02
721.396	1938.67
721.587	2049.88
721.778	2111.88
721.969	2119.63
722.16	2214.18
722.351	2180.08
722.542	2285.28
722.733	2293.03
722.924	2238.39
723.115	2256.22
723.305	2240.33
723.496	2261.06
723.687	2128.54
723.878	2155.28
724.069	2142.3
724.26	2170.97
724.45	2104.51
724.641	2064.41
724.832	2100.45
725.023	2107.42
725.213	2068.48
725.404	2070.8
725.595	2092.31
725.785	2053.17
725.976	2160.7
726.167	2119.43
726.357	2120.21
726.548	2212.04
726.739	2152.18
726.929	2225.41
727.12	2259.12
727.31	2258.93
727.501	2192.67
727.691	2194.41
727.882	2219.6
728.072	2262.22
728.263	2247.89
728.453	2323.84
728.644	2293.03
728.834	2298.07
729.024	2257.38
729.215	2221.15
729.405	2270.36
729.596	2354.84
729.786	2363.94
729.976	2402.5
730.167	2361.23
730.357	2386.03
730.547	2400.75
730.737	2400.17
730.928	2384.67
731.118	2495.11
731.308	2426.91
731.498	2442.02
731.688	2506.73
731.879	2468.57
732.069	2540.06
732.259	2606.71
732.449	2587.53
732.639	2709.2
732.829	2694.67
733.019	2736.91
733.209	2793.87
733.399	2769.46
733.589	2876.79
733.779	2860.13
733.969	2843.47
734.159	2944.02
734.349	2956.23
734.539	3013.38
734.729	3006.6
734.919	3036.83
735.109	3049.23
735.299	3038.76
735.488	3027.72
735.678	3046.32
735.868	3009.51
736.058	3036.83
736.248	2991.68
736.437	2968.05
736.627	2957.2
736.817	3089.14
737.007	3040.9
737.196	3097.66
737.386	3054.65
737.576	3066.86
737.765	3108.32
737.955	3098.63
738.144	3183.49
738.334	3158.5
738.524	3110.64
738.713	3102.7
738.903	3128.66
739.092	3160.24
739.282	3149.97
739.471	3183.11
739.661	3166.64
739.85	3219.72
740.04	3175.55
740.229	3220.5
740.419	3263.7
740.608	3248.98
740.797	3252.66
740.987	3301.87
741.176	3246.27
741.365	3207.32
741.555	3174.19
741.744	3307.49
741.933	3218.56
742.123	3290.25
742.312	3276.1
742.501	3348.76
742.69	3302.07
742.88	3238.71
743.069	3347.79
743.258	3314.85
743.447	3321.44
743.636	3363.1
743.825	3301.49
744.014	3323.38
744.204	3352.25
744.393	3323.38
744.582	3381.31
744.771	3413.86
744.96	3347.4
745.149	3387.12
745.338	3321.44
745.527	3366.78
745.716	3368.52
745.905	3323.77
746.094	3414.44
746.283	3378.98
746.471	3351.67
746.66	3420.64
746.849	3403.78
747.038	3455.32
747.227	3360.38
747.416	3455.51
747.604	3374.72
747.793	3375.11
747.982	3404.56
748.171	3446.21
748.359	3412.5
748.548	3430.91
748.737	3408.05
748.926	3353.22
749.114	3306.33
749.303	3329.97
749.491	3398.75
749.68	3333.07
749.869	3392.74
750.057	3352.05
750.246	3329.19
750.434	3332.68
750.623	3336.17
750.811	3330.35
751	3350.5
751.188	3354.57
751.377	3331.32
751.565	3309.62
751.754	3253.63
751.942	3264.48
752.131	3368.13
752.319	3283.66
752.507	3236.39
752.696	3366
752.884	3352.63
753.072	3278.43
753.261	3310.78
753.449	3297.22
753.637	3278.24
753.825	3326.48
754.014	3271.84
754.202	3270.49
754.39	3328.8
754.578	3324.54
754.766	3285.4
754.955	3232.7
755.143	3325.7
755.331	3268.16
755.519	3301.87
755.707	3286.76
755.895	3254.21
756.083	3228.25
756.271	3225.34
756.459	3236
756.647	3297.22
756.835	3243.36
757.023	3251.69
757.211	3227.09
757.399	3184.85
757.587	3176.52
757.775	3136.8
757.963	3156.56
758.151	3194.15
758.339	3104.83
758.526	3120.33
758.714	3124.98
758.902	3065.89
759.09	2936.27
759.278	2783.99
759.465	2558.27
759.653	2197.9
759.841	1982.45
760.028	1700.16
760.216	1481.62
760.404	1393.85
760.591	1126.67
760.779	960.82
760.967	864.53
761.154	678.92
761.342	759.72
761.529	738.4
761.717	815.51
761.905	795.36
762.092	855.04
762.28	768.43
762.467	827.33
762.655	751.77
762.842	769.98
763.029	768.05
763.217	836.83
763.404	811.25
763.592	824.43
763.779	764.17
763.966	831.6
764.154	849.81
764.341	943.19
764.528	913.94
764.716	993.76
764.903	1045.3
765.09	1071.65
765.277	1124.15
765.465	1295.62
765.652	1290.78
765.839	1431.82
766.026	1535.87
766.213	1583.92
766.4	1658.51
766.588	1847.22
766.775	1851.48
766.962	1963.27
767.149	2029.15
767.336	2171.16
767.523	2138.23
767.71	2245.56
767.897	2326.16
768.084	2414.9
768.271	2435.05
768.458	2531.73
768.645	2601.67
768.832	2517.2
769.019	2561.37
769.206	2620.46
769.392	2674.13
769.579	2789.41
769.766	2731.09
769.953	2738.65
770.14	2753.37
770.327	2736.91
770.513	2783.6
770.7	2857.8
770.887	2779.14
771.073	2821.38
771.26	2831.07
771.447	2752.6
771.634	2778.37
771.82	2884.54
772.007	2788.64
772.193	2831.65
772.38	2838.24
772.567	2817.5
772.753	2808.01
772.94	2891.71
773.126	2891.9
773.313	2909.73
773.499	2832.81
773.686	2872.53
773.872	2815.18
774.059	2807.43
774.245	2796.77
774.432	2782.05
774.618	2756.47
774.804	2812.47
774.991	2725.47
775.177	2830.68
775.363	2758.8
775.55	2803.17
775.736	2740.2
775.922	2790.96
776.109	2763.84
776.295	2779.14
776.481	2782.24
776.667	2792.7
776.853	2766.94
777.04	2715.01
777.226	2740.59
777.412	2819.44
777.598	2711.52
777.784	2703.39
777.97	2700.29
778.156	2750.08
778.342	2678.78
778.528	2730.71
778.715	2660.96
778.901	2681.49
779.087	2708.81
779.272	2644.68
779.458	2642.36
779.644	2678.39
779.83	2625.69
780.016	2756.47
780.202	2683.04
780.388	2681.88
780.574	2595.47
780.76	2581.52
780.946	2662.12
781.131	2647.78
781.317	2608.26
781.503	2605.55
781.689	2587.53
781.874	2714.62
782.06	2596.63
782.246	2625.31
782.432	2610.19
782.617	2605.16
782.803	2671.23
782.989	2503.83
783.174	2576.48
783.36	2549.55
783.545	2545.29
783.731	2566.41
783.916	2479.42
784.102	2545.87
784.288	2520.88
784.473	2544.51
784.659	2543.93
784.844	2534.05
785.029	2500.73
785.215	2489.88
785.4	2459.27
785.586	2542.58
785.771	2437.76
785.956	2521.85
786.142	2471.28
786.327	2443.96
786.512	2470.7
786.698	2427.88
786.883	2385.45
787.068	2409.47
787.254	2416.25
787.439	2406.18
787.624	2407.34
787.809	2369.37
787.994	2355.03
788.18	2488.52
788.365	2316.09
788.55	2376.73
788.735	2354.64
788.92	2380.6
789.105	2292.26
789.29	2397.46
789.475	2304.27
789.66	2310.08
789.845	2270.75
790.03	2266.87
790.215	2313.96
790.4	2359.68
790.585	2374.02
790.77	2275.21
790.955	2236.46
791.14	2294.97
791.325	2346.89
791.51	2170
791.695	2272.3
791.879	2225.22
792.064	2213.59
792.249	2298.26
792.434	2261.84
792.618	2286.44
792.803	2285.47
792.988	2273.07
793.173	2233.36
793.357	2293.22
793.542	2197.32
793.727	2272.88
793.911	2301.94
794.096	2284.31
794.281	2261.26
794.465	2371.5
794.65	2279.66
794.834	2328.29
795.019	2352.7
795.203	2338.37
795.388	2346.89
795.572	2340.89
795.757	2321.9
795.941	2347.28
796.126	2308.72
796.31	2219.79
796.494	2288.57
796.679	2250.02
796.863	2239.94
797.048	2301.17
797.232	2320.16
797.416	2287.99
797.601	2337.01
797.785	2316.28
797.969	2343.21
798.153	2275.4
798.338	2327.13
798.522	2337.79
798.706	2348.05
798.89	2339.14
799.074	2430.79
799.258	2385.45
799.443	2315.12
799.627	2310.27
799.811	2349.41
799.995	2319.38
800.179	2273.66
800.363	2302.91
800.547	2361.42
800.731	2330.81
800.915	2278.69
801.099	2283.92
801.283	2329.07
801.467	2341.47
801.651	2257.96
801.835	2310.08
802.019	2296.32
802.202	2334.49
802.386	2244.59
802.57	2235.68
802.754	2318.41
802.938	2284.51
803.121	2277.53
803.305	2328.1
803.489	2283.73
803.673	2269.78
803.856	2292.26
804.04	2275.21
804.224	2327.32
804.407	2275.98
804.591	2288.57
804.775	2310.27
804.958	2311.82
805.142	2394.55
805.326	2331.97
805.509	2274.82
805.693	2372.85
805.876	2343.41
806.06	2284.7
806.243	2327.32
806.427	2361.23
806.61	2353.29
806.794	2356.39
806.977	2358.9
807.16	2355.42
807.344	2337.21
807.527	2374.79
807.71	2342.63
807.894	2323.84
808.077	2391.07
808.26	2311.44
808.444	2284.12
808.627	2340.11
808.81	2281.41
808.993	2269.59
809.177	2245.56
809.36	2277.14
809.543	2249.44
809.726	2159.35
809.909	2200.23
810.092	2173.1
810.276	2180.46
810.459	2180.66
810.642	2192.67
810.825	2111.68
811.008	2182.59
811.191	2039.42
811.374	2103.35
811.557	2108.58
811.74	2146.56
811.923	2027.02
812.106	2046.2
812.289	2008.42
812.472	2006.87
812.654	2018.49
812.837	1972.38
813.02	1922.78
813.203	1921.04
813.386	1794.33
813.569	1797.43
813.751	1774.37
813.934	1823.97
814.117	1783.86
814.3	1746.08
814.482	1687.18
814.665	1650.76
814.848	1660.83
815.03	1606.78
815.213	1601.93
815.396	1563.18
815.578	1525.4
815.761	1543.04
815.943	1600.97
816.126	1451.78
816.309	1465.92
816.491	1443.64
816.674	1384.16
816.856	1443.64
817.039	1421.56
817.221	1512.81
817.403	1440.74
817.586	1440.35
817.768	1467.09
817.951	1358.2
818.133	1366.14
818.315	1372.73
818.498	1463.41
818.68	1506.61
818.862	1473.87
819.045	1491.89
819.227	1448.68
819.409	1441.71
819.591	1491.69
819.774	1450.23
819.956	1407.02
820.138	1529.67
820.32	1482.39
820.502	1561.44
820.684	1595.73
820.866	1603.48
821.048	1631.97
821.231	1660.25
821.413	1645.72
821.595	1595.73
821.777	1627.7
821.959	1607.17
822.141	1711.98
822.323	1575.97
822.505	1509.71
822.686	1431.82
822.868	1414.58
823.05	1282.64
823.232	1296.98
823.414	1203.01
823.596	1314.03
823.778	1274.31
823.96	1298.14
824.141	1328.17
824.323	1334.76
824.505	1400.44
824.687	1436.47
824.868	1506.22
825.05	1572.29
825.232	1589.53
825.413	1664.51
825.595	1584.5
825.777	1544
825.958	1575.58
826.14	1575
826.321	1594.18
826.503	1564.35
826.685	1609.49
826.866	1648.05
827.048	1635.84
827.229	1561.83
827.411	1526.18
827.592	1508.35
827.773	1467.86
827.955	1445
828.136	1456.24
828.318	1425.43
828.499	1462.24
828.68	1397.72
828.862	1439.57
829.043	1439.96
829.224	1445.19
829.406	1396.17
829.587	1395.4
829.768	1417.49
829.949	1459.34
830.131	1411.29
830.312	1474.84
830.493	1406.44
830.674	1468.83
830.855	1443.64
831.036	1436.47
831.218	1493.63
831.399	1540.32
831.58	1451.01
831.761	1447.71
831.942	1448.87
832.123	1445.77
832.304	1382.23
832.485	1401.99
832.666	1417.29
832.847	1426.4
833.028	1414.39
833.209	1422.14
833.389	1404.89
833.57	1388.23
833.751	1398.11
833.932	1461.08
834.113	1448.29
834.294	1367.69
834.475	1448.87
834.655	1517.46
834.836	1521.72
835.017	1470.19
835.198	1422.72
835.378	1450.04
835.559	1501.96
835.74	1420.2
835.92	1445.19
836.101	1419.81
836.281	1488.59
836.462	1464.18
836.643	1500.02
836.823	1495.18
837.004	1509.9
837.184	1549.62
837.365	1492.66
837.545	1556.21
837.726	1510.29
837.906	1554.85
838.087	1488.59
838.267	1519.01
838.448	1440.74
838.628	1484.14
838.808	1495.37
838.989	1551.75
839.169	1462.05
839.349	1504.87
839.53	1546.72
839.71	1553.11
839.89	1494.6
840.07	1550.59
840.251	1476.77
840.431	1569.58
840.611	1517.65
840.791	1456.43
840.971	1515.33
841.151	1492.08
841.332	1471.35
841.512	1529.47
841.692	1413.22
841.872	1499.64
842.052	1470.57
842.232	1499.64
842.412	1408.19
842.592	1442.67
842.772	1519.2
842.952	1502.35
843.132	1477.74
843.312	1424.07
843.492	1454.88
843.672	1514.55
843.851	1386.49
844.031	1448.29
844.211	1438.61
844.391	1411.67
844.571	1464.57
844.751	1454.69
844.93	1443.64
845.11	1422.72
845.29	1442.29
845.47	1486.85
845.649	1450.81
845.829	1484.72
846.009	1400.63
846.188	1438.22
846.368	1449.07
846.547	1418.84
846.727	1488.79
846.907	1377.77
847.086	1403.15
847.266	1439.96
847.445	1427.17
847.625	1387.84
847.804	1393.27
847.984	1416.13
848.163	1420.39
848.343	1378.16
848.522	1425.82
848.701	1419.04
848.881	1361.69
849.06	1401.41
849.239	1422.72
849.419	1397.34
849.598	1342.31
849.777	1325.26
849.957	1303.56
850.136	1279.93
850.315	1249.9
850.494	1265.01
850.674	1294.26
850.853	1333.98
851.032	1330.69
851.211	1361.11
851.39	1310.15
851.569	1248.54
851.748	1245.05
851.927	1342.7
852.107	1306.47
852.286	1281.67
852.465	1254.55
852.644	1342.7
852.823	1300.46
853.002	1289.42
853.181	1308.99
853.359	1322.74
853.538	1213.66
853.717	1296.59
853.896	1219.67
854.075	1139.46
854.254	1167.55
854.433	1096.64
854.611	1146.43
854.79	1087.92
854.969	1138.49
855.148	1160.58
855.327	1153.6
855.505	1172.4
855.684	1174.14
855.863	1173.56
856.041	1143.92
856.22	1193.9
856.399	1179.95
856.577	1264.43
856.756	1245.44
856.934	1335.14
857.113	1304.53
857.291	1227.61
857.47	1234.98
857.648	1232.85
857.827	1303.37
858.005	1264.43
858.184	1198.75
858.362	1315.58
858.541	1233.62
858.719	1242.34
858.898	1244.08
859.076	1226.06
859.254	1298.91
859.433	1205.53
859.611	1203.01
859.789	1144.69
859.967	1266.75
860.146	1292.52
860.324	1172.98
860.502	1179.37
860.68	1158.83
860.859	1160.19
861.037	1175.69
861.215	1225.48
861.393	1193.13
861.571	1159.61
861.749	1172.2
861.927	1225.48
862.105	1194.48
862.283	1160.58
862.461	1126.87
862.639	1143.14
862.817	1135
862.995	1163.29
863.173	1182.08
863.351	1158.64
863.529	1191.19
863.707	1204.95
863.885	1188.67
864.063	1106.14
864.241	1128.61
864.418	1242.34
864.596	1168.91
864.774	1079.01
864.952	1122.22
865.129	1176.27
865.307	1118.92
865.485	1062.15
865.663	1134.23
865.84	1069.9
866.018	1083.66
866.196	957.72
866.373	1007.13
866.551	971.48
866.728	912
866.906	934.48
867.084	998.22
867.261	1028.25
867.439	1037.16
867.616	1043.75
867.794	1038.52
867.971	1040.45
868.149	1006.16
868.326	1109.04
868.503	1097.22
868.681	1060.41
868.858	1033.29
869.035	1016.24
869.213	1098.77
869.39	1030.96
869.567	1142.37
869.745	1070.29
869.922	1062.15
870.099	1069.13
870.276	1072.42
870.454	1085.79
870.631	1079.01
870.808	1085.4
870.985	1034.84
871.162	1132.48
871.339	1058.09
871.517	1011.01
871.694	1016.43
871.871	1018.76
872.048	1024.37
872.225	1039.49
872.402	1062.15
872.579	979.81
872.756	1040.84
872.933	1011.97
873.11	1018.56
873.287	1021.27
873.463	1005.19
873.64	991.24
873.817	1038.52
873.994	1036.39
874.171	988.92
874.348	1027.09
874.524	940.48
874.701	969.93
874.878	932.73
875.055	1002.67
875.231	995.51
875.408	983.88
875.585	926.14
875.762	953.27
875.938	957.53
876.115	945.91
876.291	969.74
876.468	942.61
876.645	929.24
876.821	942.03
876.998	947.26
877.174	966.44
877.351	942.42
877.527	935.06
877.704	950.56
877.88	947.46
878.057	896.89
878.233	976.91
878.409	921.49
878.586	960.82
878.762	924.59
878.938	907.54
879.115	851.16
879.291	920.14
879.467	878.48
879.644	901.54
879.82	942.23
879.996	895.34
880.172	877.32
880.349	893.59
880.525	898.83
880.701	847.87
880.877	874.41
881.053	888.75
881.229	888.36
881.405	909.87
881.581	869.38
881.757	883.33
881.933	870.73
882.109	918.59
882.285	882.16
882.461	834.5
882.637	885.26
882.813	829.46
882.989	894.18
883.165	922.66
883.341	870.93
883.517	939.51
883.693	905.8
883.869	929.24
884.044	877.32
884.22	886.23
884.396	928.66
884.572	901.15
884.747	932.34
884.923	896.5
885.099	885.84
885.275	949.01
885.45	874.8
885.626	858.53
885.801	875.19
885.977	858.53
886.153	811.25
886.328	859.11
886.504	855.04
886.679	883.33
886.855	864.34
887.03	892.43
887.206	912
887.381	906.19
887.557	913.74
887.732	874.99
887.908	939.32
888.083	911.42
888.258	871.89
888.434	861.43
888.609	887.98
888.784	929.05
888.96	857.95
889.135	859.3
889.31	863.95
889.485	869.18
889.661	856.4
889.836	882.55
890.011	912
890.186	886.23
890.361	877.51
890.537	860.85
890.712	906.38
890.887	890.11
891.062	877.9
891.237	937.19
891.412	857.36
891.587	877.71
891.762	875.38
891.937	927.11
892.112	858.14
892.287	859.69
892.462	834.7
892.637	791.68
892.812	777.93
892.987	806.99
893.161	800.79
893.336	834.11
893.511	792.07
893.686	810.48
893.861	830.82
894.035	809.7
894.21	809.7
894.385	756.23
894.56	789.55
894.734	715.35
894.909	736.85
895.084	722.71
895.258	710.7
895.433	761.46
895.608	716.51
895.782	636.49
895.957	704.5
896.131	674.66
896.306	618.09
896.48	632.42
896.655	645.79
896.829	568.1
897.004	587.47
897.178	598.52
897.353	569.26
897.527	620.22
897.701	590.19
897.876	569.26
898.05	643.47
898.224	608.79
898.399	640.37
898.573	592.9
898.747	479.94
898.921	556.47
899.096	467.93
899.27	462.31
899.444	523.73
899.618	524.7
899.792	552.79
899.967	509.78
900.141	569.26
900.315	476.46
900.489	519.27
900.663	551.63
900.837	503.97
901.011	472.19
901.185	588.44
901.359	488.66
901.533	521.6
901.707	523.34
901.881	513.66
902.055	469.87
902.229	518.89
902.403	554.15
902.576	535.55
902.75	498.74
902.924	644.82
903.098	577.01
903.272	589.8
903.446	630.49
903.619	634.36
903.793	638.04
903.967	590.77
904.14	651.6
904.314	639.01
904.488	647.54
904.661	689.19
904.835	607.62
905.009	686.87
905.182	718.83
905.356	674.66
905.529	637.27
905.703	625.45
905.876	621.96
906.05	570.04
906.223	573.52
906.397	520.44
906.57	535.36
906.744	507.84
906.917	515.98
907.09	544.66
907.264	522.57
907.437	464.83
907.61	472.39
907.784	497.96
907.957	482.46
908.13	480.14
908.304	498.74
908.477	444.29
908.65	480.33
908.823	432.48
908.996	504.55
909.17	464.83
909.343	466.38
909.516	472.19
909.689	485.76
909.862	423.95
910.035	467.16
910.208	424.53
910.381	410.39
910.554	513.85
910.727	440.23
910.9	455.53
911.073	439.26
911.246	492.34
911.419	509.97
911.592	482.08
911.765	449.14
911.938	401.67
912.11	468.71
912.283	456.89
912.456	494.86
912.629	476.07
912.802	415.04
912.974	404.38
913.147	360.01
913.32	354.98
913.493	340.45
913.665	404.96
913.838	395.86
914.01	362.92
914.183	396.25
914.356	376.29
914.528	448.36
914.701	495.64
914.873	410.78
915.046	378.61
915.218	360.01
915.391	303.83
915.563	347.61
915.736	378.61
915.908	411.55
916.081	397.41
916.253	368.15
916.425	409.81
916.598	421.82
916.77	391.01
916.942	365.05
917.115	293.17
917.287	379.2
917.459	368.73
917.632	325.14
917.804	278.83
917.976	349.94
918.148	352.65
918.32	368.15
918.493	409.23
918.665	416.01
918.837	391.6
919.009	461.34
919.181	436.54
919.353	385.4
919.525	391.21
919.697	397.8
919.869	409.23
920.041	477.62
920.213	510.36
920.385	422.98
920.557	417.17
920.729	434.41
920.901	423.76
921.073	425.11
921.244	400.31
921.416	447.59
921.588	395.47
921.76	403.8
921.932	483.43
922.103	410.39
922.275	420.66
922.447	424.73
922.619	345.29
922.79	410
922.962	360.98
923.134	411.75
923.305	364.47
923.477	344.71
923.648	343.74
923.82	350.91
923.991	325.92
924.163	327.85
924.335	349.36
924.506	319.91
924.677	381.52
924.849	326.3
925.02	362.92
925.192	350.33
925.363	342.96
925.535	337.73
925.706	356.91
925.877	404.19
926.049	338.7
926.22	349.94
926.391	345.87
926.562	383.26
926.734	325.53
926.905	374.74
927.076	290.65
927.247	318.75
927.419	270.89
927.59	312.16
927.761	318.55
927.932	281.55
928.103	319.13
928.274	241.83
928.445	217.8
928.616	245.7
928.787	268.76
928.958	272.05
929.129	282.32
929.3	242.8
929.471	204.44
929.642	169.56
929.813	150.38
929.984	204.82
930.155	154.26
930.326	213.74
930.496	152.9
930.667	89.16
930.838	166.07
931.009	125.19
931.18	123.84
931.35	133.72
931.521	141.47
931.692	104.66
931.863	52.93
932.033	134.3
932.204	98.84
932.374	119.77
932.545	77.92
932.716	125.77
932.886	139.53
933.057	35.88
933.227	64.74
933.398	125.39
933.568	33.74
933.739	2.94
933.909	19.41
934.08	89.93
934.25	-7.52
934.421	12.63
934.591	60.29
934.761	38.01
934.932	-24.77
935.102	42.66
935.272	20.38
935.443	38.01
935.613	37.62
935.783	25.99
935.953	35.49
936.123	172.47
936.294	24.06
936.464	16.31
936.634	57.58
936.804	-8.88
936.974	-25.54
937.144	63.19
937.314	6.62
937.484	16.69
937.655	10.88
937.825	50.6
937.995	-1.71
938.165	68.62
938.334	14.37
938.504	32.97
938.674	20.96
938.844	45.37
939.014	132.17
939.184	72.69
939.354	128.1
939.524	109.69
939.694	73.66
939.863	64.16
940.033	118.02
940.203	125.19
940.373	95.36
940.542	106.01
940.712	49.44
940.882	77.92
941.051	104.46
941.221	114.15
941.391	135.07
941.56	49.63
941.73	61.26
941.899	161.04
942.069	63.19
942.238	79.86
942.408	63.78
942.577	85.86
942.747	57.96
942.916	17.86
943.086	50.02
943.255	101.75
943.425	67.84
943.594	62.61
943.763	18.63
943.933	45.95
944.102	-5.39
944.271	56.03
944.441	55.44
944.61	32
944.779	69.98
944.948	120.74
945.117	24.44
945.287	35.29
945.456	9.72
945.625	35.88
945.794	46.73
945.963	36.26
946.132	92.84
946.301	35.29
946.47	41.11
946.639	-5.01
946.808	48.08
946.977	85.09
947.146	94
947.315	29.87
947.484	61.64
947.653	34.52
947.822	38.01
947.991	24.44
948.16	108.92
948.329	124.42
948.498	56.41
948.666	47.69
948.835	103.49
949.004	2.74
949.173	18.63
949.341	51.96
949.51	46.53
949.679	91.48
949.847	57.19
950.016	141.86
950.185	108.92
950.353	43.04
950.522	36.65
950.69	75.21
950.859	25.99
951.028	95.16
951.196	48.86
951.365	29.87
951.533	61.45
951.701	103.3
951.87	78.5
952.038	23.86
952.207	43.82
952.375	123.06
952.543	38.2
952.712	52.34
952.88	16.89
953.048	88.96
953.217	81.99
953.385	61.06
953.553	99.23
953.721	30.84
953.89	67.65
954.058	3.13
954.226	23.67
954.394	73.46
954.562	-10.24
954.73	42.46
954.898	61.45
955.067	86.64
955.235	35.1
955.403	76.37
955.571	100.78
955.739	73.46
955.907	-2.68
956.075	67.26
956.243	35.1
956.41	83.92
956.578	8.75
956.746	6.43
956.914	61.26
957.082	76.95
957.25	97.68
957.418	40.14
957.585	49.05
957.753	95.94
957.921	45.37
958.089	33.94
958.256	73.66
958.424	85.28
958.592	85.09
958.759	14.18
958.927	69.2
959.095	38.39
959.262	68.62
959.43	71.53
959.597	21.54
959.765	42.66
959.932	23.86
960.1	93.03
960.267	51.76
960.435	56.8
960.602	79.08
960.77	46.73
960.937	20.57
961.104	44.59
961.272	-7.91
961.439	20.96
961.606	59.32
961.774	51.38
961.941	67.84
962.108	94.77
962.275	73.46
962.443	81.02
962.61	70.94
962.777	122.48
962.944	94.97
963.111	78.89
963.278	73.27
963.446	65.71
963.613	75.79
963.78	82.18
963.947	101.94
964.114	61.06
964.281	142.05
964.448	86.25
964.615	72.88
964.782	92.06
964.949	104.07
965.116	81.99
965.282	113.37
965.449	26.19
965.616	44.4
965.783	81.79
965.95	71.14
966.117	47.5
966.283	74.43
966.45	68.62
966.617	52.15
966.784	95.74
966.95	98.26
967.117	103.11
967.284	46.34
967.45	58.74
967.617	135.66
967.784	99.81
967.95	125.19
968.117	94.58
968.283	134.49
968.45	183.51
968.616	85.47
968.783	124.42
968.949	81.6
969.116	94.39
969.282	93.22
969.449	87.99
969.615	76.95
969.781	37.43
969.948	65.33
970.114	56.22
970.28	152.12
970.447	66.88
970.613	150.38
970.779	78.31
970.945	119.77
971.112	111.05
971.278	77.72
971.444	72.69
971.61	98.07
971.776	64.16
971.942	108.14
972.108	93.81
972.275	93.81
972.441	122.29
972.607	165.3
972.773	64.94
972.939	106.21
973.105	58.54
973.271	43.24
973.437	57.96
973.602	78.31
973.768	97.29
973.934	94
974.1	96.71
974.266	19.21
974.432	67.07
974.598	63.58
974.763	104.27
974.929	86.83
975.095	136.43
975.261	57.77
975.426	32
975.592	85.67
975.758	123.84
975.923	21.34
976.089	54.28
976.255	110.08
976.42	89.54
976.586	98.46
976.751	79.86
976.917	154.45
977.082	106.59
977.248	37.04
977.413	9.33
977.579	68.43
977.744	107.37
977.91	63.19
978.075	75.98
978.24	75.59
978.406	46.53
978.571	74.62
978.736	38.2
978.902	127.71
979.067	53.12
979.232	17.28
979.397	91.09
979.563	119.77
979.728	63
979.893	84.89
980.058	51.76
980.223	95.16
980.388	109.89
980.554	36.84
980.719	47.89
980.884	70.56
981.049	126.36
981.214	53.51
981.379	94.58
981.544	56.8
981.709	54.67
981.874	55.64
982.039	66.49
982.204	98.84
982.368	60.87
982.533	62.81
982.698	120.16
982.863	123.45
983.028	62.81
983.193	59.51
983.357	103.3
983.522	60.68
983.687	60.09
983.852	58.35
984.016	49.63
984.181	72.11
984.346	76.56
984.51	84.51
984.675	87.02
984.839	87.99
985.004	86.25
985.168	101.56
985.333	70.75
985.498	45.37
985.662	106.01
985.827	70.75
985.991	71.33
986.155	53.89
986.32	111.82
986.484	139.14
986.649	79.27
986.813	25.22
986.977	64.55
987.142	94.58
987.306	43.04
987.47	41.3
987.634	75.59
987.799	63.39
987.963	64.94
988.127	70.36
988.291	141.86
988.455	62.81
988.62	51.96
988.784	96.91
988.948	106.59
989.112	44.21
989.276	75.98
989.44	70.75
989.604	61.84
989.768	50.02
989.932	146.31
990.096	23.48
990.26	48.08
990.424	19.02
990.588	30.64
990.752	132.17
990.915	82.76
991.079	59.51
991.243	71.14
991.407	92.26
991.571	60.68
991.734	81.79
991.898	68.23
992.062	180.6
992.226	78.31
992.389	45.18
992.553	34.71
992.717	39.75
992.88	48.28
993.044	61.26
993.207	52.73
993.371	56.03
993.535	79.27
993.698	65.33
993.862	93.22
994.025	90.32
994.189	62.81
994.352	57.19
994.515	74.04
994.679	73.66
994.842	57.38
995.006	81.41
995.169	50.6
995.332	57.77
995.496	81.6
995.659	29.09
995.822	60.29
995.985	65.13
996.149	107.76
996.312	48.47
996.475	119.96
996.638	39.17
996.801	103.88
996.964	88.96
997.128	39.17
997.291	35.68
997.454	53.31
997.617	9.33
997.78	71.33
997.943	11.46
998.106	73.46
998.269	25.41
998.432	47.31
998.595	38.59
998.758	12.43
998.92	13.01
999.083	7.39
999.246	46.53
999.409	17.08
999.572	-1.91
999.735	37.43
999.897	57.38
1000.06	38.78
1000.223	33.94
1000.386	86.64
1000.548	59.51
1000.711	54.09
1000.874	52.93
1001.036	1.78
1001.199	97.49
1001.361	21.93
1001.524	64.55
1001.687	79.47
1001.849	32.97
1002.012	63.58
1002.174	76.56
1002.337	51.96
1002.499	33.36
1002.661	92.64
1002.824	-9.46
1002.986	20.57
1003.149	50.99
1003.311	2.74
1003.473	92.06
1003.636	38.59
1003.798	51.38
1003.96	58.54
1004.123	38.78
1004.285	21.93
1004.447	51.76
1004.609	18.83
1004.771	98.65
1004.933	24.64
1005.096	35.88
1005.258	2.36
1005.42	17.86
1005.582	64.36
1005.744	31.42
1005.906	-7.14
1006.068	20.76
1006.23	8.94
1006.392	-13.92
1006.554	18.83
1006.716	67.07
1006.878	63.97
1007.04	-30.58
1007.202	10.3
1007.363	48.86
1007.525	45.76
1007.687	33.36
1007.849	64.55
1008.011	-2.29
1008.172	2.36
1008.334	25.41
1008.496	31.61
1008.658	0.61
1008.819	5.84
1008.981	-22.05
1009.143	0.81
1009.304	40.91
1009.466	60.87
1009.627	89.54
1009.789	108.34
1009.95	60.48
1010.112	-19.54
1010.273	39.36
1010.435	13.4
1010.596	18.24
1010.758	20.57
1010.919	25.8
1011.081	-15.27
1011.242	2.36
1011.403	48.08
1011.565	33.16
1011.726	44.79
1011.887	-19.15
1012.049	22.12
1012.21	66.68
1012.371	72.11
1012.532	-31.74
1012.693	3.91
1012.855	5.07
1013.016	52.93
1013.177	81.6
1013.338	14.56
1013.499	90.9
1013.66	34.52
1013.821	55.25
1013.982	39.56
1014.143	-2.68
1014.304	-15.85
1014.465	30.06
1014.626	36.46
1014.787	31.23
1014.948	105.43
1015.109	-26.51
1015.27	78.69
1015.431	2.74
1015.592	12.43
1015.752	62.03
1015.913	53.12
1016.074	37.43
1016.235	35.88
1016.395	38.59
1016.556	34.91
1016.717	25.99
1016.877	64.36
1017.038	12.63
1017.199	15.14
1017.359	18.05
1017.52	55.83
1017.681	-2.49
1017.841	21.73
1018.002	19.41
1018.162	2.94
1018.323	75.98
1018.483	26.38
1018.644	-3.84
1018.804	-12.76
1018.964	2.94
1019.125	6.62
1019.285	31.61
1019.446	-4.81
1019.606	-25.15
1019.766	-29.42
1019.926	39.56
1020.087	19.02
1020.247	-21.28
1020.407	55.44
1020.567	43.04
1020.728	27.74
1020.888	-24.77
1021.048	5.84
1021.208	-30.58
1021.368	-25.54
1021.528	57.19
1021.688	32.78
1021.848	43.24
1022.008	6.43
1022.168	-8.88
1022.328	4.1
1022.488	50.79
1022.648	-4.42
1022.808	5.07
1022.968	28.13
1023.128	-11.01
1023.288	7.01
1023.448	6.62
1023.608	30.84
1023.767	31.61
1023.927	-16.82
1024.087	-19.15
1024.247	-41.43
1024.406	6.04
1024.566	-25.74
1024.726	-19.34
1024.885	-16.44
1025.045	61.26
1025.205	19.02
1025.364	-28.25
1025.524	11.85
1025.683	1.97
1025.843	30.84
1026.003	8.17
1026.162	62.42
1026.321	46.53
1026.481	23.28
1026.64	11.08
1026.8	6.04
1026.959	11.66
1027.119	15.73
1027.278	-15.08
1027.437	-7.72
1027.597	7.59
1027.756	31.42
1027.915	26.58
1028.074	54.86
1028.234	2.94
1028.393	7.2
1028.552	2.74
1028.711	-79.6
1028.87	52.73
1029.03	-26.7
1029.189	0.23
1029.348	-37.17
1029.507	-3.07
1029.666	-13.34
1029.825	-37.17
1029.984	-15.27
1030.143	17.08
1030.302	-0.74
1030.461	-30
1030.62	6.81
1030.779	38.39
1030.938	6.04
1031.097	-22.64
1031.255	33.94
1031.414	50.02
1031.573	40.91
1031.732	-45.69
1031.891	5.65
1032.049	60.87
1032.208	41.69
1032.367	6.23
1032.525	19.21
1032.684	1.39
1032.843	3.71
1033.001	-69.14
1033.16	132.36
1033.319	66.88
1033.477	46.92
1033.636	-22.05
1033.794	-52.86
1033.953	25.8
1034.111	51.57
1034.27	-24.57
1034.428	18.05
1034.587	-16.44
1034.745	19.79
1034.903	3.91
1035.062	21.15
1035.22	-11.98
1035.378	10.49
1035.537	-46.08
1035.695	17.08
1035.853	-3.46
1036.011	25.22
1036.17	36.65
1036.328	-70.1
1036.486	37.81
1036.644	29.29
1036.802	-68.36
1036.96	-10.82
1037.119	-8.11
1037.277	-11.79
1037.435	-51.12
1037.593	-6.36
1037.751	6.43
1037.909	34.71
1038.067	34.71
