Data from pine_FLMT105791__128__17-22-27-075.txt Node

Date: Mon Mar 20 17:22:27 GMT 2023
User: antho
Spectrometer: FLMT10579
Trigger mode: 0
Integration Time (sec): 1.000000E-1
Scans to average: 10
Electric dark correction enabled: true
Nonlinearity correction enabled: false
Boxcar width: 0
XAxis mode: Wavelengths
Number of Pixels in Spectrum: 3648
>>>>>Begin Spectral Data<<<<<
345.248	-173.08
345.464	-173.08
345.681	-173.08
345.898	-180.83
346.114	-156.42
346.331	-40.75
346.548	41.78
346.764	-8.78
346.981	-9.17
347.197	-16.73
347.414	14.08
347.631	-37.46
347.847	63.48
348.064	7.69
348.28	36.55
348.497	-42.5
348.713	-8.2
348.93	21.05
349.146	29.77
349.363	-11.88
349.579	31.32
349.796	-24.28
350.012	-16.73
350.229	28.8
350.445	8.46
350.661	-24.48
350.878	3.23
351.094	4.78
351.311	14.08
351.527	26.29
351.743	-13.82
351.96	58.83
352.176	30.16
352.392	6.91
352.609	56.51
352.825	-17.31
353.041	-27.96
353.257	-19.63
353.474	-4.33
353.69	15.05
353.906	-7.62
354.122	-3.36
354.339	50.5
354.555	-2.2
354.771	-36.68
354.987	50.12
355.203	61.35
355.42	-9.36
355.636	-9.36
355.852	-21.96
356.068	-9.56
356.284	-43.66
356.5	28.22
356.716	0.9
356.932	-17.11
357.148	15.63
357.364	-2.78
357.58	32.68
357.796	49.92
358.012	38.1
358.228	24.15
358.444	-55.48
358.66	29.38
358.876	27.25
359.092	-6.85
359.308	11.95
359.524	50.31
359.74	-2
359.956	-43.46
360.172	26.87
360.388	8.65
360.604	-5.88
360.819	79.95
361.035	17.18
361.251	19.89
361.467	-36.1
361.683	36.94
361.898	-8.01
362.114	35.39
362.33	7.1
362.546	41.2
362.762	-4.52
362.977	19.7
363.193	-31.45
363.409	45.47
363.624	-28.74
363.84	-8.01
364.056	8.46
364.271	36.94
364.487	14.85
364.703	13.89
364.918	-18.47
365.134	-20.8
365.35	12.34
365.565	90.61
365.781	-1.61
365.996	27.64
366.212	63.29
366.427	29.77
366.643	-19.05
366.858	-11.5
367.074	-46.56
367.289	35.58
367.505	118.9
367.72	-32.03
367.936	-19.63
368.151	37.91
368.367	34.03
368.582	16.4
368.798	-14.21
369.013	47.02
369.228	30.93
369.444	26.29
369.659	62.32
369.874	18.15
370.09	48.76
370.305	-50.25
370.52	-17.7
370.736	78.4
370.951	18.34
371.166	57.28
371.381	64.84
371.597	14.27
371.812	-36.88
372.027	-5.49
372.242	10.59
372.458	48.18
372.673	-15.37
372.888	-5.49
373.103	31.9
373.318	81.31
373.533	21.83
373.749	36.94
373.964	-25.83
374.179	47.79
374.394	-18.47
374.609	49.15
374.824	-17.89
375.039	30.74
375.254	-13.82
375.469	72.98
375.684	34.42
375.899	53.6
376.114	28.61
376.329	14.08
376.544	42.95
376.759	37.72
376.974	2.07
377.189	15.24
377.404	22.99
377.619	46.24
377.834	-34.55
378.049	-28.16
378.264	-32.42
378.478	-2
378.693	-11.11
378.908	35.97
379.123	1.49
379.338	45.08
379.553	23.77
379.767	41.4
379.982	14.47
380.197	42.75
380.412	1.68
380.626	41.4
380.841	85.38
381.056	27.25
381.271	83.83
381.485	-2.2
381.7	-20.99
381.915	5.17
382.129	24.74
382.344	32.1
382.559	16.02
382.773	37.91
382.988	-40.36
383.202	34.42
383.417	25.51
383.632	96.23
383.846	1.87
384.061	14.66
384.275	15.24
384.49	21.64
384.704	24.74
384.919	27.84
385.133	12.53
385.348	33.45
385.562	-47.34
385.777	41.01
385.991	21.83
386.206	9.24
386.42	10.98
386.634	46.05
386.849	15.63
387.063	29.38
387.277	-1.23
387.492	3.04
387.706	-10.91
387.92	-21.96
388.135	46.82
388.349	48.95
388.563	16.21
388.778	22.41
388.992	41.78
389.206	38.68
389.42	88.28
389.635	19.12
389.849	25.32
390.063	60.97
390.277	32.87
390.491	67.17
390.706	44.88
390.92	43.72
391.134	28.42
391.348	50.89
391.562	-11.88
391.776	23.77
391.99	-3.94
392.205	70.65
392.419	-34.16
392.633	40.82
392.847	97.2
393.061	-1.03
393.275	98.55
393.489	24.74
393.703	23.38
393.917	49.15
394.131	2.65
394.345	52.05
394.559	67.17
394.773	-0.65
394.986	33.07
395.2	47.98
395.414	34.23
395.628	-18.28
395.842	34.42
396.056	21.05
396.27	-13.05
396.484	56.51
396.697	52.05
396.911	83.63
397.125	43.14
397.339	83.05
397.553	28.03
397.766	94.68
397.98	65.03
398.194	54.18
398.408	3.42
398.621	43.53
398.835	93.71
399.049	47.98
399.262	55.15
399.476	64.84
399.69	68.13
399.903	107.85
400.117	39.46
400.331	75.69
400.544	30.55
400.758	152.22
400.971	63.29
401.185	81.7
401.398	-4.71
401.612	90.42
401.826	73.75
402.039	58.06
402.253	4.78
402.466	87.12
402.68	21.83
402.893	39.65
403.106	45.08
403.32	35.78
403.533	58.45
403.747	57.28
403.96	47.21
404.174	84.99
404.387	29.38
404.6	50.7
404.814	85.38
405.027	48.95
405.24	28.42
405.454	44.5
405.667	93.71
405.88	-14.4
406.094	50.31
406.307	59.22
406.52	47.4
406.733	29.77
406.947	30.16
407.16	107.08
407.373	89.64
407.586	39.07
407.799	28.03
408.012	79.37
408.226	61.74
408.439	113.28
408.652	-0.65
408.865	67.55
409.078	93.32
409.291	85.96
409.504	8.85
409.717	48.57
409.93	74.53
410.143	49.73
410.357	16.02
410.57	37.33
410.783	38.68
410.996	61.55
411.209	62.13
411.421	80.15
411.634	45.27
411.847	35.97
412.06	62.52
412.273	49.53
412.486	61.93
412.699	126.45
412.912	60.19
413.125	80.92
413.338	73.75
413.55	90.61
413.763	71.82
413.976	98.55
414.189	25.32
414.402	39.27
414.615	102.43
414.827	1.68
415.04	59.22
415.253	83.63
415.466	77.63
415.678	139.63
415.891	48.76
416.104	60.38
416.316	63.1
416.529	60.19
416.742	93.9
416.954	113.86
417.167	77.43
417.38	77.82
417.592	95.07
417.805	37.91
418.017	15.05
418.23	97
418.442	43.53
418.655	49.53
418.868	81.12
419.08	104.17
419.293	108.43
419.505	84.02
419.718	101.27
419.93	112.12
420.142	61.93
420.355	118.7
420.567	98.36
420.78	90.8
420.992	90.8
421.205	148.15
421.417	2.84
421.629	71.23
421.842	61.74
422.054	52.44
422.266	100.49
422.479	115.41
422.691	58.45
422.903	116.96
423.115	55.54
423.328	69.68
423.54	104.95
423.752	71.43
423.964	60
424.177	95.45
424.389	56.7
424.601	171.01
424.813	103.78
425.025	96.42
425.238	121.41
425.45	69.1
425.662	71.62
425.874	359.72
426.086	75.11
426.298	76.85
426.51	83.25
426.722	87.9
426.934	69.49
427.146	101.65
427.358	34.23
427.57	114.44
427.782	88.87
427.994	82.08
428.206	71.23
428.418	48.37
428.63	91.38
428.842	115.22
429.054	73.56
429.266	134.59
429.478	89.64
429.69	83.44
429.902	51.08
430.114	109.79
430.325	88.28
430.537	96.42
430.749	86.93
430.961	25.7
431.173	85.38
431.384	86.73
431.596	27.06
431.808	72.2
432.02	118.31
432.231	127.03
432.443	142.15
432.655	107.47
432.867	69.49
433.078	131.88
433.29	196.4
433.502	123.35
433.713	146.41
433.925	121.41
434.136	161.91
434.348	59.03
434.56	62.9
434.771	217.71
434.983	31.9
435.194	63.87
435.406	112.7
435.617	148.93
435.829	162.49
436.04	134.59
436.252	148.93
436.463	157.65
436.675	155.13
436.886	122.38
437.098	144.66
437.309	166.17
437.521	128
437.732	141.18
437.943	143.11
438.155	112.7
438.366	91.19
438.578	195.81
438.789	138.85
439	153.96
439.211	139.82
439.423	156.87
439.634	143.31
439.845	164.04
440.057	151.06
440.268	157.65
440.479	117.93
440.69	161.71
440.902	132.85
441.113	139.63
441.324	132.07
441.535	134.2
441.746	218.29
441.957	115.22
442.168	132.65
442.38	158.42
442.591	173.73
442.802	124.13
443.013	162.68
443.224	171.21
443.435	130.71
443.646	142.53
443.857	162.1
444.068	133.43
444.279	115.22
444.49	209.38
444.701	156.48
444.912	273.89
445.123	186.32
445.334	184.58
445.545	178.96
445.756	161.13
445.967	140.79
446.178	168.69
446.388	196.4
446.599	190.78
446.81	196.01
447.021	139.24
447.232	185.93
447.443	204.92
447.653	129.75
447.864	188.45
448.075	167.72
448.286	211.12
448.496	184.58
448.707	229.33
448.918	169.08
449.129	245.99
449.339	131.88
449.55	200.08
449.761	201.24
449.971	220.23
450.182	170.43
450.393	218.48
450.603	189.03
450.814	207.05
451.024	211.51
451.235	230.11
451.446	264.79
451.656	250.84
451.867	170.63
452.077	194.46
452.288	249.68
452.498	269.83
452.709	211.89
452.919	201.43
453.13	196.4
453.34	241.73
453.55	175.28
453.761	220.23
453.971	226.43
454.182	241.73
454.392	224.1
454.602	261.49
454.813	233.79
455.023	272.15
455.233	163.65
455.444	245.03
455.654	151.45
455.864	202.6
456.075	182.06
456.285	199.69
456.495	226.43
456.705	230.69
456.916	235.53
457.126	250.64
457.336	225.46
457.546	148.54
457.756	200.46
457.967	244.44
458.177	213.64
458.387	213.25
458.597	207.83
458.807	202.4
459.017	186.71
459.227	182.64
459.437	207.83
459.647	258.78
459.857	249.29
460.068	190.2
460.278	260.53
460.488	246.58
460.698	296.95
460.908	229.91
461.117	179.54
461.327	188.06
461.537	232.63
461.747	263.63
461.957	231.85
462.167	338.02
462.377	260.53
462.587	239.79
462.797	252.58
463.007	241.73
463.216	260.14
463.426	286.29
463.636	265.18
463.846	171.6
464.056	228.17
464.265	279.71
464.475	211.12
464.685	244.25
464.895	258.59
465.104	234.37
465.314	260.53
465.524	214.22
465.733	220.03
465.943	297.53
466.153	302.96
466.362	272.73
466.572	253.74
466.782	233.21
466.991	252.19
467.201	307.02
467.41	210.54
467.62	262.08
467.829	236.89
468.039	268.86
468.249	252.78
468.458	226.43
468.668	289.78
468.877	279.13
469.086	319.23
469.296	278.35
469.505	211.31
469.715	338.61
469.924	288.62
470.134	308.19
470.343	307.99
470.552	290.36
470.762	258.78
470.971	230.88
471.18	293.27
471.39	267.69
471.599	242.89
471.808	294.24
472.018	267.11
472.227	324.85
472.436	314.58
472.645	265.95
472.855	291.33
473.064	300.63
473.273	309.54
473.482	292.49
473.691	329.5
473.901	335.31
474.11	293.66
474.319	364.96
474.528	301.99
474.737	348.68
474.946	325.43
475.155	312.45
475.364	347.32
475.573	340.54
475.783	322.91
475.992	340.16
476.201	351.01
476.41	317.49
476.619	288.43
476.828	325.24
477.037	298.5
477.245	337.06
477.454	363.6
477.663	323.49
477.872	310.9
478.081	386.27
478.29	296.56
478.499	400.8
478.708	347.13
478.917	408.55
479.125	337.83
479.334	342.09
479.543	322.72
479.752	368.06
479.961	362.05
480.169	386.27
480.378	335.51
480.587	487.98
480.796	402.54
481.004	345.58
481.213	389.95
481.422	382.59
481.63	361.47
481.839	409.32
482.048	426.57
482.256	379.49
482.465	427.54
482.674	402.74
482.882	406.61
483.091	443.23
483.299	426.95
483.508	434.7
483.716	399.25
483.925	392.47
484.134	387.62
484.342	383.17
484.551	427.15
484.759	411.07
484.967	459.89
485.176	447.88
485.384	442.45
485.593	468.03
485.801	419.98
486.01	443.04
486.218	405.64
486.426	369.22
486.635	416.69
486.843	400.02
487.051	423.85
487.26	387.24
487.468	409.9
487.676	440.32
487.885	373.29
488.093	427.15
488.301	448.85
488.509	416.1
488.717	470.93
488.926	433.35
489.134	414.36
489.342	431.41
489.55	433.15
489.758	470.55
489.967	419.59
490.175	553.66
490.383	450.59
490.591	504.65
490.799	423.85
491.007	487.02
491.215	471.9
491.423	414.75
491.631	464.54
491.839	479.65
492.047	490.7
492.255	446.91
492.463	409.13
492.671	450.79
492.879	518.4
493.087	475.58
493.295	494.77
493.503	503.68
493.711	511.62
493.919	519.57
494.127	527.9
494.334	532.35
494.542	470.16
494.75	478.88
494.958	470.93
495.166	547.27
495.374	521.89
495.581	504.07
495.789	523.63
495.997	565.87
496.205	502.9
496.412	480.43
496.62	500.97
496.828	531.38
497.035	511.43
497.243	543.2
497.451	506.97
497.658	539.91
497.866	503.48
498.074	561.41
498.281	482.75
498.489	584.28
498.696	536.81
498.904	509.3
499.112	499.61
499.319	622.45
499.527	533.32
499.734	596.68
499.942	485.85
500.149	541.46
500.357	526.93
500.564	502.71
500.771	554.44
500.979	506.58
501.186	520.53
501.394	553.08
501.601	539.33
501.808	558.31
502.016	550.18
502.223	522.47
502.43	537.2
502.638	549.98
502.845	520.92
503.052	618.18
503.26	537.2
503.467	615.86
503.674	558.12
503.881	595.13
504.089	612.56
504.296	601.52
504.503	501.55
504.71	561.03
504.917	515.3
505.125	589.12
505.332	581.76
505.539	583.31
505.746	638.91
505.953	598.03
506.16	598.42
506.367	639.11
506.574	654.22
506.781	656.16
506.988	559.67
507.195	612.37
507.402	580.4
507.609	654.03
507.816	569.55
508.023	594.35
508.23	600.94
508.437	562.77
508.644	605.01
508.851	654.03
509.058	627.1
509.265	643.18
509.472	628.65
509.679	703.24
509.885	617.41
510.092	612.76
510.299	624.38
510.506	656.74
510.713	657.51
510.92	668.56
511.126	681.93
511.333	668.36
511.54	674.95
511.746	700.14
511.953	728.62
512.16	723.58
512.367	653.44
512.573	683.48
512.78	650.54
512.987	658.48
513.193	663.52
513.4	610.63
513.606	677.28
513.813	684.06
514.02	663.13
514.226	737.53
514.433	710.79
514.639	650.93
514.846	692.97
515.052	659.26
515.259	676.31
515.465	703.24
515.672	699.75
515.878	769.89
516.085	675.92
516.291	719.13
516.497	660.42
516.704	708.47
516.91	653.83
517.117	635.62
517.323	586.41
517.529	635.43
517.736	651.89
517.942	658.29
518.148	631.75
518.354	643.95
518.561	642.98
518.767	671.66
518.973	704.01
519.179	737.14
519.386	675.34
519.592	713.7
519.798	676.31
520.004	770.08
520.21	704.21
520.417	744.89
520.623	809.22
520.829	781.9
521.035	762.33
521.241	787.71
521.447	771.24
521.653	885.75
521.859	787.71
522.065	793.33
522.271	857.46
522.477	807.28
522.683	853.78
522.889	828.2
523.095	822
523.301	797.01
523.507	795.85
523.713	825.69
523.919	778.61
524.125	868.7
524.331	811.35
524.537	901.05
524.742	888.27
524.948	872.19
525.154	881.87
525.36	968.48
525.566	886.14
525.772	919.27
525.977	828.98
526.183	885.17
526.389	932.63
526.595	833.05
526.8	863.66
527.006	834.4
527.212	788.49
527.417	795.66
527.623	779.57
527.829	871.6
528.034	887.1
528.24	879.74
528.446	813.09
528.651	912.1
528.857	895.44
529.062	950.85
529.268	905.32
529.473	908.22
529.679	918.1
529.884	997.35
530.09	955.88
530.295	975.84
530.501	952.4
530.706	934.77
530.912	902.22
531.117	928.57
531.323	975.45
531.528	961.12
531.733	969.06
531.939	954.14
532.144	969.64
532.35	939.03
532.555	990.37
532.76	971.19
532.966	1024.47
533.171	984.37
533.376	940.58
533.581	913.07
533.787	952.59
533.992	986.88
534.197	1013.04
534.402	946.39
534.607	961.31
534.813	1049.27
535.018	951.62
535.223	978.17
535.428	998.9
535.633	1001.41
535.838	1008.2
536.043	1010.52
536.249	1090.93
536.454	1022.53
536.659	1029.51
536.864	968.87
537.069	988.24
537.274	1032.22
537.479	1011.88
537.684	999.86
537.889	958.21
538.094	1080.85
538.299	1036.48
538.504	1052.56
538.708	1008.58
538.913	1061.67
539.118	1042.3
539.323	1053.34
539.528	1006.84
539.733	1042.49
539.938	1032.22
540.142	1049.46
540.347	1041.33
540.552	1000.83
540.757	977.2
540.962	1037.26
541.166	956.27
541.371	967.51
541.576	1027.38
541.781	930.7
541.985	992.7
542.19	1049.66
542.395	1057.41
542.599	1084.92
542.804	1086.66
543.008	1092.86
543.213	1026.21
543.418	1040.36
543.622	1084.73
543.827	1008
544.031	1109.53
544.236	1088.6
544.44	1075.04
544.645	1143.82
544.849	1064.38
545.054	1089.57
545.258	1142.85
545.463	1085.89
545.667	1051.98
545.872	1079.49
546.076	1104.1
546.281	1054.7
546.485	1026.8
546.689	1082.79
546.894	1095.38
547.098	1122.51
547.302	1069.23
547.507	1080.85
547.711	1113.79
547.915	1131.61
548.119	1030.67
548.324	1062.06
548.528	1150.99
548.732	1098.87
548.936	1114.37
549.141	1102.55
549.345	1043.26
549.549	1073.88
549.753	1075.04
549.957	1178.89
550.161	1153.89
550.366	1087.44
550.57	1069.42
550.774	1098.87
550.978	1099.26
551.182	1091.89
551.386	1078.33
551.59	1075.62
551.794	1072.52
551.998	1110.69
552.202	1084.73
552.406	1091.51
552.61	1095.96
552.814	1097.9
553.018	1193.81
553.222	1106.23
553.426	1076.01
553.63	1153.51
553.833	1082.4
554.037	1046.36
554.241	1110.49
554.445	1119.79
554.649	1085.5
554.853	1069.42
555.056	1118.05
555.26	1165.13
555.464	1089.76
555.668	1093.44
555.871	1141.11
556.075	1157.38
556.279	1084.53
556.483	1071.16
556.686	1124.25
556.89	1079.11
557.094	1124.83
557.297	1051.21
557.501	1122.89
557.704	1047.14
557.908	1110.69
558.112	1038.81
558.315	1152.15
558.519	1075.43
558.722	1070.2
558.926	1070
559.129	1052.37
559.333	1003.93
559.536	1071.55
559.74	1009.55
559.943	1008.39
560.147	968.48
560.35	1044.23
560.553	1015.36
560.757	960.92
560.96	1084.73
561.164	1028.93
561.367	1119.79
561.57	1037.45
561.774	1075.04
561.977	1035.32
562.18	1022.73
562.384	1113.4
562.587	1049.27
562.79	1011.3
562.993	1015.56
563.197	1065.55
563.4	1095.38
563.603	1092.48
563.806	1108.94
564.009	1030.28
564.212	1049.85
564.416	979.72
564.619	1026.8
564.822	963.05
565.025	1075.62
565.228	1026.6
565.431	1019.63
565.634	931.86
565.837	994.25
566.04	980.68
566.243	983.78
566.446	917.13
566.649	1017.5
566.852	962.08
567.055	956.66
567.258	993.66
567.461	1047.53
567.664	1053.53
567.867	928.76
568.07	999.86
568.273	991.53
568.475	1062.06
568.678	975.26
568.881	961.89
569.084	990.37
569.287	864.05
569.489	915.39
569.692	975.45
569.895	982.62
570.098	952.01
570.3	931.67
570.503	862.69
570.706	910.55
570.909	911.71
571.111	872.57
571.314	897.76
571.516	886.91
571.719	899.12
571.922	866.57
572.124	884.59
572.327	895.63
572.529	859.79
572.732	844.29
572.935	919.85
573.137	941.74
573.34	884.78
573.542	927.21
573.745	880.71
573.947	923.33
574.15	886.72
574.352	884.2
574.554	912.68
574.757	895.82
574.959	846.42
575.162	850.1
575.364	839.05
575.566	945.62
575.769	826.85
575.971	854.36
576.173	785.97
576.376	853.39
576.578	903.57
576.78	893.5
576.982	774.73
577.185	848.16
577.387	830.53
577.589	820.07
577.791	886.72
577.993	898.92
578.196	861.14
578.398	862.69
578.6	867.34
578.802	782.67
579.004	807.28
579.206	801.86
579.408	852.62
579.61	827.43
579.812	854.94
580.014	808.64
580.216	812.51
580.418	806.12
580.62	796.62
580.822	779.38
581.024	826.07
581.226	854.17
581.428	790.42
581.63	891.56
581.832	813.48
582.034	848.94
582.236	836.34
582.438	861.92
582.64	890.01
582.841	888.07
583.043	921.98
583.245	880.13
583.447	885.36
583.649	803.99
583.85	842.93
584.052	876.06
584.254	794.69
584.456	882.84
584.657	833.63
584.859	818.32
585.061	805.54
585.262	809.61
585.464	817.74
585.666	853
585.867	810.77
586.069	892.34
586.27	833.44
586.472	834.99
586.674	805.34
586.875	791.2
587.077	817.16
587.278	816.97
587.48	798.56
587.681	903.77
587.883	842.74
588.084	768.14
588.285	822.59
588.487	807.09
588.688	798.17
588.89	754
589.091	727.07
589.292	738.89
589.494	739.86
589.695	737.34
589.896	655.38
590.098	660.42
590.299	725.71
590.5	654.61
590.702	681.73
590.903	698.01
591.104	778.61
591.305	773.76
591.507	783.45
591.708	787.71
591.909	738.5
592.11	802.63
592.311	751.87
592.512	741.79
592.714	707.69
592.915	722.61
593.116	743.34
593.317	738.11
593.518	758.84
593.719	729.2
593.92	773.18
594.121	770.47
594.322	746.06
594.523	772.6
594.724	723
594.925	710.21
595.126	785
595.327	773.18
595.528	759.81
595.729	754.19
595.929	761.56
596.13	760.78
596.331	767.95
596.532	730.56
596.733	806.89
596.934	786.36
597.135	796.62
597.335	773.57
597.536	753.22
597.737	775.89
597.938	741.79
598.138	765.82
598.339	756.13
598.54	759.42
598.74	748.77
598.941	747.61
599.142	817.35
599.342	734.43
599.543	733.07
599.744	723.58
599.944	755.94
600.145	736.76
600.345	785.39
600.546	849.9
600.746	815.42
600.947	820.26
601.147	772.6
601.348	812.71
601.548	736.37
601.749	752.84
601.949	709.24
602.15	732.49
602.35	726.88
602.551	813.87
602.751	718.74
602.951	729.01
603.152	679.21
603.352	813.67
603.552	752.26
603.753	781.9
603.953	770.08
604.153	776.47
604.354	751.48
604.554	745.67
604.754	766.98
604.954	713.12
605.155	751.67
605.355	732.69
605.555	773.18
605.755	786.16
605.955	767.37
606.155	776.86
606.356	743.15
606.556	786.94
606.756	783.45
606.956	692.78
607.156	792.56
607.356	719.32
607.556	747.99
607.756	738.11
607.956	773.37
608.156	757.49
608.356	746.06
608.556	775.12
608.756	757.68
608.956	745.09
609.156	726.29
609.356	712.15
609.556	711.18
609.755	757.68
609.955	693.94
610.155	757.1
610.355	722.42
610.555	714.28
610.755	742.37
610.954	671.27
611.154	722.61
611.354	764.85
611.554	699.17
611.753	717.77
611.953	660.81
612.153	742.57
612.352	756.52
612.552	671.27
612.752	649.96
612.951	697.23
613.151	706.14
613.351	675.92
613.55	674.95
613.75	726.68
613.949	701.11
614.149	704.4
614.348	714.48
614.548	674.76
614.747	642.01
614.947	680.96
615.146	632.71
615.346	700.53
615.545	675.14
615.745	694.33
615.944	717.96
616.144	713.51
616.343	710.02
616.542	689.29
616.742	690.45
616.941	680.38
617.14	595.9
617.34	645.5
617.539	691.61
617.738	650.93
617.938	741.79
618.137	650.93
618.336	637.75
618.535	706.34
618.734	658.48
618.934	669.91
619.133	688.13
619.332	685.22
619.531	653.83
619.73	664.88
619.929	726.88
620.128	703.63
620.328	730.36
620.527	642.79
620.726	670.49
620.925	671.08
621.124	647.63
621.323	722.42
621.522	627.68
621.721	648.6
621.92	628.45
622.119	666.81
622.318	634.46
622.517	645.11
622.715	643.56
622.914	595.71
623.113	629.81
623.312	589.31
623.511	691.23
623.71	620.31
623.909	618.96
624.107	678.83
624.306	585.63
624.505	598.42
624.704	627.68
624.902	597.84
625.101	685.61
625.3	631.94
625.499	618.96
625.697	609.08
625.896	616.44
626.095	637.17
626.293	585.25
626.492	581.56
626.69	635.23
626.889	588.93
627.088	637.36
627.286	566.06
627.485	606.95
627.683	590.48
627.882	629.81
628.08	535.26
628.279	579.82
628.477	656.35
628.676	570.52
628.874	604.81
629.073	605.98
629.271	561.22
629.469	606.36
629.668	590.86
629.866	606.17
630.065	593.38
630.263	602.88
630.461	575.36
630.66	565.1
630.858	617.99
631.056	629.61
631.254	621.28
631.453	559.86
631.651	624
631.849	595.32
632.047	621.48
632.245	609.27
632.444	595.51
632.642	639.88
632.84	606.95
633.038	550.18
633.236	541.46
633.434	569.16
633.632	542.04
633.83	584.28
634.028	598.61
634.227	575.36
634.425	659.26
634.623	606.36
634.821	599.58
635.019	577.69
635.216	558.31
635.414	613.34
635.612	585.44
635.81	573.43
636.008	650.34
636.206	579.24
636.404	595.9
636.602	570.71
636.8	563.55
636.997	618.18
637.195	627.29
637.393	595.13
637.591	626.13
637.789	603.07
637.986	554.44
638.184	600.75
638.382	635.04
638.58	633.1
638.777	656.54
638.975	616.83
639.173	580.21
639.37	574.4
639.568	628.84
639.765	620.51
639.963	581.18
640.161	650.15
640.358	628.26
640.556	581.56
640.753	551.34
640.951	546.88
641.148	583.7
641.346	555.8
641.543	571.49
641.741	613.15
641.938	538.36
642.136	583.31
642.333	534.29
642.531	634.07
642.728	608.88
642.925	551.34
643.123	572.65
643.32	596.29
643.517	552.7
643.715	562.96
643.912	554.83
644.109	592.41
644.306	572.46
644.504	528.87
644.701	566.84
644.898	583.89
645.095	543.98
645.293	563.35
645.49	573.23
645.687	582.15
645.884	594.16
646.081	519.18
646.278	546.3
646.475	520.15
646.672	524.02
646.87	564.9
647.067	545.92
647.264	546.3
647.461	517.43
647.658	502.32
647.855	542.23
648.052	531.97
648.249	444
648.446	532.93
648.642	479.46
648.839	489.73
649.036	501.74
649.233	463.19
649.43	500.97
649.627	484.3
649.824	485.27
650.021	491.08
650.217	509.68
650.414	489.92
650.611	511.62
650.808	510.27
651.004	525.96
651.201	555.21
651.398	556.18
651.595	554.25
651.791	469.38
651.988	514.72
652.185	486.05
652.381	526.35
652.578	467.83
652.775	503.29
652.971	477.13
653.168	495.54
653.364	537.2
653.561	449.82
653.757	480.82
653.954	539.33
654.15	512.59
654.347	581.37
654.543	504.26
654.74	471.52
654.936	463.38
655.133	487.6
655.329	521.89
655.525	487.98
655.722	501.16
655.918	475
656.115	511.23
656.311	417.27
656.507	410.68
656.704	391.69
656.9	420.37
657.096	405.06
657.292	406.8
657.489	486.82
657.685	463.96
657.881	455.82
658.077	461.05
658.273	469.77
658.47	507.55
658.666	425.21
658.862	511.23
659.058	469.58
659.254	509.68
659.45	447.88
659.646	497.09
659.842	465.12
660.038	518.79
660.234	440.13
660.43	469.19
660.626	529.06
660.822	498.25
661.018	511.23
661.214	477.33
661.41	431.41
661.606	499.8
661.802	532.93
661.998	475.39
662.194	432.96
662.39	479.85
662.586	475.78
662.781	504.65
662.977	491.86
663.173	508.72
663.369	474.62
663.564	476.17
663.76	509.68
663.956	472.29
664.152	511.82
664.347	383.55
664.543	445.94
664.739	462.8
664.934	417.85
665.13	437.8
665.326	509.68
665.521	520.92
665.717	443.81
665.912	431.41
666.108	382.2
666.304	453.89
666.499	442.65
666.695	372.71
666.89	460.67
667.086	474.23
667.281	483.53
667.477	499.8
667.672	461.25
667.867	452.72
668.063	449.24
668.258	411.07
668.454	457.95
668.649	499.61
668.844	469.97
669.04	465.9
669.235	445.36
669.43	438.19
669.626	414.17
669.821	451.37
670.016	406.22
670.211	435.09
670.407	405.64
670.602	428.12
670.797	437.8
670.992	472.48
671.187	400.02
671.382	468.61
671.578	433.93
671.773	458.73
671.968	399.64
672.163	446.91
672.358	447.3
672.553	401.19
672.748	412.04
672.943	499.03
673.138	436.25
673.333	435.29
673.528	400.6
673.723	473.07
673.918	411.65
674.113	385.3
674.308	510.07
674.503	452.92
674.698	446.33
674.892	456.99
675.087	460.67
675.282	472.1
675.477	408.16
675.672	456.21
675.867	408.55
676.061	397.7
676.256	403.7
676.451	417.07
676.646	422.11
676.84	371.54
677.035	377.74
677.23	376.77
677.424	426.37
677.619	453.69
677.814	469.97
678.008	442.84
678.203	402.54
678.397	385.69
678.592	424.05
678.787	450.4
678.981	408.94
679.176	435.87
679.37	411.84
679.565	387.24
679.759	418.82
679.954	449.24
680.148	463.77
680.342	470.35
680.537	419.01
680.731	422.3
680.926	425.79
681.12	471.13
681.314	380.65
681.509	433.54
681.703	418.24
681.897	451.75
682.092	426.37
682.286	414.36
682.48	503.29
682.674	412.42
682.869	410.49
683.063	406.61
683.257	481.2
683.451	394.6
683.645	415.91
683.839	417.65
684.034	433.93
684.228	429.47
684.422	360.5
684.616	397.89
684.81	455.63
685.004	421.92
685.198	437.03
685.392	437.22
685.586	388.01
685.78	444
685.974	431.02
686.168	462.41
686.362	497.28
686.556	389.75
686.75	380.45
686.944	387.43
687.138	421.14
687.331	307.8
687.525	362.44
687.719	278.16
687.913	380.07
688.107	358.76
688.301	327.56
688.494	383.17
688.688	333.76
688.882	290.94
689.076	310.51
689.269	364.37
689.463	411.45
689.657	351.2
689.85	353.52
690.044	365.34
690.238	380.84
690.431	341.32
690.625	340.74
690.818	407.77
691.012	376.39
691.205	378.32
691.399	362.63
691.593	403.51
691.786	436.84
691.98	437.8
692.173	440.71
692.366	448.07
692.56	454.66
692.753	517.63
692.947	428.7
693.14	472.1
693.333	445.36
693.527	393.24
693.72	464.54
693.914	433.54
694.107	425.4
694.3	457.18
694.493	460.09
694.687	501.93
694.88	429.47
695.073	486.82
695.266	498.45
695.46	448.65
695.653	504.26
695.846	503.68
696.039	431.22
696.232	463.77
696.425	525.77
696.618	516.47
696.812	505.81
697.005	593.77
697.198	668.36
697.391	551.34
697.584	573.23
697.777	607.72
697.97	611.98
698.163	615.47
698.356	595.13
698.549	678.05
698.742	662.74
698.935	580.98
699.127	619.35
699.32	583.89
699.513	584.28
699.706	602.68
699.899	643.95
700.092	608.5
700.285	632.71
700.477	575.17
700.67	640.46
700.863	656.35
701.056	747.61
701.248	707.69
701.441	699.75
701.634	655.77
701.826	770.66
702.019	634.46
702.212	711.96
702.404	681.15
702.597	681.73
702.79	693.74
702.982	726.1
703.175	764.66
703.367	729.01
703.56	737.14
703.752	839.44
703.945	783.06
704.137	811.35
704.33	795.66
704.522	828.98
704.715	790.62
704.907	810.38
705.1	839.64
705.292	844.29
705.484	827.04
705.677	860.95
705.869	894.66
706.061	925.08
706.254	928.57
706.446	848.55
706.638	890.01
706.831	967.12
707.023	903.96
707.215	953.56
707.407	950.46
707.599	937.67
707.792	1008
707.984	983.01
708.176	1013.04
708.368	973.52
708.56	969.45
708.752	992.89
708.944	963.05
709.136	1017.11
709.329	985.92
709.521	1138.59
709.713	1068.26
709.905	1088.41
710.097	1132.58
710.289	1046.56
710.481	1080.46
710.672	1079.88
710.864	1097.51
711.056	1134.33
711.248	1120.96
711.44	1131.81
711.632	1120.57
711.824	1120.96
712.016	1212.6
712.207	1227.52
712.399	1153.7
712.591	1258.13
712.783	1251.54
712.975	1249.22
713.166	1184.12
713.358	1222.48
713.55	1306.18
713.741	1272.85
713.933	1286.8
714.125	1267.24
714.316	1238.17
714.508	1318.58
714.7	1277.31
714.891	1298.43
715.083	1349
715.274	1307.34
715.466	1325.17
715.657	1329.24
715.849	1261.04
716.04	1324
716.232	1259.87
716.423	1325.17
716.615	1280.8
716.806	1281.57
716.998	1236.82
717.189	1193.61
717.381	1128.32
717.572	1113.98
717.763	1184.51
717.955	1147.31
718.146	1143.43
718.337	1074.65
718.528	1075.43
718.72	1014.78
718.911	1086.08
719.102	1042.49
719.293	1093.25
719.485	1087.44
719.676	1066.32
719.867	1010.52
720.058	1051.79
720.249	1060.9
720.44	1055.47
720.632	1100.61
720.823	1124.25
721.014	1201.56
721.205	1195.74
721.396	1261.62
721.587	1338.54
721.778	1359.27
721.969	1355.97
722.16	1415.45
722.351	1389.1
722.542	1491.21
722.733	1481.52
722.924	1426.69
723.115	1473.77
723.305	1441.8
723.496	1463.31
723.687	1380
723.878	1405.18
724.069	1419.91
724.26	1394.53
724.45	1358.1
724.641	1366.63
724.832	1405.38
725.023	1342.02
725.213	1392.98
725.404	1363.72
725.595	1387.75
725.785	1344.73
725.976	1389.1
726.167	1371.86
726.357	1384.26
726.548	1485.98
726.739	1423.59
726.929	1452.07
727.12	1462.34
727.31	1470.48
727.501	1435.8
727.691	1481.91
727.882	1495.28
728.072	1540.03
728.263	1485.98
728.453	1497.41
728.644	1540.42
728.834	1498.18
729.024	1475.9
729.215	1521.04
729.405	1532.48
729.596	1608.62
729.786	1586.34
729.976	1595.06
730.167	1610.17
730.357	1548.75
730.547	1575.88
730.737	1599.51
730.928	1663.26
731.118	1682.05
731.308	1636.32
731.498	1657.64
731.688	1683.21
731.879	1678.76
732.069	1696
732.259	1745.21
732.449	1737.27
732.639	1802.37
732.829	1789.77
733.019	1843.44
733.209	1905.44
733.399	1898.27
733.589	1973.64
733.779	1951.94
733.969	1956.98
734.159	1989.14
734.349	2028.86
734.539	2071.09
734.729	2035.25
734.919	2088.72
735.109	2097.25
735.299	2059.47
735.488	2109.84
735.678	2078.65
735.868	2098.61
736.058	2080.2
736.248	2045.13
736.437	2049.78
736.627	2039.32
736.817	2134.45
737.007	2113.72
737.196	2160.6
737.386	2125.34
737.576	2097.06
737.765	2130.77
737.955	2084.66
738.144	2200.71
738.334	2208.65
738.524	2130.57
738.713	2188.31
738.903	2201.29
739.092	2217.76
739.282	2198.39
739.471	2222.41
739.661	2208.07
739.85	2216.4
740.04	2199.74
740.229	2260
740.419	2270.46
740.608	2251.28
740.797	2252.63
740.987	2327.03
741.176	2331.88
741.365	2253.99
741.555	2227.83
741.744	2327.23
741.933	2257.48
742.123	2287.7
742.312	2351.83
742.501	2377.6
742.69	2354.55
742.88	2287.32
743.069	2422.94
743.258	2339.24
743.447	2398.14
743.636	2383.22
743.825	2328.78
744.014	2371.21
744.204	2387.1
744.393	2369.46
744.582	2418.09
744.771	2433.4
744.96	2396.98
745.149	2422.55
745.338	2377.99
745.527	2423.13
745.716	2384.58
745.905	2388.45
746.094	2408.21
746.283	2480.09
746.471	2430.49
746.66	2498.5
746.849	2427.39
747.038	2469.24
747.227	2377.6
747.416	2458.01
747.604	2393.1
747.793	2413.44
747.982	2412.48
748.171	2436.31
748.359	2485.71
748.548	2425.26
748.737	2408.21
748.926	2380.9
749.114	2377.6
749.303	2440.18
749.491	2435.34
749.68	2402.98
749.869	2427.2
750.057	2431.85
750.246	2374.31
750.434	2392.52
750.623	2391.36
750.811	2397.75
751	2462.85
751.188	2400.08
751.377	2438.44
751.565	2393.1
751.754	2354.55
751.942	2356.48
752.131	2434.76
752.319	2338.27
752.507	2339.05
752.696	2402.4
752.884	2429.33
753.072	2373.53
753.261	2369.46
753.449	2399.88
753.637	2390.58
753.825	2451.42
754.014	2342.15
754.202	2379.15
754.39	2441.93
754.578	2427.01
754.766	2346.8
754.955	2335.17
755.143	2444.44
755.331	2372.76
755.519	2348.15
755.707	2352.8
755.895	2310.76
756.083	2347.57
756.271	2304.17
756.459	2354.74
756.647	2360.55
756.835	2292.93
757.023	2351.25
757.211	2324.13
757.399	2317.54
757.587	2286.93
757.775	2260.97
757.963	2277.82
758.151	2317.93
758.339	2255.35
758.526	2284.02
758.714	2297.39
758.902	2207.3
759.09	2191.8
759.278	2030.02
759.465	1823.48
759.653	1666.74
759.841	1555.53
760.028	1286.03
760.216	1128.51
760.404	1098.29
760.591	901.44
760.779	747.22
760.967	689.68
761.154	535.45
761.342	583.5
761.529	555.41
761.717	617.6
761.905	590.86
762.092	634.85
762.28	583.89
762.467	580.98
762.655	543.59
762.842	577.69
763.029	605.59
763.217	588.93
763.404	564.13
763.592	649.18
763.779	552.5
763.966	602.3
764.154	630.39
764.341	679.21
764.528	657.51
764.716	742.57
764.903	751.67
765.09	793.33
765.277	848.35
765.465	948.33
765.652	978.17
765.839	1043.46
766.026	1115.53
766.213	1165.13
766.4	1200.39
766.588	1366.05
766.775	1362.17
766.962	1451.88
767.149	1456.33
767.336	1595.64
767.523	1542.55
767.71	1666.36
767.897	1696.77
768.084	1767.1
768.271	1761.68
768.458	1867.27
768.645	1891.1
768.832	1836.08
769.019	1857.2
769.206	1929.46
769.392	1952.91
769.579	2070.12
769.766	1977.71
769.953	2006.96
770.14	2065.47
770.327	2024.01
770.513	2051.33
770.7	2113.14
770.887	2019.36
771.073	2091.24
771.26	2057.14
771.447	2070.12
771.634	2033.12
771.82	2139.68
772.007	2023.43
772.193	2085.62
772.38	2138.9
772.567	2076.13
772.753	2076.13
772.94	2123.02
773.126	2140.45
773.313	2110.62
773.499	2114.69
773.686	2093.76
773.872	2079.42
774.059	2051.14
774.245	2031.96
774.432	2051.14
774.618	1991.46
774.804	2092.02
774.991	2014.91
775.177	2103.26
775.363	2046.49
775.55	2075.36
775.736	2008.71
775.922	2031.18
776.109	2038.74
776.295	2072.06
776.481	2059.86
776.667	2055.98
776.853	2034.09
777.04	2032.34
777.226	2030.79
777.412	2080.01
777.598	1977.51
777.784	1970.54
777.97	1979.45
778.156	2009.87
778.342	2003.09
778.528	2007.16
778.715	1963.37
778.901	1964.53
779.087	1985.26
779.272	1999.21
779.458	1937.99
779.644	1969.57
779.83	1927.72
780.016	2036.03
780.202	2000.38
780.388	1953.49
780.574	1891.3
780.76	1935.66
780.946	1970.34
781.131	1937.8
781.317	1959.49
781.503	1892.65
781.689	1889.16
781.874	2010.84
782.06	1922.1
782.246	1912.8
782.432	1892.46
782.617	1956.2
782.803	1959.88
782.989	1850.03
783.174	1892.65
783.36	1857
783.545	1893.43
783.731	1894.2
783.916	1821.74
784.102	1923.07
784.288	1858.17
784.473	1900.4
784.659	1819.8
784.844	1894.4
785.029	1822.9
785.215	1859.13
785.4	1792.29
785.586	1883.35
785.771	1802.75
785.956	1860.49
786.142	1857.97
786.327	1806.05
786.512	1829.88
786.698	1801.78
786.883	1760.9
787.068	1796.55
787.254	1816.12
787.439	1806.63
787.624	1769.62
787.809	1758
787.994	1765.36
788.18	1844.6
788.365	1706.07
788.55	1802.56
788.735	1741.92
788.92	1739.2
789.105	1740.95
789.29	1772.53
789.475	1703.55
789.66	1757.22
789.845	1667.52
790.03	1689.02
790.215	1742.69
790.4	1765.94
790.585	1789.38
790.77	1730.49
790.955	1638.07
791.14	1684.37
791.325	1778.15
791.51	1625.09
791.695	1689.6
791.879	1665
792.064	1641.94
792.249	1741.14
792.434	1657.25
792.618	1684.37
792.803	1713.05
792.988	1664.42
793.173	1713.05
793.357	1750.64
793.542	1638.26
793.727	1644.46
793.911	1716.15
794.096	1632.64
794.281	1714.79
794.465	1776.21
794.65	1678.95
794.834	1715.95
795.019	1745.21
795.203	1732.42
795.388	1721.96
795.572	1770.59
795.757	1739.98
795.941	1742.5
796.126	1732.62
796.31	1638.26
796.494	1707.62
796.679	1655.12
796.863	1661.71
797.048	1741.53
797.232	1726.22
797.416	1713.82
797.601	1685.34
797.785	1733.97
797.969	1759.94
798.153	1695.42
798.338	1733.39
798.522	1744.44
798.706	1705.88
798.89	1740.56
799.074	1850.61
799.258	1747.92
799.443	1738.43
799.627	1739.98
799.811	1785.32
799.995	1734.36
800.179	1723.9
800.363	1728.35
800.547	1766.14
800.731	1743.66
800.915	1688.44
801.099	1727.97
801.283	1724.87
801.467	1744.63
801.651	1688.25
801.835	1783.57
802.019	1752.96
802.202	1742.5
802.386	1674.88
802.57	1693.67
802.754	1694.84
802.938	1679.53
803.121	1678.17
803.305	1753.15
803.489	1719.44
803.673	1720.99
803.856	1720.22
804.04	1710.92
804.224	1709.37
804.407	1701.42
804.591	1679.72
804.775	1684.37
804.958	1683.6
805.142	1819.8
805.326	1716.73
805.509	1739.79
805.693	1725.25
805.876	1785.32
806.06	1709.37
806.243	1755.67
806.427	1790.74
806.61	1769.62
806.794	1699.49
806.977	1757.61
807.16	1748.31
807.344	1750.44
807.527	1725.45
807.71	1720.6
807.894	1741.34
808.077	1747.92
808.26	1702.2
808.444	1694.64
808.627	1764.78
808.81	1710.14
808.993	1659.96
809.177	1676.43
809.36	1683.41
809.543	1705.3
809.726	1597.19
809.909	1675.07
810.092	1618.31
810.276	1596.99
810.459	1653.37
810.642	1608.62
810.825	1589.44
811.008	1625.67
811.191	1568.51
811.374	1529.96
811.557	1565.8
811.74	1625.67
811.923	1485.78
812.106	1497.21
812.289	1459.05
812.472	1505.93
812.654	1538.48
812.837	1453.23
813.02	1449.75
813.203	1452.26
813.386	1324.78
813.569	1340.67
813.751	1268.4
813.934	1345.51
814.117	1317.61
814.3	1287.39
814.482	1270.53
814.665	1233.72
814.848	1223.06
815.03	1186.25
815.213	1166.49
815.396	1175.79
815.578	1152.54
815.761	1152.15
815.943	1201.17
816.126	1122.89
816.309	1083.37
816.491	1066.71
816.674	1020.01
816.856	1082.59
817.039	1030.28
817.221	1135.49
817.403	1112.63
817.586	1045.2
817.768	1098.29
817.951	1016.53
818.133	1015.75
818.315	1069.42
818.498	1080.85
818.68	1150.99
818.862	1136.84
819.045	1102.16
819.227	1116.11
819.409	1106.23
819.591	1098.09
819.774	1078.33
819.956	1063.8
820.138	1114.95
820.32	1067.68
820.502	1149.24
820.684	1202.52
820.866	1219.38
821.048	1253.48
821.231	1204.27
821.413	1248.64
821.595	1231.59
821.777	1204.66
821.959	1199.23
822.141	1246.89
822.323	1137.81
822.505	1135.29
822.686	1117.86
822.868	1065.16
823.05	954.33
823.232	1011.68
823.414	938.45
823.596	994.83
823.778	982.04
823.96	997.54
824.141	955.69
824.323	992.89
824.505	1024.66
824.687	1075.23
824.868	1106.43
825.05	1182.57
825.232	1193.22
825.413	1264.14
825.595	1210.66
825.777	1135.68
825.958	1171.52
826.14	1210.27
826.321	1223.06
826.503	1199.62
826.685	1216.28
826.866	1204.85
827.048	1216.67
827.229	1160.48
827.411	1146.92
827.592	1112.24
827.773	1118.83
827.955	1066.13
828.136	1096.54
828.318	1033
828.499	1087.63
828.68	1048.3
828.862	1088.41
829.043	1103.33
829.224	1072.33
829.406	1028.35
829.587	1064.96
829.768	1052.95
829.949	1088.02
830.131	1058.57
830.312	1102.94
830.493	1071.94
830.674	1088.6
830.855	1067.48
831.036	1048.11
831.218	1092.67
831.399	1095.96
831.58	1078.14
831.761	1105.65
831.942	1111.08
832.123	1068.84
832.304	1021.56
832.485	1049.08
832.666	1030.48
832.847	1081.82
833.028	1075.04
833.209	1084.14
833.389	1042.3
833.57	1008.2
833.751	1057.02
833.932	1105.84
834.113	1056.44
834.294	1049.66
834.475	1090.54
834.655	1110.3
834.836	1116.11
835.017	1105.65
835.198	1032.8
835.378	1092.48
835.559	1116.11
835.74	1095.58
835.92	1034.93
836.101	1046.95
836.281	1102.36
836.462	1108.56
836.643	1128.71
836.823	1132.78
837.004	1148.86
837.184	1203.69
837.365	1151.18
837.545	1168.81
837.726	1107.78
837.906	1151.18
838.087	1117.66
838.267	1095.77
838.448	1085.11
838.628	1089.96
838.808	1100.61
838.989	1193.81
839.169	1094.61
839.349	1156.22
839.53	1120.18
839.71	1139.56
839.89	1120.76
840.07	1157.19
840.251	1106.04
840.431	1146.92
840.611	1129.87
840.791	1066.51
840.971	1138.01
841.151	1094.41
841.332	1078.53
841.512	1146.34
841.692	1065.74
841.872	1111.66
842.052	1113.59
842.232	1147.69
842.412	1063.03
842.592	1109.91
842.772	1118.83
842.952	1143.63
843.132	1098.09
843.312	1097.13
843.492	1048.88
843.672	1103.13
843.851	1043.65
844.031	1100.61
844.211	1045.98
844.391	1076.59
844.571	1110.69
844.751	1052.76
844.93	1089.18
845.11	1061.86
845.29	1101.58
845.47	1112.63
845.649	1073.3
845.829	1100.61
846.009	1066.13
846.188	1075.43
846.368	1107.98
846.547	1125.8
846.727	1100.23
846.907	998.51
847.086	1085.11
847.266	1117.08
847.445	1065.74
847.625	1053.53
847.804	1041.91
847.984	1069.61
848.163	1022.73
848.343	1058.96
848.522	1082.59
848.701	1055.28
848.881	1056.83
849.06	1050.43
849.239	1042.68
849.419	1033.96
849.598	1003.35
849.777	992.11
849.957	996.57
850.136	959.18
850.315	966.35
850.494	983.4
850.674	960.53
850.853	1016.53
851.032	955.5
851.211	1030.48
851.39	988.63
851.569	903.77
851.748	974.1
851.927	1025.25
852.107	966.93
852.286	932.25
852.465	912.29
852.644	978.75
852.823	973.13
853.002	960.92
853.181	969.25
853.359	977.2
853.538	909.58
853.717	1000.25
853.896	900.28
854.075	862.5
854.254	888.27
854.433	800.89
854.611	868.89
854.79	830.53
854.969	859.79
855.148	877.8
855.327	819.87
855.505	873.54
855.684	851.84
855.863	884.78
856.041	859.4
856.22	893.5
856.399	868.89
856.577	967.7
856.756	944.45
856.934	1046.36
857.113	1008.78
857.291	951.82
857.47	901.05
857.648	920.23
857.827	946
858.005	962.28
858.184	902.8
858.362	1045.98
858.541	928.18
858.719	940.38
858.898	923.72
859.076	921.4
859.254	987.08
859.433	918.1
859.611	920.62
859.789	867.34
859.967	943.68
860.146	1001.8
860.324	882.26
860.502	924.3
860.68	834.79
860.859	881.49
861.037	894.66
861.215	919.85
861.393	926.43
861.571	883.23
861.749	887.3
861.927	909.38
862.105	860.17
862.283	893.11
862.461	846.22
862.639	833.82
862.817	874.7
862.995	885.94
863.173	871.99
863.351	859.59
863.529	884.2
863.707	904.35
863.885	868.31
864.063	822
864.241	853.78
864.418	900.47
864.596	838.86
864.774	817.94
864.952	853.39
865.129	883.23
865.307	834.99
865.485	821.62
865.663	877.61
865.84	804.37
866.018	871.22
866.196	700.53
866.373	776.47
866.551	756.71
866.728	693.36
866.906	736.37
867.084	761.94
867.261	798.56
867.439	811.93
867.616	795.66
867.794	781.32
867.971	784.42
868.149	811.54
868.326	839.25
868.503	807.28
868.681	796.04
868.858	763.49
869.035	769.69
869.213	793.52
869.39	800.5
869.567	854.55
869.745	779.57
869.922	834.99
870.099	803.21
870.276	819.1
870.454	809.22
870.631	801.47
870.808	775.89
870.985	799.53
871.162	846.42
871.339	819.49
871.517	745.47
871.694	747.22
871.871	768.72
872.048	795.46
872.225	780.93
872.402	811.74
872.579	759.04
872.756	803.41
872.933	748.19
873.11	772.79
873.287	732.49
873.463	747.02
873.64	772.6
873.817	763.3
873.994	751.09
874.171	758.26
874.348	784.81
874.524	696.84
874.701	741.79
874.878	678.83
875.055	750.51
875.231	734.43
875.408	762.33
875.585	685.8
875.762	712.54
875.938	736.17
876.115	728.42
876.291	709.83
876.468	730.75
876.645	711.38
876.821	716.03
876.998	690.26
877.174	735.01
877.351	706.73
877.527	690.26
877.704	724.74
877.88	707.31
878.057	707.11
878.233	745.67
878.409	695.88
878.586	732.11
878.762	690.26
878.938	677.08
879.115	628.06
879.291	705.37
879.467	654.41
879.644	676.69
879.82	721.64
879.996	679.6
880.172	638.53
880.349	656.74
880.525	697.81
880.701	634.26
880.877	641.82
881.053	671.85
881.229	692
881.405	715.25
881.581	613.53
881.757	664.68
881.933	679.79
882.109	681.15
882.285	679.41
882.461	620.12
882.637	674.95
882.813	652.28
882.989	655.77
883.165	712.54
883.341	647.24
883.517	675.14
883.693	665.65
883.869	695.49
884.044	609.27
884.22	710.79
884.396	705.18
884.572	698.2
884.747	707.69
884.923	657.51
885.099	684.25
885.275	729.39
885.45	674.37
885.626	624.38
885.801	668.17
885.977	654.61
886.153	626.51
886.328	655.58
886.504	648.6
886.679	679.6
886.855	658.68
887.03	680.38
887.206	711.76
887.381	673.01
887.557	681.15
887.732	656.93
887.908	688.9
888.083	702.66
888.258	661.39
888.434	651.12
888.609	666.04
888.784	704.01
888.96	631.16
889.135	643.95
889.31	633.3
889.485	670.49
889.661	650.15
889.836	714.09
890.011	682.89
890.186	621.67
890.361	649.18
890.537	678.83
890.712	675.34
890.887	633.88
891.062	656.35
891.237	718.74
891.412	620.7
891.587	694.52
891.762	692
891.937	699.56
892.112	629.03
892.287	638.72
892.462	602.3
892.637	578.85
892.812	587.96
892.987	607.53
893.161	582.92
893.336	597.65
893.511	600.16
893.686	619.35
893.861	561.03
894.035	605.4
894.21	630.2
894.385	558.51
894.56	577.88
894.734	555.41
894.909	552.89
895.084	576.53
895.258	547.85
895.433	557.35
895.608	547.85
895.782	503.1
895.957	511.04
896.131	515.88
896.306	494.77
896.48	468.61
896.655	476.94
896.829	429.86
897.004	404.29
897.178	454.08
897.353	409.52
897.527	476.94
897.701	454.66
897.876	422.89
898.05	483.53
898.224	468.61
898.399	511.82
898.573	469.58
898.747	370.96
898.921	423.66
899.096	361.66
899.27	361.66
899.444	362.24
899.618	372.51
899.792	382.97
899.967	365.54
900.141	441.87
900.315	353.14
900.489	365.92
900.663	415.91
900.837	394.4
901.011	358.76
901.185	444.59
901.359	416.3
901.533	421.72
901.707	404.29
901.881	391.3
902.055	333.96
902.229	377.94
902.403	445.55
902.576	398.28
902.75	353.14
902.924	503.87
903.098	441.29
903.272	441.87
903.446	505.23
903.619	456.79
903.793	488.37
903.967	469.58
904.14	504.84
904.314	514.53
904.488	475
904.661	515.88
904.835	456.6
905.009	516.85
905.182	541.46
905.356	507.75
905.529	494.77
905.703	431.41
905.876	462.02
906.05	438.58
906.223	452.53
906.397	383.17
906.57	378.52
906.744	397.31
906.917	394.02
907.09	377.36
907.264	403.51
907.437	368.83
907.61	337.06
907.784	340.16
907.957	357.59
908.13	360.89
908.304	402.15
908.477	330.27
908.65	375.61
908.823	334.73
908.996	409.13
909.17	344.03
909.343	347.52
909.516	346.74
909.689	346.74
909.862	319.62
910.035	357.79
910.208	317.49
910.381	328.92
910.554	422.11
910.727	333.18
910.9	326.21
911.073	316.91
911.246	387.82
911.419	357.59
911.592	391.89
911.765	297.92
911.938	315.55
912.11	333.96
912.283	344.22
912.456	399.05
912.629	338.61
912.802	319.81
912.974	297.72
913.147	301.02
913.32	242.51
913.493	267.31
913.665	303.73
913.838	296.17
914.01	296.95
914.183	297.14
914.356	262.66
914.528	328.34
914.701	351.01
914.873	327.95
915.046	315.74
915.218	269.63
915.391	247.35
915.563	265.76
915.736	303.54
915.908	309.74
916.081	303.54
916.253	295.01
916.425	273.12
916.598	299.08
916.77	278.74
916.942	234.76
917.115	228.75
917.287	286.88
917.459	261.49
917.632	257.81
917.804	220.23
917.976	304.12
918.148	262.46
918.32	265.76
918.493	304.89
918.665	343.06
918.837	279.51
919.009	333.96
919.181	352.94
919.353	317.68
919.525	319.04
919.697	295.21
919.869	316.71
920.041	326.98
920.213	421.34
920.385	312.84
920.557	321.17
920.729	319.62
920.901	333.37
921.073	321.94
921.244	289.39
921.416	323.88
921.588	287.46
921.76	307.99
921.932	375.81
922.103	303.15
922.275	301.02
922.447	306.83
922.619	250.84
922.79	311.48
922.962	274.86
923.134	312.06
923.305	281.84
923.477	228.56
923.648	258.2
923.82	271.76
923.991	223.71
924.163	230.49
924.335	249.87
924.506	242.31
924.677	305.28
924.849	260.33
925.02	267.69
925.192	275.64
925.363	262.66
925.535	278.93
925.706	244.44
925.877	306.25
926.049	240.57
926.22	274.67
926.391	264.21
926.562	287.84
926.734	221.78
926.905	319.23
927.076	193.88
927.247	237.66
927.419	227.01
927.59	224.29
927.761	206.66
927.932	230.3
928.103	222.55
928.274	179.73
928.445	195.62
928.616	219.26
928.787	202.79
928.958	208.21
929.129	217.32
929.3	193.3
929.471	159.39
929.642	124.9
929.813	100.3
929.984	168.11
930.155	92.74
930.326	170.82
930.496	114.83
930.667	99.52
930.838	112.5
931.009	77.05
931.18	127.03
931.35	110.57
931.521	118.12
931.692	81.12
931.863	17.18
932.033	93.9
932.204	107.08
932.374	77.24
932.545	41.2
932.716	112.12
932.886	100.68
933.057	31.52
933.227	35.58
933.398	143.11
933.568	41.4
933.739	7.88
933.909	28.22
934.08	66.2
934.25	-10.33
934.421	15.24
934.591	53.99
934.761	20.28
934.932	-15.18
935.102	32.48
935.272	14.27
935.443	55.15
935.613	29.38
935.783	53.22
935.953	-2
936.123	178.96
936.294	-17.11
936.464	5.36
936.634	12.53
936.804	-5.49
936.974	0.13
937.144	62.9
937.314	24.15
937.484	5.94
937.655	0.13
937.825	59.22
937.995	-13.63
938.165	59.8
938.334	38.1
938.504	46.43
938.674	7.88
938.844	24.93
939.014	53.99
939.184	75.3
939.354	110.37
939.524	77.63
939.694	44.69
939.863	69.3
940.033	121.8
940.203	111.53
940.373	91.97
940.542	96.42
940.712	60.58
940.882	110.76
941.051	107.08
941.221	82.08
941.391	89.83
941.56	48.18
941.73	41.2
941.899	151.06
942.069	53.22
942.238	85.57
942.408	47.6
942.577	66.2
942.747	60.58
942.916	25.12
943.086	71.43
943.255	90.22
943.425	53.8
943.594	25.9
943.763	-29.9
943.933	30.35
944.102	-8.01
944.271	59.03
944.441	72.59
944.61	28.8
944.779	43.14
944.948	146.21
945.117	7.3
945.287	17.37
945.456	-10.72
945.625	22.41
945.794	39.85
945.963	2.07
946.132	70.07
946.301	30.74
946.47	55.54
946.639	9.62
946.808	18.34
946.977	45.85
947.146	78.21
947.315	12.92
947.484	47.6
947.653	39.27
947.822	13.3
947.991	17.18
948.16	107.27
948.329	88.67
948.498	44.11
948.666	63.1
948.835	68.72
949.004	22.99
949.173	-0.84
949.341	64.26
949.51	62.71
949.679	85.96
949.847	74.72
950.016	127.23
950.185	98.75
950.353	20.47
950.522	29.38
950.69	54.96
950.859	27.06
951.028	75.88
951.196	52.05
951.365	21.83
951.533	18.15
951.701	87.32
951.87	55.93
952.038	-5.3
952.207	45.85
952.375	119.28
952.543	14.47
952.712	34.23
952.88	3.42
953.048	112.5
953.217	28.42
953.385	29.38
953.553	85.57
953.721	15.63
953.89	15.44
954.058	3.42
954.226	31.52
954.394	32.87
954.562	-2
954.73	37.91
954.898	33.84
955.067	91.19
955.235	16.6
955.403	103.78
955.571	117.35
955.739	62.13
955.907	11.17
956.075	23.38
956.243	17.37
956.41	84.8
956.578	13.89
956.746	16.21
956.914	25.51
957.082	72.78
957.25	53.22
957.418	24.35
957.585	48.37
957.753	69.68
957.921	24.35
958.089	56.51
958.256	80.15
958.424	47.79
958.592	71.04
958.759	16.4
958.927	69.68
959.095	22.99
959.262	26.48
959.43	27.64
959.597	13.11
959.765	66
959.932	2.45
960.1	64.26
960.267	45.08
960.435	53.8
960.602	63.1
960.77	35.97
960.937	-16.92
961.104	55.35
961.272	-12.46
961.439	22.6
961.606	44.5
961.774	53.02
961.941	43.33
962.108	37.72
962.275	67.17
962.443	105.53
962.61	74.53
962.777	120.83
962.944	65.81
963.111	52.44
963.278	67.55
963.446	56.51
963.613	42.17
963.78	63.87
963.947	68.13
964.114	40.82
964.281	121.61
964.448	72.98
964.615	27.25
964.782	65.42
964.949	92.16
965.116	94.1
965.282	104.56
965.449	21.64
965.616	-0.65
965.783	73.37
965.95	71.43
966.117	33.45
966.283	47.98
966.45	39.65
966.617	57.87
966.784	84.02
966.95	100.49
967.117	58.45
967.284	24.54
967.45	51.28
967.617	103.4
967.784	55.54
967.95	116.96
968.117	62.9
968.283	76.27
968.45	151.83
968.616	78.4
968.783	121.8
968.949	55.73
969.116	106.11
969.282	60.58
969.449	56.7
969.615	51.28
969.781	16.6
969.948	51.28
970.114	55.35
970.28	125.48
970.447	30.93
970.613	105.72
970.779	42.75
970.945	97.78
971.112	78.98
971.278	61.55
971.444	52.25
971.61	85.38
971.776	48.95
971.942	77.24
972.108	75.11
972.275	60
972.441	55.93
972.607	138.66
972.773	63.68
972.939	79.37
973.105	56.7
973.271	35.78
973.437	64.07
973.602	47.98
973.768	78.4
973.934	53.8
974.1	84.6
974.266	-13.24
974.432	60.19
974.598	29.58
974.763	70.85
974.929	56.7
975.095	83.05
975.261	35
975.426	26.87
975.592	59.8
975.758	129.94
975.923	0.13
976.089	27.84
976.255	88.28
976.42	69.1
976.586	96.62
976.751	73.75
976.917	148.73
977.082	75.69
977.248	32.29
977.413	2.26
977.579	55.54
977.744	81.89
977.91	31.52
978.075	31.52
978.24	85.57
978.406	62.32
978.571	10.4
978.736	37.52
978.902	64.84
979.067	20.86
979.232	-13.63
979.397	62.71
979.563	82.86
979.728	26.09
979.893	50.5
980.058	29
980.223	100.88
980.388	64.84
980.554	57.87
980.719	28.22
980.884	72.4
981.049	78.21
981.214	44.5
981.379	66.58
981.544	45.08
981.709	46.05
981.874	59.03
982.039	42.37
982.204	69.88
982.368	44.11
982.533	13.69
982.698	82.08
982.863	85.96
983.028	58.25
983.193	81.31
983.357	49.34
983.522	87.32
983.687	26.67
983.852	41.4
984.016	64.26
984.181	60.97
984.346	59.42
984.51	72.98
984.675	59.42
984.839	77.05
985.004	68.13
985.168	109.79
985.333	61.55
985.498	25.32
985.662	88.28
985.827	69.1
985.991	76.47
986.155	55.35
986.32	88.09
986.484	114.25
986.649	81.31
986.813	-8.2
986.977	67.55
987.142	83.25
987.306	22.8
987.47	39.65
987.634	49.34
987.799	45.85
987.963	54.77
988.127	95.07
988.291	139.43
988.455	72.2
988.62	51.67
988.784	56.9
988.948	62.32
989.112	14.85
989.276	58.64
989.44	90.03
989.604	20.09
989.768	13.5
989.932	140.98
990.096	14.47
990.26	4.59
990.424	27.25
990.588	46.63
990.752	127.42
990.915	60.38
991.079	56.12
991.243	12.92
991.407	79.18
991.571	47.21
991.734	75.88
991.898	78.79
992.062	153.77
992.226	44.5
992.389	24.35
992.553	29.97
992.717	32.1
992.88	36.55
993.044	59.03
993.207	23.38
993.371	78.4
993.535	60.19
993.698	65.62
993.862	88.28
994.025	97.78
994.189	38.68
994.352	39.46
994.515	59.8
994.679	87.7
994.842	48.57
995.006	71.43
995.169	22.41
995.332	35.39
995.496	88.67
995.659	17.76
995.822	51.08
995.985	67.55
996.149	93.52
996.312	30.16
996.475	97.39
996.638	47.6
996.801	57.09
996.964	110.37
997.128	69.68
997.291	50.31
997.454	40.43
997.617	-1.23
997.78	70.27
997.943	1.49
998.106	66.2
998.269	12.53
998.432	25.32
998.595	45.27
998.758	-14.6
998.92	22.8
999.083	-32.42
999.246	16.21
999.409	-28.16
999.572	-29.71
999.735	43.92
999.897	41.4
1000.06	14.66
1000.223	46.24
1000.386	57.48
1000.548	68.72
1000.711	34.42
1000.874	66.39
1001.036	6.33
1001.199	55.73
1001.361	14.08
1001.524	37.72
1001.687	87.12
1001.849	27.84
1002.012	29.58
1002.174	35.97
1002.337	52.63
1002.499	19.12
1002.661	76.47
1002.824	11.37
1002.986	11.37
1003.149	41.01
1003.311	11.37
1003.473	90.03
1003.636	25.32
1003.798	17.37
1003.96	60.19
1004.123	50.5
1004.285	43.53
1004.447	40.23
1004.609	37.52
1004.771	74.33
1004.933	-0.45
1005.096	18.15
1005.258	-23.7
1005.42	-5.68
1005.582	69.3
1005.744	53.02
1005.906	-4.33
1006.068	34.42
1006.23	5.94
1006.392	-21.57
1006.554	-19.83
1006.716	64.07
1006.878	58.45
1007.04	3.42
1007.202	22.22
1007.363	31.52
1007.525	48.76
1007.687	41.78
1007.849	63.29
1008.011	-35.13
1008.172	8.65
1008.334	31.52
1008.496	50.7
1008.658	-36.1
1008.819	-2.78
1008.981	-8.4
1009.143	-12.85
1009.304	-15.95
1009.466	18.34
1009.627	80.15
1009.789	129.16
1009.95	36.55
1010.112	-8.98
1010.273	48.76
1010.435	0.13
1010.596	25.51
1010.758	-4.71
1010.919	6.33
1011.081	-20.6
1011.242	41.2
1011.403	34.81
1011.565	-5.68
1011.726	21.83
1011.887	-16.34
1012.049	12.53
1012.21	49.34
1012.371	48.57
1012.532	-74.27
1012.693	19.7
1012.855	-2.78
1013.016	29.38
1013.177	83.25
1013.338	19.5
1013.499	75.88
1013.66	56.9
1013.821	65.62
1013.982	27.84
1014.143	49.53
1014.304	12.34
1014.465	47.98
1014.626	28.61
1014.787	31.52
1014.948	95.45
1015.109	-48.31
1015.27	45.66
1015.431	9.24
1015.592	-12.46
1015.752	66.97
1015.913	38.88
1016.074	39.85
1016.235	14.85
1016.395	25.32
1016.556	1.68
1016.717	4.2
1016.877	91.97
1017.038	-2.78
1017.199	63.1
1017.359	32.48
1017.52	33.65
1017.681	24.74
1017.841	-3.75
1018.002	18.92
1018.162	-2
1018.323	93.9
1018.483	20.67
1018.644	4.78
1018.804	-0.26
1018.964	-20.02
1019.125	-6.85
1019.285	16.21
1019.446	-25.83
1019.606	10.01
1019.766	-57.22
1019.926	38.68
1020.087	39.27
1020.247	0.52
1020.407	28.22
1020.567	41.98
1020.728	-10.14
1020.888	-32.42
1021.048	-10.53
1021.208	-8.59
1021.368	5.17
1021.528	46.82
1021.688	59.61
1021.848	47.21
1022.008	36.55
1022.168	-8.78
1022.328	18.92
1022.488	20.47
1022.648	-6.65
1022.808	19.5
1022.968	23.57
1023.128	-17.7
1023.288	-1.81
1023.448	24.54
1023.608	36.94
1023.767	34.81
1023.927	-13.24
1024.087	1.87
1024.247	-22.73
1024.406	2.84
1024.566	-16.92
1024.726	-19.44
1024.885	4.59
1025.045	42.17
1025.205	6.52
1025.364	7.49
1025.524	20.67
1025.683	-2.97
1025.843	5.75
1026.003	14.47
1026.162	32.68
1026.321	41.2
1026.481	15.05
1026.64	3.23
1026.8	13.5
1026.959	12.92
1027.119	10.4
1027.278	9.82
1027.437	0.9
1027.597	7.49
1027.756	10.98
1027.915	41.98
1028.074	26.48
1028.234	-11.5
1028.393	27.64
1028.552	-3.36
1028.711	-64.78
1028.87	62.52
1029.03	-31.65
1029.189	24.54
1029.348	-65.74
1029.507	-14.01
1029.666	-30.68
1029.825	-20.02
1029.984	-0.65
1030.143	20.09
1030.302	-28.16
1030.461	-23.51
1030.62	5.55
1030.779	38.1
1030.938	-6.65
1031.097	-21.96
1031.255	23.57
1031.414	56.12
1031.573	43.33
1031.732	-49.28
1031.891	-19.05
1032.049	49.53
1032.208	39.65
1032.367	-2.78
1032.525	-13.63
1032.684	-8.78
1032.843	4.2
1033.001	-53.73
1033.16	136.91
1033.319	53.8
1033.477	32.68
1033.636	17.76
1033.794	-50.44
1033.953	46.43
1034.111	27.25
1034.27	-6.26
1034.428	37.72
1034.587	-23.7
1034.745	22.22
1034.903	4.97
1035.062	14.08
1035.22	-26.8
1035.378	39.46
1035.537	-26.8
1035.695	28.42
1035.853	8.46
1036.011	27.06
1036.17	20.47
1036.328	-58.96
1036.486	7.1
1036.644	-0.45
1036.802	-67.88
1036.96	-23.31
1037.119	-28.93
1037.277	-5.88
1037.435	-41.72
1037.593	-47.53
1037.751	16.21
1037.909	23.38
1038.067	23.38
