Data from pine_FLMT105791__20__17-19-54-080.txt Node

Date: Mon Mar 20 17:19:54 GMT 2023
User: antho
Spectrometer: FLMT10579
Trigger mode: 0
Integration Time (sec): 1.000000E-1
Scans to average: 10
Electric dark correction enabled: true
Nonlinearity correction enabled: false
Boxcar width: 0
XAxis mode: Wavelengths
Number of Pixels in Spectrum: 3648
>>>>>Begin Spectral Data<<<<<
345.248	-176.31
345.464	-176.31
345.681	-176.31
345.898	-194.33
346.114	-164.69
346.331	-18.79
346.548	32.16
346.764	-21.12
346.981	-8.91
347.197	-1.94
347.414	3.29
347.631	-20.15
347.847	50.96
348.064	21.31
348.28	29.64
348.497	-53.09
348.713	-13.37
348.93	11.04
349.146	34.87
349.363	-7.17
349.579	8.14
349.796	9.69
350.012	-11.43
350.229	37.39
350.445	-5.42
350.661	7.75
350.878	-5.42
351.094	22.28
351.311	38.17
351.527	10.66
351.743	-5.23
351.96	47.66
352.176	56.57
352.392	34.1
352.609	39.33
352.825	2.91
353.041	-4.84
353.257	-12.98
353.474	16.47
353.69	9.3
353.906	12.01
354.122	-32.94
354.339	23.44
354.555	1.16
354.771	-32.55
354.987	50.96
355.203	63.94
355.42	12.21
355.636	-11.04
355.852	-18.79
356.068	0.58
356.284	-41.27
356.5	50.76
356.716	31.97
356.932	0.97
357.148	32.36
357.364	6.01
357.58	48.24
357.796	88.93
358.012	80.21
358.228	8.14
358.444	-50.96
358.66	60.64
358.876	49.41
359.092	23.83
359.308	11.62
359.524	12.4
359.74	17.05
359.956	-13.95
360.172	6.78
360.388	27.51
360.604	11.82
360.819	99.59
361.035	23.25
361.251	28.87
361.467	-17.82
361.683	39.52
361.898	21.51
362.114	55.02
362.33	-8.14
362.546	25.19
362.762	18.41
362.977	22.28
363.193	-34.87
363.409	29.64
363.624	0.19
363.84	-25.57
364.056	-23.44
364.271	45.92
364.487	18.41
364.703	-11.62
364.918	-33.52
365.134	-15.89
365.35	-17.63
365.565	124.19
365.781	5.42
365.996	19.37
366.212	78.66
366.427	19.37
366.643	4.65
366.858	4.26
367.074	-24.02
367.289	46.31
367.505	106.75
367.72	-22.67
367.936	17.05
368.151	48.82
368.367	20.92
368.582	10.07
368.798	-0.39
369.013	49.99
369.228	-6.78
369.444	23.44
369.659	78.66
369.874	36.62
370.09	59.48
370.305	-62
370.52	-27.12
370.736	61.42
370.951	19.57
371.166	41.07
371.381	82.54
371.597	50.76
371.812	4.26
372.027	-0.58
372.242	17.24
372.458	74.98
372.673	3.68
372.888	21.12
373.103	27.71
373.318	96.1
373.533	43.01
373.749	32.94
373.964	-22.67
374.179	62.19
374.394	-8.14
374.609	44.95
374.824	-0.77
375.039	47.66
375.254	9.11
375.469	77.11
375.684	43.98
375.899	79.82
376.114	11.82
376.329	48.24
376.544	45.34
376.759	62.58
376.974	8.72
377.189	18.41
377.404	13.17
377.619	34.1
377.834	-25.19
378.049	-27.71
378.264	-0.97
378.478	15.31
378.693	6.01
378.908	34.68
379.123	-3.1
379.338	63.36
379.553	35.07
379.767	40.69
379.982	47.86
380.197	60.06
380.412	21.89
380.626	37.01
380.841	107.92
381.056	27.51
381.271	92.22
381.485	2.32
381.7	-10.07
381.915	36.62
382.129	9.49
382.344	20.73
382.559	14.53
382.773	62.58
382.988	-25.77
383.202	24.61
383.417	-0.77
383.632	117.02
383.846	28.09
384.061	50.37
384.275	30.61
384.49	25.57
384.704	39.52
384.919	28.48
385.133	33.91
385.348	24.41
385.562	-19.18
385.777	56.38
385.991	32.74
386.206	20.73
386.42	15.5
386.634	64.52
386.849	27.32
387.063	38.94
387.277	7.36
387.492	-2.71
387.706	4.26
387.92	-21.31
388.135	55.99
388.349	29.64
388.563	38.36
388.778	22.47
388.992	66.65
389.206	63.36
389.42	103.85
389.635	34.29
389.849	56.77
390.063	80.6
390.277	49.99
390.491	77.11
390.706	61.03
390.92	42.24
391.134	52.51
391.348	63.16
391.562	-20.54
391.776	51.34
391.99	15.69
392.205	71.49
392.419	21.12
392.633	20.54
392.847	73.04
393.061	-2.91
393.275	80.6
393.489	16.08
393.703	31.58
393.917	53.67
394.131	6.59
394.345	62.58
394.559	78.27
394.773	17.44
394.986	58.71
395.2	16.08
395.414	51.34
395.628	7.75
395.842	49.02
396.056	33.13
396.27	-37.59
396.484	39.91
396.697	48.24
396.911	90.87
397.125	84.86
397.339	75.76
397.553	39.91
397.766	109.27
397.98	82.92
398.194	82.54
398.408	48.44
398.621	71.88
398.835	67.62
399.049	71.69
399.262	110.63
399.476	81.37
399.69	54.25
399.903	120.32
400.117	29.64
400.331	59.09
400.544	25.57
400.758	184.06
400.971	59.67
401.185	83.12
401.398	29.06
401.612	107.92
401.826	70.14
402.039	76.72
402.253	57.16
402.466	98.81
402.68	48.63
402.893	90.67
403.106	51.15
403.32	52.12
403.533	76.14
403.747	78.27
403.96	68.2
404.174	62.58
404.387	8.91
404.6	58.51
404.814	103.27
405.027	45.92
405.24	70.33
405.454	66.07
405.667	94.74
405.88	-2.13
406.094	56.19
406.307	62.58
406.52	74.21
406.733	19.76
406.947	12.79
407.16	136.01
407.373	127.68
407.586	20.34
407.799	32.16
408.012	94.94
408.226	78.86
408.439	101.52
408.652	13.76
408.865	81.37
409.078	91.06
409.291	83.31
409.504	17.44
409.717	91.25
409.93	99
410.143	78.66
410.357	10.07
410.57	24.8
410.783	69.56
410.996	65.49
411.209	96.87
411.421	107.34
411.634	53.67
411.847	52.12
412.06	80.02
412.273	78.08
412.486	53.86
412.699	168.75
412.912	63.16
413.125	113.92
413.338	66.46
413.55	99
413.763	68.97
413.976	87.38
414.189	56.57
414.402	69.17
414.615	141.63
414.827	48.82
415.04	95.52
415.253	97.45
415.466	97.45
415.678	158.87
415.891	86.8
416.104	95.52
416.316	81.57
416.529	55.61
416.742	80.02
416.954	123.61
417.167	80.41
417.38	87.57
417.592	110.24
417.805	55.8
418.017	44.95
418.23	127.68
418.442	58.9
418.655	75.56
418.868	80.02
419.08	137.37
419.293	145.31
419.505	97.26
419.718	94.16
419.93	127.1
420.142	69.17
420.355	150.54
420.567	145.12
420.78	101.14
420.992	102.88
421.205	163.33
421.417	84.09
421.629	82.73
421.842	52.31
422.054	67.23
422.266	131.94
422.479	138.53
422.691	88.35
422.903	128.26
423.115	83.31
423.328	116.64
423.54	112.37
423.752	97.45
423.964	77.89
424.177	129.23
424.389	102.49
424.601	223.58
424.813	143.18
425.025	167.2
425.238	142.02
425.45	95.9
425.662	113.92
425.874	405.32
426.086	109.66
426.298	144.54
426.51	119.54
426.722	101.33
426.934	80.99
427.146	153.25
427.358	79.24
427.57	161.78
427.782	110.24
427.994	111.6
428.206	106.17
428.418	55.99
428.63	130.97
428.842	158.29
429.054	134.85
429.266	160.42
429.478	101.52
429.69	136.79
429.902	109.85
430.114	161.59
430.325	150.15
430.537	87.38
430.749	128.84
430.961	44.17
431.173	89.7
431.384	133.49
431.596	52.7
431.808	128.65
432.02	117.02
432.231	140.85
432.443	180.57
432.655	156.35
432.867	114.89
433.078	159.65
433.29	225.91
433.502	181.93
433.713	169.92
433.925	170.11
434.136	212.93
434.348	111.99
434.56	101.72
434.771	236.76
434.983	114.89
435.194	132.52
435.406	162.55
435.617	194.72
435.829	213.12
436.04	199.17
436.252	188.71
436.463	247.03
436.675	226.49
436.886	192.39
437.098	205.37
437.309	234.24
437.521	200.72
437.732	181.35
437.943	191.23
438.155	171.27
438.366	142.4
438.578	243.73
438.789	186.38
439	231.14
439.211	163.72
439.423	181.54
439.634	216.42
439.845	244.32
440.057	204.02
440.268	234.43
440.479	152.29
440.69	189.29
440.902	187.74
441.113	188.13
441.324	178.05
441.535	225.72
441.746	265.24
441.957	204.6
442.168	201.69
442.38	220.48
442.591	250.32
442.802	194.13
443.013	188.9
443.224	246.25
443.435	204.98
443.646	181.35
443.857	209.83
444.068	211.38
444.279	184.06
444.49	309.22
444.701	249.16
444.912	332.28
445.123	257.88
445.334	240.63
445.545	251.29
445.756	239.67
445.967	203.05
446.178	246.45
446.388	285.58
446.599	248.19
446.81	274.35
447.021	221.45
447.232	268.15
447.443	302.05
447.653	228.04
447.864	287.33
448.075	237.92
448.286	284.61
448.496	285.97
448.707	276.09
448.918	253.42
449.129	356.69
449.339	245.48
449.55	279.58
449.761	279.96
449.971	315.42
450.182	246.06
450.393	304.96
450.603	265.82
450.814	322.98
451.024	296.63
451.235	299.73
451.446	349.52
451.656	363.28
451.867	292.75
452.077	316.39
452.288	352.23
452.498	334.99
452.709	251.29
452.919	284.03
453.13	285
453.34	329.95
453.55	237.73
453.761	305.54
453.971	285.97
454.182	338.09
454.392	328.6
454.602	346.61
454.813	323.36
455.023	323.75
455.233	215.83
455.444	309.41
455.654	247.8
455.864	321.04
456.075	281.9
456.285	280.93
456.495	299.15
456.705	337.31
456.916	381.88
457.126	392.92
457.336	327.43
457.546	254.97
457.756	277.06
457.967	339.06
458.177	280.35
458.387	303.02
458.597	264.85
458.807	288.68
459.017	330.34
459.227	302.83
459.437	307.67
459.647	350.88
459.857	343.13
460.068	295.66
460.278	353.39
460.488	332.28
460.698	382.84
460.908	334.6
461.117	269.5
461.327	318.13
461.537	328.79
461.747	359.59
461.957	325.3
462.167	434.19
462.377	388.66
462.587	354.17
462.797	376.84
463.007	344.48
463.216	363.66
463.426	386.53
463.636	400.48
463.846	293.33
464.056	349.91
464.265	384.78
464.475	346.03
464.685	357.27
464.895	372.58
465.104	342.55
465.314	390.98
465.524	338.09
465.733	338.28
465.943	408.03
466.153	437.48
466.362	407.84
466.572	361.34
466.782	388.27
466.991	381.29
467.201	386.14
467.41	331.7
467.62	402.22
467.829	383.81
468.039	394.47
468.249	354.36
468.458	359.4
468.668	409.39
468.877	419.08
469.086	424.31
469.296	430.51
469.505	365.21
469.715	435.16
469.924	420.82
470.134	459.57
470.343	458.02
470.552	389.43
470.762	412.88
470.971	385.75
471.18	393.5
471.39	412.29
471.599	403.19
471.808	427.79
472.018	401.06
472.227	458.41
472.436	451.04
472.645	426.63
472.855	405.51
473.064	459.18
473.273	446.97
473.482	453.76
473.691	467.12
473.901	471.77
474.11	468.48
474.319	541.72
474.528	450.66
474.737	522.15
474.946	492.51
475.155	464.22
475.364	520.6
475.573	491.15
475.783	507.81
475.992	485.34
476.201	503.36
476.41	507.81
476.619	450.27
476.828	465.57
477.037	461.89
477.245	504.91
477.454	519.05
477.663	469.64
477.872	497.35
478.081	520.6
478.29	449.3
478.499	595.19
478.708	522.34
478.917	588.41
479.125	529.9
479.334	546.56
479.543	509.94
479.752	542.49
479.961	525.83
480.169	582.99
480.378	517.5
480.587	672.69
480.796	570.2
481.004	551.79
481.213	558.57
481.422	584.92
481.63	594.61
481.839	621.15
482.048	643.24
482.256	604.1
482.465	619.02
482.674	603.72
482.882	607.79
483.091	667.85
483.299	641.5
483.508	655.64
483.716	651.57
483.925	648.86
484.134	586.47
484.342	574.46
484.551	650.41
484.759	648.86
484.967	653.9
485.176	668.82
485.384	650.99
485.593	669.78
485.801	654.28
486.01	617.67
486.218	607.01
486.426	546.17
486.635	582.99
486.843	586.09
487.051	583.76
487.26	584.34
487.468	653.12
487.676	631.23
487.885	590.74
488.093	647.7
488.301	663.39
488.509	656.42
488.717	700.01
488.926	651.38
489.134	614.18
489.342	676.57
489.55	667.27
489.758	694.58
489.967	669.01
490.175	787.39
490.383	694.58
490.591	793.98
490.799	675.4
491.007	766.85
491.215	731.78
491.423	736.24
491.631	721.13
491.839	718.61
492.047	756.78
492.255	684.9
492.463	679.08
492.671	682.38
492.879	794.75
493.087	756.58
493.295	756
493.503	781.19
493.711	783.13
493.919	811.99
494.127	794.36
494.334	808.51
494.542	720.16
494.75	790.49
494.958	764.53
495.166	853.07
495.374	799.79
495.581	799.98
495.789	803.08
495.997	826.53
496.205	819.55
496.412	776.93
496.62	804.44
496.828	816.64
497.035	772.28
497.243	834.28
497.451	789.13
497.658	813.74
497.866	815.68
498.074	868.38
498.281	760.85
498.489	870.89
498.696	792.43
498.904	822.46
499.112	816.06
499.319	868.38
499.527	835.24
499.734	863.73
499.942	793.98
500.149	796.11
500.357	839.31
500.564	802.89
500.771	853.46
500.979	805.02
501.186	797.85
501.394	842.61
501.601	810.25
501.808	849.78
502.016	836.21
502.223	808.7
502.43	841.64
502.638	846.87
502.845	784.48
503.052	890.66
503.26	847.06
503.467	971.06
503.674	857.72
503.881	894.34
504.089	940.45
504.296	869.54
504.503	825.75
504.71	841.64
504.917	796.69
505.125	892.79
505.332	879.22
505.539	886.01
505.746	981.91
505.953	920.3
506.16	932.12
506.367	951.69
506.574	983.27
506.781	983.07
506.988	873.41
507.195	936.77
507.402	930.18
507.609	968.54
507.816	901.51
508.023	914.68
508.23	893.56
508.437	863.34
508.644	940.84
508.851	992.57
509.058	964.47
509.265	942.39
509.472	938.12
509.679	1031.9
509.885	941.61
510.092	934.44
510.299	952.46
510.506	966.8
510.713	983.07
510.92	986.17
511.126	994.5
511.333	1039.07
511.54	1015.24
511.746	1041.2
511.953	1041.78
512.16	1044.88
512.367	984.62
512.573	978.42
512.78	982.1
512.987	997.22
513.193	984.82
513.4	942.19
513.606	1022.21
513.813	1007.1
514.02	987.14
514.226	1103.97
514.433	1070.65
514.639	995.28
514.846	1002.84
515.052	997.02
515.259	1013.49
515.465	1019.11
515.672	1022.02
515.878	1127.8
516.085	1029.96
516.291	1088.67
516.497	1005.55
516.704	1034.42
516.91	976.1
517.117	951.49
517.323	906.35
517.529	948.78
517.736	927.08
517.942	974.55
518.148	982.1
518.354	1004.19
518.561	1035.39
518.767	1011.36
518.973	1052.82
519.179	1038.87
519.386	997.41
519.592	1024.15
519.798	1024.15
520.004	1148.53
520.21	1041.78
520.417	1094.67
520.623	1174.11
520.829	1130.32
521.035	1123.15
521.241	1156.86
521.447	1170.81
521.653	1242.11
521.859	1127.42
522.065	1162.68
522.271	1255.09
522.477	1181.86
522.683	1232.62
522.889	1190.38
523.095	1150.47
523.301	1178.18
523.507	1163.45
523.713	1195.81
523.919	1146.6
524.125	1223.71
524.331	1169.85
524.537	1281.44
524.742	1253.35
524.948	1282.61
525.154	1226.81
525.36	1387.04
525.566	1256.84
525.772	1309.15
525.977	1250.25
526.183	1313.61
526.389	1291.52
526.595	1224.87
526.8	1233.98
527.006	1187.86
527.212	1150.28
527.417	1127.22
527.623	1132.65
527.829	1245.21
528.034	1247.93
528.24	1235.72
528.446	1239.01
528.651	1305.28
528.857	1296.17
529.062	1362.82
529.268	1310.31
529.473	1338.79
529.679	1301.98
529.884	1427.92
530.09	1386.65
530.295	1425.79
530.501	1369.41
530.706	1372.7
530.912	1331.62
531.117	1337.05
531.323	1339.76
531.528	1376.96
531.733	1388.59
531.939	1323.87
532.144	1397.89
532.35	1359.33
532.555	1409.51
532.76	1379.09
532.966	1396.53
533.171	1344.99
533.376	1339.96
533.581	1297.14
533.787	1353.91
533.992	1390.72
534.197	1399.63
534.402	1341.7
534.607	1382
534.813	1480.81
535.018	1408.15
535.223	1384.13
535.428	1410.48
535.633	1427.34
535.838	1448.84
536.043	1446.52
536.249	1521.69
536.454	1473.25
536.659	1475.58
536.864	1406.02
537.069	1431.4
537.274	1426.56
537.479	1443.8
537.684	1477.71
537.889	1392.27
538.094	1543.58
538.299	1427.53
538.504	1465.89
538.708	1493.98
538.913	1526.15
539.118	1437.8
539.323	1434.31
539.528	1445.16
539.733	1432.37
539.938	1464.92
540.142	1475.77
540.347	1434.89
540.552	1417.45
540.757	1437.41
540.962	1437.6
541.166	1386.84
541.371	1401.37
541.576	1450.39
541.781	1357.59
541.985	1440.12
542.19	1434.31
542.395	1516.07
542.599	1543.58
542.804	1471.51
543.008	1535.25
543.213	1452.72
543.418	1428.11
543.622	1502.51
543.827	1397.69
544.031	1531.77
544.236	1535.64
544.44	1498.05
544.645	1579.04
544.849	1468.8
545.054	1506
545.258	1610.04
545.463	1557.34
545.667	1481.39
545.872	1534.87
546.076	1521.3
546.281	1503.28
546.485	1499.99
546.689	1531.18
546.894	1555.4
547.098	1515.88
547.302	1502.32
547.507	1531.18
547.711	1558.7
547.915	1558.12
548.119	1513.36
548.324	1544.17
548.528	1580.4
548.732	1534.28
548.936	1570.52
549.141	1572.45
549.345	1523.82
549.549	1568.77
549.753	1562.38
549.957	1623.02
550.161	1605.58
550.366	1558.5
550.57	1532.93
550.774	1557.92
550.978	1547.27
551.182	1557.15
551.386	1543.97
551.59	1559.28
551.794	1548.62
551.998	1580.01
552.202	1542.42
552.406	1512.39
552.61	1591.83
552.814	1545.52
553.018	1634.26
553.222	1548.43
553.426	1567.03
553.63	1648.6
553.833	1572.07
554.037	1457.17
554.241	1579.81
554.445	1605
554.649	1559.67
554.853	1513.94
555.056	1624.18
555.26	1581.75
555.464	1552.69
555.668	1573.81
555.871	1639.49
556.075	1617.01
556.279	1515.49
556.483	1512
556.686	1569.55
556.89	1540.87
557.094	1541.65
557.297	1498.83
557.501	1567.61
557.704	1491.08
557.908	1553.66
558.112	1498.05
558.315	1590.28
558.519	1509.87
558.722	1535.06
558.926	1496.89
559.129	1448.26
559.333	1459.3
559.536	1447.1
559.74	1454.27
559.943	1435.28
560.147	1418.62
560.35	1451.17
560.553	1443.8
560.757	1404.86
560.96	1529.44
561.164	1481.2
561.367	1524.98
561.57	1476.55
561.774	1490.5
561.977	1463.95
562.18	1426.56
562.384	1549.78
562.587	1459.5
562.79	1453.1
562.993	1471.32
563.197	1520.72
563.4	1561.6
563.603	1505.03
563.806	1537
564.009	1461.05
564.212	1486.23
564.416	1415.9
564.619	1455.62
564.822	1388.78
565.025	1483.33
565.228	1420.36
565.431	1475.97
565.634	1363.79
565.837	1423.65
566.04	1361.46
566.243	1384.13
566.446	1355.26
566.649	1453.49
566.852	1394.59
567.055	1417.26
567.258	1429.27
567.461	1481.59
567.664	1453.49
567.867	1374.06
568.07	1442.25
568.273	1431.4
568.475	1448.26
568.678	1368.05
568.881	1351.77
569.084	1372.89
569.287	1275.83
569.489	1303.14
569.692	1384.91
569.895	1367.47
570.098	1330.07
570.3	1330.07
570.503	1279.7
570.706	1291.33
570.909	1290.16
571.111	1237.08
571.314	1247.34
571.516	1265.94
571.719	1313.02
571.922	1264.98
572.124	1287.45
572.327	1288.61
572.529	1238.63
572.732	1253.54
572.935	1297.53
573.137	1378.51
573.34	1266.91
573.542	1362.62
573.745	1312.44
573.947	1309.15
574.15	1307.02
574.352	1244.83
574.554	1302.95
574.757	1228.16
574.959	1209.18
575.162	1248.89
575.364	1212.08
575.566	1334.14
575.769	1268.08
575.971	1259.16
576.173	1170.23
576.376	1220.03
576.578	1270.79
576.78	1284.93
576.982	1165.58
577.185	1279.31
577.387	1160.16
577.589	1196.97
577.791	1242.5
577.993	1270.98
578.196	1199.49
578.398	1214.8
578.6	1258.39
578.802	1181.66
579.004	1156.67
579.206	1177.01
579.408	1222.16
579.61	1166.94
579.812	1231.26
580.014	1153.38
580.216	1178.95
580.418	1190.19
580.62	1210.15
580.822	1162.48
581.024	1209.37
581.226	1215.96
581.428	1207.24
581.63	1250.06
581.832	1193.1
582.034	1267.11
582.236	1169.07
582.438	1237.27
582.64	1257.61
582.841	1282.03
583.043	1323.49
583.245	1258.19
583.447	1290.36
583.649	1252.77
583.85	1262.26
584.052	1274.66
584.254	1227.58
584.456	1312.25
584.657	1184.18
584.859	1233.78
585.061	1190.58
585.262	1190.19
585.464	1166.55
585.666	1256.64
585.867	1184.38
586.069	1282.22
586.27	1270.21
586.472	1227.39
586.674	1191.93
586.875	1200.07
587.077	1160.35
587.278	1231.26
587.48	1185.54
587.681	1262.26
587.883	1250.64
588.084	1133.23
588.285	1186.7
588.487	1150.28
588.688	1177.21
588.89	1093.51
589.091	1095.64
589.292	1088.08
589.494	1043.91
589.695	1047.98
589.896	985.2
590.098	1005.35
590.299	1050.5
590.5	1013.49
590.702	1031.12
590.903	1100.1
591.104	1101.65
591.305	1121.8
591.507	1129.93
591.708	1116.57
591.909	1090.99
592.11	1198.91
592.311	1136.91
592.512	1082.66
592.714	1050.5
592.915	1114.05
593.116	1082.47
593.317	1100.68
593.518	1088.47
593.719	1115.98
593.92	1155.51
594.121	1137.3
594.322	1096.03
594.523	1120.05
594.724	1066.58
594.925	1093.12
595.126	1097.19
595.327	1105.91
595.528	1100.29
595.729	1109.01
595.929	1117.53
596.13	1133.23
596.331	1113.08
596.532	1086.53
596.733	1172.75
596.934	1147.56
597.135	1151.63
597.335	1119.08
597.536	1072.39
597.737	1102.23
597.938	1069.87
598.138	1116.57
598.339	1109.59
598.54	1126.06
598.74	1099.13
598.941	1089.05
599.142	1175.85
599.342	1139.04
599.543	1085.37
599.744	1088.67
599.944	1087.89
600.145	1134.78
600.345	1103.2
600.546	1169.85
600.746	1173.14
600.947	1181.08
601.147	1095.83
601.348	1152.02
601.548	1077.23
601.749	1100.29
601.949	1057.86
602.15	1073.17
602.35	1090.02
602.551	1116.76
602.751	1078.01
602.951	1040.81
603.152	1052.82
603.352	1126.83
603.552	1087.89
603.753	1093.51
603.953	1119.67
604.153	1115.98
604.354	1117.92
604.554	1097.58
604.754	1127.8
604.954	1053.79
605.155	1107.85
605.355	1109.01
605.555	1131.1
605.755	1208.01
605.955	1090.8
606.155	1127.8
606.356	1083.43
606.556	1158.8
606.756	1132.07
606.956	1072.97
607.156	1149.11
607.356	1024.15
607.556	1116.76
607.756	1124.12
607.956	1159.19
608.156	1119.47
608.356	1067.35
608.556	1112.3
608.756	1101.65
608.956	1044.3
609.156	1084.4
609.356	1021.24
609.556	1047.98
609.755	1103
609.955	1039.45
610.155	1084.79
610.355	1048.95
610.555	1051.47
610.755	1069.29
610.954	990.24
611.154	1059.8
611.354	1066
611.554	1060.57
611.753	1053.02
611.953	1010.97
612.153	1092.93
612.352	1060.77
612.552	967.96
612.752	962.73
612.951	1028.02
613.151	1043.14
613.351	963.89
613.55	1041.2
613.75	1024.34
613.949	992.18
614.149	1024.92
614.348	994.31
614.548	953.62
614.747	927.86
614.947	964.09
615.146	942.39
615.346	1043.72
615.545	1004.58
615.745	1021.24
615.944	1054.95
616.144	980.17
616.343	1021.82
616.542	964.67
616.742	962.15
616.941	1009.04
617.14	926.11
617.34	993.34
617.539	982.3
617.738	940.45
617.938	1035
618.137	980.94
618.336	916.42
618.535	1016.79
618.734	980.55
618.934	1020.08
619.133	957.31
619.332	1012.52
619.531	942
619.73	959.05
619.929	994.89
620.128	1000.7
620.328	1013.3
620.527	946.26
620.726	974.74
620.925	990.82
621.124	929.02
621.323	989.27
621.522	912.74
621.721	913.91
621.92	911.39
622.119	1014.46
622.318	933.28
622.517	943.36
622.715	948.2
622.914	911
623.113	940.84
623.312	875.54
623.511	952.66
623.71	922.43
623.909	923.59
624.107	1007.29
624.306	894.53
624.505	934.83
624.704	920.69
624.902	935.99
625.101	978.42
625.3	913.32
625.499	890.66
625.697	916.23
625.896	879.42
626.095	952.07
626.293	855.2
626.492	887.94
626.69	933.47
626.889	920.88
627.088	935.02
627.286	856.17
627.485	896.08
627.683	855.78
627.882	935.99
628.08	819.74
628.279	854.43
628.477	914.1
628.676	827.3
628.874	871.09
629.073	836.41
629.271	817.61
629.469	875.16
629.668	859.46
629.866	846.68
630.065	853.46
630.263	886.78
630.461	830.21
630.66	873.99
630.858	910.61
631.056	880.77
631.254	900.73
631.453	834.86
631.651	898.41
631.849	861.79
632.047	873.99
632.245	861.79
632.444	894.34
632.642	903.83
632.84	908.87
633.038	880.58
633.236	821.49
633.434	840.28
633.632	867.6
633.83	854.23
634.028	935.99
634.227	863.34
634.425	931.92
634.623	878.64
634.821	871.28
635.019	917.2
635.216	851.52
635.414	948.78
635.612	872.64
635.81	865.08
636.008	935.22
636.206	889.88
636.404	904.02
636.602	810.83
636.8	873.03
636.997	928.05
637.195	883.68
637.393	872.44
637.591	939.09
637.789	867.21
637.986	878.26
638.184	882.52
638.382	908.29
638.58	922.24
638.777	936.77
638.975	856.36
639.173	872.44
639.37	877.67
639.568	874.96
639.765	893.56
639.963	864.89
640.161	899.37
640.358	904.41
640.556	842.61
640.753	814.32
640.951	802.89
641.148	899.96
641.346	847.84
641.543	849.78
641.741	880.97
641.938	833.69
642.136	862.37
642.333	828.85
642.531	892.01
642.728	901.31
642.925	842.61
643.123	847.06
643.32	834.66
643.517	850.74
643.715	873.61
643.912	816.45
644.109	856.56
644.306	847.84
644.504	808.7
644.701	824.59
644.898	847.64
645.095	798.82
645.293	832.34
645.49	830.01
645.687	823.62
645.884	888.52
646.081	764.14
646.278	788.74
646.475	817.03
646.672	806.96
646.87	830.98
647.067	800.37
647.264	813.54
647.461	776.54
647.658	756
647.855	830.4
648.052	812.38
648.249	726.55
648.446	763.75
648.642	763.95
648.839	767.63
649.036	743.02
649.233	737.6
649.43	730.62
649.627	694.39
649.824	742.25
650.021	744.38
650.217	725.39
650.414	724.61
650.611	762.59
650.808	769.76
651.004	729.07
651.201	762.98
651.398	850.16
651.595	738.56
651.791	743.41
651.988	795.72
652.185	738.76
652.381	772.86
652.578	719.19
652.775	786.23
652.971	730.04
653.168	763.75
653.364	783.71
653.561	686.25
653.757	739.15
653.954	748.45
654.15	697.1
654.347	807.34
654.543	759.49
654.74	679.47
654.936	678.5
655.133	718.22
655.329	729.46
655.525	716.09
655.722	779.45
655.918	686.45
656.115	724.81
656.311	673.27
656.507	605.46
656.704	586.28
656.9	651.57
657.096	640.72
657.292	646.53
657.489	688.97
657.685	686.83
657.881	676.18
658.077	677.92
658.273	678.12
658.47	756.78
658.666	666.49
658.862	739.15
659.058	688
659.254	740.7
659.45	691.1
659.646	725.78
659.842	679.67
660.038	756.78
660.234	673.85
660.43	720.16
660.626	765.3
660.822	725.78
661.018	750.38
661.214	724.61
661.41	681.22
661.606	738.37
661.802	748.45
661.998	703.69
662.194	716.28
662.39	751.93
662.586	736.05
662.781	756.39
662.977	747.67
663.173	751.16
663.369	696.13
663.564	703.88
663.76	752.9
663.956	680.63
664.152	755.42
664.347	645.37
664.543	711.83
664.739	694.97
664.934	674.63
665.13	659.52
665.326	706.01
665.521	715.31
665.717	660.68
665.912	694.78
666.108	616.31
666.304	669.2
666.499	686.64
666.695	607.2
666.89	679.47
667.086	722.1
667.281	722.29
667.477	754.45
667.672	663.2
667.867	680.83
668.063	674.05
668.258	653.7
668.454	668.04
668.649	756.2
668.844	673.27
669.04	713.38
669.235	657.77
669.43	631.23
669.626	647.7
669.821	648.67
670.016	611.47
670.211	692.45
670.407	652.35
670.602	671.53
670.797	656.8
670.992	688
671.187	625.61
671.382	683.73
671.578	676.95
671.773	688.77
671.968	617.67
672.163	662.62
672.358	669.78
672.553	645.76
672.748	641.69
672.943	737.79
673.138	659.32
673.333	669.98
673.528	633.94
673.723	696.91
673.918	652.35
674.113	615.15
674.308	709.89
674.503	675.21
674.698	675.98
674.892	675.4
675.087	677.73
675.282	643.63
675.477	644.21
675.672	653.9
675.867	640.33
676.061	593.25
676.256	597.32
676.451	613.02
676.646	653.32
676.84	619.41
677.035	623.48
677.23	597.32
677.424	643.63
677.619	685.09
677.814	713.38
678.008	690.9
678.203	576.4
678.397	597.71
678.592	677.15
678.787	674.24
678.981	627.74
679.176	657.19
679.37	664.36
679.565	607.4
679.759	622.51
679.954	645.37
680.148	694.2
680.342	662.81
680.537	699.04
680.731	646.53
680.926	673.85
681.12	669.2
681.314	605.27
681.509	622.12
681.703	650.8
681.897	628.13
682.092	640.33
682.286	613.02
682.48	681.8
682.674	687.61
682.869	621.73
683.063	618.25
683.257	725.97
683.451	632.2
683.645	650.8
683.839	643.82
684.034	651.96
684.228	697.88
684.422	617.28
684.616	616.5
684.81	669.01
685.004	659.13
685.198	656.61
685.392	670.37
685.586	659.71
685.78	668.23
685.974	654.28
686.168	664.94
686.362	708.73
686.556	617.08
686.75	575.24
686.944	588.99
687.138	574.46
687.331	502.97
687.525	530.09
687.719	452.59
687.913	519.63
688.107	520.02
688.301	515.76
688.494	545.01
688.688	504.32
688.882	495.8
689.076	495.8
689.269	543.65
689.463	607.79
689.657	546.17
689.85	511.3
690.044	560.32
690.238	548.11
690.431	532.61
690.625	520.99
690.818	572.33
691.012	560.12
691.205	612.24
691.399	562.64
691.593	621.35
691.786	666.1
691.98	658.16
692.173	696.33
692.366	627.35
692.56	665.33
692.753	712.41
692.947	616.7
693.14	701.56
693.333	697.88
693.527	618.63
693.72	686.64
693.914	644.02
694.107	691.48
694.3	673.27
694.493	650.99
694.687	724.23
694.88	641.88
695.073	766.66
695.266	734.69
695.46	697.68
695.653	757.55
695.846	819.16
696.039	662.23
696.232	737.21
696.425	778.67
696.618	777.31
696.812	784.1
697.005	791.46
697.198	903.44
697.391	836.79
697.584	828.27
697.777	861.4
697.97	843.38
698.163	882.32
698.356	867.99
698.549	964.28
698.742	910.61
698.935	880.19
699.127	902.47
699.32	844.16
699.513	860.63
699.706	905.19
699.899	920.11
700.092	843.96
700.285	953.82
700.477	886.01
700.67	957.69
700.863	917.2
701.056	995.86
701.248	993.92
701.441	984.04
701.634	921.85
701.826	1056.7
702.019	918.56
702.212	1033.45
702.404	961.18
702.597	957.11
702.79	985.01
702.982	999.35
703.175	1049.92
703.367	1019.3
703.56	1079.75
703.752	1154.54
703.945	1109.4
704.137	1134.2
704.33	1111.33
704.522	1154.93
704.715	1112.88
704.907	1177.01
705.1	1199.1
705.292	1221.96
705.484	1128.19
705.677	1215.38
705.869	1203.56
706.061	1224.87
706.254	1246.57
706.446	1188.45
706.638	1219.25
706.831	1273.11
707.023	1231.46
707.215	1345.96
707.407	1325.42
707.599	1321.55
707.792	1337.82
707.984	1334.53
708.176	1367.66
708.368	1329.3
708.56	1377.74
708.752	1375.41
708.944	1338.79
709.136	1414.16
709.329	1385.68
709.521	1490.5
709.713	1431.4
709.905	1482.94
710.097	1505.22
710.289	1451.36
710.481	1471.51
710.672	1476.74
710.864	1455.24
711.056	1558.7
711.248	1519.75
711.44	1513.94
711.632	1506.19
711.824	1569.16
712.016	1584.85
712.207	1583.5
712.399	1552.3
712.591	1673.98
712.783	1604.42
712.975	1648.4
713.166	1568.38
713.358	1618.95
713.55	1660.22
713.741	1669.52
713.933	1654.41
714.125	1633.29
714.316	1636
714.508	1739.27
714.7	1724.93
714.891	1751.67
715.083	1798.36
715.274	1716.99
715.466	1742.56
715.657	1751.67
715.849	1691.22
716.04	1728.42
716.232	1654.21
716.423	1721.83
716.615	1602.48
716.806	1632.13
716.998	1584.46
717.189	1566.25
717.381	1519.95
717.572	1434.31
717.763	1529.25
717.955	1469.38
718.146	1434.31
718.337	1417.65
718.528	1352.55
718.72	1291.52
718.911	1383.55
719.102	1297.14
719.293	1374.64
719.485	1362.62
719.676	1404.47
719.867	1359.91
720.058	1327.36
720.249	1341.7
720.44	1348.29
720.632	1367.86
720.823	1455.04
721.014	1547.27
721.205	1564.51
721.396	1596.28
721.587	1727.26
721.778	1731.52
721.969	1749.34
722.16	1755.54
722.351	1820.06
722.542	1904.92
722.733	1918.29
722.924	1786.54
723.115	1863.85
723.305	1850.67
723.496	1848.93
723.687	1780.54
723.878	1783.25
724.069	1763.87
724.26	1772.4
724.45	1707.3
724.641	1727.06
724.832	1718.34
725.023	1717.57
725.213	1723.77
725.404	1698.58
725.595	1776.08
725.785	1686.96
725.976	1793.71
726.167	1740.63
726.357	1768.14
726.548	1849.7
726.739	1759.42
726.929	1834.4
727.12	1873.34
727.31	1867.72
727.501	1823.74
727.691	1831.3
727.882	1878.96
728.072	1854.55
728.263	1884.58
728.453	1921.97
728.644	1923.91
728.834	1913.06
729.024	1868.69
729.215	1852.03
729.405	1895.04
729.596	1958.01
729.786	1997.53
729.976	1948.32
730.167	2007.42
730.357	1954.72
730.547	1982.23
730.737	1993.47
730.928	2004.7
731.118	2043.26
731.308	2036.67
731.498	2005.48
731.688	2140.33
731.879	2096.54
732.069	2159.89
732.259	2182.18
732.449	2174.04
732.639	2277.69
732.829	2280.02
733.019	2340.66
733.209	2374.37
733.399	2350.35
733.589	2431.33
733.779	2420.1
733.969	2412.73
734.159	2436.76
734.349	2524.72
734.539	2567.34
734.729	2545.64
734.919	2569.48
735.109	2611.33
735.299	2583.23
735.488	2574.71
735.678	2597.38
735.868	2606.48
736.058	2553.39
736.248	2546.81
736.437	2509.8
736.627	2531.89
736.817	2690.37
737.007	2599.12
737.196	2605.13
737.386	2617.72
737.576	2566.18
737.765	2666.35
737.955	2623.34
738.144	2736.49
738.334	2700.45
738.524	2642.32
738.713	2686.89
738.903	2646.59
739.092	2687.86
739.282	2673.13
739.471	2710.52
739.661	2676.62
739.85	2722.15
740.04	2717.89
740.229	2736.87
740.419	2764.19
740.608	2806.43
740.797	2732.42
740.987	2849.83
741.176	2805.27
741.365	2777.56
741.555	2721.95
741.744	2821.35
741.933	2770.2
742.123	2786.67
742.312	2796.35
742.501	2846.92
742.69	2841.5
742.88	2740.75
743.069	2838.01
743.258	2813.4
743.447	2914.93
743.636	2931.4
743.825	2848.08
744.014	2852.15
744.204	2896.91
744.393	2823.09
744.582	2900.98
744.771	2947.48
744.96	2863.39
745.149	2915.51
745.338	2829.48
745.527	2891.68
745.716	2862.42
745.905	2897.88
746.094	2910.86
746.283	2880.63
746.471	2910.66
746.66	2966.66
746.849	2919.96
747.038	2962.2
747.227	2889.16
747.416	2924.61
747.604	2856.03
747.793	2889.55
747.982	2917.64
748.171	2898.46
748.359	2953.48
748.548	2959.1
748.737	2931.4
748.926	2896.71
749.114	2867.07
749.303	2924.61
749.491	2851.38
749.68	2865.91
749.869	2916.67
750.057	2871.92
750.246	2876.18
750.434	2840.33
750.623	2867.85
750.811	2819.8
751	2896.33
751.188	2883.35
751.377	2887.22
751.565	2849.25
751.754	2830.65
751.942	2826
752.131	2865.52
752.319	2777.75
752.507	2798.87
752.696	2824.06
752.884	2894.97
753.072	2853.32
753.261	2870.75
753.449	2845.57
753.637	2838.01
753.825	2918.22
754.014	2825.8
754.202	2830.65
754.39	2859.13
754.578	2856.61
754.766	2822.7
754.955	2840.14
755.143	2877.73
755.331	2828.32
755.519	2833.75
755.707	2815.73
755.895	2822.51
756.083	2814.37
756.271	2759.35
756.459	2756.05
756.647	2795.39
756.835	2779.89
757.023	2771.55
757.211	2760.7
757.399	2754.12
757.587	2750.63
757.775	2715.37
757.963	2752.57
758.151	2736.1
758.339	2688.05
758.526	2686.31
758.714	2702.97
758.902	2589.82
759.09	2552.81
759.278	2408.47
759.465	2224.02
759.653	1928.37
759.841	1793.71
760.028	1479.84
760.216	1288.42
760.404	1266.53
760.591	1015.82
760.779	849
760.967	715.7
761.154	608.37
761.342	647.7
761.529	654.67
761.717	710.28
761.905	733.91
762.092	759.1
762.28	710.47
762.467	720.55
762.655	657.97
762.842	677.92
763.029	679.47
763.217	693.81
763.404	699.81
763.592	754.84
763.779	657.38
763.966	715.9
764.154	776.35
764.341	838.73
764.528	811.61
764.716	859.27
764.903	897.82
765.09	946.84
765.277	1009.23
765.465	1144.46
765.652	1184.38
765.839	1273.69
766.026	1305.28
766.213	1343.64
766.4	1456.79
766.588	1653.63
766.775	1622.83
766.962	1711.56
767.149	1748.76
767.336	1902.79
767.523	1843.12
767.71	1939.99
767.897	2050.23
768.084	2103.51
768.271	2127.93
768.458	2159.51
768.645	2265.68
768.832	2177.72
769.019	2233.32
769.206	2270.72
769.392	2298.62
769.579	2386
769.766	2363.33
769.953	2381.35
770.14	2446.25
770.327	2393.94
770.513	2422.03
770.7	2439.28
770.887	2436.76
771.073	2430.56
771.26	2415.06
771.447	2438.7
771.634	2415.45
771.82	2541.77
772.007	2437.92
772.193	2450.51
772.38	2483.06
772.567	2420.29
772.753	2454.58
772.94	2482.48
773.126	2502.25
773.313	2531.5
773.499	2480.35
773.686	2472.21
773.872	2443.15
774.059	2482.87
774.245	2416.61
774.432	2467.95
774.618	2383.87
774.804	2436.95
774.991	2400.72
775.177	2466.01
775.363	2369.33
775.55	2446.64
775.736	2376.12
775.922	2398.59
776.109	2434.63
776.295	2417.38
776.481	2436.76
776.667	2441.41
776.853	2396.46
777.04	2370.11
777.226	2349.57
777.412	2465.05
777.598	2325.55
777.784	2385.22
777.97	2366.04
778.156	2389.48
778.342	2360.03
778.528	2354.42
778.715	2322.45
778.901	2334.46
779.087	2368.56
779.272	2293.19
779.458	2324.77
779.644	2357.32
779.83	2338.14
780.016	2401.5
780.202	2330
780.388	2328.26
780.574	2271.69
780.76	2271.69
780.946	2305.59
781.131	2338.92
781.317	2305.59
781.503	2273.43
781.689	2291.64
781.874	2381.93
782.06	2244.95
782.246	2279.63
782.432	2237.01
782.617	2256.38
782.803	2357.52
782.989	2187.02
783.174	2221.7
783.36	2200.39
783.545	2209.88
783.731	2237.01
783.916	2158.73
784.102	2220.73
784.288	2169.39
784.473	2211.24
784.659	2161.06
784.844	2218.21
785.029	2151.56
785.215	2182.18
785.4	2113.59
785.586	2211.04
785.771	2130.06
785.956	2206.01
786.142	2136.45
786.327	2129.28
786.512	2142.07
786.698	2157.38
786.883	2061.86
787.068	2088.98
787.254	2118.24
787.439	2091.11
787.624	2109.52
787.809	2081.04
787.994	2081.04
788.18	2142.84
788.365	2044.23
788.55	2028.73
788.735	2083.95
788.92	2068.45
789.105	2008
789.29	2071.74
789.475	1975.83
789.66	1996.95
789.845	2001.6
790.03	1974.87
790.215	2013.23
790.4	2045.58
790.585	2045.58
790.77	1971.96
790.955	1938.25
791.14	1991.33
791.325	2067.28
791.51	1890.39
791.695	1990.95
791.879	1952.58
792.064	1951.03
792.249	2032.8
792.434	1965.76
792.618	1955.68
792.803	2006.83
792.988	1967.5
793.173	1962.85
793.357	2006.25
793.542	1928.17
793.727	1985.72
793.911	2009.55
794.096	1954.72
794.281	2044.03
794.465	2081.04
794.65	2001.6
794.834	1970.22
795.019	2029.7
795.203	1985.91
795.388	2013.81
795.572	2032.6
795.757	2014.58
795.941	2036.28
796.126	2023.69
796.31	1961.11
796.494	2026.21
796.679	1969.63
796.863	1927.01
797.048	2048.49
797.232	1985.72
797.416	2010.9
797.601	1995.02
797.785	2067.28
797.969	2047.33
798.153	1975.25
798.338	2019.04
798.522	2057.79
798.706	2052.95
798.89	2055.85
799.074	2087.24
799.258	2086.85
799.443	2020.2
799.627	2048.49
799.811	2059.53
799.995	2006.83
800.179	2007.22
800.363	1993.66
800.547	2021.56
800.731	2070.19
800.915	1966.53
801.099	1969.83
801.283	1991.92
801.467	1977.19
801.651	1997.92
801.835	2084.14
802.019	2027.76
802.202	1997.92
802.386	1960.14
802.57	1946.77
802.754	1957.04
802.938	1932.05
803.121	1965.76
803.305	2048.49
803.489	1987.46
803.673	2023.88
803.856	2039.19
804.04	1998.12
804.224	2018.65
804.407	2004.9
804.591	1971.96
804.775	1991.92
804.958	2016.52
805.142	2081.43
805.326	1998.31
805.509	2026.01
805.693	2058.95
805.876	2042.48
806.06	2072.9
806.243	2020.01
806.427	2054.11
806.61	2067.28
806.794	2004.7
806.977	2075.61
807.16	2026.21
807.344	2041.32
807.527	2029.31
807.71	1999.08
807.894	2018.07
808.077	2082.59
808.26	1984.17
808.444	1983.39
808.627	2038.03
808.81	2018.85
808.993	1953.75
809.177	1961.3
809.36	1943.09
809.543	1968.28
809.726	1859.59
809.909	1911.51
810.092	1891.36
810.276	1898.53
810.459	1903.76
810.642	1877.22
810.825	1851.64
811.008	1859.39
811.191	1797.59
811.374	1794.29
811.557	1830.33
811.74	1901.44
811.923	1773.17
812.106	1737.33
812.289	1736.17
812.472	1761.74
812.654	1793.71
812.837	1699.74
813.02	1719.89
813.203	1662.74
813.386	1587.37
813.569	1571.48
813.751	1516.07
813.934	1607.52
814.117	1562.57
814.3	1498.25
814.482	1490.69
814.665	1446.71
814.848	1426.75
815.03	1358.36
815.213	1399.05
815.396	1382.58
815.578	1346.93
815.761	1329.88
815.943	1399.05
816.126	1305.08
816.309	1291.33
816.491	1241.73
816.674	1188.25
816.856	1237.66
817.039	1226.42
817.221	1322.13
817.403	1291.52
817.586	1257.42
817.768	1275.83
817.951	1217.51
818.133	1181.47
818.315	1222.55
818.498	1259.16
818.68	1316.71
818.862	1277.76
819.045	1313.02
819.227	1272.53
819.409	1275.63
819.591	1304.89
819.774	1258
819.956	1217.7
820.138	1318.26
820.32	1307.99
820.502	1320.58
820.684	1435.47
820.866	1370.37
821.048	1470.35
821.231	1443.61
821.413	1442.64
821.595	1403.5
821.777	1415.71
821.959	1425.59
822.141	1521.69
822.323	1335.89
822.505	1316.12
822.686	1279.51
822.868	1235.53
823.05	1143.88
823.232	1095.45
823.414	1076.27
823.596	1137.3
823.778	1130.13
823.96	1133.62
824.141	1157.64
824.323	1171.01
824.505	1239.4
824.687	1264.98
824.868	1307.02
825.05	1395.56
825.232	1364.76
825.413	1478.49
825.595	1372.7
825.777	1346.93
825.958	1416.68
826.14	1398.08
826.321	1401.18
826.503	1363.79
826.685	1393.82
826.866	1434.89
827.048	1436.25
827.229	1378.71
827.411	1343.44
827.592	1300.43
827.773	1307.21
827.955	1260.13
828.136	1287.45
828.318	1246.76
828.499	1264.01
828.68	1234.56
828.862	1295.39
829.043	1296.56
829.224	1250.64
829.406	1238.24
829.587	1251.22
829.768	1224.48
829.949	1299.46
830.131	1256.45
830.312	1308.57
830.493	1233.59
830.674	1301.98
830.855	1238.82
831.036	1234.56
831.218	1347.71
831.399	1294.62
831.58	1269.24
831.761	1258.39
831.942	1287.64
832.123	1262.65
832.304	1231.46
832.485	1211.31
832.666	1243.28
832.847	1264.59
833.028	1278.73
833.209	1288.61
833.389	1225.06
833.57	1215.18
833.751	1226.61
833.932	1291.91
834.113	1237.46
834.294	1241.53
834.475	1280.67
834.655	1321.16
834.836	1301.21
835.017	1287.06
835.198	1236.49
835.378	1288.03
835.559	1319.61
835.74	1258.39
835.92	1256.64
836.101	1259.36
836.281	1294.81
836.462	1282.22
836.643	1351.97
836.823	1336.66
837.004	1336.86
837.184	1335.31
837.365	1298.88
837.545	1344.99
837.726	1320.19
837.906	1382.39
838.087	1297.91
838.267	1291.33
838.448	1286.09
838.628	1361.27
838.808	1317.87
838.989	1323.1
839.169	1286.29
839.349	1326.01
839.53	1314.38
839.71	1358.36
839.89	1283.77
840.07	1369.21
840.251	1305.47
840.431	1315.16
840.611	1309.34
840.791	1277.57
840.971	1353.52
841.151	1291.13
841.332	1258.39
841.512	1321.36
841.692	1249.67
841.872	1296.75
842.052	1267.69
842.232	1323.49
842.412	1252.96
842.592	1280.09
842.772	1292.1
842.952	1299.85
843.132	1251.03
843.312	1265.94
843.492	1244.44
843.672	1298.49
843.851	1189.22
844.031	1261.49
844.211	1265.36
844.391	1232.62
844.571	1280.86
844.751	1305.08
844.93	1284.16
845.11	1230.68
845.29	1249.86
845.47	1261.68
845.649	1260.52
845.829	1315.16
846.009	1244.05
846.188	1239.01
846.368	1257.42
846.547	1276.41
846.727	1287.64
846.907	1194.65
847.086	1274.47
847.266	1251.03
847.445	1227.97
847.625	1233.2
847.804	1220.22
847.984	1238.04
848.163	1194.06
848.343	1229.91
848.522	1244.24
848.701	1242.11
848.881	1188.06
849.06	1227.39
849.239	1239.4
849.419	1234.17
849.598	1183.41
849.777	1161.13
849.957	1164.23
850.136	1113.85
850.315	1097.77
850.494	1100.68
850.674	1131.68
850.853	1171.4
851.032	1137.68
851.211	1202.59
851.39	1176.43
851.569	1103.39
851.748	1098.35
851.927	1168.3
852.107	1151.25
852.286	1097.38
852.465	1104.36
852.644	1159.38
852.823	1142.33
853.002	1135.55
853.181	1130.32
853.359	1131.48
853.538	1072.39
853.717	1143.88
853.896	1075.88
854.075	997.22
854.254	994.89
854.433	956.34
854.611	1010.59
854.79	940.45
854.969	995.67
855.148	1024.15
855.327	942.39
855.505	1004.58
855.684	1001.67
855.863	1015.24
856.041	987.92
856.22	1061.54
856.399	1014.85
856.577	1077.62
856.756	1072.2
856.934	1186.7
857.113	1171.01
857.291	1088.08
857.47	1061.73
857.648	1075.3
857.827	1090.6
858.005	1131.1
858.184	1059.99
858.362	1147.18
858.541	1081.69
858.719	1064.25
858.898	1073.55
859.076	1058.63
859.254	1120.25
859.433	1100.48
859.611	1039.26
859.789	1041.2
859.967	1091.96
860.146	1120.44
860.324	1044.3
860.502	1061.93
860.68	989.85
860.859	1019.3
861.037	1064.83
861.215	1094.67
861.393	1049.92
861.571	1029.57
861.749	1004.97
861.927	1060.96
862.105	1061.54
862.283	1043.14
862.461	1016.98
862.639	983.85
862.817	1039.26
862.995	999.15
863.173	996.05
863.351	1027.05
863.529	1035
863.707	1091.18
863.885	1053.6
864.063	934.44
864.241	979.59
864.418	1051.85
864.596	981.52
864.774	958.47
864.952	1009.62
865.129	1032.87
865.307	951.69
865.485	931.54
865.663	1012.33
865.84	941.03
866.018	962.34
866.196	860.43
866.373	861.21
866.551	843.77
866.728	745.15
866.906	834.66
867.084	847.26
867.261	907.32
867.439	904.22
867.616	908.09
867.794	927.86
867.971	914.29
868.149	902.86
868.326	971.64
868.503	966.6
868.681	876.32
868.858	914.1
869.035	895.31
869.213	938.71
869.39	888.33
869.567	996.64
869.745	919.33
869.922	888.33
870.099	936.19
870.276	921.85
870.454	930.76
870.631	944.13
870.808	904.61
870.985	940.45
871.162	988.69
871.339	927.47
871.517	891.62
871.694	863.34
871.871	897.44
872.048	913.91
872.225	888.14
872.402	902.09
872.579	875.93
872.756	923.21
872.933	847.84
873.11	874.57
873.287	904.22
873.463	883.68
873.64	852.1
873.817	889.69
873.994	889.3
874.171	855.01
874.348	896.47
874.524	813.16
874.701	841.06
874.878	781.19
875.055	868.38
875.231	855.98
875.408	866.05
875.585	803.47
875.762	860.43
875.938	829.43
876.115	819.16
876.291	837.76
876.468	826.14
876.645	806.18
876.821	815.68
876.998	811.61
877.174	852.88
877.351	834.08
877.527	823.04
877.704	829.43
877.88	827.88
878.057	793.39
878.233	856.17
878.409	804.63
878.586	813.74
878.762	842.61
878.938	830.98
879.115	749.22
879.291	811.8
879.467	754.26
879.644	766.66
879.82	831.76
879.996	780.22
880.172	754.26
880.349	783.32
880.525	810.06
880.701	737.79
880.877	717.83
881.053	766.27
881.229	756.2
881.405	842.99
881.581	750.38
881.757	764.53
881.933	787.19
882.109	794.36
882.285	787
882.461	727.52
882.637	775.76
882.813	746.7
882.989	765.11
883.165	789.91
883.341	784.68
883.517	814.51
883.693	791.07
883.869	835.44
884.044	753.68
884.22	791.26
884.396	839.31
884.572	781.77
884.747	844.74
884.923	808.31
885.099	794.56
885.275	850.55
885.45	797.46
885.626	753.48
885.801	742.05
885.977	767.05
886.153	708.73
886.328	789.33
886.504	745.15
886.679	777.7
886.855	729.26
887.03	772.08
887.206	806.76
887.381	747.67
887.557	817.23
887.732	785.84
887.908	779.64
888.083	798.04
888.258	769.95
888.434	735.27
888.609	748.25
888.784	782.35
888.96	748.25
889.135	731.98
889.31	739.73
889.485	769.18
889.661	745.93
889.836	793.39
890.011	782.93
890.186	731.59
890.361	725.97
890.537	792.81
890.712	786.23
890.887	762.4
891.062	762.59
891.237	777.12
891.412	726.36
891.587	749.03
891.762	775.18
891.937	803.08
892.112	725
892.287	761.62
892.462	748.06
892.637	662.62
892.812	692.26
892.987	694
893.161	676.57
893.336	708.34
893.511	690.9
893.686	734.11
893.861	692.65
894.035	715.7
894.21	704.46
894.385	658.93
894.56	685.09
894.734	611.85
894.909	618.83
895.084	644.6
895.258	641.69
895.433	639.75
895.608	618.83
895.782	571.55
895.957	566.9
896.131	595.58
896.306	538.62
896.48	550.24
896.655	555.67
896.829	476.81
897.004	504.91
897.178	530.67
897.353	521.96
897.527	537.26
897.701	547.34
897.876	494.06
898.05	551.99
898.224	535.9
898.399	573.88
898.573	529.32
898.747	433.03
898.921	502
899.096	408.03
899.27	404.54
899.444	397.76
899.618	413.46
899.792	468.09
899.967	448.72
900.141	479.33
900.315	414.23
900.489	438.64
900.663	465.57
900.837	468.09
901.011	411.71
901.185	508.59
901.359	465.57
901.533	428.57
901.707	435.16
901.881	444.84
902.055	399.7
902.229	454.92
902.403	504.71
902.576	442.71
902.75	469.45
902.924	559.15
903.098	499.29
903.272	559.93
903.446	558.77
903.619	532.42
903.793	558.19
903.967	547.14
904.14	564.19
904.314	588.6
904.488	562.06
904.661	595.58
904.835	571.36
905.009	627.74
905.182	616.7
905.356	615.92
905.529	575.62
905.703	544.62
905.876	519.82
906.05	510.33
906.223	534.16
906.397	463.06
906.57	468.29
906.744	429.93
906.917	444.07
907.09	453.95
907.264	449.49
907.437	427.99
907.61	390.79
907.784	402.61
907.957	439.81
908.13	390.4
908.304	478.75
908.477	421.21
908.65	440.77
908.823	378
908.996	468.67
909.17	394.47
909.343	419.46
909.516	437.48
909.689	381.68
909.862	369.48
910.035	393.31
910.208	347
910.381	367.93
910.554	483.98
910.727	384.78
910.9	384.78
911.073	380.33
911.246	455.11
911.419	430.89
911.592	423.92
911.765	398.15
911.938	372.77
912.11	391.56
912.283	394.08
912.456	418.11
912.629	387.88
912.802	367.93
912.974	329.95
913.147	327.05
913.32	273.38
913.493	331.7
913.665	335.57
913.838	361.53
914.01	320.26
914.183	329.37
914.356	315.42
914.528	383.43
914.701	400.86
914.873	362.5
915.046	343.13
915.218	330.53
915.391	276.09
915.563	287.13
915.736	343.32
915.908	353.2
916.081	344.29
916.253	297.98
916.425	319.88
916.598	346.61
916.77	331.11
916.942	326.66
917.115	260.78
917.287	351.26
917.459	311.55
917.632	301.28
917.804	272.99
917.976	318.91
918.148	336.73
918.32	314.65
918.493	328.79
918.665	410.55
918.837	354.94
919.009	387.69
919.181	390.21
919.353	328.79
919.525	345.65
919.697	350.68
919.869	355.53
920.041	418.11
920.213	435.54
920.385	383.62
920.557	376.06
920.729	383.04
920.901	362.5
921.073	359.59
921.244	334.02
921.416	385.75
921.588	341.38
921.76	370.83
921.932	431.86
922.103	372.58
922.275	358.63
922.447	345.06
922.619	295.27
922.79	333.25
922.962	348.55
923.134	378.78
923.305	304.38
923.477	285.58
923.648	303.8
923.82	293.72
923.991	237.53
924.163	281.51
924.335	317.94
924.506	271.44
924.677	324.91
924.849	299.73
925.02	291.98
925.192	308.83
925.363	293.72
925.535	327.43
925.706	285.58
925.877	348.16
926.049	270.28
926.22	323.56
926.391	316
926.562	329.18
926.734	292.56
926.905	323.36
927.076	245.87
927.247	291.59
927.419	231.53
927.59	264.08
927.761	256.91
927.932	248.58
928.103	274.54
928.274	221.84
928.445	193.36
928.616	235.6
928.787	218.93
928.958	254
929.129	257.88
929.3	218.74
929.471	173.99
929.642	141.24
929.813	119.54
929.984	229.4
930.155	105.01
930.326	156.16
930.496	136.79
930.667	77.11
930.838	149.96
931.009	99.78
931.18	115.09
931.35	85.25
931.521	119.93
931.692	64.71
931.863	57.74
932.033	103.27
932.204	92.42
932.374	118.38
932.545	33.52
932.716	111.79
932.886	109.47
933.057	14.14
933.227	56.77
933.398	115.09
933.568	58.9
933.739	9.69
933.909	41.66
934.08	63.74
934.25	-4.26
934.421	-6.97
934.591	51.92
934.761	40.11
934.932	-5.81
935.102	46.11
935.272	22.86
935.443	33.71
935.613	36.04
935.783	53.09
935.953	27.32
936.123	161.78
936.294	6.59
936.464	5.81
936.634	53.47
936.804	-0.77
936.974	-3.49
937.144	24.99
937.314	52.12
937.484	12.59
937.655	-2.13
937.825	97.84
937.995	-21.7
938.165	67.23
938.334	4.07
938.504	58.32
938.674	8.14
938.844	25.96
939.014	87.77
939.184	84.86
939.354	107.34
939.524	111.99
939.694	64.52
939.863	24.22
940.033	110.44
940.203	124.19
940.373	81.96
940.542	85.64
940.712	80.99
940.882	95.9
941.051	100.17
941.221	83.51
941.391	89.12
941.56	62
941.73	44.76
941.899	160.81
942.069	63.55
942.238	88.93
942.408	45.53
942.577	111.4
942.747	59.29
942.916	4.26
943.086	34.87
943.255	102.49
943.425	64.52
943.594	42.43
943.763	-6.2
943.933	28.29
944.102	5.81
944.271	53.86
944.441	52.89
944.61	18.99
944.779	50.57
944.948	140.85
945.117	9.88
945.287	60.64
945.456	-27.9
945.625	45.72
945.794	64.71
945.963	35.65
946.132	82.34
946.301	30.42
946.47	60.64
946.639	3.29
946.808	29.26
946.977	63.36
947.146	119.54
947.315	11.43
947.484	81.57
947.653	40.49
947.822	14.92
947.991	26.74
948.16	108.3
948.329	110.05
948.498	48.63
948.666	57.74
948.835	82.73
949.004	27.12
949.173	-2.91
949.341	76.14
949.51	53.28
949.679	104.24
949.847	76.53
950.016	127.29
950.185	86.61
950.353	20.15
950.522	37.97
950.69	80.21
950.859	21.31
951.028	85.64
951.196	77.5
951.365	54.64
951.533	35.65
951.701	63.36
951.87	63.55
952.038	14.92
952.207	79.63
952.375	111.02
952.543	34.29
952.712	56.77
952.88	38.17
953.048	118.57
953.217	107.53
953.385	57.16
953.553	103.85
953.721	11.62
953.89	42.82
954.058	21.51
954.226	31.58
954.394	49.02
954.562	-10.46
954.73	52.7
954.898	23.64
955.067	103.46
955.235	42.24
955.403	98.23
955.571	120.51
955.739	64.91
955.907	25.57
956.075	23.83
956.243	23.64
956.41	79.05
956.578	27.12
956.746	1.74
956.914	32.55
957.082	58.9
957.25	62.77
957.418	27.71
957.585	80.99
957.753	82.73
957.921	-12.59
958.089	74.4
958.256	59.48
958.424	59.48
958.592	61.42
958.759	52.31
958.927	86.02
959.095	30.81
959.262	55.02
959.43	54.06
959.597	38.94
959.765	50.57
959.932	25.77
960.1	74.4
960.267	46.31
960.435	17.24
960.602	105.79
960.77	31
960.937	14.92
961.104	39.33
961.272	1.94
961.439	43.98
961.606	72.46
961.774	87.19
961.941	37.2
962.108	70.91
962.275	60.26
962.443	100.17
962.61	61.42
962.777	114.7
962.944	84.09
963.111	72.66
963.278	81.76
963.446	71.88
963.613	80.99
963.78	67.23
963.947	94.94
964.114	60.06
964.281	139.11
964.448	104.82
964.615	66.65
964.782	61.42
964.949	112.76
965.116	85.25
965.282	110.63
965.449	64.32
965.616	46.69
965.783	67.81
965.95	61.81
966.117	27.32
966.283	73.43
966.45	61.42
966.617	66.46
966.784	125.94
966.95	116.64
967.117	106.37
967.284	25.77
967.45	49.02
967.617	105.2
967.784	91.06
967.95	124.97
968.117	77.31
968.283	95.32
968.45	152.09
968.616	84.28
968.783	105.01
968.949	88.35
969.116	126.32
969.282	84.67
969.449	77.31
969.615	88.15
969.781	21.31
969.948	54.83
970.114	34.49
970.28	152.29
970.447	76.92
970.613	105.2
970.779	56.57
970.945	106.75
971.112	112.57
971.278	76.72
971.444	61.81
971.61	120.51
971.776	57.74
971.942	91.84
972.108	97.65
972.275	63.16
972.441	74.79
972.607	153.25
972.773	40.11
972.939	95.52
973.105	83.89
973.271	29.64
973.437	52.12
973.602	39.91
973.768	80.02
973.934	82.92
974.1	77.89
974.266	-6.39
974.432	84.09
974.598	66.65
974.763	84.09
974.929	57.74
975.095	142.21
975.261	65.29
975.426	49.99
975.592	71.11
975.758	118.57
975.923	34.49
976.089	55.8
976.255	93.58
976.42	76.53
976.586	79.63
976.751	86.41
976.917	159.65
977.082	103.85
977.248	-1.74
977.413	-0.77
977.579	55.61
977.744	60.84
977.91	23.25
978.075	29.84
978.24	91.84
978.406	39.33
978.571	39.14
978.736	44.95
978.902	77.31
979.067	32.55
979.232	20.34
979.397	79.63
979.563	126.71
979.728	23.83
979.893	52.12
980.058	35.07
980.223	100.94
980.388	59.48
980.554	69.17
980.719	47.08
980.884	66.07
981.049	96.1
981.214	39.33
981.379	97.84
981.544	40.3
981.709	64.13
981.874	49.99
982.039	71.11
982.204	81.37
982.368	72.07
982.533	53.47
982.698	85.25
982.863	107.14
983.028	43.01
983.193	63.94
983.357	60.45
983.522	66.26
983.687	71.49
983.852	39.14
984.016	51.15
984.181	62.39
984.346	79.05
984.51	79.82
984.675	84.67
984.839	91.06
985.004	87.19
985.168	97.26
985.333	107.34
985.498	45.14
985.662	93.97
985.827	62.58
985.991	61.61
986.155	67.23
986.32	110.82
986.484	146.28
986.649	79.82
986.813	7.75
986.977	87.77
987.142	76.72
987.306	15.69
987.47	36.04
987.634	60.84
987.799	62.19
987.963	67.04
988.127	88.74
988.291	136.59
988.455	63.94
988.62	44.95
988.784	109.47
988.948	79.05
989.112	55.99
989.276	85.83
989.44	52.12
989.604	42.43
989.768	38.36
989.932	151.7
990.096	21.89
990.26	18.79
990.424	41.46
990.588	86.41
990.752	112.37
990.915	94.35
991.079	48.63
991.243	55.02
991.407	75.95
991.571	62.77
991.734	71.3
991.898	87.96
992.062	151.12
992.226	48.82
992.389	31.39
992.553	7.36
992.717	38.56
992.88	41.46
993.044	36.23
993.207	53.09
993.371	97.45
993.535	47.27
993.698	71.69
993.862	88.93
994.025	95.9
994.189	67.62
994.352	88.15
994.515	83.51
994.679	104.43
994.842	63.55
995.006	81.18
995.169	52.12
995.332	35.65
995.496	86.41
995.659	9.3
995.822	42.24
995.985	56.57
996.149	93
996.312	55.61
996.475	136.79
996.638	27.32
996.801	96.29
996.964	127.68
997.128	52.89
997.291	43.4
997.454	69.75
997.617	8.72
997.78	91.25
997.943	20.54
998.106	87.57
998.269	20.92
998.432	55.22
998.595	60.45
998.758	-19.37
998.92	8.52
999.083	12.21
999.246	27.32
999.409	2.32
999.572	10.07
999.735	29.45
999.897	75.76
1000.06	10.85
1000.223	22.28
1000.386	62.39
1000.548	83.89
1000.711	55.02
1000.874	46.69
1001.036	-0.19
1001.199	97.26
1001.361	14.92
1001.524	30.61
1001.687	97.84
1001.849	21.89
1002.012	42.04
1002.174	52.31
1002.337	56.19
1002.499	70.72
1002.661	94.35
1002.824	24.61
1002.986	8.91
1003.149	6.39
1003.311	-0.97
1003.473	93.19
1003.636	16.66
1003.798	68.01
1003.96	48.63
1004.123	33.91
1004.285	23.44
1004.447	38.56
1004.609	32.55
1004.771	112.76
1004.933	-17.05
1005.096	2.13
1005.258	-16.47
1005.42	37.97
1005.582	38.94
1005.744	49.79
1005.906	-29.26
1006.068	31
1006.23	-3.29
1006.392	-7.56
1006.554	9.88
1006.716	81.37
1006.878	60.06
1007.04	4.84
1007.202	11.43
1007.363	41.85
1007.525	37.2
1007.687	46.31
1007.849	94.55
1008.011	1.94
1008.172	11.04
1008.334	28.87
1008.496	55.22
1008.658	-7.56
1008.819	-5.23
1008.981	2.71
1009.143	-12.01
1009.304	28.67
1009.466	53.28
1009.627	71.88
1009.789	149.19
1009.95	50.37
1010.112	16.08
1010.273	33.13
1010.435	-0.58
1010.596	0.39
1010.758	9.49
1010.919	35.26
1011.081	-6.39
1011.242	16.27
1011.403	37.59
1011.565	45.72
1011.726	49.6
1011.887	27.71
1012.049	36.23
1012.21	24.41
1012.371	82.15
1012.532	-68.78
1012.693	7.17
1012.855	-14.92
1013.016	14.14
1013.177	69.56
1013.338	26.35
1013.499	96.68
1013.66	42.62
1013.821	48.63
1013.982	42.82
1014.143	49.79
1014.304	6.97
1014.465	30.03
1014.626	66.84
1014.787	24.99
1014.948	99.97
1015.109	-49.79
1015.27	66.65
1015.431	-4.84
1015.592	6.39
1015.752	65.1
1015.913	45.14
1016.074	36.04
1016.235	26.54
1016.395	4.07
1016.556	10.07
1016.717	1.55
1016.877	50.57
1017.038	13.17
1017.199	24.22
1017.359	37.39
1017.52	19.37
1017.681	7.56
1017.841	9.11
1018.002	31
1018.162	5.81
1018.323	64.52
1018.483	28.48
1018.644	4.26
1018.804	-19.18
1018.964	-37.78
1019.125	5.42
1019.285	29.84
1019.446	17.05
1019.606	-8.33
1019.766	-53.67
1019.926	53.86
1020.087	48.82
1020.247	-35.84
1020.407	38.36
1020.567	46.5
1020.728	10.66
1020.888	6.2
1021.048	-17.05
1021.208	-3.87
1021.368	2.71
1021.528	67.42
1021.688	29.64
1021.848	45.34
1022.008	42.43
1022.168	13.17
1022.328	-2.32
1022.488	26.74
1022.648	27.9
1022.808	11.43
1022.968	45.14
1023.128	-26.16
1023.288	0.58
1023.448	15.5
1023.608	42.43
1023.767	37.2
1023.927	-20.15
1024.087	-12.4
1024.247	16.27
1024.406	-18.99
1024.566	-32.94
1024.726	-0.19
1024.885	8.91
1025.045	48.05
1025.205	12.59
1025.364	5.42
1025.524	37.01
1025.683	-19.18
1025.843	47.27
1026.003	21.89
1026.162	44.17
1026.321	45.14
1026.481	18.41
1026.64	27.71
1026.8	35.26
1026.959	16.08
1027.119	3.87
1027.278	-7.56
1027.437	-21.7
1027.597	-4.46
1027.756	17.82
1027.915	32.55
1028.074	42.24
1028.234	2.52
1028.393	45.34
1028.552	-4.26
1028.711	-36.81
1028.87	36.04
1029.03	-36.62
1029.189	3.87
1029.348	-40.3
1029.507	-11.62
1029.666	15.31
1029.825	-11.04
1029.984	-15.5
1030.143	42.04
1030.302	-26.16
1030.461	-66.65
1030.62	26.16
1030.779	30.03
1030.938	-26.16
1031.097	-9.88
1031.255	37.78
1031.414	44.17
1031.573	43.21
1031.732	-35.46
1031.891	-0.39
1032.049	50.76
1032.208	25.77
1032.367	-23.64
1032.525	-8.33
1032.684	-0
1032.843	8.52
1033.001	-48.24
1033.16	170.69
1033.319	56.77
1033.477	15.89
1033.636	-15.89
1033.794	-29.84
1033.953	28.67
1034.111	37.97
1034.27	-27.9
1034.428	36.23
1034.587	-28.29
1034.745	6.59
1034.903	7.17
1035.062	40.69
1035.22	-15.5
1035.378	39.52
1035.537	-38.94
1035.695	27.9
1035.853	25.96
1036.011	51.34
1036.17	35.07
1036.328	-66.65
1036.486	11.24
1036.644	32.74
1036.802	-65.29
1036.96	-2.52
1037.119	-9.49
1037.277	-17.24
1037.435	-29.84
1037.593	-28.29
1037.751	-12.4
1037.909	20.73
1038.067	20.73
