Data from pine_FLMT105791__135__17-22-34-075.txt Node

Date: Mon Mar 20 17:22:34 GMT 2023
User: antho
Spectrometer: FLMT10579
Trigger mode: 0
Integration Time (sec): 1.000000E-1
Scans to average: 10
Electric dark correction enabled: true
Nonlinearity correction enabled: false
Boxcar width: 0
XAxis mode: Wavelengths
Number of Pixels in Spectrum: 3648
>>>>>Begin Spectral Data<<<<<
345.248	-153.77
345.464	-153.77
345.681	-153.77
345.898	-195.62
346.114	-143.11
346.331	-47.02
346.548	48.11
346.764	-9.62
346.981	-15.82
347.197	-29.77
347.414	-15.82
347.631	-4.59
347.847	64.58
348.064	-16.02
348.28	24.09
348.497	-10.59
348.713	12.46
348.93	20.21
349.146	33.78
349.363	3.75
349.579	29.71
349.796	22.54
350.012	-20.28
350.229	42.88
350.445	11.11
350.661	-3.81
350.878	13.82
351.094	36.68
351.311	33.39
351.527	41.72
351.743	-18.73
351.96	3.94
352.176	73.69
352.392	20.21
352.609	44.05
352.825	-12.53
353.041	9.75
353.257	7.43
353.474	4.13
353.69	26.03
353.906	9.95
354.122	-9.43
354.339	65.74
354.555	26.41
354.771	-12.72
354.987	52.38
355.203	68.84
355.42	-3.62
355.636	-23.57
355.852	5.1
356.068	26.8
356.284	-13.5
356.5	34.16
356.716	26.41
356.932	11.5
357.148	38.62
357.364	37.85
357.58	58
357.796	89.58
358.012	44.82
358.228	31.06
358.444	-26.29
358.66	68.84
358.876	26.8
359.092	-38.49
359.308	28.55
359.524	29.32
359.74	2.2
359.956	17.31
360.172	25.06
360.388	53.93
360.604	-9.43
360.819	88.61
361.035	29.9
361.251	29.9
361.467	-13.11
361.683	52.57
361.898	46.76
362.114	44.43
362.33	42.69
362.546	56.83
362.762	8.98
362.977	27.77
363.193	-21.64
363.409	42.69
363.624	-16.21
363.84	8.78
364.056	-17.37
364.271	60.71
364.487	40.36
364.703	7.43
364.918	-18.92
365.134	9.56
365.35	-1.87
365.565	108.18
365.781	38.43
365.996	40.95
366.212	93.26
366.427	19.63
366.643	-6.33
366.858	-3.62
367.074	-20.28
367.289	60.51
367.505	105.27
367.72	-4.78
367.936	9.17
368.151	42.69
368.367	29.32
368.582	13.82
368.798	0.84
369.013	58.77
369.228	40.17
369.444	24.48
369.659	81.24
369.874	35.13
370.09	71.75
370.305	-34.81
370.52	-15.24
370.736	76.98
370.951	13.43
371.166	63.81
371.381	90.74
371.597	71.36
371.812	-0.71
372.027	-0.52
372.242	20.6
372.458	95
372.673	16.53
372.888	28.93
373.103	56.64
373.318	111.66
373.533	46.95
373.749	34.94
373.964	0.84
374.179	56.25
374.394	29.13
374.609	78.34
374.824	6.26
375.039	71.94
375.254	-13.89
375.469	83.57
375.684	20.41
375.899	58.58
376.114	9.56
376.329	53.73
376.544	63.42
376.759	77.76
376.974	7.43
377.189	20.6
377.404	46.56
377.619	47.15
377.834	-18.54
378.049	-30.74
378.264	0.26
378.478	38.04
378.693	9.36
378.908	38.43
379.123	34.94
379.338	51.21
379.553	50.05
379.767	33.58
379.982	64
380.197	64.58
380.412	36.1
380.626	21.76
380.841	129.49
381.056	41.91
381.271	81.63
381.485	20.6
381.7	-0.9
381.915	20.02
382.129	6.07
382.344	47.15
382.559	23.7
382.773	59.54
382.988	-29
383.202	43.46
383.417	8.01
383.632	116.89
383.846	29.9
384.061	26.8
384.275	11.3
384.49	66.91
384.704	49.28
384.919	23.12
385.133	32.81
385.348	62.45
385.562	6.07
385.777	61.29
385.991	39.78
386.206	27.58
386.42	20.8
386.634	66.71
386.849	44.43
387.063	35.71
387.277	8.4
387.492	-3.04
387.706	-15.24
387.92	17.11
388.135	67.1
388.349	32.42
388.563	31.06
388.778	35.52
388.992	59.54
389.206	44.82
389.42	109.34
389.635	21.57
389.849	61.68
390.063	84.15
390.277	34.16
390.491	130.46
390.706	76.59
390.92	88.22
391.134	49.86
391.348	74.66
391.562	7.23
391.776	44.43
391.99	32.42
392.205	63.03
392.419	38.62
392.633	37.85
392.847	100.81
393.061	27.58
393.275	105.85
393.489	45.21
393.703	43.08
393.917	73.49
394.131	29.71
394.345	65.16
394.559	82.41
394.773	34.94
394.986	70.39
395.2	31.65
395.414	57.22
395.628	23.9
395.842	31.84
396.056	27.19
396.27	-23.19
396.484	50.05
396.697	54.31
396.911	80.28
397.125	88.03
397.339	81.83
397.553	63.03
397.766	116.51
397.98	73.11
398.194	112.24
398.408	42.3
398.621	59.93
398.835	93.45
399.049	59.74
399.262	95
399.476	73.49
399.69	92.09
399.903	109.34
400.117	35.52
400.331	58.58
400.544	36.68
400.758	185.48
400.971	73.11
401.185	113.99
401.398	32.23
401.612	104.3
401.826	99.26
402.039	91.9
402.253	37.07
402.466	107.59
402.68	56.83
402.893	60.13
403.106	66.91
403.32	81.05
403.533	109.53
403.747	78.73
403.96	117.28
404.174	105.27
404.387	47.53
404.6	64.78
404.814	107.01
405.027	61.48
405.24	79.69
405.454	56.64
405.667	114.96
405.88	6.07
406.094	61.09
406.307	115.34
406.52	83.76
406.733	64.78
406.947	25.06
407.16	138.21
407.373	116.51
407.586	52.57
407.799	33.78
408.012	94.42
408.226	100.23
408.439	127.74
408.652	46.76
408.865	110.89
409.078	111.08
409.291	98.29
409.504	45.98
409.717	96.16
409.93	116.12
410.143	92.29
410.357	29.51
410.57	36.1
410.783	73.11
410.996	78.73
411.209	87.44
411.421	113.79
411.634	100.04
411.847	52.57
412.06	113.02
412.273	84.93
412.486	72.33
412.699	152.74
412.912	89.96
413.125	118.44
413.338	101.59
413.55	93.26
413.763	89.19
413.976	105.46
414.189	99.07
414.402	64.97
414.615	155.06
414.827	66.52
415.04	128.71
415.253	125.03
415.466	111.86
415.678	149.25
415.891	90.93
416.104	115.15
416.316	93.45
416.529	53.93
416.742	134.91
416.954	135.69
417.167	109.34
417.38	104.49
417.592	127.55
417.805	90.74
418.017	50.83
418.23	152.16
418.442	92.48
418.655	87.25
418.868	124.06
419.08	134.72
419.293	145.76
419.505	112.83
419.718	124.64
419.93	145.57
420.142	108.56
420.355	139.56
420.567	171.72
420.78	117.67
420.992	115.15
421.205	167.66
421.417	66.33
421.629	129.88
421.842	96.55
422.054	92.48
422.266	146.54
422.479	167.46
422.691	99.84
422.903	135.11
423.115	113.41
423.328	115.15
423.54	109.53
423.752	141.89
423.964	104.69
424.177	127.55
424.389	103.91
424.601	223.07
424.813	155.45
425.025	164.17
425.238	169.21
425.45	131.23
425.662	136.85
425.874	431.93
426.086	149.83
426.298	156.61
426.51	146.34
426.722	155.64
426.934	150.41
427.146	150.41
427.358	113.21
427.57	173.47
427.782	119.61
427.994	157.97
428.206	126.39
428.418	118.83
428.63	198.85
428.842	170.37
429.054	159.71
429.266	181.22
429.478	140.34
429.69	168.04
429.902	107.4
430.114	190.52
430.325	142.08
430.537	120.19
430.749	135.3
430.961	89.96
431.173	132.98
431.384	143.05
431.596	91.13
431.808	142.08
432.02	179.28
432.231	183.54
432.443	224.23
432.655	193.23
432.867	142.86
433.078	193.81
433.29	234.69
433.502	227.33
433.713	218.42
433.925	200.59
434.136	232.76
434.348	136.27
434.56	159.13
434.771	279.25
434.983	125.61
435.194	186.45
435.406	187.81
435.617	225.39
435.829	284.1
436.04	235.27
436.252	230.62
436.463	271.5
436.675	261.82
436.886	237.4
437.098	242.25
437.309	296.11
437.521	220.55
437.732	260.65
437.943	235.66
438.155	237.6
438.366	173.47
438.578	278.67
438.789	222.87
439	211.25
439.211	220.16
439.423	250.77
439.634	262.59
439.845	249.42
440.057	250.39
440.268	281.19
440.479	227.14
440.69	235.85
440.902	252.9
441.113	250.19
441.324	240.12
441.535	273.05
441.746	318.39
441.957	212.22
442.168	255.62
442.38	274.6
442.591	298.44
442.802	246.12
443.013	232.95
443.224	282.16
443.435	271.7
443.646	263.37
443.857	262.79
444.068	236.05
444.279	251.35
444.49	322.27
444.701	253.87
444.912	413.52
445.123	305.22
445.334	335.83
445.545	274.02
445.756	281.19
445.967	253.1
446.178	295.72
446.388	327.88
446.599	331.37
446.81	333.7
447.021	280.61
447.232	333.5
447.443	330.79
447.653	262.2
447.864	366.25
448.075	332.53
448.286	318.78
448.496	327.5
448.707	338.73
448.918	308.12
449.129	430.38
449.339	277.12
449.55	341.64
449.761	336.8
449.971	384.27
450.182	333.31
450.393	370.51
450.603	344.74
450.814	408.87
451.024	357.92
451.235	368.18
451.446	399.18
451.656	386.4
451.867	334.28
452.077	355.98
452.288	423.4
452.498	400.15
452.709	347.84
452.919	365.86
453.13	336.02
453.34	400.35
453.55	292.82
453.761	390.85
453.971	355.4
454.182	410.23
454.392	366.83
454.602	408.29
454.813	398.99
455.023	386.78
455.233	310.84
455.444	379.03
455.654	318
455.864	352.49
456.075	356.17
456.285	374.19
456.495	334.67
456.705	390.85
456.916	427.28
457.126	435.22
457.336	364.31
457.546	309.48
457.756	368.77
457.967	400.15
458.177	380.39
458.387	389.69
458.597	334.08
458.807	392.21
459.017	373.22
459.227	368.38
459.437	375.55
459.647	409.84
459.857	409.06
460.068	369.93
460.278	429.21
460.488	408.68
460.698	470.1
460.908	392.6
461.117	357.72
461.327	376.52
461.537	451.11
461.747	374.97
461.957	410.23
462.167	515.82
462.377	437.35
462.587	397.05
462.797	458.08
463.007	414.68
463.216	435.41
463.426	477.26
463.636	471.06
463.846	373.42
464.056	401.9
464.265	444.33
464.475	397.63
464.685	410.61
464.895	463.9
465.104	415.46
465.314	445.88
465.524	392.79
465.733	412.55
465.943	494.31
466.153	471.65
466.362	450.14
466.572	469.32
466.782	432.51
466.991	442.58
467.201	480.56
467.41	376.32
467.62	458.66
467.829	444.13
468.039	488.89
468.249	455.95
468.458	449.95
468.668	474.16
468.877	492.57
469.086	491.21
469.296	521.05
469.505	473.78
469.715	538.68
469.924	496.83
470.134	529.19
470.343	531.51
470.552	494.12
470.762	469.9
470.971	437.55
471.18	495.09
471.39	506.13
471.599	446.26
471.808	511.56
472.018	466.61
472.227	536.94
472.436	523.96
472.645	510.59
472.855	497.99
473.064	559.22
473.273	530.16
473.482	542.75
473.691	562.51
473.901	562.71
474.11	541.59
474.319	615.6
474.528	547.4
474.737	627.03
474.946	606.69
475.155	556.51
475.364	593.71
475.573	578.4
475.783	613.27
475.992	577.24
476.201	609.4
476.41	590.41
476.619	560.38
476.828	582.86
477.037	549.53
477.245	553.21
477.454	633.81
477.663	587.51
477.872	617.15
478.081	671.01
478.29	567.16
478.499	703.37
478.708	643.69
478.917	697.55
479.125	623.74
479.334	648.54
479.543	639.43
479.752	664.42
479.961	645.24
480.169	696.78
480.378	650.86
480.587	770.6
480.796	701.43
481.004	664.62
481.213	667.14
481.422	708.21
481.63	693.1
481.839	746.57
482.048	776.41
482.256	692.9
482.465	744.05
482.674	735.53
482.882	757.81
483.091	804.31
483.299	744.25
483.508	784.93
483.716	737.27
483.925	759.75
484.134	729.72
484.342	723.52
484.551	791.13
484.759	751.8
484.967	785.9
485.176	817.48
485.384	795.98
485.593	801.21
485.801	764.98
486.01	741.15
486.218	714.8
486.426	633.62
486.635	674.69
486.843	667.52
487.051	715.96
487.26	724.1
487.468	732.62
487.676	761.3
487.885	734.95
488.093	762.65
488.301	809.93
488.509	792.49
488.717	825.23
488.926	817.1
489.134	789.78
489.342	822.72
489.55	766.92
489.758	839.77
489.967	820.39
490.175	923.66
490.383	842.67
490.591	948.46
490.799	842.48
491.007	897.11
491.215	884.13
491.423	882.78
491.631	869.41
491.839	863.98
492.047	899.83
492.255	806.44
492.463	793.65
492.671	855.85
492.879	886.46
493.087	895.37
493.295	901.18
493.503	913.97
493.711	949.04
493.919	939.54
494.127	939.54
494.334	951.36
494.542	906.03
494.75	925.6
494.958	910.87
495.166	989.14
495.374	970.16
495.581	944.58
495.789	933.15
495.997	1024.21
496.205	929.47
496.412	920.75
496.62	957.56
496.828	990.31
497.035	965.12
497.243	988.76
497.451	957.76
497.658	975.19
497.866	1000.58
498.074	1034.29
498.281	955.04
498.489	1039.32
498.696	982.75
498.904	938.96
499.112	978.68
499.319	1052.5
499.527	984.88
499.734	1032.93
499.942	961.44
500.149	984.3
500.357	989.53
500.564	975.19
500.771	1018.79
500.979	954.46
501.186	940.9
501.394	1002.51
501.601	979.46
501.808	1012.39
502.016	973.06
502.223	960.66
502.43	1005.81
502.638	993.41
502.845	1018.79
503.052	1089.31
503.26	1021.11
503.467	1070.13
503.674	1013.17
503.881	1033.51
504.089	1105.01
504.296	1062.57
504.503	990.89
504.71	1053.08
504.917	1004.06
505.125	1049.98
505.332	1054.05
505.539	1050.76
505.746	1149.95
505.953	1102.1
506.16	1093.38
506.367	1173.98
506.574	1132.71
506.781	1142.98
506.988	1069.55
507.195	1144.53
507.402	1100.16
507.609	1137.94
507.816	1115.47
508.023	1101.91
508.23	1091.44
508.437	1055.99
508.644	1145.89
508.851	1160.8
509.058	1164.1
509.265	1141.62
509.472	1178.44
509.679	1242.95
509.885	1149.95
510.092	1180.57
510.299	1195.1
510.506	1159.06
510.713	1185.41
510.92	1189.67
511.126	1188.51
511.333	1242.37
511.54	1230.94
511.746	1267.75
511.953	1273.18
512.16	1274.73
512.367	1230.75
512.573	1199.17
512.78	1258.26
512.987	1204.2
513.193	1238.69
513.4	1132.71
513.606	1232.3
513.813	1266.4
514.02	1222.8
514.226	1294.49
514.433	1289.06
514.639	1196.84
514.846	1223.19
515.052	1220.48
515.259	1270.47
515.465	1262.13
515.672	1260.58
515.878	1355.91
516.085	1272.4
516.291	1334.79
516.497	1260.39
516.704	1259.03
516.91	1221.64
517.117	1166.42
517.323	1121.28
517.529	1180.18
517.736	1172.24
517.942	1182.31
518.148	1206.92
518.354	1213.12
518.561	1251.48
518.767	1227.07
518.973	1292.16
519.179	1314.45
519.386	1289.65
519.592	1276.08
519.798	1272.21
520.004	1407.25
520.21	1347.19
520.417	1425.46
520.623	1410.74
520.829	1459.95
521.035	1432.44
521.241	1397.56
521.447	1462.08
521.653	1554.89
521.859	1428.18
522.065	1484.56
522.271	1568.64
522.477	1483.59
522.683	1548.1
522.889	1491.72
523.095	1477
523.301	1473.32
523.507	1444.26
523.713	1514.97
523.919	1468.09
524.125	1563.41
524.331	1539.19
524.537	1616.5
524.742	1592.47
524.948	1618.44
525.154	1646.14
525.36	1705.82
525.566	1603.52
525.772	1656.22
525.977	1591.31
526.183	1663.19
526.389	1659.7
526.595	1546.94
526.8	1556.82
527.006	1463.24
527.212	1470.61
527.417	1462.27
527.623	1461.69
527.829	1552.75
528.034	1564.19
528.24	1595.38
528.446	1596.35
528.651	1683.15
528.857	1690.12
529.062	1716.28
529.268	1681.02
529.473	1685.08
529.679	1711.82
529.884	1791.26
530.09	1729.26
530.295	1748.83
530.501	1779.25
530.706	1695.74
530.912	1670.55
531.117	1748.25
531.323	1767.23
531.528	1801.14
531.733	1766.65
531.939	1747.66
532.144	1751.93
532.35	1794.94
532.555	1798.81
532.76	1786.8
532.966	1773.82
533.171	1747.28
533.376	1730.81
533.581	1709.88
533.787	1721.12
533.992	1785.25
534.197	1787.38
534.402	1763.75
534.607	1798.81
534.813	1828.84
535.018	1784.48
535.223	1815.67
535.428	1827.49
535.633	1877.48
535.838	1853.26
536.043	1858.1
536.249	1927.27
536.454	1874.18
536.659	1884.06
536.864	1839.89
537.069	1839.11
537.274	1870.11
537.479	1873.02
537.684	1875.15
537.889	1810.63
538.094	1954.97
538.299	1840.08
538.504	1890.84
538.708	1885.23
538.913	1937.92
539.118	1870.11
539.323	1914.67
539.528	1866.04
539.733	1872.63
539.938	1899.37
540.142	1911.57
540.347	1845.7
540.552	1839.5
540.757	1878.06
540.962	1833.69
541.166	1768.98
541.371	1781.96
541.576	1817.22
541.781	1765.1
541.985	1896.66
542.19	1887.55
542.395	1978.42
542.599	1937.34
542.804	1924.17
543.008	1973.96
543.213	1850.74
543.418	1867.98
543.622	1966.79
543.827	1869.34
544.031	1950.52
544.236	1957.11
544.44	1947.42
544.645	2018.33
544.849	1921.07
545.054	1979.58
545.258	2043.9
545.463	1995.27
545.667	1942.96
545.872	1983.26
546.076	1964.86
546.281	1999.92
546.485	1946.06
546.689	1981.52
546.894	1981.9
547.098	1930.95
547.302	1944.71
547.507	1964.86
547.711	2004.77
547.915	2042.55
548.119	1959.04
548.324	1931.72
548.528	2052.24
548.732	1958.07
548.936	2036.93
549.141	2022.79
549.345	1983.65
549.549	2012.32
549.753	2007.29
549.957	2091.18
550.161	2100.48
550.366	2034.6
550.57	1995.47
550.774	1991.79
550.978	1997.21
551.182	2023.17
551.386	1975.32
551.59	1992.17
551.794	2010.77
551.998	2020.46
552.202	2011.35
552.406	1964.47
552.61	1979
552.814	2048.55
553.018	2050.69
553.222	2007.09
553.426	1998.57
553.63	2073.93
553.833	2023.17
554.037	1971.83
554.241	1981.71
554.445	1999.34
554.649	1997.79
554.853	1969.89
555.056	2030.92
555.26	2013.68
555.464	2033.05
555.668	2040.8
555.871	2054.37
556.075	2045.26
556.279	2031.7
556.483	1938.51
556.686	1981.9
556.89	1983.84
557.094	2023.56
557.297	1948.39
557.501	2005.15
557.704	1930.37
557.908	1977.84
558.112	1929.01
558.315	2005.15
558.519	1969.31
558.722	1942.96
558.926	1920.68
559.129	1858.88
559.333	1840.08
559.536	1872.24
559.74	1841.44
559.943	1838.34
560.147	1874.57
560.35	1846.86
560.553	1863.33
560.757	1807.14
560.96	1965.44
561.164	1891.23
561.367	2002.83
561.57	1912.54
561.774	1883.09
561.977	1883.29
562.18	1847.06
562.384	1973.96
562.587	1876.89
562.79	1886.39
562.993	1858.1
563.197	1940.64
563.4	1961.17
563.603	1951.49
563.806	1984.23
564.009	1844.54
564.212	1854.61
564.416	1800.17
564.619	1876.31
564.822	1817.41
565.025	1898.21
565.228	1873.99
565.431	1855
565.634	1757.74
565.837	1808.5
566.04	1746.7
566.243	1795.33
566.446	1703.68
566.649	1802.3
566.852	1699.03
567.055	1763.36
567.258	1799.01
567.461	1837.95
567.664	1826.91
567.867	1701.55
568.07	1799.2
568.273	1800.56
568.475	1837.95
568.678	1730.61
568.881	1723.64
569.084	1721.31
569.287	1662.03
569.489	1681.02
569.692	1749.21
569.895	1731
570.098	1657.18
570.3	1641.49
570.503	1601.39
570.706	1615.53
570.909	1601.39
571.111	1606.81
571.314	1599.45
571.516	1600.42
571.719	1614.56
571.922	1619.21
572.124	1593.05
572.327	1623.09
572.529	1592.28
572.732	1619.79
572.935	1605.45
573.137	1692.25
573.34	1587.44
573.542	1646.14
573.745	1636.07
573.947	1638.39
574.15	1615.92
574.352	1616.69
574.554	1676.56
574.757	1566.7
574.959	1540.94
575.162	1589.76
575.364	1533.96
575.566	1678.69
575.769	1535.9
575.971	1542.1
576.173	1471.38
576.376	1528.34
576.578	1577.94
576.78	1612.82
576.982	1495.21
577.185	1565.15
577.387	1492.89
577.589	1514.39
577.791	1537.84
577.993	1554.69
578.196	1489.98
578.398	1526.21
578.6	1571.35
578.802	1486.11
579.004	1501.02
579.206	1474.87
579.408	1526.21
579.61	1464.79
579.812	1539
580.014	1467.31
580.216	1474.87
580.418	1494.63
580.62	1463.24
580.822	1413.45
581.024	1488.24
581.226	1505.48
581.428	1468.86
581.63	1578.33
581.832	1484.36
582.034	1578.91
582.236	1540.16
582.438	1528.15
582.64	1577.55
582.841	1566.32
583.043	1593.83
583.245	1520.98
583.447	1570.97
583.649	1551.2
583.85	1541.71
584.052	1549.85
584.254	1466.92
584.456	1551.59
584.657	1507.81
584.859	1510.71
585.061	1491.72
585.262	1499.09
585.464	1477.39
585.666	1520.98
585.867	1468.67
586.069	1516.52
586.27	1514.2
586.472	1496.57
586.674	1446.78
586.875	1467.89
587.077	1437.09
587.278	1480.87
587.48	1487.85
587.681	1563.99
587.883	1483.78
588.084	1379.93
588.285	1404.54
588.487	1443.68
588.688	1471.96
588.89	1334.4
589.091	1331.3
589.292	1323.75
589.494	1287.13
589.695	1274.34
589.896	1241.6
590.098	1210.4
590.299	1256.52
590.5	1256.71
590.702	1296.81
590.903	1303.98
591.104	1387.29
591.305	1371.21
591.507	1408.41
591.708	1389.62
591.909	1348.35
592.11	1442.9
592.311	1354.16
592.512	1325.1
592.714	1296.81
592.915	1311.54
593.116	1332.46
593.317	1372.96
593.518	1336.92
593.719	1371.6
593.92	1387.29
594.121	1412.09
594.322	1348.16
594.523	1334.98
594.724	1281.9
594.925	1357.85
595.126	1356.3
595.327	1329.36
595.528	1354.75
595.729	1329.95
595.929	1318.13
596.13	1340.02
596.331	1339.63
596.532	1352.42
596.733	1387.1
596.934	1417.13
597.135	1405.12
597.335	1368.7
597.536	1312.12
597.737	1369.28
597.938	1317.74
598.138	1381.87
598.339	1370.63
598.54	1363.66
598.74	1320.84
598.941	1329.17
599.142	1384.58
599.342	1359.01
599.543	1316.77
599.744	1359.2
599.944	1321.42
600.145	1331.11
600.345	1378.38
600.546	1395.43
600.746	1389.62
600.947	1423.91
601.147	1332.08
601.348	1371.41
601.548	1319.1
601.749	1337.5
601.949	1291.58
602.15	1304.95
602.35	1306.89
602.551	1359.01
602.751	1280.15
602.951	1301.08
603.152	1242.95
603.352	1359.78
603.552	1307.86
603.753	1356.49
603.953	1346.61
604.153	1355.33
604.354	1300.5
604.554	1314.83
604.754	1364.63
604.954	1316
605.155	1347.38
605.355	1306.5
605.555	1374.31
605.755	1379.54
605.955	1323.94
606.155	1372.96
606.356	1327.23
606.556	1353.78
606.756	1368.31
606.956	1266.78
607.156	1371.41
607.356	1302.43
607.556	1352.61
607.756	1337.11
607.956	1357.26
608.156	1373.34
608.356	1279.57
608.556	1338.28
608.756	1281.7
608.956	1253.61
609.156	1303.98
609.356	1256.71
609.556	1243.15
609.755	1305.53
609.955	1245.67
610.155	1273.76
610.355	1313.28
610.555	1228.23
610.755	1286.55
610.954	1217.18
611.154	1281.9
611.354	1301.27
611.554	1228.23
611.753	1258.26
611.953	1239.08
612.153	1273.57
612.352	1277.83
612.552	1205.75
612.752	1220.48
612.951	1256.71
613.151	1243.73
613.351	1193.16
613.55	1243.34
613.75	1233.65
613.949	1187.35
614.149	1188.51
614.348	1228.62
614.548	1191.22
614.747	1151.7
614.947	1200.13
615.146	1140.46
615.346	1227.26
615.545	1199.55
615.745	1217.96
615.944	1214.28
616.144	1212.15
616.343	1234.43
616.542	1170.3
616.742	1169.33
616.941	1166.42
617.14	1138.91
617.34	1178.24
617.539	1179.6
617.738	1153.83
617.938	1243.34
618.137	1162.94
618.336	1133.87
618.535	1175.53
618.734	1161.77
618.934	1199.36
619.133	1166.04
619.332	1191.03
619.531	1133.1
619.73	1142.79
619.929	1215.83
620.128	1216.41
620.328	1236.37
620.527	1117.79
620.726	1167
620.925	1196.45
621.124	1145.69
621.323	1157.7
621.522	1111.4
621.721	1120.7
621.92	1114.11
622.119	1152.28
622.318	1135.04
622.517	1141.62
622.715	1111.59
622.914	1092.41
623.113	1128.45
623.312	1066.45
623.511	1129.42
623.71	1113.53
623.909	1113.34
624.107	1167.2
624.306	1072.65
624.505	1077.3
624.704	1064.71
624.902	1056.37
625.101	1130.97
625.3	1081.56
625.499	1057.92
625.697	1091.25
625.896	1059.28
626.095	1096.87
626.293	1059.28
626.492	1034.48
626.69	1097.84
626.889	1052.11
627.088	1106.36
627.286	1061.8
627.485	1031.57
627.683	1043.01
627.882	1073.62
628.08	977.13
628.279	1021.89
628.477	1053.86
628.676	1004.64
628.874	1019.95
629.073	1002.32
629.271	971.13
629.469	1043.39
629.668	1000.38
629.866	1018.79
630.065	979.07
630.263	1026.34
630.461	987.21
630.66	1031.77
630.858	1027.31
631.056	1099.58
631.254	1038.36
631.453	1007.74
631.651	1054.82
631.849	1025.76
632.047	1063.54
632.245	994.18
632.444	1063.16
632.642	1058.51
632.84	1067.22
633.038	997.48
633.236	973.06
633.434	987.01
633.632	984.88
633.83	1006.58
634.028	1075.75
634.227	1021.5
634.425	1083.89
634.623	1025.37
634.821	1039.13
635.019	1027.7
635.216	1004.26
635.414	1033.9
635.612	1019.18
635.81	1051.92
636.008	1074.01
636.206	998.06
636.404	1063.74
636.602	986.04
636.8	1017.04
636.997	1054.05
637.195	1039.91
637.393	1051.92
637.591	1067.42
637.789	1035.06
637.986	1017.43
638.184	1021.69
638.382	1069.16
638.58	1062.77
638.777	1084.86
638.975	1028.09
639.173	1030.99
639.37	1037.77
639.568	1046.88
639.765	1055.02
639.963	1003.68
640.161	1062.57
640.358	1055.41
640.556	1010.84
640.753	991.08
640.951	960.66
641.148	1030.8
641.346	1004.84
641.543	977.33
641.741	1015.3
641.938	960.08
642.136	1001.54
642.333	919.2
642.531	1030.02
642.728	1016.85
642.925	986.63
643.123	968.41
643.32	1007.55
643.517	1002.13
643.715	981.78
643.912	986.43
644.109	1006
644.306	976.55
644.504	934.89
644.701	970.74
644.898	982.17
645.095	934.12
645.293	956.59
645.49	1001.93
645.687	945.36
645.884	985.85
646.081	884.71
646.278	920.17
646.475	919.01
646.672	957.56
646.87	940.71
647.067	925.6
647.264	934.31
647.461	907.58
647.658	883.94
647.855	938.96
648.052	909.32
648.249	822.52
648.446	887.04
648.642	887.23
648.839	876.96
649.036	879.29
649.233	865.15
649.43	836.67
649.627	813.22
649.824	827.37
650.021	854.88
650.217	857.01
650.414	862.82
650.611	889.75
650.808	879.1
651.004	880.84
651.201	898.66
651.398	922.69
651.595	873.09
651.791	852.75
651.988	906.61
652.185	852.94
652.381	869.02
652.578	867.86
652.775	863.4
652.971	868.44
653.168	848.48
653.364	858.75
653.561	806.44
653.757	853.71
653.954	843.45
654.15	837.25
654.347	932.76
654.543	880.06
654.74	827.56
654.936	833.95
655.133	850.61
655.329	861.66
655.525	839.77
655.722	843.83
655.918	800.24
656.115	822.13
656.311	717.12
656.507	705.69
656.704	683.6
656.9	708.79
657.096	729.33
657.292	708.21
657.489	789.39
657.685	769.63
657.881	772.73
658.077	757.04
658.273	786.1
658.47	808.18
658.666	794.43
658.862	832.98
659.058	766.92
659.254	828.92
659.45	792.49
659.646	833.57
659.842	811.09
660.038	870.96
660.234	768.66
660.43	826.78
660.626	845.19
660.822	826.98
661.018	847.32
661.214	810.9
661.41	773.5
661.606	846.16
661.802	852.16
661.998	812.64
662.194	767.88
662.39	836.08
662.586	819.42
662.781	827.17
662.977	842.28
663.173	831.24
663.369	824.46
663.564	811.87
663.76	855.46
663.956	798.69
664.152	816.52
664.347	752.39
664.543	778.35
664.739	792.68
664.934	727.59
665.13	767.11
665.326	803.73
665.521	803.15
665.717	772.34
665.912	769.63
666.108	680.7
666.304	741.34
666.499	764.2
666.695	704.72
666.89	743.09
667.086	807.6
667.281	801.02
667.477	803.92
667.672	786.68
667.867	745.41
668.063	798.88
668.258	729.91
668.454	761.88
668.649	824.65
668.844	770.6
669.04	787.26
669.235	747.54
669.43	719.64
669.626	715.19
669.821	741.34
670.016	733.79
670.211	760.33
670.407	688.64
670.602	723.13
670.797	752.97
670.992	792.1
671.187	715.57
671.382	760.33
671.578	732.24
671.773	739.02
671.968	669.66
672.163	720.22
672.358	765.75
672.553	712.47
672.748	712.09
672.943	790.75
673.138	711.89
673.333	760.91
673.528	706.47
673.723	758.97
673.918	718.09
674.113	682.05
674.308	774.08
674.503	769.43
674.698	744.44
674.892	746.57
675.087	728.17
675.282	725.84
675.477	708.6
675.672	736.3
675.867	745.02
676.061	697.75
676.256	682.44
676.451	671.2
676.646	740.95
676.84	683.02
677.035	668.88
677.23	656.67
677.424	722.94
677.619	730.1
677.814	746.96
678.008	756.65
678.203	668.3
678.397	704.53
678.592	726.62
678.787	748.9
678.981	727.78
679.176	735.53
679.37	712.47
679.565	663.46
679.759	681.28
679.954	736.3
680.148	766.72
680.342	751.42
680.537	713.83
680.731	713.64
680.926	710.92
681.12	722.55
681.314	687.48
681.509	706.27
681.703	713.05
681.897	739.4
682.092	686.32
682.286	669.66
682.48	748.51
682.674	739.99
682.869	659.77
683.063	707.24
683.257	756.45
683.451	676.63
683.645	717.32
683.839	713.05
684.034	668.11
684.228	738.44
684.422	670.24
684.616	661.13
684.81	723.9
685.004	701.43
685.198	692.71
685.392	729.91
685.586	688.84
685.78	713.83
685.974	722.55
686.168	724.29
686.362	754.32
686.556	658.42
686.75	598.55
686.944	633.42
687.138	628
687.331	512.91
687.525	556.7
687.719	519.89
687.913	574.72
688.107	572.01
688.301	548.37
688.494	587.7
688.688	527.64
688.882	536.74
689.076	506.33
689.269	560.96
689.463	646.99
689.657	567.16
689.85	580.73
690.044	573.36
690.238	603.01
690.431	578.79
690.625	584.99
690.818	650.09
691.012	660.94
691.205	670.82
691.399	626.06
691.593	676.63
691.786	713.44
691.98	720.03
692.173	715.19
692.366	704.34
692.56	748.51
692.753	771.76
692.947	693.87
693.14	757.62
693.333	765.37
693.527	707.24
693.72	772.53
693.914	715.77
694.107	731.65
694.3	750.25
694.493	738.05
694.687	826.98
694.88	756.07
695.073	841.9
695.266	822.72
695.46	797.33
695.653	835.89
695.846	848.48
696.039	814.58
696.232	827.95
696.425	882.97
696.618	909.32
696.812	889.95
697.005	960.28
697.198	1014.53
697.391	944.19
697.584	996.89
697.777	1056.57
697.97	998.83
698.163	1002.9
698.356	986.63
698.549	1059.28
698.742	1059.28
698.935	998.64
699.127	1031.96
699.32	1011.43
699.513	1006.78
699.706	1050.37
699.899	1083.31
700.092	1026.73
700.285	1034.48
700.477	1011.62
700.67	1073.04
700.863	1091.83
701.056	1179.99
701.248	1166.62
701.441	1189.09
701.634	1149.76
701.826	1236.75
702.019	1133.29
702.212	1186.19
702.404	1151.12
702.597	1145.3
702.79	1200.13
702.982	1235.59
703.175	1259.42
703.367	1278.6
703.56	1263.1
703.752	1377.99
703.945	1325.88
704.137	1338.66
704.33	1378.96
704.522	1350.1
704.715	1397.76
704.907	1416.55
705.1	1439.99
705.292	1419.26
705.484	1428.18
705.677	1439.99
705.869	1489.98
706.061	1512.84
706.254	1546.55
706.446	1507.42
706.638	1492.31
706.831	1561.28
707.023	1536.87
707.215	1625.99
707.407	1591.7
707.599	1584.72
707.792	1634.52
707.984	1611.27
708.176	1711.24
708.368	1628.32
708.56	1659.51
708.752	1686.63
708.944	1649.43
709.136	1727.51
709.329	1705.43
709.521	1801.72
709.713	1770.53
709.905	1788.74
710.097	1827.68
710.289	1788.93
710.481	1793.39
710.672	1826.33
710.864	1825.55
711.056	1870.11
711.248	1881.35
711.44	1856.94
711.632	1862.17
711.824	1902.08
712.016	1977.45
712.207	1991.59
712.399	1961.37
712.591	2027.44
712.783	1971.06
712.975	2022.2
713.166	1983.84
713.358	1990.43
713.55	2024.53
713.741	2076.26
713.933	2042.94
714.125	2066.57
714.316	2017.75
714.508	2104.35
714.7	2121.98
714.891	2089.63
715.083	2137.29
715.274	2101.06
715.466	2100.28
715.657	2154.92
715.849	2084.2
716.04	2121.4
716.232	2055.34
716.423	2120.82
716.615	1997.6
716.806	1966.21
716.998	1940.25
717.189	1897.24
717.381	1821.87
717.572	1813.15
717.763	1796.1
717.955	1776.92
718.146	1723.83
718.337	1731.2
718.528	1643.43
718.72	1575.42
718.911	1698.07
719.102	1643.62
719.293	1702.33
719.485	1658.15
719.676	1640.91
719.867	1603.71
720.058	1613.01
720.249	1589.37
720.44	1623.28
720.632	1679.27
720.823	1753.67
721.014	1842.21
721.205	1877.86
721.396	1911.96
721.587	2012.13
721.778	2040.61
721.969	2082.07
722.16	2152.98
722.351	2144.27
722.542	2278.34
722.733	2282.99
722.924	2164.61
723.115	2244.63
723.305	2222.15
723.496	2221.38
723.687	2088.27
723.878	2083.62
724.069	2112.49
724.26	2091.95
724.45	2023.17
724.641	2023.75
724.832	2054.17
725.023	2046.04
725.213	2000.7
725.404	2028.79
725.595	2004.38
725.785	2022.2
725.976	2072.77
726.167	2091.76
726.357	2067.15
726.548	2196.58
726.739	2069.09
726.929	2162.86
727.12	2188.44
727.31	2177.01
727.501	2140.97
727.691	2147.75
727.882	2125.67
728.072	2197.35
728.263	2201.42
728.453	2250.05
728.644	2231.65
728.834	2217.7
729.024	2189.99
729.215	2149.11
729.405	2278.34
729.596	2309.73
729.786	2307.01
729.976	2269.04
730.167	2302.36
730.357	2246.18
730.547	2256.06
730.737	2306.63
730.928	2320.96
731.118	2407.57
731.308	2349.83
731.498	2350.41
731.688	2439.15
731.879	2397.88
732.069	2501.15
732.259	2510.83
732.449	2512.77
732.639	2598.99
732.829	2627.08
733.019	2613.71
733.209	2712.53
733.399	2701.68
733.589	2763.09
733.779	2812.5
733.969	2770.84
734.159	2871.4
734.349	2880.7
734.539	2929.52
734.729	2890.19
734.919	2966.33
735.109	3012.45
735.299	2893.49
735.488	2964.98
735.678	2939.21
735.868	2912.28
736.058	2943.86
736.248	2896.2
736.437	2857.45
736.627	2864.23
736.817	3003.34
737.007	2943.86
737.196	2993.65
737.386	2982.22
737.576	2968.47
737.765	3010.7
737.955	2986.48
738.144	3092.46
738.334	3020.78
738.524	2972.53
738.713	2988.62
738.903	2996.37
739.092	3014
739.282	3033.37
739.471	3043.64
739.661	3041.31
739.85	3091.88
740.04	3093.24
740.229	3093.63
740.419	3118.62
740.608	3140.9
740.797	3116.88
740.987	3195.54
741.176	3168.99
741.365	3119.78
741.555	3083.55
741.744	3120.36
741.933	3105.06
742.123	3123.66
742.312	3141.48
742.501	3175.19
742.69	3210.46
742.88	3117.07
743.069	3230.99
743.258	3174.03
743.447	3224.6
743.636	3200.77
743.825	3197.86
744.014	3211.23
744.204	3213.17
744.393	3143.81
744.582	3270.52
744.771	3260.83
744.96	3220.92
745.149	3259.09
745.338	3172.68
745.527	3285.05
745.716	3213.56
745.905	3181.59
746.094	3252.31
746.283	3271.49
746.471	3237.39
746.66	3318.18
746.849	3336
747.038	3352.28
747.227	3282.53
747.416	3266.26
747.604	3240.1
747.793	3234.48
747.982	3263.35
748.171	3246.69
748.359	3277.49
748.548	3213.36
748.737	3218.98
748.926	3253.47
749.114	3179.07
749.303	3226.54
749.491	3221.5
749.68	3174.23
749.869	3243.97
750.057	3208.52
750.246	3184.69
750.434	3194.38
750.623	3182.56
750.811	3167.83
751	3212.59
751.188	3167.25
751.377	3210.07
751.565	3162.41
751.754	3143.61
751.942	3146.91
752.131	3181.59
752.319	3127.53
752.507	3106.22
752.696	3162.79
752.884	3183.53
753.072	3143.03
753.261	3153.69
753.449	3150.59
753.637	3131.99
753.825	3217.62
754.014	3137.99
754.202	3157.56
754.39	3217.82
754.578	3166.67
754.766	3126.37
754.955	3147.49
755.143	3158.14
755.331	3099.44
755.519	3120.56
755.707	3146.71
755.895	3113.97
756.083	3102.35
756.271	3058.75
756.459	3057.59
756.647	3090.33
756.835	3094.4
757.023	3058.75
757.211	3041.12
757.399	3031.24
757.587	3036.47
757.775	3009.93
757.963	3001.21
758.151	3018.84
758.339	2997.72
758.526	2979.7
758.714	3000.82
758.902	2889.8
759.09	2818.12
759.278	2645.1
759.465	2460.46
759.653	2087.3
759.841	1900.14
760.028	1627.35
760.216	1413.26
760.404	1291.2
760.591	1057.34
760.779	883.94
760.967	792.1
761.154	671.98
761.342	702.2
761.529	697.55
761.717	749.29
761.905	802.37
762.092	843.06
762.28	798.5
762.467	793.46
762.655	727.97
762.842	741.15
763.029	743.09
763.217	744.05
763.404	749.48
763.592	790.94
763.779	729.72
763.966	808.18
764.154	817.68
764.341	906.61
764.528	905.45
764.716	952.14
764.903	1001.35
765.09	1045.14
765.277	1105.39
765.465	1254.77
765.652	1285.77
765.839	1365.01
766.026	1472.35
766.213	1520.01
766.4	1619.4
766.588	1794.94
766.775	1792.61
766.962	1872.44
767.149	1939.09
767.336	2085.37
767.523	2044.68
767.71	2165.19
767.897	2254.51
768.084	2288.8
768.271	2336.27
768.458	2399.62
768.645	2446.32
768.832	2404.47
769.019	2487.97
769.206	2472.86
769.392	2589.5
769.579	2652.08
769.766	2609.84
769.953	2572.64
770.14	2670.1
770.327	2619.72
770.513	2665.06
770.7	2741.39
770.887	2662.35
771.073	2705.16
771.26	2686.18
771.447	2659.63
771.634	2638.71
771.82	2749.53
772.007	2627.86
772.193	2676.1
772.38	2711.94
772.567	2702.64
772.753	2709.23
772.94	2736.55
773.126	2776.46
773.313	2737.52
773.499	2701.09
773.686	2741.78
773.872	2649.17
774.059	2707.68
774.245	2656.15
774.432	2665.06
774.618	2572.83
774.804	2696.64
774.991	2612.94
775.177	2661.96
775.363	2650.72
775.55	2672.23
775.736	2611.2
775.922	2637.93
776.109	2638.13
776.295	2649.17
776.481	2673
776.667	2663.31
776.853	2631.73
777.04	2625.53
777.226	2631.35
777.412	2687.34
777.598	2569.35
777.784	2631.35
777.97	2595.89
778.156	2612.55
778.342	2576.13
778.528	2604.03
778.715	2513.35
778.901	2549.97
779.087	2581.75
779.272	2525.75
779.458	2529.82
779.644	2531.57
779.83	2495.53
780.016	2624.18
780.202	2488.17
780.388	2542.42
780.574	2451.16
780.76	2483.9
780.946	2578.07
781.131	2467.82
781.317	2529.82
781.503	2487.59
781.689	2493.59
781.874	2595.11
782.06	2490.88
782.246	2485.26
782.432	2471.7
782.617	2485.07
782.803	2534.28
782.989	2406.6
783.174	2448.06
783.36	2413.38
783.545	2438.18
783.731	2468.21
783.916	2347.12
784.102	2409.7
784.288	2396.72
784.473	2422.68
784.659	2384.12
784.844	2395.56
785.029	2368.43
785.215	2364.17
785.4	2307.01
785.586	2407.76
785.771	2315.54
785.956	2365.14
786.142	2346.54
786.327	2316.7
786.512	2295.78
786.698	2309.92
786.883	2279.5
787.068	2268.07
787.254	2282.21
787.439	2305.66
787.624	2306.63
787.809	2270.01
787.994	2259.54
788.18	2310.11
788.365	2196.19
788.55	2193.28
788.735	2252.96
788.92	2216.15
789.105	2222.35
789.29	2230.29
789.475	2180.69
789.66	2162.48
789.845	2154.34
790.03	2138.65
790.215	2247.92
790.4	2233.58
790.585	2247.14
790.77	2177.2
790.955	2112.3
791.14	2201.23
791.325	2246.18
791.51	2088.47
791.695	2127.6
791.879	2117.14
792.064	2065.41
792.249	2184.76
792.434	2166.74
792.618	2106.87
792.803	2160.93
792.988	2139.62
793.173	2158.02
793.357	2198.9
793.542	2106.68
793.727	2154.34
793.911	2177.78
794.096	2160.15
794.281	2198.9
794.465	2256.25
794.65	2180.5
794.834	2214.01
795.019	2210.33
795.203	2208.59
795.388	2260.32
795.572	2257.8
795.757	2187.08
795.941	2187.47
796.126	2169.06
796.31	2158.6
796.494	2157.25
796.679	2165.77
796.863	2137.68
797.048	2236.68
797.232	2197.55
797.416	2182.05
797.601	2190.18
797.785	2254.7
797.969	2228.35
798.153	2167.71
798.338	2219.63
798.522	2247.34
798.706	2256.64
798.89	2239.78
799.074	2331.04
799.258	2304.69
799.443	2198.13
799.627	2250.05
799.811	2251.6
799.995	2188.25
800.179	2180.5
800.363	2189.99
800.547	2213.82
800.731	2258.19
800.915	2147.17
801.099	2169.65
801.283	2173.91
801.467	2204.33
801.651	2191.73
801.835	2199.68
802.019	2231.84
802.202	2218.47
802.386	2158.6
802.57	2130.9
802.754	2174.49
802.938	2137.48
803.121	2162.28
803.305	2230.87
803.489	2161.7
803.673	2130.12
803.856	2159.18
804.04	2190.38
804.224	2158.6
804.407	2136.71
804.591	2165.77
804.775	2203.55
804.958	2167.13
805.142	2277.37
805.326	2190.38
805.509	2207.43
805.693	2229.71
805.876	2206.26
806.06	2202.58
806.243	2249.08
806.427	2259.16
806.61	2259.74
806.794	2186.89
806.977	2260.13
807.16	2206.85
807.344	2212.08
807.527	2208.98
807.71	2217.7
807.894	2211.5
808.077	2243.66
808.26	2171.39
808.444	2134
808.627	2236.49
808.81	2190.18
808.993	2123.73
809.177	2102.22
809.36	2144.46
809.543	2180.88
809.726	2052.24
809.909	2086.33
810.092	2077.23
810.276	2061.92
810.459	2090.02
810.642	2042.35
810.825	2026.08
811.008	2011.74
811.191	1933.86
811.374	1981.71
811.557	1978.22
811.74	2057.66
811.923	1935.02
812.106	1913.32
812.289	1866.04
812.472	1887.94
812.654	1974.54
812.837	1857.91
813.02	1814.51
813.203	1821.48
813.386	1714.34
813.569	1725
813.751	1647.69
813.934	1730.23
814.117	1675.78
814.3	1629.87
814.482	1625.02
814.665	1581.82
814.848	1520.79
815.03	1483.39
815.213	1508.19
815.396	1454.91
815.578	1475.06
815.761	1421.59
815.943	1513.42
816.126	1425.46
816.309	1402.6
816.491	1311.15
816.674	1328.01
816.856	1316.38
817.039	1345.64
817.221	1391.17
817.403	1340.99
817.586	1393.88
817.768	1390.2
817.951	1321.81
818.133	1310.57
818.315	1369.47
818.498	1397.56
818.68	1432.05
818.862	1364.24
819.045	1421.2
819.227	1419.46
819.409	1396.59
819.591	1388.26
819.774	1385.16
819.956	1364.82
820.138	1427.59
820.32	1441.93
820.502	1465.18
820.684	1507.22
820.866	1542.87
821.048	1574.84
821.231	1584.92
821.413	1565.74
821.595	1546.75
821.777	1570
821.959	1518.85
822.141	1597.7
822.323	1464.99
822.505	1407.64
822.686	1369.66
822.868	1343.31
823.05	1231.52
823.232	1213.12
823.414	1137.94
823.596	1239.66
823.778	1230.55
823.96	1224.93
824.141	1262.33
824.323	1287.9
824.505	1312.51
824.687	1363.08
824.868	1417.33
825.05	1501.61
825.232	1528.15
825.413	1602.74
825.595	1532.41
825.777	1448.33
825.958	1505.09
826.14	1509.94
826.321	1533.77
826.503	1504.71
826.685	1508.77
826.866	1543.84
827.048	1525.05
827.229	1477.58
827.411	1474.09
827.592	1407.06
827.773	1411.32
827.955	1348.35
828.136	1382.45
828.318	1338.47
828.499	1386.13
828.68	1329.56
828.862	1353.97
829.043	1419.07
829.224	1361.72
829.406	1338.66
829.587	1353.78
829.768	1369.86
829.949	1377.99
830.131	1345.06
830.312	1417.71
830.493	1370.24
830.674	1396.21
830.855	1372.18
831.036	1384
831.218	1394.08
831.399	1432.63
831.58	1375.86
831.761	1367.53
831.942	1404.93
832.123	1355.33
832.304	1320.26
832.485	1362.69
832.666	1372.76
832.847	1412.09
833.028	1350.48
833.209	1384.19
833.389	1360.75
833.57	1299.91
833.751	1304.37
833.932	1403.38
834.113	1377.8
834.294	1334.4
834.475	1374.51
834.655	1400.86
834.836	1441.74
835.017	1426.24
835.198	1339.44
835.378	1379.93
835.559	1438.06
835.74	1368.11
835.92	1384.78
836.101	1352.42
836.281	1407.44
836.462	1391.17
836.643	1410.93
836.823	1430.31
837.004	1400.66
837.184	1484.36
837.365	1459.95
837.545	1457.62
837.726	1410.93
837.906	1491.92
838.087	1395.82
838.267	1456.08
838.448	1387.88
838.628	1432.44
838.808	1398.53
838.989	1503.35
839.169	1377.8
839.349	1424.69
839.53	1456.08
839.71	1450.46
839.89	1401.44
840.07	1477.97
840.251	1403.38
840.431	1444.06
840.611	1426.43
840.791	1365.6
840.971	1431.28
841.151	1405.31
841.332	1399.5
841.512	1441.54
841.692	1341.76
841.872	1442.9
842.052	1387.1
842.232	1454.53
842.412	1359.59
842.592	1394.46
842.772	1413.84
842.952	1391.56
843.132	1375.28
843.312	1407.25
843.492	1350.48
843.672	1394.85
843.851	1315.61
844.031	1351.84
844.211	1358.43
844.391	1353.2
844.571	1339.25
844.751	1386.71
844.93	1380.32
845.11	1372.38
845.29	1407.25
845.47	1412.29
845.649	1361.72
845.829	1412.48
846.009	1374.31
846.188	1390.01
846.368	1369.86
846.547	1351.65
846.727	1368.7
846.907	1293.71
847.086	1354.16
847.266	1384.97
847.445	1355.52
847.625	1322
847.804	1327.43
847.984	1330.14
848.163	1318.32
848.343	1329.56
848.522	1344.86
848.701	1339.63
848.881	1296.23
849.06	1337.89
849.239	1329.17
849.419	1364.24
849.598	1256.13
849.777	1280.54
849.957	1269.5
850.136	1217.96
850.315	1182.7
850.494	1181.73
850.674	1195.48
850.853	1249.15
851.032	1227.07
851.211	1280.73
851.39	1275.12
851.569	1193.16
851.748	1201.49
851.927	1280.54
852.107	1252.25
852.286	1203.04
852.465	1212.53
852.644	1252.83
852.823	1251.28
853.002	1232.68
853.181	1244.7
853.359	1223.97
853.538	1196.26
853.717	1287.13
853.896	1118.57
854.075	1091.83
854.254	1076.72
854.433	1027.51
854.611	1071.49
854.79	1017.04
854.969	1114.11
855.148	1120.7
855.327	1041.65
855.505	1136.78
855.684	1089.12
855.863	1134.65
856.041	1097.64
856.22	1132.32
856.399	1099.97
856.577	1202.65
856.756	1201.49
856.934	1254.38
857.113	1284.61
857.291	1177.47
857.47	1145.5
857.648	1168.17
857.827	1185.41
858.005	1207.3
858.184	1181.15
858.362	1269.11
858.541	1188.32
858.719	1171.07
858.898	1151.89
859.076	1154.41
859.254	1222.03
859.433	1149.18
859.611	1132.52
859.789	1118.37
859.967	1215.63
860.146	1239.85
860.324	1126.7
860.502	1180.76
860.68	1090.67
860.859	1124.77
861.037	1137.94
861.215	1163.32
861.393	1179.99
861.571	1141.82
861.749	1125.15
861.927	1146.85
862.105	1170.1
862.283	1124.57
862.461	1086.99
862.639	1098.61
862.817	1117.02
862.995	1118.95
863.173	1101.13
863.351	1105.2
863.529	1113.14
863.707	1186.77
863.885	1117.02
864.063	1060.25
864.241	1080.98
864.418	1146.66
864.596	1083.5
864.774	1045.91
864.952	1068.19
865.129	1114.69
865.307	1042.62
865.485	1034.67
865.663	1115.85
865.84	989.53
866.018	1014.14
866.196	907
866.373	947.68
866.551	938.38
866.728	873.67
866.906	902.35
867.084	957.76
867.261	983.72
867.439	971.13
867.616	1012.59
867.794	995.34
867.971	976.74
868.149	996.31
868.326	1063.93
868.503	1043.97
868.681	1033.32
868.858	1024.41
869.035	990.69
869.213	1054.24
869.39	999.22
869.567	1073.42
869.745	978.49
869.922	1021.89
870.099	1022.66
870.276	1054.44
870.454	1029.83
870.631	1012.59
870.808	992.05
870.985	1047.46
871.162	1057.92
871.339	1016.66
871.517	941.87
871.694	968.41
871.871	970.54
872.048	994.76
872.225	988.56
872.402	953.49
872.579	931.02
872.756	1012.2
872.933	945.74
873.11	987.79
873.287	979.26
873.463	950.01
873.64	941.09
873.817	955.43
873.994	985.85
874.171	936.64
874.348	981.39
874.524	916.1
874.701	937.03
874.878	902.73
875.055	976.55
875.231	924.05
875.408	960.08
875.585	895.18
875.762	935.86
875.938	890.33
876.115	939.35
876.291	874.64
876.468	900.41
876.645	871.15
876.821	884.71
876.998	894.6
877.174	924.24
877.351	913
877.527	879.48
877.704	913.2
877.88	889.56
878.057	907.77
878.233	945.55
878.409	889.36
878.586	917.26
878.762	893.63
878.938	902.54
879.115	814.38
879.291	892.85
879.467	854.1
879.644	852.36
879.82	891.3
879.996	856.04
880.172	846.74
880.349	843.64
880.525	882.39
880.701	836.67
880.877	823.1
881.053	887.81
881.229	845.96
881.405	896.73
881.581	795.4
881.757	836.08
881.933	869.21
882.109	890.72
882.285	859.33
882.461	802.76
882.637	851
882.813	801.02
882.989	831.43
883.165	909.9
883.341	810.7
883.517	863.4
883.693	872.31
883.869	866.11
884.044	837.25
884.22	888.59
884.396	904.09
884.572	861.08
884.747	886.26
884.923	863.79
885.099	874.64
885.275	868.83
885.45	846.93
885.626	822.13
885.801	828.14
885.977	854.49
886.153	816.13
886.328	834.53
886.504	831.05
886.679	880.65
886.855	814.58
887.03	834.73
887.206	864.56
887.381	839.96
887.557	863.01
887.732	862.24
887.908	861.27
888.083	855.26
888.258	825.04
888.434	838.41
888.609	846.74
888.784	894.79
888.96	821.17
889.135	806.44
889.31	829.5
889.485	852.75
889.661	826.98
889.836	889.17
890.011	861.27
890.186	842.28
890.361	841.9
890.537	838.41
890.712	853.52
890.887	842.67
891.062	832.6
891.237	889.56
891.412	834.73
891.587	834.34
891.762	864.18
891.937	895.18
892.112	802.18
892.287	841.7
892.462	792.88
892.637	777.77
892.812	774.08
892.987	746.38
893.161	765.56
893.336	762.07
893.511	763.43
893.686	797.92
893.861	760.72
894.035	751.22
894.21	735.53
894.385	708.02
894.56	750.64
894.734	673.14
894.909	725.84
895.084	694.84
895.258	697.36
895.433	709.76
895.608	701.62
895.782	620.83
895.957	652.61
896.131	692.13
896.306	616.96
896.48	594.48
896.655	596.61
896.829	539.46
897.004	560.96
897.178	559.61
897.353	547.21
897.527	621.02
897.701	556.31
897.876	531.13
898.05	606.49
898.224	605.33
898.399	616.76
898.573	594.48
898.747	467
898.921	530.54
899.096	448.59
899.27	445.88
899.444	453.24
899.618	477.26
899.792	476.1
899.967	517.56
900.141	534.81
900.315	465.06
900.489	445.49
900.663	515.04
900.837	507.49
901.011	460.99
901.185	543.33
901.359	523.96
901.533	507.88
901.707	508.26
901.881	505.16
902.055	452.08
902.229	494.9
902.403	523.96
902.576	501.87
902.75	482.3
902.924	588.47
903.098	542.75
903.272	574.91
903.446	626.64
903.619	573.56
903.793	628.58
903.967	614.05
904.14	673.72
904.314	619.67
904.488	622.77
904.661	648.15
904.835	632.07
905.009	678.95
905.182	667.52
905.356	625.09
905.529	619.86
905.703	604.75
905.876	601.84
906.05	571.81
906.223	546.63
906.397	514.46
906.57	507.88
906.744	498.96
906.917	495.86
907.09	473.97
907.264	480.75
907.437	467.19
907.61	440.84
907.784	445.88
907.957	483.46
908.13	429.8
908.304	483.85
908.477	417.4
908.65	421.66
908.823	407.32
908.996	506.13
909.17	437.16
909.343	422.63
909.516	439.48
909.689	445.3
909.862	429.8
910.035	454.6
910.208	392.02
910.381	401.51
910.554	504.19
910.727	429.8
910.9	404.03
911.073	383.3
911.246	474.36
911.419	493.54
911.592	448.78
911.765	413.91
911.938	406.74
912.11	453.43
912.283	427.66
912.456	485.21
912.629	428.05
912.802	404.61
912.974	348.42
913.147	348.62
913.32	343.77
913.493	352.3
913.665	359.47
913.838	394.53
914.01	351.33
914.183	411.58
914.356	366.25
914.528	393.95
914.701	478.81
914.873	430.57
915.046	389.11
915.218	364.7
915.391	300.76
915.563	313.94
915.736	349.97
915.908	375.55
916.081	384.27
916.253	350.17
916.425	367.99
916.598	398.6
916.77	347.26
916.942	330.6
917.115	299.99
917.287	374.77
917.459	330.21
917.632	332.15
917.804	271.5
917.976	363.34
918.148	341.45
918.32	345.32
918.493	355.2
918.665	406.93
918.837	383.1
919.009	436.96
919.181	411.58
919.353	396.86
919.525	381.36
919.697	384.85
919.869	400.54
920.041	454.01
920.213	510.59
920.385	429.8
920.557	431.15
920.729	440.84
920.901	430.38
921.073	406.16
921.244	382.13
921.416	439.1
921.588	384.27
921.76	360.63
921.932	457.31
922.103	393.18
922.275	367.41
922.447	385.23
922.619	312.97
922.79	361.98
922.962	346.87
923.134	397.44
923.305	330.4
923.477	335.63
923.648	328.08
923.82	371.87
923.991	293.2
924.163	310.64
924.335	343.38
924.506	306.57
924.677	393.18
924.849	324.2
925.02	345.13
925.192	362.57
925.363	355.2
925.535	349
925.706	308.9
925.877	341.06
926.049	328.85
926.22	343
926.391	336.8
926.562	358.88
926.734	326.72
926.905	361.21
927.076	303.67
927.247	321.68
927.419	250.39
927.59	270.15
927.761	280.42
927.932	273.25
928.103	271.5
928.274	245.54
928.445	239.15
928.616	234.69
928.787	231.21
928.958	267.82
929.129	237.99
929.3	253.1
929.471	184.32
929.642	159.91
929.813	113.99
929.984	224.81
930.155	143.83
930.326	194.01
930.496	161.26
930.667	119.8
930.838	153.32
931.009	100.81
931.18	140.34
931.35	123.87
931.521	137.43
931.692	80.66
931.863	64.19
932.033	151.19
932.204	113.99
932.374	103.14
932.545	62.45
932.716	137.24
932.886	118.44
933.057	35.13
933.227	55.67
933.398	133.94
933.568	48.5
933.739	-1.29
933.909	47.53
934.08	65.74
934.25	25.64
934.421	18.66
934.591	40.36
934.761	12.46
934.932	10.91
935.102	47.73
935.272	49.86
935.443	11.3
935.613	41.53
935.783	41.33
935.953	18.66
936.123	176.18
936.294	26.41
936.464	34.94
936.634	42.11
936.804	14.21
936.974	-9.43
937.144	45.4
937.314	49.08
937.484	37.65
937.655	44.63
937.825	89.77
937.995	22.35
938.165	87.83
938.334	22.35
938.504	59.35
938.674	36.49
938.844	63.23
939.014	108.76
939.184	106.63
939.354	114.76
939.524	115.15
939.694	52.76
939.863	63.42
940.033	116.89
940.203	119.8
940.373	116.31
940.542	97.52
940.712	53.73
940.882	108.76
941.051	145.38
941.221	116.51
941.391	143.83
941.56	66.71
941.73	52.57
941.899	185.09
942.069	64.78
942.238	86.28
942.408	78.14
942.577	114.18
942.747	60.71
942.916	22.93
943.086	57.41
943.255	99.84
943.425	90.35
943.594	71.17
943.763	-16.79
943.933	34.55
944.102	4.52
944.271	68.26
944.441	65.36
944.61	21.96
944.779	79.69
944.948	125.23
945.117	5.3
945.287	51.6
945.456	-1.1
945.625	28.93
945.794	82.21
945.963	44.63
946.132	95.39
946.301	18.86
946.47	60.51
946.639	12.27
946.808	47.53
946.977	91.9
947.146	91.9
947.315	35.52
947.484	70.59
947.653	62.06
947.822	38.81
947.991	21.18
948.16	138.21
948.329	112.44
948.498	51.8
948.666	73.11
948.835	68.65
949.004	11.5
949.173	22.54
949.341	86.48
949.51	61.29
949.679	101.98
949.847	82.41
950.016	110.31
950.185	102.36
950.353	57.61
950.522	27.58
950.69	96.16
950.859	41.72
951.028	113.21
951.196	58.19
951.365	53.54
951.533	52.57
951.701	85.51
951.87	101.78
952.038	42.3
952.207	53.93
952.375	117.48
952.543	48.89
952.712	63.61
952.88	42.5
953.048	132.98
953.217	67.68
953.385	58.96
953.553	107.59
953.721	39.78
953.89	45.79
954.058	30.68
954.226	25.83
954.394	66.33
954.562	-2.65
954.73	74.08
954.898	43.08
955.067	82.02
955.235	35.13
955.403	88.22
955.571	121.16
955.739	83.96
955.907	21.96
956.075	19.25
956.243	33.39
956.41	53.93
956.578	2.97
956.746	34.94
956.914	30.1
957.082	74.66
957.25	79.69
957.418	48.89
957.585	71.36
957.753	118.06
957.921	23.31
958.089	55.86
958.256	60.9
958.424	87.06
958.592	51.99
958.759	11.88
958.927	73.11
959.095	12.66
959.262	53.15
959.43	66.71
959.597	19.83
959.765	72.53
959.932	12.66
960.1	78.14
960.267	59.74
960.435	54.31
960.602	97.91
960.77	37.26
960.937	20.02
961.104	67.68
961.272	2.2
961.439	38.81
961.606	89.58
961.774	113.21
961.941	45.98
962.108	82.02
962.275	59.35
962.443	99.46
962.61	79.11
962.777	131.62
962.944	100.23
963.111	73.49
963.278	90.16
963.446	76.01
963.613	67.29
963.78	89.38
963.947	84.54
964.114	72.72
964.281	139.95
964.448	79.89
964.615	43.27
964.782	106.63
964.949	86.28
965.116	87.06
965.282	114.18
965.449	61.87
965.616	21.18
965.783	81.63
965.95	75.24
966.117	31.06
966.283	72.33
966.45	84.34
966.617	58.96
966.784	113.79
966.95	118.64
967.117	102.56
967.284	48.11
967.45	57.8
967.617	110.11
967.784	102.36
967.95	133.17
968.117	82.21
968.283	145.38
968.45	167.85
968.616	83.18
968.783	131.04
968.949	97.13
969.116	142.66
969.282	56.64
969.449	96.16
969.615	83.96
969.781	50.25
969.948	74.85
970.114	52.96
970.28	139.95
970.447	98.1
970.613	132.78
970.779	62.64
970.945	121.93
971.112	98.1
971.278	93.64
971.444	88.8
971.61	140.92
971.776	74.46
971.942	114.76
972.108	97.13
972.275	77.37
972.441	99.65
972.607	155.26
972.773	64.97
972.939	94.61
973.105	87.44
973.271	28.16
973.437	54.51
973.602	23.31
973.768	106.63
973.934	85.12
974.1	117.48
974.266	-3.42
974.432	91.71
974.598	64.97
974.763	85.89
974.929	58.19
975.095	120.38
975.261	40.17
975.426	45.21
975.592	73.3
975.758	126
975.923	44.05
976.089	52.38
976.255	130.26
976.42	105.08
976.586	84.54
976.751	88.03
976.917	157
977.082	105.27
977.248	40.17
977.413	29.32
977.579	58.19
977.744	74.46
977.91	45.01
978.075	46.56
978.24	97.13
978.406	86.67
978.571	60.32
978.736	40.36
978.902	107.01
979.067	55.28
979.232	6.85
979.397	71.17
979.563	136.85
979.728	61.68
979.893	60.9
980.058	66.52
980.223	122.13
980.388	86.86
980.554	84.54
980.719	45.6
980.884	48.7
981.049	118.44
981.214	51.8
981.379	108.76
981.544	44.05
981.709	59.74
981.874	47.15
982.039	84.34
982.204	113.79
982.368	67.68
982.533	37.46
982.698	99.26
982.863	124.64
983.028	60.71
983.193	112.63
983.357	64.97
983.522	77.37
983.687	75.04
983.852	62.45
984.016	50.05
984.181	83.18
984.346	69.23
984.51	104.88
984.675	61.09
984.839	79.89
985.004	98.1
985.168	102.75
985.333	86.28
985.498	43.08
985.662	98.49
985.827	81.63
985.991	69.81
986.155	72.53
986.32	104.11
986.484	145.38
986.649	62.06
986.813	40.17
986.977	70.98
987.142	69.04
987.306	32.23
987.47	33.97
987.634	84.34
987.799	79.11
987.963	63.03
988.127	101.39
988.291	114.38
988.455	100.62
988.62	54.9
988.784	95.58
988.948	88.22
989.112	43.08
989.276	89.58
989.44	76.79
989.604	36.88
989.768	55.09
989.932	148.47
990.096	46.56
990.26	37.26
990.424	28.35
990.588	68.65
990.752	143.05
990.915	98.68
991.079	61.48
991.243	66.52
991.407	90.35
991.571	62.06
991.734	56.25
991.898	97.71
992.062	149.64
992.226	70.59
992.389	29.71
992.553	15.95
992.717	54.51
992.88	39.4
993.044	98.29
993.207	57.41
993.371	90.35
993.535	67.49
993.698	77.56
993.862	84.15
994.025	95
994.189	66.71
994.352	66.71
994.515	72.72
994.679	104.88
994.842	58
995.006	85.51
995.169	41.33
995.332	23.12
995.496	110.89
995.659	7.04
995.822	76.79
995.985	49.47
996.149	97.71
996.312	54.51
996.475	106.63
996.638	45.98
996.801	106.43
996.964	92.48
997.128	34.36
997.291	31.84
997.454	93.84
997.617	22.15
997.78	103.14
997.943	58.58
998.106	54.51
998.269	23.51
998.432	61.48
998.595	72.53
998.758	8.2
998.92	16.73
999.083	6.46
999.246	51.8
999.409	11.88
999.572	-16.02
999.735	24.09
999.897	69.62
1000.06	13.43
1000.223	19.25
1000.386	57.03
1000.548	86.28
1000.711	83.38
1000.874	61.87
1001.036	15.76
1001.199	82.02
1001.361	21.76
1001.524	65.94
1001.687	85.51
1001.849	26.61
1002.012	58.38
1002.174	77.76
1002.337	72.33
1002.499	36.68
1002.661	73.49
1002.824	8.4
1002.986	22.35
1003.149	53.54
1003.311	10.33
1003.473	95
1003.636	0.06
1003.798	54.9
1003.96	70.78
1004.123	62.06
1004.285	8.4
1004.447	36.3
1004.609	34.16
1004.771	85.89
1004.933	31.26
1005.096	43.66
1005.258	5.49
1005.42	42.88
1005.582	104.49
1005.744	38.81
1005.906	10.14
1006.068	35.71
1006.23	-9.62
1006.392	2.78
1006.554	37.65
1006.716	53.35
1006.878	60.9
1007.04	8.4
1007.202	-8.85
1007.363	39.98
1007.525	42.88
1007.687	29.13
1007.849	89.96
1008.011	-11.17
1008.172	19.44
1008.334	32.23
1008.496	46.95
1008.658	9.95
1008.819	-4.78
1008.981	9.75
1009.143	8.59
1009.304	15.56
1009.466	53.73
1009.627	91.71
1009.789	118.25
1009.95	39.2
1010.112	-0.71
1010.273	27.77
1010.435	26.03
1010.596	16.53
1010.758	12.66
1010.919	25.64
1011.081	-11.95
1011.242	15.95
1011.403	53.54
1011.565	14.6
1011.726	20.6
1011.887	8.98
1012.049	33.78
1012.21	71.17
1012.371	82.02
1012.532	-36.75
1012.693	39.4
1012.855	-14.47
1013.016	53.35
1013.177	50.25
1013.338	20.6
1013.499	87.83
1013.66	47.15
1013.821	56.83
1013.982	42.3
1014.143	30.48
1014.304	15.18
1014.465	51.99
1014.626	56.83
1014.787	18.08
1014.948	105.08
1015.109	-46.24
1015.27	58.19
1015.431	13.63
1015.592	-4.78
1015.752	93.26
1015.913	27.38
1016.074	44.63
1016.235	35.71
1016.395	41.91
1016.556	39.78
1016.717	43.46
1016.877	44.05
1017.038	3.16
1017.199	39.59
1017.359	37.07
1017.52	57.22
1017.681	7.81
1017.841	24.28
1018.002	0.45
1018.162	21.76
1018.323	100.23
1018.483	-2.65
1018.644	10.53
1018.804	-0.13
1018.964	-4.97
1019.125	10.91
1019.285	36.3
1019.446	-3.23
1019.606	11.88
1019.766	-57.48
1019.926	50.25
1020.087	39.4
1020.247	-32.48
1020.407	50.63
1020.567	64.58
1020.728	30.29
1020.888	-1.1
1021.048	4.91
1021.208	-0.32
1021.368	11.3
1021.528	46.37
1021.688	69.81
1021.848	60.51
1022.008	35.71
1022.168	2
1022.328	41.91
1022.488	45.4
1022.648	-3.04
1022.808	36.1
1022.968	34.75
1023.128	-5.94
1023.288	11.3
1023.448	-4.2
1023.608	71.36
1023.767	38.23
1023.927	-11.95
1024.087	22.93
1024.247	-11.56
1024.406	18.47
1024.566	-11.95
1024.726	3.94
1024.885	35.33
1025.045	50.44
1025.205	10.53
1025.364	4.33
1025.524	62.26
1025.683	5.49
1025.843	25.25
1026.003	8.98
1026.162	54.31
1026.321	77.56
1026.481	33.2
1026.64	-7.49
1026.8	29.51
1026.959	27
1027.119	18.47
1027.278	-4.39
1027.437	19.44
1027.597	34.55
1027.756	13.05
1027.915	41.72
1028.074	38.81
1028.234	-5.75
1028.393	20.02
1028.552	28.35
1028.711	-53.02
1028.87	71.75
1029.03	-22.22
1029.189	19.83
1029.348	-45.66
1029.507	8.4
1029.666	8.59
1029.825	10.14
1029.984	-27.25
1030.143	31.65
1030.302	14.79
1030.461	-30.55
1030.62	36.88
1030.779	25.83
1030.938	-5.55
1031.097	-22.22
1031.255	30.29
1031.414	67.29
1031.573	49.66
1031.732	-28.8
1031.891	-32.48
1032.049	51.6
1032.208	33.39
1032.367	-17.95
1032.525	-7.1
1032.684	7.43
1032.843	-4.2
1033.001	-19.7
1033.16	161.65
1033.319	53.15
1033.477	35.33
1033.636	-15.63
1033.794	-46.43
1033.953	39.4
1034.111	65.74
1034.27	7.62
1034.428	44.05
1034.587	-4.78
1034.745	31.26
1034.903	22.93
1035.062	26.61
1035.22	-8.27
1035.378	44.82
1035.537	-0.71
1035.695	42.11
1035.853	13.43
1036.011	58.38
1036.17	27.19
1036.328	-52.05
1036.486	18.47
1036.644	18.28
1036.802	-55.35
1036.96	1.23
1037.119	9.17
1037.277	-20.09
1037.435	-15.63
1037.593	-28.61
1037.751	13.82
1037.909	39.59
1038.067	39.59
