Data from pine_FLMT105791__191__17-23-45-072.txt Node

Date: Mon Mar 20 17:23:45 GMT 2023
User: antho
Spectrometer: FLMT10579
Trigger mode: 0
Integration Time (sec): 1.000000E-1
Scans to average: 10
Electric dark correction enabled: true
Nonlinearity correction enabled: false
Boxcar width: 0
XAxis mode: Wavelengths
Number of Pixels in Spectrum: 3648
>>>>>Begin Spectral Data<<<<<
345.248	-147.64
345.464	-147.64
345.681	-147.64
345.898	-172.05
346.114	-190.84
346.331	-35.84
346.548	13.17
346.764	6.39
346.981	-9.69
347.197	-15.89
347.414	17.63
347.631	-28.87
347.847	56.38
348.064	-9.3
348.28	34.87
348.497	-31.77
348.713	2.91
348.93	7.56
349.146	25.96
349.363	6.01
349.579	22.86
349.796	3.29
350.012	-6.01
350.229	12.98
350.445	-10.07
350.661	-12.98
350.878	16.08
351.094	-0.77
351.311	2.91
351.527	15.31
351.743	-7.36
351.96	10.66
352.176	38.94
352.392	18.21
352.609	17.05
352.825	-16.66
353.041	13.56
353.257	1.94
353.474	-20.92
353.69	-11.62
353.906	-12.59
354.122	-55.99
354.339	48.44
354.555	8.91
354.771	-2.91
354.987	52.7
355.203	59.67
355.42	-24.22
355.636	-2.52
355.852	0.19
356.068	-4.46
356.284	-41.66
356.5	45.92
356.716	7.56
356.932	-5.62
357.148	21.12
357.364	1.94
357.58	46.11
357.796	66.84
358.012	37.01
358.228	13.76
358.444	-44.37
358.66	21.31
358.876	27.12
359.092	-9.49
359.308	32.55
359.524	23.06
359.74	-11.04
359.956	-29.64
360.172	-17.63
360.388	32.94
360.604	9.3
360.819	76.92
361.035	37.01
361.251	49.41
361.467	-21.89
361.683	48.63
361.898	-11.43
362.114	13.56
362.33	1.55
362.546	38.56
362.762	0
362.977	-1.16
363.193	-37.39
363.409	30.22
363.624	-31.39
363.84	-13.76
364.056	-45.92
364.271	38.36
364.487	-19.96
364.703	-29.84
364.918	-28.48
365.134	10.46
365.35	-4.26
365.565	83.89
365.781	-25.19
365.996	5.81
366.212	67.23
366.427	6.78
366.643	-9.11
366.858	-8.91
367.074	-15.5
367.289	37.39
367.505	106.75
367.72	-52.51
367.936	-17.24
368.151	25.77
368.367	19.96
368.582	3.29
368.798	-21.31
369.013	69.17
369.228	9.49
369.444	-5.81
369.659	61.22
369.874	15.89
370.09	72.27
370.305	-59.48
370.52	-25.38
370.736	28.48
370.951	-6.78
371.166	53.09
371.381	46.11
371.597	14.72
371.812	-39.91
372.027	-8.33
372.242	-18.6
372.458	59.29
372.673	-1.36
372.888	6.78
373.103	27.32
373.318	81.96
373.533	29.06
373.749	-2.52
373.964	-47.47
374.179	71.11
374.394	-8.52
374.609	42.24
374.824	-36.42
375.039	51.92
375.254	-32.16
375.469	67.23
375.684	1.74
375.899	55.41
376.114	13.56
376.329	17.05
376.544	21.12
376.759	45.34
376.974	-23.06
377.189	-8.33
377.404	4.07
377.619	61.61
377.834	-48.44
378.049	-54.06
378.264	-26.74
378.478	10.66
378.693	-35.46
378.908	22.86
379.123	-17.82
379.338	34.1
379.553	5.81
379.767	30.03
379.982	12.21
380.197	21.7
380.412	22.09
380.626	18.79
380.841	69.36
381.056	29.84
381.271	89.51
381.485	-11.43
381.7	-17.05
381.915	21.51
382.129	-6.59
382.344	41.85
382.559	14.34
382.773	58.32
382.988	-44.76
383.202	4.65
383.417	-0.19
383.632	114.5
383.846	-2.71
384.061	29.45
384.275	-2.13
384.49	35.65
384.704	11.24
384.919	20.34
385.133	0
385.348	49.41
385.562	-28.09
385.777	55.61
385.991	-7.36
386.206	8.91
386.42	-7.17
386.634	51.54
386.849	29.06
387.063	18.79
387.277	-29.84
387.492	-10.85
387.706	-22.47
387.92	-31.19
388.135	23.83
388.349	34.29
388.563	1.74
388.778	15.89
388.992	52.12
389.206	46.31
389.42	64.52
389.635	14.53
389.849	34.68
390.063	29.06
390.277	18.79
390.491	70.14
390.706	2.32
390.92	48.82
391.134	-9.49
391.348	27.32
391.562	-26.54
391.776	-10.66
391.99	-13.37
392.205	24.22
392.419	-41.85
392.633	-12.01
392.847	59.67
393.061	1.94
393.275	92.42
393.489	8.14
393.703	18.02
393.917	40.11
394.131	5.04
394.345	45.53
394.559	40.11
394.773	6.97
394.986	23.83
395.2	24.8
395.414	38.56
395.628	-10.07
395.842	3.1
396.056	-7.36
396.27	-41.46
396.484	31.97
396.697	24.22
396.911	73.04
397.125	56.96
397.339	57.74
397.553	16.66
397.766	92.8
397.98	56.57
398.194	42.82
398.408	-28.29
398.621	26.16
398.835	37.01
399.049	8.33
399.262	70.72
399.476	32.74
399.69	72.27
399.903	68.97
400.117	49.21
400.331	17.05
400.544	-18.79
400.758	125.55
400.971	4.46
401.185	43.79
401.398	-5.04
401.612	74.79
401.826	36.42
402.039	25.96
402.253	3.49
402.466	22.09
402.68	-9.11
402.893	3.1
403.106	9.3
403.32	8.14
403.533	35.07
403.747	-6.2
403.96	28.09
404.174	42.04
404.387	-16.08
404.6	10.85
404.814	71.69
405.027	36.81
405.24	11.62
405.454	12.21
405.667	76.34
405.88	-56.96
406.094	36.62
406.307	53.47
406.52	11.82
406.733	2.52
406.947	-38.17
407.16	66.46
407.373	78.27
407.586	-7.94
407.799	-24.22
408.012	50.76
408.226	13.56
408.439	84.28
408.652	-34.1
408.865	29.26
409.078	62.77
409.291	10.07
409.504	11.62
409.717	30.61
409.93	36.62
410.143	38.36
410.357	-35.07
410.57	-5.62
410.783	-2.13
410.996	2.52
411.209	35.65
411.421	36.62
411.634	8.52
411.847	-4.84
412.06	24.02
412.273	13.76
412.486	8.33
412.699	86.61
412.912	-24.02
413.125	15.69
413.338	10.27
413.55	39.91
413.763	10.46
413.976	14.14
414.189	-7.36
414.402	-5.62
414.615	48.44
414.827	-16.47
415.04	31
415.253	8.72
415.466	62
415.678	66.07
415.891	0.77
416.104	12.98
416.316	12.01
416.529	-19.76
416.742	43.01
416.954	53.09
417.167	1.74
417.38	8.14
417.592	56.19
417.805	-4.46
418.017	-19.57
418.23	36.62
418.442	17.44
418.655	3.68
418.868	16.47
419.08	74.01
419.293	41.46
419.505	39.91
419.718	25.96
419.93	53.86
420.142	7.75
420.355	49.99
420.567	66.26
420.78	29.84
420.992	37.97
421.205	62.58
421.417	-22.86
421.629	4.84
421.842	-40.3
422.054	-29.26
422.266	37.78
422.479	62.97
422.691	-3.49
422.903	63.55
423.115	-8.91
423.328	-3.68
423.54	29.64
423.752	9.49
423.964	8.52
424.177	49.99
424.389	16.47
424.601	127.29
424.813	19.96
425.025	47.86
425.238	54.06
425.45	-1.36
425.662	11.43
425.874	298.76
426.086	8.72
426.298	53.09
426.51	39.91
426.722	30.22
426.934	-22.28
427.146	20.15
427.358	3.1
427.57	49.21
427.782	34.49
427.994	8.91
428.206	-9.69
428.418	-26.74
428.63	40.3
428.842	60.84
429.054	23.83
429.266	43.01
429.478	11.62
429.69	32.74
429.902	-28.09
430.114	51.73
430.325	24.61
430.537	26.35
430.749	37.78
430.961	2.32
431.173	21.51
431.384	53.47
431.596	-43.79
431.808	-0.97
432.02	-2.52
432.231	39.52
432.443	58.71
432.655	10.66
432.867	-7.94
433.078	26.16
433.29	74.59
433.502	68.39
433.713	65.1
433.925	14.14
434.136	40.11
434.348	-21.51
434.56	-29.06
434.771	113.15
434.983	-42.82
435.194	-13.95
435.406	-26.54
435.617	20.92
435.829	71.69
436.04	28.29
436.252	55.99
436.463	77.69
436.675	39.14
436.886	21.51
437.098	31.97
437.309	66.84
437.521	54.64
437.732	45.53
437.943	29.26
438.155	31.58
438.366	-44.95
438.578	65.68
438.789	38.94
439	58.9
439.211	22.47
439.423	58.9
439.634	43.59
439.845	64.13
440.057	25.57
440.268	46.5
440.479	-23.44
440.69	26.35
440.902	16.27
441.113	55.02
441.324	6.39
441.535	33.91
441.746	72.66
441.957	-2.71
442.168	-2.32
442.38	42.82
442.591	47.86
442.802	16.66
443.013	15.11
443.224	18.02
443.435	19.57
443.646	16.47
443.857	-1.16
444.068	-2.71
444.279	-1.55
444.49	82.92
444.701	28.48
444.912	125.94
445.123	88.15
445.334	47.08
445.545	37.39
445.756	13.56
445.967	1.55
446.178	51.54
446.388	91.45
446.599	67.81
446.81	63.16
447.021	22.67
447.232	56.19
447.443	91.25
447.653	-16.66
447.864	85.06
448.075	3.87
448.286	76.72
448.496	49.6
448.707	67.42
448.918	6.97
449.129	119.15
449.339	25.57
449.55	46.31
449.761	35.26
449.971	95.13
450.182	26.35
450.393	75.56
450.603	19.76
450.814	75.95
451.024	31.97
451.235	74.21
451.446	102.1
451.656	83.7
451.867	14.14
452.077	48.82
452.288	120.51
452.498	103.85
452.709	24.8
452.919	89.7
453.13	33.32
453.34	76.14
453.55	-1.36
453.761	75.95
453.971	77.31
454.182	80.6
454.392	84.86
454.602	84.47
454.813	59.29
455.023	81.57
455.233	33.71
455.444	48.63
455.654	1.16
455.864	60.45
456.075	30.61
456.285	38.75
456.495	45.14
456.705	84.47
456.916	81.57
457.126	118.57
457.336	43.21
457.546	-27.51
457.756	5.23
457.967	83.31
458.177	38.56
458.387	42.43
458.597	14.92
458.807	49.99
459.017	59.09
459.227	42.62
459.437	56.77
459.647	75.17
459.857	70.72
460.068	29.84
460.278	87.19
460.488	65.68
460.698	114.31
460.908	28.87
461.117	-13.56
461.327	19.57
461.537	48.05
461.747	59.67
461.957	48.05
462.167	135.24
462.377	66.26
462.587	43.79
462.797	75.56
463.007	74.59
463.216	76.72
463.426	77.89
463.636	124.58
463.846	23.25
464.056	46.89
464.265	101.14
464.475	26.35
464.685	55.8
464.895	73.43
465.104	52.89
465.314	84.67
465.524	44.95
465.733	27.12
465.943	132.91
466.153	110.44
466.362	64.13
466.572	79.82
466.782	48.63
466.991	74.98
467.201	99.78
467.41	12.21
467.62	71.3
467.829	54.06
468.039	85.83
468.249	67.62
468.458	33.52
468.668	108.69
468.877	46.11
469.086	102.1
469.296	97.45
469.505	36.42
469.715	129.04
469.924	73.24
470.134	94.16
470.343	127.87
470.552	32.55
470.762	68.01
470.971	39.14
471.18	100.94
471.39	70.52
471.599	38.56
471.808	103.07
472.018	35.07
472.227	90.29
472.436	88.15
472.645	54.83
472.855	44.56
473.064	117.99
473.273	63.36
473.482	98.42
473.691	101.33
473.901	107.14
474.11	68.78
474.319	158.87
474.528	71.3
474.737	116.05
474.946	106.37
475.155	93.97
475.364	84.47
475.573	59.09
475.783	61.61
475.992	102.69
476.201	118.57
476.41	51.15
476.619	71.69
476.828	75.95
477.037	60.84
477.245	95.9
477.454	107.14
477.663	61.42
477.872	41.66
478.081	127.68
478.29	21.51
478.499	139.3
478.708	71.3
478.917	129.42
479.125	88.35
479.334	105.2
479.543	67.42
479.752	76.34
479.961	111.6
480.169	103.27
480.378	70.14
480.587	178.83
480.796	109.27
481.004	68.01
481.213	86.22
481.422	89.32
481.63	59.87
481.839	92.61
482.048	160.81
482.256	84.09
482.465	90.09
482.674	100.94
482.882	93.19
483.091	142.4
483.299	99.97
483.508	99.59
483.716	80.99
483.925	93.77
484.134	97.07
484.342	85.44
484.551	149.57
484.759	141.82
484.967	103.27
485.176	139.89
485.384	112.37
485.593	142.99
485.801	126.9
486.01	130.2
486.218	114.89
486.426	69.75
486.635	135.24
486.843	130.59
487.051	138.72
487.26	80.99
487.468	139.11
487.676	140.47
487.885	83.7
488.093	85.64
488.301	110.82
488.509	111.79
488.717	133.3
488.926	121.29
489.134	102.1
489.342	117.41
489.55	91.25
489.758	114.12
489.967	105.2
490.175	227.07
490.383	70.14
490.591	178.83
490.799	75.95
491.007	136.01
491.215	137.37
491.423	116.64
491.631	97.84
491.839	126.13
492.047	112.95
492.255	79.82
492.463	76.14
492.671	112.18
492.879	184.06
493.087	113.15
493.295	133.49
493.503	143.18
493.711	140.85
493.919	168.75
494.127	137.56
494.334	171.08
494.542	96.87
494.75	98.42
494.958	114.7
495.166	130
495.374	142.4
495.581	110.63
495.789	124.58
495.997	161.39
496.205	141.82
496.412	120.32
496.62	123.22
496.828	140.66
497.035	104.43
497.243	139.3
497.451	124.58
497.658	125.16
497.866	97.45
498.074	179.02
498.281	73.62
498.489	207.89
498.696	147.25
498.904	131.94
499.112	128.26
499.319	200.14
499.527	135.24
499.734	176.31
499.942	98.04
500.149	122.06
500.357	126.13
500.564	102.1
500.771	143.76
500.979	125.74
501.186	139.89
501.394	154.03
501.601	136.59
501.808	173.99
502.016	156.94
502.223	145.31
502.43	133.1
502.638	146.09
502.845	80.41
503.052	213.7
503.26	114.89
503.467	195.68
503.674	131.36
503.881	159.65
504.089	225.52
504.296	186.97
504.503	134.07
504.71	165.65
504.917	118.57
505.125	142.99
505.332	163.72
505.539	175.34
505.746	206.92
505.953	149.57
506.16	171.47
506.367	209.05
506.574	196.07
506.781	194.91
506.988	113.54
507.195	181.54
507.402	154.61
507.609	181.93
507.816	153.84
508.023	158.87
508.23	154.22
508.437	118.57
508.644	192.39
508.851	184.45
509.058	193.17
509.265	171.27
509.472	186.77
509.679	269.5
509.885	159.07
510.092	151.12
510.299	154.03
510.506	181.35
510.713	176.12
510.92	156.55
511.126	190.07
511.333	178.63
511.54	196.85
511.746	234.82
511.953	213.32
512.16	211.18
512.367	137.56
512.573	167.59
512.78	198.4
512.987	183.09
513.193	191.81
513.4	114.5
513.606	172.82
513.813	194.91
514.02	192.78
514.226	253.23
514.433	238.7
514.639	190.84
514.846	184.64
515.052	178.63
515.259	185.61
515.465	193.75
515.672	196.85
515.878	279.38
516.085	164.88
516.291	219.32
516.497	129.81
516.704	188.9
516.91	169.53
517.117	160.62
517.323	138.92
517.529	199.17
517.736	185.61
517.942	203.05
518.148	165.07
518.354	215.64
518.561	175.73
518.767	217.38
518.973	243.93
519.179	235.02
519.386	178.83
519.592	167.59
519.798	201.11
520.004	227.46
520.21	191.23
520.417	209.83
520.623	238.31
520.829	203.63
521.035	188.52
521.241	215.25
521.447	239.08
521.653	303.02
521.859	194.33
522.065	228.23
522.271	304.18
522.477	244.51
522.683	278.8
522.889	240.25
523.095	241.41
523.301	217.97
523.507	190.84
523.713	255.17
523.919	199.56
524.125	284.61
524.331	213.12
524.537	261.17
524.742	256.72
524.948	239.08
525.154	253.23
525.36	312.51
525.566	272.21
525.772	306.12
525.977	246.06
526.183	244.12
526.389	283.45
526.595	244.7
526.8	252.07
527.006	217.77
527.212	218.55
527.417	221.45
527.623	210.22
527.829	265.63
528.034	263.88
528.24	235.98
528.446	222.42
528.651	279.58
528.857	271.63
529.062	285.78
529.268	218.35
529.473	258.27
529.679	229.01
529.884	298.56
530.09	279.38
530.295	323.56
530.501	293.72
530.706	289.46
530.912	212.73
531.117	252.65
531.323	269.31
531.528	302.63
531.733	264.27
531.939	230.37
532.144	289.46
532.35	255.36
532.555	323.56
532.76	308.83
532.966	321.23
533.171	289.46
533.376	300.11
533.581	247.61
533.787	263.69
533.992	293.33
534.197	326.66
534.402	275.31
534.607	255.75
534.813	387.3
535.018	291.78
535.223	272.6
535.428	292.36
535.633	312.51
535.838	324.14
536.043	260.98
536.249	345.06
536.454	264.66
536.659	268.73
536.864	260.98
537.069	297.98
537.274	310.96
537.479	319.88
537.684	307.09
537.889	306.51
538.094	346.23
538.299	271.25
538.504	313.87
538.708	314.45
538.913	307.09
539.118	279.96
539.323	342.16
539.528	278.61
539.733	297.98
539.938	322.2
540.142	359.21
540.347	313.68
540.552	279.96
540.757	315.61
540.962	308.83
541.166	275.31
541.371	257.88
541.576	284.61
541.781	204.79
541.985	282.68
542.19	323.56
542.395	367.34
542.599	345.06
542.804	354.56
543.008	363.66
543.213	303.99
543.418	279
543.622	330.53
543.827	296.43
544.031	385.17
544.236	377.42
544.44	315.03
544.645	384.98
544.849	299.92
545.054	352.04
545.258	367.34
545.463	368.89
545.667	286.94
545.872	346.61
546.076	353.01
546.281	328.4
546.485	299.34
546.689	327.43
546.894	396.02
547.098	316.39
547.302	291.59
547.507	322.01
547.711	321.43
547.915	393.89
548.119	299.92
548.324	310.38
548.528	386.14
548.732	342.35
548.936	355.14
549.141	374.32
549.345	307.09
549.549	340.22
549.753	319.3
549.957	410.94
550.161	421.4
550.366	359.21
550.57	306.7
550.774	350.1
550.978	321.43
551.182	335.76
551.386	314.26
551.59	333.83
551.794	329.37
551.998	331.89
552.202	308.25
552.406	302.44
552.61	338.86
552.814	313.1
553.018	404.74
553.222	351.84
553.426	296.05
553.63	404.54
553.833	321.04
554.037	302.25
554.241	344.68
554.445	331.5
554.649	346.03
554.853	299.73
555.056	375.29
555.26	343.51
555.464	325.5
555.668	343.9
555.871	370.44
556.075	382.26
556.279	304.57
556.483	287.91
556.686	353.2
556.89	342.55
557.094	367.15
557.297	297.98
557.501	420.24
557.704	301.86
557.908	381.1
558.112	310
558.315	392.14
558.519	331.5
558.722	344.48
558.926	344.29
559.129	327.24
559.333	284.61
559.536	279.96
559.74	289.46
559.943	317.36
560.147	289.26
560.35	316.2
560.553	323.17
560.757	255.75
560.96	355.91
561.164	307.09
561.367	381.1
561.57	266.21
561.774	330.92
561.977	317.75
562.18	297.21
562.384	403.77
562.587	356.11
562.79	309.41
562.993	308.25
563.197	370.64
563.4	386.72
563.603	354.36
563.806	415.39
564.009	282.29
564.212	335.57
564.416	276.28
564.619	360.95
564.822	288.88
565.025	339.64
565.228	311.16
565.431	347.2
565.634	225.91
565.837	292.56
566.04	268.53
566.243	310.38
566.446	254.2
566.649	330.73
566.852	266.4
567.055	313.29
567.258	321.62
567.461	382.46
567.664	355.33
567.867	248.38
568.07	330.73
568.273	319.3
568.475	364.63
568.678	308.06
568.881	307.86
569.084	332.66
569.287	250.32
569.489	275.12
569.692	328.21
569.895	350.68
570.098	277.06
570.3	275.7
570.503	221.84
570.706	275.31
570.909	252.07
571.111	246.06
571.314	244.9
571.516	286.36
571.719	272.02
571.922	283.65
572.124	241.41
572.327	280.74
572.529	233.66
572.732	217.58
572.935	254
573.137	322.01
573.34	265.43
573.542	276.67
573.745	274.54
573.947	258.85
574.15	270.08
574.352	253.62
574.554	323.36
574.757	244.51
574.959	277.83
575.162	232.88
575.364	245.48
575.566	366.96
575.769	260.4
575.971	258.85
576.173	204.02
576.376	285
576.578	318.71
576.78	328.6
576.982	194.72
577.185	260.4
577.387	213.7
577.589	204.02
577.791	290.23
577.993	264.27
578.196	235.21
578.398	310.19
578.6	284.23
578.802	236.95
579.004	207.31
579.206	240.44
579.408	266.21
579.61	250.32
579.812	299.53
580.014	231.14
580.216	244.7
580.418	259.62
580.62	222.81
580.822	192.2
581.024	233.66
581.226	280.16
581.428	218.35
581.63	316.58
581.832	206.92
582.034	272.99
582.236	252.07
582.438	296.05
582.64	268.15
582.841	296.82
583.043	313.48
583.245	295.27
583.447	283.26
583.649	260.59
583.85	252.26
584.052	303.21
584.254	221.65
584.456	270.86
584.657	212.73
584.859	262.53
585.061	260.4
585.262	243.73
585.464	231.92
585.666	281.51
585.867	233.27
586.069	320.65
586.27	287.33
586.472	268.34
586.674	243.73
586.875	232.69
587.077	217.77
587.278	245.67
587.48	241.6
587.681	358.63
587.883	239.28
588.084	192.58
588.285	227.27
588.487	232.88
588.688	256.13
588.89	241.99
589.091	214.67
589.292	255.36
589.494	254
589.695	224.94
589.896	169.53
590.098	216.22
590.299	259.43
590.5	189.68
590.702	210.99
590.903	234.05
591.104	268.53
591.305	245.09
591.507	286.36
591.708	253.62
591.909	224.94
592.11	311.16
592.311	247.61
592.512	223.58
592.714	191.23
592.915	187.55
593.116	205.18
593.317	232.3
593.518	224.55
593.719	218.35
593.92	230.37
594.121	281.71
594.322	244.9
594.523	227.07
594.724	193.55
594.925	223.78
595.126	260.01
595.327	294.5
595.528	245.67
595.729	265.24
595.929	257.88
596.13	238.31
596.331	254.39
596.532	224.17
596.733	284.81
596.934	298.76
597.135	253.81
597.335	248.58
597.536	171.66
597.737	241.22
597.938	201.88
598.138	254.78
598.339	224.17
598.54	230.95
598.74	218.93
598.941	250.32
599.142	261.56
599.342	281.71
599.543	201.3
599.744	249.55
599.944	211.18
600.145	209.63
600.345	248.77
600.546	301.28
600.746	275.31
600.947	273.76
601.147	265.63
601.348	286.75
601.548	245.28
601.749	242.18
601.949	217.58
602.15	207.7
602.35	265.43
602.551	279.38
602.751	204.02
602.951	209.83
603.152	180.18
603.352	253.03
603.552	236.57
603.753	241.22
603.953	263.88
604.153	237.73
604.354	215.64
604.554	239.86
604.754	218.35
604.954	208.86
605.155	251.1
605.355	218.93
605.555	272.99
605.755	281.32
605.955	230.17
606.155	266.6
606.356	246.45
606.556	269.89
606.756	267.56
606.956	187.55
607.156	292.17
607.356	168.17
607.556	275.31
607.756	266.98
607.956	264.85
608.156	256.52
608.356	229.2
608.556	274.15
608.756	228.82
608.956	215.64
609.156	272.6
609.356	218.55
609.556	212.54
609.755	281.71
609.955	205.37
610.155	225.72
610.355	247.42
610.555	213.9
610.755	236.57
610.954	194.13
611.154	234.05
611.354	277.64
611.554	192.2
611.753	200.72
611.953	184.83
612.153	272.6
612.352	261.56
612.552	156.94
612.752	177.08
612.951	219.9
613.151	235.6
613.351	211.38
613.55	224.94
613.75	221.65
613.949	236.18
614.149	249.16
614.348	236.57
614.548	188.13
614.747	177.47
614.947	186.97
615.146	149.77
615.346	260.01
615.545	226.88
615.745	227.65
615.944	264.08
616.144	205.18
616.343	260.01
616.542	223.58
616.742	212.93
616.941	226.1
617.14	206.15
617.34	205.76
617.539	226.49
617.738	172.82
617.938	300.5
618.137	230.75
618.336	182.7
618.535	219.71
618.734	182.51
618.934	245.09
619.133	204.02
619.332	228.43
619.531	198.2
619.73	222.23
619.929	243.93
620.128	233.08
620.328	272.41
620.527	193.17
620.726	186.77
620.925	199.95
621.124	197.04
621.323	243.35
621.522	197.43
621.721	158.87
621.92	155.97
622.119	212.54
622.318	186.77
622.517	205.18
622.715	198.4
622.914	160.04
623.113	184.83
623.312	157.52
623.511	230.17
623.71	190.26
623.909	198.98
624.107	260.59
624.306	158.68
624.505	169.53
624.704	194.52
624.902	173.79
625.101	280.55
625.3	192
625.499	194.72
625.697	210.22
625.896	192.58
626.095	234.05
626.293	146.86
626.492	168.37
626.69	217.58
626.889	176.12
627.088	234.82
627.286	142.02
627.485	159.65
627.683	146.47
627.882	257.88
628.08	152.87
628.279	179.22
628.477	250.32
628.676	151.9
628.874	221.07
629.073	184.45
629.271	147.44
629.469	174.76
629.668	195.68
629.866	193.17
630.065	168.17
630.263	187.16
630.461	178.25
630.66	182.9
630.858	237.53
631.056	231.72
631.254	213.51
631.453	169.34
631.651	209.05
631.849	190.65
632.047	197.82
632.245	180.77
632.444	215.83
632.642	209.25
632.84	198.78
633.038	158.1
633.236	150.15
633.434	171.08
633.632	155
633.83	173.6
634.028	218.35
634.227	166.43
634.425	229.98
634.623	180.38
634.821	192.97
635.019	186.19
635.216	171.08
635.414	199.75
635.612	200.53
635.81	163.33
636.008	225.52
636.206	159.45
636.404	211.18
636.602	159.45
636.8	183.48
636.997	203.05
637.195	210.41
637.393	198.59
637.591	236.37
637.789	189.48
637.986	173.79
638.184	204.6
638.382	225.72
638.58	223.2
638.777	233.27
638.975	176.5
639.173	187.16
639.37	191.62
639.568	182.32
639.765	203.43
639.963	181.54
640.161	228.82
640.358	217
640.556	154.8
640.753	173.21
640.951	131.75
641.148	217.19
641.346	155.97
641.543	184.83
641.741	208.67
641.938	159.45
642.136	177.67
642.333	158.68
642.531	200.53
642.728	237.53
642.925	188.71
643.123	186.97
643.32	176.5
643.517	187.74
643.715	184.83
643.912	167.2
644.109	196.65
644.306	195.88
644.504	150.54
644.701	184.25
644.898	195.88
645.095	144.92
645.293	160.62
645.49	216.03
645.687	184.06
645.884	236.18
646.081	152.09
646.278	165.27
646.475	143.76
646.672	150.93
646.87	197.82
647.067	180.18
647.264	224.75
647.461	135.04
647.658	156.55
647.855	210.02
648.052	161.97
648.249	87.77
648.446	174.95
648.642	173.6
648.839	146.67
649.036	131.55
649.233	112.18
649.43	150.35
649.627	132.33
649.824	143.95
650.021	156.74
650.217	152.48
650.414	168.75
650.611	175.92
650.808	193.36
651.004	177.28
651.201	185.42
651.398	202.85
651.595	168.95
651.791	164.49
651.988	205.95
652.185	143.95
652.381	165.07
652.578	118.57
652.775	170.11
652.971	170.69
653.168	135.82
653.364	156.74
653.561	102.69
653.757	136.4
653.954	147.44
654.15	134.27
654.347	209.63
654.543	168.37
654.74	122.64
654.936	110.05
655.133	177.47
655.329	176.89
655.525	149.96
655.722	201.88
655.918	128.65
656.115	163.33
656.311	117.99
656.507	124.77
656.704	82.15
656.9	118.19
657.096	124.39
657.292	116.64
657.489	192.97
657.685	149.19
657.881	126.32
658.077	141.82
658.273	119.54
658.47	192.2
658.666	140.85
658.862	163.72
659.058	148.99
659.254	195.88
659.45	124.77
659.646	164.88
659.842	143.18
660.038	199.37
660.234	115.09
660.43	142.99
660.626	186.77
660.822	182.7
661.018	169.72
661.214	170.5
661.41	107.92
661.606	199.75
661.802	178.44
661.998	158.68
662.194	130.39
662.39	148.99
662.586	163.91
662.781	168.37
662.977	156.55
663.173	181.93
663.369	156.55
663.564	159.84
663.76	212.73
663.956	130.39
664.152	190.45
664.347	96.1
664.543	168.56
664.739	130.59
664.934	110.44
665.13	106.95
665.326	190.45
665.521	143.95
665.717	104.04
665.912	118.96
666.108	86.41
666.304	111.79
666.499	131.17
666.695	87.38
666.89	135.24
667.086	163.72
667.281	161.2
667.477	219.32
667.672	141.82
667.867	129.42
668.063	155.77
668.258	124.39
668.454	145.5
668.649	217.97
668.844	139.11
669.04	152.67
669.235	150.54
669.43	99.39
669.626	88.74
669.821	138.34
670.016	106.95
670.211	122.06
670.407	108.5
670.602	144.73
670.797	151.51
670.992	165.46
671.187	110.05
671.382	174.18
671.578	122.45
671.773	161.39
671.968	82.15
672.163	132.72
672.358	164.49
672.553	126.52
672.748	148.8
672.943	202.27
673.138	130.39
673.333	132.52
673.528	123.03
673.723	148.02
673.918	133.1
674.113	83.31
674.308	222.03
674.503	173.02
674.698	162.17
674.892	159.65
675.087	171.08
675.282	156.35
675.477	121.67
675.672	159.26
675.867	145.89
676.061	86.8
676.256	79.82
676.451	115.47
676.646	122.25
676.84	105.79
677.035	97.65
677.23	89.9
677.424	174.18
677.619	167.98
677.814	173.99
678.008	180.18
678.203	73.24
678.397	99.59
678.592	147.44
678.787	175.34
678.981	122.06
679.176	149.38
679.37	142.02
679.565	103.27
679.759	111.79
679.954	155.77
680.148	216.03
680.342	165.27
680.537	145.89
680.731	140.27
680.926	144.92
681.12	161.78
681.314	98.62
681.509	80.99
681.703	152.29
681.897	161.59
682.092	123.03
682.286	113.15
682.48	182.9
682.674	173.02
682.869	103.46
683.063	113.92
683.257	178.05
683.451	108.69
683.645	146.28
683.839	146.09
684.034	122.25
684.228	155.77
684.422	105.98
684.616	108.3
684.81	164.3
685.004	144.15
685.198	137.17
685.392	143.95
685.586	121.29
685.78	152.09
685.974	147.64
686.168	134.07
686.362	180.18
686.556	115.28
686.75	90.09
686.944	138.92
687.138	169.53
687.331	81.96
687.525	148.22
687.719	77.5
687.913	129.81
688.107	134.46
688.301	104.04
688.494	145.31
688.688	87.57
688.882	69.94
689.076	93.58
689.269	111.21
689.463	195.68
689.657	122.45
689.85	92.8
690.044	116.25
690.238	108.89
690.431	100.17
690.625	106.56
690.818	124.77
691.012	137.56
691.205	124.39
691.399	91.64
691.593	125.35
691.786	190.45
691.98	136.4
692.173	175.53
692.366	133.69
692.56	149.19
692.753	223
692.947	97.45
693.14	181.54
693.333	185.61
693.527	84.28
693.72	166.24
693.914	122.06
694.107	108.89
694.3	150.93
694.493	161.39
694.687	176.89
694.88	97.07
695.073	188.9
695.266	155.39
695.46	144.34
695.653	210.8
695.846	165.07
696.039	86.8
696.232	124.77
696.425	165.46
696.618	138.34
696.812	142.79
697.005	194.52
697.198	235.6
697.391	178.63
697.584	165.07
697.777	243.54
697.97	216.61
698.163	216.42
698.356	194.13
698.549	268.92
698.742	208.08
698.935	177.08
699.127	203.24
699.32	162.55
699.513	165.07
699.706	219.52
699.899	218.93
700.092	190.45
700.285	226.68
700.477	202.85
700.67	221.07
700.863	232.69
701.056	327.05
701.248	272.99
701.441	277.64
701.634	231.72
701.826	315.61
702.019	227.07
702.212	278.41
702.404	220.48
702.597	220.87
702.79	220.68
702.982	254.2
703.175	248.97
703.367	259.62
703.56	263.11
703.752	362.11
703.945	308.25
704.137	287.13
704.33	302.25
704.522	303.8
704.715	289.85
704.907	313.68
705.1	322.4
705.292	304.96
705.484	285.39
705.677	333.83
705.869	291.2
706.061	352.81
706.254	374.71
706.446	324.72
706.638	300.31
706.831	410.55
707.023	327.63
707.215	379.55
707.407	358.43
707.599	369.67
707.792	414.04
707.984	369.09
708.176	424.69
708.368	390.01
708.56	392.14
708.752	359.98
708.944	393.5
709.136	397.57
709.329	367.54
709.521	487.66
709.713	461.31
709.905	427.79
710.097	438.64
710.289	406.68
710.481	429.73
710.672	432.06
710.864	447.17
711.056	484.37
711.248	456.47
711.44	462.67
711.632	433.99
711.824	471.58
712.016	513.24
712.207	480.49
712.399	478.36
712.591	553.92
712.783	511.11
712.975	527.19
713.166	500.06
713.358	516.34
713.55	537.45
713.741	542.3
713.933	536.29
714.125	543.27
714.316	513.82
714.508	581.82
714.7	581.44
714.891	562.45
715.083	626.58
715.274	578.34
715.466	545.01
715.657	624.83
715.849	555.47
716.04	538.04
716.232	527.38
716.423	608.17
716.615	549.08
716.806	558.19
716.998	564.77
717.189	537.65
717.381	474.49
717.572	481.66
717.763	497.93
717.955	518.27
718.146	532.42
718.337	467.12
718.528	477.01
718.72	442.52
718.911	504.91
719.102	445.23
719.293	526.22
719.485	512.07
719.676	491.15
719.867	470.42
720.058	473.71
720.249	479.52
720.44	491.34
720.632	477.59
720.823	533.97
721.014	584.34
721.205	550.05
721.396	583.95
721.587	646.53
721.778	634.33
721.969	637.82
722.16	676.37
722.351	631.42
722.542	769.18
722.733	734.69
722.924	666.68
723.115	725.78
723.305	724.81
723.496	736.05
723.687	665.33
723.878	670.75
724.069	713.18
724.26	705.43
724.45	652.35
724.641	686.83
724.832	683.73
725.023	695.17
725.213	662.42
725.404	665.91
725.595	692.26
725.785	671.53
725.976	712.6
726.167	713.57
726.357	701.17
726.548	783.51
726.739	716.28
726.929	730.04
727.12	785.26
727.31	801.14
727.501	751.35
727.691	764.33
727.882	775.57
728.072	777.31
728.263	768.98
728.453	811.41
728.644	804.83
728.834	821.29
729.024	809.67
729.215	769.56
729.405	800.37
729.596	865.86
729.786	882.32
729.976	859.85
730.167	857.53
730.357	819.74
730.547	845.51
730.737	863.92
730.928	894.14
731.118	947.04
731.308	869.93
731.498	904.22
731.688	929.79
731.879	920.49
732.069	989.08
732.259	929.02
732.449	934.06
732.639	1010.2
732.829	1028.99
733.019	1022.79
733.209	1060.57
733.399	1078.2
733.589	1107.27
733.779	1109.98
733.969	1082.47
734.159	1096.61
734.349	1161.71
734.539	1191.55
734.729	1152.99
734.919	1229.91
735.109	1215.76
735.299	1170.81
735.488	1175.66
735.678	1245.6
735.868	1201.23
736.058	1217.12
736.248	1199.1
736.437	1140.2
736.627	1142.14
736.817	1269.82
737.007	1218.09
737.196	1259.16
737.386	1220.41
737.576	1212.66
737.765	1273.5
737.955	1236.11
738.144	1285.51
738.334	1270.59
738.524	1247.34
738.713	1258.58
738.903	1268.27
739.092	1328.52
739.282	1309.73
739.471	1275.44
739.661	1290.16
739.85	1311.86
740.04	1327.94
740.229	1315.74
740.419	1380.84
740.608	1388.01
740.797	1359.33
740.987	1428.3
741.176	1424.24
741.365	1341.31
741.555	1322.13
741.744	1378.9
741.933	1366.11
742.123	1405.44
742.312	1421.52
742.501	1444.19
742.69	1438.19
742.88	1358.94
743.069	1476.16
743.258	1384.91
743.447	1435.09
743.636	1461.63
743.825	1397.89
744.014	1439.93
744.204	1440.32
744.393	1444.39
744.582	1464.92
744.771	1492.43
744.96	1446.9
745.149	1453.88
745.338	1409.32
745.527	1480.62
745.716	1433.15
745.905	1480.81
746.094	1448.65
746.283	1503.28
746.471	1489.33
746.66	1573.23
746.849	1520.53
747.038	1532.54
747.227	1485.27
747.416	1510.07
747.604	1454.27
747.793	1480.62
747.982	1515.1
748.171	1508.9
748.359	1547.46
748.548	1535.83
748.737	1485.27
748.926	1496.89
749.114	1441.09
749.303	1503.48
749.491	1490.3
749.68	1477.32
749.869	1573.61
750.057	1508.13
750.246	1511.23
750.434	1482.36
750.623	1503.28
750.811	1508.52
751	1549.98
751.188	1483.72
751.377	1531.57
751.565	1489.33
751.754	1456.01
751.942	1465.31
752.131	1516.85
752.319	1449.04
752.507	1473.25
752.696	1534.87
752.884	1567.22
753.072	1514.72
753.261	1510.84
753.449	1529.63
753.637	1479.65
753.825	1571.68
754.014	1504.45
754.202	1504.83
754.39	1567.42
754.578	1550.75
754.766	1470.93
754.955	1498.25
755.143	1575.55
755.331	1482.94
755.519	1496.12
755.707	1504.25
755.895	1518.98
756.083	1497.08
756.271	1450.59
756.459	1480.04
756.647	1547.65
756.835	1487.59
757.023	1444.39
757.211	1461.82
757.399	1484.69
757.587	1473.06
757.775	1458.53
757.963	1445.16
758.151	1480.04
758.339	1435.47
758.526	1456.79
758.714	1469.38
758.902	1396.14
759.09	1406.22
759.278	1292.88
759.465	1221.58
759.653	1002.45
759.841	933.67
760.028	760.46
760.216	685.87
760.404	702.14
760.591	579.3
760.779	445.62
760.967	430.12
761.154	305.54
761.342	364.24
761.529	351.84
761.717	385.36
761.905	354.94
762.092	406.68
762.28	365.99
762.467	404.16
762.655	339.64
762.842	344.48
763.029	373.93
763.217	371.61
763.404	347.97
763.592	383.23
763.779	355.53
763.966	399.7
764.154	385.36
764.341	410.16
764.528	430.89
764.716	441.36
764.903	452.01
765.09	484.56
765.277	534.74
765.465	605.85
765.652	618.25
765.839	656.22
766.026	755.03
766.213	733.14
766.4	797.27
766.588	938.32
766.775	857.72
766.962	960.6
767.149	927.08
767.336	1042.36
767.523	980.55
767.71	1051.47
767.897	1115.21
768.084	1207.82
768.271	1164.03
768.458	1204.14
768.645	1206.27
768.832	1174.5
769.019	1196.78
769.206	1234.56
769.392	1244.44
769.579	1335.89
769.766	1281.64
769.953	1304.31
770.14	1353.32
770.327	1301.21
770.513	1341.7
770.7	1409.12
770.887	1323.68
771.073	1375.22
771.26	1371.15
771.447	1303.92
771.634	1297.72
771.82	1430.82
772.007	1329.3
772.193	1350.03
772.38	1379.48
772.567	1369.02
772.753	1361.07
772.94	1363.4
773.126	1395.56
773.313	1396.72
773.499	1422.1
773.686	1378.9
773.872	1361.66
774.059	1376.77
774.245	1303.73
774.432	1348.48
774.618	1258.19
774.804	1362.24
774.991	1316.51
775.177	1392.66
775.363	1312.64
775.55	1349.45
775.736	1317.67
775.922	1330.07
776.109	1334.53
776.295	1365.34
776.481	1357.01
776.667	1354.68
776.853	1323.29
777.04	1279.12
777.226	1329.49
777.412	1416.49
777.598	1300.04
777.784	1339.37
777.97	1301.98
778.156	1327.36
778.342	1320
778.528	1306.83
778.715	1278.54
778.901	1313.02
779.087	1346.16
779.272	1261.88
779.458	1293.26
779.644	1337.44
779.83	1289.58
780.016	1378.12
780.202	1305.08
780.388	1260.71
780.574	1222.93
780.76	1249.48
780.946	1294.62
781.131	1295.59
781.317	1311.09
781.503	1232.62
781.689	1274.28
781.874	1361.66
782.06	1270.98
782.246	1246.57
782.432	1271.18
782.617	1282.22
782.803	1330.85
782.989	1196.39
783.174	1269.04
783.36	1189.03
783.545	1249.09
783.731	1263.23
783.916	1180.7
784.102	1248.7
784.288	1219.06
784.473	1242.69
784.659	1250.83
784.844	1277.57
785.029	1217.51
785.215	1231.07
785.4	1166.55
785.586	1244.83
785.771	1183.99
785.956	1240.76
786.142	1224.68
786.327	1191.93
786.512	1194.65
786.698	1182.44
786.883	1159.77
787.068	1171.2
787.254	1197.55
787.439	1181.66
787.624	1180.5
787.809	1128.97
787.994	1166.75
788.18	1220.03
788.365	1111.53
788.55	1156.48
788.735	1170.62
788.92	1147.56
789.105	1141.36
789.29	1190.19
789.475	1132.65
789.66	1146.98
789.845	1138.07
790.03	1113.66
790.215	1177.4
790.4	1150.86
790.585	1190.19
790.77	1104.55
790.955	1084.02
791.14	1151.63
791.325	1181.66
791.51	1045.07
791.695	1122.38
791.879	1106.1
792.064	1057.86
792.249	1165
792.434	1079.37
792.618	1103.2
792.803	1162.1
792.988	1080.53
793.173	1114.63
793.357	1152.41
793.542	1076.85
793.727	1095.83
793.911	1149.7
794.096	1082.47
794.281	1106.68
794.465	1169.26
794.65	1121.8
794.834	1130.52
795.019	1162.87
795.203	1165.58
795.388	1165
795.572	1183.02
795.757	1143.5
795.941	1161.51
796.126	1165
796.31	1098.74
796.494	1146.79
796.679	1109.2
796.863	1100.1
797.048	1132.45
797.232	1170.23
797.416	1161.9
797.601	1094.28
797.785	1159
797.969	1190.96
798.153	1105.52
798.338	1108.82
798.522	1147.37
798.706	1145.43
798.89	1182.63
799.074	1238.43
799.258	1166.55
799.443	1152.6
799.627	1097.19
799.811	1172.75
799.995	1166.94
800.179	1117.92
800.363	1105.13
800.547	1140.2
800.731	1187.09
800.915	1074.52
801.099	1114.24
801.283	1136.52
801.467	1125.67
801.651	1126.45
801.835	1173.14
802.019	1118.12
802.202	1126.64
802.386	1102.42
802.57	1100.48
802.754	1152.21
802.938	1076.85
803.121	1106.88
803.305	1154.73
803.489	1152.02
803.673	1168.3
803.856	1165
804.04	1127.42
804.224	1145.82
804.407	1134.58
804.591	1146.01
804.775	1123.73
804.958	1170.43
805.142	1247.54
805.326	1147.37
805.509	1144.85
805.693	1169.85
805.876	1151.63
806.06	1179.15
806.243	1126.06
806.427	1193.48
806.61	1190.38
806.794	1158.03
806.977	1197.55
807.16	1148.92
807.344	1179.53
807.527	1160.35
807.71	1110.17
807.894	1160.55
808.077	1180.31
808.26	1118.89
808.444	1142.33
808.627	1173.14
808.81	1124.32
808.993	1078.78
809.177	1119.67
809.36	1116.57
809.543	1158.03
809.726	1072.58
809.909	1108.82
810.092	1055.92
810.276	1097.19
810.459	1088.67
810.642	1051.08
810.825	1084.6
811.008	1059.41
811.191	1028.22
811.374	1018.34
811.557	1041.39
811.74	1113.47
811.923	971.64
812.106	963.31
812.289	954.79
812.472	998.38
812.654	1053.21
812.837	979
813.02	948.01
813.203	986.37
813.386	872.83
813.569	873.03
813.751	840.09
813.934	892.59
814.117	867.6
814.3	859.85
814.482	833.31
814.665	846.68
814.848	828.85
815.03	774.6
815.213	783.71
815.396	829.43
815.578	753.68
815.761	759.3
815.943	830.01
816.126	748.64
816.309	750.58
816.491	686.45
816.674	665.13
816.856	703.69
817.039	686.83
817.221	765.3
817.403	717.83
817.586	673.85
817.768	758.71
817.951	683.35
818.133	688
818.315	707.76
818.498	710.47
818.68	780.22
818.862	729.85
819.045	762.59
819.227	742.05
819.409	686.25
819.591	750
819.774	714.35
819.956	710.28
820.138	771.7
820.32	765.69
820.502	759.49
820.684	802.89
820.866	806.18
821.048	816.64
821.231	828.46
821.413	799.79
821.595	830.4
821.777	816.64
821.959	781.38
822.141	836.21
822.323	759.49
822.505	758.91
822.686	740.31
822.868	706.98
823.05	684.32
823.232	658.35
823.414	608.37
823.596	668.43
823.778	612.63
823.96	651.18
824.141	624.06
824.323	636.27
824.505	683.73
824.687	725.39
824.868	712.99
825.05	778.48
825.232	801.92
825.413	841.25
825.595	773.05
825.777	770.73
825.958	790.1
826.14	761.23
826.321	811.03
826.503	798.43
826.685	812.19
826.866	810.25
827.048	839.31
827.229	778.09
827.411	772.66
827.592	733.72
827.773	753.1
827.955	723.45
828.136	736.63
828.318	699.62
828.499	737.6
828.68	643.24
828.862	746.12
829.043	749.8
829.224	730.43
829.406	712.8
829.587	695.36
829.768	695.17
829.949	706.6
830.131	709.89
830.312	777.51
830.493	722.68
830.674	707.56
830.855	717.83
831.036	728.1
831.218	765.88
831.399	769.37
831.58	689.35
831.761	733.53
831.942	739.92
832.123	730.81
832.304	665.91
832.485	695.94
832.666	697.68
832.847	733.33
833.028	737.79
833.209	714.73
833.389	689.55
833.57	686.25
833.751	696.91
833.932	732.95
834.113	696.72
834.294	687.03
834.475	745.93
834.655	764.72
834.836	767.05
835.017	733.33
835.198	664.55
835.378	724.81
835.559	722.1
835.74	702.53
835.92	710.08
836.101	645.37
836.281	752.51
836.462	731.98
836.643	730.81
836.823	762.4
837.004	756.2
837.184	816.64
837.365	753.1
837.545	786.03
837.726	741.86
837.906	787.58
838.087	732.95
838.267	730.81
838.448	702.91
838.628	756.78
838.808	729.26
838.989	803.66
839.169	670.75
839.349	748.45
839.53	786.03
839.71	783.32
839.89	741.08
840.07	815.48
840.251	736.05
840.431	779.25
840.611	741.28
840.791	723.06
840.971	757.55
841.151	733.91
841.332	708.92
841.512	780.22
841.692	674.82
841.872	756.2
842.052	734.88
842.232	759.88
842.412	669.59
842.592	734.69
842.772	750.77
842.952	737.6
843.132	731.01
843.312	709.5
843.492	682.77
843.672	761.04
843.851	671.72
844.031	766.66
844.211	721.71
844.391	702.53
844.571	724.23
844.751	754.84
844.93	721.71
845.11	723.26
845.29	723.06
845.47	764.91
845.649	740.5
845.829	736.05
846.009	681.41
846.188	731.98
846.368	725.78
846.547	724.61
846.727	747.48
846.907	677.34
847.086	707.56
847.266	754.45
847.445	721.51
847.625	699.43
847.804	692.45
847.984	731.59
848.163	708.73
848.343	702.53
848.522	736.24
848.701	730.81
848.881	645.95
849.06	734.69
849.239	730.62
849.419	742.44
849.598	642.08
849.777	680.44
849.957	670.75
850.136	628.32
850.315	630.45
850.494	632.39
850.674	611.66
850.853	730.62
851.032	649.63
851.211	705.43
851.39	678.7
851.569	627.55
851.748	621.73
851.927	670.56
852.107	649.63
852.286	612.82
852.465	601.59
852.644	700.78
852.823	676.76
853.002	639.56
853.181	645.57
853.359	668.62
853.538	607.4
853.717	706.4
853.896	645.76
854.075	576.2
854.254	592.29
854.433	523.31
854.611	607.4
854.79	527.38
854.969	590.15
855.148	607.01
855.327	549.66
855.505	586.47
855.684	582.21
855.863	615.92
856.041	558.96
856.22	568.26
856.399	561.67
856.577	633.75
856.756	615.15
856.934	750.38
857.113	718.41
857.291	612.43
857.47	619.02
857.648	620.18
857.827	600.42
858.005	673.47
858.184	593.25
858.362	716.28
858.541	634.33
858.719	635.1
858.898	614.57
859.076	579.89
859.254	712.21
859.433	625.03
859.611	630.65
859.789	574.46
859.967	661.65
860.146	634.91
860.324	602.36
860.502	577.95
860.68	550.44
860.859	565.55
861.037	592.09
861.215	586.86
861.393	626
861.571	607.2
861.749	573.69
861.927	635.88
862.105	650.6
862.283	619.8
862.461	550.44
862.639	539.2
862.817	553.34
862.995	595.97
863.173	584.92
863.351	575.62
863.529	586.47
863.707	650.6
863.885	590.15
864.063	514.79
864.241	559.74
864.418	631.81
864.596	579.11
864.774	535.32
864.952	580.85
865.129	581.44
865.307	539.59
865.485	523.31
865.663	590.35
865.84	531.64
866.018	558.57
866.196	467.9
866.373	509.56
866.551	501.03
866.728	445.62
866.906	497.54
867.084	488.82
867.261	517.31
867.439	536.68
867.616	554.12
867.794	519.24
867.971	536.49
868.149	524.67
868.326	552.95
868.503	540.36
868.681	545.4
868.858	517.69
869.035	509.36
869.213	551.99
869.39	521.57
869.567	595.77
869.745	526.6
869.922	551.99
870.099	546.17
870.276	527.57
870.454	551.4
870.631	562.25
870.808	547.72
870.985	557.6
871.162	614.37
871.339	563.61
871.517	523.12
871.694	485.72
871.871	505.29
872.048	522.54
872.225	500.45
872.402	545.4
872.579	504.13
872.756	510.91
872.933	475.65
873.11	524.47
873.287	511.3
873.463	489.99
873.64	491.73
873.817	550.24
873.994	496.57
874.171	508.39
874.348	528.54
874.524	464.61
874.701	515.95
874.878	458.21
875.055	529.32
875.231	495.8
875.408	527.96
875.585	449.69
875.762	475.84
875.938	496.38
876.115	461.7
876.291	469.64
876.468	506.07
876.645	452.4
876.821	486.11
876.998	473.52
877.174	494.64
877.351	453.56
877.527	480.49
877.704	487.47
877.88	505.1
878.057	481.46
878.233	488.05
878.409	471.97
878.586	491.34
878.762	486.69
878.938	475.26
879.115	427.99
879.291	469.06
879.467	406.48
879.644	433.22
879.82	495.99
879.996	419.85
880.172	398.93
880.349	451.24
880.525	480.69
880.701	401.44
880.877	434.19
881.053	453.56
881.229	456.27
881.405	496.19
881.581	424.69
881.757	446.2
881.933	445.23
882.109	482.43
882.285	440.97
882.461	405.32
882.637	446.39
882.813	427.02
882.989	442.13
883.165	499.87
883.341	428.18
883.517	477.78
883.693	462.28
883.869	466.54
884.044	411.13
884.22	463.83
884.396	479.91
884.572	473.52
884.747	483.01
884.923	463.64
885.099	489.41
885.275	507.81
885.45	405.71
885.626	417.14
885.801	429.34
885.977	417.53
886.153	383.62
886.328	456.66
886.504	400.48
886.679	469.84
886.855	433.03
887.03	474.49
887.206	480.3
887.381	451.24
887.557	477.97
887.732	473.32
887.908	441.55
888.083	483.01
888.258	413.84
888.434	416.75
888.609	466.54
888.784	498.51
888.96	407.06
889.135	418.3
889.31	398.34
889.485	444.46
889.661	427.02
889.836	462.28
890.011	446.39
890.186	438.64
890.361	433.41
890.537	458.79
890.712	431.48
890.887	424.11
891.062	452.79
891.237	498.51
891.412	400.09
891.587	460.92
891.762	444.26
891.937	500.45
892.112	399.89
892.287	438.45
892.462	384.01
892.637	384.78
892.812	389.63
892.987	409.97
893.161	397.57
893.336	396.02
893.511	405.32
893.686	412.88
893.861	415.98
894.035	381.1
894.21	427.79
894.385	376.45
894.56	415.01
894.734	359.79
894.909	357.27
895.084	370.25
895.258	371.03
895.433	373.74
895.608	377.61
895.782	323.75
895.957	358.04
896.131	341.19
896.306	316.97
896.48	337.31
896.655	326.08
896.829	288.1
897.004	277.64
897.178	273.18
897.353	254.39
897.527	342.55
897.701	288.3
897.876	225.13
898.05	349.13
898.224	307.48
898.399	327.43
898.573	282.87
898.747	259.23
898.921	279
899.096	242.77
899.27	239.47
899.444	227.65
899.618	249.74
899.792	241.8
899.967	220.68
900.141	290.62
900.315	223.97
900.489	242.77
900.663	246.06
900.837	267.18
901.011	207.31
901.185	311.74
901.359	309.22
901.533	267.95
901.707	271.63
901.881	235.79
902.055	208.47
902.229	252.84
902.403	283.06
902.576	248.77
902.75	272.6
902.924	373.93
903.098	302.83
903.272	318.13
903.446	336.54
903.619	297.01
903.793	331.89
903.967	294.11
904.14	354.75
904.314	359.01
904.488	316
904.661	357.27
904.835	314.26
905.009	343.32
905.182	387.49
905.356	363.47
905.529	325.88
905.703	294.5
905.876	326.66
906.05	267.76
906.223	268.73
906.397	226.1
906.57	233.08
906.744	217.38
906.917	255.36
907.09	254.58
907.264	270.47
907.437	223.78
907.61	223.2
907.784	230.56
907.957	237.73
908.13	215.64
908.304	281.32
908.477	219.71
908.65	251.87
908.823	191.03
908.996	283.45
909.17	232.3
909.343	221.84
909.516	249.35
909.689	263.3
909.862	222.23
910.035	252.26
910.208	202.27
910.381	241.8
910.554	299.15
910.727	223.2
910.9	211.18
911.073	218.35
911.246	266.98
911.419	261.75
911.592	261.75
911.765	188.9
911.938	224.75
912.11	214.87
912.283	238.7
912.456	241.8
912.629	220.68
912.802	197.23
912.974	179.41
913.147	196.07
913.32	137.37
913.493	166.82
913.665	205.95
913.838	211.96
914.01	169.72
914.183	196.07
914.356	181.15
914.528	231.92
914.701	265.24
914.873	236.76
915.046	197.43
915.218	170.89
915.391	128.07
915.563	150.35
915.736	218.55
915.908	229.2
916.081	186
916.253	164.88
916.425	194.72
916.598	204.02
916.77	197.43
916.942	187.93
917.115	107.72
917.287	232.5
917.459	179.41
917.632	149.19
917.804	109.66
917.976	190.65
918.148	163.52
918.32	179.8
918.493	170.5
918.665	245.28
918.837	181.15
919.009	236.37
919.181	234.43
919.353	196.85
919.525	196.65
919.697	183.09
919.869	203.24
920.041	239.86
920.213	278.41
920.385	204.21
920.557	181.54
920.729	225.91
920.901	197.62
921.073	204.98
921.244	199.37
921.416	237.73
921.588	162.94
921.76	189.29
921.932	281.13
922.103	203.24
922.275	195.88
922.447	237.73
922.619	132.52
922.79	197.43
922.962	180.38
923.134	233.27
923.305	183.67
923.477	140.66
923.648	131.36
923.82	161.59
923.991	128.07
924.163	132.91
924.335	168.17
924.506	134.46
924.677	211.38
924.849	169.72
925.02	165.85
925.192	173.6
925.363	198.78
925.535	199.37
925.706	130.78
925.877	187.35
926.049	171.47
926.22	141.63
926.391	176.7
926.562	198.98
926.734	148.6
926.905	196.65
927.076	119.35
927.247	139.5
927.419	133.49
927.59	132.33
927.761	162.36
927.932	144.73
928.103	155.58
928.274	119.35
928.445	119.35
928.616	123.03
928.787	127.29
928.958	172.82
929.129	150.54
929.3	121.29
929.471	104.24
929.642	46.11
929.813	18.79
929.984	132.72
930.155	70.14
930.326	104.04
930.496	74.21
930.667	18.21
930.838	84.09
931.009	52.31
931.18	69.56
931.35	41.07
931.521	93.58
931.692	24.99
931.863	17.24
932.033	60.64
932.204	60.84
932.374	88.15
932.545	10.07
932.716	79.24
932.886	56.38
933.057	22.47
933.227	26.93
933.398	103.85
933.568	34.49
933.739	-11.62
933.909	8.33
934.08	61.42
934.25	-44.76
934.421	-12.21
934.591	29.06
934.761	-30.22
934.932	-29.84
935.102	21.89
935.272	13.95
935.443	20.73
935.613	12.4
935.783	24.99
935.953	-8.52
936.123	144.73
936.294	-10.85
936.464	3.1
936.634	8.33
936.804	-23.83
936.974	-2.13
937.144	32.94
937.314	29.64
937.484	-1.94
937.655	-11.24
937.825	65.87
937.995	-4.26
938.165	34.29
938.334	-8.91
938.504	8.91
938.674	-4.65
938.844	-26.35
939.014	47.08
939.184	4.26
939.354	70.14
939.524	57.74
939.694	-6.2
939.863	-4.65
940.033	63.94
940.203	63.36
940.373	72.27
940.542	71.3
940.712	21.7
940.882	75.56
941.051	87.77
941.221	73.24
941.391	90.09
941.56	7.75
941.73	-6.01
941.899	108.5
942.069	18.02
942.238	38.17
942.408	32.94
942.577	54.83
942.747	37.97
942.916	-7.56
943.086	8.33
943.255	65.1
943.425	49.02
943.594	-2.91
943.763	-55.22
943.933	-5.04
944.102	-43.79
944.271	18.02
944.441	37.2
944.61	-7.36
944.779	13.17
944.948	119.54
945.117	-17.05
945.287	-19.37
945.456	-18.6
945.625	20.15
945.794	22.09
945.963	16.08
946.132	55.22
946.301	-18.02
946.47	49.6
946.639	-25.96
946.808	-3.68
946.977	28.09
947.146	63.36
947.315	15.69
947.484	49.6
947.653	26.74
947.822	6.97
947.991	-12.21
948.16	80.79
948.329	52.89
948.498	7.75
948.666	-0.39
948.835	23.44
949.004	-23.44
949.173	-15.89
949.341	20.73
949.51	40.88
949.679	87.96
949.847	59.67
950.016	98.81
950.185	62.39
950.353	-15.5
950.522	19.18
950.69	24.8
950.859	-31.77
951.028	53.28
951.196	32.94
951.365	-13.17
951.533	12.01
951.701	64.71
951.87	29.06
952.038	3.87
952.207	30.61
952.375	59.67
952.543	-12.59
952.712	29.84
952.88	-9.88
953.048	69.56
953.217	37.78
953.385	21.89
953.553	86.41
953.721	-25.96
953.89	3.29
954.058	10.66
954.226	-20.54
954.394	7.17
954.562	-28.48
954.73	18.41
954.898	9.49
955.067	47.47
955.235	8.91
955.403	61.42
955.571	80.02
955.739	30.42
955.907	18.79
956.075	2.91
956.243	-1.55
956.41	40.11
956.578	-41.85
956.746	-28.09
956.914	-0.77
957.082	34.29
957.25	22.09
957.418	-8.91
957.585	25.38
957.753	58.9
957.921	-8.72
958.089	15.69
958.256	43.21
958.424	3.1
958.592	8.33
958.759	-8.72
958.927	31.77
959.095	21.12
959.262	36.23
959.43	37.97
959.597	-5.23
959.765	27.71
959.932	-3.49
960.1	45.92
960.267	8.14
960.435	-5.81
960.602	34.87
960.77	-12.4
960.937	-18.21
961.104	48.24
961.272	-25.38
961.439	-4.84
961.606	27.51
961.774	43.98
961.941	4.65
962.108	39.14
962.275	26.93
962.443	13.76
962.61	29.26
962.777	89.32
962.944	51.34
963.111	39.33
963.278	37.39
963.446	43.98
963.613	16.08
963.78	69.56
963.947	45.34
964.114	38.17
964.281	110.05
964.448	37.39
964.615	12.21
964.782	56.57
964.949	37.59
965.116	49.6
965.282	57.74
965.449	63.36
965.616	-5.42
965.783	52.51
965.95	12.21
966.117	1.16
966.283	8.14
966.45	39.33
966.617	42.04
966.784	65.29
966.95	47.86
967.117	42.04
967.284	7.56
967.45	-1.74
967.617	58.51
967.784	24.22
967.95	75.17
968.117	15.5
968.283	61.42
968.45	120.7
968.616	18.99
968.783	46.11
968.949	41.27
969.116	59.67
969.282	37.78
969.449	23.64
969.615	35.07
969.781	-8.33
969.948	14.34
970.114	-23.44
970.28	89.9
970.447	27.12
970.613	65.29
970.779	21.89
970.945	40.88
971.112	55.99
971.278	41.46
971.444	14.53
971.61	57.74
971.776	6.78
971.942	41.27
972.108	67.04
972.275	22.28
972.441	51.54
972.607	83.12
972.773	-0.19
972.939	65.49
973.105	32.16
973.271	-3.1
973.437	10.27
973.602	-2.91
973.768	41.27
973.934	21.31
974.1	36.23
974.266	-37.39
974.432	27.12
974.598	45.34
974.763	51.73
974.929	23.25
975.095	94.74
975.261	-5.81
975.426	0.77
975.592	27.32
975.758	102.88
975.923	-31.97
976.089	-10.46
976.255	53.47
976.42	19.18
976.586	40.49
976.751	34.87
976.917	100.75
977.082	61.22
977.248	-27.9
977.413	-24.02
977.579	-0.77
977.744	34.29
977.91	-13.37
978.075	1.74
978.24	55.02
978.406	-0.58
978.571	12.21
978.736	-6.2
978.902	50.37
979.067	-17.24
979.232	-37.39
979.397	41.46
979.563	60.45
979.728	20.15
979.893	42.24
980.058	18.02
980.223	48.82
980.388	35.07
980.554	34.49
980.719	15.11
980.884	31.97
981.049	65.68
981.214	22.28
981.379	43.79
981.544	0.39
981.709	17.82
981.874	12.01
982.039	28.87
982.204	63.74
982.368	33.52
982.533	15.5
982.698	49.79
982.863	74.4
983.028	9.11
983.193	41.07
983.357	31
983.522	45.14
983.687	21.7
983.852	23.44
984.016	8.91
984.181	33.71
984.346	32.74
984.51	44.37
984.675	12.79
984.839	66.65
985.004	38.36
985.168	80.21
985.333	21.7
985.498	12.21
985.662	66.65
985.827	53.47
985.991	17.44
986.155	26.74
986.32	69.17
986.484	83.31
986.649	37.97
986.813	-17.82
986.977	16.86
987.142	36.23
987.306	-14.92
987.47	5.04
987.634	1.55
987.799	52.89
987.963	30.81
988.127	43.79
988.291	92.42
988.455	26.35
988.62	12.79
988.784	40.88
988.948	71.49
989.112	-6.97
989.276	30.03
989.44	30.81
989.604	-9.3
989.768	5.62
989.932	113.54
990.096	4.46
990.26	11.43
990.424	-39.14
990.588	22.09
990.752	73.24
990.915	31.77
991.079	-11.24
991.243	10.85
991.407	33.91
991.571	12.01
991.734	34.68
991.898	38.17
992.062	108.5
992.226	31.19
992.389	-11.04
992.553	-9.69
992.717	3.68
992.88	36.62
993.044	9.11
993.207	35.07
993.371	62.19
993.535	33.32
993.698	27.9
993.862	57.16
994.025	76.14
994.189	45.34
994.352	37.97
994.515	30.03
994.679	74.21
994.842	16.47
995.006	62.77
995.169	9.49
995.332	14.34
995.496	37.39
995.659	-47.08
995.822	12.98
995.985	38.94
996.149	97.07
996.312	32.74
996.475	75.37
996.638	7.75
996.801	76.14
996.964	78.47
997.128	18.21
997.291	24.02
997.454	38.56
997.617	-28.67
997.78	60.64
997.943	32.16
998.106	25.77
998.269	-15.11
998.432	-4.26
998.595	32.55
998.758	-24.99
998.92	8.14
999.083	-30.61
999.246	41.27
999.409	-8.14
999.572	-47.47
999.735	19.57
999.897	38.17
1000.06	7.17
1000.223	13.95
1000.386	26.93
1000.548	51.73
1000.711	41.27
1000.874	28.67
1001.036	-33.91
1001.199	45.92
1001.361	-5.81
1001.524	25.19
1001.687	45.72
1001.849	-17.05
1002.012	36.23
1002.174	17.05
1002.337	45.72
1002.499	9.88
1002.661	66.84
1002.824	-23.06
1002.986	-6.78
1003.149	12.01
1003.311	-3.29
1003.473	62.39
1003.636	5.23
1003.798	43.79
1003.96	35.07
1004.123	16.86
1004.285	-1.55
1004.447	32.16
1004.609	-14.14
1004.771	85.06
1004.933	-21.89
1005.096	1.94
1005.258	-6.59
1005.42	-18.79
1005.582	53.09
1005.744	20.73
1005.906	-19.57
1006.068	35.07
1006.23	-23.64
1006.392	-44.17
1006.554	-11.04
1006.716	36.81
1006.878	46.69
1007.04	-18.21
1007.202	-5.04
1007.363	19.37
1007.525	7.75
1007.687	20.34
1007.849	86.99
1008.011	-1.16
1008.172	3.29
1008.334	0.77
1008.496	29.45
1008.658	-36.04
1008.819	-32.16
1008.981	-17.24
1009.143	-16.47
1009.304	2.32
1009.466	42.82
1009.627	59.29
1009.789	115.09
1009.95	25.57
1010.112	11.82
1010.273	23.83
1010.435	-7.36
1010.596	-1.16
1010.758	-4.46
1010.919	-18.6
1011.081	-19.96
1011.242	-7.36
1011.403	35.26
1011.565	22.67
1011.726	41.66
1011.887	-21.7
1012.049	12.21
1012.21	34.87
1012.371	62.58
1012.532	-59.67
1012.693	1.55
1012.855	-2.13
1013.016	-6.01
1013.177	52.31
1013.338	12.21
1013.499	54.25
1013.66	57.35
1013.821	44.17
1013.982	29.64
1014.143	20.92
1014.304	-9.88
1014.465	19.57
1014.626	45.72
1014.787	21.31
1014.948	92.42
1015.109	-61.42
1015.27	50.76
1015.431	-5.23
1015.592	-27.71
1015.752	60.84
1015.913	32.55
1016.074	26.74
1016.235	7.94
1016.395	17.63
1016.556	6.59
1016.717	-7.17
1016.877	61.03
1017.038	-1.55
1017.199	39.72
1017.359	4.65
1017.52	23.25
1017.681	-6.01
1017.841	10.07
1018.002	17.24
1018.162	9.88
1018.323	60.45
1018.483	-1.74
1018.644	20.54
1018.804	-15.69
1018.964	-19.96
1019.125	-17.63
1019.285	21.89
1019.446	-29.84
1019.606	-32.55
1019.766	-33.71
1019.926	23.25
1020.087	35.07
1020.247	-42.82
1020.407	43.59
1020.567	44.37
1020.728	-15.31
1020.888	-47.66
1021.048	-10.27
1021.208	-14.14
1021.368	-6.39
1021.528	55.02
1021.688	26.16
1021.848	38.56
1022.008	3.68
1022.168	14.72
1022.328	20.54
1022.488	19.57
1022.648	-5.04
1022.808	-1.74
1022.968	25.96
1023.128	-5.04
1023.288	-29.06
1023.448	-4.07
1023.608	-2.32
1023.767	16.27
1023.927	-22.47
1024.087	-31.19
1024.247	-30.42
1024.406	-6.59
1024.566	-34.29
1024.726	-43.98
1024.885	-18.6
1025.045	3.87
1025.205	-13.37
1025.364	-2.52
1025.524	10.85
1025.683	-18.21
1025.843	11.62
1026.003	-17.63
1026.162	66.07
1026.321	38.36
1026.481	6.59
1026.64	9.11
1026.8	16.66
1026.959	15.11
1027.119	6.39
1027.278	-12.98
1027.437	-25.96
1027.597	1.16
1027.756	6.2
1027.915	14.92
1028.074	30.42
1028.234	-16.86
1028.393	9.88
1028.552	3.1
1028.711	-66.46
1028.87	37.59
1029.03	-38.17
1029.189	14.34
1029.348	-71.3
1029.507	-13.56
1029.666	-17.44
1029.825	-41.27
1029.984	-12.4
1030.143	3.29
1030.302	0.58
1030.461	-39.72
1030.62	1.36
1030.779	45.72
1030.938	-9.11
1031.097	-50.37
1031.255	13.95
1031.414	61.61
1031.573	61.61
1031.732	-46.5
1031.891	7.94
1032.049	50.76
1032.208	26.16
1032.367	-36.04
1032.525	24.02
1032.684	-20.92
1032.843	15.31
1033.001	-29.84
1033.16	142.02
1033.319	49.99
1033.477	17.24
1033.636	-7.36
1033.794	-50.57
1033.953	19.37
1034.111	17.24
1034.27	11.62
1034.428	-9.49
1034.587	-37.97
1034.745	14.53
1034.903	-9.3
1035.062	6.39
1035.22	-25.38
1035.378	31
1035.537	-47.08
1035.695	21.31
1035.853	-0.77
1036.011	23.83
1036.17	12.79
1036.328	-76.72
1036.486	22.28
1036.644	-0.77
1036.802	-89.9
1036.96	-17.82
1037.119	-22.09
1037.277	-34.1
1037.435	-37.59
1037.593	-30.22
1037.751	13.95
1037.909	21.31
1038.067	21.31
