Data from pine_FLMT105791__103__17-22-02-076.txt Node

Date: Mon Mar 20 17:22:02 GMT 2023
User: antho
Spectrometer: FLMT10579
Trigger mode: 0
Integration Time (sec): 1.000000E-1
Scans to average: 10
Electric dark correction enabled: true
Nonlinearity correction enabled: false
Boxcar width: 0
XAxis mode: Wavelengths
Number of Pixels in Spectrum: 3648
>>>>>Begin Spectral Data<<<<<
345.248	-178.55
345.464	-178.55
345.681	-178.55
345.898	-181.46
346.114	-151.04
346.331	-32.28
346.548	21.39
346.764	-4.76
346.981	2.41
347.197	-20.65
347.414	11.12
347.631	-33.44
347.847	68.09
348.064	3.18
348.28	13.26
348.497	-38.86
348.713	10.54
348.93	10.35
349.146	25.46
349.363	-1.08
349.579	15.58
349.796	9.57
350.012	-19.68
350.229	46
350.445	6.86
350.661	-12.32
350.878	-7.28
351.094	0.66
351.311	15.39
351.527	21.2
351.743	7.64
351.96	16.16
352.176	24.49
352.392	26.62
352.609	42.71
352.825	-12.13
353.041	-4.38
353.257	-31.31
353.474	-15.03
353.69	20.81
353.906	3.96
354.122	7.83
354.339	58.01
354.555	4.34
354.771	3.57
354.987	51.42
355.203	36.89
355.42	-23.56
355.636	-3.21
355.852	2.79
356.068	8.41
356.284	-41.57
356.5	31.86
356.716	19.84
356.932	8.8
357.148	20.23
357.364	3.37
357.58	51.04
357.796	48.52
358.012	39.99
358.228	21.59
358.444	-76.26
358.66	53.17
358.876	10.16
359.092	-4.18
359.308	7.06
359.524	43.48
359.74	6.28
359.956	-13.09
360.172	20.23
360.388	39.22
360.604	-15.42
360.819	61.5
361.035	13.64
361.251	44.64
361.467	-32.66
361.683	39.61
361.898	12.09
362.114	37.47
362.33	44.64
362.546	11.32
362.762	2.6
362.977	25.66
363.193	-32.47
363.409	39.61
363.624	-11.35
363.84	-18.13
364.056	-16.97
364.271	29.92
364.487	25.27
364.703	-11.93
364.918	-16.19
365.134	-15.81
365.35	8.22
365.565	113.42
365.781	-6.12
365.996	5.89
366.212	77.19
366.427	-8.83
366.643	-28.98
366.858	-14.26
367.074	-23.94
367.289	55.49
367.505	107.42
367.72	-42.93
367.936	9.77
368.151	39.8
368.367	31.66
368.582	41.16
368.798	12.87
369.013	61.11
369.228	8.61
369.444	7.44
369.659	38.83
369.874	33.41
370.09	84.55
370.305	-41.96
370.52	-7.28
370.736	58.98
370.951	-7.86
371.166	55.88
371.381	70.99
371.597	53.94
371.812	-1.47
372.027	-19.68
372.242	-10.38
372.458	100.83
372.673	0.08
372.888	26.24
373.103	32.44
373.318	105.48
373.533	44.06
373.749	27.98
373.964	-38.67
374.179	69.44
374.394	2.99
374.609	74.09
374.824	-27.04
375.039	62.66
375.254	-13.48
375.469	76.03
375.684	29.53
375.899	55.49
376.114	26.82
376.329	32.05
376.544	64.4
376.759	39.22
376.974	-13.87
377.189	-15.03
377.404	10.54
377.619	37.09
377.834	-48.16
378.049	-46.03
378.264	-23.17
378.478	21.97
378.693	-23.17
378.908	25.46
379.123	32.44
379.338	39.22
379.553	20.23
379.767	28.76
379.982	29.53
380.197	36.89
380.412	32.44
380.626	26.43
380.841	86.88
381.056	25.85
381.271	73.7
381.485	11.32
381.7	-14.84
381.915	31.47
382.129	7.83
382.344	-1.28
382.559	18.87
382.773	61.69
382.988	-36.54
383.202	34.96
383.417	10.54
383.632	101.41
383.846	14.81
384.061	30.31
384.275	11.12
384.49	26.24
384.704	19.46
384.919	28.37
385.133	18.49
385.348	30.31
385.562	-32.08
385.777	58.59
385.991	6.67
386.206	-2.24
386.42	-7.28
386.634	56.27
386.849	36.51
387.063	2.41
387.277	-19.88
387.492	-0.69
387.706	-13.48
387.92	-11.74
388.135	60.92
388.349	33.79
388.563	24.49
388.778	28.76
388.992	24.11
389.206	58.4
389.42	75.64
389.635	28.17
389.849	58.98
390.063	57.04
390.277	17.13
390.491	57.24
390.706	21.39
390.92	32.24
391.134	23.33
391.348	37.67
391.562	-30.53
391.776	9.38
391.99	2.6
392.205	33.02
392.419	-4.57
392.633	-1.86
392.847	76.03
393.061	-20.84
393.275	80.49
393.489	19.84
393.703	29.53
393.917	89.4
394.131	9.77
394.345	54.52
394.559	60.34
394.773	8.61
394.986	25.07
395.2	4.92
395.414	50.46
395.628	-15.81
395.842	23.52
396.056	4.73
396.27	-16.19
396.484	33.02
396.697	49.1
396.911	60.14
397.125	27.21
397.339	79.32
397.553	43.48
397.766	77.58
397.98	75.45
398.194	70.22
398.408	3.18
398.621	38.83
398.835	41.54
399.049	39.8
399.262	85.33
399.476	38.44
399.69	42.32
399.903	93.85
400.117	40.77
400.331	57.24
400.544	0.08
400.758	128.34
400.971	49.68
401.185	66.54
401.398	4.54
401.612	79.13
401.826	65.95
402.039	60.14
402.253	30.31
402.466	69.44
402.68	19.84
402.893	56.27
403.106	39.22
403.32	54.14
403.533	52.39
403.747	47.94
403.96	44.64
404.174	62.85
404.387	23.52
404.6	48.13
404.814	64.79
405.027	60.34
405.24	36.89
405.454	20.23
405.667	73.9
405.88	-5.93
406.094	55.69
406.307	97.73
406.52	44.06
406.733	33.99
406.947	39.22
407.16	91.92
407.373	83
407.586	-7.28
407.799	-3.02
408.012	66.54
408.226	75.64
408.439	90.95
408.652	-2.44
408.865	70.22
409.078	110.9
409.291	77.97
409.504	7.06
409.717	58.2
409.93	53.17
410.143	43.87
410.357	-0.31
410.57	-3.99
410.783	59.17
410.996	62.66
411.209	44.64
411.421	79.9
411.634	53.55
411.847	-3.6
412.06	40.96
412.273	29.53
412.486	61.3
412.699	133.19
412.912	54.72
413.125	57.62
413.338	16.74
413.55	89.59
413.763	52.97
413.976	71.57
414.189	15.19
414.402	46.19
414.615	94.24
414.827	20.62
415.04	93.47
415.253	76.22
415.466	86.69
415.678	125.44
415.891	44.06
416.104	67.31
416.316	43.67
416.529	32.82
416.742	82.81
416.954	76.03
417.167	74.29
417.38	43.48
417.592	93.85
417.805	25.07
418.017	10.35
418.23	110.52
418.442	22.56
418.655	46.39
418.868	66.34
419.08	97.54
419.293	102.57
419.505	69.05
419.718	85.33
419.93	71.96
420.142	41.74
420.355	114.97
420.567	127.95
420.78	61.69
420.992	81.84
421.205	133.38
421.417	23.33
421.629	55.3
421.842	19.84
422.054	14.22
422.266	84.17
422.479	107.42
422.691	52.97
422.903	100.44
423.115	51.04
423.328	72.54
423.54	74.48
423.752	66.92
423.964	39.22
424.177	101.22
424.389	51.81
424.601	159.73
424.813	89.79
425.025	113.04
425.238	71.96
425.45	78.94
425.662	91.72
425.874	386.41
426.086	70.6
426.298	114.59
426.51	79.13
426.722	103.35
426.934	43.67
427.146	111.68
427.358	26.43
427.57	125.24
427.782	76.22
427.994	92.11
428.206	86.1
428.418	44.26
428.63	86.49
428.842	129.5
429.054	105.09
429.266	124.08
429.478	58.01
429.69	79.52
429.902	51.81
430.114	103.54
430.325	114
430.537	64.99
430.749	96.37
430.961	29.53
431.173	70.22
431.384	93.66
431.596	22.17
431.808	58.98
432.02	109.94
432.231	133.57
432.443	129.31
432.655	103.74
432.867	43.87
433.078	116.91
433.29	183.17
433.502	154.69
433.713	126.02
433.925	129.89
434.136	153.33
434.348	91.53
434.56	37.86
434.771	199.83
434.983	59.75
435.194	96.57
435.406	101.02
435.617	160.12
435.829	196.73
436.04	156.63
436.252	150.43
436.463	190.34
436.675	150.43
436.886	131.64
437.098	145.97
437.309	198.87
437.521	145.58
437.732	136.87
437.943	111.29
438.155	153.92
438.366	74.29
438.578	215.72
438.789	152.56
439	136.48
439.211	106.84
439.423	160.12
439.634	168.64
439.845	193.25
440.057	167.09
440.268	171.74
440.479	126.99
440.69	179.68
440.902	147.33
441.113	155.27
441.324	165.93
441.535	185.5
441.746	233.16
441.957	144.62
442.168	162.05
442.38	182.4
442.591	188.02
442.802	135.12
443.013	159.92
443.224	194.8
443.435	177.75
443.646	154.11
443.857	158.57
444.068	166.51
444.279	163.22
444.49	266.29
444.701	163.22
444.912	303.49
445.123	225.22
445.334	207.97
445.545	201.19
445.756	203.52
445.967	157.21
446.178	202.16
446.388	246.53
446.599	218.24
446.81	199.45
447.021	160.89
447.232	229.48
447.443	235.48
447.653	171.35
447.864	252.15
448.075	198.87
448.286	234.13
448.496	231.22
448.707	256.99
448.918	182.4
449.129	280.63
449.339	186.27
449.55	231.8
449.761	219.02
449.971	256.02
450.182	222.12
450.393	261.64
450.603	209.33
450.814	294.77
451.024	213.2
451.235	291.67
451.446	288.76
451.656	302.71
451.867	240.71
452.077	261.64
452.288	301.55
452.498	314.14
452.709	222.7
452.919	251.95
453.13	205.84
453.34	274.04
453.55	199.45
453.761	278.11
453.971	272.3
454.182	278.88
454.392	259.31
454.602	333.71
454.813	290.31
455.023	291.09
455.233	195.57
455.444	278.5
455.654	207
455.864	245.17
456.075	248.66
456.285	257.38
456.495	247.88
456.705	295.35
456.916	313.95
457.126	314.92
457.336	261.45
457.546	180.65
457.756	241.68
457.967	291.67
458.177	256.41
458.387	285.47
458.597	239.36
458.807	272.88
459.017	237.81
459.227	261.06
459.437	261.45
459.647	286.83
459.857	298.26
460.068	257.96
460.278	317.83
460.488	302.71
460.698	341.46
460.908	287.6
461.117	249.63
461.327	262.22
461.537	298.06
461.747	312.79
461.957	283.92
462.167	388.74
462.377	339.53
462.587	312.4
462.797	319.96
463.007	293.03
463.216	337.59
463.426	330.03
463.636	305.04
463.846	291.86
464.056	274.62
464.265	354.44
464.475	263.58
464.685	292.25
464.895	339.53
465.104	319.96
465.314	342.82
465.524	306.2
465.733	287.21
465.943	381.18
466.153	368.59
466.362	349.6
466.572	345.34
466.782	327.13
466.991	320.54
467.201	357.54
467.41	262.61
467.62	362.39
467.829	310.08
468.039	353.48
468.249	337.98
468.458	331
468.668	377.5
468.877	327.32
469.086	396.88
469.296	364.52
469.505	328.87
469.715	410.63
469.924	359.09
470.134	420.9
470.343	419.54
470.552	341.85
470.762	374.01
470.971	320.15
471.18	354.83
471.39	376.34
471.599	336.43
471.808	408.31
472.018	337.39
472.227	409.27
472.436	435.82
472.645	378.08
472.855	344.18
473.064	425.55
473.273	382.15
473.482	410.24
473.691	430.97
473.901	423.42
474.11	411.21
474.319	505.18
474.528	413.92
474.737	459.07
474.946	451.51
475.155	424.58
475.364	433.69
475.573	402.11
475.783	450.54
475.992	452.29
476.201	479.8
476.41	413.54
476.619	412.18
476.828	439.11
477.037	401.91
477.245	441.82
477.454	493.75
477.663	449.77
477.872	451.32
478.081	517.97
478.29	422.84
478.499	536.57
478.708	444.73
478.917	536.95
479.125	460.62
479.334	494.33
479.543	493.17
479.752	513.7
479.961	488.13
480.169	540.44
480.378	498.79
480.587	616.58
480.796	538.12
481.004	528.43
481.213	533.08
481.422	560.79
481.63	525.14
481.839	566.4
482.048	600.7
482.256	525.72
482.465	563.69
482.674	594.3
482.882	578.42
483.091	645.65
483.299	576.67
483.508	591.98
483.716	539.47
483.925	587.91
484.134	554.97
484.342	560.01
484.551	593.33
484.759	608.45
484.967	619.1
485.176	631.5
485.384	616.58
485.593	638.48
485.801	610.19
486.01	600.5
486.218	547.42
486.426	507.7
486.635	533.27
486.843	527.65
487.051	568.54
487.26	565.24
487.468	606.12
487.676	622.59
487.885	540.83
488.093	592.95
488.301	637.12
488.509	619.3
488.717	649.33
488.926	625.88
489.134	626.27
489.342	646.42
489.55	598.57
489.758	668.7
489.967	646.03
490.175	744.46
490.383	653.4
490.591	727.99
490.799	605.73
491.007	733.41
491.215	690.01
491.423	663.47
491.631	690.21
491.839	684.98
492.047	714.04
492.255	636.15
492.463	596.82
492.671	671.22
492.879	728.76
493.087	676.84
493.295	730.31
493.503	722.37
493.711	722.37
493.919	760.54
494.127	736.9
494.334	787.66
494.542	680.52
494.75	726.44
494.958	722.56
495.166	790.76
495.374	770.42
495.581	762.48
495.789	772.74
495.997	809.94
496.205	730.31
496.412	722.37
496.62	752.4
496.828	766.35
497.035	764.8
497.243	798.9
497.451	774.68
497.658	773.71
497.866	761.31
498.074	849.66
498.281	767.13
498.489	825.06
498.696	778.36
498.904	718.69
499.112	764.8
499.319	839.01
499.527	773.52
499.734	825.25
499.942	762.48
500.149	766.93
500.357	805.1
500.564	771.97
500.771	778.56
500.979	767.32
501.186	787.28
501.394	788.24
501.601	794.25
501.808	790.57
502.016	805.1
502.223	812.66
502.43	793.67
502.638	795.41
502.845	747.95
503.052	851.21
503.26	771.97
503.467	928.9
503.674	797.74
503.881	817.89
504.089	877.17
504.296	875.04
504.503	797.35
504.71	833.58
504.917	802.58
505.125	863.22
505.332	825.06
505.539	853.92
505.746	939.95
505.953	895.58
506.16	875.62
506.367	948.47
506.574	937.62
506.781	944.6
506.988	878.92
507.195	876.21
507.402	902.17
507.609	942.27
507.816	883.76
508.023	885.51
508.23	877.37
508.437	856.25
508.644	894.61
508.851	952.35
509.058	935.1
509.265	904.3
509.472	965.72
509.679	1028.49
509.885	957.58
510.092	946.54
510.299	918.83
510.506	947.12
510.713	959.52
510.92	930.84
511.126	962.04
511.333	1007.95
511.54	1008.92
511.746	1036.82
511.953	1008.54
512.16	1029.07
512.367	964.36
512.573	1020.74
512.78	948.09
512.987	1014.93
513.193	1024.42
513.4	918.64
513.606	999.24
513.813	1025
514.02	1032.17
514.226	1071.12
514.433	1054.65
514.639	980.64
514.846	994.78
515.052	1008.34
515.259	1034.5
515.465	1040.12
515.672	1024.42
515.878	1113.74
516.085	1061.23
516.291	1111.03
516.497	1052.32
516.704	1036.24
516.91	1007.18
517.117	954.67
517.323	937.82
517.529	962.04
517.736	969.79
517.942	980.05
518.148	990.32
518.354	1014.35
518.561	1026.17
518.767	1038.37
518.973	1064.33
519.179	1069.95
519.386	1038.57
519.592	1045.35
519.798	1064.53
520.004	1143.96
520.21	1094.56
520.417	1141.83
520.623	1169.73
520.829	1161.98
521.035	1187.17
521.241	1167.8
521.447	1188.53
521.653	1292.37
521.859	1176.13
522.065	1207.32
522.271	1297.8
522.477	1267.58
522.683	1274.94
522.889	1240.45
523.095	1209.06
523.301	1239.68
523.507	1211.39
523.713	1254.01
523.919	1210.81
524.125	1280.75
524.331	1269.9
524.537	1352.44
524.742	1326.86
524.948	1336.74
525.154	1334.03
525.36	1434.2
525.566	1325.31
525.772	1384.6
525.977	1260.02
526.183	1362.32
526.389	1382.85
526.595	1281.33
526.8	1288.11
527.006	1262.54
527.212	1204.99
527.417	1190.08
527.623	1198.21
527.829	1253.63
528.034	1296.25
528.24	1298.57
528.446	1282.11
528.651	1383.05
528.857	1364.45
529.062	1440.98
529.268	1361.35
529.473	1432.84
529.679	1405.72
529.884	1489.61
530.09	1464.62
530.295	1465
530.501	1464.62
530.706	1433.62
530.912	1384.79
531.117	1455.9
531.323	1429.74
531.528	1487.09
531.733	1522.55
531.939	1427.61
532.144	1460.93
532.35	1459.97
532.555	1509.76
532.76	1498.52
532.966	1476.63
533.171	1446.99
533.376	1416.76
533.581	1397.39
533.787	1435.75
533.992	1455.32
534.197	1498.13
534.402	1462.1
534.607	1486.9
534.813	1588.81
535.018	1497.94
535.223	1478.37
535.428	1487.67
535.633	1551.41
535.838	1535.33
536.043	1544.25
536.249	1656.23
536.454	1531.65
536.659	1546.38
536.864	1518.09
537.069	1531.85
537.274	1564.4
537.479	1572.15
537.684	1542.7
537.889	1523.71
538.094	1659.53
538.299	1587.65
538.504	1570.4
538.708	1584.16
538.913	1642.67
539.118	1545.99
539.323	1608.57
539.528	1554.9
539.733	1554.71
539.938	1601.6
540.142	1589.97
540.347	1523.32
540.552	1541.15
540.757	1523.9
540.962	1566.91
541.166	1488.25
541.371	1508.02
541.576	1537.46
541.781	1459.97
541.985	1589.39
542.19	1580.67
542.395	1608.57
542.599	1635.5
542.804	1620.58
543.008	1634.73
543.213	1545.6
543.418	1548.51
543.622	1625.62
543.827	1534.56
544.031	1626.59
544.236	1631.63
544.44	1593.07
544.645	1718.81
544.849	1607.8
545.054	1659.72
545.258	1747.1
545.463	1699.83
545.667	1623.88
545.872	1653.91
546.076	1619.81
546.281	1649.26
546.485	1618.65
546.689	1640.54
546.894	1674.64
547.098	1635.69
547.302	1593.07
547.507	1653.71
547.711	1690.72
547.915	1727.92
548.119	1620.39
548.324	1649.06
548.528	1717.26
548.732	1683.16
548.936	1720.94
549.141	1697.69
549.345	1651.39
549.549	1665.53
549.753	1683.74
549.957	1762.99
550.161	1733.15
550.366	1684.33
550.57	1668.44
550.774	1661.08
550.978	1686.07
551.182	1711.84
551.386	1647.13
551.59	1650.81
551.794	1661.08
551.998	1706.61
552.202	1669.41
552.406	1616.71
552.61	1708.93
552.814	1698.28
553.018	1747.1
553.222	1701.57
553.426	1685.88
553.63	1755.62
553.833	1670.18
554.037	1617.87
554.241	1707.77
554.445	1695.37
554.649	1661.46
554.853	1666.5
555.056	1687.62
555.26	1719.01
555.464	1687.04
555.668	1697.31
555.871	1704.28
556.075	1743.42
556.279	1670.96
556.483	1601.79
556.686	1677.16
556.89	1683.16
557.094	1665.92
557.297	1629.69
557.501	1699.05
557.704	1588.81
557.908	1705.06
558.112	1639.18
558.315	1705.06
558.519	1664.18
558.722	1661.85
558.926	1649.26
559.129	1572.34
559.333	1547.15
559.536	1567.5
559.74	1562.26
559.943	1565.56
560.147	1530.68
560.35	1596.17
560.553	1614.58
560.757	1512.08
560.96	1662.24
561.164	1564.01
561.367	1664.18
561.57	1595.98
561.774	1633.18
561.977	1576.8
562.18	1567.5
562.384	1680.45
562.587	1586.68
562.79	1545.41
562.993	1556.84
563.197	1611.86
563.4	1619.81
563.603	1650.81
563.806	1658.94
564.009	1522.16
564.212	1617.87
564.416	1517.7
564.619	1569.05
564.822	1508.4
565.025	1612.64
565.228	1557.03
565.431	1558.39
565.634	1476.63
565.837	1521.58
566.04	1486.12
566.243	1484.77
566.446	1446.79
566.649	1556.45
566.852	1482.25
567.055	1490.19
567.258	1533.78
567.461	1563.62
567.664	1558.2
567.867	1454.35
568.07	1515.38
568.273	1510.34
568.475	1543.86
568.678	1495.42
568.881	1486.7
569.084	1487.67
569.287	1406.1
569.489	1451.25
569.692	1495.81
569.895	1492.71
570.098	1398.94
570.3	1389.44
570.503	1350.69
570.706	1383.44
570.909	1378.79
571.111	1317.76
571.314	1318.92
571.516	1346.24
571.719	1357.28
571.922	1388.47
572.124	1329.38
572.327	1378.01
572.529	1328.22
572.732	1368.13
572.935	1371.42
573.137	1438.65
573.34	1340.42
573.542	1402.81
573.745	1381.3
573.947	1403.39
574.15	1340.04
574.352	1352.63
574.554	1421.41
574.757	1305.74
574.959	1313.49
575.162	1314.85
575.364	1334.42
575.566	1425.67
575.769	1243.74
575.971	1304.39
576.173	1215.26
576.376	1315.43
576.578	1354.18
576.78	1364.64
576.982	1236.38
577.185	1305.94
577.387	1233.09
577.589	1275.71
577.791	1310.78
577.993	1325.31
578.196	1261.38
578.398	1298.38
578.6	1317.56
578.802	1250.53
579.004	1220.88
579.206	1239.48
579.408	1291.6
579.61	1218.36
579.812	1308.65
580.014	1244.13
580.216	1296.44
580.418	1285.21
580.62	1227.66
580.822	1218.75
581.024	1300.32
581.226	1336.74
581.428	1260.99
581.63	1365.8
581.832	1253.04
582.034	1320.08
582.236	1283.27
582.438	1333.84
582.64	1349.34
582.841	1355.15
583.043	1371.81
583.245	1315.24
583.447	1339.26
583.649	1309.62
583.85	1300.9
584.052	1319.69
584.254	1291.02
584.456	1335.97
584.657	1246.84
584.859	1310.01
585.061	1281.72
585.262	1257.69
585.464	1240.45
585.666	1300.32
585.867	1224.95
586.069	1334.22
586.27	1273.39
586.472	1256.14
586.674	1236.19
586.875	1242.19
587.077	1250.33
587.278	1294.51
587.48	1228.44
587.681	1360.96
587.883	1241.23
588.084	1215.07
588.285	1259.05
588.487	1223.98
588.688	1189.3
588.89	1142.22
589.091	1129.63
589.292	1155.59
589.494	1091.27
589.695	1102.11
589.896	1023.65
590.098	1025
590.299	1100.37
590.5	1092.04
590.702	1101.53
590.903	1137.18
591.104	1181.16
591.305	1188.72
591.507	1217.59
591.708	1154.62
591.909	1142.61
592.11	1199.18
592.311	1156.95
592.512	1153.07
592.714	1118.39
592.915	1104.63
593.116	1113.55
593.317	1151.52
593.518	1125.56
593.719	1167.6
593.92	1130.6
594.121	1212.94
594.322	1159.27
594.523	1130.4
594.724	1107.35
594.925	1126.72
595.126	1166.63
595.327	1159.85
595.528	1150.94
595.729	1154.81
595.929	1152.68
596.13	1166.63
596.331	1153.65
596.532	1168.96
596.733	1204.41
596.934	1175.35
597.135	1175.55
597.335	1185.43
597.536	1136.6
597.737	1172.83
597.938	1151.71
598.138	1174.38
598.339	1143.96
598.54	1145.71
598.74	1129.82
598.941	1157.33
599.142	1214.29
599.342	1161.01
599.543	1144.16
599.744	1130.21
599.944	1133.31
600.145	1097.27
600.345	1151.52
600.546	1190.66
600.746	1228.83
600.947	1234.64
601.147	1160.82
601.348	1181.94
601.548	1124.98
601.749	1149.39
601.949	1095.92
602.15	1111.41
602.35	1142.03
602.551	1168.18
602.751	1104.25
602.951	1116.65
603.152	1052.9
603.352	1125.56
603.552	1126.14
603.753	1163.92
603.953	1182.33
604.153	1150.16
604.354	1141.06
604.554	1116.84
604.754	1116.45
604.954	1106.38
605.155	1153.07
605.355	1116.65
605.555	1167.6
605.755	1189.3
605.955	1119.94
606.155	1162.37
606.356	1142.03
606.556	1155.2
606.756	1132.34
606.956	1076.35
607.156	1134.86
607.356	1120.52
607.556	1156.17
607.756	1146.29
607.956	1163.53
608.156	1140.28
608.356	1105.41
608.556	1139.7
608.756	1114.9
608.956	1055.23
609.156	1099.02
609.356	1068.98
609.556	1063.95
609.755	1091.85
609.955	1062.59
610.155	1084.48
610.355	1099.21
610.555	1072.47
610.755	1078.48
610.954	1047.87
611.154	1101.53
611.354	1111.22
611.554	1062.78
611.753	1068.21
611.953	1027.33
612.153	1087.2
612.352	1088.55
612.552	1023.84
612.752	989.16
612.951	1025.2
613.151	1042.63
613.351	1017.45
613.55	1035.08
613.75	1076.35
613.949	1058.13
614.149	1061.62
614.348	1028.3
614.548	990.52
614.747	1002.53
614.947	1028.3
615.146	961.65
615.346	1084.48
615.545	1027.33
615.745	1062.78
615.944	1073.63
616.144	1042.05
616.343	1052.71
616.542	988.19
616.742	1001.17
616.941	1005.63
617.14	925.03
617.34	1025.58
617.539	981.02
617.738	957.58
617.938	1043.41
618.137	992.84
618.336	966.88
618.535	1024.03
618.734	1002.92
618.934	1019
619.133	1034.88
619.332	991.29
619.531	932.59
619.73	1015.9
619.929	1031.78
620.128	1012.22
620.328	1039.34
620.527	964.55
620.726	993.23
620.925	1012.8
621.124	967.85
621.323	1017.45
621.522	943.63
621.721	936.65
621.92	944.99
622.119	1012.22
622.318	961.84
622.517	965.91
622.715	977.73
622.914	914.18
623.113	947.12
623.312	886.09
623.511	963.39
623.71	938.98
623.909	923.09
624.107	1012.22
624.306	903.52
624.505	934.52
624.704	930.26
624.902	933.36
625.101	977.34
625.3	942.27
625.499	890.74
625.697	956.61
625.896	877.95
626.095	946.15
626.293	860.32
626.492	891.32
626.69	916.51
626.889	861.87
627.088	950.22
627.286	908.76
627.485	891.12
627.683	880.27
627.882	911.47
628.08	846.76
628.279	871.36
628.477	923.48
628.676	870.2
628.874	869.81
629.073	868.26
629.271	856.06
629.469	884.92
629.668	866.91
629.866	841.33
630.065	850.82
630.263	899.46
630.461	835.91
630.66	880.27
630.858	889.57
631.056	932.97
631.254	901.39
631.453	867.29
631.651	893.26
631.849	855.86
632.047	886.86
632.245	856.83
632.444	919.41
632.642	922.32
632.84	914.18
633.038	877.95
633.236	839.78
633.434	846.17
633.632	857.02
633.83	857.61
634.028	915.15
634.227	891.71
634.425	985.87
634.623	888.61
634.821	869.62
635.019	920.77
635.216	863.22
635.414	914.76
635.612	877.17
635.81	860.9
636.008	957.77
636.206	916.7
636.404	901.97
636.602	865.36
636.8	875.43
636.997	893.06
637.195	905.27
637.393	883.96
637.591	932
637.789	908.17
637.986	897.52
638.184	883.57
638.382	902.56
638.58	939.17
638.777	949.44
638.975	901.2
639.173	897.52
639.37	881.63
639.568	885.7
639.765	917.86
639.963	879.5
640.161	916.51
640.358	898.29
640.556	857.61
640.753	824.28
640.951	824.09
641.148	870.97
641.346	830.09
641.543	882.02
641.741	897.13
641.938	836.1
642.136	849.27
642.333	849.08
642.531	870.01
642.728	900.81
642.925	869.42
643.123	845.98
643.32	875.24
643.517	866.71
643.715	867.29
643.912	850.24
644.109	832.23
644.306	812.46
644.504	797.74
644.701	843.85
644.898	867.49
645.095	810.72
645.293	837.65
645.49	866.71
645.687	834.74
645.884	851.6
646.081	733.03
646.278	788.83
646.475	813.63
646.672	767.32
646.87	803.16
647.067	816.53
647.264	808.2
647.461	777.39
647.658	726.25
647.855	809.17
648.052	760.34
648.249	671.8
648.446	751.04
648.642	733.8
648.839	725.66
649.036	757.63
649.233	717.72
649.43	713.26
649.627	711.52
649.824	734
650.021	739.42
650.217	710.75
650.414	715.4
650.611	791.54
650.808	754.92
651.004	776.43
651.201	751.04
651.398	798.9
651.595	764.03
651.791	733.03
651.988	777.01
652.185	686.91
652.381	758.79
652.578	707.06
652.775	752.59
652.971	731.09
653.168	721.6
653.364	776.62
653.561	680.33
653.757	709.97
653.954	763.83
654.15	706.1
654.347	797.35
654.543	751.04
654.74	696.8
654.936	696.6
655.133	715.78
655.329	737.29
655.525	710.55
655.722	715.2
655.918	638.67
656.115	710.16
656.311	624.53
656.507	587.13
656.704	585.39
656.9	597.4
657.096	599.34
657.292	609.03
657.489	666.76
657.685	669.28
657.881	627.82
658.077	635.57
658.273	675.48
658.47	724.5
658.666	695.05
658.862	725.47
659.058	671.61
659.254	706.48
659.45	689.43
659.646	699.31
659.842	691.76
660.038	745.81
660.234	683.04
660.43	685.56
660.626	762.28
660.822	712.68
661.018	709.2
661.214	687.88
661.41	654.75
661.606	718.88
661.802	751.82
661.998	684.59
662.194	642.74
662.39	687.69
662.586	682.85
662.781	712.49
662.977	710.16
663.173	744.46
663.369	692.34
663.564	698.15
663.76	716.56
663.956	655.14
664.152	757.63
664.347	615.23
664.543	682.85
664.739	659.6
664.934	604.38
665.13	616.78
665.326	667.73
665.521	694.86
665.717	626.47
665.912	623.17
666.108	544.9
666.304	677.03
666.499	635.38
666.695	597.79
666.89	647.78
667.086	672.38
667.281	671.22
667.477	690.21
667.672	646.42
667.867	644.87
668.063	662.31
668.258	627.05
668.454	630.34
668.649	717.14
668.844	629.95
669.04	669.67
669.235	624.33
669.43	617.17
669.626	599.53
669.821	655.92
670.016	603.8
670.211	620.85
670.407	593.72
670.602	613.29
670.797	610.58
670.992	668.31
671.187	586.17
671.382	634.6
671.578	609.03
671.773	599.34
671.968	563.89
672.163	613.87
672.358	652.62
672.553	600.31
672.748	628.4
672.943	679.55
673.138	606.32
673.333	629.95
673.528	576.09
673.723	653.01
673.918	605.35
674.113	576.87
674.308	680.71
674.503	627.82
674.698	638.48
674.892	622.2
675.087	660.95
675.282	642.74
675.477	584.03
675.672	619.3
675.867	618.13
676.061	567.76
676.256	563.69
676.451	556.33
676.646	597.79
676.84	603.41
677.035	551.68
677.23	574.54
677.424	618.72
677.619	637.9
677.814	627.05
678.008	645.84
678.203	568.73
678.397	578.61
678.592	615.23
678.787	655.72
678.981	570.86
679.176	628.21
679.37	615.62
679.565	597.98
679.759	570.28
679.954	619.88
680.148	634.22
680.342	622.4
680.537	645.07
680.731	595.85
680.926	597.4
681.12	604.77
681.314	602.25
681.509	608.06
681.703	583.45
681.897	617.17
682.092	558.65
682.286	578.22
682.48	668.31
682.674	613.87
682.869	582.48
683.063	581.9
683.257	673.16
683.451	601.28
683.645	607.09
683.839	582.48
684.034	598.95
684.228	636.73
684.422	567.57
684.616	565.63
684.81	616.58
685.004	597.21
685.198	617.94
685.392	628.21
685.586	594.69
685.78	621.04
685.974	633.63
686.168	618.72
686.362	663.28
686.556	559.04
686.75	530.95
686.944	528.82
687.138	558.07
687.331	469.34
687.525	459.65
687.719	419.54
687.913	463.91
688.107	470.89
688.301	448.41
688.494	506.73
688.688	458.68
688.882	444.54
689.076	454.22
689.269	493.94
689.463	539.47
689.657	500.34
689.85	494.72
690.044	498.79
690.238	484.06
690.431	508.09
690.625	510.8
690.818	513.32
691.012	540.05
691.205	580.55
691.399	527.27
691.593	558.07
691.786	627.63
691.98	646.23
692.173	647.97
692.366	617.36
692.56	617.55
692.753	674.9
692.947	619.1
693.14	671.22
693.333	633.05
693.527	596.82
693.72	630.53
693.914	627.05
694.107	616.58
694.3	650.3
694.493	634.41
694.687	679.55
694.88	655.72
695.073	712.49
695.266	678.39
695.46	678.97
695.653	750.27
695.846	717.14
696.039	637.7
696.232	689.43
696.425	761.89
696.618	772.55
696.812	754.14
697.005	845.01
697.198	895
697.391	819.44
697.584	825.83
697.777	869.42
697.97	878.53
698.163	876.79
698.356	838.23
698.549	964.94
698.742	899.46
698.935	871.75
699.127	910.31
699.32	901.59
699.513	853.34
699.706	937.04
699.899	926
700.092	925.03
700.285	926
700.477	871.94
700.67	939.95
700.863	944.79
701.056	1012.99
701.248	987.22
701.441	982.38
701.634	982.57
701.826	1065.5
702.019	988.97
702.212	1044.18
702.404	984.12
702.597	978.31
702.79	1021.52
702.982	1051.16
703.175	1089.52
703.367	1086.62
703.56	1105.8
703.752	1187.17
703.945	1155.98
704.137	1163.73
704.33	1190.08
704.522	1175.55
704.715	1182.91
704.907	1200.34
705.1	1235.61
705.292	1234.64
705.484	1218.75
705.677	1252.08
705.869	1268.93
706.061	1297.02
706.254	1333.45
706.446	1314.85
706.638	1302.06
706.831	1322.41
707.023	1318.92
707.215	1406.69
707.407	1402.81
707.599	1413.27
707.792	1428.77
707.984	1406.69
708.176	1451.25
708.368	1408.43
708.56	1454.54
708.752	1447.57
708.944	1457.25
709.136	1491.35
709.329	1445.05
709.521	1592.88
709.713	1580.86
709.905	1495.23
710.097	1558.78
710.289	1502.01
710.481	1574.47
710.672	1570.79
710.864	1567.11
711.056	1639.38
711.248	1608.38
711.44	1630.66
711.632	1621.94
711.824	1614.19
712.016	1706.61
712.207	1681.42
712.399	1710.48
712.591	1733.54
712.783	1712.61
712.975	1753.3
713.166	1691.11
713.358	1689.56
713.55	1764.92
713.741	1756.98
713.933	1789.92
714.125	1786.24
714.316	1776.36
714.508	1830.41
714.7	1814.52
714.891	1779.46
715.083	1910.43
715.274	1843.2
715.466	1836.8
715.657	1897.25
715.849	1786.82
716.04	1817.04
716.232	1754.66
716.423	1816.07
716.615	1770.74
716.806	1740.51
716.998	1710.68
717.189	1630.85
717.381	1570.4
717.572	1546.38
717.763	1563.23
717.955	1543.86
718.146	1519.45
718.337	1471.78
718.528	1441.56
718.72	1410.37
718.911	1441.17
719.102	1409.4
719.293	1514.99
719.485	1452.02
719.676	1428.39
719.867	1415.6
720.058	1423.54
720.249	1418.7
720.44	1460.55
720.632	1478.57
720.823	1497.94
721.014	1647.13
721.205	1639.18
721.396	1685.68
721.587	1822.08
721.778	1825.57
721.969	1830.41
722.16	1911.78
722.351	1979.6
722.542	1998.39
722.733	2018.15
722.924	1931.93
723.115	2006.53
723.305	1985.6
723.496	1977.08
723.687	1887.95
723.878	1859.28
724.069	1873.42
724.26	1897.45
724.45	1860.44
724.641	1819.75
724.832	1876.33
725.023	1867.22
725.213	1833.12
725.404	1806.39
725.595	1786.62
725.785	1805.22
725.976	1879.82
726.167	1858.31
726.357	1877.3
726.548	1950.53
726.739	1888.92
726.929	1923.02
727.12	2001.1
727.31	2025.51
727.501	1960.03
727.691	1967.2
727.882	1929.42
728.072	2004.2
728.263	2022.61
728.453	2046.25
728.644	2045.66
728.834	1986.18
729.024	1958.67
729.215	1988.51
729.405	1998.58
729.596	2104.37
729.786	2107.28
729.976	2096.04
730.167	2145.06
730.357	2049.93
730.547	2097.59
730.737	2130.33
730.928	2134.4
731.118	2165.4
731.308	2138.08
731.498	2181.48
731.688	2232.63
731.879	2229.53
732.069	2285.91
732.259	2312.65
732.449	2329.31
732.639	2384.53
732.829	2382.4
733.019	2454.47
733.209	2459.51
733.399	2472.1
733.589	2533.13
733.779	2581.96
733.969	2577.5
734.159	2589.9
734.349	2678.83
734.539	2681.93
734.729	2650.16
734.919	2751.29
735.109	2774.54
735.299	2707.89
735.488	2720.29
735.678	2722.81
735.868	2714.67
736.058	2750.52
736.248	2708.86
736.437	2647.64
736.627	2669.72
736.817	2776.28
737.007	2731.53
737.196	2811.35
737.386	2738.31
737.576	2750.71
737.765	2819.88
737.955	2756.33
738.144	2848.16
738.334	2844.48
738.524	2784.62
738.713	2802.25
738.903	2812.71
739.092	2873.35
739.282	2845.84
739.471	2864.44
739.661	2858.63
739.85	2875.48
740.04	2882.46
740.229	2876.84
740.419	2896.21
740.608	2937.29
740.797	2923.53
740.987	2974.49
741.176	2972.36
741.365	2913.46
741.555	2914.43
741.744	2982.82
741.933	2986.5
742.123	2980.49
742.312	2996.77
742.501	2999.48
742.69	3017.89
742.88	2926.63
743.069	3041.14
743.258	2964.41
743.447	3039.39
743.636	3060.32
743.825	2991.15
744.014	3007.62
744.204	3044.82
744.393	2989.21
744.582	3064.58
744.771	3103.72
744.96	3018.47
745.149	3076.01
745.338	3022.34
745.527	3051.21
745.716	3057.41
745.905	3022.54
746.094	3100.23
746.283	3075.04
746.471	3060.12
746.66	3154.48
746.849	3076.59
747.038	3111.66
747.227	3081.24
747.416	3163.97
747.604	3050.44
747.793	3014.59
747.982	3122.12
748.171	3060.9
748.359	3135.69
748.548	3112.82
748.737	3086.86
748.926	3097.32
749.114	2992.89
749.303	3068.84
749.491	3038.81
749.68	3024.67
749.869	3111.66
750.057	3042.11
750.246	3016.92
750.434	3054.12
750.623	3020.99
750.811	3045.79
751	3088.02
751.188	3006.65
751.377	3028.35
751.565	2997.16
751.754	2961.31
751.942	2961.7
752.131	3039.59
752.319	2948.14
752.507	2921.21
752.696	3011.3
752.884	3075.62
753.072	2949.3
753.261	2998.71
753.449	3006.46
753.637	2952.79
753.825	3102.36
754.014	3006.84
754.202	3025.44
754.39	3045.4
754.578	2999.48
754.766	2988.63
754.955	2979.72
755.143	3040.17
755.331	2932.64
755.519	2962.86
755.707	2949.11
755.895	2972.94
756.083	2982.24
756.271	2929.35
756.459	2967.9
756.647	3002.58
756.835	2936.51
757.023	2896.21
757.211	2900.67
757.399	2890.21
757.587	2922.37
757.775	2882.65
757.963	2893.31
758.151	2897.76
758.339	2863.86
758.526	2851.65
758.714	2854.36
758.902	2779.19
759.09	2676.31
759.278	2544.76
759.465	2300.44
759.653	1996.26
759.841	1832.54
760.028	1578.35
760.216	1361.74
760.404	1306.71
760.591	1018.42
760.779	910.5
760.967	768.29
761.154	613.1
761.342	665.02
761.529	658.24
761.717	731.86
761.905	700.48
762.092	779.72
762.28	715.59
762.467	720.63
762.655	667.15
762.842	669.67
763.029	709.39
763.217	720.24
763.404	715.01
763.592	736.9
763.779	688.27
763.966	752.21
764.154	771.78
764.341	829.13
764.528	825.83
764.716	900.62
764.903	912.44
765.09	1006.21
765.277	1035.08
765.465	1163.15
765.652	1205.19
765.839	1280.94
766.026	1428.19
766.213	1452.99
766.4	1543.08
766.588	1736.83
766.775	1684.71
766.962	1783.52
767.149	1858.12
767.336	1998
767.523	1933.29
767.71	2085.19
767.897	2174.89
768.084	2232.05
768.271	2236.31
768.458	2310.52
768.645	2370
768.832	2328.73
769.019	2341.32
769.206	2388.02
769.392	2438.97
769.579	2524.99
769.766	2520.54
769.953	2506.98
770.14	2568.78
770.327	2547.66
770.513	2570.91
770.7	2629.42
770.887	2523.83
771.073	2617.41
771.26	2574.98
771.447	2533.71
771.634	2553.48
771.82	2631.94
772.007	2573.24
772.193	2575.37
772.38	2654.03
772.567	2629.62
772.753	2590.48
772.94	2627.49
773.126	2618.57
773.313	2646.86
773.499	2636.79
773.686	2642.79
773.872	2540.11
774.059	2570.91
774.245	2540.11
774.432	2542.43
774.618	2516.86
774.804	2578.66
774.991	2505.81
775.177	2587.77
775.363	2560.84
775.55	2583.7
775.736	2507.56
775.922	2520.34
776.109	2587.38
776.295	2518.21
776.481	2564.91
776.667	2574.79
776.853	2537.39
777.04	2513.95
777.226	2552.7
777.412	2596.1
777.598	2490.9
777.784	2457.76
777.97	2493.8
778.156	2503.68
778.342	2492.45
778.528	2500.58
778.715	2412.43
778.901	2462.8
779.087	2525.58
779.272	2450.6
779.458	2435.1
779.644	2473.85
779.83	2424.63
780.016	2517.83
780.202	2432.58
780.388	2413.59
780.574	2370.77
780.76	2406.23
780.946	2412.81
781.131	2415.91
781.317	2394.02
781.503	2374.45
781.689	2396.93
781.874	2513.76
782.06	2389.76
782.246	2404.1
782.432	2361.67
782.617	2427.15
782.803	2389.57
782.989	2347.33
783.174	2332.6
783.36	2295.4
783.545	2372.9
783.731	2321.75
783.916	2266.54
784.102	2334.54
784.288	2285.72
784.473	2333.38
784.659	2330.28
784.844	2358.76
785.029	2308.77
785.215	2269.83
785.4	2260.14
785.586	2321.56
785.771	2236.31
785.956	2318.07
786.142	2267.5
786.327	2245.8
786.512	2269.05
786.698	2225.27
786.883	2154.36
787.068	2252.97
787.254	2229.34
787.439	2201.44
787.624	2212.29
787.809	2213.84
787.994	2182.26
788.18	2265.76
788.365	2119.29
788.55	2179.54
788.735	2129.75
788.92	2189.23
789.105	2157.84
789.29	2181.67
789.475	2139.63
789.66	2123.55
789.845	2089.26
790.03	2115.99
790.215	2096.23
790.4	2179.54
790.585	2180.71
790.77	2135.95
790.955	2046.83
791.14	2121.03
791.325	2148.16
791.51	2003.62
791.695	2109.21
791.879	2088.29
792.064	2035.01
792.249	2116.19
792.434	2074.34
792.618	2062.33
792.803	2128.98
792.988	2048.96
793.173	2041.4
793.357	2097.59
793.542	2033.65
793.727	2048.57
793.911	2119.87
794.096	2068.53
794.281	2132.27
794.465	2214.61
794.65	2090.61
794.834	2115.61
795.019	2145.83
795.203	2141.38
795.388	2155.91
795.572	2161.72
795.757	2133.43
795.941	2133.82
796.126	2139.05
796.31	2078.6
796.494	2108.83
796.679	2079.96
796.863	2051.86
797.048	2161.72
797.232	2062.71
797.416	2135.95
797.601	2073.37
797.785	2152.81
797.969	2179.16
798.153	2130.91
798.338	2138.28
798.522	2153.97
798.706	2165.4
798.89	2165.79
799.074	2228.76
799.258	2208.02
799.443	2113.48
799.627	2137.11
799.811	2200.47
799.995	2114.64
800.179	2086.54
800.363	2102.04
800.547	2144.28
800.731	2153.97
800.915	2051.86
801.099	2110.57
801.283	2094.29
801.467	2078.99
801.651	2100.3
801.835	2173.34
802.019	2133.04
802.202	2063.68
802.386	2102.04
802.57	2075.11
802.754	2085.58
802.938	2091.78
803.121	2064.26
803.305	2156.49
803.489	2138.28
803.673	2106.31
803.856	2136.53
804.04	2096.43
804.224	2108.63
804.407	2089.06
804.591	2084.61
804.775	2108.05
804.958	2121.81
805.142	2234.76
805.326	2138.28
805.509	2135.95
805.693	2141.57
805.876	2164.62
806.06	2154.74
806.243	2140.41
806.427	2179.74
806.61	2190.78
806.794	2119.48
806.977	2188.46
807.16	2146.41
807.344	2141.76
807.527	2144.09
807.71	2102.82
807.894	2122.19
808.077	2191.75
808.26	2101.85
808.444	2097.01
808.627	2158.23
808.81	2077.24
808.993	2053.61
809.177	2070.66
809.36	2083.64
809.543	2074.92
809.726	2007.88
809.909	1991.03
810.092	1986.96
810.276	2008.08
810.459	2038.3
810.642	1975.91
810.825	1972.82
811.008	1976.88
811.191	1877.69
811.374	1866.06
811.557	1954.41
811.74	1983.86
811.923	1851.34
812.106	1867.42
812.289	1835.06
812.472	1889.5
812.654	1864.12
812.837	1787.79
813.02	1792.63
813.203	1753.49
813.386	1683.16
813.569	1648.87
813.751	1614
813.934	1675.99
814.117	1642.28
814.3	1575.05
814.482	1558.97
814.665	1548.31
814.848	1486.9
815.03	1438.27
815.213	1475.85
815.396	1474.3
815.578	1414.82
815.761	1388.09
815.943	1479.92
816.126	1348.37
816.309	1343.14
816.491	1302.64
816.674	1259.24
816.856	1307.49
817.039	1302.84
817.221	1396.03
817.403	1329.19
817.586	1322.99
817.768	1336.16
817.951	1257.31
818.133	1216.04
818.315	1283.27
818.498	1348.95
818.68	1380.92
818.862	1350.31
819.045	1403.39
819.227	1350.89
819.409	1335.19
819.591	1366.97
819.774	1317.37
819.956	1279.39
820.138	1378.59
820.32	1380.72
820.502	1418.12
820.684	1467.52
820.866	1456.28
821.048	1511.89
821.231	1530.68
821.413	1523.71
821.595	1475.66
821.777	1466.94
821.959	1479.34
822.141	1561.68
822.323	1437.49
822.505	1384.4
822.686	1328.22
822.868	1290.44
823.05	1189.49
823.232	1194.14
823.414	1109.09
823.596	1220.3
823.778	1184.46
823.96	1233.48
824.141	1192.01
824.323	1220.88
824.505	1293.54
824.687	1372
824.868	1389.25
825.05	1470.62
825.232	1461.32
825.413	1522.93
825.595	1479.73
825.777	1392.15
825.958	1446.79
826.14	1437.3
826.321	1473.72
826.503	1441.95
826.685	1485.54
826.866	1487.48
827.048	1498.52
827.229	1400.49
827.411	1403.97
827.592	1361.16
827.773	1354.76
827.955	1293.15
828.136	1350.89
828.318	1293.15
828.499	1353.6
828.68	1287.14
828.862	1310.78
829.043	1380.72
829.224	1364.25
829.406	1286.95
829.587	1325.51
829.768	1301.87
829.949	1323.96
830.131	1294.12
830.312	1364.25
830.493	1303.03
830.674	1344.11
830.855	1353.02
831.036	1313.69
831.218	1371.62
831.399	1399.13
831.58	1338.29
831.761	1335
831.942	1346.24
832.123	1307.68
832.304	1287.34
832.485	1282.69
832.666	1292.96
832.847	1313.11
833.028	1312.52
833.209	1303.22
833.389	1311.17
833.57	1238.32
833.751	1268.35
833.932	1358.83
834.113	1320.27
834.294	1276.1
834.475	1323.37
834.655	1369.49
834.836	1351.27
835.017	1355.73
835.198	1298.19
835.378	1352.82
835.559	1388.67
835.74	1351.08
835.92	1315.43
836.101	1321.82
836.281	1335
836.462	1388.47
836.643	1358.25
836.823	1395.64
837.004	1368.32
837.184	1431.68
837.365	1392.74
837.545	1429.35
837.726	1399.71
837.906	1430.71
838.087	1370.84
838.267	1374.14
838.448	1349.14
838.628	1383.05
838.808	1391.96
838.989	1418.5
839.169	1315.62
839.349	1400.87
839.53	1423.74
839.71	1430.9
839.89	1368.9
840.07	1444.85
840.251	1343.72
840.431	1404.17
840.611	1361.74
840.791	1342.56
840.971	1377.24
841.151	1318.92
841.332	1370.45
841.512	1435.94
841.692	1326.28
841.872	1380.34
842.052	1374.14
842.232	1380.72
842.412	1301.09
842.592	1360.77
842.772	1372.97
842.952	1374.14
843.132	1349.34
843.312	1314.07
843.492	1319.31
843.672	1390.99
843.851	1278.62
844.031	1320.47
844.211	1325.31
844.391	1315.24
844.571	1338.29
844.751	1357.09
844.93	1341.39
845.11	1316.21
845.29	1354.37
845.47	1348.76
845.649	1328.41
845.829	1326.67
846.009	1301.09
846.188	1335.58
846.368	1324.73
846.547	1292.96
846.727	1332.29
846.907	1273.19
847.086	1324.73
847.266	1338.1
847.445	1313.11
847.625	1310.01
847.804	1287.14
847.984	1314.46
848.163	1269.32
848.343	1259.24
848.522	1282.3
848.701	1288.89
848.881	1253.82
849.06	1290.82
849.239	1307.87
849.419	1287.72
849.598	1217.39
849.777	1235.61
849.957	1211.39
850.136	1168.96
850.315	1149
850.494	1130.01
850.674	1153.85
850.853	1239.68
851.032	1186.98
851.211	1257.89
851.39	1209.06
851.569	1194.73
851.748	1184.46
851.927	1231.73
852.107	1201.7
852.286	1145.9
852.465	1165.66
852.644	1233.28
852.823	1202.09
853.002	1218.75
853.181	1192.4
853.359	1185.62
853.538	1144.16
853.717	1234.44
853.896	1107.54
854.075	1078.48
854.254	1025.97
854.433	968.82
854.611	1059.1
854.79	1001.37
854.969	1070.34
855.148	1072.08
855.327	1003.3
855.505	1058.72
855.684	1061.23
855.863	1093.01
856.041	1052.9
856.22	1094.56
856.399	1081
856.577	1187.17
856.756	1127.69
856.934	1263.7
857.113	1258.08
857.291	1136.02
857.47	1131.37
857.648	1153.85
857.827	1155.78
858.005	1192.59
858.184	1152.49
858.362	1238.13
858.541	1156.36
858.719	1160.82
858.898	1142.41
859.076	1128.27
859.254	1192.79
859.433	1148.23
859.611	1131.18
859.789	1083.32
859.967	1154.04
860.146	1208.29
860.324	1092.04
860.502	1093.4
860.68	1089.52
860.859	1118.97
861.037	1124.2
861.215	1103.08
861.393	1105.8
861.571	1054.07
861.749	1071.89
861.927	1096.3
862.105	1093.78
862.283	1055.81
862.461	1055.81
862.639	1030.23
862.817	1071.89
862.995	1062.01
863.173	1045.35
863.351	1102.11
863.529	1117.42
863.707	1139.9
863.885	1081.19
864.063	1006.02
864.241	1029.85
864.418	1110.83
864.596	1041.47
864.774	1036.43
864.952	1045.73
865.129	1080.8
865.307	1025
865.485	1006.02
865.663	1057.75
865.84	960.1
866.018	1008.15
866.196	904.3
866.373	938.79
866.551	902.94
866.728	864.39
866.906	883.96
867.084	895.58
867.261	981.22
867.439	967.27
867.616	995.55
867.794	965.33
867.971	978.31
868.149	987.8
868.326	1016.28
868.503	980.25
868.681	989.35
868.858	939.37
869.035	943.44
869.213	1032.95
869.39	961.65
869.567	1056.58
869.745	954.29
869.922	966.69
870.099	1009.12
870.276	1010.28
870.454	994.59
870.631	985.87
870.808	936.46
870.985	1003.3
871.162	1036.43
871.339	980.83
871.517	918.83
871.694	944.4
871.871	951.57
872.048	942.08
872.225	932.59
872.402	970.37
872.579	919.61
872.756	978.31
872.933	899.07
873.11	942.27
873.287	936.07
873.463	976.18
873.64	896.36
873.817	961.45
873.994	918.64
874.171	902.36
874.348	920.77
874.524	875.82
874.701	895
874.878	885.31
875.055	940.34
875.231	915.54
875.408	930.84
875.585	830.68
875.762	932.2
875.938	900.23
876.115	873.3
876.291	851.6
876.468	880.47
876.645	832.81
876.821	888.99
876.998	877.56
877.174	900.62
877.351	861.87
877.527	869.04
877.704	894.22
877.88	873.3
878.057	839.59
878.233	891.32
878.409	854.31
878.586	881.24
878.762	863.61
878.938	845.4
879.115	755.69
879.291	853.15
879.467	792.51
879.644	816.53
879.82	856.06
879.996	814.21
880.172	783.21
880.349	828.54
880.525	860.9
880.701	780.69
880.877	795.41
881.053	822.34
881.229	820.02
881.405	871.17
881.581	814.79
881.757	802.39
881.933	830.87
882.109	843.85
882.285	821.96
882.461	776.43
882.637	795.8
882.813	784.76
882.989	813.82
883.165	852.57
883.341	795.03
883.517	839.78
883.693	840.36
883.869	856.06
884.044	766.93
884.22	838.23
884.396	862.45
884.572	805.88
884.747	825.25
884.923	838.42
885.099	857.8
885.275	876.79
885.45	772.55
885.626	789.6
885.801	782.82
885.977	800.64
886.153	752.79
886.328	850.05
886.504	780.11
886.679	823.89
886.855	803.94
887.03	806.26
887.206	824.09
887.381	832.42
887.557	813.24
887.732	842.3
887.908	845.98
888.083	832.23
888.258	800.84
888.434	786.11
888.609	786.5
888.784	856.44
888.96	786.31
889.135	775.46
889.31	767.71
889.485	771.19
889.661	764.03
889.836	813.63
890.011	807.23
890.186	781.08
890.361	763.06
890.537	829.51
890.712	826.22
890.887	806.65
891.062	790.76
891.237	864.77
891.412	766.54
891.587	821.96
891.762	844.43
891.937	828.16
892.112	789.79
892.287	783.4
892.462	762.28
892.637	745.81
892.812	737.68
892.987	761.31
893.161	731.28
893.336	727.02
893.511	728.76
893.686	725.28
893.861	746.01
894.035	713.46
894.21	723.34
894.385	669.86
894.56	715.59
894.734	659.4
894.909	675.1
895.084	658.24
895.258	678.39
895.433	681.88
895.608	641.19
895.782	586.36
895.957	635.57
896.131	636.15
896.306	552.65
896.48	564.08
896.655	589.85
896.829	536.95
897.004	527.27
897.178	554.39
897.353	507.7
897.527	568.73
897.701	558.46
897.876	489.29
898.05	588.68
898.224	569.12
898.399	587.72
898.573	546.45
898.747	426.52
898.921	510.41
899.096	379.83
899.27	414.89
899.444	411.99
899.618	464.49
899.792	466.82
899.967	467.01
900.141	493.36
900.315	424.19
900.489	450.93
900.663	492.78
900.837	482.51
901.011	430.78
901.185	538.89
901.359	468.17
901.533	466.82
901.707	478.06
901.881	481.54
902.055	418.38
902.229	440.27
902.403	502.66
902.576	435.24
902.75	461.78
902.924	546.84
903.098	518.55
903.272	542.96
903.446	560.59
903.619	569.31
903.793	584.03
903.967	561.37
904.14	601.47
904.314	610.58
904.488	603.22
904.661	616
904.835	594.5
905.009	621.23
905.182	678.97
905.356	648.75
905.529	582.48
905.703	544.32
905.876	574.35
906.05	533.08
906.223	519.52
906.397	471.08
906.57	471.08
906.744	463.52
906.917	491.42
907.09	495.49
907.264	458.68
907.437	453.06
907.61	429.42
907.784	455.77
907.957	426.71
908.13	392.81
908.304	451.9
908.477	434.66
908.65	419.16
908.823	399.78
908.996	481.93
909.17	390.29
909.343	389.9
909.516	414.89
909.689	399.98
909.862	397.46
910.035	425.16
910.208	373.82
910.381	401.14
910.554	464.49
910.727	398.23
910.9	396.49
911.073	419.16
911.246	450.35
911.419	466.04
911.592	442.41
911.765	409.27
911.938	402.49
912.11	409.66
912.283	373.82
912.456	436.01
912.629	414.51
912.802	397.65
912.974	343.98
913.147	328.48
913.32	301.94
913.493	331.39
913.665	359.87
913.838	377.69
914.01	355.61
914.183	361.42
914.356	339.33
914.528	377.89
914.701	410.82
914.873	380.21
915.046	345.92
915.218	334.29
915.391	265.13
915.563	280.24
915.736	351.15
915.908	395.91
916.081	344.76
916.253	328.09
916.425	360.64
916.598	357.54
916.77	368.01
916.942	312.4
917.115	248.85
917.287	345.53
917.459	316.28
917.632	309.5
917.804	227.73
917.976	316.28
918.148	339.14
918.32	328.09
918.493	342.43
918.665	373.43
918.837	337.01
919.009	402.49
919.181	417.8
919.353	361.81
919.525	349.41
919.697	357.54
919.869	367.23
920.041	408.31
920.213	485.22
920.385	405.79
920.557	370.91
920.729	399.39
920.901	380.02
921.073	337.98
921.244	349.6
921.416	434.66
921.588	360.84
921.76	352.7
921.932	441.63
922.103	343.79
922.275	361.03
922.447	400.17
922.619	291.48
922.79	341.85
922.962	332.36
923.134	384.09
923.305	312.4
923.477	312.98
923.648	315.11
923.82	349.21
923.991	292.06
924.163	260.28
924.335	297.87
924.506	261.45
924.677	372.66
924.849	272.1
925.02	314.14
925.192	324.8
925.363	335.26
925.535	330.23
925.706	278.3
925.877	329.84
926.049	279.27
926.22	321.7
926.391	322.86
926.562	332.36
926.734	309.69
926.905	313.95
927.076	254.66
927.247	272.88
927.419	251.18
927.59	231.8
927.761	277.91
927.932	261.83
928.103	276.17
928.274	200.03
928.445	215.53
928.616	233.16
928.787	223.28
928.958	233.16
929.129	238.78
929.3	215.72
929.471	180.65
929.642	133.77
929.813	82.42
929.984	203.13
930.155	112.45
930.326	165.93
930.496	135.7
930.667	95.4
930.838	138.61
931.009	87.27
931.18	103.54
931.35	107.8
931.521	110.9
931.692	33.6
931.863	29.34
932.033	110.13
932.204	96.76
932.374	111.68
932.545	35.34
932.716	116.14
932.886	127.76
933.057	13.06
933.227	35.15
933.398	126.02
933.568	44.26
933.739	3.57
933.909	31.47
934.08	95.6
934.25	-0.69
934.421	7.44
934.591	60.34
934.761	20.23
934.932	-21.23
935.102	13.84
935.272	21.39
935.443	21.2
935.613	32.44
935.783	58.59
935.953	-20.07
936.123	180.46
936.294	-8.83
936.464	15.19
936.634	38.25
936.804	-14.06
936.974	-4.57
937.144	28.17
937.314	16.94
937.484	15.77
937.655	-5.73
937.825	62.27
937.995	23.72
938.165	58.2
938.334	4.73
938.504	37.28
938.674	-1.86
938.844	47.36
939.014	68.67
939.184	61.89
939.354	99.67
939.524	77.19
939.694	64.99
939.863	52.39
940.033	130.28
940.203	106.25
940.373	106.25
940.542	111.87
940.712	45.03
940.882	94.63
941.051	97.73
941.221	98.7
941.391	85.14
941.56	48.91
941.73	33.6
941.899	153.92
942.069	39.8
942.238	79.13
942.408	51.62
942.577	83.78
942.747	65.95
942.916	-8.25
943.086	17.13
943.255	76.42
943.425	69.83
943.594	45.03
943.763	-43.32
943.933	4.54
944.102	-35.57
944.271	57.62
944.441	60.53
944.61	29.92
944.779	34.76
944.948	156.05
945.117	8.8
945.287	53.17
945.456	-12.32
945.625	23.91
945.794	70.02
945.963	37.09
946.132	68.67
946.301	22.75
946.47	58.59
946.639	-19.1
946.808	48.52
946.977	50.84
947.146	87.46
947.315	36.12
947.484	65.18
947.653	34.76
947.822	22.94
947.991	30.5
948.16	114.2
948.329	94.24
948.498	47.36
948.666	40.19
948.835	73.51
949.004	-3.99
949.173	27.01
949.341	50.07
949.51	20.81
949.679	94.82
949.847	44.45
950.016	134.15
950.185	72.74
950.353	16.16
950.522	45.22
950.69	103.93
950.859	34.57
951.028	87.27
951.196	68.28
951.365	17.91
951.533	58.98
951.701	70.8
951.87	56.27
952.038	33.02
952.207	51.04
952.375	121.37
952.543	60.34
952.712	41.74
952.88	22.94
953.048	118.07
953.217	48.91
953.385	36.51
953.553	88.62
953.721	9.57
953.89	68.67
954.058	26.04
954.226	9.96
954.394	39.41
954.562	1.05
954.73	55.3
954.898	31.86
955.067	87.65
955.235	37.28
955.403	90.95
955.571	120.98
955.739	94.24
955.907	2.41
956.075	25.66
956.243	3.37
956.41	63.63
956.578	-27.43
956.746	2.79
956.914	24.69
957.082	89.59
957.25	82.23
957.418	-2.44
957.585	31.47
957.753	106.84
957.921	32.24
958.089	53.36
958.256	64.6
958.424	80.68
958.592	47.94
958.759	33.99
958.927	69.25
959.095	35.54
959.262	39.99
959.43	61.69
959.597	5.7
959.765	17.91
959.932	17.32
960.1	80.68
960.267	40.38
960.435	51.42
960.602	78.55
960.77	10.93
960.937	17.91
961.104	58.2
961.272	10.16
961.439	22.36
961.606	36.31
961.774	92.11
961.941	55.1
962.108	62.47
962.275	39.22
962.443	77.58
962.61	84.75
962.777	108.58
962.944	67.31
963.111	73.9
963.278	71.77
963.446	52.39
963.613	53.75
963.78	68.86
963.947	52.78
964.114	75.25
964.281	163.02
964.448	74.87
964.615	45.22
964.782	51.04
964.949	73.32
965.116	60.72
965.282	106.84
965.449	37.09
965.616	21.2
965.783	59.95
965.95	66.92
966.117	20.23
966.283	78.94
966.45	59.75
966.617	82.42
966.784	94.63
966.95	86.88
967.117	74.67
967.284	26.82
967.45	32.44
967.617	89.59
967.784	89.01
967.95	112.07
968.117	69.05
968.283	103.74
968.45	162.44
968.616	83.39
968.783	98.5
968.949	80.29
969.116	103.35
969.282	44.64
969.449	57.04
969.615	79.9
969.781	19.65
969.948	67.5
970.114	41.35
970.28	123.11
970.447	61.5
970.613	98.5
970.779	65.57
970.945	98.5
971.112	67.31
971.278	72.74
971.444	70.41
971.61	98.7
971.776	60.14
971.942	63.24
972.108	86.1
972.275	54.33
972.441	93.27
972.607	131.05
972.773	54.52
972.939	83
973.105	67.5
973.271	25.46
973.437	56.07
973.602	45.42
973.768	68.09
973.934	65.57
974.1	82.04
974.266	-5.93
974.432	80.87
974.598	38.64
974.763	76.22
974.929	53.75
975.095	139
975.261	33.41
975.426	37.47
975.592	49.87
975.758	102.57
975.923	11.32
976.089	35.15
976.255	79.13
976.42	73.9
976.586	87.46
976.751	77.58
976.917	148.88
977.082	84.36
977.248	21.39
977.413	-16.58
977.579	37.86
977.744	63.05
977.91	17.13
978.075	21.2
978.24	83
978.406	60.92
978.571	46.97
978.736	48.52
978.902	63.05
979.067	35.73
979.232	8.22
979.397	56.07
979.563	98.7
979.728	17.91
979.893	66.92
980.058	47.94
980.223	81.84
980.388	71.38
980.554	47.16
980.719	46.19
980.884	53.17
981.049	88.82
981.214	34.57
981.379	95.6
981.544	55.49
981.709	34.57
981.874	45.22
982.039	37.28
982.204	75.45
982.368	53.17
982.533	24.3
982.698	78.74
982.863	100.83
983.028	27.59
983.193	101.41
983.357	60.53
983.522	41.16
983.687	38.06
983.852	63.63
984.016	64.21
984.181	60.53
984.346	78.74
984.51	78.74
984.675	40.19
984.839	85.72
985.004	89.01
985.168	120.59
985.333	76.8
985.498	39.61
985.662	81.84
985.827	56.07
985.991	41.35
986.155	41.35
986.32	89.4
986.484	116.33
986.649	73.51
986.813	13.06
986.977	57.43
987.142	73.32
987.306	27.79
987.47	27.21
987.634	46.39
987.799	69.05
987.963	34.57
988.127	99.47
988.291	123.11
988.455	39.61
988.62	54.14
988.784	80.49
988.948	87.65
989.112	56.46
989.276	47.36
989.44	55.3
989.604	14.61
989.768	31.66
989.932	138.8
990.096	32.44
990.26	31.47
990.424	0.08
990.588	37.67
990.752	95.6
990.915	69.05
991.079	50.46
991.243	24.69
991.407	85.14
991.571	42.32
991.734	70.22
991.898	59.17
992.062	139.97
992.226	53.55
992.389	34.96
992.553	-11.16
992.717	21.01
992.88	37.47
993.044	79.71
993.207	54.33
993.371	82.42
993.535	45.61
993.698	69.05
993.862	76.61
994.025	88.04
994.189	39.41
994.352	66.15
994.515	55.88
994.679	75.64
994.842	48.52
995.006	94.05
995.169	36.12
995.332	31.27
995.496	78.74
995.659	-1.86
995.822	31.08
995.985	68.86
996.149	81.07
996.312	28.76
996.475	105.67
996.638	26.24
996.801	84.55
996.964	112.45
997.128	46.19
997.291	57.04
997.454	53.17
997.617	26.62
997.78	82.81
997.943	15.58
998.106	75.64
998.269	21.2
998.432	30.5
998.595	36.31
998.758	-15.03
998.92	1.82
999.083	-24.14
999.246	37.67
999.409	1.82
999.572	-23.36
999.735	30.69
999.897	37.28
1000.06	41.93
1000.223	35.15
1000.386	63.63
1000.548	68.86
1000.711	26.24
1000.874	29.53
1001.036	-2.24
1001.199	70.02
1001.361	25.07
1001.524	32.63
1001.687	71.19
1001.849	37.67
1002.012	85.52
1002.174	60.34
1002.337	91.34
1002.499	43.87
1002.661	78.35
1002.824	3.57
1002.986	7.44
1003.149	31.86
1003.311	2.41
1003.473	86.3
1003.636	37.09
1003.798	68.09
1003.96	55.88
1004.123	20.81
1004.285	21.39
1004.447	42.71
1004.609	47.16
1004.771	103.15
1004.933	-6.7
1005.096	-20.46
1005.258	12.87
1005.42	32.82
1005.582	59.17
1005.744	47.36
1005.906	-3.21
1006.068	15
1006.23	16.94
1006.392	-11.74
1006.554	10.16
1006.716	70.6
1006.878	36.89
1007.04	-24.14
1007.202	13.06
1007.363	44.06
1007.525	34.76
1007.687	45.81
1007.849	98.7
1008.011	-10.38
1008.172	11.32
1008.334	18.68
1008.496	47.94
1008.658	-23.75
1008.819	-7.67
1008.981	-26.66
1009.143	-0.11
1009.304	21.01
1009.466	37.67
1009.627	94.63
1009.789	119.24
1009.95	29.92
1010.112	7.25
1010.273	51.04
1010.435	9.57
1010.596	35.54
1010.758	-5.54
1010.919	27.79
1011.081	-13.87
1011.242	11.9
1011.403	34.96
1011.565	33.99
1011.726	39.61
1011.887	-19.1
1012.049	11.9
1012.21	50.65
1012.371	89.2
1012.532	-43.9
1012.693	17.52
1012.855	-0.31
1013.016	10.54
1013.177	66.15
1013.338	53.75
1013.499	91.53
1013.66	42.51
1013.821	35.73
1013.982	27.01
1014.143	34.96
1014.304	13.26
1014.465	64.79
1014.626	68.09
1014.787	26.82
1014.948	123.11
1015.109	-47.39
1015.27	52.2
1015.431	21.59
1015.592	-9.61
1015.752	90.56
1015.913	35.54
1016.074	35.73
1016.235	30.5
1016.395	11.71
1016.556	24.3
1016.717	23.91
1016.877	83.97
1017.038	-17.74
1017.199	27.21
1017.359	6.86
1017.52	35.92
1017.681	31.27
1017.841	-9.22
1018.002	42.12
1018.162	0.66
1018.323	60.14
1018.483	9.96
1018.644	-4.96
1018.804	-21.81
1018.964	-24.72
1019.125	4.15
1019.285	35.34
1019.446	-10.77
1019.606	-17.74
1019.766	-32.86
1019.926	44.84
1020.087	27.79
1020.247	-35.18
1020.407	23.14
1020.567	36.7
1020.728	12.67
1020.888	-20.46
1021.048	-8.25
1021.208	-14.84
1021.368	8.41
1021.528	60.53
1021.688	50.07
1021.848	66.34
1022.008	38.83
1022.168	21.2
1022.328	42.9
1022.488	7.25
1022.648	-3.99
1022.808	2.21
1022.968	36.51
1023.128	15
1023.288	-30.14
1023.448	10.74
1023.608	59.56
1023.767	43.87
1023.927	-4.96
1024.087	12.09
1024.247	-32.66
1024.406	-11.35
1024.566	-46.81
1024.726	-3.79
1024.885	7.64
1025.045	50.65
1025.205	0.27
1025.364	-0.11
1025.524	6.28
1025.683	6.86
1025.843	37.86
1026.003	13.06
1026.162	51.62
1026.321	53.17
1026.481	13.84
1026.64	19.07
1026.8	68.47
1026.959	9.57
1027.119	7.83
1027.278	18.68
1027.437	-7.48
1027.597	21.2
1027.756	20.04
1027.915	37.86
1028.074	16.74
1028.234	11.9
1028.393	-6.51
1028.552	-1.28
1028.711	-72.57
1028.87	41.16
1029.03	-22.2
1029.189	0.86
1029.348	-49.91
1029.507	-11.35
1029.666	-8.64
1029.825	-28.79
1029.984	-16.97
1030.143	27.21
1030.302	-20.65
1030.461	-50.29
1030.62	19.84
1030.779	19.65
1030.938	-4.57
1031.097	-28.4
1031.255	42.9
1031.414	66.34
1031.573	45.61
1031.732	-53.78
1031.891	-7.86
1032.049	58.01
1032.208	16.74
1032.367	-11.54
1032.525	-18.13
1032.684	15
1032.843	-3.79
1033.001	-39.06
1033.16	159.53
1033.319	59.56
1033.477	31.66
1033.636	-15.23
1033.794	-32.47
1033.953	47.36
1034.111	27.21
1034.27	-25.11
1034.428	31.86
1034.587	-39.25
1034.745	20.62
1034.903	21.78
1035.062	46.58
1035.22	-38.86
1035.378	41.35
1035.537	5.51
1035.695	31.08
1035.853	9.96
1036.011	14.61
1036.17	28.95
1036.328	-51.84
1036.486	10.54
1036.644	14.42
1036.802	-88.07
1036.96	-7.86
1037.119	-6.12
1037.277	-34.6
1037.435	-40.8
1037.593	-20.26
1037.751	0.47
1037.909	28.76
1038.067	28.76
