Data from pine_FLMT105791__178__17-23-32-073.txt Node

Date: Mon Mar 20 17:23:32 GMT 2023
User: antho
Spectrometer: FLMT10579
Trigger mode: 0
Integration Time (sec): 1.000000E-1
Scans to average: 10
Electric dark correction enabled: true
Nonlinearity correction enabled: false
Boxcar width: 0
XAxis mode: Wavelengths
Number of Pixels in Spectrum: 3648
>>>>>Begin Spectral Data<<<<<
345.248	-167.2
345.464	-167.2
345.681	-167.2
345.898	-151.12
346.114	-162.94
346.331	-33.91
346.548	40.11
346.764	6.39
346.981	6.2
347.197	-17.63
347.414	0.19
347.631	-32.36
347.847	43.79
348.064	-2.32
348.28	15.31
348.497	-35.46
348.713	9.69
348.93	19.18
349.146	16.47
349.363	8.52
349.579	-8.91
349.796	-3.68
350.012	-7.36
350.229	22.86
350.445	-1.36
350.661	-12.4
350.878	16.08
351.094	19.37
351.311	14.53
351.527	-1.55
351.743	2.91
351.96	36.42
352.176	8.14
352.392	16.47
352.609	38.17
352.825	-47.47
353.041	-3.49
353.257	16.86
353.474	5.04
353.69	-5.81
353.906	20.92
354.122	-7.36
354.339	33.52
354.555	-11.62
354.771	-1.16
354.987	86.41
355.203	47.27
355.42	5.81
355.636	-24.22
355.852	-4.84
356.068	4.07
356.284	-23.06
356.5	66.84
356.716	2.91
356.932	13.17
357.148	37.97
357.364	-2.52
357.58	39.33
357.796	63.74
358.012	55.41
358.228	24.99
358.444	-31.39
358.66	59.09
358.876	14.34
359.092	1.74
359.308	5.04
359.524	49.99
359.74	-0.58
359.956	-24.41
360.172	6.59
360.388	41.27
360.604	-18.02
360.819	85.44
361.035	19.76
361.251	40.69
361.467	-21.31
361.683	34.29
361.898	22.67
362.114	25.96
362.33	16.47
362.546	54.83
362.762	6.78
362.977	10.07
363.193	-19.96
363.409	26.93
363.624	-18.79
363.84	-19.57
364.056	-18.41
364.271	18.99
364.487	16.27
364.703	2.32
364.918	-29.84
365.134	4.65
365.35	-1.36
365.565	112.18
365.781	10.27
365.996	2.91
366.212	68.01
366.427	27.32
366.643	-14.92
366.858	27.51
367.074	-22.86
367.289	36.42
367.505	100.94
367.72	-21.12
367.936	-4.65
368.151	42.62
368.367	30.03
368.582	29.84
368.798	-15.89
369.013	75.37
369.228	2.91
369.444	10.66
369.659	58.51
369.874	31.77
370.09	67.23
370.305	-60.26
370.52	-7.17
370.736	48.05
370.951	-5.81
371.166	84.47
371.381	41.85
371.597	35.07
371.812	-5.23
372.027	4.07
372.242	-3.68
372.458	65.68
372.673	22.86
372.888	7.17
373.103	16.66
373.318	106.95
373.533	15.5
373.749	24.8
373.964	-40.88
374.179	62.97
374.394	-24.99
374.609	85.44
374.824	-24.41
375.039	86.99
375.254	-1.36
375.469	73.04
375.684	4.07
375.899	54.06
376.114	-14.34
376.329	19.18
376.544	59.87
376.759	46.69
376.974	22.09
377.189	5.81
377.404	-28.48
377.619	60.45
377.834	-30.03
378.049	-14.34
378.264	-19.57
378.478	-10.46
378.693	-5.23
378.908	55.22
379.123	-4.84
379.338	58.12
379.553	33.52
379.767	27.51
379.982	32.55
380.197	38.56
380.412	22.86
380.626	45.72
380.841	80.02
381.056	17.05
381.271	68.97
381.485	-0.58
381.7	-22.67
381.915	40.49
382.129	-17.05
382.344	43.79
382.559	26.54
382.773	27.32
382.988	-51.73
383.202	24.99
383.417	-14.92
383.632	100.75
383.846	6.78
384.061	33.52
384.275	-2.71
384.49	28.48
384.704	57.74
384.919	39.14
385.133	32.16
385.348	26.35
385.562	-19.76
385.777	75.56
385.991	10.07
386.206	8.14
386.42	10.27
386.634	44.37
386.849	23.83
387.063	24.99
387.277	-30.61
387.492	-6.01
387.706	-4.84
387.92	-17.05
388.135	32.55
388.349	23.83
388.563	19.37
388.778	34.1
388.992	54.25
389.206	50.76
389.42	92.03
389.635	41.07
389.849	42.04
390.063	42.24
390.277	16.27
390.491	86.02
390.706	37.2
390.92	53.47
391.134	52.51
391.348	40.88
391.562	-24.22
391.776	11.62
391.99	1.74
392.205	32.16
392.419	-19.76
392.633	26.35
392.847	67.62
393.061	5.81
393.275	90.29
393.489	18.6
393.703	37.39
393.917	68.2
394.131	-7.56
394.345	42.62
394.559	39.33
394.773	7.17
394.986	27.51
395.2	0.58
395.414	34.87
395.628	-17.44
395.842	32.36
396.056	11.04
396.27	-31.58
396.484	26.93
396.697	3.49
396.911	44.76
397.125	38.36
397.339	49.41
397.553	60.64
397.766	87.96
397.98	68.2
398.194	43.21
398.408	2.52
398.621	31.77
398.835	30.03
399.049	22.67
399.262	71.49
399.476	48.44
399.69	40.3
399.903	94.55
400.117	26.16
400.331	26.35
400.544	2.32
400.758	105.59
400.971	46.69
401.185	54.64
401.398	-14.53
401.612	72.07
401.826	27.32
402.039	51.34
402.253	-7.36
402.466	30.61
402.68	21.51
402.893	42.24
403.106	32.74
403.32	23.64
403.533	52.31
403.747	22.47
403.96	28.87
404.174	52.12
404.387	-12.21
404.6	24.61
404.814	80.02
405.027	37.59
405.24	28.67
405.454	10.07
405.667	68.39
405.88	-18.21
406.094	32.94
406.307	37.01
406.52	30.81
406.733	3.87
406.947	-1.94
407.16	110.24
407.373	82.15
407.586	11.62
407.799	-18.79
408.012	48.24
408.226	24.8
408.439	78.08
408.652	-48.63
408.865	18.79
409.078	76.53
409.291	41.46
409.504	2.71
409.717	52.12
409.93	28.48
410.143	-6.78
410.357	-29.26
410.57	-18.99
410.783	3.87
410.996	34.87
411.209	40.88
411.421	56.96
411.634	19.96
411.847	-1.55
412.06	36.42
412.273	20.15
412.486	35.65
412.699	91.25
412.912	20.15
413.125	75.56
413.338	23.25
413.55	76.53
413.763	17.44
413.976	30.03
414.189	15.31
414.402	36.42
414.615	55.22
414.827	-9.49
415.04	61.22
415.253	40.88
415.466	52.12
415.678	90.09
415.891	40.49
416.104	27.9
416.316	24.61
416.529	19.57
416.742	15.89
416.954	45.53
417.167	40.69
417.38	14.14
417.592	92.22
417.805	12.01
418.017	-16.47
418.23	52.12
418.442	34.87
418.655	-6.01
418.868	5.81
419.08	74.4
419.293	97.65
419.505	37.97
419.718	34.49
419.93	68.59
420.142	18.6
420.355	62.97
420.567	87.19
420.78	64.13
420.992	15.89
421.205	75.95
421.417	9.3
421.629	3.49
421.842	4.46
422.054	-1.36
422.266	33.52
422.479	70.91
422.691	7.75
422.903	76.14
423.115	21.31
423.328	16.27
423.54	46.31
423.752	18.99
423.964	12.59
424.177	27.12
424.389	8.91
424.601	135.62
424.813	61.22
425.025	56.77
425.238	60.84
425.45	33.91
425.662	8.33
425.874	341.77
426.086	23.06
426.298	36.42
426.51	25.38
426.722	33.52
426.934	6.39
427.146	52.12
427.358	6.78
427.57	70.52
427.782	23.25
427.994	46.11
428.206	15.89
428.418	-22.47
428.63	34.68
428.842	66.07
429.054	53.86
429.266	65.68
429.478	24.8
429.69	25.38
429.902	-18.21
430.114	63.74
430.325	50.76
430.537	34.1
430.749	47.66
430.961	-5.23
431.173	42.43
431.384	71.69
431.596	-18.41
431.808	25.57
432.02	29.45
432.231	42.82
432.443	45.53
432.655	33.91
432.867	6.2
433.078	41.85
433.29	68.39
433.502	63.36
433.713	55.02
433.925	34.1
434.136	69.17
434.348	-6.01
434.56	-23.83
434.771	127.29
434.983	-3.68
435.194	5.42
435.406	29.26
435.617	57.93
435.829	97.07
436.04	48.05
436.252	72.46
436.463	71.49
436.675	79.82
436.886	36.81
437.098	45.14
437.309	71.11
437.521	19.57
437.732	77.69
437.943	27.51
438.155	69.94
438.366	-1.16
438.578	86.61
438.789	46.5
439	69.94
439.211	32.74
439.423	75.17
439.634	56.19
439.845	57.54
440.057	55.8
440.268	80.21
440.479	48.63
440.69	43.59
440.902	32.74
441.113	43.4
441.324	17.05
441.535	41.85
441.746	106.95
441.957	16.86
442.168	10.66
442.38	44.56
442.591	74.98
442.802	30.61
443.013	47.86
443.224	47.08
443.435	17.63
443.646	38.17
443.857	10.07
444.068	23.25
444.279	14.53
444.49	100.75
444.701	43.79
444.912	127.87
445.123	43.4
445.334	60.26
445.545	59.48
445.756	47.86
445.967	1.74
446.178	66.07
446.388	87.96
446.599	85.06
446.81	72.66
447.021	25.57
447.232	81.76
447.443	88.93
447.653	11.43
447.864	103.85
448.075	68.78
448.286	81.37
448.496	65.29
448.707	85.83
448.918	51.54
449.129	143.76
449.339	26.74
449.55	73.43
449.761	45.72
449.971	108.3
450.182	30.42
450.393	112.18
450.603	47.66
450.814	46.11
451.024	61.81
451.235	82.54
451.446	137.17
451.656	88.74
451.867	46.69
452.077	64.32
452.288	137.37
452.498	114.7
452.709	77.89
452.919	95.9
453.13	48.24
453.34	90.67
453.55	-3.49
453.761	88.54
453.971	77.69
454.182	107.53
454.392	95.32
454.602	112.57
454.813	68.97
455.023	85.06
455.233	11.04
455.444	56.77
455.654	9.69
455.864	79.44
456.075	62.77
456.285	59.09
456.495	53.67
456.705	82.54
456.916	129.62
457.126	115.67
457.336	80.21
457.546	13.95
457.756	60.26
457.967	108.5
458.177	52.89
458.387	84.47
458.597	40.49
458.807	62.58
459.017	53.28
459.227	33.71
459.437	88.93
459.647	89.7
459.857	101.14
460.068	55.61
460.278	95.13
460.488	78.08
460.698	148.22
460.908	84.28
461.117	33.52
461.327	59.67
461.537	78.66
461.747	57.74
461.957	80.99
462.167	153.25
462.377	101.52
462.587	65.87
462.797	109.47
463.007	61.03
463.216	101.33
463.426	117.8
463.636	89.7
463.846	9.49
464.056	37.59
464.265	117.02
464.475	46.5
464.685	72.46
464.895	106.56
465.104	78.47
465.314	89.9
465.524	97.65
465.733	42.24
465.943	126.9
466.153	155.19
466.362	109.85
466.572	88.35
466.782	61.42
466.991	60.45
467.201	138.72
467.41	29.84
467.62	88.93
467.829	79.63
468.039	84.67
468.249	77.11
468.458	72.46
468.668	98.42
468.877	97.45
469.086	119.15
469.296	103.07
469.505	59.29
469.715	164.88
469.924	91.45
470.134	106.95
470.343	130.78
470.552	73.43
470.762	69.17
470.971	54.06
471.18	107.92
471.39	89.9
471.599	65.68
471.808	120.12
472.018	49.02
472.227	92.8
472.436	95.9
472.645	80.02
472.855	42.43
473.064	117.22
473.273	68.01
473.482	126.52
473.691	135.82
473.901	144.54
474.11	84.67
474.319	164.3
474.528	89.51
474.737	142.99
474.946	106.95
475.155	68.78
475.364	109.08
475.573	99.97
475.783	85.64
475.992	115.67
476.201	126.32
476.41	86.61
476.619	59.09
476.828	94.94
477.037	97.45
477.245	82.15
477.454	134.07
477.663	90.29
477.872	72.07
478.081	127.49
478.29	68.97
478.499	163.72
478.708	79.82
478.917	131.94
479.125	101.14
479.334	126.52
479.543	73.24
479.752	112.95
479.961	74.59
480.169	137.17
480.378	78.08
480.587	199.17
480.796	117.8
481.004	99
481.213	113.92
481.422	135.24
481.63	102.3
481.839	128.07
482.048	159.26
482.256	87.77
482.465	111.21
482.674	139.11
482.882	133.69
483.091	158.68
483.299	136.79
483.508	134.27
483.716	102.1
483.925	116.44
484.134	93.19
484.342	88.15
484.551	152.29
484.759	130.59
484.967	114.7
485.176	146.67
485.384	142.99
485.593	153.84
485.801	126.32
486.01	139.11
486.218	116.44
486.426	110.24
486.635	137.56
486.843	135.82
487.051	147.05
487.26	116.25
487.468	152.87
487.676	162.94
487.885	115.47
488.093	119.93
488.301	116.25
488.509	127.29
488.717	158.87
488.926	151.51
489.134	95.13
489.342	146.67
489.55	73.43
489.758	141.63
489.967	72.46
490.175	208.86
490.383	97.84
490.591	150.35
490.799	66.84
491.007	188.52
491.215	132.52
491.423	125.16
491.631	118.96
491.839	133.69
492.047	172.82
492.255	130.59
492.463	79.44
492.671	128.65
492.879	179.22
493.087	143.57
493.295	150.54
493.503	135.24
493.711	128.65
493.919	154.03
494.127	201.69
494.334	167.4
494.542	126.13
494.75	118.38
494.958	144.15
495.166	160.81
495.374	171.85
495.581	148.41
495.789	123.22
495.997	181.93
496.205	143.57
496.412	124
496.62	94.55
496.828	160.81
497.035	144.54
497.243	176.7
497.451	132.72
497.658	146.67
497.866	145.5
498.074	184.25
498.281	140.08
498.489	221.26
498.696	179.6
498.904	143.76
499.112	132.91
499.319	222.81
499.527	145.7
499.734	210.6
499.942	117.02
500.149	137.56
500.357	148.41
500.564	124.39
500.771	169.53
500.979	137.56
501.186	139.3
501.394	178.44
501.601	184.45
501.808	177.08
502.016	163.72
502.223	200.14
502.43	169.14
502.638	151.12
502.845	132.91
503.052	211.38
503.26	148.8
503.467	238.89
503.674	144.15
503.881	186.19
504.089	244.51
504.296	191.62
504.503	142.99
504.71	186
504.917	124.97
505.125	198.78
505.332	154.42
505.539	178.25
505.746	211.77
505.953	191.03
506.16	181.35
506.367	225.72
506.574	221.26
506.781	193.55
506.988	135.04
507.195	183.87
507.402	172.24
507.609	208.08
507.816	153.84
508.023	170.3
508.23	168.37
508.437	146.67
508.644	210.99
508.851	254.39
509.058	200.53
509.265	170.5
509.472	234.43
509.679	268.53
509.885	173.02
510.092	168.37
510.299	192.39
510.506	199.37
510.713	187.16
510.92	187.16
511.126	205.37
511.333	210.22
511.54	230.56
511.746	274.93
511.953	209.25
512.16	252.07
512.367	192.39
512.573	169.72
512.78	210.99
512.987	211.77
513.193	231.33
513.4	144.92
513.606	209.25
513.813	202.85
514.02	215.64
514.226	288.1
514.433	254.39
514.639	189.29
514.846	220.29
515.052	207.31
515.259	193.17
515.465	223.39
515.672	181.15
515.878	290.43
516.085	189.48
516.291	225.33
516.497	166.82
516.704	183.87
516.91	171.27
517.117	163.14
517.323	157.32
517.529	190.26
517.736	189.87
517.942	233.08
518.148	202.47
518.354	225.33
518.561	227.65
518.767	245.87
518.973	268.15
519.179	255.75
519.386	214.28
519.592	195.88
519.798	201.88
520.004	235.21
520.21	204.02
520.417	232.5
520.623	243.93
520.829	242.18
521.035	203.82
521.241	218.35
521.447	247.03
521.653	311.35
521.859	221.45
522.065	222.03
522.271	334.02
522.477	295.46
522.683	295.46
522.889	259.43
523.095	280.55
523.301	264.66
523.507	225.72
523.713	283.84
523.919	234.24
524.125	304.38
524.331	217.77
524.537	311.93
524.742	259.23
524.948	302.63
525.154	264.08
525.36	378.39
525.566	277.83
525.772	331.7
525.977	229.98
526.183	277.64
526.389	304.18
526.595	276.86
526.8	283.84
527.006	264.27
527.212	264.08
527.417	238.5
527.623	234.63
527.829	301.66
528.034	291.01
528.24	265.63
528.446	252.07
528.651	290.23
528.857	280.35
529.062	350.1
529.268	262.53
529.473	271.25
529.679	239.28
529.884	327.24
530.09	312.71
530.295	361.34
530.501	319.3
530.706	299.73
530.912	239.47
531.117	297.6
531.323	303.02
531.528	302.25
531.733	291.01
531.939	282.1
532.144	306.31
532.35	318.13
532.555	360.95
532.76	333.63
532.966	339.06
533.171	323.56
533.376	310.38
533.581	302.25
533.787	311.74
533.992	333.83
534.197	349.52
534.402	319.3
534.607	330.53
534.813	399.12
535.018	300.5
535.223	253.23
535.428	323.75
535.633	327.43
535.838	343.9
536.043	335.57
536.249	384.39
536.454	327.05
536.659	324.14
536.864	302.25
537.069	322.59
537.274	347
537.479	361.53
537.684	345.06
537.889	308.45
538.094	427.02
538.299	343.9
538.504	333.05
538.708	356.11
538.913	360.18
539.118	310.19
539.323	349.52
539.528	326.46
539.733	345.45
539.938	353.59
540.142	373.35
540.347	335.18
540.552	321.43
540.757	366.18
540.962	317.16
541.166	324.91
541.371	314.26
541.576	347.39
541.781	246.83
541.985	348.36
542.19	339.45
542.395	363.66
542.599	417.72
542.804	400.28
543.008	391.95
543.213	317.75
543.418	329.37
543.622	352.23
543.827	303.8
544.031	395.24
544.236	412.29
544.44	317.16
544.645	412.29
544.849	344.68
545.054	399.51
545.258	452.4
545.463	399.7
545.667	322.01
545.872	376.64
546.076	360.76
546.281	343.9
546.485	355.72
546.689	361.73
546.894	390.01
547.098	356.49
547.302	342.16
547.507	355.33
547.711	358.43
547.915	435.93
548.119	360.18
548.324	366.96
548.528	437.09
548.732	357.66
548.936	408.23
549.141	378.97
549.345	338.09
549.549	364.05
549.753	355.53
549.957	416.56
550.161	424.31
550.366	358.24
550.57	337.31
550.774	349.71
550.978	363.08
551.182	415.2
551.386	357.27
551.59	345.26
551.794	332.28
551.998	411.71
552.202	362.69
552.406	335.96
552.61	357.46
552.814	373.16
553.018	431.67
553.222	344.68
553.426	375.68
553.63	443.29
553.833	361.73
554.037	323.17
554.241	398.93
554.445	386.14
554.649	378.78
554.853	341.38
555.056	412.49
555.26	401.25
555.464	407.06
555.668	359.21
555.871	424.11
556.075	381.68
556.279	373.54
556.483	342.35
556.686	364.63
556.89	372.19
557.094	411.13
557.297	346.81
557.501	424.31
557.704	328.21
557.908	416.36
558.112	361.53
558.315	445.23
558.519	372.19
558.722	394.28
558.926	367.34
559.129	317.16
559.333	297.4
559.536	341
559.74	334.02
559.943	357.08
560.147	332.66
560.35	375.09
560.553	333.44
560.757	324.33
560.96	413.07
561.164	309.61
561.367	426.05
561.57	359.01
561.774	353.78
561.977	349.71
562.18	321.23
562.384	436.51
562.587	357.27
562.79	347.97
562.993	365.79
563.197	410.16
563.4	430.89
563.603	399.89
563.806	465.77
564.009	328.6
564.212	376.45
564.416	312.32
564.619	393.11
564.822	349.13
565.025	399.89
565.228	360.56
565.431	362.31
565.634	254
565.837	347.78
566.04	340.03
566.243	317.36
566.446	280.16
566.649	362.89
566.852	313.68
567.055	350.49
567.258	415.01
567.461	381.49
567.664	390.79
567.867	268.15
568.07	386.33
568.273	364.05
568.475	365.41
568.678	366.38
568.881	382.46
569.084	399.7
569.287	295.85
569.489	295.66
569.692	355.33
569.895	374.71
570.098	306.31
570.3	285.2
570.503	242.38
570.706	311.74
570.909	317.16
571.111	299.53
571.314	272.99
571.516	300.89
571.719	338.09
571.922	304.18
572.124	309.61
572.327	324.72
572.529	237.73
572.732	276.28
572.935	284.81
573.137	371.03
573.34	298.56
573.542	341.96
573.745	310.38
573.947	300.31
574.15	283.06
574.352	295.46
574.554	354.75
574.757	267.37
574.959	302.83
575.162	280.16
575.364	295.08
575.566	378.78
575.769	290.62
575.971	313.1
576.173	241.6
576.376	301.28
576.578	332.66
576.78	351.65
576.982	253.62
577.185	276.28
577.387	268.53
577.589	273.18
577.791	313.68
577.993	322.98
578.196	260.2
578.398	310.58
578.6	316.97
578.802	246.64
579.004	298.56
579.206	235.02
579.408	316.2
579.61	276.86
579.812	293.91
580.014	288.68
580.216	269.7
580.418	247.8
580.62	237.92
580.822	229.59
581.024	253.62
581.226	308.45
581.428	239.08
581.63	326.08
581.832	252.45
582.034	311.35
582.236	262.14
582.438	296.24
582.64	317.94
582.841	337.51
583.043	366.76
583.245	293.33
583.447	290.62
583.649	272.21
583.85	265.63
584.052	320.07
584.254	259.62
584.456	319.3
584.657	228.43
584.859	269.7
585.061	298.37
585.262	270.66
585.464	254.97
585.666	289.85
585.867	283.84
586.069	339.83
586.27	314.84
586.472	299.34
586.674	252.26
586.875	272.02
587.077	221.26
587.278	287.71
587.48	246.83
587.681	363.28
587.883	272.41
588.084	243.35
588.285	246.64
588.487	288.68
588.688	281.13
588.89	277.25
589.091	246.25
589.292	270.08
589.494	273.96
589.695	255.36
589.896	213.12
590.098	229.4
590.299	270.47
590.5	207.7
590.702	240.44
590.903	234.43
591.104	287.13
591.305	251.68
591.507	336.54
591.708	286.16
591.909	251.48
592.11	338.48
592.311	283.06
592.512	263.88
592.714	220.87
592.915	247.61
593.116	264.46
593.317	250.32
593.518	224.17
593.719	242.38
593.92	276.86
594.121	313.68
594.322	252.26
594.523	258.46
594.724	232.11
594.925	253.81
595.126	266.79
595.327	261.56
595.528	280.93
595.729	278.61
595.929	264.08
596.13	274.15
596.331	274.93
596.532	254.2
596.733	293.33
596.934	292.56
597.135	279.58
597.335	270.66
597.536	239.67
597.737	274.73
597.938	239.28
598.138	273.57
598.339	267.18
598.54	295.27
598.74	303.21
598.941	289.26
599.142	309.41
599.342	279.77
599.543	241.22
599.744	239.47
599.944	230.17
600.145	235.79
600.345	255.55
600.546	332.66
600.746	310.19
600.947	323.36
601.147	282.68
601.348	311.74
601.548	253.62
601.749	310.58
601.949	227.65
602.15	221.07
602.35	255.75
602.551	303.6
602.751	243.15
602.951	249.35
603.152	205.18
603.352	271.63
603.552	238.5
603.753	278.41
603.953	289.85
604.153	255.55
604.354	238.7
604.554	230.56
604.754	268.73
604.954	217.19
605.155	277.83
605.355	268.53
605.555	283.65
605.755	337.9
605.955	273.18
606.155	275.9
606.356	260.78
606.556	298.37
606.756	310.19
606.956	222.03
607.156	324.72
607.356	242.38
607.556	300.31
607.756	272.6
607.956	330.15
608.156	289.46
608.356	233.27
608.556	278.61
608.756	243.54
608.956	223.2
609.156	261.17
609.356	228.82
609.556	233.27
609.755	285.78
609.955	209.05
610.155	278.61
610.355	271.63
610.555	233.27
610.755	277.83
610.954	212.35
611.154	254
611.354	303.8
611.554	237.15
611.753	260.01
611.953	225.91
612.153	265.63
612.352	284.23
612.552	234.43
612.752	192.39
612.951	256.52
613.151	267.95
613.351	217.38
613.55	244.9
613.75	258.46
613.949	253.03
614.149	252.45
614.348	244.12
614.548	217.38
614.747	209.05
614.947	209.83
615.146	202.27
615.346	275.9
615.545	240.83
615.745	239.86
615.944	270.47
616.144	251.29
616.343	261.17
616.542	228.43
616.742	246.64
616.941	254.97
617.14	216.61
617.34	229.59
617.539	216.8
617.738	208.67
617.938	281.32
618.137	221.84
618.336	193.75
618.535	250.13
618.734	205.37
618.934	242.18
619.133	235.21
619.332	266.4
619.531	191.81
619.73	225.72
619.929	281.32
620.128	248.77
620.328	304.57
620.527	217.77
620.726	196.07
620.925	231.92
621.124	211.57
621.323	266.21
621.522	221.07
621.721	197.23
621.92	214.09
622.119	240.83
622.318	208.28
622.517	243.35
622.715	229.98
622.914	178.83
623.113	208.28
623.312	202.66
623.511	251.29
623.71	230.75
623.909	207.31
624.107	277.25
624.306	214.48
624.505	184.06
624.704	190.07
624.902	220.87
625.101	286.75
625.3	241.6
625.499	211.57
625.697	212.35
625.896	217.38
626.095	271.25
626.293	193.55
626.492	211.96
626.69	240.44
626.889	173.4
627.088	248.77
627.286	184.45
627.485	203.24
627.683	196.27
627.882	232.5
628.08	167.79
628.279	228.23
628.477	295.27
628.676	209.25
628.874	243.73
629.073	202.27
629.271	174.18
629.469	226.68
629.668	182.12
629.866	192.97
630.065	214.67
630.263	255.17
630.461	196.46
630.66	200.53
630.858	227.46
631.056	250.13
631.254	235.98
631.453	182.9
631.651	245.09
631.849	216.61
632.047	204.79
632.245	215.45
632.444	234.24
632.642	216.03
632.84	215.06
633.038	184.83
633.236	165.46
633.434	170.5
633.632	174.95
633.83	189.87
634.028	222.03
634.227	207.89
634.425	252.26
634.623	225.72
634.821	235.21
635.019	211.38
635.216	193.94
635.414	205.18
635.612	214.87
635.81	196.85
636.008	261.56
636.206	184.06
636.404	217.97
636.602	144.34
636.8	206.73
636.997	229.78
637.195	241.02
637.393	212.54
637.591	277.25
637.789	221.65
637.986	186.58
638.184	206.53
638.382	248.77
638.58	236.37
638.777	231.72
638.975	246.64
639.173	183.09
639.37	210.99
639.568	225.91
639.765	237.73
639.963	207.7
640.161	248.19
640.358	247.42
640.556	183.48
640.753	171.85
640.951	153.25
641.148	209.05
641.346	195.88
641.543	195.1
641.741	233.27
641.938	186.58
642.136	215.83
642.333	185.22
642.531	259.43
642.728	253.42
642.925	225.33
643.123	199.17
643.32	221.07
643.517	177.67
643.715	215.25
643.912	185.03
644.109	227.07
644.306	201.69
644.504	185.8
644.701	202.27
644.898	222.23
645.095	171.27
645.293	193.36
645.49	219.32
645.687	230.17
645.884	242.96
646.081	167.59
646.278	205.76
646.475	194.72
646.672	177.08
646.87	218.93
647.067	213.12
647.264	236.57
647.461	197.04
647.658	158.68
647.855	233.66
648.052	192
648.249	105.79
648.446	198.59
648.642	191.42
648.839	187.16
649.036	155
649.233	150.35
649.43	140.47
649.627	130.97
649.824	161.78
650.021	153.45
650.217	163.14
650.414	177.67
650.611	213.51
650.808	204.4
651.004	190.84
651.201	211.18
651.398	238.12
651.595	193.55
651.791	171.85
651.988	222.23
652.185	162.55
652.381	216.61
652.578	142.79
652.775	147.83
652.971	162.17
653.168	177.86
653.364	210.99
653.561	120.12
653.757	171.08
653.954	182.51
654.15	148.99
654.347	235.02
654.543	175.53
654.74	127.87
654.936	155
655.133	147.44
655.329	210.41
655.525	168.56
655.722	210.41
655.918	151.51
656.115	209.44
656.311	157.71
656.507	120.9
656.704	98.23
656.9	128.26
657.096	128.26
657.292	190.07
657.489	176.5
657.685	208.47
657.881	163.33
658.077	158.29
658.273	167.98
658.47	237.34
658.666	168.56
658.862	207.31
659.058	173.79
659.254	205.95
659.45	135.82
659.646	139.5
659.842	135.62
660.038	200.14
660.234	142.21
660.43	151.7
660.626	215.83
660.822	208.47
661.018	209.63
661.214	177.47
661.41	129.04
661.606	161.97
661.802	193.17
661.998	173.21
662.194	118.19
662.39	182.51
662.586	154.42
662.781	195.68
662.977	189.68
663.173	214.87
663.369	182.51
663.564	172.24
663.76	200.53
663.956	178.44
664.152	223.39
664.347	123.61
664.543	154.61
664.739	136.2
664.934	114.12
665.13	136.4
665.326	234.24
665.521	162.75
665.717	144.15
665.912	129.42
666.108	98.62
666.304	150.74
666.499	162.75
666.695	74.21
666.89	154.03
667.086	198.4
667.281	169.92
667.477	215.06
667.672	177.86
667.867	177.47
668.063	174.76
668.258	132.72
668.454	156.94
668.649	231.53
668.844	165.27
669.04	177.08
669.235	140.08
669.43	142.21
669.626	126.32
669.821	140.47
670.016	137.56
670.211	165.27
670.407	112.18
670.602	163.52
670.797	170.5
670.992	231.72
671.187	127.29
671.382	222.81
671.578	151.51
671.773	174.57
671.968	152.67
672.163	178.44
672.358	184.06
672.553	145.89
672.748	138.72
672.943	255.55
673.138	171.66
673.333	221.65
673.528	133.69
673.723	184.25
673.918	142.6
674.113	110.05
674.308	238.31
674.503	160.23
674.698	186.38
674.892	177.86
675.087	183.87
675.282	175.34
675.477	137.75
675.672	190.65
675.867	146.09
676.061	135.62
676.256	128.26
676.451	145.12
676.646	149.38
676.84	119.54
677.035	122.64
677.23	112.18
677.424	169.92
677.619	184.45
677.814	195.88
678.008	200.14
678.203	96.87
678.397	126.71
678.592	183.09
678.787	226.88
678.981	118.57
679.176	156.16
679.37	163.52
679.565	126.9
679.759	166.04
679.954	163.33
680.148	213.32
680.342	188.52
680.537	176.31
680.731	140.85
680.926	182.7
681.12	173.79
681.314	131.36
681.509	141.82
681.703	138.72
681.897	174.57
682.092	144.15
682.286	133.3
682.48	227.07
682.674	207.12
682.869	136.4
683.063	137.37
683.257	219.71
683.451	109.85
683.645	171.85
683.839	165.27
684.034	138.53
684.228	150.93
684.422	112.76
684.616	126.32
684.81	179.99
685.004	152.67
685.198	125.94
685.392	181.93
685.586	144.73
685.78	169.53
685.974	179.99
686.168	164.1
686.362	211.57
686.556	142.21
686.75	116.05
686.944	136.59
687.138	200.33
687.331	115.28
687.525	146.28
687.719	88.93
687.913	138.72
688.107	154.42
688.301	117.8
688.494	173.99
688.688	113.73
688.882	101.72
689.076	69.75
689.269	156.94
689.463	203.43
689.657	113.15
689.85	124.19
690.044	122.25
690.238	129.04
690.431	136.4
690.625	112.95
690.818	133.49
691.012	148.8
691.205	143.57
691.399	99.97
691.593	142.6
691.786	201.5
691.98	188.9
692.173	209.44
692.366	162.75
692.56	169.53
692.753	206.53
692.947	111.99
693.14	201.3
693.333	200.72
693.527	104.43
693.72	166.43
693.914	124.77
694.107	157.13
694.3	171.47
694.493	156.16
694.687	187.35
694.88	130.59
695.073	226.49
695.266	189.48
695.46	158.87
695.653	194.72
695.846	211.96
696.039	136.98
696.232	166.82
696.425	194.72
696.618	182.51
696.812	154.61
697.005	221.45
697.198	288.3
697.391	196.07
697.584	207.31
697.777	231.92
697.97	212.73
698.163	204.21
698.356	188.32
698.549	300.31
698.742	260.78
698.935	229.01
699.127	248.97
699.32	209.05
699.513	241.6
699.706	254.97
699.899	258.85
700.092	235.6
700.285	243.54
700.477	198.4
700.67	229.2
700.863	259.43
701.056	341.96
701.248	295.66
701.441	279.77
701.634	248.38
701.826	369.86
702.019	242.38
702.212	276.28
702.404	241.02
702.597	218.35
702.79	265.43
702.982	259.23
703.175	322.78
703.367	316.39
703.56	318.71
703.752	363.28
703.945	302.83
704.137	329.95
704.33	336.15
704.522	317.55
704.715	311.93
704.907	369.48
705.1	362.31
705.292	348.55
705.484	341.19
705.677	355.91
705.869	350.1
706.061	390.79
706.254	426.44
706.446	380.52
706.638	351.26
706.831	417.72
707.023	370.44
707.215	440.58
707.407	426.05
707.599	436.9
707.792	414.43
707.984	424.11
708.176	449.49
708.368	401.44
708.56	425.47
708.752	423.53
708.944	425.28
709.136	415.78
709.329	427.99
709.521	535.71
709.713	495.61
709.905	454.34
710.097	486.31
710.289	440.97
710.481	496.38
710.672	489.99
710.864	490.18
711.056	529.9
711.248	525.83
711.44	503.94
711.632	499.29
711.824	520.6
712.016	568.26
712.207	536.29
712.399	536.87
712.591	601.2
712.783	554.7
712.975	554.5
713.166	523.31
713.358	568.07
713.55	631.81
713.741	606.82
713.933	600.23
714.125	571.17
714.316	578.34
714.508	642.85
714.7	628.71
714.891	596.94
715.083	664.17
715.274	628.71
715.466	619.8
715.657	654.28
715.849	553.73
716.04	639.95
716.232	549.47
716.423	650.8
716.615	609.53
716.806	613.4
716.998	598.49
717.189	593.45
717.381	536.68
717.572	566.71
717.763	585.31
717.955	556.25
718.146	557.6
718.337	543.07
718.528	512.85
718.72	462.28
718.911	557.41
719.102	521.18
719.293	551.79
719.485	538.23
719.676	552.57
719.867	492.31
720.058	525.64
720.249	530.09
720.44	527.19
720.632	567.49
720.823	607.01
721.014	637.04
721.205	586.67
721.396	630.26
721.587	682.38
721.778	671.53
721.969	711.44
722.16	726.36
722.351	665.52
722.542	819.94
722.733	793.59
722.924	706.4
723.115	790.88
723.305	786.03
723.496	772.66
723.687	717.45
723.878	731.59
724.069	778.28
724.26	770.53
724.45	719.19
724.641	719.58
724.832	772.66
725.023	769.76
725.213	731.4
725.404	740.7
725.595	720.74
725.785	694
725.976	766.85
726.167	749.22
726.357	750
726.548	842.99
726.739	782.74
726.929	804.63
727.12	839.12
727.31	868.76
727.501	796.11
727.691	830.79
727.882	827.11
728.072	844.16
728.263	837.18
728.453	871.86
728.644	836.6
728.834	875.93
729.024	849.19
729.215	823.62
729.405	868.18
729.596	897.24
729.786	920.49
729.976	915.07
730.167	954.21
730.357	862.37
730.547	891.04
730.737	948.39
730.928	937.54
731.118	1010.2
731.308	921.07
731.498	938.12
731.688	1013.3
731.879	999.15
732.069	1006.9
732.259	1021.44
732.449	1015.82
732.639	1075.1
732.829	1092.54
733.019	1098.55
733.209	1116.95
733.399	1132.45
733.589	1140.78
733.779	1165.97
733.969	1128
734.159	1147.37
734.349	1221.77
734.539	1226.81
734.729	1225.26
734.919	1270.98
735.109	1286.87
735.299	1221.58
735.488	1277.38
735.678	1257.61
735.868	1247.73
736.058	1292.88
736.248	1243.66
736.437	1191.93
736.627	1216.73
736.817	1324.07
737.007	1252.19
737.196	1307.99
737.386	1274.86
737.576	1274.86
737.765	1306.24
737.955	1286.68
738.144	1353.32
738.334	1320.97
738.524	1282.22
738.713	1334.53
738.903	1328.72
739.092	1373.67
739.282	1403.12
739.471	1384.71
739.661	1365.34
739.85	1390.52
740.04	1375.02
740.229	1418.62
740.419	1422.49
740.608	1426.75
740.797	1398.27
740.987	1475
741.176	1435.09
741.365	1407.96
741.555	1414.74
741.744	1438.57
741.933	1458.72
742.123	1464.92
742.312	1470.35
742.501	1542.62
742.69	1508.71
742.88	1425.79
743.069	1553.47
743.258	1461.63
743.447	1513.17
743.636	1498.63
743.825	1452.91
744.014	1482.75
744.204	1489.53
744.393	1481.97
744.582	1526.92
744.771	1568.77
744.96	1492.43
745.149	1535.06
745.338	1492.43
745.527	1525.57
745.716	1519.56
745.905	1532.15
746.094	1511.23
746.283	1533.51
746.471	1557.34
746.66	1601.32
746.849	1559.67
747.038	1629.41
747.227	1541.45
747.416	1588.53
747.604	1534.28
747.793	1545.91
747.982	1578.85
748.171	1518.01
748.359	1595.12
748.548	1612.36
748.737	1569.35
748.926	1563.35
749.114	1505.03
749.303	1567.03
749.491	1564.32
749.68	1507.55
749.869	1592.99
750.057	1581.17
750.246	1536.03
750.434	1532.54
750.623	1574.78
750.811	1574.97
751	1600.93
751.188	1555.4
751.377	1588.15
751.565	1555.6
751.754	1541.26
751.942	1580.4
752.131	1542.23
752.319	1510.84
752.507	1512
752.696	1557.53
752.884	1616.43
753.072	1571.68
753.261	1558.5
753.449	1581.75
753.637	1524.6
753.825	1614.88
754.014	1575.16
754.202	1546.68
754.39	1579.62
754.578	1570.52
754.766	1548.23
754.955	1506.38
755.143	1617.6
755.331	1529.05
755.519	1521.3
755.707	1537.58
755.895	1548.62
756.083	1577.1
756.271	1519.17
756.459	1564.12
756.647	1594.35
756.835	1557.53
757.023	1526.53
757.211	1516.65
757.399	1500.57
757.587	1514.13
757.775	1471.9
757.963	1499.8
758.151	1568.58
758.339	1522.85
758.526	1480.23
758.714	1536.42
758.902	1467.83
759.09	1402.73
759.278	1344.8
759.465	1241.73
759.653	1065.03
759.841	1002.25
760.028	834.08
760.216	728.49
760.404	751.55
760.591	582.79
760.779	472.16
760.967	403.38
761.154	336.73
761.342	402.03
761.529	385.56
761.717	417.72
761.905	383.81
762.092	461.89
762.28	345.84
762.467	400.09
762.655	371.03
762.842	361.14
763.029	356.11
763.217	395.24
763.404	374.13
763.592	407.06
763.779	386.14
763.966	413.84
764.154	410.36
764.341	473.32
764.528	451.04
764.716	479.14
764.903	485.34
765.09	509.75
765.277	544.82
765.465	664.17
765.652	664.94
765.839	685.48
766.026	784.68
766.213	743.6
766.4	832.53
766.588	918.75
766.775	896.86
766.962	973.58
767.149	984.04
767.336	1059.99
767.523	1014.65
767.71	1107.65
767.897	1156.09
768.084	1209.18
768.271	1202.59
768.458	1227.19
768.645	1222.16
768.832	1239.01
769.019	1216.73
769.206	1255.68
769.392	1320
769.579	1407.96
769.766	1388.97
769.953	1332.98
770.14	1390.72
770.327	1326.01
770.513	1389.75
770.7	1461.63
770.887	1336.66
771.073	1393.43
771.26	1385.1
771.447	1343.83
771.634	1360.88
771.82	1473.64
772.007	1370.18
772.193	1369.79
772.38	1419
772.567	1419.97
772.753	1414.16
772.94	1459.3
773.126	1446.13
773.313	1418.04
773.499	1431.79
773.686	1436.64
773.872	1438.38
774.059	1411.06
774.245	1330.85
774.432	1390.52
774.618	1340.92
774.804	1401.57
774.991	1353.32
775.177	1414.55
775.363	1387.81
775.55	1408.35
775.736	1344.61
775.922	1379.67
776.109	1390.72
776.295	1407.77
776.481	1410.48
776.667	1411.45
776.853	1368.05
777.04	1317.09
777.226	1351
777.412	1445.35
777.598	1357.39
777.784	1327.75
777.97	1344.8
778.156	1368.44
778.342	1369.41
778.528	1335.89
778.715	1309.73
778.901	1327.36
779.087	1379.87
779.272	1319.81
779.458	1294.04
779.644	1364.76
779.83	1318.84
780.016	1425.98
780.202	1349.45
780.388	1303.53
780.574	1282.41
780.76	1275.05
780.946	1347.12
781.131	1332.98
781.317	1312.44
781.503	1268.85
781.689	1312.44
781.874	1398.08
782.06	1318.45
782.246	1296.36
782.432	1314.57
782.617	1313.99
782.803	1370.76
782.989	1258.39
783.174	1311.47
783.36	1232.23
783.545	1263.62
783.731	1295.39
783.916	1217.31
784.102	1302.56
784.288	1239.4
784.473	1309.93
784.659	1263.81
784.844	1289.97
785.029	1230.49
785.215	1247.15
785.4	1189.41
785.586	1291.13
785.771	1222.93
785.956	1294.62
786.142	1247.73
786.327	1205.69
786.512	1266.53
786.698	1227.39
786.883	1198.52
787.068	1195.03
787.254	1227.39
787.439	1193.29
787.624	1250.64
787.809	1175.85
787.994	1208.79
788.18	1293.65
788.365	1177.4
788.55	1221
788.735	1174.11
788.92	1201.81
789.105	1208.6
789.29	1212.86
789.475	1172.75
789.66	1187.86
789.845	1171.59
790.03	1153.38
790.215	1186.12
790.4	1219.25
790.585	1236.69
790.77	1180.89
790.955	1098.74
791.14	1153.38
791.325	1226.42
791.51	1084.4
791.695	1146.79
791.879	1122.57
792.064	1100.87
792.249	1191.55
792.434	1157.45
792.618	1145.24
792.803	1155.7
792.988	1125.67
793.173	1124.9
793.357	1174.88
793.542	1109.01
793.727	1139.43
793.911	1177.4
794.096	1104.36
794.281	1159.96
794.465	1218.28
794.65	1161.32
794.834	1148.73
795.019	1215.96
795.203	1183.02
795.388	1189.41
795.572	1206.66
795.757	1148.53
795.941	1171.01
796.126	1173.91
796.31	1123.15
796.494	1186.12
796.679	1087.12
796.863	1113.85
797.048	1196.97
797.232	1214.99
797.416	1162.29
797.601	1143.11
797.785	1201.43
797.969	1192.13
798.153	1131.48
798.338	1171.4
798.522	1194.84
798.706	1177.6
798.89	1182.63
799.074	1256.26
799.258	1189.22
799.443	1174.11
799.627	1169.46
799.811	1212.08
799.995	1172.75
800.179	1154.93
800.363	1139.43
800.547	1148.15
800.731	1203.17
800.915	1096.61
801.099	1172.56
801.283	1170.23
801.467	1173.72
801.651	1146.98
801.835	1215.18
802.019	1185.73
802.202	1190.77
802.386	1145.24
802.57	1128
802.754	1121.8
802.938	1105.13
803.121	1138.65
803.305	1224.09
803.489	1166.36
803.673	1192.32
803.856	1205.5
804.04	1194.84
804.224	1190.58
804.407	1142.14
804.591	1173.14
804.775	1157.64
804.958	1150.28
805.142	1265.56
805.326	1145.43
805.509	1203.95
805.693	1192.32
805.876	1235.33
806.06	1176.82
806.243	1189.22
806.427	1231.26
806.61	1218.28
806.794	1167.52
806.977	1181.66
807.16	1198.33
807.344	1198.52
807.527	1168.3
807.71	1182.05
807.894	1170.62
808.077	1242.5
808.26	1165.39
808.444	1145.63
808.627	1220.22
808.81	1160.93
808.993	1131.48
809.177	1111.92
809.36	1152.6
809.543	1166.55
809.726	1118.31
809.909	1114.82
810.092	1085.37
810.276	1087.31
810.459	1144.08
810.642	1088.08
810.825	1076.46
811.008	1096.22
811.191	1011.94
811.374	1076.85
811.557	1061.93
811.74	1116.76
811.923	991.6
812.106	1017.75
812.289	994.31
812.472	1032.48
812.654	1036.74
812.837	1025.89
813.02	989.47
813.203	962.34
813.386	894.53
813.569	915.84
813.751	891.43
813.934	916.23
814.117	915.07
814.3	884.26
814.482	852.68
814.665	886.59
814.848	889.69
815.03	819.36
815.213	842.22
815.396	828.85
815.578	799.98
815.761	770.15
815.943	858.69
816.126	753.29
816.309	750.96
816.491	721.32
816.674	666.1
816.856	755.81
817.039	708.34
817.221	748.25
817.403	720.74
817.586	757.16
817.768	764.53
817.951	693.62
818.133	708.73
818.315	724.81
818.498	743.99
818.68	796.11
818.862	745.15
819.045	797.08
819.227	757.36
819.409	705.24
819.591	774.6
819.774	724.23
819.956	694.39
820.138	777.51
820.32	756.97
820.502	773.25
820.684	816.84
820.866	845.71
821.048	828.66
821.231	855.2
821.413	834.86
821.595	824.59
821.777	833.11
821.959	796.3
822.141	874.96
822.323	788.36
822.505	778.09
822.686	743.8
822.868	717.83
823.05	690.52
823.232	697.49
823.414	600.23
823.596	675.79
823.778	651.18
823.96	681.6
824.141	650.41
824.323	689.93
824.505	722.1
824.687	742.63
824.868	743.6
825.05	817.61
825.232	820.71
825.413	884.65
825.595	831.37
825.777	776.15
825.958	846.09
826.14	812.96
826.321	847.26
826.503	813.35
826.685	831.76
826.866	833.11
827.048	828.46
827.229	797.66
827.411	810.06
827.592	782.74
827.773	784.87
827.955	728.49
828.136	750
828.318	721.51
828.499	787.19
828.68	728.1
828.862	735.27
829.043	799.21
829.224	758.52
829.406	695.17
829.587	710.86
829.768	713.38
829.949	753.1
830.131	752.32
830.312	788.36
830.493	750.38
830.674	723.65
830.855	732.17
831.036	733.91
831.218	780.41
831.399	806.18
831.58	742.44
831.761	742.05
831.942	757.36
832.123	725.2
832.304	701.95
832.485	707.37
832.666	725.2
832.847	752.32
833.028	762.59
833.209	741.08
833.389	713.57
833.57	674.63
833.751	711.25
833.932	798.43
834.113	748.25
834.294	710.86
834.475	723.45
834.655	754.45
834.836	807.15
835.017	772.86
835.198	696.52
835.378	723.06
835.559	766.85
835.74	748.64
835.92	712.6
836.101	717.83
836.281	768.6
836.462	754.45
836.643	771.11
836.823	801.73
837.004	803.47
837.184	837.38
837.365	800.56
837.545	807.54
837.726	764.14
837.906	838.54
838.087	785.84
838.267	748.64
838.448	736.43
838.628	769.18
838.808	794.94
838.989	841.44
839.169	731.4
839.349	781.58
839.53	777.51
839.71	795.72
839.89	745.93
840.07	825.94
840.251	752.32
840.431	795.53
840.611	775.57
840.791	752.71
840.971	789.13
841.151	774.6
841.332	737.79
841.512	803.08
841.692	706.79
841.872	792.04
842.052	753.68
842.232	790.1
842.412	695.36
842.592	743.21
842.772	774.41
842.952	768.79
843.132	757.36
843.312	723.65
843.492	706.4
843.672	764.91
843.851	714.15
844.031	765.69
844.211	742.05
844.391	728.1
844.571	768.79
844.751	721.9
844.93	735.66
845.11	717.06
845.29	770.92
845.47	756
845.649	731.98
845.829	752.51
846.009	702.72
846.188	773.05
846.368	720.93
846.547	749.41
846.727	781
846.907	698.85
847.086	721.71
847.266	755.61
847.445	721.9
847.625	734.11
847.804	694.2
847.984	725.39
848.163	700.2
848.343	704.08
848.522	749.41
848.701	767.63
848.881	685.67
849.06	731.01
849.239	751.16
849.419	751.16
849.598	688.77
849.777	717.06
849.957	750.38
850.136	616.5
850.315	631.03
850.494	677.53
850.674	654.28
850.853	709.89
851.032	686.06
851.211	731.01
851.39	686.45
851.569	644.02
851.748	634.13
851.927	706.01
852.107	692.65
852.286	661.26
852.465	622.32
852.644	699.04
852.823	699.23
853.002	673.27
853.181	705.43
853.359	718.8
853.538	603.72
853.717	716.09
853.896	628.13
854.075	619.8
854.254	616.12
854.433	567.68
854.611	637.62
854.79	557.41
854.969	626.19
855.148	638.59
855.327	589.96
855.505	615.15
855.684	597.13
855.863	588.8
856.041	578.34
856.22	606.82
856.399	583.57
856.577	654.28
856.756	636.27
856.934	743.8
857.113	732.17
857.291	657.38
857.47	608.17
857.648	645.37
857.827	662.62
858.005	687.61
858.184	614.18
858.362	703.3
858.541	658.35
858.719	647.31
858.898	663.78
859.076	614.37
859.254	685.09
859.433	640.33
859.611	620.38
859.789	613.4
859.967	699.81
860.146	689.35
860.324	588.41
860.502	609.14
860.68	570.39
860.859	633.75
861.037	609.92
861.215	658.93
861.393	630.84
861.571	613.79
861.749	604.3
861.927	658.35
862.105	635.3
862.283	617.67
862.461	591.12
862.639	542.69
862.817	588.6
862.995	618.63
863.173	596.55
863.351	600.04
863.529	608.17
863.707	668.43
863.885	617.86
864.063	540.17
864.241	557.41
864.418	633.55
864.596	588.6
864.774	568.84
864.952	608.37
865.129	622.51
865.307	570.59
865.485	551.79
865.663	643.63
865.84	538.62
866.018	557.8
866.196	494.25
866.373	529.12
866.551	510.72
866.728	491.73
866.906	507.62
867.084	493.67
867.261	558.57
867.439	533.19
867.616	572.91
867.794	533.58
867.971	553.54
868.149	535.32
868.326	576.01
868.503	563.03
868.681	552.37
868.858	537.07
869.035	536.87
869.213	585.31
869.39	530.48
869.567	626
869.745	516.72
869.922	589.19
870.099	598.1
870.276	587.25
870.454	582.99
870.631	583.76
870.808	560.51
870.985	559.54
871.162	610.5
871.339	596.35
871.517	519.05
871.694	521.76
871.871	560.12
872.048	542.49
872.225	520.21
872.402	554.31
872.579	489.41
872.756	576.79
872.933	517.5
873.11	544.04
873.287	546.37
873.463	545.59
873.64	518.08
873.817	569.42
873.994	498.71
874.171	528.93
874.348	536.29
874.524	485.92
874.701	543.27
874.878	487.27
875.055	521.96
875.231	533
875.408	544.62
875.585	472.74
875.762	510.14
875.938	526.41
876.115	495.22
876.291	492.12
876.468	522.73
876.645	461.12
876.821	511.11
876.998	514.98
877.174	506.65
877.351	496.96
877.527	460.34
877.704	534.16
877.88	490.57
878.057	464.61
878.233	534.16
878.409	472.36
878.586	498.71
878.762	497.74
878.938	478.94
879.115	434.58
879.291	487.47
879.467	435.16
879.644	463.44
879.82	500.64
879.996	452.59
880.172	422.56
880.349	455.5
880.525	497.93
880.701	443.29
880.877	442.91
881.053	480.3
881.229	474.87
881.405	499.87
881.581	453.76
881.757	450.85
881.933	479.72
882.109	477.78
882.285	472.36
882.461	420.82
882.637	428.96
882.813	427.41
882.989	440
883.165	517.11
883.341	440.58
883.517	461.31
883.693	476.23
883.869	488.24
884.044	433.8
884.22	487.27
884.396	497.16
884.572	496.57
884.747	499.67
884.923	499.29
885.099	486.89
885.275	490.57
885.45	466.74
885.626	451.04
885.801	456.86
885.977	433.99
886.153	422.56
886.328	483.59
886.504	465.77
886.679	498.32
886.855	452.4
887.03	500.45
887.206	494.44
887.381	495.61
887.557	473.71
887.732	459.18
887.908	492.51
888.083	482.62
888.258	469.26
888.434	458.79
888.609	487.08
888.784	489.21
888.96	432.44
889.135	426.05
889.31	413.84
889.485	447.36
889.661	449.88
889.836	504.32
890.011	453.95
890.186	452.59
890.361	451.82
890.537	472.94
890.712	484.95
890.887	469.84
891.062	464.22
891.237	497.35
891.412	442.13
891.587	459.96
891.762	501.42
891.937	484.37
892.112	421.59
892.287	456.08
892.462	418.69
892.637	378.39
892.812	425.47
892.987	436.9
893.161	402.41
893.336	410.55
893.511	419.85
893.686	425.66
893.861	418.49
894.035	437.87
894.21	421.01
894.385	401.44
894.56	408.23
894.734	377.61
894.909	394.66
895.084	386.72
895.258	386.14
895.433	408.03
895.608	374.13
895.782	353.39
895.957	375.09
896.131	357.66
896.306	311.35
896.48	338.86
896.655	337.12
896.829	283.26
897.004	292.95
897.178	310.96
897.353	301.47
897.527	338.67
897.701	305.93
897.876	278.8
898.05	336.73
898.224	300.31
898.399	376.45
898.573	324.33
898.747	264.08
898.921	299.34
899.096	233.66
899.27	242.77
899.444	250.13
899.618	273.76
899.792	253.03
899.967	253.62
900.141	282.68
900.315	255.94
900.489	268.15
900.663	284.61
900.837	267.18
901.011	228.82
901.185	352.62
901.359	284.42
901.533	283.26
901.707	258.27
901.881	256.91
902.055	216.03
902.229	245.28
902.403	318.91
902.576	276.48
902.75	241.41
902.924	371.61
903.098	291.4
903.272	346.42
903.446	347.39
903.619	316.78
903.793	337.51
903.967	330.15
904.14	352.81
904.314	349.33
904.488	315.03
904.661	358.43
904.835	344.68
905.009	353.2
905.182	417.91
905.356	345.06
905.529	342.74
905.703	311.16
905.876	334.99
906.05	316.78
906.223	307.28
906.397	272.8
906.57	279.38
906.744	273.18
906.917	276.48
907.09	309.61
907.264	295.46
907.437	250.52
907.61	248.38
907.784	269.5
907.957	248.77
908.13	246.64
908.304	282.48
908.477	248.19
908.65	253.42
908.823	223.39
908.996	297.79
909.17	261.17
909.343	253.81
909.516	233.85
909.689	245.28
909.862	237.92
910.035	249.93
910.208	202.85
910.381	217.19
910.554	294.5
910.727	250.9
910.9	219.71
911.073	226.49
911.246	275.12
911.419	283.26
911.592	270.08
911.765	214.48
911.938	215.25
912.11	252.45
912.283	235.02
912.456	279.58
912.629	265.63
912.802	223.58
912.974	208.86
913.147	193.17
913.32	177.47
913.493	206.53
913.665	229.78
913.838	209.05
914.01	198.98
914.183	213.7
914.356	161.2
914.528	229.78
914.701	304.38
914.873	273.38
915.046	228.82
915.218	211.96
915.391	145.5
915.563	163.33
915.736	243.15
915.908	237.34
916.081	220.87
916.253	159.26
916.425	198.01
916.598	221.45
916.77	221.45
916.942	179.02
917.115	130.97
917.287	212.73
917.459	220.68
917.632	185.42
917.804	142.02
917.976	207.89
918.148	192.39
918.32	194.72
918.493	218.16
918.665	242.77
918.837	209.44
919.009	258.65
919.181	245.28
919.353	224.75
919.525	218.74
919.697	221.26
919.869	173.79
920.041	255.55
920.213	310.58
920.385	212.54
920.557	196.27
920.729	216.61
920.901	235.02
921.073	195.88
921.244	207.89
921.416	254.39
921.588	210.99
921.76	189.87
921.932	288.68
922.103	191.42
922.275	187.35
922.447	223.97
922.619	160.04
922.79	178.44
922.962	189.29
923.134	209.44
923.305	180.18
923.477	159.65
923.648	178.44
923.82	176.31
923.991	132.72
924.163	156.94
924.335	171.66
924.506	171.08
924.677	209.63
924.849	160.04
925.02	173.79
925.192	211.18
925.363	175.92
925.535	200.53
925.706	181.93
925.877	254
926.049	148.6
926.22	180.18
926.391	182.9
926.562	229.01
926.734	160.23
926.905	194.72
927.076	150.15
927.247	164.1
927.419	155.77
927.59	154.61
927.761	199.75
927.932	145.12
928.103	166.62
928.274	144.15
928.445	108.89
928.616	141.05
928.787	120.51
928.958	186
929.129	165.46
929.3	137.95
929.471	128.07
929.642	90.09
929.813	24.41
929.984	146.67
930.155	63.74
930.326	122.64
930.496	84.67
930.667	33.13
930.838	97.84
931.009	42.24
931.18	95.52
931.35	83.12
931.521	72.46
931.692	23.06
931.863	5.81
932.033	76.14
932.204	101.33
932.374	60.84
932.545	5.42
932.716	86.8
932.886	86.02
933.057	15.89
933.227	21.51
933.398	140.47
933.568	41.07
933.739	6.2
933.909	-5.42
934.08	73.82
934.25	-39.91
934.421	1.16
934.591	30.61
934.761	3.29
934.932	-31.39
935.102	9.69
935.272	-18.21
935.443	24.02
935.613	6.78
935.783	33.13
935.953	-16.27
936.123	160.04
936.294	-18.41
936.464	-20.73
936.634	29.06
936.804	7.75
936.974	-11.04
937.144	12.59
937.314	9.69
937.484	24.99
937.655	3.29
937.825	62.97
937.995	-10.46
938.165	63.55
938.334	13.76
938.504	7.17
938.674	-8.52
938.844	22.47
939.014	50.18
939.184	26.74
939.354	86.99
939.524	53.67
939.694	22.86
939.863	4.07
940.033	80.99
940.203	84.67
940.373	53.09
940.542	56.38
940.712	38.36
940.882	71.88
941.051	68.97
941.221	73.62
941.391	82.92
941.56	11.43
941.73	4.07
941.899	109.85
942.069	17.44
942.238	61.81
942.408	25.96
942.577	79.63
942.747	41.07
942.916	-25.57
943.086	12.59
943.255	45.34
943.425	40.69
943.594	13.56
943.763	-43.21
943.933	-27.32
944.102	-26.93
944.271	38.17
944.441	36.23
944.61	13.76
944.779	14.92
944.948	108.89
945.117	7.94
945.287	37.78
945.456	-48.24
945.625	2.91
945.794	66.07
945.963	-1.16
946.132	44.76
946.301	43.59
946.47	46.31
946.639	-28.67
946.808	-5.42
946.977	39.52
947.146	49.21
947.315	8.72
947.484	64.52
947.653	-9.49
947.822	8.33
947.991	9.3
948.16	98.81
948.329	64.32
948.498	49.21
948.666	28.09
948.835	49.21
949.004	-20.54
949.173	-23.83
949.341	19.37
949.51	22.86
949.679	80.79
949.847	67.04
950.016	116.25
950.185	93.19
950.353	33.13
950.522	21.51
950.69	37.39
950.859	15.5
951.028	58.71
951.196	37.78
951.365	-2.91
951.533	26.74
951.701	49.79
951.87	42.04
952.038	-4.46
952.207	54.64
952.375	96.68
952.543	28.67
952.712	29.06
952.88	12.4
953.048	77.11
953.217	36.42
953.385	-9.69
953.553	64.71
953.721	-19.76
953.89	11.62
954.058	-7.17
954.226	-14.53
954.394	24.41
954.562	-16.08
954.73	22.47
954.898	36.42
955.067	59.87
955.235	13.37
955.403	82.15
955.571	78.27
955.739	52.89
955.907	1.36
956.075	-7.75
956.243	9.49
956.41	50.76
956.578	-7.17
956.746	-17.44
956.914	15.11
957.082	35.26
957.25	43.01
957.418	-3.87
957.585	32.55
957.753	45.92
957.921	0.19
958.089	30.61
958.256	29.06
958.424	50.18
958.592	25.57
958.759	18.99
958.927	59.87
959.095	10.07
959.262	18.02
959.43	36.04
959.597	-24.61
959.765	31.39
959.932	-34.49
960.1	58.32
960.267	14.14
960.435	31.58
960.602	51.54
960.77	15.69
960.937	-23.25
961.104	17.44
961.272	-26.74
961.439	2.91
961.606	18.02
961.774	57.74
961.941	2.13
962.108	17.05
962.275	20.15
962.443	56.96
962.61	47.66
962.777	82.54
962.944	47.47
963.111	47.47
963.278	43.59
963.446	43.98
963.613	29.84
963.78	37.59
963.947	60.64
964.114	35.07
964.281	90.87
964.448	43.79
964.615	27.32
964.782	69.75
964.949	63.36
965.116	62.19
965.282	71.49
965.449	31.39
965.616	1.94
965.783	51.34
965.95	49.6
966.117	-19.96
966.283	42.62
966.45	22.86
966.617	44.37
966.784	51.73
966.95	65.68
967.117	72.46
967.284	11.04
967.45	18.41
967.617	94.94
967.784	33.91
967.95	82.73
968.117	57.16
968.283	70.52
968.45	135.82
968.616	45.92
968.783	68.2
968.949	50.96
969.116	104.04
969.282	46.31
969.449	45.72
969.615	53.09
969.781	4.46
969.948	43.59
970.114	5.42
970.28	97.65
970.447	36.62
970.613	100.17
970.779	28.87
970.945	44.95
971.112	40.69
971.278	30.22
971.444	24.8
971.61	89.12
971.776	29.26
971.942	75.76
972.108	49.99
972.275	44.17
972.441	68.59
972.607	123.61
972.773	21.7
972.939	39.72
973.105	51.34
973.271	2.13
973.437	19.37
973.602	26.93
973.768	81.76
973.934	34.68
974.1	59.67
974.266	-35.46
974.432	54.44
974.598	11.04
974.763	61.81
974.929	19.96
975.095	109.27
975.261	36.04
975.426	4.07
975.592	26.54
975.758	108.11
975.923	5.23
976.089	23.44
976.255	71.3
976.42	44.95
976.586	47.08
976.751	61.42
976.917	126.9
977.082	73.43
977.248	3.1
977.413	-38.94
977.579	16.86
977.744	38.56
977.91	21.89
978.075	19.76
978.24	54.06
978.406	32.94
978.571	10.46
978.736	2.91
978.902	54.06
979.067	-5.04
979.232	-24.22
979.397	38.36
979.563	118.96
979.728	9.69
979.893	54.64
980.058	15.31
980.223	63.55
980.388	8.33
980.554	49.02
980.719	7.36
980.884	17.24
981.049	62
981.214	49.6
981.379	58.32
981.544	24.8
981.709	-14.53
981.874	34.49
982.039	25.77
982.204	57.35
982.368	46.11
982.533	6.39
982.698	62
982.863	91.06
983.028	21.51
983.193	43.01
983.357	29.64
983.522	68.97
983.687	12.98
983.852	24.41
984.016	23.06
984.181	18.6
984.346	41.85
984.51	69.36
984.675	29.64
984.839	18.6
985.004	25.57
985.168	63.55
985.333	38.17
985.498	39.72
985.662	50.18
985.827	61.03
985.991	41.46
986.155	31.39
986.32	58.51
986.484	101.91
986.649	56.19
986.813	0
986.977	30.03
987.142	45.53
987.306	-8.33
987.47	11.43
987.634	45.14
987.799	14.53
987.963	22.09
988.127	54.44
988.291	108.3
988.455	53.86
988.62	32.16
988.784	80.41
988.948	44.76
989.112	9.88
989.276	25.77
989.44	43.4
989.604	-4.84
989.768	10.66
989.932	120.32
990.096	1.94
990.26	4.65
990.424	-17.44
990.588	24.22
990.752	85.06
990.915	83.89
991.079	14.72
991.243	2.32
991.407	63.16
991.571	38.17
991.734	50.37
991.898	84.47
992.062	125.16
992.226	18.02
992.389	27.12
992.553	-0.97
992.717	14.92
992.88	40.3
993.044	40.88
993.207	12.4
993.371	49.99
993.535	34.68
993.698	32.36
993.862	68.39
994.025	67.23
994.189	56.38
994.352	26.93
994.515	49.02
994.679	100.94
994.842	26.16
995.006	63.74
995.169	8.33
995.332	11.24
995.496	73.24
995.659	-30.81
995.822	35.84
995.985	20.92
996.149	53.67
996.312	52.7
996.475	122.06
996.638	34.87
996.801	72.27
996.964	91.06
997.128	-10.85
997.291	21.51
997.454	37.78
997.617	-4.65
997.78	70.14
997.943	10.85
998.106	75.95
998.269	22.09
998.432	8.52
998.595	20.54
998.758	0.77
998.92	18.02
999.083	-22.28
999.246	-3.1
999.409	5.23
999.572	-24.02
999.735	-5.81
999.897	27.71
1000.06	1.94
1000.223	3.29
1000.386	55.61
1000.548	48.82
1000.711	42.62
1000.874	64.32
1001.036	-12.59
1001.199	67.42
1001.361	0.19
1001.524	31.19
1001.687	75.17
1001.849	-7.36
1002.012	46.89
1002.174	21.7
1002.337	78.66
1002.499	7.94
1002.661	70.72
1002.824	-7.75
1002.986	6.59
1003.149	28.87
1003.311	-10.07
1003.473	59.29
1003.636	5.81
1003.798	34.29
1003.96	65.49
1004.123	6.59
1004.285	2.91
1004.447	12.21
1004.609	33.13
1004.771	81.37
1004.933	-11.04
1005.096	-1.16
1005.258	-18.6
1005.42	31.97
1005.582	47.47
1005.744	5.42
1005.906	-1.16
1006.068	19.96
1006.23	2.52
1006.392	-15.11
1006.554	-17.24
1006.716	49.99
1006.878	31.77
1007.04	-35.26
1007.202	-4.07
1007.363	55.22
1007.525	35.65
1007.687	31.77
1007.849	49.21
1008.011	-14.53
1008.172	-23.44
1008.334	25.38
1008.496	37.59
1008.658	-11.43
1008.819	-14.72
1008.981	-20.54
1009.143	-19.18
1009.304	6.97
1009.466	30.42
1009.627	91.45
1009.789	126.9
1009.95	25.19
1010.112	-6.59
1010.273	31.19
1010.435	18.99
1010.596	23.06
1010.758	11.43
1010.919	12.98
1011.081	-5.04
1011.242	24.61
1011.403	44.76
1011.565	26.93
1011.726	23.44
1011.887	-11.43
1012.049	12.21
1012.21	44.56
1012.371	57.54
1012.532	-32.16
1012.693	17.05
1012.855	-24.02
1013.016	18.02
1013.177	60.26
1013.338	-22.67
1013.499	62.97
1013.66	40.69
1013.821	28.67
1013.982	35.26
1014.143	21.12
1014.304	-18.99
1014.465	43.21
1014.626	40.49
1014.787	1.16
1014.948	118.19
1015.109	-55.22
1015.27	45.34
1015.431	-5.81
1015.592	13.95
1015.752	64.13
1015.913	3.1
1016.074	37.78
1016.235	27.9
1016.395	21.12
1016.556	6.78
1016.717	1.36
1016.877	27.71
1017.038	24.8
1017.199	29.64
1017.359	32.74
1017.52	22.28
1017.681	-7.17
1017.841	32.55
1018.002	22.28
1018.162	-3.87
1018.323	54.25
1018.483	-4.46
1018.644	-10.46
1018.804	-15.89
1018.964	-39.91
1019.125	12.21
1019.285	38.94
1019.446	-18.21
1019.606	-17.63
1019.766	-55.99
1019.926	50.57
1020.087	17.82
1020.247	-4.46
1020.407	34.49
1020.567	48.24
1020.728	11.24
1020.888	-35.65
1021.048	-25.38
1021.208	-6.2
1021.368	-18.02
1021.528	64.32
1021.688	34.68
1021.848	33.32
1022.008	23.25
1022.168	3.87
1022.328	20.15
1022.488	12.21
1022.648	2.91
1022.808	30.03
1022.968	23.64
1023.128	-27.9
1023.288	-22.09
1023.448	-23.06
1023.608	35.84
1023.767	53.09
1023.927	10.27
1024.087	-13.76
1024.247	-38.94
1024.406	-17.05
1024.566	-54.64
1024.726	-5.42
1024.885	33.91
1025.045	11.82
1025.205	12.21
1025.364	-16.47
1025.524	17.44
1025.683	29.64
1025.843	8.14
1026.003	1.36
1026.162	68.39
1026.321	40.11
1026.481	19.57
1026.64	-15.31
1026.8	15.69
1026.959	3.29
1027.119	15.31
1027.278	-11.62
1027.437	-35.26
1027.597	15.11
1027.756	7.94
1027.915	24.61
1028.074	24.99
1028.234	-20.34
1028.393	21.89
1028.552	-11.04
1028.711	-62.58
1028.87	15.89
1029.03	-34.29
1029.189	-11.24
1029.348	-73.82
1029.507	-15.31
1029.666	-4.65
1029.825	-30.42
1029.984	-19.76
1030.143	3.1
1030.302	2.71
1030.461	-52.7
1030.62	1.94
1030.779	40.88
1030.938	-19.57
1031.097	-19.18
1031.255	30.81
1031.414	45.92
1031.573	40.88
1031.732	-36.42
1031.891	-0.77
1032.049	51.54
1032.208	12.4
1032.367	-13.37
1032.525	-9.69
1032.684	16.08
1032.843	9.88
1033.001	-43.01
1033.16	153.45
1033.319	59.29
1033.477	30.81
1033.636	-0.39
1033.794	-35.84
1033.953	33.32
1034.111	38.36
1034.27	-19.18
1034.428	28.48
1034.587	-21.89
1034.745	15.11
1034.903	25.57
1035.062	21.7
1035.22	-31.97
1035.378	18.41
1035.537	6.39
1035.695	26.74
1035.853	13.37
1036.011	35.65
1036.17	-5.62
1036.328	-48.05
1036.486	-1.16
1036.644	7.17
1036.802	-75.37
1036.96	-36.62
1037.119	-14.34
1037.277	-31.58
1037.435	-30.81
1037.593	-31.39
1037.751	0.77
1037.909	42.04
1038.067	42.04
