Data from pine_FLMT105791__194__17-23-48-072.txt Node

Date: Mon Mar 20 17:23:48 GMT 2023
User: antho
Spectrometer: FLMT10579
Trigger mode: 0
Integration Time (sec): 1.000000E-1
Scans to average: 10
Electric dark correction enabled: true
Nonlinearity correction enabled: false
Boxcar width: 0
XAxis mode: Wavelengths
Number of Pixels in Spectrum: 3648
>>>>>Begin Spectral Data<<<<<
345.248	-175.12
345.464	-175.12
345.681	-175.12
345.898	-163.68
346.114	-169.69
346.331	-27.87
346.548	38.01
346.764	-30.58
346.981	16.69
347.197	-29.03
347.414	-0.36
347.631	-17.79
347.847	54.86
348.064	14.37
348.28	19.6
348.497	-53.44
348.713	15.53
348.93	25.8
349.146	20.76
349.363	-20.12
349.579	7.98
349.796	1.39
350.012	-12.37
350.229	19.21
350.445	17.28
350.661	-32.13
350.878	-14.89
351.094	49.05
351.311	6.62
351.527	2.16
351.743	-23.8
351.96	30.45
352.176	47.11
352.392	19.99
352.609	28.32
352.825	-7.52
353.041	10.11
353.257	-32.13
353.474	-6.36
353.69	23.48
353.906	3.52
354.122	-31.55
354.339	48.66
354.555	-18.76
354.771	-5.2
354.987	69.2
355.203	50.99
355.42	-11.4
355.636	-12.56
355.852	-6.75
356.068	-9.46
356.284	-36.97
356.5	53.7
356.716	14.76
356.932	-14.11
357.148	4.88
357.364	-17.4
357.58	33.94
357.796	29.48
358.012	32
358.228	53.7
358.444	-74.37
358.66	44.4
358.876	-9.85
359.092	9.14
359.308	-8.88
359.524	10.69
359.74	-38.91
359.956	-22.25
360.172	2.55
360.388	53.7
360.604	-24.96
360.819	78.89
361.035	29.68
361.251	20.38
361.467	-30.19
361.683	45.95
361.898	-3.65
362.114	32.39
362.33	14.95
362.546	41.49
362.762	5.84
362.977	-3.65
363.193	-52.09
363.409	18.44
363.624	-24.96
363.84	-4.62
364.056	-1.91
364.271	23.09
364.487	-2.1
364.703	5.07
364.918	-12.17
365.134	-4.81
365.35	4.49
365.565	80.05
365.781	23.09
365.996	16.5
366.212	59.32
366.427	20.38
366.643	7.59
366.858	-14.31
367.074	-23.8
367.289	32.97
367.505	100.78
367.72	-52.09
367.936	-25.93
368.151	32.19
368.367	30.06
368.582	15.53
368.798	-0.36
369.013	40.14
369.228	9.33
369.444	-12.17
369.659	44.4
369.874	37.04
370.09	71.72
370.305	-52.09
370.52	-0.16
370.736	50.6
370.951	-11.98
371.166	57.19
371.381	70.36
371.597	21.54
371.812	-47.05
372.027	-34.45
372.242	-14.5
372.458	61.84
372.673	-17.21
372.888	-23.41
373.103	19.21
373.318	78.89
373.533	19.6
373.749	-0.16
373.964	-28.45
374.179	48.47
374.394	6.43
374.609	53.89
374.824	-38.72
375.039	52.54
375.254	-10.24
375.469	59.32
375.684	29.48
375.899	50.21
376.114	3.33
376.329	39.17
376.544	35.1
376.759	59.71
376.974	13.4
377.189	-18.37
377.404	1.19
377.619	41.3
377.834	-17.99
378.049	-40.07
378.264	-46.66
378.478	11.85
378.693	2.55
378.908	13.59
379.123	-1.32
379.338	43.43
379.553	14.56
379.767	10.3
379.982	14.76
380.197	21.54
380.412	23.67
380.626	21.54
380.841	77.92
381.056	28.13
381.271	37.81
381.485	-13.14
381.7	-30.58
381.915	28.13
382.129	25.8
382.344	6.81
382.559	-4.42
382.773	58.16
382.988	-43.56
383.202	27.74
383.417	-1.32
383.632	96.13
383.846	19.6
384.061	5.07
384.275	4.29
384.49	21.15
384.704	16.11
384.919	26.58
385.133	7.78
385.348	17.86
385.562	-35.62
385.777	38.01
385.991	-15.27
386.206	-30.39
386.42	-8.88
386.634	60.29
386.849	13.98
387.063	14.76
387.277	-23.8
387.492	-18.95
387.706	-18.37
387.92	-29.61
388.135	30.64
388.349	19.41
388.563	-5.2
388.778	-5.01
388.992	45.56
389.206	38.59
389.42	84.12
389.635	18.63
389.849	41.11
390.063	51.18
390.277	-1.52
390.491	63.39
390.706	12.43
390.92	41.88
391.134	-7.91
391.348	22.31
391.562	-44.92
391.776	17.28
391.99	-31.94
392.205	41.3
392.419	-44.53
392.633	2.55
392.847	52.15
393.061	-22.83
393.275	68.43
393.489	24.25
393.703	40.72
393.917	77.72
394.131	11.85
394.345	49.24
394.559	51.57
394.773	-5.97
394.986	30.84
395.2	13.98
395.414	25.41
395.628	-28.06
395.842	32.39
396.056	-15.47
396.27	-54.8
396.484	12.24
396.697	14.18
396.911	57.77
397.125	53.12
397.339	42.85
397.553	53.31
397.766	101.75
397.98	46.34
398.194	50.21
398.408	-2.87
398.621	20.76
398.835	28.9
399.049	19.21
399.262	51.96
399.476	57.96
399.69	20.96
399.903	95.94
400.117	13.4
400.331	32.39
400.544	-0.74
400.758	93.42
400.971	19.6
401.185	57.58
401.398	-25.93
401.612	40.33
401.826	43.43
402.039	23.09
402.253	-1.13
402.466	36.46
402.68	9.14
402.893	44.01
403.106	23.09
403.32	-15.66
403.533	42.85
403.747	10.69
403.96	24.44
404.174	28.9
404.387	-23.6
404.6	14.76
404.814	40.53
405.027	5.07
405.24	25.22
405.454	-24.77
405.667	47.11
405.88	-34.07
406.094	29.68
406.307	55.06
406.52	34.52
406.733	-4.23
406.947	-31.55
407.16	73.07
407.373	45.18
407.586	-4.23
407.799	-8.88
408.012	41.69
408.226	9.14
408.439	64.94
408.652	-26.7
408.865	25.03
409.078	29.09
409.291	16.89
409.504	-34.65
409.717	39.75
409.93	39.36
410.143	23.28
410.357	-16.63
410.57	-8.3
410.783	-9.27
410.996	33.74
411.209	4.88
411.421	38.01
411.634	18.63
411.847	-17.02
412.06	25.22
412.273	12.04
412.486	33.36
412.699	97.49
412.912	-18.95
413.125	20.57
413.338	8.94
413.55	53.31
413.763	12.04
413.976	35.68
414.189	-20.7
414.402	24.83
414.615	35.1
414.827	-8.88
415.04	46.92
415.253	44.79
415.466	23.86
415.678	69.59
415.891	13.4
416.104	19.99
416.316	5.26
416.529	-6.94
416.742	34.71
416.954	67.26
417.167	13.79
417.38	5.07
417.592	63.39
417.805	16.89
418.017	-27.48
418.23	44.98
418.442	9.53
418.655	12.24
418.868	17.66
419.08	47.5
419.293	36.07
419.505	34.52
419.718	32.39
419.93	58.35
420.142	26.38
420.355	76.76
420.567	38.98
420.78	40.53
420.992	16.5
421.205	94.58
421.417	-12.95
421.629	18.05
421.842	-20.89
422.054	-18.18
422.266	61.84
422.479	51.76
422.691	2.55
422.903	30.64
423.115	30.45
423.328	11.66
423.54	14.37
423.752	-4.81
423.964	-24.38
424.177	31.42
424.389	12.63
424.601	134.11
424.813	22.7
425.025	51.18
425.238	39.75
425.45	5.07
425.662	-7.72
425.874	296.08
426.086	22.7
426.298	62.23
426.51	42.46
426.722	42.66
426.934	18.44
427.146	46.92
427.358	-18.18
427.57	36.07
427.782	-11.4
427.994	43.43
428.206	35.49
428.418	-30.39
428.63	35.49
428.842	48.66
429.054	26.96
429.266	69.59
429.478	-6.17
429.69	36.46
429.902	-0.74
430.114	58.93
430.325	37.81
430.537	39.56
430.749	41.11
430.961	-25.15
431.173	23.67
431.384	64.74
431.596	-23.02
431.808	-3.07
432.02	6.81
432.231	6.23
432.443	40.72
432.655	21.15
432.867	-5.01
433.078	29.29
433.29	67.07
433.502	35.49
433.713	67.26
433.925	17.28
434.136	47.31
434.348	13.98
434.56	-49.95
434.771	106.79
434.983	-18.57
435.194	-29.22
435.406	8.36
435.617	41.11
435.829	81.21
436.04	42.46
436.252	58.54
436.463	71.53
436.675	36.07
436.886	43.82
437.098	25.8
437.309	62.23
437.521	31.61
437.732	45.76
437.943	38.01
438.155	17.08
438.366	-19.54
438.578	78.31
438.789	19.41
439	71.72
439.211	29.87
439.423	60.09
439.634	70.75
439.845	65.91
440.057	26.96
440.268	53.31
440.479	-5.59
440.69	26.96
440.902	16.5
441.113	27.35
441.324	39.94
441.535	36.65
441.746	107.17
441.957	2.36
442.168	0.03
442.38	41.49
442.591	32.19
442.802	-2.68
443.013	13.59
443.224	49.44
443.435	-5.59
443.646	29.09
443.857	0.61
444.068	5.65
444.279	-16.63
444.49	67.26
444.701	35.68
444.912	140.11
445.123	63.19
445.334	21.54
445.545	38.2
445.756	21.93
445.967	-11.21
446.178	35.49
446.388	83.54
446.599	95.16
446.81	65.91
447.021	22.51
447.232	77.34
447.443	63.78
447.653	29.29
447.864	63.97
448.075	12.04
448.286	40.14
448.496	68.04
448.707	70.36
448.918	28.51
449.129	108.34
449.339	9.33
449.55	23.67
449.761	44.98
449.971	100.39
450.182	55.64
450.393	54.28
450.603	11.66
450.814	72.3
451.024	77.72
451.235	60.09
451.446	125.58
451.656	87.99
451.867	31.23
452.077	37.23
452.288	94.19
452.498	105.82
452.709	12.04
452.919	49.44
453.13	30.26
453.34	105.04
453.55	6.81
453.761	75.01
453.971	98.07
454.182	73.66
454.392	86.83
454.602	121.12
454.813	48.47
455.023	78.11
455.233	23.48
455.444	60.29
455.654	-17.02
455.864	83.15
456.075	36.07
456.285	36.46
456.495	64.36
456.705	54.86
456.916	107.56
457.126	113.18
457.336	70.75
457.546	5.84
457.756	28.51
457.967	105.62
458.177	35.88
458.387	56.61
458.597	43.63
458.807	57.38
459.017	30.64
459.227	34.52
459.437	49.83
459.647	106.21
459.857	66.88
460.068	41.49
460.278	84.12
460.488	73.85
460.698	130.62
460.908	42.08
461.117	3.52
461.327	24.44
461.537	28.32
461.747	35.88
461.957	30.84
462.167	132.94
462.377	75.98
462.587	57.58
462.797	69.39
463.007	51.18
463.216	73.07
463.426	84.12
463.636	75.01
463.846	10.11
464.056	25.99
464.265	101.36
464.475	19.02
464.685	74.04
464.895	62.23
465.104	74.24
465.314	84.7
465.524	63.97
465.733	43.04
465.943	107.56
466.153	127.52
466.362	97.29
466.572	63.97
466.782	48.66
466.991	71.72
467.201	119.57
467.41	31.23
467.62	64.16
467.829	78.11
468.039	68.81
468.249	86.83
468.458	51.96
468.668	85.47
468.877	64.16
469.086	112.6
469.296	94
469.505	35.1
469.715	151.93
469.924	87.22
470.134	105.82
470.343	111.24
470.552	39.36
470.762	95.55
470.971	64.94
471.18	70.94
471.39	68.62
471.599	32
471.808	79.47
472.018	20.38
472.227	96.91
472.436	89.35
472.645	56.8
472.855	23.67
473.064	68.62
473.273	59.9
473.482	92.26
473.691	120.93
473.901	93.61
474.11	79.66
474.319	160.45
474.528	68.62
474.737	111.63
474.946	73.85
475.155	88.38
475.364	85.67
475.573	90.32
475.783	87.22
475.992	113.57
476.201	122.29
476.41	52.15
476.619	53.51
476.828	73.66
477.037	76.76
477.245	70.36
477.454	131.2
477.663	62.03
477.872	69.2
478.081	129.65
478.29	48.28
478.499	123.45
478.708	62.42
478.917	130.81
479.125	98.84
479.334	108.92
479.543	86.06
479.752	81.6
479.961	75.4
480.169	109.69
480.378	47.11
480.587	188.55
480.796	108.92
481.004	67.46
481.213	112.21
481.422	90.71
481.63	69.39
481.839	91.48
482.048	140.69
482.256	94
482.465	83.92
482.674	85.09
482.882	105.82
483.091	166.07
483.299	110.47
483.508	119.57
483.716	88.77
483.925	77.72
484.134	92.26
484.342	83.34
484.551	132.56
484.759	113.37
484.967	116.86
485.176	123.06
485.384	121.9
485.593	155.81
485.801	121.12
486.01	88.96
486.218	125.77
486.426	79.86
486.635	118.8
486.843	88.77
487.051	140.31
487.26	114.73
487.468	102.72
487.676	130.81
487.885	87.61
488.093	117.83
488.301	118.22
488.509	86.83
488.717	119.77
488.926	96.71
489.134	97.29
489.342	137.21
489.55	86.06
489.758	110.86
489.967	63.78
490.175	177.5
490.383	81.6
490.591	156
490.799	36.46
491.007	151.54
491.215	104.85
491.423	106.59
491.631	119.96
491.839	141.47
492.047	156.39
492.255	95.74
492.463	53.31
492.671	109.11
492.879	156.19
493.087	104.85
493.295	114.54
493.503	130.23
493.711	102.52
493.919	155.22
494.127	160.45
494.334	175.37
494.542	100.39
494.75	121.12
494.958	102.33
495.166	162.59
495.374	133.14
495.581	117.83
495.789	111.44
495.997	161.04
496.205	124.03
496.412	112.41
496.62	106.21
496.828	154.64
497.035	82.57
497.243	148.25
497.451	124.61
497.658	143.21
497.866	123.06
498.074	204.44
498.281	119.96
498.489	212.19
498.696	152.51
498.904	120.35
499.112	125.19
499.319	194.17
499.527	113.18
499.734	165.1
499.942	97.87
500.149	113.76
500.357	142.05
500.564	120.35
500.771	141.27
500.979	133.72
501.186	124.42
501.394	140.89
501.601	137.4
501.808	185.25
502.016	135.27
502.223	171.3
502.43	142.05
502.638	156.77
502.845	106.79
503.052	186.22
503.26	105.62
503.467	185.06
503.674	141.47
503.881	140.31
504.089	215.87
504.296	157.55
504.503	94.58
504.71	172.47
504.917	121.32
505.125	127.32
505.332	165.69
505.539	133.72
505.746	199.98
505.953	181.96
506.16	162
506.367	191.65
506.574	180.99
506.781	198.43
506.988	134.49
507.195	149.99
507.402	158.52
507.609	187.77
507.816	145.15
508.023	111.05
508.23	164.33
508.437	129.84
508.644	173.63
508.851	217.8
509.058	188.55
509.265	161.04
509.472	177.12
509.679	236.79
509.885	121.32
510.092	143.21
510.299	134.11
510.506	178.47
510.713	158.32
510.92	190.68
511.126	176.73
511.333	235.05
511.54	183.7
511.746	229.62
511.953	205.21
512.16	225.17
512.367	156.19
512.573	185.64
512.78	146.12
512.987	197.65
513.193	183.32
513.4	106.79
513.606	172.47
513.813	190.29
514.02	187.77
514.226	234.47
514.433	241.05
514.639	158.52
514.846	205.21
515.052	151.54
515.259	186.22
515.465	165.69
515.672	151.54
515.878	250.55
516.085	156
516.291	200.75
516.497	132.75
516.704	179.25
516.91	139.53
517.117	120.54
517.323	153.67
517.529	180.02
517.736	175.76
517.942	183.7
518.148	164.14
518.354	205.21
518.561	176.54
518.767	193.97
518.973	212.57
519.179	224.78
519.386	139.14
519.592	176.92
519.798	147.67
520.004	197.46
520.21	165.3
520.417	178.47
520.623	202.89
520.829	226.52
521.035	218.39
521.241	202.11
521.447	209.09
521.653	270.12
521.859	176.92
522.065	169.37
522.271	298.02
522.477	223.23
522.683	239.7
522.889	246.29
523.095	236.4
523.301	223.42
523.507	207.54
523.713	199.98
523.919	175.95
524.125	242.02
524.331	186.22
524.537	231.75
524.742	236.99
524.948	245.7
525.154	201.34
525.36	314.1
525.566	248.22
525.772	267.6
525.977	192.42
526.183	248.8
526.389	300.15
526.595	224
526.8	238.15
527.006	194.94
527.212	207.73
527.417	205.4
527.623	177.31
527.829	256.75
528.034	237.76
528.24	233.89
528.446	213.15
528.651	296.27
528.857	237.18
529.062	298.6
529.268	247.83
529.473	223.23
529.679	194.94
529.884	320.3
530.09	259.27
530.295	295.11
530.501	280.38
530.706	263.14
530.912	202.11
531.117	240.67
531.323	249.58
531.528	253.45
531.733	243.57
531.939	227.49
532.144	286.39
532.35	291.82
532.555	305.38
532.76	296.27
532.966	304.99
533.171	298.6
533.376	279.03
533.581	213.93
533.787	273.41
533.992	273.8
534.197	318.94
534.402	264.5
534.607	259.85
534.813	344.13
535.018	270.31
535.223	259.07
535.428	264.88
535.633	294.92
535.838	269.92
536.043	242.6
536.249	326.3
536.454	273.41
536.659	295.88
536.864	259.27
537.069	242.8
537.274	292.59
537.479	284.65
537.684	273.22
537.889	253.45
538.094	349.36
538.299	294.33
538.504	289.49
538.708	302.86
538.913	307.9
539.118	279.61
539.323	281.16
539.528	274.18
539.733	293.56
539.938	311.58
540.142	303.05
540.347	261.78
540.552	250.35
540.757	292.01
540.962	312.16
541.166	251.13
541.371	247.06
541.576	306.73
541.781	204.63
541.985	267.79
542.19	279.42
542.395	321.85
542.599	340.06
542.804	325.14
543.008	338.12
543.213	306.35
543.418	278.06
543.622	289.49
543.827	249.38
544.031	331.92
544.236	331.92
544.44	275.15
544.645	366.6
544.849	275.73
545.054	319.91
545.258	387.14
545.463	355.56
545.667	275.73
545.872	294.33
546.076	291.23
546.281	305.96
546.485	278.25
546.689	320.88
546.894	350.71
547.098	304.6
547.302	237.76
547.507	295.88
547.711	315.26
547.915	353.04
548.119	299.18
548.324	323.4
548.528	387.33
548.732	327.08
548.936	349.16
549.141	370.48
549.345	303.63
549.549	318.17
549.753	315.26
549.957	374.16
550.161	365.25
550.366	301.5
550.57	288.52
550.774	311.77
550.978	288.33
551.182	358.46
551.386	320.88
551.59	290.07
551.794	279.42
551.998	333.28
552.202	295.69
552.406	273.6
552.61	287.94
552.814	324.17
553.018	377.45
553.222	286.97
553.426	290.65
553.63	362.34
553.833	288.33
554.037	259.46
554.241	330.57
554.445	326.11
554.649	301.89
554.853	278.25
555.056	352.07
555.26	343.93
555.464	366.02
555.668	310.03
555.871	345.29
556.075	331.34
556.279	260.23
556.483	264.5
556.686	295.3
556.89	311.77
557.094	336.96
557.297	282.13
557.501	353.23
557.704	276.32
557.908	359.63
558.112	295.88
558.315	367.76
558.519	313.13
558.722	334.25
558.926	312.35
559.129	255
559.333	255.58
559.536	285.03
559.74	294.92
559.943	284.45
560.147	239.12
560.35	288.72
560.553	272.44
560.757	239.89
560.96	341.03
561.164	271.47
561.367	364.86
561.57	316.42
561.774	304.41
561.977	317.97
562.18	278.25
562.384	390.43
562.587	300.92
562.79	252.48
562.993	293.17
563.197	344.71
563.4	352.07
563.603	359.82
563.806	369.12
564.009	276.7
564.212	321.46
564.416	272.05
564.619	313.13
564.822	284.65
565.025	357.88
565.228	298.21
565.431	321.46
565.634	208.5
565.837	282.13
566.04	263.53
566.243	313.71
566.446	227.3
566.649	321.65
566.852	265.27
567.055	287.36
567.258	316.23
567.461	364.08
567.664	363.7
567.867	219.55
568.07	306.73
568.273	280.38
568.475	346.84
568.678	285.42
568.881	283.29
569.084	320.68
569.287	220.32
569.489	244.54
569.692	326.3
569.895	306.35
570.098	241.83
570.3	222.45
570.503	203.47
570.706	255
570.909	246.48
571.111	238.15
571.314	250.55
571.516	273.41
571.719	308.67
571.922	246.67
572.124	266.05
572.327	282.9
572.529	213.35
572.732	208.7
572.935	271.28
573.137	317.58
573.34	248.03
573.542	260.04
573.745	285.42
573.947	272.25
574.15	249.97
574.352	238.15
574.554	308.28
574.757	245.12
574.959	233.3
575.162	230.01
575.364	228.46
575.566	353.04
575.769	218.97
575.971	277.48
576.173	151.74
576.376	245.9
576.578	278.45
576.78	341.8
576.982	190.87
577.185	226.91
577.387	204.82
577.589	199.01
577.791	262.75
577.993	286.2
578.196	225.36
578.398	259.27
578.6	290.46
578.802	214.12
579.004	229.24
579.206	232.14
579.408	259.27
579.61	226.52
579.812	238.15
580.014	233.5
580.216	208.5
580.418	222.84
580.62	184.09
580.822	182.93
581.024	255
581.226	273.6
581.428	223.42
581.63	295.88
581.832	205.79
582.034	254.81
582.236	239.5
582.438	249
582.64	288.91
582.841	295.11
583.043	280.38
583.245	250.55
583.447	265.47
583.649	219.35
583.85	244.54
584.052	276.51
584.254	215.09
584.456	278.25
584.657	206.57
584.859	224
585.061	239.12
585.262	206.37
585.464	199.79
585.666	259.46
585.867	229.82
586.069	315.84
586.27	261.78
586.472	251.32
586.674	230.59
586.875	220.9
587.077	212.57
587.278	241.05
587.48	221.87
587.681	310.22
587.883	256.17
588.084	175.57
588.285	218.97
588.487	236.4
588.688	229.62
588.89	208.7
589.091	201.92
589.292	262.17
589.494	235.05
589.695	228.65
589.896	165.88
590.098	178.28
590.299	255
590.5	182.93
590.702	185.84
590.903	203.08
591.104	277.28
591.305	245.32
591.507	254.42
591.708	228.46
591.909	195.72
592.11	287.36
592.311	242.41
592.512	226.33
592.714	209.67
592.915	192.81
593.116	225.17
593.317	232.53
593.518	199.01
593.719	208.31
593.92	230.01
594.121	254.81
594.322	227.49
594.523	240.28
594.724	208.7
594.925	231.17
595.126	237.18
595.327	244.74
595.528	216.64
595.729	226.72
595.929	191.07
596.13	216.06
596.331	201.72
596.532	219.94
596.733	261.4
596.934	254.03
597.135	248.42
597.335	228.85
597.536	184.29
597.737	237.76
597.938	191.26
598.138	241.05
598.339	221.29
598.54	223.04
598.74	208.12
598.941	223.62
599.142	285.03
599.342	231.75
599.543	162.59
599.744	224.2
599.944	201.14
600.145	194.75
600.345	219.74
600.546	304.6
600.746	251.52
600.947	289.49
601.147	230.79
601.348	250.16
601.548	204.63
601.749	236.99
601.949	188.55
602.15	205.4
602.35	232.34
602.551	255.78
602.751	186.03
602.951	201.34
603.152	147.09
603.352	262.56
603.552	223.04
603.753	243.19
603.953	227.1
604.153	208.31
604.354	193.59
604.554	214.51
604.754	213.15
604.954	172.66
605.155	229.43
605.355	215.29
605.555	238.34
605.755	257.72
605.955	211.02
606.155	255.97
606.356	214.51
606.556	253.65
606.756	254.42
606.956	196.88
607.156	263.72
607.356	189.71
607.556	227.49
607.756	216.25
607.956	271.47
608.156	246.29
608.356	193.39
608.556	255.97
608.756	230.01
608.956	184.48
609.156	241.44
609.356	191.26
609.556	203.47
609.755	248.03
609.955	204.24
610.155	230.4
610.355	235.05
610.555	199.98
610.755	237.57
610.954	188.94
611.154	215.29
611.354	286.78
611.554	197.85
611.753	194.75
611.953	167.62
612.153	247.64
612.352	255.2
612.552	182.93
612.752	152.9
612.951	191.26
613.151	229.62
613.351	173.44
613.55	229.82
613.75	231.95
613.949	235.82
614.149	252.87
614.348	224
614.548	183.32
614.747	139.14
614.947	215.29
615.146	155.03
615.346	232.34
615.545	215.48
615.745	210.25
615.944	244.74
616.144	195.91
616.343	254.23
616.542	201.14
616.742	243.57
616.941	210.83
617.14	157.36
617.34	218.77
617.539	211.6
617.738	181.57
617.938	248.42
618.137	207.92
618.336	155.22
618.535	236.79
618.734	190.29
618.934	241.83
619.133	199.2
619.332	210.05
619.531	177.31
619.73	184.48
619.929	242.99
620.128	206.18
620.328	249.77
620.527	203.08
620.726	167.43
620.925	192.23
621.124	177.31
621.323	218
621.522	156
621.721	160.26
621.92	162.59
622.119	211.99
622.318	179.44
622.517	184.87
622.715	188.94
622.914	152.9
623.113	177.12
623.312	143.79
623.511	175.76
623.71	167.24
623.909	189.13
624.107	242.02
624.306	169.95
624.505	152.32
624.704	199.98
624.902	179.25
625.101	214.51
625.3	189.9
625.499	167.04
625.697	166.65
625.896	181.38
626.095	201.34
626.293	150.19
626.492	167.82
626.69	222.45
626.889	168.2
627.088	214.7
627.286	154.26
627.485	179.25
627.683	177.5
627.882	204.44
628.08	114.73
628.279	161.81
628.477	237.76
628.676	152.51
628.874	182.74
629.073	174.02
629.271	145.92
629.469	186.42
629.668	183.12
629.866	188.74
630.065	162.78
630.263	192.04
630.461	136.04
630.66	184.48
630.858	216.45
631.056	228.27
631.254	208.12
631.453	157.55
631.651	212.96
631.849	186.8
632.047	172.66
632.245	175.57
632.444	177.89
632.642	199.2
632.84	182.35
633.038	164.33
633.236	147.47
633.434	144.18
633.632	143.21
633.83	113.96
634.028	189.13
634.227	177.5
634.425	220.32
634.623	182.74
634.821	180.8
635.019	184.29
635.216	156.77
635.414	207.92
635.612	149.41
635.81	180.8
636.008	216.25
636.206	159.87
636.404	201.34
636.602	170.92
636.8	168.79
636.997	208.5
637.195	210.44
637.393	165.3
637.591	218.58
637.789	185.25
637.986	113.96
638.184	163.17
638.382	216.84
638.58	215.87
638.777	216.64
638.975	182.15
639.173	175.95
639.37	194.75
639.568	185.45
639.765	209.47
639.963	155.61
640.161	225.75
640.358	209.28
640.556	123.06
640.753	126.55
640.951	159.1
641.148	193.59
641.346	161.23
641.543	169.95
641.741	176.92
641.938	137.01
642.136	162.97
642.333	137.21
642.531	204.82
642.728	199.2
642.925	174.99
643.123	151.35
643.32	158.13
643.517	169.56
643.715	190.29
643.912	176.34
644.109	203.08
644.306	160.65
644.504	130.42
644.701	177.12
644.898	220.32
645.095	156
645.293	175.18
645.49	192.81
645.687	195.72
645.884	214.51
646.081	113.76
646.278	160.07
646.475	133.14
646.672	171.3
646.87	184.67
647.067	190.29
647.264	199.98
647.461	142.05
647.658	149.02
647.855	209.47
648.052	161.62
648.249	86.25
648.446	137.21
648.642	150.77
648.839	157.74
649.036	147.09
649.233	103.69
649.43	123.45
649.627	127.71
649.824	137.79
650.021	155.81
650.217	134.88
650.414	149.41
650.611	164.52
650.808	153.67
651.004	141.08
651.201	171.69
651.398	200.37
651.595	168.01
651.791	150.57
651.988	187.97
652.185	149.99
652.381	167.43
652.578	83.54
652.775	143.41
652.971	119.96
653.168	106.59
653.364	167.04
653.561	75.98
653.757	151.16
653.954	169.17
654.15	115.31
654.347	205.79
654.543	126.36
654.74	110.66
654.936	77.92
655.133	135.27
655.329	165.88
655.525	127.52
655.722	172.85
655.918	119.38
656.115	175.57
656.311	120.35
656.507	98.84
656.704	91.48
656.9	119.38
657.096	111.05
657.292	128.68
657.489	167.04
657.685	154.84
657.881	104.66
658.077	120.74
658.273	138.76
658.47	167.82
658.666	115.7
658.862	169.75
659.058	116.86
659.254	168.4
659.45	118.8
659.646	129.84
659.842	113.37
660.038	175.37
660.234	111.44
660.43	133.52
660.626	208.89
660.822	173.05
661.018	181.57
661.214	149.99
661.41	105.82
661.606	168.79
661.802	133.91
661.998	144.76
662.194	86.64
662.39	148.83
662.586	148.44
662.781	147.86
662.977	158.71
663.173	180.8
663.369	159.29
663.564	143.99
663.76	201.14
663.956	146.51
664.152	198.62
664.347	97.87
664.543	147.28
664.739	160.26
664.934	97.29
665.13	80.44
665.326	169.17
665.521	139.72
665.717	107.37
665.912	92.45
666.108	67.07
666.304	111.24
666.499	135.07
666.695	72.88
666.89	128.29
667.086	191.26
667.281	128.29
667.477	167.04
667.672	111.63
667.867	138.56
668.063	162.39
668.258	90.12
668.454	130.81
668.649	222.07
668.844	133.52
669.04	185.45
669.235	133.72
669.43	105.43
669.626	89.74
669.821	125.97
670.016	86.06
670.211	126.55
670.407	77.53
670.602	115.7
670.797	136.62
670.992	159.49
671.187	92.06
671.382	142.05
671.578	127.32
671.773	140.89
671.968	114.34
672.163	125.97
672.358	145.15
672.553	121.32
672.748	105.62
672.943	187
673.138	129.65
673.333	145.15
673.528	104.85
673.723	170.14
673.918	142.44
674.113	79.27
674.308	192.81
674.503	160.26
674.698	163.75
674.892	168.59
675.087	175.76
675.282	148.44
675.477	109.5
675.672	154.84
675.867	152.12
676.061	81.99
676.256	75.98
676.451	104.27
676.646	130.04
676.84	114.15
677.035	101.56
677.23	66.49
677.424	154.64
677.619	143.21
677.814	168.01
678.008	143.79
678.203	71.53
678.397	92.45
678.592	132.94
678.787	174.99
678.981	107.17
679.176	148.06
679.37	149.41
679.565	123.26
679.759	103.49
679.954	147.09
680.148	172.08
680.342	188.55
680.537	153.87
680.731	118.99
680.926	138.17
681.12	154.26
681.314	113.76
681.509	99.04
681.703	123.26
681.897	153.87
682.092	113.76
682.286	72.3
682.48	189.71
682.674	158.71
682.869	130.81
683.063	137.79
683.257	191.26
683.451	124.61
683.645	149.02
683.839	142.24
684.034	99.04
684.228	168.79
684.422	85.09
684.616	124.81
684.81	143.02
685.004	138.95
685.198	128.49
685.392	138.17
685.586	94.19
685.78	109.11
685.974	141.66
686.168	137.98
686.362	183.51
686.556	100.39
686.75	101.56
686.944	104.85
687.138	150.57
687.331	100.59
687.525	125.77
687.719	46.73
687.913	128.1
688.107	119.77
688.301	73.85
688.494	151.35
688.688	93.42
688.882	68.23
689.076	39.17
689.269	102.52
689.463	166.27
689.657	113.96
689.85	95.74
690.044	107.17
690.238	97.49
690.431	121.9
690.625	112.21
690.818	115.51
691.012	96.32
691.205	135.85
691.399	46.14
691.593	99.23
691.786	172.66
691.98	165.3
692.173	177.7
692.366	135.66
692.56	164.91
692.753	174.6
692.947	72.3
693.14	144.57
693.333	136.43
693.527	69.01
693.72	131.59
693.914	123.45
694.107	115.12
694.3	131.78
694.493	117.44
694.687	169.75
694.88	109.11
695.073	168.2
695.266	134.3
695.46	118.8
695.653	169.95
695.846	186.8
696.039	66.88
696.232	129.84
696.425	177.12
696.618	138.76
696.812	123.06
697.005	211.41
697.198	224
697.391	162.39
697.584	165.1
697.777	211.99
697.97	187.58
698.163	172.08
698.356	168.79
698.549	270.12
698.742	187.58
698.935	142.05
699.127	203.47
699.32	159.1
699.513	171.69
699.706	189.32
699.899	216.25
700.092	157.36
700.285	221.49
700.477	165.88
700.67	190.1
700.863	186.42
701.056	263.92
701.248	208.12
701.441	237.76
701.634	196.1
701.826	283.68
702.019	172.27
702.212	248.22
702.404	186.61
702.597	190.29
702.79	199.79
702.982	213.35
703.175	226.52
703.367	273.02
703.56	256.94
703.752	293.75
703.945	248.8
704.137	276.32
704.33	281.16
704.522	256.75
704.715	273.02
704.907	261.59
705.1	308.87
705.292	267.6
705.484	284.45
705.677	316.23
705.869	300.53
706.061	333.08
706.254	338.9
706.446	313.13
706.638	282.13
706.831	356.91
707.023	277.67
707.215	376.87
707.407	354.2
707.599	342.38
707.792	352.26
707.984	318.94
708.176	351.1
708.368	299.76
708.56	356.14
708.752	328.24
708.944	323.2
709.136	362.73
709.329	328.63
709.521	454.76
709.713	380.36
709.905	388.88
710.097	407.48
710.289	346.45
710.481	387.14
710.672	400.31
710.864	378.23
711.056	445.65
711.248	432.48
711.44	411.16
711.632	409.03
711.824	410.97
712.016	470.84
712.207	434.61
712.399	446.43
712.591	484.01
712.783	416.4
712.975	468.32
713.166	382.88
713.358	422.59
713.55	502.42
713.741	501.06
713.933	496.03
714.125	450.69
714.316	454.37
714.508	515.79
714.7	543.69
714.891	499.51
715.083	591.93
715.274	503.19
715.466	506.68
715.657	546.98
715.849	464.64
716.04	514.62
716.232	459.79
716.423	602
716.615	504.94
716.806	515.21
716.998	494.28
717.189	469.68
717.381	401.67
717.572	409.42
717.763	498.93
717.955	463.28
718.146	470.06
718.337	426.66
718.528	396.44
718.72	399.35
718.911	462.12
719.102	420.85
719.293	452.24
719.485	441.39
719.676	442.94
719.867	417.17
720.058	415.43
720.249	427.05
720.44	459.41
720.632	467.74
720.823	488.08
721.014	526.06
721.205	502.42
721.396	550.08
721.587	602
721.778	553.18
721.969	616.54
722.16	610.92
722.351	572.36
722.542	683.57
722.733	701.4
722.924	613.44
723.115	696.36
723.305	672.53
723.496	699.85
723.687	606.85
723.878	601.62
724.069	636.3
724.26	652.38
724.45	594.64
724.641	588.44
724.832	648.12
725.023	631.65
725.213	584.96
725.404	599.87
725.595	633.78
725.785	620.22
725.976	654.7
726.167	658.77
726.357	648.5
726.548	707.21
726.739	655.48
726.929	690.55
727.12	706.63
727.31	728.72
727.501	674.66
727.691	700.04
727.882	730.27
728.072	708.57
728.263	683.77
728.453	734.72
728.644	749.25
728.834	759.52
729.024	715.93
729.215	707.98
729.405	750.42
729.596	828.5
729.786	770.37
729.976	760.49
730.167	789.75
730.357	794.01
730.547	776.76
730.737	787.42
730.928	847.87
731.118	861.04
731.308	790.91
731.498	848.84
731.688	854.65
731.879	848.45
732.069	896.89
732.259	890.11
732.449	895.34
732.639	954.04
732.829	916.65
733.019	931.96
733.209	989.31
733.399	970.32
733.589	1007.13
733.779	1015.66
733.969	974.39
734.159	1037.94
734.349	1077.85
734.539	1088.7
734.729	1053.44
734.919	1134.81
735.109	1141.4
735.299	1081.14
735.488	1106.14
735.678	1098.58
735.868	1096.64
736.058	1100.52
736.248	1084.05
736.437	1064.48
736.627	1086.76
736.817	1159.42
737.007	1143.14
737.196	1181.89
737.386	1115.44
737.576	1128.42
737.765	1158.45
737.955	1163.1
738.144	1219.48
738.334	1172.59
738.524	1159.42
738.713	1202.23
738.903	1182.47
739.092	1193.71
739.282	1222.38
739.471	1272.95
739.661	1187.51
739.85	1212.5
740.04	1255.71
740.229	1277.21
740.419	1288.06
740.608	1284
740.797	1243.89
740.987	1334.18
741.176	1318.48
741.365	1271.01
741.555	1264.81
741.744	1308.79
741.933	1312.86
742.123	1309.57
742.312	1341.34
742.501	1356.26
742.69	1374.48
742.88	1272.18
743.069	1372.93
743.258	1267.91
743.447	1407.61
743.636	1381.06
743.825	1293.68
744.014	1327.59
744.204	1378.35
744.393	1345.03
744.582	1360.33
744.771	1425.82
744.96	1338.24
745.149	1378.16
745.338	1357.62
745.527	1353.74
745.716	1336.69
745.905	1323.52
746.094	1394.43
746.283	1406.64
746.471	1391.72
746.66	1441.71
746.849	1410.9
747.038	1464.76
747.227	1381.64
747.416	1445.19
747.604	1375.64
747.793	1396.76
747.982	1417.87
748.171	1436.86
748.359	1448.68
748.548	1416.32
748.737	1412.84
748.926	1376.8
749.114	1342.7
749.303	1434.73
749.491	1422.33
749.68	1372.34
749.869	1473.87
750.057	1426.98
750.246	1399.86
750.434	1421.36
750.623	1397.53
750.811	1387.84
751	1460.69
751.188	1414.39
751.377	1420.01
751.565	1388.81
751.754	1363.43
751.942	1426.59
752.131	1424.07
752.319	1419.62
752.507	1378.93
752.696	1451.78
752.884	1488.2
753.072	1414.77
753.261	1408.77
753.449	1419.04
753.637	1387.26
753.825	1482.97
754.014	1338.63
754.202	1414.58
754.39	1480.84
754.578	1431.44
754.766	1375.83
754.955	1410.71
755.143	1486.85
755.331	1394.24
755.519	1382.42
755.707	1420.59
755.895	1389.59
756.083	1421.56
756.271	1381.64
756.459	1371.57
756.647	1450.23
756.835	1399.66
757.023	1387.07
757.211	1383.39
757.399	1396.76
757.587	1381.84
757.775	1362.27
757.963	1409.74
758.151	1390.36
758.339	1387.65
758.526	1345.41
758.714	1397.72
758.902	1323.91
759.09	1302.59
759.278	1216.96
759.465	1092.38
759.653	935.64
759.841	902.7
760.028	756.62
760.216	633
760.404	645.6
760.591	519.66
760.779	404.38
760.967	364.28
761.154	260.23
761.342	328.24
761.529	346.06
761.717	364.28
761.905	319.72
762.092	365.83
762.28	331.53
762.467	344.13
762.655	298.21
762.842	317.58
763.029	320.49
763.217	327.85
763.404	339.48
763.592	347.61
763.779	299.76
763.966	319.52
764.154	365.44
764.341	397.8
764.528	375.51
764.716	421.63
764.903	450.49
765.09	478.01
765.277	473.55
765.465	588.25
765.652	591.16
765.839	614.21
766.026	698.49
766.213	672.14
766.4	744.8
766.588	875.96
766.775	810.67
766.962	894.18
767.149	869.38
767.336	1001.32
767.523	922.66
767.71	961.6
767.897	1060.6
768.084	1097.42
768.271	1091.41
768.458	1133.26
768.645	1159.03
768.832	1100.32
769.019	1134.81
769.206	1163.68
769.392	1194.1
769.579	1284.19
769.766	1221.61
769.953	1203.4
770.14	1259.39
770.327	1224.32
770.513	1276.25
770.7	1318.09
770.887	1235.75
771.073	1271.01
771.26	1263.85
771.447	1242.15
771.634	1255.9
771.82	1321.19
772.007	1212.7
772.193	1269.66
772.38	1324.68
772.567	1267.14
772.753	1300.66
772.94	1307.24
773.126	1341.73
773.313	1313.83
773.499	1312.28
773.686	1312.09
773.872	1275.28
774.059	1321.97
774.245	1263.46
774.432	1278.18
774.618	1199.52
774.804	1276.83
774.991	1220.25
775.177	1303.56
775.363	1265.4
775.55	1303.18
775.736	1254.93
775.922	1239.82
776.109	1290.58
776.295	1281.09
776.481	1271.21
776.667	1303.18
776.853	1232.07
777.04	1259.97
777.226	1250.86
777.412	1322.74
777.598	1236.33
777.784	1243.5
777.97	1252.41
778.156	1280.9
778.342	1252.03
778.528	1265.2
778.715	1185.96
778.901	1223.35
779.087	1250.48
779.272	1184.99
779.458	1188.09
779.644	1252.61
779.83	1195.45
780.016	1301.43
780.202	1232.26
780.388	1197.39
780.574	1167.75
780.76	1153.22
780.946	1240.79
781.131	1199.52
781.317	1211.53
781.503	1183.63
781.689	1195.26
781.874	1299.11
782.06	1196.23
782.246	1181.31
782.432	1192.55
782.617	1215.02
782.803	1277.8
782.989	1148.76
783.174	1175.11
783.36	1151.28
783.545	1162.71
783.731	1188.48
783.916	1133.65
784.102	1202.82
784.288	1146.63
784.473	1166.2
784.659	1172.78
784.844	1214.25
785.029	1111.95
785.215	1126.28
785.4	1083.85
785.586	1202.43
785.771	1105.36
785.956	1149.15
786.142	1134.23
786.327	1128.22
786.512	1127.06
786.698	1114.47
786.883	1060.02
787.068	1087.15
787.254	1122.8
787.439	1114.47
787.624	1095.29
787.809	1124.54
787.994	1110.98
788.18	1143.14
788.365	1066.22
788.55	1077.07
788.735	1069.9
788.92	1114.85
789.105	1060.02
789.29	1129.38
789.475	1068.74
789.66	1083.85
789.845	1049.56
790.03	1043.94
790.215	1103.81
790.4	1120.09
790.585	1128.22
790.77	1096.45
790.955	986.79
791.14	1065.45
791.325	1117.57
791.51	997.06
791.695	1030.57
791.879	1032.32
792.064	1005.77
792.249	1112.92
792.434	1029.61
792.618	1062.15
792.803	1109.24
792.988	1042.78
793.173	1040.26
793.357	1086.57
793.542	991.05
793.727	1021.47
793.911	1078.24
794.096	1016.62
794.281	1063.7
794.465	1114.27
794.65	1054.02
794.834	1084.82
795.019	1104.59
795.203	1074.36
795.388	1119.89
795.572	1102.45
795.757	1062.35
795.941	1076.3
796.126	1061.38
796.31	1017.21
796.494	1065.84
796.679	1045.1
796.863	1036.97
797.048	1082.11
797.232	1095.48
797.416	1098.97
797.601	1034.64
797.785	1110.59
797.969	1134.23
798.153	1020.89
798.338	1083.66
798.522	1096.84
798.706	1067.97
798.89	1090.44
799.074	1157.28
799.258	1127.25
799.443	1067.97
799.627	1056.34
799.811	1103.04
799.995	1084.63
800.179	1072.42
800.363	1097.03
800.547	1095.67
800.731	1087.15
800.915	1058.86
801.099	1056.92
801.283	1031.74
801.467	1082.11
801.651	1059.05
801.835	1156.51
802.019	1084.05
802.202	1068.35
802.386	1040.45
802.57	1062.54
802.754	1051.3
802.938	1055.18
803.121	1044.52
803.305	1122.41
803.489	1068.94
803.673	1088.12
803.856	1109.82
804.04	1052.27
804.224	1045.49
804.407	1083.47
804.591	1033.87
804.775	1080.95
804.958	1069.9
805.142	1161.55
805.326	1058.47
805.509	1054.99
805.693	1121.44
805.876	1104.2
806.06	1072.81
806.243	1082.5
806.427	1124.54
806.61	1112.92
806.794	1048.4
806.977	1112.34
807.16	1080.37
807.344	1106.72
807.527	1088.89
807.71	1064.09
807.894	1100.52
808.077	1128.22
808.26	1071.26
808.444	1037.94
808.627	1117.57
808.81	1051.3
808.993	1022.05
809.177	1019.14
809.36	1038.32
809.543	1091.6
809.726	1000.16
809.909	996.47
810.092	989.5
810.276	971.87
810.459	1018.76
810.642	1018.37
810.825	999.96
811.008	1034.25
811.191	953.07
811.374	930.41
811.557	981.17
811.74	1019.34
811.923	918.59
812.106	945.52
812.289	900.96
812.472	935.44
812.654	961.02
812.837	907.93
813.02	908.51
813.203	898.83
813.386	835.47
813.569	846.32
813.751	778.7
813.934	891.08
814.117	869.57
814.3	806.6
814.482	750.22
814.665	779.67
814.848	751
815.03	738.4
815.213	740.92
815.396	725.42
815.578	696.94
815.761	699.27
815.943	809.12
816.126	696.55
816.309	682.8
816.491	656.06
816.674	611.3
816.856	675.63
817.039	623.51
817.221	698.68
817.403	689.58
817.586	685.9
817.768	715.93
817.951	627
818.133	596.97
818.315	655.09
818.498	680.86
818.68	770.18
818.862	681.25
819.045	710.31
819.227	680.67
819.409	677.18
819.591	717.87
819.774	674.27
819.956	650.44
820.138	743.83
820.32	677.37
820.502	708.95
820.684	738.02
820.866	739.37
821.048	782.19
821.231	784.32
821.413	752.35
821.595	751.97
821.777	766.11
821.959	746.73
822.141	783.55
822.323	679.12
822.505	705.08
822.686	680.67
822.868	688.22
823.05	587.28
823.232	606.65
823.414	559.96
823.596	611.89
823.778	606.85
823.96	607.04
824.141	610.14
824.323	598.9
824.505	659.74
824.687	662.84
824.868	676.79
825.05	739.18
825.232	783.16
825.413	807.57
825.595	754.29
825.777	711.67
825.958	754.87
826.14	718.83
826.321	738.21
826.503	714.18
826.685	759.52
826.866	752.93
827.048	734.92
827.229	724.84
827.411	689.97
827.592	662.65
827.773	701.78
827.955	668.46
828.136	704.5
828.318	645.6
828.499	688.42
828.68	619.05
828.862	681.83
829.043	697.72
829.224	683.96
829.406	643.27
829.587	660.9
829.768	637.07
829.949	679.5
830.131	648.7
830.312	710.7
830.493	631.84
830.674	688.8
830.855	619.05
831.036	661.87
831.218	691.32
831.399	719.61
831.58	675.44
831.761	679.7
831.942	671.17
832.123	707.02
832.304	630.68
832.485	640.17
832.666	683.96
832.847	722.71
833.028	662.07
833.209	677.37
833.389	678.15
833.57	613.63
833.751	650.44
833.932	699.07
834.113	689.38
834.294	660.52
834.475	665.94
834.655	731.23
834.836	716.9
835.017	647.54
835.198	616.54
835.378	667.3
835.559	710.12
835.74	666.33
835.92	644.63
836.101	627.39
836.281	679.7
836.462	684.93
836.643	687.83
836.823	697.52
837.004	737.43
837.184	757
837.365	696.55
837.545	716.32
837.726	702.95
837.906	744.22
838.087	695.2
838.267	687.64
838.448	652.19
838.628	696.94
838.808	677.37
838.989	737.05
839.169	656.25
839.349	708.18
839.53	709.15
839.71	720
839.89	683.96
840.07	783.16
840.251	656.06
840.431	741.12
840.611	710.12
840.791	665.17
840.971	708.76
841.151	704.88
841.332	673.11
841.512	707.98
841.692	622.74
841.872	705.08
842.052	698.3
842.232	688.22
842.412	631.65
842.592	685.51
842.772	699.85
842.952	686.48
843.132	665.94
843.312	663.81
843.492	628.74
843.672	692.1
843.851	643.27
844.031	662.84
844.211	662.07
844.391	666.91
844.571	700.62
844.751	698.3
844.93	690.55
845.11	639.4
845.29	683.19
845.47	698.1
845.649	679.5
845.829	683.19
846.009	629.52
846.188	688.03
846.368	681.64
846.547	704.3
846.727	713.99
846.907	627
847.086	668.07
847.266	673.69
847.445	648.5
847.625	641.34
847.804	667.88
847.984	662.84
848.163	671.56
848.343	649.28
848.522	661.1
848.701	695.58
848.881	619.44
849.06	662.84
849.239	669.04
849.419	654.9
849.598	635.91
849.777	637.65
849.957	627.97
850.136	621.38
850.315	588.44
850.494	600.07
850.674	560.54
850.853	653.15
851.032	639.4
851.211	674.85
851.39	634.36
851.569	596.19
851.748	587.67
851.927	621.77
852.107	592.71
852.286	586.89
852.465	553.76
852.644	615.95
852.823	611.69
853.002	621.96
853.181	607.24
853.359	620.02
853.538	542.91
853.717	660.13
853.896	570.81
854.075	554.54
854.254	540.78
854.433	517.92
854.611	556.67
854.79	497.77
854.969	558.02
855.148	573.33
855.327	502.61
855.505	565.77
855.684	531.48
855.863	554.92
856.041	487.69
856.22	552.79
856.399	515.01
856.577	599.68
856.756	578.76
856.934	691.9
857.113	664.59
857.291	608.4
857.47	536.52
857.648	589.8
857.827	574.88
858.005	635.33
858.184	567.91
858.362	627.77
858.541	571.59
858.719	585.73
858.898	566.16
859.076	565.97
859.254	643.66
859.433	551.24
859.611	551.63
859.789	539.23
859.967	604.91
860.146	659.74
860.324	552.79
860.502	554.73
860.68	510.17
860.859	537.87
861.037	561.51
861.215	595.61
861.393	565.19
861.571	550.08
861.749	549.11
861.927	565.58
862.105	567.32
862.283	554.92
862.461	507.26
862.639	515.21
862.817	537.68
862.995	535.94
863.173	506.1
863.351	523.15
863.529	533.42
863.707	583.21
863.885	575.85
864.063	517.53
864.241	524.12
864.418	599.87
864.596	530.71
864.774	454.56
864.952	527.8
865.129	547.56
865.307	522.37
865.485	488.28
865.663	553.18
865.84	487.69
866.018	535.94
866.196	416.78
866.373	468.51
866.551	447.98
866.728	391.4
866.906	440.81
867.084	460.76
867.261	537.49
867.439	502.61
867.616	496.99
867.794	491.57
867.971	488.08
868.149	480.91
868.326	545.82
868.503	518.69
868.681	502.23
868.858	488.47
869.035	458.05
869.213	539.23
869.39	522.18
869.567	540.2
869.745	489.05
869.922	498.16
870.099	532.26
870.276	520.44
870.454	539.62
870.631	502.23
870.808	493.7
870.985	547.76
871.162	570.23
871.339	503.78
871.517	486.34
871.694	461.15
871.871	494.09
872.048	473.16
872.225	455.53
872.402	497.38
872.579	456.69
872.756	515.59
872.933	468.51
873.11	494.48
873.287	512.49
873.463	481.49
873.64	452.63
873.817	478.39
873.994	463.86
874.171	457.47
874.348	466.77
874.524	391.4
874.701	454.76
874.878	402.83
875.055	486.73
875.231	470.26
875.408	491.76
875.585	413.88
875.762	464.83
875.938	439.26
876.115	451.46
876.291	453.01
876.468	444.49
876.645	404.77
876.821	459.99
876.998	428.99
877.174	465.22
877.351	452.63
877.527	437.71
877.704	454.76
877.88	458.44
878.057	413.1
878.233	471.81
878.409	415.62
878.586	452.43
878.762	403.61
878.938	440.03
879.115	381.91
879.291	413.1
879.467	371.83
879.644	404.38
879.82	435.19
879.996	409.42
880.172	360.01
880.349	430.54
880.525	466.19
880.701	381.13
880.877	375.32
881.053	421.05
881.229	433.06
881.405	456.5
881.581	410.2
881.757	404
881.933	429.76
882.109	438.48
882.285	410
882.461	379.78
882.637	402.83
882.813	382.68
882.989	415.23
883.165	449.53
883.341	376.1
883.517	457.47
883.693	412.91
883.869	414.85
884.044	382.88
884.22	424.92
884.396	455.73
884.572	426.28
884.747	439.84
884.923	413.88
885.099	408.65
885.275	476.26
885.45	384.62
885.626	401.67
885.801	402.45
885.977	405.55
886.153	346.84
886.328	397.02
886.504	380.36
886.679	444.88
886.855	384.04
887.03	436.74
887.206	445.84
887.381	426.86
887.557	400.31
887.732	388.11
887.908	452.24
888.083	451.27
888.258	375.13
888.434	398.96
888.609	425.89
888.784	455.14
888.96	413.49
889.135	380.75
889.31	375.51
889.485	425.69
889.661	405.74
889.836	445.07
890.011	405.35
890.186	370.67
890.361	388.11
890.537	402.06
890.712	411.55
890.887	399.54
891.062	403.8
891.237	456.5
891.412	376.87
891.587	419.5
891.762	409.23
891.937	451.08
892.112	388.3
892.287	403.8
892.462	386.75
892.637	334.83
892.812	340.64
892.987	360.01
893.161	371.25
893.336	350.71
893.511	365.44
893.686	375.13
893.861	357.69
894.035	389.85
894.21	358.27
894.385	309.25
894.56	397.6
894.734	316.62
894.909	328.63
895.084	327.66
895.258	341.41
895.433	384.81
895.608	326.11
895.782	315.07
895.957	308.48
896.131	307.51
896.306	273.41
896.48	297.82
896.655	287.36
896.829	223.81
897.004	259.07
897.178	273.41
897.353	263.72
897.527	311.77
897.701	290.46
897.876	207.54
898.05	314.68
898.224	266.43
898.399	312.55
898.573	308.09
898.747	202.89
898.921	303.44
899.096	202.89
899.27	196.3
899.444	199.79
899.618	224.2
899.792	212.96
899.967	207.54
900.141	253.07
900.315	206.57
900.489	200.95
900.663	242.41
900.837	233.11
901.011	178.86
901.185	294.33
901.359	255.2
901.533	249
901.707	231.56
901.881	246.87
902.055	202.5
902.229	238.15
902.403	276.12
902.576	222.65
902.75	241.83
902.924	312.74
903.098	263.33
903.272	321.65
903.446	319.91
903.619	269.53
903.793	280.77
903.967	276.32
904.14	317.39
904.314	305.18
904.488	267.4
904.661	317.39
904.835	282.71
905.009	324.56
905.182	355.17
905.356	315.65
905.529	313.32
905.703	244.54
905.876	282.71
906.05	261.4
906.223	241.05
906.397	209.09
906.57	239.12
906.744	192.62
906.917	216.45
907.09	228.85
907.264	227.88
907.437	218.77
907.61	186.03
907.784	219.74
907.957	223.23
908.13	189.71
908.304	239.31
908.477	210.25
908.65	233.5
908.823	201.14
908.996	262.37
909.17	211.02
909.343	196.3
909.516	218.58
909.689	185.84
909.862	205.21
910.035	199.79
910.208	193.59
910.381	196.1
910.554	279.61
910.727	208.31
910.9	202.3
911.073	179.64
911.246	264.11
911.419	260.82
911.592	233.5
911.765	189.9
911.938	174.79
912.11	190.29
912.283	213.54
912.456	249
912.629	219.35
912.802	179.05
912.974	132.75
913.147	170.53
913.32	117.25
913.493	157.16
913.665	185.45
913.838	209.28
914.01	170.34
914.183	194.17
914.356	132.36
914.528	199.79
914.701	228.85
914.873	237.76
915.046	196.69
915.218	149.02
915.391	133.91
915.563	146.89
915.736	176.15
915.908	220.13
916.081	174.6
916.253	156.58
916.425	181.19
916.598	193.2
916.77	169.56
916.942	173.82
917.115	129.07
917.287	215.67
917.459	173.63
917.632	164.33
917.804	99.81
917.976	182.93
918.148	159.29
918.32	159.87
918.493	187.97
918.665	197.85
918.837	155.61
919.009	228.07
919.181	232.72
919.353	183.7
919.525	133.91
919.697	169.75
919.869	179.05
920.041	213.15
920.213	251.13
920.385	178.47
920.557	161.23
920.729	199.79
920.901	171.69
921.073	183.12
921.244	149.99
921.416	237.37
921.588	158.32
921.76	162.97
921.932	246.67
922.103	149.41
922.275	188.55
922.447	183.7
922.619	112.99
922.79	163.17
922.962	153.29
923.134	205.02
923.305	160.26
923.477	139.92
923.648	118.41
923.82	143.02
923.991	124.22
924.163	87.61
924.335	175.76
924.506	120.16
924.677	195.33
924.849	130.62
925.02	146.51
925.192	177.12
925.363	141.27
925.535	170.92
925.706	146.31
925.877	192.04
926.049	119.96
926.22	146.12
926.391	170.72
926.562	172.47
926.734	115.89
926.905	158.91
927.076	96.52
927.247	143.02
927.419	119.38
927.59	140.31
927.761	163.94
927.932	111.63
928.103	144.96
928.274	114.34
928.445	79.27
928.616	124.42
928.787	107.95
928.958	154.84
929.129	130.23
929.3	121.51
929.471	80.24
929.642	49.05
929.813	15.53
929.984	121.71
930.155	9.53
930.326	105.82
930.496	43.63
930.667	33.74
930.838	69.2
931.009	44.01
931.18	69.98
931.35	45.56
931.521	73.07
931.692	34.71
931.863	10.69
932.033	63.39
932.204	70.94
932.374	61.84
932.545	26.77
932.716	95.94
932.886	48.28
933.057	1.39
933.227	5.07
933.398	79.86
933.568	27.16
933.739	-32.32
933.909	24.64
934.08	86.64
934.25	-30.58
934.421	-42.2
934.591	29.48
934.761	-11.01
934.932	-46.85
935.102	-7.52
935.272	-11.79
935.443	-12.17
935.613	-4.81
935.783	33.16
935.953	-53.83
936.123	155.61
936.294	-6.94
936.464	-28.25
936.634	-2.87
936.804	-27.09
936.974	-33.29
937.144	36.46
937.314	19.41
937.484	4.68
937.655	-10.82
937.825	71.33
937.995	-3.07
938.165	26.38
938.334	-20.12
938.504	-32.13
938.674	-14.11
938.844	0.42
939.014	26.96
939.184	24.06
939.354	83.15
939.524	29.68
939.694	7.78
939.863	17.66
940.033	83.73
940.203	74.62
940.373	38.59
940.542	59.9
940.712	8.75
940.882	22.51
941.051	75.01
941.221	38.2
941.391	73.46
941.56	-14.89
941.73	-9.46
941.899	97.1
942.069	25.8
942.238	60.68
942.408	27.54
942.577	59.13
942.747	36.07
942.916	-28.25
943.086	0.81
943.255	49.05
943.425	23.86
943.594	4.49
943.763	-55.38
943.933	5.07
944.102	-60.22
944.271	6.23
944.441	25.03
944.61	-28.64
944.779	-5.2
944.948	84.7
945.117	-8.49
945.287	-17.6
945.456	-26.51
945.625	-4.04
945.794	8.75
945.963	6.04
946.132	59.71
946.301	36.26
946.47	40.33
946.639	-20.31
946.808	-3.07
946.977	10.11
947.146	55.06
947.315	-11.98
947.484	59.32
947.653	20.18
947.822	-10.24
947.991	-0.94
948.16	77.92
948.329	66.29
948.498	20.57
948.666	7.59
948.835	52.93
949.004	-33.49
949.173	-27.67
949.341	26.38
949.51	17.28
949.679	50.6
949.847	77.14
950.016	91.29
950.185	82.57
950.353	-1.91
950.522	10.49
950.69	30.84
950.859	-10.43
951.028	26.58
951.196	40.14
951.365	13.79
951.533	12.04
951.701	42.66
951.87	23.09
952.038	0.81
952.207	28.32
952.375	92.64
952.543	-5.01
952.712	-27.87
952.88	-4.42
953.048	76.76
953.217	5.26
953.385	-4.04
953.553	62.23
953.721	-35.42
953.89	14.76
954.058	-34.26
954.226	-15.08
954.394	14.37
954.562	-41.62
954.73	1.19
954.898	-5.97
955.067	58.93
955.235	-2.68
955.403	57.77
955.571	76.56
955.739	37.81
955.907	4.1
956.075	-5.39
956.243	-18.37
956.41	26.96
956.578	-22.05
956.746	-22.25
956.914	7.78
957.082	29.68
957.25	29.87
957.418	1.39
957.585	7.39
957.753	52.54
957.921	-12.37
958.089	20.76
958.256	38.59
958.424	27.35
958.592	33.36
958.759	-2.68
958.927	54.48
959.095	1.58
959.262	25.99
959.43	44.98
959.597	-16.24
959.765	23.28
959.932	-20.7
960.1	44.4
960.267	29.68
960.435	-22.64
960.602	46.53
960.77	-10.43
960.937	-44.92
961.104	-1.13
961.272	-32.13
961.439	-14.69
961.606	31.42
961.774	35.68
961.941	0.23
962.108	60.87
962.275	39.56
962.443	39.17
962.61	41.69
962.777	70.36
962.944	19.99
963.111	8.17
963.278	14.56
963.446	30.84
963.613	-4.23
963.78	31.03
963.947	47.31
964.114	16.5
964.281	82.57
964.448	60.87
964.615	4.29
964.782	38.59
964.949	71.53
965.116	49.44
965.282	68.81
965.449	21.15
965.616	-25.15
965.783	60.29
965.95	52.54
966.117	-18.57
966.283	28.71
966.45	17.86
966.617	37.62
966.784	47.69
966.95	54.09
967.117	53.7
967.284	-8.3
967.45	-2.68
967.617	36.84
967.784	53.51
967.95	69.2
968.117	11.08
968.283	78.69
968.45	138.37
968.616	34.91
968.783	65.13
968.949	52.54
969.116	59.51
969.282	12.04
969.449	66.88
969.615	16.11
969.781	-55.19
969.948	4.68
970.114	-27.48
970.28	82.37
970.447	20.76
970.613	44.98
970.779	37.23
970.945	36.84
971.112	28.32
971.278	14.37
971.444	9.33
971.61	63.58
971.776	6.62
971.942	36.65
972.108	44.59
972.275	28.71
972.441	31.23
972.607	98.46
972.773	8.56
972.939	47.89
973.105	9.14
973.271	-4.81
973.437	37.23
973.602	-11.21
973.768	50.02
973.934	0.23
974.1	33.74
974.266	-27.67
974.432	41.49
974.598	9.33
974.763	56.41
974.929	23.86
975.095	79.27
975.261	4.49
975.426	-14.5
975.592	31.03
975.758	79.27
975.923	-12.95
976.089	-21.09
976.255	40.91
976.42	53.7
976.586	39.75
976.751	27.54
976.917	113.96
977.082	46.53
977.248	-40.27
977.413	-41.43
977.579	-3.84
977.744	40.53
977.91	5.07
978.075	-2.68
978.24	61.06
978.406	-5.97
978.571	5.07
978.736	-9.66
978.902	45.95
979.067	-11.79
979.232	-35.62
979.397	36.26
979.563	79.27
979.728	-10.82
979.893	7.98
980.058	2.16
980.223	57.96
980.388	22.89
980.554	18.24
980.719	7.39
980.884	17.66
981.049	66.1
981.214	0.23
981.379	41.88
981.544	-33.1
981.709	12.63
981.874	18.83
982.039	20.18
982.204	44.4
982.368	3.13
982.533	13.01
982.698	54.28
982.863	56.41
983.028	32.78
983.193	37.43
983.357	33.94
983.522	23.48
983.687	10.69
983.852	3.91
984.016	-16.63
984.181	43.04
984.346	31.81
984.51	83.34
984.675	6.23
984.839	29.87
985.004	37.23
985.168	60.29
985.333	21.93
985.498	-0.36
985.662	54.28
985.827	56.41
985.991	28.32
986.155	28.71
986.32	58.54
986.484	82.18
986.649	31.23
986.813	-37.17
986.977	29.68
987.142	33.94
987.306	-25.74
987.47	-0.74
987.634	22.89
987.799	49.63
987.963	29.29
988.127	54.48
988.291	97.49
988.455	31.61
988.62	5.26
988.784	52.34
988.948	20.57
989.112	-8.3
989.276	21.34
989.44	44.01
989.604	-20.7
989.768	31.23
989.932	116.28
990.096	-3.65
990.26	-25.54
990.424	-38.91
990.588	13.59
990.752	98.65
990.915	37.23
991.079	4.68
991.243	10.11
991.407	60.87
991.571	27.16
991.734	35.29
991.898	59.71
992.062	123.84
992.226	23.09
992.389	-8.49
992.553	-31.35
992.717	-4.42
992.88	-8.3
993.044	34.91
993.207	17.66
993.371	75.21
993.535	18.63
993.698	12.63
993.862	52.73
994.025	63.19
994.189	22.12
994.352	31.81
994.515	31.03
994.679	77.72
994.842	2.74
995.006	26.19
995.169	8.75
995.332	-3.65
995.496	38.98
995.659	-17.79
995.822	16.31
995.985	18.44
996.149	65.91
996.312	-2.87
996.475	55.44
996.638	2.55
996.801	82.37
996.964	83.34
997.128	14.56
997.291	-4.42
997.454	25.41
997.617	-22.25
997.78	56.61
997.943	2.16
998.106	42.08
998.269	-0.74
998.432	18.83
998.595	39.56
998.758	-37.75
998.92	-16.63
999.083	-48.99
999.246	8.94
999.409	-57.32
999.572	-45.5
999.735	8.75
999.897	49.24
1000.06	-1.52
1000.223	2.36
1000.386	47.89
1000.548	37.81
1000.711	36.65
1000.874	49.83
1001.036	-19.73
1001.199	54.48
1001.361	-36.39
1001.524	16.11
1001.687	42.46
1001.849	-2.1
1002.012	44.79
1002.174	39.17
1002.337	31.03
1002.499	12.43
1002.661	58.93
1002.824	0.03
1002.986	-6.36
1003.149	33.94
1003.311	-15.08
1003.473	78.11
1003.636	-12.37
1003.798	32.97
1003.96	49.24
1004.123	11.66
1004.285	2.36
1004.447	19.99
1004.609	3.91
1004.771	88.19
1004.933	-17.4
1005.096	-24.38
1005.258	-21.09
1005.42	4.68
1005.582	59.9
1005.744	14.37
1005.906	-51.12
1006.068	20.18
1006.23	-38.14
1006.392	-18.76
1006.554	-11.21
1006.716	49.24
1006.878	35.49
1007.04	-45.89
1007.202	10.49
1007.363	9.91
1007.525	36.07
1007.687	45.95
1007.849	69.98
1008.011	-29.03
1008.172	-21.86
1008.334	3.91
1008.496	47.69
1008.658	-31.94
1008.819	-28.06
1008.981	-8.69
1009.143	-29.8
1009.304	-8.49
1009.466	45.18
1009.627	50.79
1009.789	119.38
1009.95	20.96
1010.112	-24.19
1010.273	17.47
1010.435	-14.5
1010.596	-16.63
1010.758	16.11
1010.919	8.36
1011.081	-46.08
1011.242	6.23
1011.403	52.15
1011.565	7.98
1011.726	14.56
1011.887	-16.63
1012.049	3.71
1012.21	37.04
1012.371	76.37
1012.532	-58.48
1012.693	7.78
1012.855	-23.6
1013.016	5.26
1013.177	63.78
1013.338	16.89
1013.499	60.87
1013.66	15.14
1013.821	21.93
1013.982	18.63
1014.143	3.52
1014.304	-5.78
1014.465	26.58
1014.626	47.5
1014.787	-11.98
1014.948	80.44
1015.109	-63.52
1015.27	39.94
1015.431	-13.14
1015.592	-16.44
1015.752	62.23
1015.913	26.19
1016.074	6.23
1016.235	10.11
1016.395	0.61
1016.556	-13.14
1016.717	3.13
1016.877	61.64
1017.038	-19.34
1017.199	18.24
1017.359	13.4
1017.52	25.03
1017.681	-11.79
1017.841	2.74
1018.002	-15.08
1018.162	17.47
1018.323	54.86
1018.483	-4.81
1018.644	-15.08
1018.804	-33.1
1018.964	-3.84
1019.125	-10.82
1019.285	31.03
1019.446	-18.57
1019.606	-11.21
1019.766	-52.67
1019.926	23.09
1020.087	14.56
1020.247	-31.94
1020.407	37.23
1020.567	56.03
1020.728	14.95
1020.888	-14.31
1021.048	-20.89
1021.208	-44.92
1021.368	-11.98
1021.528	37.62
1021.688	24.06
1021.848	37.62
1022.008	3.91
1022.168	-13.34
1022.328	-7.52
1022.488	20.96
1022.648	-12.56
1022.808	18.24
1022.968	-2.1
1023.128	-11.79
1023.288	0.61
1023.448	25.99
1023.608	43.04
1023.767	14.76
1023.927	-5.78
1024.087	-30
1024.247	-27.29
1024.406	-23.02
1024.566	-30.58
1024.726	-14.69
1024.885	12.24
1025.045	35.88
1025.205	-12.17
1025.364	-0.55
1025.524	11.08
1025.683	3.52
1025.843	38.39
1026.003	-2.1
1026.162	56.03
1026.321	32.97
1026.481	20.18
1026.64	-9.07
1026.8	-4.23
1026.959	22.12
1027.119	12.43
1027.278	-1.52
1027.437	1.78
1027.597	6.23
1027.756	10.88
1027.915	8.56
1028.074	27.93
1028.234	-28.64
1028.393	6.43
1028.552	-1.52
1028.711	-86.38
1028.87	48.66
1029.03	-28.45
1029.189	5.07
1029.348	-55.38
1029.507	-19.15
1029.666	-17.79
1029.825	-52.47
1029.984	-6.17
1030.143	34.71
1030.302	-1.32
1030.461	-48.99
1030.62	15.14
1030.779	42.46
1030.938	-25.15
1031.097	-22.25
1031.255	26.96
1031.414	54.28
1031.573	52.54
1031.732	-68.75
1031.891	-9.27
1032.049	54.48
1032.208	7.98
1032.367	-35.04
1032.525	3.52
1032.684	-15.66
1032.843	5.07
1033.001	-27.67
1033.16	149.8
1033.319	61.64
1033.477	10.88
1033.636	3.91
1033.794	-26.9
1033.953	36.84
1034.111	47.31
1034.27	-26.51
1034.428	8.17
1034.587	-26.32
1034.745	7.98
1034.903	14.56
1035.062	5.65
1035.22	-32.32
1035.378	26.19
1035.537	-29.22
1035.695	37.43
1035.853	-9.27
1036.011	37.62
1036.17	10.69
1036.328	-48.4
1036.486	0.03
1036.644	12.24
1036.802	-79.21
1036.96	-32.9
1037.119	3.91
1037.277	9.33
1037.435	-45.5
1037.593	-59.84
1037.751	5.26
1037.909	49.44
1038.067	49.44
