Data from pine_FLMT105791__174__17-23-28-073.txt Node

Date: Mon Mar 20 17:23:28 GMT 2023
User: antho
Spectrometer: FLMT10579
Trigger mode: 0
Integration Time (sec): 1.000000E-1
Scans to average: 10
Electric dark correction enabled: true
Nonlinearity correction enabled: false
Boxcar width: 0
XAxis mode: Wavelengths
Number of Pixels in Spectrum: 3648
>>>>>Begin Spectral Data<<<<<
345.248	-164.96
345.464	-164.96
345.681	-164.96
345.898	-179.68
346.114	-183.56
346.331	-45.03
346.548	15.61
346.764	-3.18
346.981	-8.41
347.197	-2.41
347.414	29.56
347.631	-41.16
347.847	56.3
348.064	9.03
348.28	29.76
348.497	-30.69
348.713	-9.38
348.93	21.23
349.146	14.64
349.363	-4.34
349.579	8.64
349.796	-15.19
350.012	5.73
350.229	26.27
350.445	9.8
350.661	-39.22
350.878	0.5
351.094	2.63
351.311	23.36
351.527	13.48
351.743	-5.89
351.96	25.49
352.176	22.78
352.392	27.04
352.609	36.73
352.825	0.5
353.041	12.51
353.257	-17.13
353.474	16.19
353.69	17.55
353.906	21.43
354.122	-48.32
354.339	47.58
354.555	28.4
354.771	-14.22
354.987	49.91
355.203	44.48
355.42	-18.1
355.636	-10.93
355.852	-6.67
356.068	-25.66
356.284	-37.67
356.5	62.11
356.716	7.67
356.932	16
357.148	24.14
357.364	-13.45
357.58	17.74
357.796	37.51
358.012	24.53
358.228	33.24
358.444	-34.76
358.66	44.48
358.876	36.34
359.092	-17.91
359.308	12.13
359.524	12.51
359.74	-4.54
359.956	-32.63
360.172	-13.06
360.388	31.5
360.604	-25.07
360.819	94.86
361.035	14.45
361.251	31.69
361.467	-21.59
361.683	41.77
361.898	17.94
362.114	35.96
362.33	3.02
362.546	12.71
362.762	12.13
362.977	27.63
363.193	-7.83
363.409	38.28
363.624	-34.37
363.84	-8.22
364.056	-35.73
364.271	24.72
364.487	-7.83
364.703	-14.42
364.918	-41.74
365.134	-8.41
365.35	-3.18
365.565	121.98
365.781	14.84
365.996	-5.51
366.212	71.99
366.427	13.87
366.643	-18.68
366.858	-15.97
367.074	-7.25
367.289	43.71
367.505	80.52
367.72	-36.51
367.936	-21.59
368.151	27.04
368.367	21.81
368.582	-10.74
368.798	-1.05
369.013	66.57
369.228	22.2
369.444	3.21
369.659	20.46
369.874	40.99
370.09	60.17
370.305	-35.34
370.52	-8.8
370.736	42.74
370.951	-5.7
371.166	51.84
371.381	52.81
371.597	56.3
371.812	-25.27
372.027	-11.51
372.242	0.11
372.458	59.59
372.673	-26.82
372.888	1.66
373.103	49.52
373.318	92.72
373.533	27.04
373.749	34.41
373.964	-9.19
374.179	48.55
374.394	-8.02
374.609	42.54
374.824	-7.64
375.039	45.06
375.254	-6.28
375.469	57.46
375.684	4.18
375.899	46.42
376.114	29.18
376.329	17.16
376.544	36.15
376.759	36.92
376.974	-15.39
377.189	-13.84
377.404	-17.91
377.619	28.01
377.834	-16.55
378.049	-14.81
378.264	-12.09
378.478	26.08
378.693	0.89
378.908	51.07
379.123	1.08
379.338	32.86
379.553	18.71
379.767	15.23
379.982	29.95
380.197	34.99
380.412	-4.73
380.626	9.8
380.841	108.22
381.056	30.53
381.271	64.63
381.485	-19.26
381.7	-35.15
381.915	10.96
382.129	-10.93
382.344	41.96
382.559	22.98
382.773	42.35
382.988	-45.42
383.202	6.7
383.417	-13.64
383.632	107.84
383.846	6.12
384.061	12.32
384.275	16.97
384.49	11.16
384.704	37.89
384.919	11.74
385.133	47.19
385.348	44.67
385.562	-19.26
385.777	48.16
385.991	1.86
386.206	7.09
386.42	-16.74
386.634	57.66
386.849	31.31
387.063	-0.27
387.277	-36.7
387.492	-2.02
387.706	-20.23
387.92	-10.74
388.135	58.43
388.349	-16.36
388.563	6.51
388.778	7.09
388.992	31.69
389.206	23.75
389.42	98.15
389.635	8.06
389.849	48.16
390.063	58.82
390.277	13.29
390.491	55.33
390.706	43.32
390.92	35.38
391.134	7.67
391.348	27.24
391.562	-15.58
391.776	10.38
391.99	-15.58
392.205	30.73
392.419	-13.26
392.633	-21.59
392.847	56.69
393.061	7.48
393.275	65.79
393.489	4.57
393.703	50.1
393.917	43.71
394.131	7.48
394.345	54.36
394.559	49.32
394.773	-22.56
394.986	18.91
395.2	1.08
395.414	38.86
395.628	-27.4
395.842	24.53
396.056	-0.47
396.27	-25.66
396.484	51.65
396.697	47.97
396.911	99.12
397.125	32.66
397.339	65.02
397.553	72.19
397.766	55.72
397.98	53.01
398.194	57.27
398.408	-11.51
398.621	42.35
398.835	65.02
399.049	34.99
399.262	41.38
399.476	42.93
399.69	46.03
399.903	102.61
400.117	16.58
400.331	24.72
400.544	-11.71
400.758	131.28
400.971	23.17
401.185	62.11
401.398	0.5
401.612	49.71
401.826	55.52
402.039	20.65
402.253	2.63
402.466	41.77
402.68	40.41
402.893	35.96
403.106	10.77
403.32	26.27
403.533	14.06
403.747	69.47
403.96	47.97
404.174	48.16
404.387	-22.94
404.6	19.1
404.814	65.99
405.027	15.61
405.24	39.25
405.454	-2.99
405.667	72.57
405.88	-35.73
406.094	42.54
406.307	70.06
406.52	62.11
406.733	11.35
406.947	-2.02
407.16	72.77
407.373	77.22
407.586	-1.05
407.799	-3.76
408.012	73.54
408.226	42.54
408.439	89.43
408.652	-9.57
408.865	31.5
409.078	71.61
409.291	42.54
409.504	-2.6
409.717	66.18
409.93	53.2
410.143	31.89
410.357	-11.9
410.57	-12.48
410.783	14.26
410.996	29.37
411.209	52.23
411.421	64.24
411.634	21.81
411.847	4.18
412.06	33.44
412.273	14.26
412.486	41.38
412.699	112.68
412.912	28.98
413.125	58.82
413.338	18.13
413.55	21.23
413.763	31.89
413.976	59.21
414.189	4.38
414.402	25.69
414.615	81.29
414.827	-9.19
415.04	58.04
415.253	46.81
415.466	74.32
415.678	84.78
415.891	36.54
416.104	28.79
416.316	37.89
416.529	7.48
416.742	55.72
416.954	58.82
417.167	20.26
417.38	31.31
417.592	73.35
417.805	-8.8
418.017	-22.36
418.23	83.42
418.442	25.11
418.655	20.26
418.868	29.76
419.08	68.31
419.293	78.77
419.505	47
419.718	71.22
419.93	79.55
420.142	16.58
420.355	66.76
420.567	83.23
420.78	49.91
420.992	11.74
421.205	123.72
421.417	-4.34
421.629	24.14
421.842	22.98
422.054	-8.8
422.266	76.64
422.479	67.92
422.691	38.67
422.903	78.39
423.115	9.61
423.328	16.39
423.54	57.66
423.752	47.58
423.964	-6.09
424.177	75.09
424.389	20.46
424.601	125.27
424.813	34.41
425.025	73.93
425.238	74.32
425.45	18.33
425.662	43.9
425.874	317.66
426.086	59.01
426.298	55.14
426.51	52.04
426.722	68.12
426.934	49.91
427.146	71.8
427.358	9.99
427.57	78.19
427.782	59.59
427.994	26.27
428.206	37.12
428.418	9.03
428.63	81.1
428.842	71.41
429.054	65.6
429.266	97.37
429.478	24.53
429.69	59.4
429.902	-9.77
430.114	89.82
430.325	80.52
430.537	48.16
430.749	51.26
430.961	5.15
431.173	54.56
431.384	84.39
431.596	-32.24
431.808	54.36
432.02	64.05
432.231	68.7
432.443	96.79
432.655	45.84
432.867	-0.27
433.078	83.62
433.29	104.16
433.502	85.56
433.713	90.01
433.925	60.17
434.136	108.22
434.348	45.45
434.56	11.93
434.771	144.07
434.983	16.58
435.194	71.22
435.406	42.93
435.617	92.53
435.829	148.33
436.04	111.91
436.252	113.46
436.463	111.13
436.675	98.34
436.886	61.14
437.098	93.31
437.309	124.89
437.521	100.09
437.732	53.2
437.943	75.87
438.155	72.38
438.366	51.46
438.578	123.14
438.789	87.49
439	123.72
439.211	61.14
439.423	108.42
439.634	93.31
439.845	98.92
440.057	90.01
440.268	117.14
440.479	69.86
440.69	64.05
440.902	45.45
441.113	92.72
441.324	84.2
441.535	124.5
441.746	138.06
441.957	70.83
442.168	98.73
442.38	101.83
442.591	110.74
442.802	64.63
443.013	51.07
443.224	119.85
443.435	93.5
443.646	117.72
443.857	80.71
444.068	74.9
444.279	74.71
444.49	142.52
444.701	81.29
444.912	197.15
445.123	132.25
445.334	145.04
445.545	123.34
445.756	106.29
445.967	72.96
446.178	137.67
446.388	128.37
446.599	141.35
446.81	134.38
447.021	79.74
447.232	154.72
447.443	153.95
447.653	60.17
447.864	148.72
448.075	125.47
448.286	148.14
448.496	143.1
448.707	149.69
448.918	122.56
449.129	211.49
449.339	96.02
449.55	147.36
449.761	120.82
449.971	142.9
450.182	118.49
450.393	142.71
450.603	69.47
450.814	155.11
451.024	141.16
451.235	145.62
451.446	183.59
451.656	190.57
451.867	118.11
452.077	144.07
452.288	175.07
452.498	166.15
452.709	140.97
452.919	145.42
453.13	132.83
453.34	158.02
453.55	79.55
453.761	166.54
453.971	168.48
454.182	146.59
454.392	149.69
454.602	208.59
454.813	147.17
455.023	162.28
455.233	109.97
455.444	124.3
455.654	72.57
455.864	116.94
456.075	131.28
456.285	120.04
456.495	138.06
456.705	123.34
456.916	186.11
457.126	203.16
457.336	134.19
457.546	74.71
457.756	137.67
457.967	191.54
458.177	134.57
458.387	171.77
458.597	116.36
458.807	162.47
459.017	137.87
459.227	130.89
459.437	139.42
459.647	171.97
459.857	148.72
460.068	106.29
460.278	173.13
460.488	145.42
460.698	218.66
460.908	142.52
461.117	122.76
461.327	123.14
461.537	155.3
461.747	183.4
461.957	152.4
462.167	226.6
462.377	188.05
462.587	151.62
462.797	181.27
463.007	145.04
463.216	179.14
463.426	181.07
463.636	204.13
463.846	85.17
464.056	132.05
464.265	182.24
464.475	149.69
464.685	142.9
464.895	206.26
465.104	137.48
465.314	178.75
465.524	137.29
465.733	152.2
465.943	220.4
466.153	202.39
466.362	195.22
466.572	172.74
466.782	152.79
466.991	161.31
467.201	212.07
467.41	150.46
467.62	173.32
467.829	173.71
468.039	192.89
468.249	171.97
468.458	144.84
468.668	179.33
468.877	182.43
469.086	210.33
469.296	219.43
469.505	162.86
469.715	242.49
469.924	213.04
470.134	208.59
470.343	231.45
470.552	166.93
470.762	184.17
470.971	169.06
471.18	173.32
471.39	185.34
471.599	148.72
471.808	204.9
472.018	182.62
472.227	220.6
472.436	203.16
472.645	152.2
472.855	157.24
473.064	247.92
473.273	196.19
473.482	196.96
473.691	208.59
473.901	225.05
474.11	191.73
474.319	267.48
474.528	228.15
474.737	228.73
474.946	210.72
475.155	218.66
475.364	250.05
475.573	202.77
475.783	209.94
475.992	239.58
476.201	258.77
476.41	180.88
476.619	179.14
476.828	218.47
477.037	182.43
477.245	211.49
477.454	237.45
477.663	203.35
477.872	182.04
478.081	272.33
478.29	171.58
478.499	270.39
478.708	199.87
478.917	278.72
479.125	212.46
479.334	267.68
479.543	206.07
479.752	218.85
479.961	236.48
480.169	257.22
480.378	219.24
480.587	338.78
480.796	273.1
481.004	263.22
481.213	292.28
481.422	241.13
481.63	253.53
481.839	242.1
482.048	308.56
482.256	242.3
482.465	229.12
482.674	254.7
482.882	280.27
483.091	293.06
483.299	287.25
483.508	269.23
483.716	242.49
483.925	236.87
484.134	249.85
484.342	251.02
484.551	302.55
484.759	284.15
484.967	275.23
485.176	310.88
485.384	310.5
485.593	323.86
485.801	306.23
486.01	276.98
486.218	248.11
486.426	216.92
486.635	283.37
486.843	255.86
487.051	275.43
487.26	251.21
487.468	258.96
487.676	307.4
487.885	225.63
488.093	266.13
488.301	285.89
488.509	248.88
488.717	303.13
488.926	267.87
489.134	277.75
489.342	275.04
489.55	256.83
489.758	287.05
489.967	289.18
490.175	383.15
490.383	281.82
490.591	347.11
490.799	258.77
491.007	328.51
491.215	299.84
491.423	304.68
491.631	307.01
491.839	317.08
492.047	327.55
492.255	276.59
492.463	238.81
492.671	307.59
492.879	349.05
493.087	296.93
493.295	295.19
493.503	349.05
493.711	331.23
493.919	361.45
494.127	361.45
494.334	336.07
494.542	287.05
494.75	307.01
494.958	316.11
495.166	345.95
495.374	317.86
495.581	325.03
495.789	314.76
495.997	382.76
496.205	326.19
496.412	315.34
496.62	324.45
496.828	319.6
497.035	300.03
497.243	341.69
497.451	337.62
497.658	345.76
497.866	345.76
498.074	397.29
498.281	331.61
498.489	416.67
498.696	354.67
498.904	351.76
499.112	363.58
499.319	416.09
499.527	338.59
499.734	372.11
499.942	310.11
500.149	320.96
500.357	335.49
500.564	295.58
500.771	352.73
500.979	332
501.186	331.61
501.394	366.68
501.601	342.85
501.808	392.06
502.016	376.95
502.223	336.85
502.43	375.01
502.638	328.71
502.845	311.46
503.052	437.21
503.26	346.92
503.467	432.94
503.674	344.6
503.881	376.56
504.089	446.89
504.296	379.86
504.503	313.4
504.71	342.08
504.917	335.1
505.125	402.91
505.332	360.1
505.539	403.49
505.746	405.04
505.953	387.22
506.16	407.76
506.367	418.99
506.574	400.98
506.781	406.01
506.988	338.78
507.195	371.14
507.402	370.36
507.609	409.5
507.816	372.5
508.023	386.64
508.23	367.07
508.437	361.84
508.644	403.88
508.851	436.82
509.058	396.91
509.265	396.33
509.472	447.48
509.679	468.59
509.885	397.1
510.092	418.41
510.299	395.94
510.506	413.18
510.713	433.33
510.92	393.42
511.126	378.5
511.333	435.85
511.54	424.42
511.746	452.32
511.953	462.01
512.16	466.46
512.367	403.69
512.573	391.09
512.78	402.14
512.987	426.16
513.193	451.35
513.4	350.8
513.606	404.85
513.813	436.63
514.02	407.56
514.226	486.81
514.433	459.68
514.639	403.11
514.846	432.75
515.052	381.99
515.259	415.7
515.465	425.78
515.672	426.16
515.878	500.17
516.085	391.48
516.291	445.93
516.497	419.19
516.704	418.03
516.91	384.31
517.117	364.75
517.323	365.13
517.529	398.07
517.736	412.99
517.942	395.16
518.148	399.62
518.354	425.97
518.561	445.54
518.767	409.5
518.973	492.42
519.179	461.43
519.386	402.91
519.592	406.01
519.798	424.23
520.004	471.69
520.21	389.54
520.417	464.33
520.623	487.77
520.829	480.22
521.035	496.88
521.241	486.61
521.447	515.48
521.653	553.26
521.859	461.43
522.065	469.18
522.271	563.72
522.477	520.32
522.683	533.31
522.889	493.97
523.095	490.29
523.301	484.29
523.507	447.48
523.713	503.08
523.919	448.06
524.125	509.67
524.331	462.39
524.537	534.27
524.742	531.17
524.948	508.7
525.154	533.11
525.36	618.94
525.566	541.06
525.772	590.27
525.977	491.07
526.183	563.72
526.389	559.27
526.595	493.97
526.8	507.73
527.006	477.89
527.212	464.91
527.417	466.27
527.623	451.74
527.829	537.37
528.034	552.68
528.24	514.71
528.446	480.41
528.651	549
528.857	557.33
529.062	574.96
529.268	488.16
529.473	517.22
529.679	529.82
529.884	600.92
530.09	583.87
530.295	625.34
530.501	585.62
530.706	567.21
530.912	522.07
531.117	599.37
531.323	545.9
531.528	532.92
531.733	598.79
531.939	546.09
532.144	600.54
532.35	583.29
532.555	619.33
532.76	628.05
532.966	635.6
533.171	574.96
533.376	551.52
533.581	511.61
533.787	582.9
533.992	573.8
534.197	604.8
534.402	587.17
534.607	587.94
534.813	662.53
535.018	593.17
535.223	584.07
535.428	601.7
535.633	634.64
535.838	600.34
536.043	610.8
536.249	693.15
536.454	591.24
536.659	616.81
536.864	591.43
537.069	596.47
537.274	617
537.479	650.72
537.684	606.74
537.889	593.17
538.094	675.13
538.299	615.65
538.504	615.26
538.708	633.86
538.913	622.82
539.118	590.85
539.323	640.25
539.528	596.27
539.733	603.83
539.938	638.7
540.142	650.33
540.347	605.38
540.552	611.39
540.757	623.2
540.962	617.59
541.166	552.87
541.371	576.12
541.576	606.35
541.781	525.36
541.985	620.49
542.19	628.05
542.395	659.82
542.599	660.79
542.804	667.77
543.008	699.54
543.213	613.71
543.418	588.14
543.622	659.63
543.827	596.66
544.031	679.2
544.236	679.2
544.44	619.33
544.645	704
544.849	620.1
545.054	655.56
545.258	733.25
545.463	712.13
545.667	622.04
545.872	683.07
546.076	661.57
546.281	639.09
546.485	633.86
546.689	674.74
546.894	691.02
547.098	645.29
547.302	611.77
547.507	641.61
547.711	664.08
547.915	704
548.119	616.23
548.324	624.37
548.528	684.43
548.732	656.33
548.936	700.51
549.141	704.19
549.345	622.62
549.549	638.9
549.753	656.33
549.957	704.38
550.161	712.91
550.366	665.25
550.57	622.24
550.774	670.48
550.978	635.22
551.182	677.07
551.386	637.54
551.59	635.41
551.794	634.25
551.998	657.11
552.202	634.64
552.406	582.13
552.61	646.65
552.814	661.76
553.018	739.26
553.222	650.91
553.426	655.56
553.63	700.32
553.833	659.63
554.037	626.3
554.241	700.12
554.445	672.42
554.649	638.32
554.853	637.54
555.056	692.57
555.26	688.88
555.464	673.77
555.668	687.72
555.871	708.07
556.075	719.11
556.279	636.19
556.483	616.04
556.686	670.87
556.89	674.16
557.094	680.17
557.297	621.27
557.501	700.12
557.704	606.93
557.908	703.8
558.112	624.17
558.315	744.3
558.519	650.13
558.722	670.28
558.926	660.02
559.129	591.82
559.333	585.04
559.536	576.32
559.74	607.51
559.943	601.31
560.147	572.25
560.35	636.96
560.553	607.32
560.757	543.38
560.96	676.1
561.164	592.79
561.367	691.02
561.57	592.01
561.774	642.19
561.977	603.05
562.18	598.79
562.384	685.2
562.587	634.05
562.79	610.22
562.993	639.29
563.197	665.83
563.4	683.07
563.603	688.5
563.806	738.29
564.009	599.95
564.212	666.41
564.416	604.6
564.619	676.87
564.822	584.07
565.025	685.4
565.228	610.22
565.431	650.72
565.634	539.7
565.837	575.54
566.04	608.09
566.243	616.42
566.446	532.92
566.649	615.65
566.852	576.7
567.055	593.75
567.258	614.1
567.461	692.76
567.664	655.75
567.867	537.18
568.07	649.94
568.273	617.78
568.475	664.47
568.678	610.8
568.881	605.38
569.084	636.96
569.287	519.16
569.489	559.07
569.692	613.52
569.895	626.3
570.098	571.28
570.3	555.59
570.503	485.26
570.706	557.33
570.909	536.02
571.111	514.12
571.314	529.24
571.516	563.92
571.719	558.11
571.922	531.17
572.124	511.99
572.327	580.39
572.529	524.59
572.732	505.79
572.935	572.25
573.137	595.69
573.34	554.23
573.542	612.35
573.745	554.42
573.947	562.56
574.15	557.14
574.352	531.17
574.554	599.37
574.757	518.77
574.959	556.17
575.162	535.63
575.364	500.95
575.566	634.25
575.769	494.75
575.971	556.56
576.173	459.49
576.376	511.22
576.578	566.63
576.78	638.12
576.982	474.79
577.185	507.34
577.387	497.27
577.589	490.1
577.791	567.4
577.993	559.07
578.196	526.91
578.398	530.01
578.6	591.24
578.802	494.56
579.004	453.87
579.206	493.01
579.408	533.11
579.61	500.56
579.812	551.52
580.014	499.4
580.216	495.91
580.418	500.95
580.62	486.42
580.822	466.85
581.024	483.32
581.226	525.17
581.428	488.74
581.63	568.18
581.832	483.51
582.034	562.95
582.236	525.17
582.438	531.17
582.64	586.39
582.841	598.21
583.043	620.49
583.245	530.01
583.447	525.36
583.649	525.36
583.85	522.26
584.052	587.75
584.254	504.63
584.456	567.02
584.657	478.28
584.859	534.27
585.061	532.34
585.262	519.74
585.464	490.1
585.666	542.99
585.867	511.02
586.069	563.92
586.27	541.64
586.472	525.75
586.674	501.14
586.875	468.98
587.077	485.45
587.278	526.91
587.48	506.76
587.681	604.8
587.883	523.62
588.084	480.8
588.285	499.98
588.487	503.08
588.688	526.52
588.89	493.97
589.091	491.65
589.292	510.64
589.494	469.56
589.695	494.17
589.896	412.41
590.098	395.94
590.299	477.7
590.5	419.58
590.702	418.41
590.903	459.29
591.104	504.63
591.305	468.79
591.507	514.71
591.708	505.6
591.909	460.26
592.11	533.31
592.311	510.25
592.512	465.11
592.714	426.16
592.915	448.06
593.116	466.66
593.317	478.86
593.518	448.64
593.719	455.81
593.92	532.53
594.121	519.16
594.322	491.65
594.523	496.88
594.724	438.18
594.925	446.7
595.126	512.77
595.327	526.52
595.528	479.64
595.729	498.43
595.929	490.29
596.13	462.2
596.331	482.54
596.532	482.93
596.733	561.59
596.934	507.92
597.135	502.11
597.335	476.92
597.536	454.64
597.737	490.68
597.938	451.74
598.138	488.36
598.339	464.53
598.54	504.63
598.74	487.77
598.941	509.67
599.142	545.32
599.342	515.87
599.543	453.87
599.744	495.72
599.944	478.67
600.145	454.26
600.345	526.14
600.546	561.2
600.746	527.11
600.947	575.15
601.147	482.74
601.348	534.66
601.548	481.57
601.749	489.32
601.949	442.44
602.15	475.76
602.35	472.47
602.551	539.89
602.751	448.64
602.951	479.64
603.152	387.8
603.352	510.25
603.552	492.23
603.753	538.15
603.953	517.81
604.153	475.18
604.354	455.03
604.554	477.89
604.754	464.53
604.954	439.14
605.155	485.64
605.355	456.78
605.555	489.32
605.755	546.29
605.955	493.59
606.155	491.07
606.356	475.57
606.556	520.91
606.756	479.25
606.956	444.38
607.156	517.81
607.356	460.65
607.556	490.87
607.756	474.41
607.956	537.76
608.156	466.27
608.356	466.08
608.556	513.93
608.756	476.15
608.956	469.37
609.156	486.61
609.356	452.71
609.556	463.94
609.755	498.04
609.955	466.46
610.155	466.08
610.355	449.61
610.555	436.63
610.755	494.75
610.954	428.49
611.154	483.12
611.354	499.79
611.554	470.92
611.753	446.51
611.953	436.43
612.153	508.89
612.352	504.63
612.552	428.88
612.752	423.06
612.951	445.54
613.151	468.01
613.351	412.6
613.55	450.58
613.75	456
613.949	484.87
614.149	494.36
614.348	478.86
614.548	438.18
614.747	411.63
614.947	447.28
615.146	386.44
615.346	492.04
615.545	473.63
615.745	444.57
615.944	487.77
616.144	464.14
616.343	470.73
616.542	429.46
616.742	453.87
616.941	453.29
617.14	392.06
617.34	454.06
617.539	446.51
617.738	429.07
617.938	527.11
618.137	435.27
618.336	385.48
618.535	461.23
618.734	422.87
618.934	450.19
619.133	455.61
619.332	441.28
619.531	433.53
619.73	441.66
619.929	467.04
620.128	455.42
620.328	480.61
620.527	397.1
620.726	432.75
620.925	461.81
621.124	424.23
621.323	443.79
621.522	411.05
621.721	388.19
621.92	398.65
622.119	451.74
622.318	425.78
622.517	454.64
622.715	433.14
622.914	355.83
623.113	414.73
623.312	367.85
623.511	444.76
623.71	417.64
623.909	411.24
624.107	460.07
624.306	379.28
624.505	378.11
624.704	400.98
624.902	409.89
625.101	458.71
625.3	402.91
625.499	386.06
625.697	415.31
625.896	388.77
626.095	438.37
626.293	372.3
626.492	382.18
626.69	409.31
626.889	383.15
627.088	409.69
627.286	349.83
627.485	363.97
627.683	393.23
627.882	412.6
628.08	339.75
628.279	387.61
628.477	480.02
628.676	359.71
628.874	419.19
629.073	394.39
629.271	382.18
629.469	382.18
629.668	385.28
629.866	411.83
630.065	405.82
630.263	432.36
630.461	342.27
630.66	401.17
630.858	424.03
631.056	425.97
631.254	435.27
631.453	384.9
631.651	434.3
631.849	418.41
632.047	422.68
632.245	412.41
632.444	400.2
632.642	419.58
632.84	405.82
633.038	388.96
633.236	361.06
633.434	359.32
633.632	364.36
633.83	379.28
634.028	405.24
634.227	367.65
634.425	432.17
634.623	392.84
634.821	359.13
635.019	394.97
635.216	363.39
635.414	403.11
635.612	381.8
635.81	358.16
636.008	436.24
636.206	381.21
636.404	397.49
636.602	368.81
636.8	375.6
636.997	401.17
637.195	408.53
637.393	393.03
637.591	444.57
637.789	384.9
637.986	383.93
638.184	394.58
638.382	419.96
638.58	449.41
638.777	448.64
638.975	395.36
639.173	402.72
639.37	406.98
639.568	420.16
639.765	414.15
639.963	398.84
640.161	436.63
640.358	428.88
640.556	390.51
640.753	351.38
640.951	351.18
641.148	383.93
641.346	375.4
641.543	397.1
641.741	400.39
641.938	353.12
642.136	376.37
642.333	369.59
642.531	439.92
642.728	435.46
642.925	397.68
643.123	359.13
643.32	359.9
643.517	384.7
643.715	399.04
643.912	338.01
644.109	364.55
644.306	382.57
644.504	355.25
644.701	382.57
644.898	400.59
645.095	349.63
645.293	376.18
645.49	390.71
645.687	387.99
645.884	421.51
646.081	307.59
646.278	353.7
646.475	352.93
646.672	352.15
646.87	376.37
647.067	380.44
647.264	382.38
647.461	345.18
647.658	345.37
647.855	388.58
648.052	345.37
648.249	287.44
648.446	361.65
648.642	336.26
648.839	354.09
649.036	328.51
649.233	298.29
649.43	295.19
649.627	314.95
649.824	331.61
650.021	352.35
650.217	326.38
650.414	350.21
650.611	352.54
650.808	366.3
651.004	335.68
651.201	351.38
651.398	395.36
651.595	351.96
651.791	327.35
651.988	378.11
652.185	312.43
652.381	347.89
652.578	297.52
652.775	348.28
652.971	338.59
653.168	347.7
653.364	357.58
653.561	296.16
653.757	316.7
653.954	336.85
654.15	308.56
654.347	431.98
654.543	335.88
654.74	287.25
654.936	320.76
655.133	338.78
655.329	352.54
655.525	304.68
655.722	350.41
655.918	312.05
656.115	377.53
656.311	302.16
656.507	279.5
656.704	265.16
656.9	295.77
657.096	292.09
657.292	248.5
657.489	347.11
657.685	303.52
657.881	294.03
658.077	309.33
658.273	274.65
658.47	352.35
658.666	317.66
658.862	322.7
659.058	322.12
659.254	327.93
659.45	280.85
659.646	341.3
659.842	297.52
660.038	337.23
660.234	288.22
660.43	313.21
660.626	382.76
660.822	357
661.018	348.08
661.214	318.44
661.41	278.53
661.606	328.71
661.802	344.4
661.998	323.86
662.194	272.33
662.39	323.86
662.586	312.63
662.781	340.91
662.977	329.68
663.173	353.12
663.369	320.18
663.564	354.48
663.76	328.32
663.956	328.51
664.152	352.93
664.347	277.75
664.543	332.58
664.739	318.83
664.934	251.79
665.13	248.3
665.326	332.97
665.521	310.5
665.717	280.47
665.912	256.25
666.108	230.28
666.304	291.12
666.499	321.93
666.695	257.02
666.89	266.32
667.086	340.72
667.281	330.26
667.477	397.49
667.672	302.16
667.867	307.01
668.063	298.1
668.258	269.62
668.454	298.48
668.649	347.89
668.844	347.5
669.04	338.4
669.235	315.92
669.43	270.78
669.626	252.95
669.821	275.43
670.016	283.37
670.211	324.45
670.407	275.62
670.602	260.32
670.797	270.78
670.992	343.43
671.187	275.62
671.382	337.81
671.578	304.68
671.773	301.78
671.968	283.18
672.163	294.61
672.358	310.69
672.553	284.53
672.748	287.25
672.943	368.43
673.138	277.95
673.333	321.73
673.528	290.54
673.723	303.52
673.918	266.9
674.113	256.05
674.308	375.01
674.503	321.93
674.698	289.77
674.892	298.29
675.087	302.16
675.282	308.95
675.477	266.52
675.672	310.5
675.867	275.62
676.061	252.95
676.256	242.3
676.451	284.15
676.646	329.48
676.84	264.97
677.035	238.42
677.23	248.88
677.424	303.52
677.619	300.42
677.814	331.42
678.008	313.98
678.203	248.69
678.397	254.7
678.592	294.42
678.787	329.48
678.981	291.12
679.176	301.58
679.37	287.25
679.565	236.29
679.759	279.11
679.954	286.28
680.148	360.48
680.342	336.85
680.537	344.6
680.731	274.46
680.926	292.48
681.12	330.06
681.314	229.51
681.509	262.83
681.703	279.69
681.897	307.4
682.092	267.1
682.286	255.86
682.48	350.99
682.674	320.57
682.869	282.02
683.063	280.85
683.257	346.53
683.451	247.14
683.645	296.55
683.839	266.52
684.034	303.52
684.228	310.3
684.422	242.49
684.616	238.81
684.81	296.35
685.004	284.53
685.198	254.5
685.392	304.49
685.586	277.17
685.78	321.93
685.974	288.8
686.168	295
686.362	336.85
686.556	271.17
686.75	264.97
686.944	272.13
687.138	319.6
687.331	208.59
687.525	273.68
687.719	197.74
687.913	260.32
688.107	222.73
688.301	213.82
688.494	274.65
688.688	232.61
688.882	210.52
689.076	217.88
689.269	226.6
689.463	319.6
689.657	255.08
689.85	250.05
690.044	220.6
690.238	233.19
690.431	251.6
690.625	234.35
690.818	256.44
691.012	244.04
691.205	263.61
691.399	210.91
691.593	267.68
691.786	301.58
691.98	283.95
692.173	315.73
692.366	281.63
692.56	295.97
692.753	354.67
692.947	250.63
693.14	332
693.333	304.88
693.527	273.49
693.72	290.54
693.914	277.17
694.107	287.44
694.3	294.03
694.493	284.73
694.687	329.48
694.88	275.43
695.073	363.58
695.266	320.76
695.46	302.16
695.653	344.4
695.846	313.21
696.039	255.86
696.232	275.82
696.425	315.15
696.618	318.05
696.812	295.38
697.005	356.8
697.198	428.29
697.391	346.15
697.584	376.95
697.777	417.83
697.97	404.27
698.163	394.39
698.356	345.76
698.549	439.53
698.742	411.44
698.935	347.5
699.127	415.12
699.32	365.71
699.513	354.86
699.706	398.84
699.899	410.28
700.092	363.39
700.285	411.83
700.477	346.92
700.67	405.82
700.863	423.06
701.056	503.66
701.248	447.48
701.441	454.84
701.634	394.58
701.826	500.37
702.019	377.53
702.212	437.21
702.404	389.16
702.597	387.61
702.79	401.17
702.982	448.44
703.175	480.02
703.367	468.21
703.56	474.41
703.752	555.39
703.945	476.34
704.137	482.16
704.33	496.11
704.522	480.8
704.715	509.86
704.907	491.26
705.1	510.44
705.292	516.06
705.484	482.74
705.677	535.63
705.869	512.96
706.061	534.66
706.254	559.07
706.446	530.98
706.638	501.14
706.831	567.4
707.023	518.19
707.215	611.19
707.407	566.82
707.599	564.3
707.792	613.52
707.984	595.5
708.176	604.6
708.368	554.23
708.56	597.24
708.752	569.15
708.944	569.15
709.136	627.27
709.329	581.16
709.521	694.12
709.713	671.25
709.905	660.4
710.097	667.38
710.289	574.38
710.481	624.56
710.672	663.7
710.864	678.42
711.056	730.35
711.248	670.87
711.44	699.15
711.632	652.46
711.824	700.7
712.016	768.9
712.207	746.81
712.399	732.09
712.591	803.39
712.783	729.96
712.975	746.23
713.166	711.36
713.358	738.87
713.55	827.8
713.741	782.66
713.933	775.3
714.125	759.8
714.316	733.64
714.508	848.73
714.7	831.09
714.891	778.01
715.083	872.17
715.274	783.63
715.466	785.76
715.657	838.84
715.849	730.93
716.04	804.16
716.232	765.41
716.423	860.93
716.615	773.94
716.806	785.56
716.998	783.82
717.189	721.82
717.381	679.58
717.572	678.23
717.763	754.37
717.955	672.03
718.146	715.82
718.337	638.9
718.528	664.08
718.72	618.75
718.911	670.87
719.102	651.68
719.293	691.6
719.485	661.76
719.676	656.53
719.867	596.47
720.058	650.72
720.249	624.56
720.44	657.88
720.632	676.48
720.823	714.65
721.014	769.68
721.205	716.98
721.396	764.45
721.587	811.33
721.778	760.96
721.969	808.04
722.16	841.17
722.351	805.71
722.542	924.29
722.733	931.07
722.924	829.93
723.115	924.48
723.305	911.89
723.496	937.85
723.687	833.03
723.878	827.99
724.069	858.22
724.26	861.32
724.45	814.82
724.641	812.11
724.832	838.84
725.023	849.31
725.213	848.92
725.404	822.18
725.595	837.29
725.785	799.71
725.976	867.52
726.167	849.31
726.357	856.86
726.548	927.58
726.739	860.74
726.929	922.35
727.12	931.46
727.31	980.67
727.501	917.51
727.691	939.59
727.882	930.49
728.072	951.61
728.263	947.34
728.453	964.2
728.644	936.69
728.834	939.79
729.024	947.54
729.215	930.87
729.405	976.21
729.596	1028.52
729.786	1013.02
729.976	1013.8
730.167	1024.26
730.357	976.99
730.547	1004.69
730.737	1005.27
730.928	1033.75
731.118	1059.52
731.308	1027.36
731.498	1055.07
731.688	1096.92
731.879	1059.14
732.069	1081.03
732.259	1135.47
732.449	1137.8
732.639	1199.02
732.829	1179.06
733.019	1199.6
733.209	1251.72
733.399	1222.27
733.589	1272.26
733.779	1240.87
733.969	1220.72
734.159	1296.28
734.349	1344.72
734.539	1369.13
734.729	1341.81
734.919	1376.88
735.109	1394.12
735.299	1357.31
735.488	1396.26
735.678	1364.09
735.868	1362.35
736.058	1378.82
736.248	1359.06
736.437	1287.56
736.627	1337.74
736.817	1444.11
737.007	1371.26
737.196	1409.24
737.386	1362.54
737.576	1356.54
737.765	1407.3
737.955	1363.32
738.144	1453.6
738.334	1439.65
738.524	1352.86
738.713	1431.13
738.903	1420.86
739.092	1436.17
739.282	1466.2
739.471	1458.64
739.661	1433.84
739.85	1454.57
740.04	1473.37
740.229	1492.35
740.419	1462.52
740.608	1497.78
740.797	1494.29
740.987	1617.32
741.176	1541.95
741.365	1459.22
741.555	1478.6
741.744	1534.98
741.933	1545.44
742.123	1528.78
742.312	1578.96
742.501	1596.78
742.69	1599.3
742.88	1513.28
743.069	1606.08
743.258	1576.05
743.447	1622.75
743.636	1592.52
743.825	1557.07
744.014	1566.37
744.204	1598.53
744.393	1589.23
744.582	1602.21
744.771	1621
744.96	1624.88
745.149	1639.8
745.338	1593.49
745.527	1608.02
745.716	1608.22
745.905	1583.03
746.094	1626.62
746.283	1632.05
746.471	1641.73
746.66	1685.91
746.849	1647.74
747.038	1673.51
747.227	1628.75
747.416	1676.03
747.604	1593.68
747.793	1599.69
747.982	1622.55
748.171	1631.66
748.359	1692.88
748.548	1677.58
748.737	1644.45
748.926	1668.28
749.114	1560.55
749.303	1665.56
749.491	1653.16
749.68	1621.2
749.869	1695.98
750.057	1659.75
750.246	1622.94
750.434	1631.66
750.623	1625.85
750.811	1643.48
751	1682.81
751.188	1621
751.377	1621.97
751.565	1623.33
751.754	1578.77
751.942	1595.82
752.131	1653.16
752.319	1579.93
752.507	1560.36
752.696	1624.88
752.884	1682.61
753.072	1611.12
753.261	1617.51
753.449	1607.63
753.637	1602.4
753.825	1708.38
754.014	1594.46
754.202	1641.54
754.39	1687.85
754.578	1660.91
754.766	1603.76
754.955	1574.89
755.143	1671.38
755.331	1584
755.519	1620.81
755.707	1585.93
755.895	1614.41
756.083	1621.58
756.271	1575.28
756.459	1580.32
756.647	1633.21
756.835	1597.75
757.023	1559.78
757.211	1624.88
757.399	1588.84
757.587	1592.13
757.775	1537.88
757.963	1556.48
758.151	1576.44
758.339	1563.65
758.526	1565.98
758.714	1597.17
758.902	1534.01
759.09	1497.2
759.278	1410.21
759.465	1324.18
759.653	1118.62
759.841	1079.48
760.028	878.76
760.216	796.8
760.404	801.26
760.591	623.2
760.779	534.08
760.967	459.29
761.154	362.42
761.342	416.09
761.529	412.79
761.717	437.01
761.905	391.29
762.092	409.89
762.28	361.45
762.467	390.51
762.655	356.41
762.842	378.89
763.029	391.29
763.217	428.88
763.404	376.95
763.592	395.55
763.779	390.32
763.966	412.21
764.154	442.44
764.341	503.27
764.528	462.39
764.716	497.07
764.903	514.71
765.09	538.92
765.277	571.67
765.465	691.6
765.652	666.22
765.839	694.31
766.026	781.69
766.213	753.98
766.4	792.93
766.588	955.29
766.775	918.47
766.962	990.55
767.149	966.52
767.336	1075.02
767.523	1006.44
767.71	1112.22
767.897	1171.7
768.084	1206
768.271	1204.06
768.458	1248.81
768.645	1294.15
768.832	1250.56
769.019	1287.56
769.206	1306.16
769.392	1339.88
769.579	1426.29
769.766	1373.59
769.953	1379.4
770.14	1439.07
770.327	1369.71
770.513	1436.75
770.7	1496.23
770.887	1380.95
771.073	1460.97
771.26	1419.89
771.447	1394.32
771.634	1417.18
771.82	1491.19
772.007	1390.25
772.193	1400.91
772.38	1470.27
772.567	1412.53
772.753	1453.41
772.94	1480.34
773.126	1466
773.313	1479.57
773.499	1470.07
773.686	1470.65
773.872	1440.43
774.059	1457.09
774.245	1374.94
774.432	1448.18
774.618	1378.04
774.804	1473.56
774.991	1393.93
775.177	1467.75
775.363	1413.31
775.55	1452.64
775.736	1393.93
775.922	1371.46
776.109	1403.42
776.295	1436.17
776.481	1429.58
776.667	1430.94
776.853	1422.02
777.04	1400.52
777.226	1378.43
777.412	1476.66
777.598	1389.86
777.784	1378.43
777.97	1389.28
778.156	1439.07
778.342	1336.58
778.528	1393.93
778.715	1337.74
778.901	1377.46
779.087	1405.56
779.272	1341.04
779.458	1348.01
779.644	1435.59
779.83	1337.94
780.016	1446.63
780.202	1349.37
780.388	1357.89
780.574	1292.79
780.76	1340.46
780.946	1390.25
781.131	1379.98
781.317	1353.82
781.503	1323.79
781.689	1332.13
781.874	1437.33
782.06	1343.75
782.246	1328.06
782.432	1334.64
782.617	1350.53
782.803	1393.74
782.989	1305.39
783.174	1329.22
783.36	1294.54
783.545	1306.36
783.731	1295.7
783.916	1267.61
784.102	1344.14
784.288	1266.64
784.473	1316.24
784.659	1306.36
784.844	1323.79
785.029	1255.01
785.215	1263.34
785.4	1257.73
785.586	1337.55
785.771	1272.06
785.956	1312.75
786.142	1286.01
786.327	1292.21
786.512	1281.94
786.698	1250.75
786.883	1252.69
787.068	1236.03
787.254	1267.22
787.439	1224.21
787.624	1235.25
787.809	1215.88
787.994	1227.89
788.18	1253.08
788.365	1218.01
788.55	1212.39
788.735	1212
788.92	1207.35
789.105	1229.25
789.29	1249.4
789.475	1208.9
789.66	1195.53
789.845	1169.77
790.03	1171.51
790.215	1245.13
790.4	1239.32
790.585	1271.68
790.77	1203.28
790.955	1125.4
791.14	1215.49
791.325	1251.91
791.51	1119.78
791.695	1156.4
791.879	1172.09
792.064	1157.37
792.249	1223.43
792.434	1163.18
792.618	1161.43
792.803	1181.58
792.988	1186.81
793.173	1188.75
793.357	1233.7
793.542	1150.97
793.727	1176.16
793.911	1197.28
794.096	1154.65
794.281	1198.25
794.465	1240.68
794.65	1167.83
794.834	1190.11
795.019	1254.05
795.203	1211.03
795.388	1246.88
795.572	1229.05
795.757	1192.63
795.941	1232.73
796.126	1214.13
796.31	1149.81
796.494	1202.51
796.679	1182.94
796.863	1168.8
797.048	1235.83
797.232	1209.68
797.416	1194.18
797.601	1170.54
797.785	1247.65
797.969	1249.78
798.153	1163.57
798.338	1187.01
798.522	1225.76
798.706	1233.12
798.89	1217.23
799.074	1285.24
799.258	1260.83
799.443	1201.54
799.627	1206.58
799.811	1240.29
799.995	1188.75
800.179	1174.03
800.363	1210.06
800.547	1201.73
800.731	1229.05
800.915	1174.61
801.099	1178.1
801.283	1197.08
801.467	1208.51
801.651	1179.45
801.835	1264.51
802.019	1236.03
802.202	1215.68
802.386	1153.88
802.57	1178.48
802.754	1180.23
802.938	1203.67
803.121	1194.18
803.305	1220.53
803.489	1226.34
803.673	1224.6
803.856	1180.03
804.04	1216.07
804.224	1216.46
804.407	1169.18
804.591	1180.23
804.775	1203.67
804.958	1223.24
805.142	1261.02
805.326	1202.31
805.509	1200.38
805.693	1220.91
805.876	1283.49
806.06	1221.5
806.243	1234.86
806.427	1256.56
806.61	1270.13
806.794	1192.63
806.977	1237.96
807.16	1207.35
807.344	1214.13
807.527	1225.18
807.71	1166.67
807.894	1190.69
808.077	1262.38
808.26	1187.4
808.444	1178.1
808.627	1240.68
808.81	1192.05
808.993	1155.04
809.177	1157.75
809.36	1189.14
809.543	1199.8
809.726	1119
809.909	1141.87
810.092	1115.9
810.276	1127.72
810.459	1154.27
810.642	1099.24
810.825	1100.6
811.008	1145.93
811.191	1055.26
811.374	1041.89
811.557	1076.19
811.74	1166.86
811.923	1013.22
812.106	1063.01
812.289	1029.1
812.472	1041.5
812.654	1060.3
812.837	1029.69
813.02	1010.89
813.203	1021.16
813.386	936.49
813.569	939.98
813.751	899.49
813.934	945.21
814.117	930.68
814.3	921.38
814.482	893.29
814.665	872.75
814.848	870.04
815.03	831.09
815.213	841.17
815.396	804.75
815.578	814.24
815.761	793.7
815.943	824.7
816.126	768.51
816.309	756.31
816.491	742.16
816.674	694.5
816.856	736.16
817.039	722.4
817.221	772.39
817.403	741.97
817.586	742.16
817.768	768.51
817.951	715.23
818.133	706.9
818.315	755.15
818.498	745.26
818.68	815.21
818.862	785.37
819.045	780.72
819.227	776.07
819.409	738.1
819.591	789.25
819.774	745.85
819.956	753.21
820.138	811.53
820.32	792.35
820.502	796.41
820.684	830.9
820.866	802.23
821.048	884.76
821.231	869.65
821.413	858.41
821.595	850.28
821.777	843.69
821.959	851.44
822.141	909.56
822.323	807.85
822.505	783.82
822.686	766.38
822.868	777.43
823.05	699.35
823.232	715.43
823.414	643.35
823.596	697.99
823.778	671.25
823.96	677.45
824.141	646.26
824.323	698.38
824.505	726.08
824.687	752.63
824.868	740.42
825.05	843.3
825.232	863.84
825.413	882.83
825.595	856.86
825.777	759.99
825.958	835.16
826.14	844.85
826.321	854.73
826.503	792.35
826.685	863.26
826.866	883.79
827.048	841.36
827.229	794.28
827.411	797.58
827.592	780.72
827.773	773.16
827.955	768.9
828.136	782.66
828.318	724.73
828.499	785.76
828.68	740.81
828.862	782.66
829.043	798.16
829.224	759.99
829.406	727.63
829.587	740.23
829.768	719.3
829.949	755.34
830.131	757.66
830.312	792.73
830.493	729.96
830.674	768.71
830.855	735.96
831.036	726.86
831.218	772.39
831.399	762.12
831.58	773.75
831.761	739.26
831.942	769.29
832.123	719.3
832.304	718.14
832.485	721.43
832.666	730.15
832.847	771.42
833.028	752.63
833.209	762.12
833.389	739.45
833.57	716.78
833.751	727.83
833.932	760.18
834.113	780.14
834.294	722.6
834.475	764.83
834.655	794.67
834.836	798.93
835.017	799.13
835.198	722.6
835.378	762.51
835.559	773.55
835.74	726.47
835.92	748.95
836.101	706.71
836.281	745.85
836.462	782.27
836.643	787.89
836.823	814.82
837.004	796.22
837.184	857.83
837.365	814.82
837.545	797
837.726	793.51
837.906	818.7
838.087	794.28
838.267	793.12
838.448	733.25
838.628	741.2
838.808	778.2
838.989	829.16
839.169	726.67
839.349	807.26
839.53	815.01
839.71	809.59
839.89	765.03
840.07	864.42
840.251	759.99
840.431	785.56
840.611	783.43
840.791	758.83
840.971	797.19
841.151	761.73
841.332	762.7
841.512	782.46
841.692	732.48
841.872	783.63
842.052	761.15
842.232	819.66
842.412	729.96
842.592	729.77
842.772	768.71
842.952	821.41
843.132	772.97
843.312	726.28
843.492	723.37
843.672	771.61
843.851	713.49
844.031	763.67
844.211	733.25
844.391	744.1
844.571	751.85
844.751	792.93
844.93	762.7
845.11	734.42
845.29	769.29
845.47	756.89
845.649	735.77
845.829	784.01
846.009	706.52
846.188	770.06
846.368	727.25
846.547	758.83
846.727	771.42
846.907	711.17
847.086	747.78
847.266	802.03
847.445	749.14
847.625	722.98
847.804	728.99
847.984	725.89
848.163	720.08
848.343	692.57
848.522	759.41
848.701	763.48
848.881	684.82
849.06	747.2
849.239	757.28
849.419	749.14
849.598	712.52
849.777	718.92
849.957	733.64
850.136	666.41
850.315	641.61
850.494	639.87
850.674	660.98
850.853	698.96
851.032	684.62
851.211	725.89
851.39	691.4
851.569	673.19
851.748	660.98
851.927	685.2
852.107	689.66
852.286	654.59
852.465	617.97
852.644	711.55
852.823	675.52
853.002	668.73
853.181	682.1
853.359	695.67
853.538	642.39
853.717	715.43
853.896	634.83
854.075	600.73
854.254	633.86
854.433	581.74
854.611	632.12
854.79	572.44
854.969	603.64
855.148	635.8
855.327	569.92
855.505	599.76
855.684	555.59
855.863	611.58
856.041	600.15
856.22	621.46
856.399	597.44
856.577	655.95
856.756	649.17
856.934	749.91
857.113	747.59
857.291	624.75
857.47	608.48
857.648	650.72
857.827	664.67
858.005	690.05
858.184	622.24
858.362	709.62
858.541	633.67
858.719	647.81
858.898	620.3
859.076	623.79
859.254	692.76
859.433	658.85
859.611	611.97
859.789	593.17
859.967	708.45
860.146	708.07
860.324	638.12
860.502	621.65
860.68	581.94
860.859	603.64
861.037	647.42
861.215	664.67
861.393	606.54
861.571	610.8
861.749	633.67
861.927	642.77
862.105	640.45
862.283	606.15
862.461	578.45
862.639	561.98
862.817	602.86
862.995	588.91
863.173	605.77
863.351	612.16
863.529	598.21
863.707	642.19
863.885	642.58
864.063	543.77
864.241	586.78
864.418	637.54
864.596	564.89
864.774	567.4
864.952	600.15
865.129	613.71
865.307	580.77
865.485	551.32
865.663	631.73
865.84	530.01
866.018	608.67
866.196	502.69
866.373	525.94
866.551	513.74
866.728	481.19
866.906	559.66
867.084	475.57
867.261	579.42
867.439	529.04
867.616	610.8
867.794	542.8
867.971	546.67
868.149	518.19
868.326	611.58
868.503	578.06
868.681	563.53
868.858	524.59
869.035	527.88
869.213	580.39
869.39	533.69
869.567	619.52
869.745	541.44
869.922	577.09
870.099	575.93
870.276	568.76
870.454	611.97
870.631	595.89
870.808	531.37
870.985	567.6
871.162	600.92
871.339	583.68
871.517	516.64
871.694	510.25
871.871	526.14
872.048	553.84
872.225	514.51
872.402	536.02
872.579	512.38
872.756	559.85
872.933	495.52
873.11	519.94
873.287	555.59
873.463	542.41
873.64	503.27
873.817	540.28
873.994	554.42
874.171	486.22
874.348	556.17
874.524	437.4
874.701	531.56
874.878	473.44
875.055	525.56
875.231	528.66
875.408	544.74
875.585	479.44
875.762	519.55
875.938	482.93
876.115	517.03
876.291	492.42
876.468	510.06
876.645	455.81
876.821	492.04
876.998	474.99
877.174	505.41
877.351	479.83
877.527	467.43
877.704	516.45
877.88	501.92
878.057	486.03
878.233	527.11
878.409	478.28
878.586	502.69
878.762	480.8
878.938	480.41
879.115	422.29
879.291	485.64
879.467	422.09
879.644	447.48
879.82	498.62
879.996	435.66
880.172	439.92
880.349	450.77
880.525	483.71
880.701	438.37
880.877	436.24
881.053	487.58
881.229	449.41
881.405	479.64
881.581	439.34
881.757	426.36
881.933	487.19
882.109	496.3
882.285	451.93
882.461	419.38
882.637	454.84
882.813	433.91
882.989	438.95
883.165	492.81
883.341	439.73
883.517	496.11
883.693	450.96
883.869	462.78
884.044	423.06
884.22	490.1
884.396	509.28
884.572	469.76
884.747	495.52
884.923	503.47
885.099	463.75
885.275	489.91
885.45	431.2
885.626	444.38
885.801	453.29
885.977	442.63
886.153	406.98
886.328	484.87
886.504	461.23
886.679	502.11
886.855	426.16
887.03	475.96
887.206	499.21
887.381	461.04
887.557	478.28
887.732	483.51
887.908	463.75
888.083	519.74
888.258	446.51
888.434	462.98
888.609	470.14
888.784	506.57
888.96	419.58
889.135	446.7
889.31	404.85
889.485	450.38
889.661	450.58
889.836	510.25
890.011	468.01
890.186	452.9
890.361	429.07
890.537	472.28
890.712	467.63
890.887	446.51
891.062	463.36
891.237	493.01
891.412	412.79
891.587	483.9
891.762	503.47
891.937	521.68
892.112	418.8
892.287	444.57
892.462	405.04
892.637	393.81
892.812	397.29
892.987	407.95
893.161	408.73
893.336	435.85
893.511	413.57
893.686	414.73
893.861	411.44
894.035	418.61
894.21	392.84
894.385	357.38
894.56	448.06
894.734	374.43
894.909	368.62
895.084	389.35
895.258	379.47
895.433	386.06
895.608	394.97
895.782	344.21
895.957	335.68
896.131	358.55
896.306	309.33
896.48	352.93
896.655	362.42
896.829	306.04
897.004	279.3
897.178	306.43
897.353	301
897.527	349.44
897.701	305.07
897.876	253.15
898.05	350.6
898.224	301
898.399	349.25
898.573	320.76
898.747	236.48
898.921	339.36
899.096	250.82
899.27	267.1
899.444	251.4
899.618	246.56
899.792	262.06
899.967	257.02
900.141	282.98
900.315	245.2
900.489	282.6
900.663	290.15
900.837	260.12
901.011	258.77
901.185	361.65
901.359	235.71
901.533	271.94
901.707	266.13
901.881	264
902.055	214.2
902.229	287.25
902.403	303.13
902.576	269.62
902.75	274.27
902.924	388.19
903.098	282.21
903.272	326
903.446	348.86
903.619	312.82
903.793	318.83
903.967	296.16
904.14	361.45
904.314	342.66
904.488	333.16
904.661	353.7
904.835	345.56
905.009	375.79
905.182	396.91
905.356	382.96
905.529	358.74
905.703	312.82
905.876	289.18
906.05	302.94
906.223	305.85
906.397	262.83
906.57	260.7
906.744	251.79
906.917	261.09
907.09	280.85
907.264	286.28
907.437	243.46
907.61	210.33
907.784	266.71
907.957	283.57
908.13	244.43
908.304	307.2
908.477	231.83
908.65	258.38
908.823	205.87
908.996	306.81
909.17	239
909.343	231.83
909.516	231.83
909.689	218.27
909.862	214.4
910.035	251.21
910.208	203.94
910.381	236.87
910.554	314.56
910.727	242.1
910.9	229.9
911.073	207.42
911.246	271.17
911.419	279.5
911.592	242.49
911.765	204.52
911.938	204.71
912.11	229.7
912.283	234.74
912.456	245.4
912.629	280.47
912.802	212.27
912.974	193.47
913.147	201.22
913.32	189.4
913.493	168.87
913.665	198.51
913.838	225.63
914.01	207.42
914.183	213.62
914.356	168.87
914.528	227.77
914.701	262.83
914.873	266.9
915.046	215.95
915.218	192.31
915.391	138.64
915.563	190.37
915.736	214.4
915.908	212.46
916.081	195.8
916.253	191.15
916.425	202.39
916.598	190.76
916.77	207.42
916.942	172.74
917.115	143.49
917.287	226.22
917.459	169.84
917.632	151.82
917.804	128.95
917.976	195.8
918.148	190.57
918.32	173.52
918.493	191.15
918.665	260.12
918.837	213.04
919.009	256.63
919.181	237.26
919.353	227.18
919.525	191.15
919.697	199.87
919.869	188.05
920.041	257.41
920.213	270.2
920.385	250.05
920.557	173.32
920.729	219.24
920.901	246.56
921.073	216.92
921.244	199.48
921.416	282.4
921.588	229.51
921.76	183.4
921.932	276.01
922.103	202.77
922.275	198.51
922.447	202.97
922.619	159.37
922.79	185.34
922.962	196.96
923.134	246.75
923.305	176.42
923.477	183.59
923.648	155.11
923.82	203.94
923.991	146.39
924.163	143.87
924.335	169.84
924.506	130.5
924.677	238.42
924.849	160.73
925.02	173.71
925.192	206.45
925.363	180.88
925.535	200.25
925.706	176.23
925.877	224.47
926.049	169.45
926.22	190.57
926.391	193.47
926.562	198.9
926.734	144.07
926.905	213.04
927.076	140.77
927.247	138.25
927.419	140.58
927.59	160.15
927.761	172.94
927.932	154.72
928.103	189.6
928.274	137.67
928.445	116.75
928.616	136.32
928.787	133.99
928.958	190.57
929.129	176.81
929.3	125.08
929.471	106.67
929.642	80.52
929.813	44.48
929.984	164.02
930.155	58.24
930.326	127.6
930.496	57.46
930.667	37.51
930.838	81.49
931.009	50.87
931.18	97.76
931.35	89.62
931.521	80.52
931.692	42.16
931.863	16
932.033	79.16
932.204	90.79
932.374	59.98
932.545	39.44
932.716	73.16
932.886	73.54
933.057	20.65
933.227	11.93
933.398	137.09
933.568	45.45
933.739	-8.41
933.909	15.03
934.08	40.61
934.25	-18.49
934.421	11.93
934.591	45.06
934.761	17.16
934.932	-7.44
935.102	7.86
935.272	5.34
935.443	11.16
935.613	0.11
935.783	26.27
935.953	7.67
936.123	138.64
936.294	-19.07
936.464	-0.86
936.634	32.28
936.804	-17.91
936.974	-10.74
937.144	17.55
937.314	34.99
937.484	5.34
937.655	-24.3
937.825	45.64
937.995	-17.32
938.165	55.14
938.334	-6.67
938.504	31.5
938.674	-2.6
938.844	5.54
939.014	40.61
939.184	27.24
939.354	62.5
939.524	65.6
939.694	13.29
939.863	10.77
940.033	75.67
940.203	65.6
940.373	60.76
940.542	73.74
940.712	15.81
940.882	67.92
941.051	77.81
941.221	59.21
941.391	90.01
941.56	7.67
941.73	17.36
941.899	110.94
942.069	20.65
942.238	49.32
942.408	25.69
942.577	68.12
942.747	47.58
942.916	-15.39
943.086	29.95
943.255	83.23
943.425	40.41
943.594	42.93
943.763	-10.74
943.933	-5.7
944.102	-17.71
944.271	37.31
944.441	25.11
944.61	0.31
944.779	28.59
944.948	115.59
945.117	-6.86
945.287	14.84
945.456	-23.52
945.625	-9.57
945.794	50.29
945.963	-5.12
946.132	38.09
946.301	8.83
946.47	65.79
946.639	-37.09
946.808	2.24
946.977	40.8
947.146	46.22
947.315	0.69
947.484	43.32
947.653	1.28
947.822	-4.73
947.991	-10.74
948.16	106.87
948.329	52.62
948.498	4.18
948.666	20.46
948.835	44.87
949.004	-14.81
949.173	1.66
949.341	35.38
949.51	47.19
949.679	101.44
949.847	35.38
950.016	117.52
950.185	73.74
950.353	19.1
950.522	24.53
950.69	68.12
950.859	5.15
951.028	57.46
951.196	23.17
951.365	30.73
951.533	29.95
951.701	61.92
951.87	48.74
952.038	-20.42
952.207	-3.18
952.375	97.37
952.543	31.11
952.712	14.45
952.88	16.58
953.048	79.36
953.217	41.19
953.385	8.83
953.553	64.44
953.721	-16.36
953.89	19.29
954.058	-25.07
954.226	17.94
954.394	56.11
954.562	-21.2
954.73	13.29
954.898	8.25
955.067	56.3
955.235	17.16
955.403	60.95
955.571	60.76
955.739	51.65
955.907	20.26
956.075	-5.12
956.243	-4.92
956.41	47.97
956.578	-42.71
956.746	-46.58
956.914	17.55
957.082	59.01
957.25	32.86
957.418	-4.73
957.585	26.08
957.753	74.12
957.921	-10.93
958.089	16.78
958.256	23.75
958.424	47.39
958.592	24.33
958.759	2.44
958.927	67.15
959.095	14.45
959.262	13.87
959.43	59.01
959.597	-6.86
959.765	31.11
959.932	-23.91
960.1	46.81
960.267	6.7
960.435	20.84
960.602	41.38
960.77	22.01
960.937	-32.82
961.104	23.94
961.272	-37.86
961.439	18.13
961.606	21.04
961.774	55.52
961.941	-2.99
962.108	39.44
962.275	49.91
962.443	53.2
962.61	39.64
962.777	79.36
962.944	42.16
963.111	21.04
963.278	44.29
963.446	41.77
963.613	6.31
963.78	40.61
963.947	60.17
964.114	71.99
964.281	110.94
964.448	50.68
964.615	4.96
964.782	22.98
964.949	40.22
965.116	47.97
965.282	98.73
965.449	32.66
965.616	29.37
965.783	51.07
965.95	45.26
966.117	-4.15
966.283	27.04
966.45	40.02
966.617	47.19
966.784	64.05
966.95	56.11
967.117	51.65
967.284	9.41
967.45	-24.11
967.617	74.71
967.784	48.74
967.95	89.43
968.117	36.73
968.283	65.99
968.45	134.96
968.616	38.86
968.783	76.06
968.949	73.54
969.116	58.04
969.282	22.59
969.449	38.09
969.615	29.76
969.781	-14.42
969.948	20.65
970.114	0.31
970.28	89.43
970.447	16.97
970.613	58.43
970.779	38.67
970.945	45.45
971.112	39.25
971.278	40.99
971.444	52.62
971.61	74.12
971.776	36.92
971.942	46.42
972.108	59.21
972.275	13.48
972.441	52.04
972.607	89.04
972.773	39.44
972.939	61.34
973.105	71.99
973.271	-1.44
973.437	33.63
973.602	10.58
973.768	57.85
973.934	45.06
974.1	39.83
974.266	-21.97
974.432	47.39
974.598	20.07
974.763	58.43
974.929	37.31
975.095	94.08
975.261	11.35
975.426	-11.71
975.592	44.67
975.758	104.93
975.923	18.52
976.089	20.07
976.255	65.21
976.42	71.41
976.586	31.11
976.751	45.06
976.917	114.23
977.082	62.31
977.248	2.24
977.413	-43.29
977.579	25.88
977.744	42.54
977.91	-13.45
978.075	12.51
978.24	63.27
978.406	45.64
978.571	9.41
978.736	12.13
978.902	53.78
979.067	12.71
979.232	-27.21
979.397	41.77
979.563	92.72
979.728	24.33
979.893	46.03
980.058	-6.67
980.223	46.03
980.388	28.79
980.554	26.27
980.719	10.38
980.884	38.67
981.049	78.19
981.214	10.19
981.379	52.04
981.544	2.05
981.709	22.39
981.874	18.13
982.039	35.96
982.204	34.21
982.368	32.28
982.533	7.86
982.698	66.96
982.863	76.64
983.028	20.26
983.193	48.74
983.357	41.57
983.522	61.72
983.687	14.26
983.852	26.08
984.016	-0.47
984.181	29.56
984.346	46.61
984.51	57.27
984.675	37.31
984.839	55.72
985.004	31.31
985.168	64.24
985.333	54.56
985.498	21.23
985.662	41.77
985.827	65.02
985.991	27.43
986.155	21.62
986.32	56.11
986.484	109.19
986.649	48.94
986.813	-16.55
986.977	25.11
987.142	64.82
987.306	2.83
987.47	-16.55
987.634	46.81
987.799	30.14
987.963	54.36
988.127	81.1
988.291	99.7
988.455	26.27
988.62	12.9
988.784	51.07
988.948	69.86
989.112	8.64
989.276	24.53
989.44	31.89
989.604	16
989.768	10.19
989.932	121.79
990.096	8.64
990.26	-5.51
990.424	16.97
990.588	45.06
990.752	89.24
990.915	57.46
991.079	12.71
991.243	8.06
991.407	36.73
991.571	35.38
991.734	61.53
991.898	49.91
992.062	120.04
992.226	21.81
992.389	-0.86
992.553	-32.63
992.717	2.44
992.88	3.41
993.044	27.24
993.207	48.94
993.371	60.95
993.535	39.25
993.698	19.49
993.862	62.69
994.025	81.68
994.189	26.85
994.352	51.84
994.515	54.56
994.679	70.44
994.842	24.72
995.006	61.53
995.169	-24.11
995.332	-10.35
995.496	61.34
995.659	3.02
995.822	23.94
995.985	31.11
996.149	45.45
996.312	9.8
996.475	100.47
996.638	21.23
996.801	74.9
996.964	90.98
997.128	18.71
997.291	5.15
997.454	22.39
997.617	-43.48
997.78	54.75
997.943	24.91
998.106	64.82
998.269	8.83
998.432	24.53
998.595	38.86
998.758	10.19
998.92	-7.44
999.083	-38.44
999.246	-6.47
999.409	-18.29
999.572	-52.97
999.735	3.79
999.897	17.36
1000.06	9.41
1000.223	5.73
1000.386	23.36
1000.548	47.19
1000.711	18.13
1000.874	49.32
1001.036	-5.7
1001.199	61.14
1001.361	-2.6
1001.524	31.69
1001.687	86.72
1001.849	-13.64
1002.012	25.69
1002.174	35.76
1002.337	48.36
1002.499	20.46
1002.661	53.01
1002.824	-23.14
1002.986	-2.21
1003.149	9.99
1003.311	-6.67
1003.473	81.87
1003.636	18.33
1003.798	24.53
1003.96	35.57
1004.123	22.01
1004.285	0.5
1004.447	9.8
1004.609	25.11
1004.771	78.39
1004.933	-30.11
1005.096	-24.11
1005.258	-34.76
1005.42	19.29
1005.582	53.01
1005.744	18.13
1005.906	-24.3
1006.068	19.29
1006.23	-31.86
1006.392	-4.73
1006.554	-9.77
1006.716	46.22
1006.878	5.73
1007.04	-11.12
1007.202	2.63
1007.363	15.42
1007.525	6.12
1007.687	37.51
1007.849	95.05
1008.011	-34.57
1008.172	-3.37
1008.334	26.46
1008.496	37.31
1008.658	-29.34
1008.819	-6.47
1008.981	-20.62
1009.143	-0.66
1009.304	-6.28
1009.466	32.86
1009.627	71.41
1009.789	119.07
1009.95	35.18
1010.112	-13.84
1010.273	29.37
1010.435	-21.97
1010.596	34.79
1010.758	0.69
1010.919	22.59
1011.081	-24.11
1011.242	9.41
1011.403	33.24
1011.565	-4.54
1011.726	53.01
1011.887	-15.39
1012.049	15.42
1012.21	48.94
1012.371	72.57
1012.532	-46.19
1012.693	15.61
1012.855	-21.01
1013.016	8.25
1013.177	40.8
1013.338	11.54
1013.499	74.12
1013.66	18.71
1013.821	34.79
1013.982	28.21
1014.143	-3.57
1014.304	-25.46
1014.465	24.14
1014.626	21.04
1014.787	-22.17
1014.948	89.43
1015.109	-47.36
1015.27	47.58
1015.431	-3.57
1015.592	-41.54
1015.752	63.47
1015.913	13.29
1016.074	23.36
1016.235	9.41
1016.395	-25.27
1016.556	-26.43
1016.717	1.66
1016.877	68.7
1017.038	-12.67
1017.199	25.69
1017.359	31.11
1017.52	31.31
1017.681	-1.63
1017.841	13.48
1018.002	21.62
1018.162	-10.93
1018.323	65.79
1018.483	1.86
1018.644	13.48
1018.804	-35.15
1018.964	-52.2
1019.125	-22.75
1019.285	32.66
1019.446	-45.42
1019.606	-36.12
1019.766	-40.77
1019.926	36.34
1020.087	10.38
1020.247	-27.01
1020.407	18.52
1020.567	45.64
1020.728	7.48
1020.888	-26.24
1021.048	-17.52
1021.208	-34.18
1021.368	-7.06
1021.528	50.87
1021.688	50.1
1021.848	22.2
1022.008	11.74
1022.168	17.16
1022.328	-7.83
1022.488	24.72
1022.648	12.32
1022.808	-4.92
1022.968	9.99
1023.128	-12.48
1023.288	-5.12
1023.448	3.21
1023.608	47.39
1023.767	23.17
1023.927	-21.59
1024.087	-26.62
1024.247	-30.11
1024.406	-16.36
1024.566	-22.36
1024.726	-2.41
1024.885	6.12
1025.045	40.99
1025.205	-17.13
1025.364	-1.24
1025.524	10.96
1025.683	17.94
1025.843	11.54
1026.003	10.38
1026.162	71.22
1026.321	65.41
1026.481	8.25
1026.64	-12.67
1026.8	-3.57
1026.959	9.61
1027.119	32.47
1027.278	8.25
1027.437	-30.11
1027.597	28.79
1027.756	22.78
1027.915	39.06
1028.074	25.69
1028.234	-13.64
1028.393	16.78
1028.552	-21.01
1028.711	-46
1028.87	16.78
1029.03	-24.88
1029.189	20.07
1029.348	-71.19
1029.507	-22.56
1029.666	-12.87
1029.825	-35.54
1029.984	5.34
1030.143	19.68
1030.302	-18.49
1030.461	-44.26
1030.62	22.78
1030.779	25.49
1030.938	-31.47
1031.097	-39.61
1031.255	19.29
1031.414	36.73
1031.573	38.47
1031.732	-59.95
1031.891	-23.72
1032.049	33.63
1032.208	17.74
1032.367	-30.89
1032.525	-4.92
1032.684	-10.54
1032.843	16.78
1033.001	-39.02
1033.16	147.75
1033.319	46.61
1033.477	17.55
1033.636	-2.99
1033.794	-5.7
1033.953	29.56
1034.111	26.08
1034.27	-24.11
1034.428	15.23
1034.587	-24.3
1034.745	9.41
1034.903	10.58
1035.062	27.04
1035.22	-13.26
1035.378	14.06
1035.537	-37.28
1035.695	19.29
1035.853	-1.63
1036.011	34.41
1036.17	18.71
1036.328	-73.51
1036.486	11.74
1036.644	-1.24
1036.802	-69.64
1036.96	5.15
1037.119	-1.05
1037.277	-14.22
1037.435	-54.52
1037.593	-34.37
1037.751	-20.23
1037.909	4.76
1038.067	4.76
