Data from pine_FLMT105791__59__17-20-59-078.txt Node

Date: Mon Mar 20 17:20:59 GMT 2023
User: antho
Spectrometer: FLMT10579
Trigger mode: 0
Integration Time (sec): 1.000000E-1
Scans to average: 10
Electric dark correction enabled: true
Nonlinearity correction enabled: false
Boxcar width: 0
XAxis mode: Wavelengths
Number of Pixels in Spectrum: 3648
>>>>>Begin Spectral Data<<<<<
345.248	-180.12
345.464	-180.12
345.681	-180.12
345.898	-182.83
346.114	-171.98
346.331	-27.84
346.548	29.71
346.764	-10.01
346.981	-10.4
347.197	2.78
347.414	1.81
347.631	-4
347.847	51.99
348.064	7.04
348.28	33.97
348.497	-33.84
348.713	-41.2
348.93	14.79
349.146	10.33
349.363	-16.4
349.579	1.42
349.796	-13.11
350.012	8.59
350.229	38.43
350.445	-0.52
350.661	-10.4
350.878	20.6
351.094	-1.87
351.311	5.68
351.527	-0.71
351.743	-16.99
351.96	45.6
352.176	17.7
352.392	42.11
352.609	38.04
352.825	3.75
353.041	4.71
353.257	22.73
353.474	27.38
353.69	28.93
353.906	13.24
354.122	-20.09
354.339	48.7
354.555	3.36
354.771	-23.38
354.987	36.68
355.203	55.28
355.42	10.91
355.636	-5.36
355.852	-11.75
356.068	16.53
356.284	-45.66
356.5	55.48
356.716	9.75
356.932	-10.2
357.148	32.81
357.364	4.13
357.58	61.68
357.796	45.21
358.012	67.68
358.228	23.7
358.444	-21.44
358.66	45.6
358.876	35.91
359.092	4.33
359.308	10.33
359.524	11.88
359.74	5.88
359.956	8.59
360.172	7.23
360.388	7.62
360.604	-9.62
360.819	83.57
361.035	27.58
361.251	4.91
361.467	-20.67
361.683	37.46
361.898	4.91
362.114	22.73
362.33	19.25
362.546	46.95
362.762	-4.97
362.977	47.34
363.193	-18.92
363.409	27.19
363.624	-36.55
363.84	1.03
364.056	1.23
364.271	-2.26
364.487	8.2
364.703	-12.92
364.918	-16.21
365.134	-14.08
365.35	-22.41
365.565	100.81
365.781	14.21
365.996	9.17
366.212	63.23
366.427	23.9
366.643	12.85
366.858	11.3
367.074	-27.06
367.289	57.22
367.505	98.68
367.72	-29.97
367.936	-3.81
368.151	19.44
368.367	12.66
368.582	16.92
368.798	-10.4
369.013	85.89
369.228	27.38
369.444	20.02
369.659	56.25
369.874	13.43
370.09	70.01
370.305	-53.8
370.52	-13.89
370.736	32.42
370.951	1.23
371.166	87.64
371.381	53.35
371.597	18.66
371.812	-18.73
372.027	-13.3
372.242	13.82
372.458	92.09
372.673	42.5
372.888	-29.58
373.103	20.21
373.318	107.59
373.533	25.25
373.749	9.36
373.964	-53.41
374.179	83.96
374.394	9.17
374.609	62.06
374.824	-20.09
375.039	58.96
375.254	-4.78
375.469	67.1
375.684	33
375.899	56.25
376.114	5.1
376.329	27.96
376.544	58.77
376.759	25.64
376.974	-4.39
377.189	-6.91
377.404	16.73
377.619	56.25
377.834	-47.79
378.049	-40.23
378.264	-42.75
378.478	5.1
378.693	7.23
378.908	22.73
379.123	3.36
379.338	54.7
379.553	38.23
379.767	21.57
379.982	48.31
380.197	45.79
380.412	8.59
380.626	24.28
380.841	68.65
381.056	37.26
381.271	89.38
381.485	-4.97
381.7	-32.29
381.915	22.73
382.129	-6.14
382.344	41.72
382.559	-14.85
382.773	56.25
382.988	-33.84
383.202	28.16
383.417	-39.65
383.632	105.85
383.846	19.63
384.061	57.22
384.275	34.16
384.49	39.59
384.704	59.16
384.919	40.95
385.133	20.8
385.348	29.9
385.562	-15.05
385.777	51.99
385.991	1.61
386.206	-10.79
386.42	10.72
386.634	60.51
386.849	46.95
387.063	32.61
387.277	-12.72
387.492	15.95
387.706	12.46
387.92	-3.04
388.135	35.91
388.349	18.08
388.563	37.26
388.778	38.43
388.992	36.49
389.206	42.11
389.42	93.06
389.635	25.06
389.849	32.03
390.063	56.06
390.277	45.98
390.491	65.74
390.706	53.54
390.92	18.28
391.134	13.43
391.348	27.19
391.562	-38.3
391.776	8.01
391.99	-31.71
392.205	50.83
392.419	-32.48
392.633	35.33
392.847	66.13
393.061	7.62
393.275	65.16
393.489	7.62
393.703	42.88
393.917	54.12
394.131	-2.65
394.345	47.92
394.559	42.69
394.773	-0.13
394.986	26.03
395.2	9.75
395.414	56.83
395.628	-23.77
395.842	17.89
396.056	0.06
396.27	-40.23
396.484	-1.87
396.697	36.49
396.911	63.61
397.125	64.97
397.339	62.45
397.553	31.65
397.766	86.67
397.98	73.69
398.194	55.86
398.408	3.94
398.621	13.05
398.835	42.5
399.049	31.84
399.262	55.28
399.476	42.11
399.69	23.12
399.903	88.8
400.117	9.36
400.331	58
400.544	7.81
400.758	125.03
400.971	50.25
401.185	49.66
401.398	-0.71
401.612	99.26
401.826	47.15
402.039	47.73
402.253	-1.29
402.466	44.63
402.68	-6.14
402.893	50.63
403.106	34.75
403.32	-0.13
403.533	67.68
403.747	20.99
403.96	64
404.174	53.93
404.387	-4.78
404.6	16.15
404.814	77.76
405.027	27.58
405.24	4.33
405.454	2.97
405.667	58.19
405.88	-42.17
406.094	54.12
406.307	66.52
406.52	34.36
406.733	10.53
406.947	-4
407.16	87.83
407.373	66.33
407.586	3.16
407.799	-2.84
408.012	51.41
408.226	42.69
408.439	96.36
408.652	-30.35
408.865	46.37
409.078	56.06
409.291	55.67
409.504	-20.28
409.717	55.67
409.93	21.96
410.143	46.56
410.357	-0.32
410.57	20.99
410.783	15.56
410.996	54.51
411.209	40.95
411.421	88.99
411.634	22.54
411.847	-33.26
412.06	36.49
412.273	23.51
412.486	63.23
412.699	125.03
412.912	20.99
413.125	57.03
413.338	26.8
413.55	71.94
413.763	61.29
413.976	74.08
414.189	-15.05
414.402	20.21
414.615	81.44
414.827	-9.43
415.04	37.46
415.253	59.54
415.466	63.61
415.678	96.36
415.891	26.61
416.104	31.26
416.316	36.68
416.529	0.26
416.742	36.68
416.954	82.41
417.167	31.45
417.38	40.95
417.592	75.04
417.805	-2.65
418.017	-16.4
418.23	69.62
418.442	12.46
418.655	8.2
418.868	23.12
419.08	88.8
419.293	80.28
419.505	66.52
419.718	35.91
419.93	78.92
420.142	28.93
420.355	74.85
420.567	66.33
420.78	63.81
420.992	33.78
421.205	92.68
421.417	-11.56
421.629	15.95
421.842	1.42
422.054	-3.04
422.266	53.15
422.479	72.91
422.691	44.63
422.903	60.51
423.115	17.89
423.328	37.85
423.54	55.86
423.752	64.78
423.964	0.06
424.177	46.56
424.389	37.85
424.601	146.34
424.813	66.33
425.025	80.47
425.238	56.83
425.45	37.65
425.662	49.28
425.874	321.3
426.086	41.33
426.298	90.74
426.51	86.28
426.722	52.38
426.934	33.39
427.146	75.43
427.358	-3.04
427.57	100.81
427.782	48.11
427.994	51.41
428.206	55.86
428.418	19.05
428.63	69.62
428.842	94.23
429.054	40.17
429.266	85.89
429.478	9.36
429.69	38.81
429.902	-5.36
430.114	80.66
430.325	88.22
430.537	68.46
430.749	51.8
430.961	3.16
431.173	40.17
431.384	77.76
431.596	-6.52
431.808	9.36
432.02	62.06
432.231	54.31
432.443	76.98
432.655	43.66
432.867	15.95
433.078	73.69
433.29	135.69
433.502	85.31
433.713	83.18
433.925	55.09
434.136	104.3
434.348	25.83
434.56	9.56
434.771	124.45
434.983	-15.24
435.194	34.75
435.406	38.23
435.617	92.87
435.829	106.63
436.04	69.81
436.252	100.43
436.463	107.21
436.675	101.39
436.886	56.64
437.098	45.6
437.309	123.48
437.521	72.53
437.732	75.43
437.943	82.02
438.155	78.73
438.366	7.62
438.578	142.28
438.789	83.76
439	93.84
439.211	87.06
439.423	101.98
439.634	122.13
439.845	103.91
440.057	92.87
440.268	96.55
440.479	64.58
440.69	90.54
440.902	84.34
441.113	50.63
441.324	59.54
441.535	97.71
441.746	135.3
441.957	57.41
442.168	44.63
442.38	89.19
442.591	116.7
442.802	50.44
443.013	71.36
443.224	82.41
443.435	57.41
443.646	61.09
443.857	88.61
444.068	70.98
444.279	75.24
444.49	137.04
444.701	78.14
444.912	186.06
445.123	115.34
445.334	114.76
445.545	94.03
445.756	75.63
445.967	68.65
446.178	97.91
446.388	138.98
446.599	136.66
446.81	108.56
447.021	79.11
447.232	161.26
447.443	169.01
447.653	80.66
447.864	126.19
448.075	95.78
448.286	138.21
448.496	130.65
448.707	134.53
448.918	82.41
449.129	200.79
449.339	82.02
449.55	132.59
449.761	91.51
449.971	178.12
450.182	90.93
450.393	119.99
450.603	99.65
450.814	114.38
451.024	123.09
451.235	135.88
451.446	168.43
451.656	140.92
451.867	87.06
452.077	107.79
452.288	195.75
452.498	200.59
452.709	109.34
452.919	145.96
453.13	89.77
453.34	161.65
453.55	94.61
453.761	134.91
453.971	139.76
454.182	146.34
454.392	129.88
454.602	198.07
454.813	134.72
455.023	158.74
455.233	95.58
455.444	149.06
455.654	67.1
455.864	131.62
456.075	143.24
456.285	114.38
456.495	106.24
456.705	143.63
456.916	169.98
457.126	177.54
457.336	126.78
457.546	88.61
457.756	101.2
457.967	192.65
458.177	125.81
458.387	141.69
458.597	135.88
458.807	119.22
459.017	157.77
459.227	127.74
459.437	151.57
459.647	154.48
459.857	170.37
460.068	126.78
460.278	180.06
460.488	158.55
460.698	210.09
460.908	143.83
461.117	114.96
461.327	113.21
461.537	150.22
461.747	153.9
461.957	154.09
462.167	247.29
462.377	192.65
462.587	143.83
462.797	192.65
463.007	154.48
463.216	187.03
463.426	181.41
463.636	185.87
463.846	88.8
464.056	144.79
464.265	201.76
464.475	118.64
464.685	150.02
464.895	180.64
465.104	174.63
465.314	198.46
465.524	144.02
465.733	149.44
465.943	215.51
466.153	207.18
466.362	211.83
466.572	166.11
466.782	175.41
466.991	168.24
467.201	216.87
467.41	96.16
467.62	175.79
467.829	137.82
468.039	172.5
468.249	167.85
468.458	177.73
468.668	209.12
468.877	221.32
469.086	213.19
469.296	202.92
469.505	162.23
469.715	256
469.924	230.24
470.134	231.98
470.343	213.57
470.552	159.32
470.762	201.17
470.971	139.56
471.18	173.86
471.39	199.62
471.599	159.13
471.808	219.39
472.018	168.04
472.227	228.11
472.436	256.97
472.645	186.84
472.855	122.32
473.064	227.91
473.273	183.16
473.482	207.37
473.691	240.12
473.901	227.91
474.11	186.26
474.319	311.03
474.528	210.67
474.737	245.35
474.946	209.51
475.155	222.49
475.364	237.02
475.573	213.96
475.783	207.96
475.992	229.46
476.201	276.15
476.41	203.69
476.619	180.83
476.828	205.44
477.037	197.3
477.245	195.94
477.454	246.9
477.663	215.51
477.872	209.89
478.081	261.04
478.29	190.13
478.499	286.62
478.708	257.17
478.917	286.81
479.125	229.66
479.334	258.72
479.543	229.46
479.752	276.15
479.961	231.98
480.169	250.97
480.378	216.87
480.587	326.92
480.796	273.44
481.004	237.6
481.213	282.74
481.422	262.59
481.63	214.16
481.839	257.75
482.048	310.84
482.256	287.97
482.465	279.84
482.674	308.7
482.882	280.03
483.091	334.08
483.299	297.27
483.508	304.44
483.716	257.75
483.925	257.75
484.134	258.52
484.342	255.04
484.551	312.39
484.759	292.82
484.967	312.39
485.176	324.01
485.384	300.76
485.593	313.74
485.801	288.75
486.01	280.61
486.218	294.37
486.426	231.59
486.635	269.18
486.843	290.88
487.051	291.07
487.26	259.49
487.468	283.9
487.676	330.21
487.885	256.78
488.093	293.4
488.301	289.52
488.509	301.54
488.717	346.29
488.926	283.32
489.134	265.5
489.342	316.84
489.55	276.35
489.758	305.8
489.967	292.82
490.175	412.94
490.383	269.76
490.591	372.06
490.799	267.44
491.007	384.27
491.215	340.48
491.423	327.11
491.631	317.23
491.839	340.67
492.047	389.5
492.255	318.59
492.463	271.31
492.671	310.25
492.879	384.07
493.087	342.42
493.295	332.73
493.503	351.91
493.711	341.83
493.919	382.52
494.127	356.56
494.334	386.01
494.542	321.68
494.75	352.1
494.958	348.42
495.166	369.93
495.374	382.72
495.581	359.85
495.789	380.78
495.997	424.76
496.205	364.7
496.412	350.94
496.62	343.38
496.828	367.99
497.035	356.95
497.243	402.87
497.451	384.85
497.658	359.08
497.866	373.61
498.074	433.67
498.281	375.74
498.489	439.29
498.696	406.16
498.904	350.75
499.112	370.12
499.319	454.79
499.527	374.38
499.734	408.29
499.942	313.16
500.149	359.47
500.357	393.37
500.564	370.7
500.771	400.93
500.979	349.58
501.186	356.56
501.394	400.93
501.601	386.98
501.808	426.5
502.016	409.84
502.223	373.8
502.43	395.89
502.638	373.61
502.845	357.33
503.052	460.6
503.26	364.7
503.467	452.08
503.674	374.97
503.881	418.36
504.089	489.47
504.296	431.54
504.503	356.37
504.71	403.25
504.917	367.99
505.125	410.61
505.332	420.5
505.539	425.15
505.746	468.35
505.953	460.8
506.16	435.8
506.367	513.3
506.574	472.03
506.781	484.05
506.988	410.42
507.195	463.31
507.402	421.08
507.609	467
507.816	415.07
508.023	439.68
508.23	418.56
508.437	388.53
508.644	455.95
508.851	478.23
509.058	463.12
509.265	450.14
509.472	469.32
509.679	541.39
509.885	451.3
510.092	444.71
510.299	453.05
510.506	455.76
510.713	461.38
510.92	472.81
511.126	478.23
511.333	485.79
511.54	504
511.746	522.99
511.953	514.46
512.16	528.22
512.367	478.43
512.573	480.56
512.78	480.56
512.987	471.84
513.193	462.35
513.4	426.31
513.606	458.28
513.813	510.01
514.02	507.29
514.226	542.56
514.433	566.97
514.639	475.33
514.846	517.37
515.052	450.91
515.259	502.26
515.465	498.38
515.672	525.12
515.878	575.11
516.085	466.8
516.291	542.36
516.497	485.21
516.704	489.28
516.91	482.11
517.117	478.43
517.323	405.38
517.529	476.3
517.736	460.8
517.942	474.36
518.148	491.8
518.354	499.54
518.561	500.32
518.767	513.69
518.973	525.89
519.179	550.89
519.386	483.27
519.592	458.28
519.798	482.69
520.004	547.21
520.21	513.3
520.417	523.57
520.623	587.31
520.829	577.24
521.035	577.43
521.241	576.27
521.447	570.65
521.653	686.12
521.859	551.66
522.065	562.71
522.271	673.34
522.477	604.17
522.683	644.86
522.889	605.72
523.095	654.54
523.301	601.65
523.507	578.21
523.713	609.4
523.919	585.37
524.125	633.04
524.331	619.28
524.537	662.68
524.742	643.31
524.948	659
525.154	640.79
525.36	726.62
525.566	646.79
525.772	685.74
525.977	613.47
526.183	696.2
526.389	707.82
526.595	634.97
526.8	665.39
527.006	590.02
527.212	575.88
527.417	600.87
527.623	568.52
527.829	621.41
528.034	647.18
528.24	647.76
528.446	604.94
528.651	671.01
528.857	669.85
529.062	733.4
529.268	633.42
529.473	677.99
529.679	688.84
529.884	748.7
530.09	705.11
530.295	744.05
530.501	749.87
530.706	703.56
530.912	660.74
531.117	726.81
531.323	715.19
531.528	739.4
531.733	703.17
531.939	703.95
532.144	735.34
532.35	713.64
532.555	758.58
532.76	772.92
532.966	786.87
533.171	721.77
533.376	696
533.581	690.39
533.787	711.89
533.992	738.24
534.197	759.94
534.402	754.71
534.607	741.34
534.813	842.28
535.018	714.99
535.223	705.69
535.428	724.68
535.633	769.43
535.838	764.59
536.043	731.65
536.249	864.56
536.454	738.24
536.659	799.66
536.864	714.99
537.069	763.82
537.274	787.45
537.479	802.57
537.684	763.82
537.889	741.54
538.094	864.18
538.299	739.6
538.504	794.04
538.708	801.6
538.913	815.16
539.118	777.77
539.323	796.95
539.528	767.5
539.733	788.23
539.938	803.15
540.142	814
540.347	787.07
540.552	766.14
540.757	766.72
540.962	804.12
541.166	760.91
541.371	722.74
541.576	781.25
541.781	700.85
541.985	755.68
542.19	791.72
542.395	843.06
542.599	860.3
542.804	822.13
543.008	852.36
543.213	773.31
543.418	761.88
543.622	817.29
543.827	766.14
544.031	848.68
544.236	849.45
544.44	778.93
544.645	899.83
544.849	814.19
545.054	877.16
545.258	919.98
545.463	909.51
545.667	843.06
545.872	820.58
546.076	862.63
546.281	823.88
546.485	805.28
546.689	848.29
546.894	870.76
547.098	854.49
547.302	779.9
547.507	803.34
547.711	857.4
547.915	874.45
548.119	786.1
548.324	811.67
548.528	902.54
548.732	838.99
548.936	868.44
549.141	841.7
549.345	795.2
549.549	831.43
549.753	845.58
549.957	914.16
550.161	925.01
550.366	812.45
550.57	828.14
550.774	856.62
550.978	829.11
551.182	861.08
551.386	846.35
551.59	858.36
551.794	833.37
551.998	823.49
552.202	839.96
552.406	837.05
552.61	842.28
552.814	827.37
553.018	920.95
553.222	837.63
553.426	843.06
553.63	911.06
553.833	823.49
554.037	809.35
554.241	901.38
554.445	851.39
554.649	822.91
554.853	827.17
555.056	869.99
555.26	892.66
555.464	864.18
555.668	853.71
555.871	917.46
556.075	916.3
556.279	815.55
556.483	796.75
556.686	870.18
556.89	842.28
557.094	869.02
557.297	786.1
557.501	889.17
557.704	811.09
557.908	879.1
558.112	829.5
558.315	911.65
558.519	865.73
558.722	837.44
558.926	811.48
559.129	790.17
559.333	764.4
559.536	786.29
559.74	801.02
559.943	800.05
560.147	766.53
560.35	802.57
560.553	778.73
560.757	759.75
560.96	856.62
561.164	805.28
561.367	882.78
561.57	789.58
561.774	829.3
561.977	794.04
562.18	801.98
562.384	880.06
562.587	812.25
562.79	761.68
562.993	780.28
563.197	832.6
563.4	860.5
563.603	877.35
563.806	907
564.009	789
564.212	785.52
564.416	777.38
564.619	807.6
564.822	797.92
565.025	856.81
565.228	791.52
565.431	815.16
565.634	714.02
565.837	762.46
566.04	767.69
566.243	818.07
566.446	692.52
566.649	802.57
566.852	751.03
567.055	778.15
567.258	794.43
567.461	856.62
567.664	835.7
567.867	732.04
568.07	794.23
568.273	787.84
568.475	829.88
568.678	768.08
568.881	730.69
569.084	803.73
569.287	692.9
569.489	697.55
569.692	756.65
569.895	775.25
570.098	730.69
570.3	733.2
570.503	695.42
570.706	677.21
570.909	707.05
571.111	687.48
571.314	682.05
571.516	713.05
571.719	710.34
571.922	695.04
572.124	702.79
572.327	685.15
572.529	664.62
572.732	672.56
572.935	695.04
573.137	730.69
573.34	710.92
573.542	731.46
573.745	705.69
573.947	696.2
574.15	696.59
574.352	677.99
574.554	748.12
574.757	670.24
574.959	695.62
575.162	663.07
575.364	667.52
575.566	774.86
575.769	647.76
575.971	701.62
576.173	605.72
576.376	655.51
576.578	690.77
576.78	748.32
576.982	611.72
577.185	680.12
577.387	630.71
577.589	634.2
577.791	682.83
577.993	666.94
578.196	631.87
578.398	673.14
578.6	725.45
578.802	612.11
579.004	627.03
579.206	621.22
579.408	646.21
579.61	621.8
579.812	678.57
580.014	662.49
580.216	646.99
580.418	637.11
580.62	594.29
580.822	618.51
581.024	653.77
581.226	681.28
581.428	652.61
581.63	711.31
581.832	628
582.034	698.72
582.236	636.33
582.438	667.52
582.64	693.29
582.841	717.7
583.043	738.63
583.245	678.57
583.447	680.5
583.649	675.85
583.85	658.42
584.052	703.56
584.254	628.19
584.456	691.35
584.657	619.28
584.859	651.06
585.061	639.04
585.262	617.15
585.464	616.18
585.666	677.6
585.867	640.59
586.069	708.21
586.27	668.3
586.472	683.6
586.674	643.89
586.875	597.97
587.077	625.09
587.278	649.89
587.48	604.75
587.681	732.43
587.883	663.07
588.084	605.72
588.285	618.12
588.487	638.85
588.688	622.77
588.89	580.14
589.091	568.33
589.292	612.31
589.494	585.18
589.695	584.6
589.896	514.27
590.098	547.4
590.299	575.69
590.5	543.14
590.702	542.94
590.903	574.72
591.104	629.36
591.305	599.71
591.507	637.11
591.708	634.59
591.909	586.92
592.11	654.16
592.311	607.66
592.512	612.5
592.714	538.68
592.915	572.2
593.116	568.52
593.317	565.03
593.518	554.57
593.719	570.46
593.92	630.52
594.121	629.74
594.322	586.34
594.523	598.55
594.724	546.82
594.925	614.05
595.126	619.47
595.327	626.45
595.528	609.01
595.729	597.77
595.929	581.69
596.13	592.35
596.331	571.23
596.532	604.56
596.733	638.46
596.934	648.34
597.135	622.77
597.335	648.92
597.536	583.44
597.737	606.11
597.938	568.71
598.138	620.06
598.339	596.81
598.54	593.32
598.74	600.68
598.941	586.92
599.142	651.06
599.342	589.25
599.543	578.98
599.744	612.5
599.944	566.58
600.145	565.81
600.345	598.55
600.546	669.66
600.746	614.05
600.947	658.03
601.147	610.76
601.348	630.13
601.548	608.43
601.749	625.48
601.949	550.89
602.15	584.41
602.35	595.26
602.551	622.57
602.751	565.81
602.951	597.39
603.152	523.18
603.352	638.07
603.552	581.69
603.753	612.11
603.953	597.77
604.153	585.76
604.354	577.63
604.554	603.01
604.754	601.84
604.954	536.36
605.155	602.81
605.355	590.41
605.555	637.88
605.755	648.15
605.955	588.28
606.155	633.62
606.356	552.83
606.556	599.13
606.756	595.26
606.956	556.12
607.156	632.84
607.356	535.78
607.556	593.9
607.756	589.64
607.956	639.62
608.156	598.94
608.356	561.93
608.556	612.11
608.756	603.39
608.956	531.51
609.156	578.4
609.356	552.44
609.556	545.08
609.755	574.14
609.955	523.57
610.155	553.41
610.355	569.1
610.555	564.26
610.755	578.21
610.954	529.77
611.154	565.42
611.354	579.18
611.554	549.14
611.753	529.96
611.953	496.25
612.153	618.7
612.352	575.49
612.552	512.33
612.752	457.89
612.951	573.17
613.151	567.55
613.351	528.03
613.55	528.99
613.75	552.05
613.949	531.71
614.149	573.56
614.348	548.56
614.548	546.63
614.747	487.53
614.947	534.81
615.146	518.53
615.346	574.53
615.545	563.87
615.745	519.89
615.944	564.64
616.144	553.99
616.343	579.37
616.542	522.21
616.742	543.14
616.941	545.08
617.14	460.02
617.34	537.52
617.539	507.49
617.738	511.94
617.938	561.93
618.137	495.67
618.336	473
618.535	548.37
618.734	505.36
618.934	544.3
619.133	504.97
619.332	529.96
619.531	510.2
619.73	499.35
619.929	537.52
620.128	517.56
620.328	556.7
620.527	500.13
620.726	515.24
620.925	528.03
621.124	484.05
621.323	530.35
621.522	490.83
621.721	481.53
621.92	493.73
622.119	539.84
622.318	501.48
622.517	528.8
622.715	495.09
622.914	434.83
623.113	481.33
623.312	441.42
623.511	519.69
623.71	472.61
623.909	497.99
624.107	541.2
624.306	443.16
624.505	461.18
624.704	467.77
624.902	463.7
625.101	539.46
625.3	499.16
625.499	442.39
625.697	485.21
625.896	447.23
626.095	514.46
626.293	439.68
626.492	459.05
626.69	509.43
626.889	448.59
627.088	495.86
627.286	444.52
627.485	445.1
627.683	440.84
627.882	515.82
628.08	419.14
628.279	464.67
628.477	523.38
628.676	428.25
628.874	487.15
629.073	423.79
629.271	430.18
629.469	464.28
629.668	429.41
629.866	449.17
630.065	450.72
630.263	490.63
630.461	466.22
630.66	427.66
630.858	476.88
631.056	495.28
631.254	482.11
631.453	419.72
631.651	527.25
631.849	451.5
632.047	490.25
632.245	480.17
632.444	473.58
632.642	472.61
632.84	480.75
633.038	417.2
633.236	428.63
633.434	450.33
633.632	410.03
633.83	439.87
634.028	486.95
634.227	489.47
634.425	522.02
634.623	458.47
634.821	463.9
635.019	468.74
635.216	449.75
635.414	499.54
635.612	467.19
635.81	457.89
636.008	504.39
636.206	448.78
636.404	486.37
636.602	415.65
636.8	449.95
636.997	480.75
637.195	486.18
637.393	461.76
637.591	502.06
637.789	482.69
637.986	442
638.184	471.26
638.382	505.55
638.58	487.15
638.777	527.83
638.975	416.04
639.173	474.36
639.37	438.9
639.568	484.24
639.765	466.22
639.963	449.56
640.161	503.42
640.358	526.09
640.556	414.88
640.753	428.05
640.951	440.26
641.148	452.66
641.346	450.91
641.543	442.97
641.741	483.08
641.938	409.26
642.136	457.31
642.333	432.51
642.531	495.09
642.728	524.73
642.925	434.64
643.123	407.71
643.32	469.32
643.517	422.05
643.715	439.68
643.912	408.48
644.109	451.88
644.306	432.31
644.504	438.13
644.701	431.15
644.898	503.23
645.095	401.32
645.293	433.48
645.49	452.08
645.687	471.26
645.884	446.07
646.081	381.17
646.278	398.6
646.475	425.53
646.672	424.56
646.87	445.1
647.067	413.13
647.264	431.54
647.461	402.09
647.658	401.12
647.855	447.04
648.052	423.4
648.249	358.5
648.446	421.27
648.642	387.95
648.839	372.64
649.036	390.85
649.233	350.36
649.43	384.07
649.627	333.31
649.824	395.31
650.021	396.67
650.217	368.38
650.414	382.52
650.611	408.68
650.808	405.77
651.004	419.33
651.201	398.8
651.398	438.32
651.595	388.72
651.791	408.1
651.988	417.4
652.185	382.91
652.381	399.96
652.578	330.6
652.775	394.34
652.971	398.99
653.168	377.29
653.364	420.69
653.561	345.71
653.757	370.32
653.954	391.24
654.15	384.85
654.347	428.83
654.543	374.58
654.74	323.23
654.936	353.85
655.133	393.18
655.329	385.62
655.525	367.99
655.722	407.32
655.918	351.91
656.115	419.72
656.311	303.47
656.507	329.05
656.704	285.65
656.9	315.49
657.096	319.55
657.292	340.09
657.489	376.52
657.685	357.33
657.881	356.37
658.077	308.9
658.273	353.07
658.47	421.27
658.666	344.16
658.862	369.73
659.058	327.5
659.254	406.74
659.45	348.42
659.646	379.42
659.842	325.75
660.038	399.38
660.234	328.27
660.43	364.5
660.626	398.02
660.822	401.9
661.018	395.7
661.214	365.08
661.41	299.02
661.606	384.27
661.802	435.03
661.998	381.94
662.194	337.57
662.39	383.1
662.586	381.75
662.781	374.58
662.977	368.57
663.173	420.88
663.369	370.12
663.564	375.35
663.76	380.58
663.956	335.63
664.152	399.18
664.347	336.22
664.543	359.27
664.739	354.23
664.934	338.93
665.13	306.57
665.326	381.94
665.521	352.68
665.717	321.88
665.912	307.15
666.108	274.22
666.304	313.16
666.499	347.07
666.695	277.12
666.89	323.82
667.086	376.52
667.281	354.04
667.477	422.43
667.672	370.32
667.867	329.24
668.063	341.06
668.258	302.31
668.454	334.67
668.649	414.1
668.844	327.11
669.04	330.6
669.235	316.26
669.43	319.75
669.626	292.04
669.821	312.97
670.016	274.22
670.211	342.61
670.407	291.27
670.602	340.09
670.797	309.67
670.992	371.09
671.187	292.04
671.382	373.61
671.578	328.85
671.773	359.85
671.968	306.19
672.163	337.57
672.358	352.68
672.553	299.4
672.748	310.06
672.943	380.78
673.138	296.5
673.333	355.2
673.528	290.49
673.723	309.67
673.918	308.32
674.113	287
674.308	400.15
674.503	343.19
674.698	360.05
674.892	353.46
675.087	367.8
675.282	330.98
675.477	315.1
675.672	367.41
675.867	308.12
676.061	294.95
676.256	303.09
676.451	315.68
676.646	312.19
676.84	307.93
677.035	274.8
677.23	255.62
677.424	316.45
677.619	372.64
677.814	336.41
678.008	353.07
678.203	250
678.397	310.06
678.592	314.13
678.787	326.72
678.981	313.74
679.176	331.95
679.37	329.63
679.565	315.87
679.759	298.82
679.954	339.12
680.148	349.58
680.342	346.87
680.537	339.12
680.731	312.58
680.926	350.55
681.12	324.98
681.314	274.99
681.509	321.68
681.703	319.75
681.897	335.83
682.092	315.29
682.286	298.24
682.48	347.07
682.674	346.87
682.869	281.58
683.063	302.7
683.257	402.09
683.451	289.14
683.645	335.05
683.839	322.27
684.034	295.14
684.228	328.47
684.422	278.29
684.616	252.32
684.81	340.28
685.004	304.44
685.198	301.73
685.392	322.27
685.586	291.07
685.78	305.22
685.974	322.65
686.168	348.03
686.362	373.42
686.556	276.54
686.75	266.27
686.944	270.73
687.138	320.91
687.331	242.44
687.525	260.27
687.719	207.57
687.913	283.52
688.107	245.74
688.301	235.47
688.494	297.66
688.688	235.47
688.882	188.97
689.076	220.74
689.269	240.89
689.463	337.77
689.657	259.49
689.85	249.42
690.044	272.47
690.238	250.39
690.431	256.59
690.625	255.04
690.818	276.74
691.012	279.45
691.205	294.56
691.399	235.47
691.593	297.47
691.786	363.92
691.98	331.95
692.173	370.51
692.366	315.29
692.56	336.41
692.753	376.9
692.947	288.17
693.14	377.48
693.333	356.75
693.527	284.49
693.72	354.62
693.914	332.53
694.107	329.43
694.3	363.34
694.493	340.48
694.687	374.58
694.88	348.03
695.073	389.11
695.266	384.07
695.46	365.86
695.653	383.1
695.846	402.48
696.039	296.11
696.232	399.57
696.425	390.08
696.618	397.44
696.812	391.63
697.005	437.35
697.198	512.72
697.391	429.02
697.584	468.93
697.777	482.3
697.97	451.11
698.163	459.83
698.356	429.41
698.549	528.8
698.742	490.83
698.935	466.41
699.127	459.83
699.32	445.1
699.513	433.09
699.706	501.48
699.899	476.49
700.092	452.08
700.285	492.18
700.477	441.23
700.67	513.49
700.863	525.7
701.056	580.34
701.248	568.52
701.441	539.65
701.634	505.16
701.826	601.65
702.019	472.61
702.212	562.71
702.404	481.14
702.597	512.53
702.79	506.71
702.982	544.49
703.175	597
703.367	577.82
703.56	594.87
703.752	655.71
703.945	614.82
704.137	627.81
704.33	645.24
704.522	633.62
704.715	632.84
704.907	637.3
705.1	676.05
705.292	642.53
705.484	656.87
705.677	650.67
705.869	680.12
706.061	687.67
706.254	750.64
706.446	700.85
706.638	708.79
706.831	766.53
707.023	720.61
707.215	787.26
707.407	777.77
707.599	737.27
707.792	800.63
707.984	764.78
708.176	788.42
708.368	742.5
708.56	813.8
708.752	761.68
708.944	776.22
709.136	796.17
709.329	766.33
709.521	918.04
709.713	856.62
709.905	831.82
710.097	891.69
710.289	794.62
710.481	837.83
710.672	846.55
710.864	866.7
711.056	926.56
711.248	902.54
711.44	911.65
711.632	881.61
711.824	909.13
712.016	955.43
712.207	951.17
712.399	919.2
712.591	986.24
712.783	951.56
712.975	986.63
713.166	930.44
713.358	950.01
713.55	1002.51
713.741	1002.9
713.933	1011.04
714.125	983.91
714.316	1012.98
714.508	1009.88
714.7	1055.79
714.891	1055.79
715.083	1125.74
715.274	1045.14
715.466	1032.93
715.657	1113.72
715.849	992.83
716.04	1080.4
716.232	974.23
716.423	1098.81
716.615	1037.39
716.806	984.11
716.998	1007.55
717.189	933.93
717.381	905.25
717.572	884.33
717.763	945.16
717.955	927.73
718.146	885.3
718.337	870.38
718.528	861.85
718.72	795.98
718.911	852.36
719.102	837.25
719.293	878.13
719.485	858.17
719.676	876.96
719.867	828.53
720.058	814.58
720.249	834.53
720.44	868.83
720.632	876.38
720.823	904.09
721.014	975.97
721.205	951.94
721.396	1013.36
721.587	1086.41
721.778	1054.44
721.969	1099
722.16	1125.35
722.351	1102.68
722.542	1233.07
722.733	1218.73
722.924	1132.52
723.115	1179.4
723.305	1192.19
723.496	1213.7
723.687	1157.51
723.878	1120.89
724.069	1124.96
724.26	1163.9
724.45	1075.56
724.641	1100.55
724.832	1134.45
725.023	1120.5
725.213	1116.24
725.404	1121.09
725.595	1135.04
725.785	1100.94
725.976	1156.93
726.167	1173.4
726.357	1135.62
726.548	1225.9
726.739	1171.46
726.929	1226.48
727.12	1215.63
727.31	1225.9
727.501	1210.79
727.691	1213.5
727.882	1234.82
728.072	1293.91
728.263	1246.25
728.453	1241.02
728.644	1274.15
728.834	1247.41
729.024	1249.73
729.215	1222.61
729.405	1266.98
729.596	1342.93
729.786	1342.15
729.976	1317.35
730.167	1384.78
730.357	1293.52
730.547	1323.55
730.737	1336.53
730.928	1365.98
731.118	1406.86
731.308	1366.18
731.498	1356.88
731.688	1456.08
731.879	1408.41
732.069	1436.51
732.259	1449.88
732.449	1468.09
732.639	1540.36
732.829	1527.57
733.019	1558.57
733.209	1593.25
733.399	1565.93
733.589	1604.87
733.779	1658.35
733.969	1636.26
734.159	1669.39
734.349	1709.69
734.539	1744.37
734.729	1700
734.919	1745.53
735.109	1804.24
735.299	1741.46
735.488	1758.32
735.678	1769.56
735.868	1771.69
736.058	1761.61
736.248	1767.23
736.437	1747.66
736.627	1710.85
736.817	1842.99
737.007	1792.81
737.196	1814.51
737.386	1784.67
737.576	1753.48
737.765	1831.94
737.955	1844.54
738.144	1900.53
738.334	1858.29
738.524	1804.05
738.713	1871.28
738.903	1863.14
739.092	1882.71
739.282	1873.41
739.471	1872.44
739.661	1900.34
739.85	1887.36
740.04	1903.82
740.229	1955.56
740.419	1931.72
740.608	1959.62
740.797	1952.26
740.987	1991.59
741.176	1971.44
741.365	1933.86
741.555	1906.73
741.744	2014.45
741.933	2003.41
742.123	1969.12
742.312	2005.54
742.501	2019.3
742.69	2003.99
742.88	1931.92
743.069	2048.17
743.258	2008.06
743.447	2040.03
743.636	2051.85
743.825	2000.12
744.014	2024.34
744.204	2049.91
744.393	1983.07
744.582	2030.34
744.771	2036.74
744.96	2019.1
745.149	2065.6
745.338	1998.57
745.527	2044.68
745.716	2037.12
745.905	2025.5
746.094	2038.87
746.283	2064.25
746.471	2075.87
746.66	2113.85
746.849	2084.01
747.038	2115.4
747.227	2082.27
747.416	2091.57
747.604	2063.47
747.793	2080.33
747.982	2079.94
748.171	2059.02
748.359	2121.98
748.548	2109.2
748.737	2097.77
748.926	2053.01
749.114	1996.82
749.303	2082.85
749.491	2084.59
749.68	2013.49
749.869	2094.67
750.057	2047.39
750.246	2033.25
750.434	2051.07
750.623	2033.25
750.811	2031.5
751	2078.97
751.188	2043.32
751.377	2069.87
751.565	2033.44
751.754	2004.57
751.942	2039.06
752.131	2099.9
752.319	2022.98
752.507	2023.75
752.696	2047.78
752.884	2087.5
753.072	2057.66
753.261	2072
753.449	2037.7
753.637	2010.97
753.825	2102.61
754.014	2032.67
754.202	2042.55
754.39	2140.97
754.578	2048.55
754.766	2062.12
754.955	2036.93
755.143	2115.01
755.331	2014.65
755.519	2053.01
755.707	2045.07
755.895	2020.46
756.083	2047
756.271	2023.37
756.459	2016.78
756.647	2093.89
756.835	2053.2
757.023	2020.65
757.211	2016.39
757.399	2005.93
757.587	2007.09
757.775	1975.71
757.963	2030.92
758.151	1981.32
758.339	1955.94
758.526	1973.96
758.714	1990.62
758.902	1946.64
759.09	1855.97
759.278	1754.83
759.465	1642.46
759.653	1381.68
759.841	1330.14
760.028	1108.3
760.216	980.62
760.404	948.65
760.591	784.55
760.779	609.21
760.967	568.52
761.154	446.46
761.342	502.26
761.529	544.88
761.717	535.19
761.905	489.86
762.092	560.96
762.28	476.1
762.467	493.35
762.655	447.62
762.842	467.77
763.029	498.38
763.217	496.25
763.404	475.33
763.592	538.29
763.779	465.06
763.966	498.77
764.154	526.86
764.341	573.17
764.528	587.31
764.716	613.27
764.903	623.35
765.09	690.19
765.277	717.12
765.465	802.95
765.652	847.51
765.839	905.25
766.026	947.49
766.213	992.24
766.4	1049.21
766.588	1197.81
766.775	1143.75
766.962	1247.6
767.149	1248.18
767.336	1365.01
767.523	1292.55
767.71	1421.78
767.897	1493.66
768.084	1547.91
768.271	1532.8
768.458	1590.34
768.645	1638.97
768.832	1598.87
769.019	1613.01
769.206	1622.7
769.392	1715.12
769.579	1776.15
769.766	1722.48
769.953	1700.97
770.14	1760.84
770.327	1737.4
770.513	1762.58
770.7	1846.86
770.887	1725.96
771.073	1836.01
771.26	1789.13
771.447	1805.01
771.634	1761.61
771.82	1836.79
772.007	1774.4
772.193	1771.3
772.38	1866.04
772.567	1792.81
772.753	1793.78
772.94	1834.27
773.126	1859.07
773.313	1797.65
773.499	1847.25
773.686	1818.58
773.872	1774.21
774.059	1814.51
774.245	1784.28
774.432	1778.86
774.618	1689.54
774.804	1798.81
774.991	1733.52
775.177	1809.86
775.363	1743.79
775.55	1830.59
775.736	1740.69
775.922	1725.58
776.109	1780.99
776.295	1785.64
776.481	1756
776.667	1793.2
776.853	1751.93
777.04	1738.36
777.226	1755.03
777.412	1856.55
777.598	1694.38
777.784	1713.76
777.97	1709.88
778.156	1760.26
778.342	1683.53
778.528	1718.6
778.715	1671.13
778.901	1710.27
779.087	1732.16
779.272	1681.98
779.458	1670.17
779.644	1712.21
779.83	1668.03
780.016	1815.86
780.202	1696.9
780.388	1683.34
780.574	1615.72
780.76	1666.87
780.946	1727.9
781.131	1698.26
781.317	1695.16
781.503	1630.25
781.689	1681.21
781.874	1796.3
782.06	1641.3
782.246	1676.37
782.432	1660.09
782.617	1653.7
782.803	1710.08
782.989	1633.35
783.174	1655.05
783.36	1619.4
783.545	1663
783.731	1661.45
783.916	1601.97
784.102	1647.3
784.288	1602.94
784.473	1638.58
784.659	1582.4
784.844	1639.36
785.029	1577.94
785.215	1616.3
785.4	1571.74
785.586	1663.97
785.771	1576.39
785.956	1613.98
786.142	1590.15
786.327	1544.04
786.512	1569.22
786.698	1552.37
786.883	1520.21
787.068	1498.89
787.254	1543.65
787.439	1567.48
787.624	1527.37
787.809	1510.32
787.994	1508.97
788.18	1606.81
788.365	1499.28
788.55	1533.57
788.735	1514.59
788.92	1517.49
789.105	1511.87
789.29	1558.37
789.475	1471.96
789.66	1504.32
789.845	1504.32
790.03	1455.11
790.215	1506.45
790.4	1520.01
790.585	1527.76
790.77	1453.75
790.955	1408.03
791.14	1490.56
791.325	1513.81
791.51	1404.34
791.695	1443.29
791.879	1456.66
792.064	1403.96
792.249	1532.22
792.434	1466.92
792.618	1431.28
792.803	1477.97
792.988	1439.99
793.173	1471.77
793.357	1480.68
793.542	1423.91
793.727	1470.41
793.911	1515.75
794.096	1450.26
794.281	1476.61
794.465	1552.95
794.65	1438.64
794.834	1469.83
795.019	1522.92
795.203	1491.53
795.388	1507.42
795.572	1522.72
795.757	1474.87
795.941	1503.35
796.126	1512.84
796.31	1431.28
796.494	1485.14
796.679	1441.35
796.863	1441.93
797.048	1530.47
797.232	1494.44
797.416	1449.29
797.601	1482.04
797.785	1553.72
797.969	1493.66
798.153	1461.31
798.338	1475.26
798.522	1508.97
798.706	1536.48
798.89	1504.12
799.074	1578.14
799.258	1530.47
799.443	1457.43
799.627	1492.11
799.811	1544.62
799.995	1460.34
800.179	1480.1
800.363	1513.81
800.547	1498.12
800.731	1511.49
800.915	1422.75
801.099	1465.57
801.283	1463.24
801.467	1496.57
801.651	1460.92
801.835	1550.43
802.019	1475.45
802.202	1494.44
802.386	1456.08
802.57	1477.39
802.754	1463.24
802.938	1441.35
803.121	1474.67
803.305	1532.8
803.489	1476.61
803.673	1517.49
803.856	1482.42
804.04	1475.84
804.224	1491.92
804.407	1476.61
804.591	1461.5
804.775	1478.36
804.958	1488.43
805.142	1582.59
805.326	1485.14
805.509	1495.99
805.693	1500.83
805.876	1555.08
806.06	1495.6
806.243	1514.97
806.427	1525.82
806.61	1551.59
806.794	1506.06
806.977	1535.71
807.16	1498.51
807.344	1480.1
807.527	1496.57
807.71	1473.51
807.894	1516.72
808.077	1553.92
808.26	1447.74
808.444	1484.94
808.627	1519.43
808.81	1472.54
808.993	1442.9
809.177	1430.11
809.36	1491.34
809.543	1459.56
809.726	1398.92
809.909	1399.5
810.092	1356.68
810.276	1398.34
810.459	1440.19
810.642	1403.38
810.825	1396.98
811.008	1380.9
811.191	1313.67
811.374	1316
811.557	1325.68
811.74	1405.7
811.923	1298.75
812.106	1320.26
812.289	1282.09
812.472	1299.33
812.654	1305.15
812.837	1290.03
813.02	1252.64
813.203	1253.8
813.386	1137.55
813.569	1181.54
813.751	1140.27
813.934	1156.35
814.117	1180.18
814.3	1119.34
814.482	1116.05
814.665	1061.61
814.848	1054.24
815.03	1030.41
815.213	1048.82
815.396	1041.26
815.578	1008.91
815.761	982.17
815.943	1046.11
816.126	968.41
816.309	951.36
816.491	914.36
816.674	850.61
816.856	914.36
817.039	907.38
817.221	994.96
817.403	931.8
817.586	930.63
817.768	973.45
817.951	907
818.133	884.52
818.315	921.14
818.498	943.23
818.68	1000.96
818.862	938.96
819.045	977.33
819.227	950.2
819.409	932.18
819.591	971.32
819.774	935.86
819.956	912.42
820.138	1008.91
820.32	973.64
820.502	973.45
820.684	1038.16
820.866	1014.33
821.048	1042.81
821.231	1092.22
821.413	1066.06
821.595	1042.04
821.777	1056.96
821.959	1038.55
822.141	1104.81
822.323	996.7
822.505	961.24
822.686	976.36
822.868	928.5
823.05	807.6
823.232	864.56
823.414	822.13
823.596	842.28
823.778	815.35
823.96	856.43
824.141	827.37
824.323	831.05
824.505	897.7
824.687	949.62
824.868	960.28
825.05	1018.4
825.232	1010.84
825.413	1116.24
825.595	1036.22
825.777	984.3
825.958	1059.86
826.14	1021.11
826.321	1067.42
826.503	1018.98
826.685	1065.87
826.866	1059.86
827.048	1048.04
827.229	1045.72
827.411	968.61
827.592	977.13
827.773	970.35
827.955	934.51
828.136	935.67
828.318	906.61
828.499	980.23
828.68	905.45
828.862	943.42
829.043	953.88
829.224	939.74
829.406	905.83
829.587	940.9
829.768	896.15
829.949	944.58
830.131	932.76
830.312	987.59
830.493	920.95
830.674	954.66
830.855	904.67
831.036	939.35
831.218	932.76
831.399	1004.64
831.58	938.96
831.761	965.51
831.942	955.24
832.123	938.19
832.304	882.2
832.485	902.93
832.666	893.24
832.847	947.49
833.028	950.59
833.209	917.85
833.389	896.34
833.57	869.8
833.751	899.63
833.932	931.99
834.113	930.83
834.294	944.39
834.475	914.16
834.655	980.23
834.836	968.41
835.017	962.02
835.198	888.4
835.378	906.03
835.559	950.98
835.74	950.39
835.92	925.98
836.101	903.31
836.281	961.05
836.462	956.79
836.643	963.38
836.823	984.49
837.004	991.66
837.184	1029.44
837.365	942.84
837.545	975.19
837.726	957.18
837.906	1061.02
838.087	956.98
838.267	962.41
838.448	923.85
838.628	988.37
838.808	976.16
838.989	1027.12
839.169	951.36
839.349	973.45
839.53	987.21
839.71	986.63
839.89	944.19
840.07	1017.63
840.251	958.53
840.431	996.89
840.611	988.56
840.791	937.99
840.971	1007.55
841.151	971.32
841.332	956.21
841.512	1001.54
841.692	898.08
841.872	990.89
842.052	981.98
842.232	994.57
842.412	884.33
842.592	956.4
842.772	998.83
842.952	967.06
843.132	911.26
843.312	938.58
843.492	887.04
843.672	962.99
843.851	888.01
844.031	943.81
844.211	905.45
844.391	921.14
844.571	970.74
844.751	952.14
844.93	950.39
845.11	913.2
845.29	947.88
845.47	969.38
845.649	933.15
845.829	968.22
846.009	911.65
846.188	972.68
846.368	911.84
846.547	938.58
846.727	951.36
846.907	903.12
847.086	923.66
847.266	966.28
847.445	929.86
847.625	899.25
847.804	882.58
847.984	916.68
848.163	879.87
848.343	905.83
848.522	945.36
848.701	924.82
848.881	915.13
849.06	917.07
849.239	921.53
849.419	898.28
849.598	888.78
849.777	874.06
849.957	890.91
850.136	847.13
850.315	819.81
850.494	846.93
850.674	807.99
850.853	862.05
851.032	833.76
851.211	874.45
851.39	837.05
851.569	795.59
851.748	839.77
851.927	885.88
852.107	865.73
852.286	838.22
852.465	795.98
852.644	869.6
852.823	865.73
853.002	849.84
853.181	836.47
853.359	841.9
853.538	809.93
853.717	886.85
853.896	777.77
854.075	776.41
854.254	763.04
854.433	705.5
854.611	778.15
854.79	729.72
854.969	760.33
855.148	782.22
855.327	698.52
855.505	789.97
855.684	714.02
855.863	772.34
856.041	716.15
856.22	765.37
856.399	761.1
856.577	826.59
856.756	783.19
856.934	898.28
857.113	910.48
857.291	807.02
857.47	768.85
857.648	810.7
857.827	826.01
858.005	841.51
858.184	792.3
858.362	882.97
858.541	810.51
858.719	796.75
858.898	800.82
859.076	774.47
859.254	882.2
859.433	795.4
859.611	767.3
859.789	751.61
859.967	844.22
860.146	880.26
860.324	739.79
860.502	766.53
860.68	744.44
860.859	766.53
861.037	758.58
861.215	792.3
861.393	792.1
861.571	788.03
861.749	741.73
861.927	791.13
862.105	775.63
862.283	768.85
862.461	706.85
862.639	723.32
862.817	724.68
862.995	752.19
863.173	755.87
863.351	766.53
863.529	739.21
863.707	805.67
863.885	781.64
864.063	679.15
864.241	733.01
864.418	795.4
864.596	747.35
864.774	677.02
864.952	729.52
865.129	765.95
865.307	733.2
865.485	680.12
865.663	780.67
865.84	700.46
866.018	707.24
866.196	628.58
866.373	643.89
866.551	630.91
866.728	599.91
866.906	629.36
867.084	632.46
867.261	647.96
867.439	679.15
867.616	688.45
867.794	693.29
867.971	677.4
868.149	691.94
868.326	725.26
868.503	700.27
868.681	706.66
868.858	673.14
869.035	665.39
869.213	692.9
869.39	716.74
869.567	766.14
869.745	646.6
869.922	681.28
870.099	706.27
870.276	709.57
870.454	729.72
870.631	704.92
870.808	676.82
870.985	737.08
871.162	764.98
871.339	700.07
871.517	654.74
871.694	668.88
871.871	640.01
872.048	670.82
872.225	664.81
872.402	703.75
872.579	611.53
872.756	681.86
872.933	634.78
873.11	655.9
873.287	685.74
873.463	645.24
873.64	633.42
873.817	683.41
873.994	642.34
874.171	647.76
874.348	665.39
874.524	574.14
874.701	651.64
874.878	571.62
875.055	643.69
875.231	632.46
875.408	676.05
875.585	584.41
875.762	639.04
875.938	614.82
876.115	619.47
876.291	609.4
876.468	621.22
876.645	583.63
876.821	588.28
876.998	579.18
877.174	638.27
877.351	607.27
877.527	615.79
877.704	604.56
877.88	610.95
878.057	565.42
878.233	626.06
878.409	597.19
878.586	621.22
878.762	616.96
878.938	608.62
879.115	531.9
879.291	597
879.467	544.11
879.644	560.38
879.82	604.56
879.996	567.55
880.172	536.94
880.349	583.44
880.525	563.68
880.701	569.1
880.877	582.66
881.053	587.89
881.229	580.53
881.405	623.35
881.581	523.18
881.757	576.46
881.933	582.47
882.109	599.32
882.285	580.34
882.461	518.92
882.637	573.36
882.813	539.65
882.989	537.71
883.165	591.96
883.341	558.64
883.517	609.79
883.693	590.8
883.869	567.94
884.044	559.03
884.22	573.75
884.396	594.87
884.572	590.22
884.747	594.87
884.923	604.36
885.099	603.2
885.275	607.27
885.45	522.02
885.626	560.96
885.801	528.41
885.977	561.35
886.153	506.52
886.328	560.77
886.504	529.77
886.679	597.58
886.855	536.16
887.03	574.72
887.206	592.54
887.381	592.16
887.557	570.07
887.732	565.81
887.908	603.39
888.083	602.62
888.258	553.99
888.434	544.69
888.609	586.54
888.784	596.61
888.96	582.28
889.135	530.54
889.31	524.93
889.485	536.36
889.661	535.78
889.836	600.87
890.011	564.45
890.186	557.09
890.361	539.26
890.537	555.34
890.712	570.65
890.887	554.96
891.062	562.32
891.237	629.94
891.412	527.83
891.587	569.68
891.762	593.32
891.937	615.41
892.112	531.9
892.287	572.59
892.462	517.95
892.637	510.39
892.812	510.78
892.987	490.44
893.161	516.59
893.336	521.44
893.511	518.73
893.686	534.81
893.861	513.69
894.035	499.16
894.21	519.69
894.385	460.6
894.56	481.33
894.734	454.4
894.909	458.86
895.084	468.16
895.258	478.23
895.433	484.43
895.608	486.95
895.782	430.18
895.957	438.13
896.131	429.21
896.306	366.44
896.48	443.55
896.655	409.84
896.829	373.22
897.004	363.15
897.178	362.57
897.353	371.28
897.527	428.63
897.701	390.66
897.876	344.35
898.05	380.2
898.224	383.3
898.399	429.8
898.573	407.9
898.747	306.77
898.921	358.11
899.096	321.88
899.27	325.56
899.444	304.05
899.618	322.85
899.792	348.62
899.967	298.05
900.141	370.32
900.315	263.56
900.489	357.72
900.663	350.55
900.837	368.38
901.011	284.87
901.185	392.21
901.359	313.55
901.533	322.65
901.707	345.9
901.881	330.98
902.055	286.04
902.229	323.82
902.403	374.58
902.576	326.92
902.75	304.25
902.924	432.12
903.098	348.23
903.272	392.4
903.446	405.58
903.619	372.25
903.793	409.45
903.967	375.74
904.14	431.93
904.314	421.66
904.488	412.75
904.661	441.61
904.835	391.43
905.009	447.43
905.182	464.09
905.356	439.29
905.529	421.08
905.703	374
905.876	398.6
906.05	384.46
906.223	378.84
906.397	312.58
906.57	312.19
906.744	322.27
906.917	330.6
907.09	321.1
907.264	347.45
907.437	290.69
907.61	302.31
907.784	309.29
907.957	315.87
908.13	267.24
908.304	343.58
908.477	276.35
908.65	312
908.823	258.72
908.996	361.6
909.17	283.9
909.343	294.95
909.516	315.68
909.689	289.52
909.862	305.22
910.035	303.67
910.208	262.01
910.381	273.05
910.554	357.33
910.727	283.13
910.9	310.45
911.073	270.54
911.246	331.37
911.419	344.35
911.592	318
911.765	265.11
911.938	274.99
912.11	282.74
912.283	306.57
912.456	337.77
912.629	289.52
912.802	262.01
912.974	230.82
913.147	201.37
913.32	180.06
913.493	222.68
913.665	257.55
913.838	256.59
914.01	254.65
914.183	258.14
914.356	215.32
914.528	261.82
914.701	316.84
914.873	308.9
915.046	273.83
915.218	199.82
915.391	178.12
915.563	215.51
915.736	255.04
915.908	266.66
916.081	265.5
916.253	234.89
916.425	252.13
916.598	244.19
916.77	249.61
916.942	233.53
917.115	182.77
917.287	266.27
917.459	218.22
917.632	200.98
917.804	159.13
917.976	264.14
918.148	236.63
918.32	241.67
918.493	232.76
918.665	269.57
918.837	249.22
919.009	280.22
919.181	290.88
919.353	239.34
919.525	257.94
919.697	238.18
919.869	247.29
920.041	325.95
920.213	347.07
920.385	263.17
920.557	244.96
920.729	276.74
920.901	284.29
921.073	208.54
921.244	229.27
921.416	300.76
921.588	251.35
921.76	241.67
921.932	303.47
922.103	246.51
922.275	272.47
922.447	262.01
922.619	214.16
922.79	233.53
922.962	236.05
923.134	268.79
923.305	218.42
923.477	208.54
923.648	211.06
923.82	244.38
923.991	189.94
924.163	208.92
924.335	212.41
924.506	181.61
924.677	276.54
924.849	197.69
925.02	217.64
925.192	274.99
925.363	206.02
925.535	234.89
925.706	196.52
925.877	278.87
926.049	202.92
926.22	250.77
926.391	257.17
926.562	235.85
926.734	191.49
926.905	231.4
927.076	162.42
927.247	202.72
927.419	180.25
927.59	163.97
927.761	180.25
927.932	165.72
928.103	215.32
928.274	164.17
928.445	104.88
928.616	153.12
928.787	164.75
928.958	198.07
929.129	151.38
929.3	156.03
929.471	133.17
929.642	129.1
929.813	72.72
929.984	170.56
930.155	76.01
930.326	135.3
930.496	74.85
930.667	58.77
930.838	118.44
931.009	58.96
931.18	106.24
931.35	89.58
931.521	115.54
931.692	57.61
931.863	32.03
932.033	69.23
932.204	84.15
932.374	84.34
932.545	34.75
932.716	95.97
932.886	94.81
933.057	-5.55
933.227	18.86
933.398	118.83
933.568	44.63
933.739	9.17
933.909	37.65
934.08	70.39
934.25	-29.38
934.421	-2.07
934.591	35.13
934.761	-8.46
934.932	-27.25
935.102	-3.23
935.272	-4.59
935.443	42.88
935.613	31.65
935.783	48.7
935.953	1.42
936.123	163.59
936.294	-7.3
936.464	9.56
936.634	17.11
936.804	-11.56
936.974	-18.15
937.144	35.71
937.314	21.96
937.484	22.15
937.655	3.75
937.825	55.28
937.995	13.82
938.165	54.9
938.334	16.73
938.504	16.34
938.674	-21.25
938.844	2.39
939.014	63.61
939.184	38.04
939.354	75.24
939.524	69.62
939.694	4.71
939.863	49.47
940.033	106.04
940.203	87.25
940.373	57.41
940.542	103.91
940.712	32.81
940.882	98.88
941.051	95.58
941.221	82.21
941.391	101.01
941.56	36.1
941.73	36.68
941.899	146.54
942.069	26.22
942.238	100.62
942.408	51.8
942.577	66.33
942.747	20.6
942.916	24.48
943.086	11.69
943.255	78.53
943.425	58.96
943.594	-7.88
943.763	-12.34
943.933	36.1
944.102	-31.13
944.271	36.3
944.441	54.12
944.61	21.38
944.779	14.98
944.948	100.62
945.117	1.42
945.287	21.96
945.456	-19.89
945.625	23.9
945.794	41.33
945.963	-5.75
946.132	70.01
946.301	20.02
946.47	78.92
946.639	-24.15
946.808	0.45
946.977	52.18
947.146	81.83
947.315	13.43
947.484	62.26
947.653	29.51
947.822	8.59
947.991	-2.45
948.16	110.31
948.329	40.95
948.498	32.61
948.666	4.33
948.835	79.31
949.004	-15.05
949.173	-21.25
949.341	12.85
949.51	41.91
949.679	77.76
949.847	60.9
950.016	124.84
950.185	94.03
950.353	24.86
950.522	12.27
950.69	54.7
950.859	19.63
951.028	88.22
951.196	43.85
951.365	21.38
951.533	7.23
951.701	51.6
951.87	50.63
952.038	13.82
952.207	51.8
952.375	83.96
952.543	21.38
952.712	37.65
952.88	27.19
953.048	81.63
953.217	48.89
953.385	22.35
953.553	93.06
953.721	-8.85
953.89	15.18
954.058	-17.37
954.226	9.56
954.394	49.08
954.562	2.58
954.73	23.31
954.898	31.84
955.067	71.17
955.235	-1.49
955.403	68.26
955.571	91.71
955.739	67.88
955.907	-16.02
956.075	13.24
956.243	-4
956.41	67.68
956.578	-14.85
956.746	5.3
956.914	10.53
957.082	33.58
957.25	45.98
957.418	-6.14
957.585	63.81
957.753	60.9
957.921	1.81
958.089	40.95
958.256	39.4
958.424	27.77
958.592	16.15
958.759	14.4
958.927	78.73
959.095	11.3
959.262	29.13
959.43	38.43
959.597	7.62
959.765	5.3
959.932	11.5
960.1	57.03
960.267	18.08
960.435	17.11
960.602	71.17
960.77	18.66
960.937	-8.46
961.104	44.63
961.272	-35.97
961.439	11.88
961.606	23.9
961.774	82.99
961.941	23.9
962.108	64
962.275	32.61
962.443	88.99
962.61	60.32
962.777	106.43
962.944	56.25
963.111	62.45
963.278	59.93
963.446	45.98
963.613	30.48
963.78	57.61
963.947	72.53
964.114	27.38
964.281	119.99
964.448	59.16
964.615	22.93
964.782	32.42
964.949	57.8
965.116	61.48
965.282	95.19
965.449	57.03
965.616	33.78
965.783	70.39
965.95	68.26
966.117	13.63
966.283	19.63
966.45	54.51
966.617	48.7
966.784	101.78
966.95	75.63
967.117	62.64
967.284	7.62
967.45	19.83
967.617	97.13
967.784	80.66
967.95	104.69
968.117	18.47
968.283	97.13
968.45	146.15
968.616	62.64
968.783	71.56
968.949	49.28
969.116	87.64
969.282	61.09
969.449	88.41
969.615	65.94
969.781	5.49
969.948	22.93
970.114	-4.78
970.28	117.67
970.447	50.44
970.613	82.79
970.779	32.61
970.945	64.78
971.112	60.13
971.278	31.84
971.444	34.75
971.61	109.34
971.776	26.41
971.942	79.69
972.108	101.59
972.275	10.91
972.441	79.11
972.607	116.7
972.773	29.71
972.939	37.65
973.105	56.64
973.271	14.01
973.437	45.6
973.602	17.89
973.768	79.69
973.934	50.63
974.1	60.9
974.266	-18.54
974.432	81.63
974.598	13.24
974.763	83.96
974.929	34.16
975.095	106.43
975.261	25.64
975.426	28.74
975.592	72.14
975.758	95
975.923	10.14
976.089	16.15
976.255	62.45
976.42	84.73
976.586	79.11
976.751	70.2
976.917	105.66
977.082	78.92
977.248	-1.1
977.413	-12.14
977.579	41.53
977.744	48.89
977.91	29.32
978.075	19.05
978.24	55.48
978.406	35.52
978.571	40.17
978.736	0.26
978.902	97.13
979.067	41.91
979.232	1.03
979.397	40.36
979.563	86.86
979.728	11.5
979.893	55.86
980.058	7.23
980.223	80.47
980.388	63.61
980.554	51.21
980.719	14.6
980.884	51.21
981.049	80.66
981.214	13.05
981.379	73.3
981.544	18.28
981.709	36.88
981.874	43.08
982.039	63.61
982.204	37.46
982.368	54.12
982.533	8.2
982.698	70.78
982.863	55.86
983.028	48.7
983.193	72.14
983.357	63.23
983.522	51.21
983.687	54.9
983.852	26.8
984.016	22.15
984.181	52.18
984.346	36.49
984.51	65.16
984.675	12.46
984.839	53.15
985.004	67.49
985.168	34.16
985.333	56.83
985.498	64.78
985.662	69.04
985.827	44.82
985.991	40.17
986.155	38.43
986.32	82.6
986.484	105.27
986.649	62.64
986.813	-6.72
986.977	41.14
987.142	76.98
987.306	26.22
987.47	-1.49
987.634	31.45
987.799	37.26
987.963	45.79
988.127	74.08
988.291	114.18
988.455	27.58
988.62	41.14
988.784	56.64
988.948	82.41
989.112	30.29
989.276	65.16
989.44	53.93
989.604	3.36
989.768	27.96
989.932	117.28
990.096	-9.24
990.26	0.26
990.424	-5.17
990.588	47.15
990.752	117.86
990.915	98.1
991.079	29.13
991.243	16.92
991.407	63.81
991.571	19.44
991.734	77.95
991.898	33.97
992.062	134.53
992.226	19.44
992.389	63.42
992.553	16.15
992.717	20.99
992.88	17.89
993.044	29.32
993.207	33.2
993.371	52.38
993.535	56.06
993.698	77.37
993.862	94.03
994.025	91.9
994.189	58.77
994.352	50.63
994.515	55.28
994.679	76.21
994.842	21.18
995.006	74.66
995.169	17.11
995.332	-2.07
995.496	63.61
995.659	-1.87
995.822	31.84
995.985	23.7
996.149	78.53
996.312	35.33
996.475	137.43
996.638	30.29
996.801	78.53
996.964	92.29
997.128	28.35
997.291	29.13
997.454	20.8
997.617	-0.9
997.78	80.28
997.943	15.18
998.106	82.41
998.269	14.01
998.432	33
998.595	64.39
998.758	5.3
998.92	-14.66
999.083	-19.89
999.246	29.9
999.409	5.3
999.572	-19.31
999.735	11.11
999.897	38.04
1000.06	20.02
1000.223	5.68
1000.386	52.96
1000.548	36.3
1000.711	58.96
1000.874	47.15
1001.036	-21.44
1001.199	71.17
1001.361	20.21
1001.524	30.48
1001.687	39.2
1001.849	2
1002.012	17.5
1002.174	25.83
1002.337	58.77
1002.499	21.38
1002.661	67.29
1002.824	2.58
1002.986	7.62
1003.149	31.65
1003.311	4.91
1003.473	87.44
1003.636	20.8
1003.798	34.16
1003.96	56.06
1004.123	15.18
1004.285	24.28
1004.447	19.44
1004.609	27.19
1004.771	84.73
1004.933	-27.25
1005.096	10.91
1005.258	-29.19
1005.42	18.28
1005.582	84.73
1005.744	57.22
1005.906	-24.93
1006.068	43.85
1006.23	-4.59
1006.392	-24.74
1006.554	6.85
1006.716	60.9
1006.878	45.4
1007.04	-6.52
1007.202	-8.07
1007.363	67.29
1007.525	35.71
1007.687	42.11
1007.849	65.74
1008.011	-17.57
1008.172	-15.82
1008.334	14.79
1008.496	57.61
1008.658	-37.91
1008.819	-4.59
1008.981	-14.08
1009.143	-4
1009.304	3.16
1009.466	54.9
1009.627	88.99
1009.789	114.18
1009.95	27.77
1010.112	-5.94
1010.273	38.43
1010.435	-10.4
1010.596	28.55
1010.758	5.49
1010.919	21.57
1011.081	-3.81
1011.242	38.62
1011.403	45.4
1011.565	9.17
1011.726	32.03
1011.887	-31.52
1012.049	3.16
1012.21	41.91
1012.371	57.8
1012.532	-36.36
1012.693	5.3
1012.855	-17.76
1013.016	18.28
1013.177	29.51
1013.338	2.97
1013.499	95.78
1013.66	10.53
1013.821	34.75
1013.982	44.43
1014.143	34.55
1014.304	24.48
1014.465	28.16
1014.626	47.15
1014.787	-26.87
1014.948	92.87
1015.109	-50.89
1015.27	60.9
1015.431	-2.07
1015.592	-10.98
1015.752	76.98
1015.913	18.47
1016.074	20.99
1016.235	11.88
1016.395	27.58
1016.556	-4.2
1016.717	-0.52
1016.877	66.91
1017.038	-10.79
1017.199	22.93
1017.359	34.55
1017.52	15.37
1017.681	-0.32
1017.841	20.02
1018.002	-9.62
1018.162	4.91
1018.323	62.26
1018.483	14.4
1018.644	-6.91
1018.804	-24.93
1018.964	-27.06
1019.125	-14.27
1019.285	23.9
1019.446	-2.65
1019.606	-8.27
1019.766	-47.98
1019.926	23.51
1020.087	14.79
1020.247	-24.74
1020.407	52.57
1020.567	63.23
1020.728	6.07
1020.888	-27.64
1021.048	-45.85
1021.208	-15.44
1021.368	-0.9
1021.528	58
1021.688	49.86
1021.848	40.36
1022.008	11.3
1022.168	-4.39
1022.328	-12.72
1022.488	50.44
1022.648	-22.8
1022.808	3.55
1022.968	47.34
1023.128	2.2
1023.288	-2.45
1023.448	9.95
1023.608	40.56
1023.767	18.66
1023.927	-20.09
1024.087	-14.66
1024.247	-24.93
1024.406	7.04
1024.566	-21.44
1024.726	-25.7
1024.885	11.3
1025.045	38.43
1025.205	0.26
1025.364	-1.68
1025.524	11.5
1025.683	19.05
1025.843	36.49
1026.003	10.53
1026.162	55.28
1026.321	46.95
1026.481	7.04
1026.64	-3.62
1026.8	18.47
1026.959	33.97
1027.119	21.76
1027.278	-8.65
1027.437	-8.27
1027.597	4.13
1027.756	11.11
1027.915	45.79
1028.074	23.12
1028.234	3.55
1028.393	11.69
1028.552	-7.49
1028.711	-66.2
1028.87	33.97
1029.03	-2.07
1029.189	-1.29
1029.348	-63.68
1029.507	-9.82
1029.666	-2.84
1029.825	-26.67
1029.984	-22.02
1030.143	7.81
1030.302	-28.03
1030.461	-46.63
1030.62	5.3
1030.779	31.06
1030.938	-24.35
1031.097	-32.29
1031.255	51.99
1031.414	47.53
1031.573	32.23
1031.732	-45.47
1031.891	-14.27
1032.049	19.44
1032.208	27.19
1032.367	-7.1
1032.525	-22.41
1032.684	-7.88
1032.843	7.04
1033.001	-28.61
1033.16	150.8
1033.319	48.7
1033.477	34.36
1033.636	-12.14
1033.794	-43.92
1033.953	64.19
1034.111	37.46
1034.27	-5.17
1034.428	30.87
1034.587	-18.92
1034.745	8.98
1034.903	13.05
1035.062	12.27
1035.22	-56.7
1035.378	39.01
1035.537	-29
1035.695	50.63
1035.853	24.67
1036.011	33
1036.17	16.53
1036.328	-57.87
1036.486	-8.07
1036.644	28.93
1036.802	-83.05
1036.96	-28.8
1037.119	-10.2
1037.277	-9.62
1037.435	-19.31
1037.593	-18.15
1037.751	-0.32
1037.909	29.13
1038.067	29.13
