Data from pine_FLMT105791__168__17-23-22-073.txt Node

Date: Mon Mar 20 17:23:22 GMT 2023
User: antho
Spectrometer: FLMT10579
Trigger mode: 0
Integration Time (sec): 1.000000E-1
Scans to average: 10
Electric dark correction enabled: true
Nonlinearity correction enabled: false
Boxcar width: 0
XAxis mode: Wavelengths
Number of Pixels in Spectrum: 3648
>>>>>Begin Spectral Data<<<<<
345.248	-167.66
345.464	-167.66
345.681	-167.66
345.898	-151.57
346.114	-154.87
346.331	-31.06
346.548	47.79
346.764	-34.75
346.981	4.59
347.197	-11.88
347.414	2.84
347.631	-32.81
347.847	79.57
348.064	5.75
348.28	35.2
348.497	-45.79
348.713	-19.44
348.93	26.29
349.146	30.16
349.363	-22.73
349.579	11.56
349.796	-2.78
350.012	-5.3
350.229	30.35
350.445	-9.75
350.661	-15.56
350.878	-38.43
351.094	18.34
351.311	0.13
351.527	-5.1
351.743	-27.58
351.96	27.84
352.176	25.51
352.392	16.4
352.609	30.55
352.825	5.17
353.041	8.65
353.257	-32.03
353.474	-8.2
353.69	23.19
353.906	2.65
354.122	-35.13
354.339	55.73
354.555	18.15
354.771	-12.46
354.987	61.74
355.203	49.53
355.42	0.13
355.636	-13.05
355.852	-41.72
356.068	-14.98
356.284	-47.34
356.5	62.52
356.716	4.39
356.932	-2
357.148	16.79
357.364	1.1
357.58	48.95
357.796	41.4
358.012	36.17
358.228	11.37
358.444	-67.29
358.66	45.47
358.876	9.82
359.092	-20.6
359.308	3.81
359.524	8.65
359.74	-5.68
359.956	-30.68
360.172	-8.4
360.388	37.52
360.604	-27.77
360.819	82.08
361.035	11.37
361.251	30.93
361.467	-14.4
361.683	20.09
361.898	22.41
362.114	45.47
362.33	19.12
362.546	13.69
362.762	12.53
362.977	13.89
363.193	-25.06
363.409	42.95
363.624	-46.56
363.84	-18.47
364.056	-33.97
364.271	22.02
364.487	-7.62
364.703	-33
364.918	-20.6
365.134	-13.05
365.35	1.68
365.565	108.24
365.781	-13.05
365.996	21.05
366.212	59.61
366.427	4
366.643	-10.53
366.858	-19.63
367.074	-18.08
367.289	61.74
367.505	89.45
367.72	-78.53
367.936	-25.25
368.151	17.18
368.367	13.11
368.582	35.58
368.798	-26.61
369.013	29.77
369.228	-9.36
369.444	-4.13
369.659	49.53
369.874	14.66
370.09	16.79
370.305	-61.87
370.52	-10.91
370.736	30.16
370.951	0.52
371.166	52.63
371.381	66
371.597	33.45
371.812	-22.93
372.027	-13.43
372.242	22.22
372.458	46.05
372.673	4.39
372.888	5.94
373.103	29.19
373.318	111.53
373.533	20.47
373.749	19.31
373.964	-38.81
374.179	59.22
374.394	-19.83
374.609	74.33
374.824	-37.26
375.039	48.95
375.254	-2.39
375.469	19.5
375.684	24.35
375.899	32.48
376.114	4
376.329	8.07
376.544	37.91
376.759	26.67
376.974	-35.33
377.189	-4.33
377.404	-6.26
377.619	52.25
377.834	-36.3
378.049	-40.17
378.264	-39.78
378.478	-8.01
378.693	-5.1
378.908	35.2
379.123	5.36
379.338	45.27
379.553	28.22
379.767	15.24
379.982	35.97
380.197	3.62
380.412	-18.86
380.626	14.66
380.841	85.18
381.056	-4.33
381.271	53.41
381.485	-12.66
381.7	-35.71
381.915	8.46
382.129	-38.43
382.344	4.2
382.559	11.37
382.773	52.83
382.988	-50.25
383.202	20.09
383.417	-27
383.632	105.53
383.846	10.2
384.061	28.22
384.275	-31.06
384.49	40.43
384.704	52.25
384.919	28.8
385.133	-9.36
385.348	28.22
385.562	-24.28
385.777	58.25
385.991	7.3
386.206	-0.26
386.42	9.24
386.634	35.2
386.849	29.97
387.063	11.56
387.277	-11.11
387.492	-25.06
387.706	-1.42
387.92	-20.8
388.135	25.9
388.349	17.76
388.563	8.65
388.778	6.72
388.992	31.52
389.206	23.96
389.42	116.96
389.635	-13.82
389.849	24.93
390.063	18.92
390.277	11.95
390.491	43.14
390.706	25.9
390.92	48.76
391.134	19.5
391.348	3.04
391.562	-41.53
391.776	11.95
391.99	-24.67
392.205	41.78
392.419	-17.7
392.633	-4.71
392.847	62.52
393.061	-32.42
393.275	84.8
393.489	10.98
393.703	29.19
393.917	45.08
394.131	-2.2
394.345	46.05
394.559	34.62
394.773	-10.53
394.986	9.04
395.2	10.79
395.414	26.29
395.628	-19.44
395.842	2.26
396.056	19.31
396.27	-61.29
396.484	19.12
396.697	16.02
396.911	65.42
397.125	16.79
397.339	47.02
397.553	34.23
397.766	73.56
397.98	42.95
398.194	38.3
398.408	-6.26
398.621	18.73
398.835	48.76
399.049	0.13
399.262	57.67
399.476	46.63
399.69	20.28
399.903	85.77
400.117	15.82
400.331	40.43
400.544	-15.95
400.758	116.96
400.971	41.4
401.185	34.23
401.398	-19.25
401.612	77.82
401.826	42.56
402.039	10.4
402.253	6.72
402.466	38.1
402.68	15.24
402.893	35
403.106	17.76
403.32	13.69
403.533	30.16
403.747	29.58
403.96	17.18
404.174	23.38
404.387	-24.86
404.6	24.54
404.814	38.88
405.027	0.32
405.24	33.07
405.454	12.34
405.667	57.87
405.88	-41.72
406.094	18.73
406.307	37.52
406.52	39.27
406.733	-23.9
406.947	-20.8
407.16	74.14
407.373	38.49
407.586	4.97
407.799	-11.11
408.012	70.85
408.226	-4.13
408.439	55.93
408.652	-21.76
408.865	27.25
409.078	44.3
409.291	21.64
409.504	-31.45
409.717	18.15
409.93	-2
410.143	26.87
410.357	-19.25
410.57	-23.7
410.783	2.07
410.996	13.3
411.209	21.64
411.421	42.17
411.634	2.84
411.847	-27.96
412.06	31.71
412.273	2.45
412.486	17.76
412.699	109.02
412.912	13.69
413.125	53.8
413.338	3.81
413.55	56.12
413.763	18.54
413.976	9.62
414.189	-0.26
414.402	-10.72
414.615	71.23
414.827	-27.77
415.04	16.79
415.253	15.44
415.466	47.21
415.678	96.03
415.891	18.15
416.104	7.49
416.316	-18.28
416.529	-3.16
416.742	33.65
416.954	64.65
417.167	13.5
417.38	-20.8
417.592	83.25
417.805	-1.23
418.017	-8.01
418.23	55.93
418.442	-3.94
418.655	-4.33
418.868	27.25
419.08	66.78
419.293	36.36
419.505	35.2
419.718	35.97
419.93	36.75
420.142	10.2
420.355	59.8
420.567	60.77
420.78	19.89
420.992	30.93
421.205	70.07
421.417	-8.78
421.629	8.85
421.842	-5.88
422.054	-32.03
422.266	46.82
422.479	33.65
422.691	2.26
422.903	45.08
423.115	-2
423.328	27.25
423.54	28.61
423.752	-7.23
423.964	-14.79
424.177	41.59
424.389	24.54
424.601	122
424.813	29.58
425.025	55.93
425.238	52.63
425.45	20.86
425.662	23.77
425.874	323.11
426.086	13.89
426.298	22.41
426.51	27.45
426.722	23.57
426.934	19.31
427.146	51.86
427.358	-11.88
427.57	41.98
427.782	25.51
427.994	17.57
428.206	33.07
428.418	-45.21
428.63	59.8
428.842	40.43
429.054	27.84
429.266	51.86
429.478	-10.14
429.69	39.46
429.902	-19.83
430.114	48.57
430.325	39.07
430.537	-0.45
430.749	35.58
430.961	-16.53
431.173	39.46
431.384	49.92
431.596	-39.59
431.808	-12.08
432.02	21.83
432.231	21.05
432.443	60
432.655	22.02
432.867	-4.71
433.078	41.2
433.29	92.55
433.502	53.8
433.713	46.63
433.925	32.68
434.136	74.14
434.348	-4.71
434.56	-21.38
434.771	126.45
434.983	-19.44
435.194	-13.63
435.406	19.89
435.617	82.28
435.829	91.38
436.04	30.93
436.252	22.99
436.463	73.95
436.675	44.69
436.886	39.27
437.098	10.4
437.309	60.97
437.521	25.7
437.732	50.5
437.943	30.16
438.155	16.99
438.366	-19.83
438.578	72.98
438.789	32.29
439	64.07
439.211	29.19
439.423	42.95
439.634	52.25
439.845	51.86
440.057	29
440.268	66.78
440.479	18.15
440.69	30.74
440.902	32.48
441.113	46.05
441.324	16.02
441.535	47.98
441.746	85.96
441.957	-12.08
442.168	16.21
442.38	60.19
442.591	62.9
442.802	-23.12
443.013	17.95
443.224	46.24
443.435	29.97
443.646	24.54
443.857	27.45
444.068	17.95
444.279	5.55
444.49	73.37
444.701	26.29
444.912	128.78
445.123	87.12
445.334	76.85
445.545	37.72
445.756	22.02
445.967	19.7
446.178	49.92
446.388	88.67
446.599	42.37
446.81	53.8
447.021	21.05
447.232	101.65
447.443	74.14
447.653	5.75
447.864	54.18
448.075	18.92
448.286	83.63
448.496	48.57
448.707	77.05
448.918	34.03
449.129	134.2
449.339	5.17
449.55	46.05
449.761	40.43
449.971	108.24
450.182	22.41
450.393	50.31
450.603	17.18
450.814	57.87
451.024	49.53
451.235	58.64
451.446	77.05
451.656	91.97
451.867	22.02
452.077	64.45
452.288	115.6
452.498	103.59
452.709	27.25
452.919	64.26
453.13	57.48
453.34	60.38
453.55	1.1
453.761	56.12
453.971	83.44
454.182	87.51
454.392	79.37
454.602	113.08
454.813	64.26
455.023	91.19
455.233	22.02
455.444	56.32
455.654	-4.33
455.864	56.9
456.075	51.28
456.285	29.19
456.495	49.34
456.705	58.25
456.916	116.18
457.126	93.13
457.336	63.48
457.546	-3.36
457.756	24.74
457.967	70.27
458.177	20.47
458.387	48.95
458.597	43.92
458.807	51.47
459.017	52.63
459.227	23.38
459.437	47.21
459.647	76.85
459.857	95.26
460.068	35.78
460.278	104.37
460.488	63.87
460.698	139.43
460.908	57.48
461.117	-22.35
461.327	33.26
461.537	60.19
461.747	83.63
461.957	57.09
462.167	143.11
462.377	85.77
462.587	54.38
462.797	80.34
463.007	74.14
463.216	84.41
463.426	77.05
463.636	83.83
463.846	15.44
464.056	62.71
464.265	81.89
464.475	31.13
464.685	49.73
464.895	87.12
465.104	65.81
465.314	93.52
465.524	51.08
465.733	36.17
465.943	131.68
466.153	110.76
466.362	96.23
466.572	83.83
466.782	66.2
466.991	64.45
467.201	125.48
467.41	23.96
467.62	94.87
467.829	54.77
468.039	81.89
468.249	84.41
468.458	57.67
468.668	97.58
468.877	90.22
469.086	115.22
469.296	84.99
469.505	47.4
469.715	127.61
469.924	80.92
470.134	127.03
470.343	135.36
470.552	63.29
470.762	89.06
470.971	44.88
471.18	78.4
471.39	69.68
471.599	53.41
471.808	104.75
472.018	23.57
472.227	105.53
472.436	105.92
472.645	48.95
472.855	27.84
473.064	96.23
473.273	81.5
473.482	104.56
473.691	126.45
473.901	105.92
474.11	74.14
474.319	136.33
474.528	69.49
474.737	130.71
474.946	92.93
475.155	64.45
475.364	111.53
475.573	115.6
475.783	89.06
475.992	73.17
476.201	100.68
476.41	46.05
476.619	65.03
476.828	109.02
477.037	95.26
477.245	100.88
477.454	153.96
477.663	74.72
477.872	66.2
478.081	130.91
478.29	39.07
478.499	140.21
478.708	93.9
478.917	170.24
479.125	89.45
479.334	94.48
479.543	56.51
479.752	103.4
479.961	91.19
480.169	107.08
480.378	78.4
480.587	185.55
480.796	115.22
481.004	101.85
481.213	119.28
481.422	103.2
481.63	86.35
481.839	117.54
482.048	150.67
482.256	78.21
482.465	66.78
482.674	109.79
482.882	109.98
483.091	144.08
483.299	91.19
483.508	115.22
483.716	68.52
483.925	95.84
484.134	94.68
484.342	79.37
484.551	143.5
484.759	117.15
484.967	124.51
485.176	157.06
485.384	132.46
485.593	145.05
485.801	131.3
486.01	117.73
486.218	152.61
486.426	93.9
486.635	132.65
486.843	109.21
487.051	132.07
487.26	84.22
487.468	128.2
487.676	136.53
487.885	72.01
488.093	109.02
488.301	108.43
488.509	97.58
488.717	142.92
488.926	113.47
489.134	106.5
489.342	99.91
489.55	94.29
489.758	122.38
489.967	96.62
490.175	226.62
490.383	114.83
490.591	167.33
490.799	62.9
491.007	146.21
491.215	121.03
491.423	122.38
491.631	114.44
491.839	130.13
492.047	138.66
492.255	125.29
492.463	54.77
492.671	119.86
492.879	200.46
493.087	128.2
493.295	129.55
493.503	157.26
493.711	135.17
493.919	177.41
494.127	152.03
494.334	150.67
494.542	124.9
494.75	117.15
494.958	107.08
495.166	157.45
495.374	133.04
495.581	149.12
495.789	146.21
495.997	193.88
496.205	149.9
496.412	119.86
496.62	140.6
496.828	154.16
497.035	126.84
497.243	155.13
497.451	105.72
497.658	163.65
497.866	129.75
498.074	202.4
498.281	108.05
498.489	205.5
498.696	163.26
498.904	132.07
499.112	140.4
499.319	199.88
499.527	143.11
499.734	173.53
499.942	111.15
500.149	119.86
500.357	180.12
500.564	129.36
500.771	194.85
500.979	117.73
501.186	142.34
501.394	167.72
501.601	135.17
501.808	177.6
502.016	160.36
502.223	166.95
502.43	145.44
502.638	143.5
502.845	101.65
503.052	205.5
503.26	116.96
503.467	223.13
503.674	152.22
503.881	164.04
504.089	239.21
504.296	217.13
504.503	125.48
504.71	181.67
504.917	111.92
505.125	200.27
505.332	129.16
505.539	199.11
505.746	196.98
505.953	193.3
506.16	166.95
506.367	208.41
506.574	225.46
506.781	218.48
506.988	135.17
507.195	180.7
507.402	162.49
507.609	196.4
507.816	153.96
508.023	158.61
508.23	153.96
508.437	122.58
508.644	203.18
508.851	245.8
509.058	197.75
509.265	198.91
509.472	169.08
509.679	268.47
509.885	171.01
510.092	163.07
510.299	164.43
510.506	206.66
510.713	193.68
510.92	194.26
511.126	183.61
511.333	230.11
511.54	202.6
511.746	245.8
511.953	210.15
512.16	233.59
512.367	157.26
512.573	196.78
512.78	206.28
512.987	209.18
513.193	190.97
513.4	144.86
513.606	185.16
513.813	195.62
514.02	214.61
514.226	272.93
514.433	233.21
514.639	168.3
514.846	206.66
515.052	179.73
515.259	192.91
515.465	225.07
515.672	214.8
515.878	251.42
516.085	189.23
516.291	231.46
516.497	177.99
516.704	209.18
516.91	220.23
517.117	166.36
517.323	141.56
517.529	189.03
517.736	170.05
517.942	226.43
518.148	199.11
518.354	233.98
518.561	221.97
518.767	210.15
518.973	247.93
519.179	215.58
519.386	189.81
519.592	161.52
519.798	191.16
520.004	253.16
520.21	220.61
520.417	201.43
520.623	234.95
520.829	229.33
521.035	219.06
521.241	234.95
521.447	233.59
521.653	348.68
521.859	222.16
522.065	247.35
522.271	307.02
522.477	269.63
522.683	277.38
522.889	254.52
523.095	286.1
523.301	236.5
523.507	217.32
523.713	259.36
523.919	208.99
524.125	273.89
524.331	214.22
524.537	301.21
524.742	263.63
524.948	279.13
525.154	284.36
525.36	358.56
525.566	290.75
525.772	326.59
525.977	239.79
526.183	299.27
526.389	316.91
526.595	266.34
526.8	266.34
527.006	248.51
527.212	233.4
527.417	233.79
527.623	243.09
527.829	293.85
528.034	273.89
528.24	275.06
528.446	223.13
528.651	294.82
528.857	287.26
529.062	335.89
529.268	258.98
529.473	248.13
529.679	269.83
529.884	322.33
530.09	282.42
530.295	345.58
530.501	314.39
530.706	285.52
530.912	249.48
531.117	283.39
531.323	281.26
531.528	306.25
531.733	308.77
531.939	242.89
532.144	302.18
532.35	287.07
532.555	315.94
532.76	346.55
532.966	349.26
533.171	316.91
533.376	310.12
533.581	259.56
533.787	291.91
533.992	316.52
534.197	357.79
534.402	283
534.607	320.59
534.813	404.67
535.018	267.11
535.223	274.67
535.428	348.29
535.633	366.89
535.838	350.23
536.043	298.11
536.249	382.2
536.454	319.62
536.659	331.82
536.864	277.77
537.069	318.26
537.274	346.55
537.479	319.04
537.684	366.31
537.889	289.39
538.094	400.8
538.299	314.77
538.504	293.85
538.708	328.72
538.913	345.58
539.118	314.77
539.323	363.02
539.528	318.07
539.733	319.04
539.938	339.19
540.142	365.54
540.347	329.31
540.552	324.07
540.757	349.65
540.962	340.16
541.166	289.39
541.371	267.89
541.576	336.47
541.781	269.63
541.985	343.84
542.19	325.04
542.395	369.02
542.599	392.85
542.804	390.53
543.008	384.52
543.213	303.73
543.418	313.22
543.622	362.24
543.827	295.79
544.031	381.23
544.236	395.18
544.44	327.17
544.645	418.62
544.849	323.69
545.054	366.89
545.258	432.77
545.463	404.48
545.667	354.69
545.872	319.62
546.076	390.72
546.281	378.13
546.485	316.52
546.689	397.31
546.894	388.4
547.098	337.64
547.302	318.07
547.507	332.02
547.711	381.62
547.915	410.1
548.119	357.4
548.324	348.1
548.528	427.92
548.732	382.78
548.936	406.03
549.141	403.51
549.345	343.06
549.549	360.5
549.753	336.86
549.957	438
550.161	393.44
550.366	361.86
550.57	325.24
550.774	357.4
550.978	355.66
551.182	391.69
551.386	353.52
551.59	346.55
551.794	326.4
551.998	418.62
552.202	364.37
552.406	332.21
552.61	369.41
552.814	355.85
553.018	430.05
553.222	375.22
553.426	339.19
553.63	445.17
553.833	341.9
554.037	332.21
554.241	402.54
554.445	364.18
554.649	351.78
554.853	338.02
555.056	373.48
555.26	408.74
555.464	385.88
555.668	386.07
555.871	376.97
556.075	407.77
556.279	363.6
556.483	324.66
556.686	366.89
556.89	381.62
557.094	413.39
557.297	347.13
557.501	417.07
557.704	347.91
557.908	409.52
558.112	314.97
558.315	425.79
558.519	346.74
558.722	408.35
558.926	389.56
559.129	318.65
559.333	321.36
559.536	330.47
559.74	343.26
559.943	328.34
560.147	297.34
560.35	368.83
560.553	332.6
560.757	275.06
560.96	403.32
561.164	336.86
561.367	394.6
561.57	343.26
561.774	347.52
561.977	358.17
562.18	314.97
562.384	404.48
562.587	342.29
562.79	322.33
562.993	347.13
563.197	394.79
563.4	414.36
563.603	377.16
563.806	462.41
564.009	302.37
564.212	382.59
564.416	306.44
564.619	377.55
564.822	320.78
565.025	420.75
565.228	356.24
565.431	364.57
565.634	270.02
565.837	367.09
566.04	356.82
566.243	328.34
566.446	256.84
566.649	344.42
566.852	319.62
567.055	333.57
567.258	339.77
567.461	388.59
567.664	389.56
567.867	272.15
568.07	349.26
568.273	349.65
568.475	383.55
568.678	342.87
568.881	332.6
569.084	351.78
569.287	247.74
569.489	281.26
569.692	356.43
569.895	354.11
570.098	306.83
570.3	278.54
570.503	259.56
570.706	279.51
570.909	293.07
571.111	278.16
571.314	298.5
571.516	299.47
571.719	328.53
571.922	307.99
572.124	309.35
572.327	305.47
572.529	256.65
572.732	244.44
572.935	317.49
573.137	333.37
573.34	277.77
573.542	304.51
573.745	313.61
573.947	324.07
574.15	302.96
574.352	288.81
574.554	339.38
574.757	279.71
574.959	259.94
575.162	260.53
575.364	261.69
575.566	363.41
575.769	262.27
575.971	302.76
576.173	206.08
576.376	270.6
576.578	317.1
576.78	357.01
576.982	238.05
577.185	281.45
577.387	249.09
577.589	240.96
577.791	286.29
577.993	300.82
578.196	259.56
578.398	318.26
578.6	330.08
578.802	269.63
579.004	267.89
579.206	268.08
579.408	284.94
579.61	230.69
579.812	289.59
580.014	254.13
580.216	259.75
580.418	261.49
580.62	254.13
580.822	230.69
581.024	259.17
581.226	290.75
581.428	285.13
581.63	318.84
581.832	221.78
582.034	338.02
582.236	265.56
582.438	303.15
582.64	287.84
582.841	305.09
583.043	324.85
583.245	289.78
583.447	296.37
583.649	278.93
583.85	281.06
584.052	325.04
584.254	205.89
584.456	331.82
584.657	228.56
584.859	272.15
585.061	252.97
585.262	273.89
585.464	208.41
585.666	304.31
585.867	248.13
586.069	338.61
586.27	300.63
586.472	285.33
586.674	263.63
586.875	268.08
587.077	270.99
587.278	281.26
587.48	247.54
587.681	365.34
587.883	284.94
588.084	228.36
588.285	264.4
588.487	267.69
588.688	266.34
588.89	244.06
589.091	231.27
589.292	292.11
589.494	269.44
589.695	259.56
589.896	221.78
590.098	229.91
590.299	269.44
590.5	215.77
590.702	210.54
590.903	220.81
591.104	305.09
591.305	256.84
591.507	297.92
591.708	275.25
591.909	238.24
592.11	342.67
592.311	255.1
592.512	236.89
592.714	196.2
592.915	214.8
593.116	262.66
593.317	254.71
593.518	251.81
593.719	225.26
593.92	294.62
594.121	304.12
594.322	246.19
594.523	286.68
594.724	242.7
594.925	246.96
595.126	292.88
595.327	252
595.528	254.33
595.729	252
595.929	228.56
596.13	266.14
596.331	245.22
596.532	229.91
596.733	302.57
596.934	274.48
597.135	282.42
597.335	266.14
597.536	216.35
597.737	259.56
597.938	251.61
598.138	274.48
598.339	238.63
598.54	252.97
598.74	256.84
598.941	267.89
599.142	294.62
599.342	284.36
599.543	216.16
599.744	242.89
599.944	235.92
600.145	216.74
600.345	270.21
600.546	344.61
600.746	313.22
600.947	326.79
601.147	278.16
601.348	270.6
601.548	237.66
601.749	290.56
601.949	224.68
602.15	233.21
602.35	262.85
602.551	313.03
602.751	220.03
602.951	248.13
603.152	164.81
603.352	264.4
603.552	254.33
603.753	316.91
603.953	284.55
604.153	257.04
604.354	241.73
604.554	253.16
604.754	252
604.954	213.25
605.155	236.31
605.355	218.48
605.555	290.36
605.755	299.47
605.955	259.56
606.155	279.71
606.356	244.64
606.556	290.75
606.756	256.26
606.956	195.62
607.156	301.79
607.356	232.04
607.556	258.2
607.756	265.95
607.956	302.18
608.156	261.3
608.356	206.86
608.556	281.26
608.756	276.22
608.956	223.52
609.156	251.42
609.356	216.35
609.556	216.35
609.755	276.03
609.955	234.37
610.155	278.93
610.355	261.49
610.555	234.56
610.755	295.01
610.954	206.28
611.154	263.24
611.354	324.07
611.554	224.1
611.753	256.26
611.953	215.96
612.153	245.41
612.352	271.57
612.552	226.62
612.752	162.49
612.951	227.39
613.151	251.61
613.351	213.06
613.55	234.76
613.75	253.55
613.949	222.94
614.149	251.61
614.348	232.24
614.548	219.45
614.747	180.31
614.947	203.56
615.146	181.48
615.346	246.58
615.545	242.89
615.745	255.29
615.944	276.22
616.144	242.12
616.343	294.82
616.542	214.99
616.742	235.34
616.941	243.48
617.14	202.21
617.34	238.63
617.539	213.64
617.738	196.59
617.938	311.48
618.137	228.17
618.336	196.98
618.535	227.2
618.734	215.77
618.934	234.37
619.133	259.94
619.332	258.78
619.531	213.44
619.73	208.02
619.929	265.56
620.128	245.03
620.328	279.13
620.527	202.6
620.726	204.14
620.925	239.41
621.124	181.09
621.323	245.8
621.522	199.11
621.721	188.84
621.92	182.06
622.119	245.8
622.318	184
622.517	214.03
622.715	213.44
622.914	178.76
623.113	217.71
623.312	159.78
623.511	248.13
623.71	202.6
623.909	208.02
624.107	262.66
624.306	163.65
624.505	195.43
624.704	192.71
624.902	207.05
625.101	267.11
625.3	210.15
625.499	183.8
625.697	203.18
625.896	199.11
626.095	239.02
626.293	175.66
626.492	198.53
626.69	256.26
626.889	161.33
627.088	226.43
627.286	181.86
627.485	189.61
627.683	202.79
627.882	223.91
628.08	184.77
628.279	186.51
628.477	287.65
628.676	159.78
628.874	198.91
629.073	201.24
629.271	154.93
629.469	226.23
629.668	204.92
629.866	213.83
630.065	201.05
630.263	249.29
630.461	181.48
630.66	180.9
630.858	214.41
631.056	233.79
631.254	242.51
631.453	212.28
631.651	241.34
631.849	202.98
632.047	244.83
632.245	195.81
632.444	199.3
632.642	208.02
632.84	228.75
633.038	188.06
633.236	159.58
633.434	166.95
633.632	162.1
633.83	172.95
634.028	225.26
634.227	187.1
634.425	259.94
634.623	191.16
634.821	183.8
635.019	207.24
635.216	186.71
635.414	230.49
635.612	190.2
635.81	188.06
636.008	266.34
636.206	191.75
636.404	225.07
636.602	162.1
636.8	193.88
636.997	218.87
637.195	209.18
637.393	188.26
637.591	232.82
637.789	212.86
637.986	174.7
638.184	193.1
638.382	225.65
638.58	240.76
638.777	257.43
638.975	182.45
639.173	215.58
639.37	218.09
639.568	224.49
639.765	214.41
639.963	206.86
640.161	250.84
640.358	230.69
640.556	167.33
640.753	152.8
640.951	164.62
641.148	231.08
641.346	190.2
641.543	220.61
641.741	190
641.938	166.56
642.136	184.58
642.333	186.32
642.531	243.48
642.728	250.64
642.925	195.81
643.123	176.25
643.32	184.19
643.517	177.02
643.715	197.75
643.912	167.91
644.109	223.13
644.306	183.61
644.504	163.85
644.701	201.43
644.898	210.73
645.095	209.57
645.293	171.79
645.49	196.98
645.687	214.03
645.884	218.68
646.081	128.58
646.278	184.77
646.475	201.05
646.672	191.55
646.87	206.66
647.067	198.14
647.264	227.98
647.461	151.64
647.658	167.14
647.855	226.04
648.052	179.54
648.249	132.85
648.446	166.95
648.642	196.2
648.839	169.85
649.036	184.77
649.233	131.3
649.43	147.57
649.627	151.25
649.824	144.66
650.021	153.96
650.217	170.43
650.414	156.68
650.611	199.69
650.808	203.56
651.004	167.14
651.201	178.76
651.398	228.75
651.595	161.13
651.791	163.46
651.988	218.09
652.185	147.18
652.381	183.61
652.578	129.55
652.775	182.25
652.971	138.27
653.168	175.28
653.364	177.41
653.561	121.8
653.757	153.19
653.954	175.28
654.15	132.26
654.347	237.66
654.543	144.66
654.74	116.57
654.936	113.47
655.133	186.9
655.329	170.43
655.525	158.03
655.722	205.69
655.918	144.66
656.115	204.34
656.311	127.61
656.507	131.3
656.704	116.57
656.9	141.18
657.096	140.4
657.292	159.2
657.489	163.46
657.685	170.63
657.881	165.2
658.077	158.42
658.273	130.71
658.47	208.79
658.666	111.15
658.862	189.81
659.058	132.65
659.254	183.8
659.45	115.02
659.646	162.3
659.842	148.35
660.038	171.79
660.234	126.45
660.43	151.25
660.626	207.83
660.822	173.73
661.018	166.36
661.214	154.55
661.41	120.25
661.606	160.75
661.802	183.03
661.998	139.43
662.194	113.28
662.39	163.07
662.586	159.2
662.781	175.28
662.977	181.28
663.173	192.71
663.369	155.51
663.564	188.84
663.76	173.15
663.956	166.75
664.152	206.28
664.347	109.79
664.543	155.51
664.739	143.11
664.934	113.08
665.13	104.17
665.326	185.93
665.521	169.08
665.717	132.46
665.912	134.59
666.108	90.42
666.304	124.51
666.499	165.98
666.695	83.05
666.89	144.86
667.086	184.77
667.281	151.06
667.477	188.45
667.672	170.05
667.867	147.76
668.063	161.33
668.258	111.53
668.454	139.82
668.649	234.18
668.844	188.65
669.04	160.75
669.235	141.56
669.43	130.71
669.626	107.08
669.821	124.13
670.016	108.05
670.211	130.33
670.407	96.42
670.602	123.74
670.797	156.87
670.992	178.96
671.187	109.4
671.382	185.74
671.578	146.21
671.773	176.05
671.968	111.53
672.163	149.31
672.358	158.42
672.553	126.26
672.748	136.53
672.943	239.79
673.138	147.57
673.333	162.68
673.528	104.95
673.723	158.61
673.918	154.74
674.113	112.31
674.308	207.44
674.503	191.36
674.698	185.35
674.892	182.64
675.087	172.56
675.282	171.21
675.477	108.82
675.672	161.33
675.867	130.33
676.061	101.07
676.256	100.49
676.451	128.2
676.646	157.45
676.84	108.05
677.035	109.98
677.23	103.78
677.424	157.26
677.619	200.85
677.814	162.3
678.008	188.06
678.203	88.48
678.397	118.9
678.592	151.45
678.787	176.05
678.981	136.91
679.176	162.68
679.37	137.3
679.565	116.38
679.759	119.48
679.954	162.68
680.148	203.18
680.342	189.42
680.537	168.88
680.731	137.69
680.926	178.38
681.12	189.23
681.314	96.42
681.509	121.8
681.703	159.2
681.897	183.03
682.092	153
682.286	119.09
682.48	207.24
682.674	186.71
682.869	121.8
683.063	142.53
683.257	180.7
683.451	122.38
683.645	122.38
683.839	137.5
684.034	132.65
684.228	168.69
684.422	94.1
684.616	97
684.81	158.81
685.004	120.83
685.198	156.29
685.392	156.68
685.586	109.79
685.78	177.41
685.974	168.3
686.168	150.86
686.362	198.53
686.556	114.05
686.75	120.64
686.944	140.6
687.138	158.03
687.331	112.31
687.525	152.41
687.719	82.28
687.913	109.98
688.107	149.31
688.301	109.4
688.494	141.56
688.688	107.27
688.882	83.25
689.076	103.59
689.269	101.07
689.463	188.26
689.657	116.76
689.85	102.82
690.044	109.4
690.238	128.2
690.431	120.06
690.625	113.67
690.818	103.4
691.012	132.85
691.205	136.53
691.399	82.67
691.593	130.33
691.786	164.43
691.98	156.68
692.173	172.37
692.366	158.42
692.56	159.58
692.753	196.2
692.947	96.62
693.14	195.43
693.333	186.32
693.527	78.98
693.72	140.98
693.914	172.37
694.107	135.75
694.3	150.86
694.493	137.3
694.687	195.43
694.88	147.96
695.073	184.77
695.266	174.7
695.46	153
695.653	196.98
695.846	181.86
696.039	97.2
696.232	156.1
696.425	184.19
696.618	179.54
696.812	152.41
697.005	221.78
697.198	250.06
697.391	194.26
697.584	181.09
697.777	238.05
697.97	217.51
698.163	235.92
698.356	195.81
698.549	292.3
698.742	226.04
698.935	166.95
699.127	228.36
699.32	197.75
699.513	196.2
699.706	227.78
699.899	238.05
700.092	185.74
700.285	233.21
700.477	185.35
700.67	218.87
700.863	246.96
701.056	299.66
701.248	263.82
701.441	265.37
701.634	238.24
701.826	313.81
702.019	241.34
702.212	275.06
702.404	239.6
702.597	206.08
702.79	261.11
702.982	257.43
703.175	296.17
703.367	299.47
703.56	307.22
703.752	333.37
703.945	298.11
704.137	346.74
704.33	307.22
704.522	345.19
704.715	328.53
704.907	292.69
705.1	360.11
705.292	333.96
705.484	321.94
705.677	361.27
705.869	355.46
706.061	359.53
706.254	368.06
706.446	344.03
706.638	355.46
706.831	394.02
707.023	313.81
707.215	452.92
707.407	397.31
707.599	395.18
707.792	450.79
707.984	413.39
708.176	435.67
708.368	416.88
708.56	445.36
708.752	395.76
708.944	401.77
709.136	451.56
709.329	416.69
709.521	507.55
709.713	484.11
709.905	462.22
710.097	460.86
710.289	425.79
710.481	458.92
710.672	452.72
710.864	479.07
711.056	491.67
711.248	473.45
711.44	496.51
711.632	467.83
711.824	470.35
712.016	564.71
712.207	539.13
712.399	536.03
712.591	574.01
712.783	560.45
712.975	580.01
713.166	513.37
713.358	542.82
713.55	605.59
713.741	562.58
713.933	577.69
714.125	584.86
714.316	553.08
714.508	620.9
714.7	632.52
714.891	612.18
715.083	673.59
715.274	594.55
715.466	618.18
715.657	658.29
715.849	561.22
716.04	631.16
716.232	578.08
716.423	679.99
716.615	614.31
716.806	594.74
716.998	617.21
717.189	572.85
717.381	527.12
717.572	539.13
717.763	589.31
717.955	571.88
718.146	543.98
718.337	524.8
718.528	512.4
718.72	465.51
718.911	580.79
719.102	532.16
719.293	562.19
719.485	537.78
719.676	547.27
719.867	498.45
720.058	530.03
720.249	489.92
720.44	524.99
720.632	572.85
720.823	591.45
721.014	658.68
721.205	612.95
721.396	633.49
721.587	687.93
721.778	689.87
721.969	710.79
722.16	734.04
722.351	699.56
722.542	812.32
722.733	778.61
722.924	680.57
723.115	790.62
723.305	780.74
723.496	794.88
723.687	702.85
723.878	779.96
724.069	734.82
724.26	754.39
724.45	706.73
724.641	719.32
724.832	741.02
725.023	750.12
725.213	757.1
725.404	710.41
725.595	716.22
725.785	707.31
725.976	770.47
726.167	738.69
726.357	747.02
726.548	816.39
726.739	760.2
726.929	764.85
727.12	791.2
727.31	834.6
727.501	804.57
727.691	794.3
727.882	854.55
728.072	873.74
728.263	817.55
728.453	848.16
728.644	842.74
728.834	848.16
729.024	827.04
729.215	847.77
729.405	885.17
729.596	948.13
729.786	922.37
729.976	922.37
730.167	940.77
730.357	879.16
730.547	874.32
730.737	935.93
730.928	965.38
731.118	988.82
731.308	902.41
731.498	937.28
731.688	1001.41
731.879	984.95
732.069	1008.78
732.259	996.38
732.449	1011.3
732.639	1087.83
732.829	1065.16
733.019	1077.56
733.209	1133.94
733.399	1083.76
733.589	1167.26
733.779	1142.46
733.969	1110.69
734.159	1152.34
734.349	1208.53
734.539	1225.39
734.729	1205.82
734.919	1245.15
735.109	1262.97
735.299	1269.17
735.488	1269.95
735.678	1265.69
735.868	1280.41
736.058	1284.48
736.248	1237.79
736.437	1221.71
736.627	1200.39
736.817	1309.67
737.007	1262.2
737.196	1306.57
737.386	1275.57
737.576	1266.65
737.765	1288.94
737.955	1298.04
738.144	1351.32
738.334	1324.97
738.524	1303.27
738.713	1334.08
738.903	1353.84
739.092	1363.72
739.282	1342.22
739.471	1361.01
739.661	1373.99
739.85	1406.15
740.04	1370.89
740.229	1399.76
740.419	1404.6
740.608	1450.52
740.797	1422.43
740.987	1485.4
741.176	1432.31
741.365	1402.28
741.555	1405.38
741.744	1446.65
741.933	1431.15
742.123	1445.29
742.312	1474.55
742.501	1496.44
742.69	1487.72
742.88	1437.73
743.069	1515.62
743.258	1446.84
743.447	1514.65
743.636	1485.01
743.825	1471.06
744.014	1513.1
744.204	1501.28
744.393	1499.73
744.582	1511.16
744.771	1537.71
744.96	1488.11
745.149	1509.42
745.338	1483.26
745.527	1537.13
745.716	1491.98
745.905	1485.59
746.094	1537.71
746.283	1535.96
746.471	1552.24
746.66	1597.38
746.849	1550.11
747.038	1615.01
747.227	1497.8
747.416	1564.06
747.604	1504.38
747.793	1557.28
747.982	1540.42
748.171	1536.74
748.359	1582.46
748.548	1569.68
748.737	1553.01
748.926	1524.73
749.114	1479
749.303	1548.94
749.491	1562.51
749.68	1514.84
749.869	1564.25
750.057	1546.81
750.246	1493.53
750.434	1545.07
750.623	1540.61
750.811	1563.48
751	1590.79
751.188	1556.11
751.377	1559.6
751.565	1548.36
751.754	1491.98
751.942	1557.08
752.131	1544.49
752.319	1517.17
752.507	1499.54
752.696	1567.93
752.884	1565.03
753.072	1549.14
753.261	1524.34
753.449	1534.22
753.637	1521.43
753.825	1627.99
754.014	1539.64
754.202	1571.81
754.39	1587.89
754.578	1579.17
754.766	1527.83
754.955	1553.98
755.143	1607.26
755.331	1539.45
755.519	1528.21
755.707	1541.97
755.895	1533.44
756.083	1529.96
756.271	1534.03
756.459	1479.39
756.647	1567.93
756.835	1529.96
757.023	1489.27
757.211	1546.43
757.399	1535.77
757.587	1512.13
757.775	1478.42
757.963	1487.72
758.151	1489.46
758.339	1490.63
758.526	1467.96
758.714	1506.13
758.902	1436.18
759.09	1445.48
759.278	1348.22
759.465	1266.27
759.653	1048.3
759.841	982.43
760.028	850.29
760.216	708.47
760.404	708.86
760.591	557.35
760.779	468.03
760.967	422.5
761.154	312.45
761.342	371.35
761.529	361.08
761.717	401.77
761.905	359.34
762.092	412.23
762.28	321.75
762.467	382.2
762.655	305.67
762.842	355.66
763.029	373.67
763.217	360.69
763.404	369.8
763.592	407.39
763.779	338.22
763.966	385.49
764.154	415.91
764.341	472.29
764.528	425.4
764.716	428.89
764.903	479.85
765.09	505.62
765.277	517.24
765.465	615.08
765.652	638.72
765.839	681.73
766.026	742.76
766.213	768.72
766.4	783.26
766.588	919.07
766.775	900.86
766.962	939.03
767.149	975.26
767.336	1070.2
767.523	994.83
767.71	1082.98
767.897	1141.11
768.084	1200.2
768.271	1199.23
768.458	1251.93
768.645	1284.48
768.832	1236.24
769.019	1226.94
769.206	1282.54
769.392	1325.17
769.579	1413.13
769.766	1314.9
769.953	1325.75
770.14	1356.75
770.327	1319.16
770.513	1409.64
770.7	1406.93
770.887	1340.28
771.073	1388.33
771.26	1382.13
771.447	1353.07
771.634	1352.68
771.82	1429.79
772.007	1346.48
772.193	1365.08
772.38	1417.39
772.567	1379.42
772.753	1409.06
772.94	1447.42
773.126	1440.83
773.313	1451.1
773.499	1420.3
773.686	1401.31
773.872	1406.73
774.059	1408.28
774.245	1364.88
774.432	1365.85
774.618	1302.11
774.804	1423.78
774.991	1366.05
775.177	1412.35
775.363	1361.59
775.55	1393.75
775.736	1342.99
775.922	1335.63
776.109	1387.94
776.295	1371.67
776.481	1375.93
776.667	1405.77
776.853	1336.21
777.04	1375.73
777.226	1377.28
777.412	1397.43
777.598	1318.97
777.784	1336.02
777.97	1355.58
778.156	1377.87
778.342	1312.77
778.528	1334.66
778.715	1277.12
778.901	1336.79
779.087	1313.35
779.272	1281.96
779.458	1312.96
779.644	1353.26
779.83	1286.03
780.016	1417
780.202	1328.65
780.388	1294.17
780.574	1261.62
780.76	1266.65
780.946	1332.72
781.131	1332.72
781.317	1312.19
781.503	1302.69
781.689	1273.82
781.874	1418.75
782.06	1260.07
782.246	1279.05
782.432	1263.17
782.617	1296.1
782.803	1368.57
782.989	1238.37
783.174	1290.68
783.36	1222.29
783.545	1290.87
783.731	1249.22
783.916	1212.99
784.102	1271.11
784.288	1225.77
784.473	1249.99
784.659	1271.69
784.844	1286.42
785.029	1251.74
785.215	1249.8
785.4	1195.16
785.586	1300.56
785.771	1239.14
785.956	1246.12
786.142	1257.35
786.327	1215.31
786.512	1246.31
786.698	1227.13
786.883	1202.33
787.068	1227.52
787.254	1227.13
787.439	1169.59
787.624	1238.56
787.809	1190.71
787.994	1214.34
788.18	1266.65
788.365	1154.48
788.55	1180.44
788.735	1173.46
788.92	1203.69
789.105	1197.1
789.29	1205.62
789.475	1169.2
789.66	1164.74
789.845	1164.16
790.03	1127.35
790.215	1202.14
790.4	1159.51
790.585	1213.76
790.77	1169.01
790.955	1092.48
791.14	1156.8
791.325	1220.54
791.51	1083.18
791.695	1157.58
791.879	1105.46
792.064	1112.24
792.249	1177.34
792.434	1154.09
792.618	1133.94
792.803	1153.7
792.988	1118.24
793.173	1147.31
793.357	1191.87
793.542	1094.22
793.727	1104.88
793.911	1192.26
794.096	1107.78
794.281	1161.06
794.465	1198.46
794.65	1151.96
794.834	1142.46
795.019	1188.38
795.203	1168.23
795.388	1157.38
795.572	1206.59
795.757	1120.57
795.941	1161.26
796.126	1163.58
796.31	1134.13
796.494	1152.15
796.679	1124.83
796.863	1124.83
797.048	1179.66
797.232	1157.58
797.416	1159.51
797.601	1126.77
797.785	1209.11
797.969	1174.43
798.153	1137.23
798.338	1140.72
798.522	1167.07
798.706	1184.51
798.89	1189.16
799.074	1244.18
799.258	1209.31
799.443	1116.5
799.627	1171.72
799.811	1172.49
799.995	1151.57
800.179	1135.29
800.363	1146.53
800.547	1197.49
800.731	1193.81
800.915	1119.41
801.099	1123.28
801.283	1151.76
801.467	1145.56
801.651	1140.53
801.835	1191.48
802.019	1182.37
802.202	1199.23
802.386	1137.43
802.57	1164.74
802.754	1158.54
802.938	1132.97
803.121	1146.92
803.305	1191.48
803.489	1150.99
803.673	1177.14
803.856	1183.73
804.04	1169.2
804.224	1174.82
804.407	1153.12
804.591	1141.69
804.775	1135.68
804.958	1156.99
805.142	1244.76
805.326	1164.16
805.509	1183.92
805.693	1183.15
805.876	1229.26
806.06	1191.87
806.243	1173.46
806.427	1217.25
806.61	1204.46
806.794	1154.28
806.977	1235.46
807.16	1189.93
807.344	1175.98
807.527	1190.12
807.71	1142.66
807.894	1157.77
808.077	1213.96
808.26	1129.87
808.444	1164.74
808.627	1199.62
808.81	1170.56
808.993	1114.76
809.177	1086.86
809.36	1158.35
809.543	1157.19
809.726	1101.97
809.909	1089.57
810.092	1083.18
810.276	1063.22
810.459	1116.69
810.642	1081.63
810.825	1094.8
811.008	1081.43
811.191	1016.53
811.374	1033.77
811.557	1029.9
811.74	1139.17
811.923	1005.87
812.106	1009.55
812.289	1008.2
812.472	1030.67
812.654	1064
812.837	991.15
813.02	959.37
813.203	972.93
813.386	899.5
813.569	894.08
813.751	895.05
813.934	962.67
814.117	919.85
814.3	840.8
814.482	830.34
814.665	836.54
814.848	864.24
815.03	803.6
815.213	824.14
815.396	793.72
815.578	802.44
815.761	748.77
815.943	817.55
816.126	789.46
816.309	741.6
816.491	691.23
816.674	640.27
816.856	740.05
817.039	681.15
817.221	747.8
817.403	742.57
817.586	708.47
817.768	745.47
817.951	666.43
818.133	671.27
818.315	711.38
818.498	749.16
818.68	797.4
818.862	761.56
819.045	778.02
819.227	757.49
819.409	725.33
819.591	739.66
819.774	744.12
819.956	708.08
820.138	784.03
820.32	761.94
820.502	777.25
820.684	789.65
820.866	794.3
821.048	850.49
821.231	820.45
821.413	809.61
821.595	809.99
821.777	815.22
821.959	847.97
822.141	891.56
822.323	760.97
822.505	778.99
822.686	758.46
822.868	769.69
823.05	652.28
823.232	678.05
823.414	589.9
823.596	690.84
823.778	639.11
823.96	665.84
824.141	638.72
824.323	644.73
824.505	703.43
824.687	719.32
824.868	740.63
825.05	808.64
825.232	812.32
825.413	878.19
825.595	835.18
825.777	756.13
825.958	804.76
826.14	770.86
826.321	812.12
826.503	793.14
826.685	832.47
826.866	813.48
827.048	843.51
827.229	794.88
827.411	786.55
827.592	732.88
827.773	752.26
827.955	732.69
828.136	735.59
828.318	694.52
828.499	747.02
828.68	691.61
828.862	762.72
829.043	784.81
829.224	750.51
829.406	719.13
829.587	726.29
829.768	706.34
829.949	715.06
830.131	714.86
830.312	783.64
830.493	710.21
830.674	757.87
830.855	715.06
831.036	738.89
831.218	784.61
831.399	796.82
831.58	756.52
831.761	738.11
831.942	754
832.123	723.78
832.304	663.71
832.485	711.76
832.666	698.78
832.847	723
833.028	738.31
833.209	731.91
833.389	674.37
833.57	676.5
833.751	710.99
833.932	738.31
834.113	728.23
834.294	711.96
834.475	777.44
834.655	771.82
834.836	785.77
835.017	744.7
835.198	667.59
835.378	728.81
835.559	760.39
835.74	722.23
835.92	709.63
836.101	684.83
836.281	743.92
836.462	740.44
836.643	769.31
836.823	760.59
837.004	766.21
837.184	830.14
837.365	769.31
837.545	776.67
837.726	752.45
837.906	790.81
838.087	762.72
838.267	768.53
838.448	690.84
838.628	754.19
838.808	761.94
838.989	818.9
839.169	715.25
839.349	781.51
839.53	776.67
839.71	803.21
839.89	735.21
840.07	821.04
840.251	738.89
840.431	779.38
840.611	774.15
840.791	694.33
840.971	762.33
841.151	757.87
841.332	743.73
841.512	813.67
841.692	711.57
841.872	762.72
842.052	749.35
842.232	764.27
842.412	698.59
842.592	747.02
842.772	771.44
842.952	739.86
843.132	729.39
843.312	708.86
843.492	705.56
843.672	771.05
843.851	693.36
844.031	741.02
844.211	692.39
844.391	694.71
844.571	736.95
844.751	730.75
844.93	726.1
845.11	682.7
845.29	787.52
845.47	766.98
845.649	760.39
845.829	748.19
846.009	688.9
846.188	738.5
846.368	711.96
846.547	727.65
846.727	775.51
846.907	666.62
847.086	729.78
847.266	749.54
847.445	695.29
847.625	740.24
847.804	688.13
847.984	724.36
848.163	680.38
848.343	688.71
848.522	734.82
848.701	735.79
848.881	685.8
849.06	707.89
849.239	746.06
849.419	749.16
849.598	701.11
849.777	674.37
849.957	718.54
850.136	647.24
850.315	617.02
850.494	629.23
850.674	646.86
850.853	713.31
851.032	688.32
851.211	709.05
851.39	698.2
851.569	636.59
851.748	642.98
851.927	678.05
852.107	669.33
852.286	617.02
852.465	599.78
852.644	700.91
852.823	650.34
853.002	660.81
853.181	663.52
853.359	691.81
853.538	633.68
853.717	707.5
853.896	620.31
854.075	599.39
854.254	584.66
854.433	545.72
854.611	621.86
854.79	556.57
854.969	595.32
855.148	603.46
855.327	550.18
855.505	580.21
855.684	548.82
855.863	584.28
856.041	557.35
856.22	611.4
856.399	607.91
856.577	671.27
856.756	650.93
856.934	706.92
857.113	745.28
857.291	625.35
857.47	614.89
857.648	629.03
857.827	667.01
858.005	661.58
858.184	636.59
858.362	727.07
858.541	635.43
858.719	619.35
858.898	645.89
859.076	598.42
859.254	663.13
859.433	603.65
859.611	605.2
859.789	572.26
859.967	645.11
860.146	692.19
860.324	581.56
860.502	620.7
860.68	567.61
860.859	594.93
861.037	587.76
861.215	658.68
861.393	607.33
861.571	616.83
861.749	559.67
861.927	599.97
862.105	605.01
862.283	605.2
862.461	565.87
862.639	568.2
862.817	593.38
862.995	568.97
863.173	593.58
863.351	566.84
863.529	623.61
863.707	651.89
863.885	624.58
864.063	563.16
864.241	548.63
864.418	648.21
864.596	565.87
864.774	522.47
864.952	564.9
865.129	592.8
865.307	566.84
865.485	537
865.663	640.66
865.84	543.2
866.018	549.98
866.196	465.12
866.373	531.58
866.551	501.35
866.728	459.31
866.906	509.49
867.084	517.05
867.261	530.22
867.439	525.77
867.616	541.85
867.794	506.39
867.971	524.99
868.149	531.77
868.326	576.91
868.503	519.18
868.681	556.57
868.858	538.94
869.035	523.63
869.213	575.17
869.39	537.39
869.567	591.45
869.745	511.43
869.922	567.81
870.099	571.1
870.276	558.7
870.454	549.21
870.631	549.4
870.808	535.45
870.985	571.3
871.162	590.86
871.339	560.25
871.517	507.17
871.694	525.57
871.871	545.14
872.048	523.05
872.225	506.78
872.402	555.6
872.579	486.63
872.756	527.7
872.933	496.9
873.11	511.43
873.287	526.15
873.463	527.32
873.64	503.1
873.817	559.28
873.994	523.25
874.171	500.97
874.348	524.22
874.524	468.42
874.701	534.29
874.878	469.97
875.055	532.74
875.231	495.93
875.408	518.98
875.585	458.54
875.762	525.38
875.938	505.62
876.115	499.61
876.291	492.05
876.468	511.04
876.645	452.14
876.821	496.51
876.998	470.35
877.174	523.83
877.351	505.03
877.527	450.4
877.704	502.71
877.88	493.02
878.057	463.96
878.233	516.66
878.409	478.68
878.586	500.58
878.762	468.42
878.938	490.5
879.115	417.65
879.291	463.96
879.467	432.19
879.644	446.33
879.82	521.7
879.996	427.73
880.172	400.6
880.349	460.67
880.525	473.65
880.701	432.96
880.877	433.54
881.053	463.77
881.229	445.94
881.405	498.83
881.581	438.77
881.757	442.45
881.933	455.24
882.109	466.09
882.285	454.85
882.461	391.89
882.637	425.21
882.813	434.9
882.989	438.19
883.165	460.86
883.341	438
883.517	501.35
883.693	468.42
883.869	520.92
884.044	425.4
884.22	470.16
884.396	468.22
884.572	469
884.747	481.98
884.923	455.44
885.099	483.72
885.275	501.55
885.45	443.04
885.626	419.2
885.801	434.51
885.977	444.59
886.153	394.02
886.328	457.76
886.504	425.21
886.679	466.67
886.855	384.14
887.03	471.13
887.206	461.83
887.381	466.87
887.557	457.76
887.732	413.39
887.908	466.48
888.083	496.51
888.258	423.47
888.434	417.46
888.609	444.97
888.784	509.1
888.96	447.1
889.135	390.34
889.31	391.3
889.485	462.41
889.661	432.77
889.836	513.75
890.011	466.48
890.186	438.19
890.361	419.98
890.537	422.89
890.712	433.93
890.887	457.37
891.062	465.51
891.237	482.17
891.412	416.3
891.587	459.12
891.762	457.18
891.937	490.89
892.112	441.68
892.287	438.39
892.462	412.62
892.637	378.52
892.812	379.1
892.987	408.35
893.161	392.85
893.336	420.56
893.511	395.37
893.686	402.15
893.861	416.69
894.035	390.92
894.21	428.12
894.385	378.71
894.56	403.7
894.734	360.5
894.909	395.95
895.084	379.49
895.258	369.99
895.433	394.21
895.608	338.41
895.782	324.85
895.957	359.53
896.131	336.09
896.306	303.34
896.48	326.98
896.655	335.89
896.829	279.71
897.004	300.63
897.178	312.26
897.353	301.6
897.527	338.61
897.701	306.44
897.876	270.99
898.05	337.44
898.224	320.39
898.399	335.12
898.573	292.3
898.747	227.59
898.921	287.65
899.096	239.21
899.27	255.88
899.444	235.53
899.618	222.55
899.792	238.83
899.967	231.27
900.141	272.54
900.315	235.53
900.489	237.66
900.663	271.96
900.837	243.67
901.011	181.28
901.185	307.02
901.359	264.59
901.533	239.02
901.707	243.67
901.881	258.39
902.055	208.02
902.229	233.79
902.403	289.2
902.576	258.98
902.75	252.39
902.924	376.58
903.098	293.27
903.272	345.77
903.446	347.13
903.619	288.62
903.793	323.11
903.967	309.93
904.14	338.41
904.314	346.16
904.488	322.52
904.661	371.93
904.835	327.95
905.009	346.94
905.182	360.31
905.356	339.77
905.529	337.25
905.703	284.36
905.876	311.87
906.05	304.31
906.223	276.41
906.397	238.44
906.57	252.19
906.744	233.79
906.917	270.99
907.09	252.97
907.264	284.74
907.437	229.72
907.61	196.59
907.784	247.93
907.957	243.09
908.13	228.75
908.304	273.31
908.477	236.11
908.65	263.43
908.823	208.41
908.996	276.22
909.17	205.11
909.343	234.37
909.516	229.72
909.689	250.64
909.862	200.27
910.035	219.06
910.208	188.45
910.381	206.66
910.554	302.18
910.727	224.29
910.9	209.57
911.073	209.38
911.246	268.28
911.419	265.56
911.592	238.24
911.765	215.96
911.938	202.21
912.11	228.75
912.283	237.86
912.456	271.38
912.629	265.18
912.802	212.86
912.974	195.04
913.147	170.43
913.32	134.01
913.493	158.23
913.665	226.23
913.838	176.05
914.01	201.63
914.183	186.51
914.356	154.74
914.528	230.3
914.701	265.95
914.873	256.65
915.046	215.58
915.218	177.6
915.391	157.06
915.563	167.72
915.736	191.55
915.908	240.38
916.081	200.85
916.253	175.66
916.425	194.85
916.598	184.96
916.77	206.86
916.942	160.94
917.115	126.45
917.287	202.6
917.459	196.01
917.632	157.45
917.804	115.41
917.976	179.15
918.148	175.47
918.32	176.63
918.493	190.97
918.665	227.01
918.837	194.46
919.009	246.38
919.181	233.21
919.353	205.89
919.525	190.58
919.697	168.88
919.869	172.56
920.041	227.78
920.213	278.74
920.385	202.6
920.557	196.59
920.729	200.46
920.901	208.79
921.073	198.33
921.244	181.09
921.416	227.01
921.588	209.57
921.76	188.84
921.932	255.88
922.103	172.76
922.275	185.74
922.447	185.16
922.619	145.25
922.79	191.75
922.962	208.41
923.134	219.45
923.305	168.11
923.477	156.87
923.648	163.07
923.82	195.23
923.991	143.11
924.163	146.21
924.335	163.26
924.506	154.93
924.677	213.06
924.849	141.56
925.02	190.58
925.192	188.65
925.363	154.93
925.535	185.55
925.706	151.64
925.877	213.83
926.049	126.26
926.22	171.79
926.391	171.98
926.562	217.51
926.734	146.02
926.905	176.44
927.076	108.43
927.247	183.22
927.419	114.83
927.59	135.56
927.761	136.14
927.932	130.71
928.103	185.74
928.274	107.08
928.445	97.39
928.616	115.41
928.787	134.78
928.958	163.46
929.129	150.86
929.3	132.85
929.471	83.44
929.642	84.02
929.813	40.62
929.984	122.77
930.155	57.28
930.326	115.99
930.496	93.13
930.667	51.28
930.838	71.04
931.009	62.32
931.18	75.11
931.35	70.07
931.521	43.14
931.692	44.5
931.863	-9.95
932.033	67.36
932.204	54.96
932.374	50.89
932.545	16.02
932.716	93.52
932.886	94.68
933.057	19.7
933.227	28.8
933.398	131.88
933.568	21.25
933.739	-19.25
933.909	-2
934.08	52.44
934.25	-32.03
934.421	9.82
934.591	15.82
934.761	-8.4
934.932	-52.57
935.102	-21.96
935.272	-13.05
935.443	4.59
935.613	2.07
935.783	31.13
935.953	-35.33
936.123	143.31
936.294	-22.35
936.464	0.52
936.634	-14.01
936.804	-41.72
936.974	-35.71
937.144	21.64
937.314	3.42
937.484	-11.69
937.655	-23.51
937.825	50.12
937.995	-22.54
938.165	47.4
938.334	-18.08
938.504	-10.14
938.674	-38.43
938.844	-21.96
939.014	35.2
939.184	33.07
939.354	69.3
939.524	34.03
939.694	30.16
939.863	-14.21
940.033	86.35
940.203	75.69
940.373	39.46
940.542	62.71
940.712	17.57
940.882	55.73
941.051	38.1
941.221	39.85
941.391	88.09
941.56	5.55
941.73	-3.16
941.899	119.28
942.069	13.5
942.238	45.66
942.408	14.85
942.577	64.26
942.747	23.57
942.916	-27.38
943.086	-2.2
943.255	47.6
943.425	43.53
943.594	13.3
943.763	-27.19
943.933	-15.37
944.102	-28.93
944.271	29
944.441	37.91
944.61	-24.09
944.779	32.68
944.948	71.43
945.117	-7.62
945.287	-0.45
945.456	-32.61
945.625	-8.78
945.794	38.88
945.963	-8.59
946.132	50.12
946.301	-4.71
946.47	18.54
946.639	-54.31
946.808	-1.03
946.977	44.88
947.146	41.78
947.315	-7.81
947.484	29
947.653	37.91
947.822	1.1
947.991	12.72
948.16	75.69
948.329	61.74
948.498	25.32
948.666	20.28
948.835	17.57
949.004	-26.22
949.173	-37.46
949.341	1.1
949.51	41.98
949.679	54.96
949.847	56.12
950.016	99.72
950.185	92.55
950.353	-19.25
950.522	-4.52
950.69	49.92
950.859	3.81
951.028	48.95
951.196	34.42
951.365	-3.94
951.533	-8.59
951.701	25.51
951.87	55.93
952.038	-32.03
952.207	41.98
952.375	105.33
952.543	20.47
952.712	6.91
952.88	-0.84
953.048	83.83
953.217	33.26
953.385	10.2
953.553	85.96
953.721	-22.15
953.89	7.69
954.058	-12.66
954.226	-1.23
954.394	31.71
954.562	-23.12
954.73	1.1
954.898	11.56
955.067	60.38
955.235	4.78
955.403	46.43
955.571	78.02
955.739	62.9
955.907	-25.45
956.075	10.2
956.243	-6.46
956.41	24.93
956.578	-46.56
956.746	-29.32
956.914	-10.14
957.082	-6.07
957.25	11.75
957.418	-10.53
957.585	2.84
957.753	58.25
957.921	-32.23
958.089	30.93
958.256	26.29
958.424	28.61
958.592	17.76
958.759	-12.66
958.927	37.72
959.095	10.79
959.262	14.47
959.43	22.41
959.597	-4.91
959.765	29.77
959.932	-5.88
960.1	42.56
960.267	22.99
960.435	-1.23
960.602	33.84
960.77	-9.95
960.937	-38.04
961.104	24.74
961.272	-28.35
961.439	-13.24
961.606	30.93
961.774	48.57
961.941	24.15
962.108	19.7
962.275	8.85
962.443	74.14
962.61	34.23
962.777	96.03
962.944	54.96
963.111	21.83
963.278	6.33
963.446	40.04
963.613	2.65
963.78	35.78
963.947	42.37
964.114	34.81
964.281	105.53
964.448	45.66
964.615	-18.66
964.782	21.83
964.949	45.08
965.116	56.51
965.282	80.53
965.449	16.4
965.616	-13.05
965.783	49.15
965.95	15.24
966.117	-28.74
966.283	8.27
966.45	21.64
966.617	36.94
966.784	69.3
966.95	51.28
967.117	42.37
967.284	-4.91
967.45	12.72
967.617	46.82
967.784	41.78
967.95	86.35
968.117	10.59
968.283	42.17
968.45	101.85
968.616	23.38
968.783	85.96
968.949	17.57
969.116	57.28
969.282	5.17
969.449	54.96
969.615	24.74
969.781	-40.17
969.948	14.85
970.114	-33.97
970.28	91.19
970.447	38.49
970.613	55.54
970.779	14.66
970.945	28.03
971.112	29.58
971.278	19.5
971.444	-9.56
971.61	37.13
971.776	19.5
971.942	39.85
972.108	30.55
972.275	27.84
972.441	17.37
972.607	100.49
972.773	19.12
972.939	37.72
973.105	23.77
973.271	5.75
973.437	-8.59
973.602	27.64
973.768	49.34
973.934	24.35
974.1	41.78
974.266	-26.8
974.432	53.6
974.598	15.05
974.763	50.31
974.929	16.02
975.095	79.76
975.261	-4.52
975.426	4.59
975.592	21.44
975.758	101.07
975.923	-15.37
976.089	6.52
976.255	54.38
976.42	39.65
976.586	57.87
976.751	36.75
976.917	129.55
977.082	52.44
977.248	-19.83
977.413	-42.5
977.579	8.07
977.744	43.14
977.91	-12.27
978.075	-11.11
978.24	47.21
978.406	16.6
978.571	-6.65
978.736	-31.06
978.902	33.45
979.067	-7.23
979.232	-45.98
979.397	29.58
979.563	87.32
979.728	-7.23
979.893	37.33
980.058	-5.49
980.223	45.08
980.388	43.14
980.554	30.93
980.719	10.79
980.884	17.76
981.049	35.97
981.214	-5.3
981.379	27.25
981.544	15.44
981.709	0.9
981.874	45.08
982.039	35
982.204	50.12
982.368	15.82
982.533	-10.33
982.698	34.62
982.863	59.8
983.028	0.32
983.193	56.12
983.357	30.16
983.522	30.16
983.687	12.53
983.852	13.89
984.016	15.05
984.181	29.38
984.346	21.83
984.51	52.83
984.675	40.62
984.839	42.75
985.004	38.49
985.168	53.41
985.333	41.4
985.498	20.86
985.662	40.04
985.827	63.48
985.991	32.68
986.155	17.76
986.32	30.55
986.484	78.02
986.649	47.79
986.813	-18.47
986.977	47.4
987.142	45.66
987.306	-9.17
987.47	-12.08
987.634	8.07
987.799	22.6
987.963	14.85
988.127	31.52
988.291	97.2
988.455	25.9
988.62	13.5
988.784	47.21
988.948	64.45
989.112	13.69
989.276	68.33
989.44	7.3
989.604	-11.5
989.768	17.57
989.932	93.32
990.096	-15.18
990.26	-13.05
990.424	-17.7
990.588	29.38
990.752	81.5
990.915	61.16
991.079	40.82
991.243	18.54
991.407	52.25
991.571	19.12
991.734	39.65
991.898	34.23
992.062	112.5
992.226	17.18
992.389	-9.75
992.553	-28.16
992.717	-2.58
992.88	35.39
993.044	39.27
993.207	23.57
993.371	42.95
993.535	36.36
993.698	5.55
993.862	45.66
994.025	62.52
994.189	15.82
994.352	20.47
994.515	35
994.679	37.72
994.842	18.73
995.006	60.38
995.169	24.74
995.332	-18.86
995.496	22.22
995.659	-11.69
995.822	31.71
995.985	34.62
996.149	65.03
996.312	-5.1
996.475	73.37
996.638	2.26
996.801	76.08
996.964	75.69
997.128	30.74
997.291	9.04
997.454	40.23
997.617	-23.9
997.78	78.79
997.943	-3.55
998.106	64.26
998.269	-5.68
998.432	45.08
998.595	20.67
998.758	-21.18
998.92	-21.76
999.083	-26.61
999.246	22.02
999.409	-27.38
999.572	-50.83
999.735	-2.39
999.897	25.12
1000.06	16.21
1000.223	16.6
1000.386	52.83
1000.548	28.22
1000.711	53.6
1000.874	26.29
1001.036	-7.23
1001.199	46.43
1001.361	0.32
1001.524	18.92
1001.687	53.6
1001.849	-7.04
1002.012	31.9
1002.174	31.52
1002.337	51.08
1002.499	5.17
1002.661	67.36
1002.824	-31.65
1002.986	-2.2
1003.149	23.38
1003.311	-24.09
1003.473	58.64
1003.636	-6.26
1003.798	15.82
1003.96	41.59
1004.123	1.87
1004.285	-10.33
1004.447	15.24
1004.609	-1.42
1004.771	69.49
1004.933	-29.9
1005.096	-21.96
1005.258	-11.5
1005.42	-7.81
1005.582	64.07
1005.744	33.65
1005.906	-40.75
1006.068	29.77
1006.23	-58
1006.392	-42.11
1006.554	-9.75
1006.716	44.69
1006.878	13.3
1007.04	-35.33
1007.202	-0.65
1007.363	34.03
1007.525	1.87
1007.687	34.81
1007.849	44.69
1008.011	-46.18
1008.172	-21.57
1008.334	-0.06
1008.496	38.1
1008.658	-28.35
1008.819	-19.05
1008.981	-36.88
1009.143	-35.71
1009.304	-9.17
1009.466	2.26
1009.627	71.43
1009.789	97.39
1009.95	-4.91
1010.112	-5.49
1010.273	30.55
1010.435	-8.98
1010.596	1.1
1010.758	-5.49
1010.919	-10.33
1011.081	-35.71
1011.242	-17.31
1011.403	24.93
1011.565	11.17
1011.726	19.89
1011.887	-22.35
1012.049	-1.42
1012.21	29.19
1012.371	70.46
1012.532	-58
1012.693	30.16
1012.855	-23.12
1013.016	8.85
1013.177	65.62
1013.338	20.47
1013.499	44.69
1013.66	24.93
1013.821	19.12
1013.982	28.03
1014.143	22.02
1014.304	-10.53
1014.465	15.24
1014.626	10.79
1014.787	-2.97
1014.948	75.88
1015.109	-89.96
1015.27	32.87
1015.431	-3.94
1015.592	2.84
1015.752	58.83
1015.913	28.03
1016.074	16.99
1016.235	3.23
1016.395	-7.23
1016.556	-14.98
1016.717	-6.85
1016.877	43.53
1017.038	-8.4
1017.199	-10.91
1017.359	-11.88
1017.52	18.92
1017.681	-6.85
1017.841	-4.13
1018.002	13.89
1018.162	-17.5
1018.323	52.83
1018.483	-16.15
1018.644	-20.21
1018.804	-41.72
1018.964	-38.81
1019.125	-8.01
1019.285	11.17
1019.446	-28.55
1019.606	-30.1
1019.766	-56.06
1019.926	21.64
1020.087	21.44
1020.247	-58.19
1020.407	1.87
1020.567	61.55
1020.728	-18.86
1020.888	-48.5
1021.048	-34.36
1021.208	-23.12
1021.368	-10.14
1021.528	56.12
1021.688	22.6
1021.848	42.17
1022.008	19.12
1022.168	-10.91
1022.328	-9.75
1022.488	-8.78
1022.648	-14.6
1022.808	-4.13
1022.968	14.08
1023.128	1.87
1023.288	-5.3
1023.448	-9.95
1023.608	11.95
1023.767	22.6
1023.927	-47.34
1024.087	-43.66
1024.247	-12.27
1024.406	-20.21
1024.566	-33.97
1024.726	-50.05
1024.885	-12.85
1025.045	38.88
1025.205	35.97
1025.364	-19.83
1025.524	24.54
1025.683	-20.02
1025.843	13.11
1026.003	4.59
1026.162	54.77
1026.321	32.29
1026.481	21.25
1026.64	1.29
1026.8	9.62
1026.959	-0.45
1027.119	1.1
1027.278	-10.53
1027.437	-19.63
1027.597	21.44
1027.756	20.86
1027.915	11.56
1028.074	30.16
1028.234	-25.83
1028.393	8.46
1028.552	5.36
1028.711	-59.74
1028.87	30.16
1029.03	-26.8
1029.189	-4.52
1029.348	-40.36
1029.507	-29.32
1029.666	-6.65
1029.825	-24.28
1029.984	-41.14
1030.143	15.44
1030.302	-38.62
1030.461	-43.85
1030.62	2.84
1030.779	45.27
1030.938	-14.21
1031.097	-41.33
1031.255	38.3
1031.414	24.93
1031.573	31.9
1031.732	-16.92
1031.891	-28.74
1032.049	41.4
1032.208	12.53
1032.367	-8.2
1032.525	11.56
1032.684	5.94
1032.843	-7.81
1033.001	-37.07
1033.16	145.05
1033.319	35
1033.477	17.95
1033.636	-15.18
1033.794	-45.4
1033.953	21.25
1034.111	20.28
1034.27	-16.15
1034.428	17.57
1034.587	-26.03
1034.745	-16.34
1034.903	-14.4
1035.062	-0.84
1035.22	-45.98
1035.378	11.37
1035.537	-39.4
1035.695	10.4
1035.853	-0.06
1036.011	14.66
1036.17	20.47
1036.328	-74.08
1036.486	5.94
1036.644	5.75
1036.802	-80.47
1036.96	-22.93
1037.119	-13.05
1037.277	-22.73
1037.435	-63.03
1037.593	-14.6
1037.751	3.62
1037.909	9.82
1038.067	9.82
