Data from pine_FLMT105791__127__17-22-26-075.txt Node

Date: Mon Mar 20 17:22:26 GMT 2023
User: antho
Spectrometer: FLMT10579
Trigger mode: 0
Integration Time (sec): 1.000000E-1
Scans to average: 10
Electric dark correction enabled: true
Nonlinearity correction enabled: false
Boxcar width: 0
XAxis mode: Wavelengths
Number of Pixels in Spectrum: 3648
>>>>>Begin Spectral Data<<<<<
345.248	-148.86
345.464	-148.86
345.681	-148.86
345.898	-172.5
346.114	-177.92
346.331	-36.3
346.548	15.63
346.764	10.2
346.981	-22.73
347.197	-24.28
347.414	8.27
347.631	-14.6
347.847	70.85
348.064	28.61
348.28	34.23
348.497	-45.4
348.713	-24.48
348.93	13.5
349.146	-0.06
349.363	17.57
349.579	10.01
349.796	-26.03
350.012	-5.49
350.229	15.24
350.445	24.15
350.661	-27.38
350.878	-9.95
351.094	37.13
351.311	27.84
351.527	17.37
351.743	-27.38
351.96	14.47
352.176	37.33
352.392	5.17
352.609	31.71
352.825	1.87
353.041	24.54
353.257	-25.45
353.474	11.75
353.69	15.44
353.906	12.92
354.122	-18.66
354.339	51.28
354.555	11.37
354.771	-7.43
354.987	60.77
355.203	85.18
355.42	-0.45
355.636	-5.68
355.852	1.1
356.068	10.01
356.284	-36.1
356.5	49.92
356.716	32.1
356.932	-3.94
357.148	34.23
357.364	40.23
357.58	26.29
357.796	73.37
358.012	13.11
358.228	21.64
358.444	-26.8
358.66	46.24
358.876	17.37
359.092	3.42
359.308	5.55
359.524	35
359.74	-10.91
359.956	16.21
360.172	29.58
360.388	43.72
360.604	1.29
360.819	93.13
361.035	33.26
361.251	29.19
361.467	-10.72
361.683	37.72
361.898	26.29
362.114	39.65
362.33	25.7
362.546	31.13
362.762	8.27
362.977	31.13
363.193	10.4
363.409	35.58
363.624	-4.91
363.84	-18.08
364.056	26.09
364.271	36.75
364.487	43.14
364.703	-2.78
364.918	-24.28
365.134	-15.76
365.35	4.97
365.565	93.52
365.781	29.58
365.996	2.07
366.212	71.82
366.427	49.53
366.643	-8.2
366.858	1.29
367.074	-10.72
367.289	64.65
367.505	116.76
367.72	-44.82
367.936	-5.49
368.151	29.77
368.367	29.58
368.582	38.3
368.798	11.17
369.013	65.42
369.228	8.27
369.444	5.75
369.659	84.41
369.874	58.64
370.09	94.68
370.305	-54.51
370.52	-18.08
370.736	79.37
370.951	2.84
371.166	68.13
371.381	75.88
371.597	28.03
371.812	-29.9
372.027	-20.8
372.242	11.75
372.458	48.95
372.673	0.52
372.888	17.76
373.103	15.24
373.318	103.2
373.533	22.6
373.749	53.41
373.964	-15.18
374.179	70.65
374.394	-2.2
374.609	66.39
374.824	-13.63
375.039	40.23
375.254	3.23
375.469	94.1
375.684	16.4
375.899	69.3
376.114	30.35
376.329	52.05
376.544	60.58
376.759	63.87
376.974	7.1
377.189	-3.55
377.404	8.65
377.619	53.8
377.834	-35.52
378.049	-17.7
378.264	0.71
378.478	20.09
378.693	-10.53
378.908	33.84
379.123	40.62
379.338	75.88
379.553	15.82
379.767	22.41
379.982	57.48
380.197	60.58
380.412	28.22
380.626	45.66
380.841	117.35
381.056	55.54
381.271	77.43
381.485	-22.15
381.7	-16.15
381.915	27.84
382.129	29.77
382.344	41.78
382.559	40.23
382.773	57.48
382.988	-21.96
383.202	3.04
383.417	-4.71
383.632	123.16
383.846	44.69
384.061	22.6
384.275	24.74
384.49	32.29
384.704	62.71
384.919	48.37
385.133	2.07
385.348	29.77
385.562	-20.6
385.777	75.88
385.991	8.27
386.206	9.04
386.42	-2.2
386.634	74.14
386.849	28.03
387.063	64.65
387.277	0.52
387.492	-3.16
387.706	6.91
387.92	-22.73
388.135	34.42
388.349	43.33
388.563	41.78
388.778	32.87
388.992	28.03
389.206	79.95
389.42	101.46
389.635	48.18
389.849	69.1
390.063	83.83
390.277	52.05
390.491	93.71
390.706	59.22
390.92	54.96
391.134	34.42
391.348	51.67
391.562	-29.71
391.776	28.61
391.99	8.27
392.205	44.5
392.419	11.75
392.633	13.3
392.847	76.08
393.061	0.9
393.275	72.4
393.489	25.7
393.703	69.68
393.917	67.75
394.131	14.85
394.345	52.44
394.559	45.47
394.773	24.35
394.986	43.53
395.2	23.96
395.414	94.87
395.628	-8.59
395.842	43.53
396.056	18.54
396.27	-33.78
396.484	54.38
396.697	54.38
396.911	79.76
397.125	39.07
397.339	95.45
397.553	60.38
397.766	112.12
397.98	77.82
398.194	72.2
398.408	53.41
398.621	40.82
398.835	78.79
399.049	52.25
399.262	63.87
399.476	83.25
399.69	62.9
399.903	113.47
400.117	66.39
400.331	78.6
400.544	24.35
400.758	187.68
400.971	77.24
401.185	97.78
401.398	9.24
401.612	121.41
401.826	75.11
402.039	83.44
402.253	43.14
402.466	82.47
402.68	63.1
402.893	103.78
403.106	42.95
403.32	68.52
403.533	77.63
403.747	71.43
403.96	40.62
404.174	92.93
404.387	42.95
404.6	66
404.814	66.97
405.027	65.42
405.24	65.23
405.454	65.62
405.667	104.56
405.88	6.14
406.094	81.7
406.307	89.64
406.52	100.68
406.733	37.52
406.947	12.92
407.16	117.15
407.373	126.26
407.586	37.13
407.799	22.6
408.012	100.49
408.226	94.1
408.439	123.55
408.652	26.48
408.865	108.82
409.078	112.31
409.291	92.55
409.504	34.62
409.717	78.4
409.93	79.95
410.143	75.11
410.357	25.32
410.57	27.45
410.783	76.66
410.996	66.58
411.209	97.39
411.421	106.69
411.634	71.43
411.847	44.5
412.06	66.39
412.273	73.95
412.486	106.69
412.699	151.06
412.912	80.73
413.125	106.88
413.338	74.92
413.55	97
413.763	78.4
413.976	87.12
414.189	85.18
414.402	58.45
414.615	130.13
414.827	54.96
415.04	125.29
415.253	114.25
415.466	128.39
415.678	171.21
415.891	106.88
416.104	86.73
416.316	98.36
416.529	75.5
416.742	94.29
416.954	140.98
417.167	101.07
417.38	87.51
417.592	149.51
417.805	66.2
418.017	26.29
418.23	122.96
418.442	64.65
418.655	75.88
418.868	88.28
419.08	126.65
419.293	131.1
419.505	120.64
419.718	108.05
419.93	146.6
420.142	103.4
420.355	137.88
420.567	162.88
420.78	140.6
420.992	82.67
421.205	160.55
421.417	73.95
421.629	95.07
421.842	86.93
422.054	67.36
422.266	143.5
422.479	165.98
422.691	92.74
422.903	144.47
423.115	91.58
423.328	128.39
423.54	108.43
423.752	117.54
423.964	108.05
424.177	161.13
424.389	103.59
424.601	210.15
424.813	124.32
425.025	160.16
425.238	155.51
425.45	129.55
425.662	109.98
425.874	430.25
426.086	112.5
426.298	153.58
426.51	155.51
426.722	128
426.934	101.27
427.146	170.63
427.358	99.91
427.57	182.83
427.782	115.22
427.994	129.94
428.206	114.05
428.418	93.13
428.63	171.21
428.842	173.73
429.054	149.31
429.266	159.58
429.478	118.31
429.69	119.48
429.902	92.74
430.114	168.5
430.325	152.22
430.537	124.51
430.749	143.89
430.961	78.21
431.173	112.12
431.384	165.98
431.596	85.77
431.808	131.88
432.02	159.58
432.231	198.72
432.443	206.66
432.655	172.37
432.867	130.13
433.078	176.44
433.29	232.82
433.502	222.55
433.713	217.51
433.925	188.45
434.136	210.15
434.348	112.5
434.56	114.25
434.771	240.96
434.983	126.26
435.194	177.99
435.406	154.93
435.617	217.51
435.829	272.15
436.04	196.59
436.252	204.92
436.463	234.18
436.675	224.29
436.886	214.99
437.098	236.11
437.309	264.4
437.521	206.28
437.732	220.61
437.943	206.28
438.155	209.96
438.366	153.19
438.578	279.71
438.789	241.93
439	220.23
439.211	230.88
439.423	221.97
439.634	225.07
439.845	240.57
440.057	237.28
440.268	263.04
440.479	178.38
440.69	240.18
440.902	201.82
441.113	226.81
441.324	205.31
441.535	251.23
441.746	298.89
441.957	202.6
442.168	219.26
442.38	239.6
442.591	270.21
442.802	219.26
443.013	221.39
443.224	241.34
443.435	230.49
443.646	238.05
443.857	249.68
444.068	231.66
444.279	197.56
444.49	319.04
444.701	260.33
444.912	367.09
445.123	297.92
445.334	279.71
445.545	300.82
445.756	275.64
445.967	246.58
446.178	261.11
446.388	322.52
446.599	293.46
446.81	280.48
447.021	274.48
447.232	296.76
447.443	352.36
447.653	263.24
447.864	290.94
448.075	292.69
448.286	323.69
448.496	294.82
448.707	327.17
448.918	288.62
449.129	410.87
449.339	256.65
449.55	304.51
449.761	301.79
449.971	381.81
450.182	315.94
450.393	318.07
450.603	317.29
450.814	353.33
451.024	343.06
451.235	343.45
451.446	405.45
451.656	382.2
451.867	299.08
452.077	333.18
452.288	384.14
452.498	389.17
452.709	324.07
452.919	363.99
453.13	332.99
453.34	377.94
453.55	267.69
453.761	345.58
453.971	357.4
454.182	381.81
454.392	321.56
454.602	400.8
454.813	366.12
455.023	396.15
455.233	304.12
455.444	364.96
455.654	290.94
455.864	338.61
456.075	326.21
456.285	324.85
456.495	343.64
456.705	363.79
456.916	390.72
457.126	407.97
457.336	327.76
457.546	291.14
457.756	313.22
457.967	405.45
458.177	339.38
458.387	370.77
458.597	340.35
458.807	338.61
459.017	354.3
459.227	362.44
459.437	366.12
459.647	388.2
459.857	368.83
460.068	347.71
460.278	427.34
460.488	385.3
460.698	410.1
460.908	378.52
461.117	300.44
461.327	349.26
461.537	374.06
461.747	373.29
461.957	391.11
462.167	474.81
462.377	431.99
462.587	403.32
462.797	425.4
463.007	368.83
463.216	421.72
463.426	469.38
463.636	433.54
463.846	376
464.056	398.86
464.265	428.89
464.475	353.72
464.685	390.53
464.895	465.9
465.104	389.75
465.314	424.82
465.524	396.15
465.733	364.37
465.943	482.95
466.153	455.63
466.362	450.79
466.572	425.21
466.782	368.64
466.991	413.78
467.201	454.85
467.41	383.94
467.62	436.45
467.829	404.87
468.039	433.15
468.249	429.47
468.458	437.61
468.668	445.36
468.877	482.56
469.086	493.22
469.296	465.7
469.505	421.53
469.715	508.52
469.924	448.65
470.134	512.4
470.343	495.15
470.552	450.01
470.762	416.49
470.971	396.92
471.18	459.31
471.39	469.97
471.599	409.52
471.808	505.23
472.018	475.39
472.227	511.43
472.436	548.82
472.645	464.35
472.855	456.99
473.064	518.02
473.273	511.04
473.482	523.63
473.691	545.92
473.901	526.15
474.11	485.47
474.319	580.4
474.528	510.07
474.737	571.49
474.946	550.57
475.155	542.43
475.364	555.21
475.573	554.05
475.783	546.5
475.992	576.33
476.201	555.6
476.41	559.86
476.619	536.42
476.828	553.08
477.037	546.3
477.245	529.64
477.454	574.98
477.663	552.5
477.872	525.38
478.081	631.36
478.29	546.88
478.499	661.97
478.708	599.78
478.917	652.28
479.125	587.38
479.334	627.1
479.543	617.02
479.752	605.98
479.961	621.67
480.169	667.78
480.378	592.8
480.587	703.24
480.796	672.43
481.004	637.75
481.213	651.89
481.422	667.2
481.63	663.52
481.839	678.44
482.048	719.9
482.256	668.56
482.465	704.59
482.674	713.7
482.882	699.75
483.091	743.54
483.299	679.21
483.508	700.33
483.716	710.6
483.925	708.66
484.134	669.33
484.342	666.62
484.551	722.81
484.759	723.58
484.967	707.69
485.176	753.61
485.384	766.98
485.593	755.74
485.801	710.6
486.01	727.65
486.218	673.01
486.426	620.7
486.635	660.03
486.843	660.42
487.051	687.74
487.26	649.18
487.468	701.3
487.676	717.96
487.885	689.48
488.093	739.66
488.301	727.46
488.509	734.82
488.717	765.82
488.926	714.48
489.134	730.36
489.342	765.04
489.55	714.28
489.758	778.8
489.967	744.89
490.175	865.4
490.383	761.94
490.591	889.62
490.799	754.39
491.007	838.67
491.215	816
491.423	778.02
491.631	791.39
491.839	793.72
492.047	824.52
492.255	761.17
492.463	759.23
492.671	770.47
492.879	863.27
493.087	810.77
493.295	820.65
493.503	857.46
493.711	873.35
493.919	855.72
494.127	892.34
494.334	858.04
494.542	847.58
494.75	893.69
494.958	850.87
495.166	934.18
495.374	865.6
495.581	901.05
495.789	871.6
495.997	915.39
496.205	894.08
496.412	893.5
496.62	863.85
496.828	912.29
497.035	894.85
497.243	905.51
497.451	891.95
497.658	946.39
497.866	914.42
498.074	965.77
498.281	861.72
498.489	965.96
498.696	928.95
498.904	857.85
499.112	885.55
499.319	983.4
499.527	932.25
499.734	945.03
499.942	871.41
500.149	896.6
500.357	917.52
500.564	892.72
500.771	936.32
500.979	874.12
501.186	878.97
501.394	926.24
501.601	900.47
501.808	969.45
502.016	918.3
502.223	931.28
502.43	955.3
502.638	914.42
502.845	920.23
503.052	999.48
503.26	958.4
503.467	988.63
503.674	950.85
503.881	972.93
504.089	1054.11
504.296	970.61
504.503	935.54
504.71	964.22
504.917	946.78
505.125	972.74
505.332	998.9
505.539	983.98
505.746	1078.72
505.953	1047.53
506.16	1052.56
506.367	1114.76
506.574	1098.87
506.781	1065.16
506.988	1014.78
507.195	996.76
507.402	1038.03
507.609	1052.18
507.816	1005.48
508.023	1045.78
508.23	1032.22
508.437	998.9
508.644	1036.68
508.851	1084.73
509.058	1075.23
509.265	1059.93
509.472	1101.19
509.679	1162.61
509.885	1103.13
510.092	1083.18
510.299	1100.42
510.506	1088.41
510.713	1116.5
510.92	1074.65
511.126	1138.39
511.333	1179.08
511.54	1162.23
511.746	1199.62
511.953	1223.06
512.16	1214.73
512.367	1149.24
512.573	1136.65
512.78	1144.59
512.987	1139.36
513.193	1144.59
513.4	1063.61
513.606	1116.89
513.813	1171.14
514.02	1150.79
514.226	1209.31
514.433	1174.82
514.639	1082.59
514.846	1187.99
515.052	1106.04
515.259	1166.1
515.465	1187.61
515.672	1212.21
515.878	1277.5
516.085	1178.11
516.291	1271.5
516.497	1147.31
516.704	1157.38
516.91	1135.88
517.117	1109.53
517.323	1071.55
517.529	1102.74
517.736	1084.53
517.942	1100.23
518.148	1144.79
518.354	1152.34
518.561	1166.1
518.767	1147.31
518.973	1203.11
519.179	1200.59
519.386	1195.55
519.592	1187.99
519.798	1194.58
520.004	1287.39
520.21	1231.2
520.417	1281.38
520.623	1319.74
520.829	1342.41
521.035	1324.59
521.241	1311.22
521.447	1379.61
521.653	1449.55
521.859	1316.64
522.065	1357.33
522.271	1473.96
522.477	1398.21
522.683	1437.93
522.889	1406.35
523.095	1376.12
523.301	1402.67
523.507	1352.1
523.713	1377.28
523.919	1410.03
524.125	1469.51
524.331	1417
524.537	1513.3
524.742	1490.24
524.948	1514.46
525.154	1506.51
525.36	1585.76
525.566	1502.25
525.772	1569.48
525.977	1452.85
526.183	1523.18
526.389	1553.21
526.595	1479
526.8	1494.7
527.006	1409.25
527.212	1380.77
527.417	1357.33
527.623	1377.28
527.829	1446.65
528.034	1449.36
528.24	1484.62
528.446	1443.93
528.651	1531.51
528.857	1545.26
529.062	1607.65
529.268	1569.29
529.473	1614.24
529.679	1589.83
529.884	1627.02
530.09	1648.34
530.295	1609.97
530.501	1598.54
530.706	1621.41
530.912	1583.04
531.117	1614.62
531.323	1649.11
531.528	1674.3
531.733	1671.59
531.939	1629.74
532.144	1687.47
532.35	1652.79
532.555	1690.19
532.76	1666.74
532.966	1673.33
533.171	1627.22
533.376	1562.31
533.581	1613.46
533.787	1645.24
533.992	1626.06
534.197	1684.18
534.402	1632.64
534.607	1644.66
534.813	1744.24
535.018	1690.19
535.223	1700.65
535.428	1719.64
535.633	1745.6
535.838	1748.31
536.043	1741.34
536.249	1821.74
536.454	1731.45
536.659	1748.5
536.864	1704.14
537.069	1712.47
537.274	1766.91
537.479	1716.73
537.684	1749.86
537.889	1723.12
538.094	1819.22
538.299	1745.99
538.504	1773.11
538.708	1760.32
538.913	1799.85
539.118	1765.94
539.323	1760.9
539.528	1750.25
539.733	1716.54
539.938	1769.62
540.142	1784.93
540.347	1748.12
540.552	1715.95
540.757	1742.89
540.962	1718.86
541.166	1673.14
541.371	1698.71
541.576	1729.52
541.781	1634.77
541.985	1811.86
542.19	1771.17
542.395	1794.23
542.599	1843.63
542.804	1812.44
543.008	1808.57
543.213	1774.08
543.418	1768.27
543.622	1805.66
543.827	1747.92
544.031	1855.07
544.236	1852.16
544.44	1843.63
544.645	1916.48
544.849	1800.62
545.054	1861.07
545.258	1904.47
545.463	1877.35
545.667	1813.8
545.872	1844.99
546.076	1838.6
546.281	1845.38
546.485	1826.39
546.689	1857.97
546.894	1855.26
547.098	1894.98
547.302	1816.12
547.507	1853.9
547.711	1852.55
547.915	1903.5
548.119	1831.23
548.324	1804.88
548.528	1922.49
548.732	1838.02
548.936	1904.28
549.141	1904.86
549.345	1842.67
549.549	1846.54
549.753	1889.16
549.957	1931.01
550.161	1929.85
550.366	1871.92
550.57	1886.45
550.774	1865.33
550.978	1886.45
551.182	1917.84
551.386	1834.33
551.59	1858.94
551.794	1914.35
551.998	1916.87
552.202	1860.68
552.406	1833.56
552.61	1925.4
552.814	1869.4
553.018	1957.36
553.222	1845.57
553.426	1846.35
553.63	1962.98
553.833	1885.68
554.037	1827.17
554.241	1887.81
554.445	1877.93
554.649	1923.65
554.853	1867.66
555.056	1927.91
555.26	1942.45
555.464	1913
555.668	1905.44
555.871	1918.23
556.075	1951.94
556.279	1895.36
556.483	1848.09
556.686	1871.15
556.89	1876.57
557.094	1888
557.297	1820.77
557.501	1904.08
557.704	1797.33
557.908	1891.3
558.112	1803.33
558.315	1885.48
558.519	1825.03
558.722	1824.07
558.926	1807.4
559.129	1731.84
559.333	1744.63
559.536	1734.17
559.74	1754.9
559.943	1743.85
560.147	1756.25
560.35	1764.59
560.553	1748.7
560.757	1710.53
560.96	1845.38
561.164	1747.54
561.367	1846.73
561.57	1758.19
561.774	1779.12
561.977	1791.9
562.18	1751.6
562.384	1844.99
562.587	1760.52
562.79	1812.63
562.993	1762.45
563.197	1784.73
563.4	1847.51
563.603	1812.63
563.806	1850.8
564.009	1749.28
564.212	1816.12
564.416	1715.95
564.619	1788.03
564.822	1697.35
565.025	1782.41
565.228	1722.15
565.431	1747.54
565.634	1636.91
565.837	1699.49
566.04	1662.48
566.243	1670.42
566.446	1639.04
566.649	1680.31
566.852	1627.61
567.055	1633.03
567.258	1713.44
567.461	1755.87
567.664	1718.86
567.867	1619.08
568.07	1677.4
568.273	1673.52
568.475	1737.07
568.678	1648.53
568.881	1648.14
569.084	1639.62
569.287	1535.58
569.489	1566.96
569.692	1614.43
569.895	1642.52
570.098	1567.74
570.3	1544.49
570.503	1497.6
570.706	1515.04
570.909	1524.14
571.111	1464.08
571.314	1513.1
571.516	1530.54
571.719	1534.41
571.922	1454.01
572.124	1534.03
572.327	1495.28
572.529	1468.15
572.732	1481.13
572.935	1559.6
573.137	1613.46
573.34	1485.98
573.542	1554.18
573.745	1547.59
573.947	1514.65
574.15	1509.42
574.352	1482.3
574.554	1560.57
574.757	1506.51
574.959	1479.97
575.162	1462.92
575.364	1465.44
575.566	1550.69
575.769	1466.8
575.971	1464.66
576.173	1377.09
576.376	1464.28
576.578	1507.48
576.78	1514.84
576.982	1363.92
577.185	1458.08
577.387	1404.02
577.589	1429.98
577.791	1432.89
577.993	1460.98
578.196	1424.95
578.398	1467.96
578.6	1458.85
578.802	1358.49
579.004	1356.17
579.206	1384.84
579.408	1409.45
579.61	1399.37
579.812	1446.65
580.014	1375.93
580.216	1372.25
580.418	1431.15
580.62	1372.63
580.822	1350.74
581.024	1402.28
581.226	1448.78
581.428	1406.73
581.63	1505.35
581.832	1397.43
582.034	1468.93
582.236	1391.23
582.438	1459.82
582.64	1465.25
582.841	1503.03
583.043	1543.71
583.245	1474.35
583.447	1432.89
583.649	1431.53
583.85	1446.84
584.052	1463.89
584.254	1395.69
584.456	1503.41
584.657	1384.26
584.859	1428.05
585.061	1403.83
585.262	1380.97
585.464	1373.6
585.666	1393.37
585.867	1383.29
586.069	1462.92
586.27	1421.65
586.472	1408.48
586.674	1350.74
586.875	1389.3
587.077	1345.32
587.278	1394.92
587.48	1379.42
587.681	1466.21
587.883	1400.53
588.084	1315.48
588.285	1347.45
588.487	1332.34
588.688	1364.69
588.89	1308.31
589.091	1262.78
589.292	1222.09
589.494	1227.32
589.695	1196.52
589.896	1122.89
590.098	1119.99
590.299	1204.46
590.5	1127.54
590.702	1163
590.903	1209.11
591.104	1306.18
591.305	1280.99
591.507	1322.65
591.708	1265.69
591.909	1268.98
592.11	1318.77
592.311	1290.29
592.512	1238.17
592.714	1196.52
592.915	1250.96
593.116	1239.34
593.317	1283.12
593.518	1267.04
593.719	1260.26
593.92	1314.9
594.121	1292.42
594.322	1281.57
594.523	1274.21
594.724	1219.77
594.925	1217.64
595.126	1257.94
595.327	1305.21
595.528	1260.26
595.729	1265.49
595.929	1256
596.13	1251.54
596.331	1258.32
596.532	1270.72
596.733	1319.35
596.934	1276.73
597.135	1293.78
597.335	1282.54
597.536	1235.07
597.737	1271.69
597.938	1245.73
598.138	1254.45
598.339	1252.9
598.54	1260.84
598.74	1274.21
598.941	1268.4
599.142	1290.68
599.342	1277.31
599.543	1246.7
599.744	1286.8
599.944	1242.82
600.145	1266.65
600.345	1244.37
600.546	1359.27
600.746	1313.54
600.947	1357.91
601.147	1280.8
601.348	1321.29
601.548	1251.54
601.749	1284.29
601.949	1238.37
602.15	1227.32
602.35	1245.92
602.551	1258.71
602.751	1241.08
602.951	1243.21
603.152	1196.32
603.352	1309.09
603.552	1247.47
603.753	1319.16
603.953	1308.31
604.153	1296.69
604.354	1254.84
604.554	1251.93
604.754	1262.39
604.954	1221.71
605.155	1270.34
605.355	1235.85
605.555	1283.32
605.755	1312.19
605.955	1241.47
606.155	1302.5
606.356	1249.41
606.556	1278.67
606.756	1266.07
606.956	1200.78
607.156	1286.42
607.356	1209.5
607.556	1235.85
607.756	1268.2
607.956	1279.64
608.156	1239.72
608.356	1201.75
608.556	1258.32
608.756	1217.25
608.956	1210.47
609.156	1229.84
609.356	1214.73
609.556	1163.58
609.755	1221.32
609.955	1184.7
610.155	1201.36
610.355	1228.68
610.555	1166.68
610.755	1179.27
610.954	1168.81
611.154	1214.54
611.354	1204.66
611.554	1153.31
611.753	1176.56
611.953	1141.49
612.153	1199.81
612.352	1207.56
612.552	1151.76
612.752	1115.53
612.951	1176.17
613.151	1169.97
613.351	1139.94
613.55	1146.53
613.75	1178.69
613.949	1163.78
614.149	1180.82
614.348	1170.17
614.548	1108.94
614.747	1059.15
614.947	1103.13
615.146	1089.38
615.346	1190.71
615.545	1148.08
615.745	1150.02
615.944	1164.55
616.144	1119.6
616.343	1200.2
616.542	1134.33
616.742	1131.23
616.941	1110.49
617.14	1025.25
617.34	1117.66
617.539	1093.64
617.738	1055.28
617.938	1161.64
618.137	1117.08
618.336	1084.14
618.535	1117.47
618.734	1104.49
618.934	1100.42
619.133	1106.43
619.332	1132
619.531	1119.02
619.73	1079.49
619.929	1152.15
620.128	1131.03
620.328	1154.67
620.527	1057.02
620.726	1106.23
620.925	1107.2
621.124	1104.88
621.323	1117.86
621.522	1053.15
621.721	1078.14
621.92	1039.97
622.119	1098.48
622.318	1036.1
622.517	1080.27
622.715	1086.08
622.914	1009.94
623.113	1060.51
623.312	1052.18
623.511	1079.11
623.71	1071.94
623.909	1032.41
624.107	1103.13
624.306	1031.64
624.505	1041.71
624.704	1021.56
624.902	1016.72
625.101	1090.93
625.3	1021.76
625.499	1042.68
625.697	990.18
625.896	1023.7
626.095	1043.26
626.293	978.17
626.492	1007.23
626.69	1040.75
626.889	1026.99
627.088	1084.34
627.286	969.06
627.485	1014.2
627.683	971
627.882	1021.37
628.08	923.72
628.279	949.88
628.477	1009.55
628.676	940.19
628.874	1008.39
629.073	929.92
629.271	943.48
629.469	986.69
629.668	969.83
629.866	932.44
630.065	960.73
630.263	978.17
630.461	967.51
630.66	975.07
630.858	979.52
631.056	1021.76
631.254	1021.95
631.453	998.31
631.651	995.21
631.849	966.15
632.047	954.72
632.245	941.35
632.444	948.52
632.642	1011.68
632.84	991.92
633.038	973.71
633.236	967.32
633.434	944.26
633.632	948.91
633.83	936.32
634.028	991.73
634.227	987.66
634.425	1038.61
634.623	966.35
634.821	977.2
635.019	986.69
635.216	957.05
635.414	1001.8
635.612	977.78
635.81	975.65
636.008	1009.75
636.206	973.9
636.404	984.17
636.602	943.29
636.8	961.7
636.997	970.03
637.195	1013.23
637.393	977
637.591	1045.01
637.789	980.1
637.986	939.42
638.184	1009.55
638.382	1027.18
638.58	1028.15
638.777	1032.03
638.975	983.01
639.173	975.84
639.37	986.3
639.568	989.02
639.765	999.28
639.963	963.05
640.161	1015.36
640.358	988.43
640.556	932.83
640.753	934.77
640.951	924.88
641.148	942.32
641.346	930.31
641.543	943.1
641.741	983.78
641.938	903.18
642.136	926.05
642.333	884
642.531	973.32
642.728	974.87
642.925	925.47
643.123	905.32
643.32	915.78
643.517	967.32
643.715	947.94
643.912	913.26
644.109	945.03
644.306	909.58
644.504	877.8
644.701	910.74
644.898	933.99
645.095	896.79
645.293	909.58
645.49	929.53
645.687	927.6
645.884	944.84
646.081	863.85
646.278	885.17
646.475	884.39
646.672	891.17
646.87	917.72
647.067	892.92
647.264	909.19
647.461	853.59
647.658	814.45
647.855	901.83
648.052	834.79
648.249	799.34
648.446	868.31
648.642	840.22
648.839	849.71
649.036	810.19
649.233	792.17
649.43	817.74
649.627	761.56
649.824	823.36
650.021	774.15
650.217	826.65
650.414	790.42
650.611	818.71
650.808	849.9
651.004	841.57
651.201	857.27
651.398	880.52
651.595	818.32
651.791	806.7
651.988	835.37
652.185	790.62
652.381	835.37
652.578	762.72
652.775	820.65
652.971	813.48
653.168	782.87
653.364	859.59
653.561	768.14
653.757	801.66
653.954	829.56
654.15	775.31
654.347	862.11
654.543	817.74
654.74	751.48
654.936	773.18
655.133	817.74
655.329	826.65
655.525	779.19
655.722	808.44
655.918	737.53
656.115	775.31
656.311	686.96
656.507	667.2
656.704	652.28
656.9	704.01
657.096	706.73
657.292	688.13
657.489	744.89
657.685	726.1
657.881	741.02
658.077	747.02
658.273	747.41
658.47	805.92
658.666	729.39
658.862	765.62
659.058	742.76
659.254	803.99
659.45	741.02
659.646	759.23
659.842	759.81
660.038	798.76
660.234	774.73
660.43	797.59
660.626	847
660.822	779.19
661.018	814.45
661.214	740.63
661.41	740.24
661.606	787.32
661.802	822.59
661.998	793.33
662.194	773.37
662.39	786.94
662.586	762.33
662.781	803.21
662.977	787.71
663.173	792.94
663.369	799.53
663.564	779.96
663.76	816
663.956	755.16
664.152	797.98
664.347	704.21
664.543	760.39
664.739	731.91
664.934	705.56
665.13	691.61
665.326	780.74
665.521	770.66
665.717	737.72
665.912	700.33
666.108	674.18
666.304	732.11
666.499	734.04
666.695	662.74
666.89	751.09
667.086	791.01
667.281	756.91
667.477	782.48
667.672	724.94
667.867	760.39
668.063	755.16
668.258	690.84
668.454	709.83
668.649	820.65
668.844	734.24
669.04	720.29
669.235	707.89
669.43	709.05
669.626	680.96
669.821	694.52
670.016	691.42
670.211	705.18
670.407	689.09
670.602	706.73
670.797	678.63
670.992	795.07
671.187	688.32
671.382	729.01
671.578	697.62
671.773	736.76
671.968	652.48
672.163	717.38
672.358	727.26
672.553	689.87
672.748	718.74
672.943	768.14
673.138	694.13
673.333	726.29
673.528	667.39
673.723	737.53
673.918	671.85
674.113	666.04
674.308	747.02
674.503	707.5
674.698	707.69
674.892	705.56
675.087	709.83
675.282	716.8
675.477	674.95
675.672	685.99
675.867	656.35
676.061	678.63
676.256	606.75
676.451	684.44
676.646	699.75
676.84	648.99
677.035	621.09
677.23	639.3
677.424	694.13
677.619	727.65
677.814	743.34
678.008	701.11
678.203	631.55
678.397	632.71
678.592	678.44
678.787	750.32
678.981	653.25
679.176	701.49
679.37	687.16
679.565	662.55
679.759	665.07
679.954	700.14
680.148	732.88
680.342	723.39
680.537	677.66
680.731	673.79
680.926	701.69
681.12	708.08
681.314	632.33
681.509	668.94
681.703	671.08
681.897	710.02
682.092	661.39
682.286	654.22
682.48	720.87
682.674	704.01
682.869	660.61
683.063	688.51
683.257	759.62
683.451	636.2
683.645	682.51
683.839	660.81
684.034	666.23
684.228	717.96
684.422	622.64
684.616	626.13
684.81	685.99
685.004	659.84
685.198	657.71
685.392	692
685.586	663.13
685.78	669.14
685.974	710.6
686.168	692
686.362	726.49
686.556	649.38
686.75	607.33
686.944	606.17
687.138	632.33
687.331	533.13
687.525	524.6
687.719	474.81
687.913	551.73
688.107	557.35
688.301	524.6
688.494	564.51
688.688	525.77
688.882	518.4
689.076	500.19
689.269	538.36
689.463	598.23
689.657	537.78
689.85	568.78
690.044	575.36
690.238	591.83
690.431	564.9
690.625	570.91
690.818	618.57
691.012	615.28
691.205	663.71
691.399	605.01
691.593	638.53
691.786	714.86
691.98	707.89
692.173	712.73
692.366	682.7
692.56	709.83
692.753	737.92
692.947	683.86
693.14	761.94
693.333	743.73
693.527	695.1
693.72	729.01
693.914	696.84
694.107	716.41
694.3	766.21
694.493	725.71
694.687	786.74
694.88	681.54
695.073	778.61
695.266	766.21
695.46	729.97
695.653	816.19
695.846	817.74
696.039	734.82
696.232	785
696.425	845.84
696.618	865.02
696.812	853.78
697.005	925.85
697.198	958.02
697.391	903.96
697.584	934.77
697.777	973.13
697.97	935.15
698.163	940.97
698.356	953.75
698.549	1037.06
698.742	1015.17
698.935	971
699.127	983.78
699.32	955.88
699.513	950.27
699.706	988.24
699.899	1021.18
700.092	994.44
700.285	1047.33
700.477	971
700.67	1042.3
700.863	1067.29
701.056	1152.73
701.248	1127.16
701.441	1082.79
701.634	1058.96
701.826	1194.39
702.019	1083.18
702.212	1144.21
702.404	1118.05
702.597	1099.84
702.79	1138.2
702.982	1161.64
703.175	1198.84
703.367	1213.57
703.56	1231.59
703.752	1303.08
703.945	1251.93
704.137	1263.94
704.33	1273.82
704.522	1322.45
704.715	1330.59
704.907	1352.68
705.1	1375.54
705.292	1365.27
705.484	1358.3
705.677	1411
705.869	1403.25
706.061	1430.18
706.254	1471.83
706.446	1449.36
706.638	1446.65
706.831	1514.84
707.023	1441.03
707.215	1546.04
707.407	1518.53
707.599	1527.05
707.792	1575.88
707.984	1583.43
708.176	1594.67
708.368	1558.83
708.56	1647.95
708.752	1598.54
708.944	1593.51
709.136	1659.19
709.329	1633.03
709.521	1720.8
709.713	1706.46
709.905	1691.74
710.097	1748.5
710.289	1702.97
710.481	1728.35
710.672	1777.95
710.864	1750.64
711.056	1842.67
711.248	1827.36
711.44	1804.11
711.632	1773.89
711.824	1850.03
712.016	1878.7
712.207	1869.98
712.399	1855.26
712.591	1978.68
712.783	1892.07
712.975	1942.64
713.166	1876.57
713.358	1907.38
713.55	1983.71
713.741	1978.87
713.933	1988.36
714.125	1985.84
714.316	1921.91
714.508	2054.24
714.7	2044.36
714.891	1991.46
715.083	2058.5
715.274	2001.54
715.466	2008.71
715.657	2077.49
715.849	1970.34
716.04	2009.87
716.232	1978.87
716.423	2043.77
716.615	1954.46
716.806	1922.1
716.998	1881.03
717.189	1808.76
717.381	1759.16
717.572	1716.15
717.763	1720.99
717.955	1723.7
718.146	1698.52
718.337	1616.17
718.528	1602.81
718.72	1580.33
718.911	1636.52
719.102	1572.78
719.293	1638.84
719.485	1591.38
719.676	1592.54
719.867	1529.57
720.058	1541
720.249	1550.49
720.44	1617.34
720.632	1625.09
720.823	1670.62
721.014	1784.73
721.205	1833.37
721.396	1870.18
721.587	1970.73
721.778	1993.98
721.969	2033.12
722.16	2079.62
722.351	2038.54
722.542	2204
722.733	2225.51
722.924	2108.87
723.115	2166.8
723.305	2130.38
723.496	2109.65
723.687	1998.24
723.878	2020.14
724.069	2038.35
724.26	2037.19
724.45	1966.47
724.641	1975.77
724.832	2008.9
725.023	2005.8
725.213	1994.95
725.404	1966.47
725.595	1964.73
725.785	1962.4
725.976	2014.91
726.167	2009.48
726.357	2054.24
726.548	2134.84
726.739	2014.71
726.929	2112.94
727.12	2130.38
727.31	2131.35
727.501	2054.43
727.691	2091.05
727.882	2099.96
728.072	2118.76
728.263	2153.05
728.453	2167.58
728.644	2173.39
728.834	2166.42
729.024	2155.76
729.215	2101.71
729.405	2191.99
729.596	2220.28
729.786	2248.37
729.976	2229.38
730.167	2249.15
730.357	2232.68
730.547	2229.77
730.737	2281.5
730.928	2325.29
731.118	2375.66
731.308	2300.49
731.498	2285.57
731.688	2402.98
731.879	2390.78
732.069	2446.77
732.259	2451.03
732.449	2487.84
732.639	2558.56
732.829	2557.21
733.019	2597.31
733.209	2657.37
733.399	2699.03
733.589	2714.53
733.779	2698.83
733.969	2679.85
734.159	2773.23
734.349	2826.71
734.539	2836.39
734.729	2834.65
734.919	2910.79
735.109	2929.97
735.299	2867.39
735.488	2902.85
735.678	2851.51
735.868	2863.13
736.058	2859.84
736.248	2873.4
736.437	2811.4
736.627	2787.96
736.817	2934.04
737.007	2848.6
737.196	2903.43
737.386	2914.09
737.576	2875.34
737.765	2956.91
737.955	2915.64
738.144	3053.78
738.334	2971.24
738.524	2940.44
738.713	2961.75
738.903	2978.99
739.092	2992.36
739.282	2987.13
739.471	2976.67
739.661	2975.51
739.85	3024.72
740.04	2977.64
740.229	3059.4
740.419	3093.69
740.608	3051.84
740.797	3052.62
740.987	3121.2
741.176	3113.26
741.365	3079.55
741.555	2991.01
741.744	3127.21
741.933	3055.14
742.123	3113.26
742.312	3159.95
742.501	3138.45
742.69	3160.15
742.88	3051.07
743.069	3219.05
743.258	3171.77
743.447	3214.59
743.636	3223.7
743.825	3168.87
744.014	3153.56
744.204	3209.55
744.393	3121.59
744.582	3194.25
744.771	3245.98
744.96	3201.03
745.149	3247.33
745.338	3178.16
745.527	3234.74
745.716	3212.07
745.905	3167.12
746.094	3241.52
746.283	3263.8
746.471	3226.99
746.66	3244.23
746.849	3307.78
747.038	3300.42
747.227	3231.45
747.416	3227.57
747.604	3180.3
747.793	3193.08
747.982	3246.36
748.171	3235.9
748.359	3284.34
748.548	3254.31
748.737	3214.78
748.926	3231.83
749.114	3141.93
749.303	3228.73
749.491	3184.95
749.68	3137.28
749.869	3238.81
750.057	3199.86
750.246	3180.88
750.434	3171.19
750.623	3199.09
750.811	3184.95
751	3191.34
751.188	3149.49
751.377	3210.52
751.565	3138.83
751.754	3112.87
751.942	3134.96
752.131	3161.5
752.319	3085.94
752.507	3125.08
752.696	3149.88
752.884	3203.35
753.072	3109.58
753.261	3124.11
753.449	3173.71
753.637	3110.16
753.825	3170.61
754.014	3112.48
754.202	3129.73
754.39	3180.88
754.578	3151.04
754.766	3110.93
754.955	3070.05
755.143	3184.56
755.331	3120.23
755.519	3117.52
755.707	3119.27
755.895	3056.88
756.083	3083.81
756.271	3071.22
756.459	3063.08
756.647	3097.95
756.835	3059.01
757.023	3015.22
757.211	3045.06
757.399	3012.32
757.587	3031.69
757.775	2969.69
757.963	2993.14
758.151	2995.46
758.339	2949.16
758.526	2952.26
758.714	3000.69
758.902	2875.53
759.09	2792.03
759.278	2646.52
759.465	2453.74
759.653	2109.84
759.841	1917.65
760.028	1646.01
760.216	1402.47
760.404	1323.04
760.591	1093.64
760.779	898.15
760.967	801.27
761.154	677.28
761.342	714.86
761.529	717.96
761.717	780.35
761.905	745.09
762.092	848.55
762.28	772.99
762.467	796.43
762.655	671.46
762.842	723
763.029	744.12
763.217	764.85
763.404	743.73
763.592	797.4
763.779	727.65
763.966	787.52
764.154	846.22
764.341	872.57
764.528	899.7
764.716	972.55
764.903	1013.23
765.09	1062.83
765.277	1084.53
765.465	1243.6
765.652	1300.95
765.839	1356.36
766.026	1464.86
766.213	1495.86
766.4	1607.46
766.588	1773.11
766.775	1741.14
766.962	1899.63
767.149	1892.65
767.336	2049.59
767.523	1992.04
767.71	2161.77
767.897	2276.66
768.084	2312.7
768.271	2332.07
768.458	2394.84
768.645	2458.98
768.832	2412.67
769.019	2482.03
769.206	2466.14
769.392	2529.69
769.579	2629.86
769.766	2600.8
769.953	2594.99
770.14	2613
770.327	2619.2
770.513	2659.5
770.7	2765.1
770.887	2678.49
771.073	2702.13
771.26	2704.65
771.447	2655.63
771.634	2633.74
771.82	2746.5
772.007	2644.78
772.193	2721.31
772.38	2705.42
772.567	2691.67
772.753	2705.42
772.94	2731.58
773.126	2712.2
773.313	2715.88
773.499	2695.93
773.686	2716.27
773.872	2667.83
774.059	2686.43
774.245	2664.73
774.432	2647.3
774.618	2589.56
774.804	2660.86
774.991	2596.73
775.177	2671.13
775.363	2647.1
775.55	2681.98
775.736	2613.2
775.922	2614.17
776.109	2613.78
776.295	2641.29
776.481	2647.88
776.667	2689.73
776.853	2618.82
777.04	2613.2
777.226	2595.18
777.412	2669.58
777.598	2543.26
777.784	2570.96
777.97	2595.57
778.156	2639.55
778.342	2569.99
778.528	2599.44
778.715	2492.11
778.901	2555.66
779.087	2592.66
779.272	2523.69
779.458	2523.69
779.644	2547.52
779.83	2501.21
780.016	2645.17
780.202	2536.28
780.388	2511.29
780.574	2440.18
780.76	2508.38
780.946	2529.31
781.131	2519.42
781.317	2501.41
781.503	2499.08
781.689	2496.95
781.874	2569.8
782.06	2493.27
782.246	2491.52
782.432	2470.99
782.617	2476.61
782.803	2544.22
782.989	2405.69
783.174	2419.06
783.36	2403.56
783.545	2459.36
783.731	2437.66
783.916	2375.47
784.102	2451.61
784.288	2385.16
784.473	2432.43
784.659	2396.01
784.844	2412.67
785.029	2375.66
785.215	2379.54
785.4	2337.11
785.586	2429.72
785.771	2335.17
785.956	2368.69
786.142	2339.82
786.327	2331.3
786.512	2308.43
786.698	2339.82
786.883	2277.05
787.068	2318.31
787.254	2309.4
787.439	2261.55
787.624	2322.58
787.809	2243.33
787.994	2276.08
788.18	2286.35
788.365	2200.52
788.55	2253.41
788.735	2259.03
788.92	2255.73
789.105	2242.37
789.29	2243.53
789.475	2177.85
789.66	2201.29
789.845	2186.95
790.03	2176.88
790.215	2197.61
790.4	2201.49
790.585	2240.43
790.77	2177.07
790.955	2131.35
791.14	2152.08
791.325	2276.47
791.51	2091.05
791.695	2182.89
791.879	2148.2
792.064	2102.48
792.249	2184.24
792.434	2136.97
792.618	2155.57
792.803	2185.4
792.988	2138.13
793.173	2186.95
793.357	2179.4
793.542	2113.52
793.727	2149.95
793.911	2188.31
794.096	2162.54
794.281	2185.02
794.465	2251.28
794.65	2136.77
794.834	2228.61
795.019	2230.55
795.203	2177.85
795.388	2221.44
795.572	2253.02
795.757	2140.84
795.941	2245.27
796.126	2190.05
796.31	2159.44
796.494	2187.15
796.679	2145.3
796.863	2128.25
797.048	2182.11
797.232	2232.87
797.416	2211.75
797.601	2179.2
797.785	2272.98
797.969	2223.96
798.153	2146.27
798.338	2178.43
798.522	2253.6
798.706	2211.37
798.89	2243.53
799.074	2304.75
799.258	2326.65
799.443	2243.53
799.627	2246.05
799.811	2250.89
799.995	2209.04
800.179	2196.25
800.363	2206.14
800.547	2218.53
800.731	2252.05
800.915	2171.45
801.099	2191.02
801.283	2193.74
801.467	2205.94
801.651	2214.85
801.835	2243.92
802.019	2223.77
802.202	2198.39
802.386	2149.17
802.57	2138.9
802.754	2197.22
802.938	2136.77
803.121	2170.1
803.305	2237.72
803.489	2194.51
803.673	2228.03
803.856	2213.69
804.04	2189.09
804.224	2194.7
804.407	2182.3
804.591	2171.07
804.775	2168.55
804.958	2205.17
805.142	2261.16
805.326	2177.27
805.509	2168.16
805.693	2255.54
805.876	2223.38
806.06	2171.65
806.243	2232.29
806.427	2259.42
806.61	2284.02
806.794	2223.18
806.977	2275.5
807.16	2207.1
807.344	2222.6
807.527	2186.76
807.71	2205.17
807.894	2229
808.077	2246.82
808.26	2180.17
808.444	2198.39
808.627	2270.27
808.81	2179.98
808.993	2104.22
809.177	2100.16
809.36	2149.37
809.543	2178.43
809.726	2050.17
809.909	2097.25
810.092	2056.17
810.276	2042.61
810.459	2093.37
810.642	2063.15
810.825	2018.01
811.008	2059.47
811.191	1957.56
811.374	1966.08
811.557	1982.16
811.74	2090.66
811.923	1917.65
812.106	1929.08
812.289	1950.2
812.472	1910.09
812.654	1930.82
812.837	1902.92
813.02	1841.89
813.203	1807.4
813.386	1731.45
813.569	1699.87
813.751	1671.01
813.934	1704.52
814.117	1676.24
814.3	1642.14
814.482	1618.31
814.665	1598.16
814.848	1559.21
815.03	1484.04
815.213	1521.63
815.396	1505.93
815.578	1489.85
815.761	1457.3
815.943	1535.77
816.126	1413.71
816.309	1397.24
816.491	1339.5
816.674	1285.64
816.856	1371.08
817.039	1316.45
817.221	1422.82
817.403	1386.39
817.586	1361.2
817.768	1411.38
817.951	1328.65
818.133	1302.11
818.315	1385.62
818.498	1359.65
818.68	1391.43
818.862	1380.38
819.045	1433.28
819.227	1415.84
819.409	1369.73
819.591	1407.9
819.774	1398.21
819.956	1372.25
820.138	1448.39
820.32	1435.02
820.502	1472.03
820.684	1532.48
820.866	1532.09
821.048	1614.24
821.231	1572.19
821.413	1566.96
821.595	1561.93
821.777	1563.48
821.959	1541.19
822.141	1631.29
822.323	1492.56
822.505	1419.52
822.686	1363.14
822.868	1329.04
823.05	1244.76
823.232	1202.91
823.414	1171.72
823.596	1215.12
823.778	1228.29
823.96	1248.44
824.141	1237.59
824.323	1282.35
824.505	1343.38
824.687	1366.82
824.868	1430.56
825.05	1493.92
825.232	1528.99
825.413	1544.68
825.595	1539.26
825.777	1465.05
825.958	1512.71
826.14	1517.56
826.321	1524.53
826.503	1490.43
826.685	1543.13
826.866	1543.91
827.048	1576.84
827.229	1479.39
827.411	1453.62
827.592	1411.97
827.773	1432.5
827.955	1375.73
828.136	1391.23
828.318	1359.27
828.499	1392.78
828.68	1339.5
828.862	1375.93
829.043	1418.17
829.224	1367.4
829.406	1329.43
829.587	1352.1
829.768	1327.3
829.949	1357.33
830.131	1388.52
830.312	1433.28
830.493	1351.13
830.674	1372.63
830.855	1360.62
831.036	1374.18
831.218	1430.18
831.399	1457.88
831.58	1347.25
831.761	1388.13
831.942	1393.56
832.123	1394.92
832.304	1333.89
832.485	1342.8
832.666	1383.68
832.847	1377.67
833.028	1377.48
833.209	1409.45
833.389	1343.96
833.57	1329.04
833.751	1325.55
833.932	1392.78
834.113	1347.45
834.294	1359.65
834.475	1380.77
834.655	1420.68
834.836	1465.44
835.017	1401.89
835.198	1340.67
835.378	1387.75
835.559	1406.15
835.74	1372.44
835.92	1376.9
836.101	1366.82
836.281	1422.23
836.462	1411.77
836.643	1431.92
836.823	1469.9
837.004	1439.09
837.184	1462.73
837.365	1449.36
837.545	1470.28
837.726	1397.63
837.906	1473
838.087	1429.01
838.267	1387.75
838.448	1419.91
838.628	1436.96
838.808	1405.57
838.989	1487.14
839.169	1365.08
839.349	1439.86
839.53	1440.06
839.71	1445.1
839.89	1386.2
840.07	1489.46
840.251	1398.4
840.431	1448.2
840.611	1446.65
840.791	1398.21
840.971	1421.65
841.151	1391.43
841.332	1374.57
841.512	1458.46
841.692	1355.97
841.872	1430.37
842.052	1434.83
842.232	1439.86
842.412	1365.27
842.592	1433.28
842.772	1429.21
842.952	1390.27
843.132	1377.09
843.312	1395.3
843.492	1356.94
843.672	1424.75
843.851	1357.72
844.031	1398.02
844.211	1399.57
844.391	1353.65
844.571	1396.08
844.751	1384.07
844.93	1401.5
845.11	1378.25
845.29	1390.46
845.47	1413.32
845.649	1359.27
845.829	1415.26
846.009	1338.92
846.188	1392.98
846.368	1407.9
846.547	1367.98
846.727	1407.32
846.907	1360.04
847.086	1364.11
847.266	1411.97
847.445	1357.91
847.625	1340.08
847.804	1354.03
847.984	1355.2
848.163	1310.25
848.343	1331.75
848.522	1339.7
848.701	1364.11
848.881	1332.92
849.06	1309.86
849.239	1298.43
849.419	1338.73
849.598	1266.85
849.777	1253.29
849.957	1259.49
850.136	1197.87
850.315	1222.29
850.494	1176.56
850.674	1233.91
850.853	1279.44
851.032	1222.67
851.211	1302.11
851.39	1260.07
851.569	1197.1
851.748	1197.68
851.927	1254.45
852.107	1244.37
852.286	1208.14
852.465	1196.71
852.644	1265.69
852.823	1267.24
853.002	1220.35
853.181	1275.57
853.359	1246.7
853.538	1171.91
853.717	1261.23
853.896	1167.84
854.075	1110.69
854.254	1076.59
854.433	1005.29
854.611	1114.56
854.79	1044.23
854.969	1085.5
855.148	1115.73
855.327	1093.64
855.505	1121.93
855.684	1101.58
855.863	1150.79
856.041	1107.98
856.22	1153.31
856.399	1109.91
856.577	1246.7
856.756	1170.94
856.934	1311.41
857.113	1273.24
857.291	1193.61
857.47	1191.29
857.648	1195.55
857.827	1201.94
858.005	1206.01
858.184	1171.33
858.362	1258.9
858.541	1192.45
858.719	1166.29
858.898	1181.21
859.076	1187.41
859.254	1244.57
859.433	1186.64
859.611	1141.88
859.789	1128.32
859.967	1218.02
860.146	1239.92
860.324	1132.97
860.502	1140.14
860.68	1086.47
860.859	1127.35
861.037	1147.31
861.215	1155.06
861.393	1155.64
861.571	1176.37
861.749	1124.06
861.927	1185.47
862.105	1157.77
862.283	1146.73
862.461	1087.83
862.639	1120.76
862.817	1104.68
862.995	1138.2
863.173	1092.09
863.351	1115.73
863.529	1141.49
863.707	1164.55
863.885	1114.95
864.063	1065.74
864.241	1073.88
864.418	1140.53
864.596	1083.56
864.774	1022.15
864.952	1084.14
865.129	1102.55
865.307	1061.48
865.485	1005.68
865.663	1118.05
865.84	997.15
866.018	1037.45
866.196	898.92
866.373	975.45
866.551	955.5
866.728	881.87
866.906	944.45
867.084	980.88
867.261	1003.93
867.439	1012.85
867.616	1030.86
867.794	992.89
867.971	1013.62
868.149	1021.18
868.326	1058.38
868.503	1050.63
868.681	1026.02
868.858	1020.21
869.035	973.9
869.213	1055.47
869.39	1010.13
869.567	1081.63
869.745	996.76
869.922	1029.31
870.099	1027.57
870.276	1030.09
870.454	1052.37
870.631	1017.69
870.808	982.43
870.985	1040.75
871.162	1072.71
871.339	1016.33
871.517	958.02
871.694	985.72
871.871	1016.14
872.048	988.24
872.225	946
872.402	993.08
872.579	950.07
872.756	1001.22
872.933	977
873.11	989.02
873.287	977
873.463	952.59
873.64	940
873.817	1009.36
873.994	1001.61
874.171	961.5
874.348	968.67
874.524	932.25
874.701	952.98
874.878	886.72
875.055	956.47
875.231	975.26
875.408	1002.38
875.585	896.6
875.762	955.5
875.938	927.79
876.115	928.76
876.291	927.6
876.468	940.77
876.645	895.82
876.821	909.77
876.998	906.28
877.174	941.93
877.351	946.39
877.527	921.01
877.704	903.96
877.88	931.08
878.057	909.77
878.233	918.88
878.409	916.94
878.586	922.37
878.762	922.56
878.938	885.36
879.115	842.35
879.291	890.79
879.467	834.6
879.644	883.62
879.82	886.52
879.996	873.15
880.172	814.26
880.349	890.01
880.525	900.28
880.701	826.65
880.877	832.47
881.053	901.05
881.229	843.51
881.405	906.87
881.581	825.49
881.757	853.2
881.933	834.4
882.109	874.12
882.285	871.8
882.461	808.64
882.637	859.4
882.813	829.17
882.989	840.02
883.165	904.15
883.341	811.93
883.517	883.04
883.693	837.5
883.869	902.8
884.044	880.9
884.22	884.78
884.396	896.79
884.572	858.04
884.747	905.12
884.923	872.38
885.099	868.7
885.275	897.95
885.45	865.02
885.626	856.49
885.801	818.52
885.977	857.85
886.153	788.68
886.328	837.31
886.504	822.39
886.679	867.34
886.855	822.78
887.03	883.42
887.206	891.56
887.381	866.95
887.557	865.02
887.732	891.56
887.908	876.06
888.083	896.79
888.258	831.5
888.434	825.1
888.609	822.2
888.784	868.12
888.96	821.81
889.135	818.32
889.31	860.75
889.485	831.5
889.661	852.23
889.836	875.29
890.011	871.99
890.186	819.1
890.361	818.71
890.537	844.48
890.712	834.21
890.887	886.91
891.062	855.14
891.237	895.63
891.412	837.7
891.587	826.65
891.762	872.19
891.937	865.79
892.112	824.33
892.287	831.5
892.462	798.95
892.637	756.32
892.812	792.75
892.987	793.33
893.161	780.16
893.336	768.14
893.511	779.96
893.686	795.07
893.861	772.21
894.035	765.62
894.21	785.19
894.385	717.77
894.56	765.43
894.734	699.17
894.909	730.36
895.084	717.58
895.258	685.99
895.433	714.48
895.608	687.74
895.782	647.05
895.957	644.92
896.131	666.62
896.306	603.26
896.48	608.3
896.655	574.4
896.829	545.92
897.004	563.74
897.178	583.89
897.353	574.2
897.527	597.84
897.701	548.24
897.876	520.53
898.05	618.38
898.224	574.2
898.399	616.83
898.573	603.85
898.747	492.05
898.921	538.55
899.096	425.6
899.27	477.13
899.444	465.12
899.618	492.44
899.792	518.79
899.967	489.73
900.141	530.22
900.315	478.1
900.489	478.3
900.663	520.53
900.837	506.58
901.011	423.08
901.185	576.72
901.359	499.22
901.533	495.73
901.707	511.04
901.881	513.95
902.055	431.02
902.229	475.78
902.403	555.21
902.576	498.45
902.75	522.86
902.924	602.3
903.098	540.49
903.272	592.41
903.446	623.03
903.619	603.65
903.793	615.66
903.967	602.88
904.14	654.99
904.314	662.55
904.488	619.35
904.661	661
904.835	648.21
905.009	648.02
905.182	685.22
905.356	648.6
905.529	634.26
905.703	609.27
905.876	598.42
906.05	564.32
906.223	550.18
906.397	528.28
906.57	469.97
906.744	491.28
906.917	491.67
907.09	506.78
907.264	489.34
907.437	461.25
907.61	436.45
907.784	472.48
907.957	458.73
908.13	439.55
908.304	459.5
908.477	422.69
908.65	443.81
908.823	406.22
908.996	503.68
909.17	462.02
909.343	413.78
909.516	471.32
909.689	441.29
909.862	420.75
910.035	434.32
910.208	425.99
910.381	411.84
910.554	515.88
910.727	423.47
910.9	439.16
911.073	421.72
911.246	505.23
911.419	482.75
911.592	450.59
911.765	413.78
911.938	413.59
912.11	433.54
912.283	420.95
912.456	479.85
912.629	445.55
912.802	395.76
912.974	394.21
913.147	359.53
913.32	307.22
913.493	348.68
913.665	362.82
913.838	380.84
914.01	375.03
914.183	385.3
914.356	402.93
914.528	411.45
914.701	439.74
914.873	426.76
915.046	374.84
915.218	354.49
915.391	290.17
915.563	324.85
915.736	354.49
915.908	387.24
916.081	391.69
916.253	349.65
916.425	383.36
916.598	386.46
916.77	394.21
916.942	328.34
917.115	270.02
917.287	367.67
917.459	337.06
917.632	334.15
917.804	293.07
917.976	376.39
918.148	370.57
918.32	368.25
918.493	375.42
918.665	408.74
918.837	402.54
919.009	438.77
919.181	428.12
919.353	399.25
919.525	418.24
919.697	400.22
919.869	402.15
920.041	436.64
920.213	513.56
920.385	422.3
920.557	389.95
920.729	422.89
920.901	391.3
921.073	398.28
921.244	368.83
921.416	419.98
921.588	381.62
921.76	388.98
921.932	484.88
922.103	388.79
922.275	393.63
922.447	388.59
922.619	318.07
922.79	366.89
922.962	363.99
923.134	417.27
923.305	348.87
923.477	362.05
923.648	329.69
923.82	368.06
923.991	321.17
924.163	315.94
924.335	351.01
924.506	328.34
924.677	393.05
924.849	304.51
925.02	355.66
925.192	361.27
925.363	335.31
925.535	361.27
925.706	322.72
925.877	384.72
926.049	337.64
926.22	337.83
926.391	330.08
926.562	350.04
926.734	320.01
926.905	408.55
927.076	306.44
927.247	319.42
927.419	257.43
927.59	266.14
927.761	284.36
927.932	264.98
928.103	308.19
928.274	235.53
928.445	239.99
928.616	234.56
928.787	235.14
928.958	291.91
929.129	232.43
929.3	266.53
929.471	196.01
929.642	147.57
929.813	128.39
929.984	207.44
930.155	136.91
930.326	172.56
930.496	155.9
930.667	110.76
930.838	142.53
931.009	105.33
931.18	147.38
931.35	139.63
931.521	131.3
931.692	109.98
931.863	66.97
932.033	111.73
932.204	110.76
932.374	110.18
932.545	42.75
932.716	133.43
932.886	115.41
933.057	43.14
933.227	56.51
933.398	136.53
933.568	31.71
933.739	46.43
933.909	27.84
934.08	58.25
934.25	-2.58
934.421	16.99
934.591	50.7
934.761	10.4
934.932	0.71
935.102	21.64
935.272	10.98
935.443	33.65
935.613	11.56
935.783	60.77
935.953	7.1
936.123	169.27
936.294	9.82
936.464	23.96
936.634	35.2
936.804	-1.42
936.974	3.81
937.144	55.73
937.314	45.27
937.484	19.89
937.655	-0.45
937.825	54.57
937.995	9.62
938.165	74.53
938.334	50.31
938.504	80.53
938.674	15.63
938.844	40.04
939.014	91
939.184	83.83
939.354	121.03
939.524	131.68
939.694	61.55
939.863	68.33
940.033	123.55
940.203	131.68
940.373	97.78
940.542	100.88
940.712	66
940.882	112.12
941.051	113.86
941.221	111.92
941.391	122.19
941.56	73.37
941.73	54.57
941.899	161.91
942.069	75.3
942.238	87.32
942.408	69.1
942.577	74.33
942.747	86.93
942.916	31.9
943.086	67.17
943.255	113.28
943.425	83.25
943.594	50.12
943.763	-15.37
943.933	21.83
944.102	-5.68
944.271	39.85
944.441	60.38
944.61	37.33
944.779	63.87
944.948	130.52
945.117	11.37
945.287	33.26
945.456	-8.4
945.625	31.32
945.794	57.09
945.963	18.54
946.132	70.85
946.301	41.01
946.47	45.85
946.639	-1.81
946.808	42.95
946.977	78.02
947.146	101.07
947.315	48.18
947.484	114.83
947.653	18.92
947.822	16.02
947.991	22.8
948.16	123.93
948.329	95.45
948.498	55.15
948.666	43.92
948.835	90.03
949.004	15.24
949.173	14.66
949.341	68.13
949.51	64.65
949.679	97.2
949.847	99.33
950.016	138.27
950.185	89.06
950.353	49.53
950.522	36.55
950.69	78.79
950.859	32.1
951.028	98.75
951.196	69.88
951.365	7.1
951.533	65.62
951.701	93.71
951.87	75.3
952.038	-10.72
952.207	84.02
952.375	132.85
952.543	22.22
952.712	46.24
952.88	18.15
953.048	92.55
953.217	61.16
953.385	53.99
953.553	71.62
953.721	9.43
953.89	39.27
954.058	13.89
954.226	15.05
954.394	57.67
954.562	-1.42
954.73	62.71
954.898	31.9
955.067	57.28
955.235	41.78
955.403	95.65
955.571	107.47
955.739	75.3
955.907	40.43
956.075	12.34
956.243	41.2
956.41	84.41
956.578	16.4
956.746	-2.39
956.914	30.16
957.082	68.13
957.25	79.57
957.418	21.25
957.585	47.79
957.753	121.41
957.921	4.59
958.089	53.8
958.256	89.83
958.424	74.92
958.592	74.72
958.759	30.55
958.927	76.85
959.095	33.26
959.262	46.82
959.43	80.53
959.597	28.22
959.765	25.12
959.932	20.67
960.1	73.56
960.267	68.13
960.435	52.25
960.602	81.5
960.77	54.18
960.937	33.26
961.104	69.49
961.272	10.01
961.439	72.59
961.606	59.42
961.774	101.46
961.941	41.01
962.108	72.4
962.275	51.67
962.443	95.45
962.61	69.88
962.777	121.41
962.944	97.78
963.111	82.47
963.278	74.14
963.446	82.28
963.613	56.51
963.78	74.53
963.947	75.69
964.114	78.6
964.281	161.13
964.448	83.83
964.615	47.4
964.782	58.25
964.949	99.33
965.116	86.73
965.282	116.76
965.449	66
965.616	33.26
965.783	97.2
965.95	77.05
966.117	22.8
966.283	46.05
966.45	64.07
966.617	80.73
966.784	116.96
966.95	100.88
967.117	124.9
967.284	49.73
967.45	52.05
967.617	133.04
967.784	100.49
967.95	121.22
968.117	84.99
968.283	112.31
968.45	178.57
968.616	109.79
968.783	117.73
968.949	112.5
969.116	141.95
969.282	95.84
969.449	92.55
969.615	91.77
969.781	45.08
969.948	54.38
970.114	26.67
970.28	122.77
970.447	69.88
970.613	135.75
970.779	70.27
970.945	109.98
971.112	92.74
971.278	75.3
971.444	78.79
971.61	133.62
971.776	77.63
971.942	107.27
972.108	122.19
972.275	91.97
972.441	69.88
972.607	161.13
972.773	47.02
972.939	108.43
973.105	77.82
973.271	33.26
973.437	41.98
973.602	47.21
973.768	71.82
973.934	59.61
974.1	110.18
974.266	-1.61
974.432	65.42
974.598	70.85
974.763	105.53
974.929	50.89
975.095	139.43
975.261	66.97
975.426	27.25
975.592	84.8
975.758	126.65
975.923	32.68
976.089	58.83
976.255	96.03
976.42	81.5
976.586	75.88
976.751	99.72
976.917	162.68
977.082	94.48
977.248	34.23
977.413	23.57
977.579	61.16
977.744	78.98
977.91	60.38
978.075	79.95
978.24	111.15
978.406	68.13
978.571	44.88
978.736	49.73
978.902	95.65
979.067	42.75
979.232	8.65
979.397	77.24
979.563	127.61
979.728	27.25
979.893	80.34
980.058	63.68
980.223	93.9
980.388	67.75
980.554	72.4
980.719	27.25
980.884	81.5
981.049	104.37
981.214	49.73
981.379	92.55
981.544	40.43
981.709	53.02
981.874	63.29
982.039	54.38
982.204	86.35
982.368	53.02
982.533	37.72
982.698	93.32
982.863	102.82
983.028	70.07
983.193	79.57
983.357	71.43
983.522	45.08
983.687	43.53
983.852	48.95
984.016	61.55
984.181	74.72
984.346	94.29
984.51	70.07
984.675	61.93
984.839	76.47
985.004	111.92
985.168	97.78
985.333	97.2
985.498	63.1
985.662	85.77
985.827	82.67
985.991	71.62
986.155	45.08
986.32	125.29
986.484	123.16
986.649	103.01
986.813	-4.71
986.977	95.84
987.142	85.96
987.306	13.69
987.47	53.22
987.634	78.98
987.799	78.21
987.963	49.73
988.127	107.08
988.291	130.33
988.455	75.69
988.62	78.02
988.784	114.63
988.948	99.91
989.112	39.27
989.276	59.03
989.44	65.81
989.604	51.67
989.768	55.15
989.932	134.98
990.096	11.75
990.26	39.46
990.424	34.42
990.588	61.93
990.752	128
990.915	77.82
991.079	14.08
991.243	39.27
991.407	81.7
991.571	53.6
991.734	110.76
991.898	94.48
992.062	153.19
992.226	59.42
992.389	50.31
992.553	10.79
992.717	23.77
992.88	29.38
993.044	66.39
993.207	20.67
993.371	92.35
993.535	88.67
993.698	62.9
993.862	94.87
994.025	122.38
994.189	38.68
994.352	65.03
994.515	82.28
994.679	122
994.842	46.63
995.006	73.37
995.169	55.15
995.332	47.98
995.496	63.68
995.659	26.48
995.822	44.11
995.985	86.15
996.149	92.93
996.312	48.18
996.475	123.35
996.638	49.92
996.801	99.33
996.964	116.57
997.128	56.12
997.291	12.14
997.454	72.01
997.617	8.27
997.78	123.93
997.943	42.37
998.106	85.18
998.269	57.09
998.432	55.73
998.595	67.17
998.758	5.75
998.92	15.82
999.083	-23.9
999.246	33.07
999.409	30.74
999.572	-8.4
999.735	39.85
999.897	56.51
1000.06	40.43
1000.223	13.3
1000.386	61.74
1000.548	65.42
1000.711	44.69
1000.874	46.24
1001.036	-8.01
1001.199	53.02
1001.361	19.7
1001.524	49.15
1001.687	66.2
1001.849	0.32
1002.012	39.07
1002.174	48.76
1002.337	79.37
1002.499	54.77
1002.661	82.67
1002.824	-7.81
1002.986	37.91
1003.149	35
1003.311	17.37
1003.473	81.7
1003.636	3.62
1003.798	52.63
1003.96	59.61
1004.123	39.85
1004.285	12.92
1004.447	36.17
1004.609	23.57
1004.771	116.18
1004.933	13.89
1005.096	27.06
1005.258	-25.83
1005.42	20.67
1005.582	78.79
1005.744	51.67
1005.906	-17.31
1006.068	40.23
1006.23	-19.05
1006.392	-9.95
1006.554	4.97
1006.716	59.03
1006.878	57.87
1007.04	-2.2
1007.202	10.98
1007.363	29.58
1007.525	25.7
1007.687	41.4
1007.849	41.01
1008.011	-19.05
1008.172	10.98
1008.334	-0.45
1008.496	94.1
1008.658	-1.03
1008.819	37.52
1008.981	-3.55
1009.143	26.67
1009.304	23.38
1009.466	23.38
1009.627	61.93
1009.789	137.11
1009.95	41.59
1010.112	21.44
1010.273	27.06
1010.435	30.35
1010.596	8.07
1010.758	43.53
1010.919	17.95
1011.081	-0.65
1011.242	34.81
1011.403	58.45
1011.565	37.91
1011.726	46.82
1011.887	-18.86
1012.049	6.33
1012.21	57.48
1012.371	44.69
1012.532	-42.5
1012.693	18.15
1012.855	9.62
1013.016	18.92
1013.177	52.05
1013.338	19.7
1013.499	98.17
1013.66	51.08
1013.821	57.09
1013.982	52.44
1014.143	35.97
1014.304	17.76
1014.465	19.12
1014.626	68.52
1014.787	14.27
1014.948	124.32
1015.109	-41.91
1015.27	68.33
1015.431	44.5
1015.592	-12.08
1015.752	75.88
1015.913	31.13
1016.074	40.43
1016.235	30.16
1016.395	-10.53
1016.556	0.32
1016.717	25.9
1016.877	48.95
1017.038	-9.36
1017.199	30.55
1017.359	43.33
1017.52	29.97
1017.681	-10.72
1017.841	11.95
1018.002	5.17
1018.162	30.35
1018.323	64.07
1018.483	8.07
1018.644	13.3
1018.804	-8.2
1018.964	-5.3
1019.125	7.49
1019.285	26.67
1019.446	-6.26
1019.606	-12.85
1019.766	-24.28
1019.926	34.03
1020.087	39.07
1020.247	1.68
1020.407	8.46
1020.567	54.77
1020.728	-13.43
1020.888	-1.61
1021.048	-12.85
1021.208	-5.1
1021.368	1.29
1021.528	72.59
1021.688	30.74
1021.848	71.62
1022.008	25.9
1022.168	13.3
1022.328	34.81
1022.488	24.74
1022.648	8.65
1022.808	10.2
1022.968	38.3
1023.128	-16.34
1023.288	18.15
1023.448	24.54
1023.608	36.17
1023.767	28.8
1023.927	-7.62
1024.087	-3.94
1024.247	-30.1
1024.406	12.53
1024.566	-18.66
1024.726	-33.39
1024.885	23.57
1025.045	30.93
1025.205	34.03
1025.364	20.47
1025.524	35.58
1025.683	15.63
1025.843	2.07
1026.003	3.23
1026.162	79.57
1026.321	47.6
1026.481	25.7
1026.64	3.81
1026.8	20.09
1026.959	-2
1027.119	36.75
1027.278	-2.39
1027.437	-8.01
1027.597	10.79
1027.756	27.25
1027.915	28.03
1028.074	54.38
1028.234	-7.04
1028.393	25.12
1028.552	10.2
1028.711	-56.45
1028.87	55.93
1029.03	-14.98
1029.189	-15.18
1029.348	-57.8
1029.507	-10.53
1029.666	10.98
1029.825	-21.76
1029.984	2.84
1030.143	29.38
1030.302	-14.98
1030.461	-41.14
1030.62	24.93
1030.779	61.35
1030.938	-12.46
1031.097	-32.81
1031.255	29
1031.414	53.99
1031.573	26.67
1031.732	-41.14
1031.891	-5.49
1032.049	65.62
1032.208	24.74
1032.367	-7.04
1032.525	-7.23
1032.684	-8.59
1032.843	12.72
1033.001	-48.89
1033.16	147.96
1033.319	67.55
1033.477	34.81
1033.636	4.2
1033.794	-32.23
1033.953	45.27
1034.111	30.16
1034.27	-25.45
1034.428	24.54
1034.587	-19.63
1034.745	28.22
1034.903	12.72
1035.062	36.36
1035.22	-27.38
1035.378	33.65
1035.537	-38.04
1035.695	24.93
1035.853	24.93
1036.011	29.58
1036.17	21.83
1036.328	-64.19
1036.486	22.41
1036.644	21.83
1036.802	-66.33
1036.96	-6.07
1037.119	-1.42
1037.277	-17.89
1037.435	-16.92
1037.593	-33.58
1037.751	31.32
1037.909	27.45
1038.067	27.45
