Data from pine_FLMT105791__158__17-23-12-074.txt Node

Date: Mon Mar 20 17:23:12 GMT 2023
User: antho
Spectrometer: FLMT10579
Trigger mode: 0
Integration Time (sec): 1.000000E-1
Scans to average: 10
Electric dark correction enabled: true
Nonlinearity correction enabled: false
Boxcar width: 0
XAxis mode: Wavelengths
Number of Pixels in Spectrum: 3648
>>>>>Begin Spectral Data<<<<<
345.248	-162.34
345.464	-162.34
345.681	-162.34
345.898	-161.76
346.114	-169.13
346.331	-31.76
346.548	46.52
346.764	2.15
346.981	-5.6
347.197	-41.25
347.414	15.9
347.631	-12.38
347.847	59.3
348.064	13.58
348.28	19.58
348.497	-47.45
348.713	-18.58
348.93	43.61
349.146	39.93
349.363	-9.48
349.579	11.83
349.796	-28.46
350.012	-1.73
350.229	-0.57
350.445	-6.96
350.661	1.57
350.878	-2.31
351.094	-4.83
351.311	27.53
351.527	26.56
351.743	1.18
351.96	46.52
352.176	58.92
352.392	38.38
352.609	14.74
352.825	-21.1
353.041	-8.12
353.257	-14.32
353.474	35.86
353.69	21.13
353.906	9.7
354.122	-7.35
354.339	35.08
354.555	-13.55
354.771	-5.6
354.987	35.08
355.203	57.75
355.42	18.23
355.636	-3.47
355.852	-1.53
356.068	-14.51
356.284	-17.81
356.5	74.03
356.716	22.68
356.932	10.87
357.148	23.46
357.364	-4.83
357.58	37.6
357.796	40.12
358.012	50.97
358.228	21.52
358.444	-37.57
358.66	86.23
358.876	40.32
359.092	5.25
359.308	13.38
359.524	21.72
359.74	-19.94
359.956	-2.12
360.172	14.74
360.388	55.04
360.604	-9.09
360.819	108.51
361.035	27.33
361.251	42.83
361.467	22.3
361.683	51.75
361.898	4.28
362.114	41.67
362.33	11.45
362.546	67.63
362.762	17.65
362.977	17.45
363.193	-43.38
363.409	57.95
363.624	-22.46
363.84	-18.97
364.056	-5.99
364.271	44.38
364.487	9.9
364.703	5.63
364.918	-31.95
365.134	-5.41
365.35	5.25
365.565	109.1
365.781	5.05
365.996	15.32
366.212	53.88
366.427	20.75
366.643	-4.25
366.858	15.32
367.074	-38.93
367.289	66.67
367.505	106.38
367.72	-46.1
367.936	-14.32
368.151	58.33
368.367	28.5
368.582	22.3
368.798	-9.48
369.013	51.94
369.228	25.59
369.444	11.06
369.659	59.11
369.874	29.47
370.09	46.71
370.305	-47.84
370.52	-14.9
370.736	50.2
370.951	-0.37
371.166	49.62
371.381	63.57
371.597	36.05
371.812	-35.44
372.027	-19.94
372.242	-1.73
372.458	80.61
372.673	15.71
372.888	4.86
373.103	66.28
373.318	91.08
373.533	31.6
373.749	20.94
373.964	-21.3
374.179	56.78
374.394	-23.62
374.609	39.35
374.824	-21.1
375.039	79.26
375.254	17.84
375.469	32.76
375.684	18.23
375.899	56.2
376.114	9.7
376.329	8.35
376.544	79.07
376.759	50.39
376.974	-4.25
377.189	22.1
377.404	-17.61
377.619	50.2
377.834	-33.11
378.049	-23.23
378.264	-28.08
378.478	44
378.693	14.93
378.908	20.75
379.123	-8.31
379.338	34.12
379.553	9.9
379.767	38.38
379.982	20.55
380.197	50.97
380.412	15.13
380.626	45.55
380.841	101.54
381.056	37.22
381.271	82.75
381.485	6.8
381.7	-11.22
381.915	22.68
382.129	33.34
382.344	-1.15
382.559	0.4
382.773	65.89
382.988	-6.38
383.202	29.66
383.417	-10.45
383.632	117.23
383.846	17.65
384.061	30.24
384.275	5.25
384.49	56.2
384.704	27.72
384.919	15.71
385.133	4.86
385.348	38.77
385.562	-13.55
385.777	56.4
385.991	21.13
386.206	3.5
386.42	1.76
386.634	55.23
386.849	21.72
387.063	25.78
387.277	-8.9
387.492	12.22
387.706	-11.22
387.92	-8.51
388.135	44.38
388.349	24.62
388.563	27.72
388.778	2.53
388.992	30.82
389.206	43.8
389.42	100.76
389.635	30.43
389.849	46.52
390.063	79.84
390.277	29.08
390.491	73.45
390.706	60.47
390.92	44
391.134	16.87
391.348	46.32
391.562	-28.85
391.776	26.56
391.99	-6.18
392.205	48.45
392.419	-3.47
392.633	25.01
392.847	73.45
393.061	7.38
393.275	67.44
393.489	35.08
393.703	39.35
393.917	56.2
394.131	5.05
394.345	52.91
394.559	55.23
394.773	20.75
394.986	70.93
395.2	11.25
395.414	71.51
395.628	-8.12
395.842	53.68
396.056	5.05
396.27	-11.03
396.484	33.15
396.697	53.49
396.911	76.35
397.125	56.59
397.339	64.34
397.553	60.47
397.766	71.51
397.98	51.55
398.194	58.72
398.408	31.79
398.621	47.1
398.835	37.99
399.049	45.55
399.262	75.19
399.476	42.25
399.69	63.95
399.903	95.73
400.117	19.2
400.331	54.46
400.544	22.49
400.758	143.78
400.971	46.52
401.185	65.31
401.398	21.52
401.612	75.19
401.826	47.68
402.039	64.92
402.253	34.31
402.466	73.25
402.68	16.87
402.893	34.89
403.106	36.05
403.32	53.1
403.533	36.44
403.747	59.3
403.96	70.15
404.174	47.1
404.387	-7.35
404.6	30.82
404.814	90.3
405.027	29.08
405.24	56.01
405.454	22.1
405.667	92.24
405.88	-26.72
406.094	61.63
406.307	72.67
406.52	58.53
406.733	-0.95
406.947	-4.25
407.16	97.86
407.373	90.11
407.586	10.09
407.799	31.6
408.012	75.19
408.226	77.32
408.439	56.78
408.652	8.35
408.865	66.28
409.078	88.17
409.291	49.62
409.504	-13.55
409.717	40.9
409.93	37.8
410.143	44.38
410.357	-5.6
410.57	0.02
410.783	36.63
410.996	64.34
411.209	35.47
411.421	62.02
411.634	43.42
411.847	12.8
412.06	27.33
412.273	40.9
412.486	28.5
412.699	112.78
412.912	50.39
413.125	93.6
413.338	54.65
413.55	86.81
413.763	57.17
413.976	58.92
414.189	27.33
414.402	24.23
414.615	99.6
414.827	35.28
415.04	96.31
415.253	68.6
415.466	73.45
415.678	98.83
415.891	36.83
416.104	42.25
416.316	47.1
416.529	31.02
416.742	66.28
416.954	86.81
417.167	37.22
417.38	66.67
417.592	91.46
417.805	28.5
418.017	4.47
418.23	71.9
418.442	49.42
418.655	28.88
418.868	56.2
419.08	73.83
419.293	97.47
419.505	48.07
419.718	64.92
419.93	76.93
420.142	53.49
420.355	78.29
420.567	119.17
420.78	73.25
420.992	49.62
421.205	97.47
421.417	-24.2
421.629	26.37
421.842	21.13
422.054	7.96
422.266	66.86
422.479	74.42
422.691	57.75
422.903	91.85
423.115	54.85
423.328	48.65
423.54	65.12
423.752	28.5
423.964	36.63
424.177	46.32
424.389	43.61
424.601	154.05
424.813	69.57
425.025	98.44
425.238	43.22
425.45	42.83
425.662	38.18
425.874	336.17
426.086	38.77
426.298	88.17
426.51	55.23
426.722	68.41
426.934	51.17
427.146	70.93
427.358	25.59
427.57	113.94
427.782	38.38
427.994	63.57
428.206	37.8
428.418	0.6
428.63	59.5
428.842	94.95
429.054	59.5
429.266	64.15
429.478	38.57
429.69	43.03
429.902	9.12
430.114	103.28
430.325	91.85
430.537	67.63
430.749	62.79
430.961	35.47
431.173	60.66
431.384	86.04
431.596	27.14
431.808	38.38
432.02	62.79
432.231	76.93
432.443	108.32
432.655	70.35
432.867	30.24
433.078	95.73
433.29	119.36
433.502	91.85
433.713	106
433.925	66.08
434.136	114.33
434.348	15.52
434.56	25.01
434.771	167.99
434.983	21.13
435.194	50.58
435.406	78.29
435.617	102.31
435.829	142.03
436.04	88.56
436.252	100.76
436.463	120.53
436.675	96.31
436.886	62.79
437.098	116.65
437.309	146.1
437.521	88.75
437.732	85.65
437.943	69.38
438.155	89.33
438.366	58.14
438.578	137.58
438.789	100.57
439	119.36
439.211	74.22
439.423	107.74
439.634	103.09
439.845	84.68
440.057	84.49
440.268	132.15
440.479	78.1
440.69	79.45
440.902	78.48
441.113	72.87
441.324	87.78
441.535	96.7
441.746	131.57
441.957	85.26
442.168	84.3
442.38	93.98
442.591	121.88
442.802	84.88
443.013	70.73
443.224	83.13
443.435	88.56
443.646	83.91
443.857	79.45
444.068	72.87
444.279	69.57
444.49	145.91
444.701	76.16
444.912	181.56
445.123	130.02
445.334	103.67
445.545	118.2
445.756	94.18
445.967	78.68
446.178	90.88
446.388	139.9
446.599	121.3
446.81	123.82
447.021	84.3
447.232	150.75
447.443	151.53
447.653	82.36
447.864	131.57
448.075	105.03
448.286	141.26
448.496	130.6
448.707	146.88
448.918	83.91
449.129	203.06
449.339	101.15
449.55	133.12
449.761	93.98
449.971	141.26
450.182	97.28
450.393	149.98
450.603	87.2
450.814	153.85
451.024	142.42
451.235	155.21
451.446	170.71
451.656	160.44
451.867	110.26
452.077	158.89
452.288	131.96
452.498	196.86
452.709	122.66
452.919	161.41
453.13	99.99
453.34	144.75
453.55	81.58
453.761	135.83
453.971	136.22
454.182	155.98
454.392	130.99
454.602	193.76
454.813	171.29
455.023	177.88
455.233	76.35
455.444	124.6
455.654	86.43
455.864	147.26
456.075	102.7
456.285	111.61
456.495	154.43
456.705	149.2
456.916	157.73
457.126	171.29
457.336	133.31
457.546	67.25
457.756	111.81
457.967	142.42
458.177	126.92
458.387	158.89
458.597	133.12
458.807	107.55
459.017	132.15
459.227	139.51
459.437	107.74
459.647	146.68
459.857	166.06
460.068	98.44
460.278	185.43
460.488	147.85
460.698	194.15
460.908	149.4
461.117	117.43
461.327	92.05
461.537	152.5
461.747	155.4
461.957	138.93
462.167	216.63
462.377	182.53
462.587	134.48
462.797	213.72
463.007	110.06
463.216	161.8
463.426	198.22
463.636	188.53
463.846	104.25
464.056	133.31
464.265	170.13
464.475	122.08
464.685	123.43
464.895	148.62
465.104	140.1
465.314	182.33
465.524	123.43
465.733	129.05
465.943	231.35
466.153	202.48
466.362	159.47
466.572	150.56
466.782	186.01
466.991	162.18
467.201	191.44
467.41	120.53
467.62	182.33
467.829	139.51
468.039	161.8
468.249	154.24
468.458	151.53
468.668	180.59
468.877	181.36
469.086	182.72
469.296	178.65
469.505	117.04
469.715	214.69
469.924	165.67
470.134	208.29
470.343	220.11
470.552	138.74
470.762	159.47
470.971	140.68
471.18	168.96
471.39	155.79
471.599	124.6
471.808	198.03
472.018	125.76
472.227	217.59
472.436	218.37
472.645	194.54
472.855	130.6
473.064	205.19
473.273	174.78
473.482	207.52
473.691	230.96
473.901	190.47
474.11	161.02
474.319	251.89
474.528	207.33
474.737	239.49
474.946	206.36
475.155	187.95
475.364	209.46
475.573	211.39
475.783	194.73
475.992	188.73
476.201	251.11
476.41	166.06
476.619	172.45
476.828	200.93
477.037	182.91
477.245	198.03
477.454	229.8
477.663	185.82
477.872	187.76
478.081	255.76
478.29	177.88
478.499	279.79
478.708	201.71
478.917	262.16
479.125	187.95
479.334	227.86
479.543	208.1
479.752	188.53
479.961	243.75
480.169	204.81
480.378	199.58
480.587	333.26
480.796	226.7
481.004	214.11
481.213	246.66
481.422	227.48
481.63	219.73
481.839	226.89
482.048	257.31
482.256	225.93
482.465	254.21
482.674	235.03
482.882	232.9
483.091	292.19
483.299	235.61
483.508	252.28
483.716	254.41
483.925	242.59
484.134	241.81
484.342	249.56
484.551	294.32
484.759	242.59
484.967	267.39
485.176	264.48
485.384	261.96
485.593	281.34
485.801	246.85
486.01	275.33
486.218	248.79
486.426	188.92
486.635	258.28
486.843	236.97
487.051	261.57
487.26	231.35
487.468	269.91
487.676	286.96
487.885	234.06
488.093	251.31
488.301	249.18
488.509	272.62
488.717	300.91
488.926	239.1
489.134	240.26
489.342	274.56
489.55	243.94
489.758	274.17
489.967	208.68
490.175	350.12
490.383	263.9
490.591	321.25
490.799	220.69
491.007	311.95
491.215	283.47
491.423	252.28
491.631	264.29
491.839	251.89
492.047	277.66
492.255	228.64
492.463	214.49
492.671	282.31
492.879	346.05
493.087	251.5
493.295	283.08
493.503	312.14
493.711	309.24
493.919	312.92
494.127	343.72
494.334	327.45
494.542	258.28
494.75	306.72
494.958	265.45
495.166	328.61
495.374	309.82
495.581	297.03
495.789	304.59
495.997	347.6
496.205	295.48
496.412	287.92
496.62	266.22
496.828	330.74
497.035	284.44
497.243	309.04
497.451	311.76
497.658	311.17
497.866	324.54
498.074	384.41
498.281	289.28
498.489	382.28
498.696	333.26
498.904	299.36
499.112	302.46
499.319	390.22
499.527	317.18
499.734	339.07
499.942	281.14
500.149	298.39
500.357	328.81
500.564	284.05
500.771	319.89
500.979	278.43
501.186	297.42
501.394	329.97
501.601	336.56
501.808	359.61
502.016	337.72
502.223	318.34
502.43	344.3
502.638	339.46
502.845	308.07
503.052	403.98
503.26	325.32
503.467	389.64
503.674	320.28
503.881	340.82
504.089	430.72
504.296	369.69
504.503	292.19
504.71	349.92
504.917	302.65
505.125	334.04
505.332	352.64
505.539	349.73
505.746	407.66
505.953	365.62
506.16	384.99
506.367	406.5
506.574	381.12
506.781	383.44
506.988	321.64
507.195	371.62
507.402	330.16
507.609	355.54
507.816	358.84
508.023	349.54
508.23	368.72
508.437	325.32
508.644	397
508.851	418.9
509.058	391.77
509.265	385.57
509.472	366.78
509.679	443.5
509.885	351.67
510.092	394.87
510.299	351.67
510.506	368.91
510.713	394.29
510.92	355.15
511.126	407.85
511.333	398.94
511.54	405.53
511.746	449.51
511.953	412.7
512.16	443.7
512.367	375.69
512.573	379.95
512.78	384.99
512.987	364.26
513.193	384.8
513.4	345.27
513.606	358.06
513.813	403.79
514.02	391
514.226	480.9
514.433	470.05
514.639	348.76
514.846	417.54
515.052	390.61
515.259	382.86
515.465	378.02
515.672	398.36
515.878	483.8
516.085	393.9
516.291	442.92
516.497	378.21
516.704	371.62
516.91	378.6
517.117	372.4
517.323	335.97
517.529	394.49
517.736	410.37
517.942	386.74
518.148	352.05
518.354	393.52
518.561	389.64
518.767	382.67
518.973	454.74
519.179	414.83
519.386	384.02
519.592	383.05
519.798	388.09
520.004	437.69
520.21	426.45
520.417	440.98
520.623	448.15
520.829	465.59
521.035	455.32
521.241	447.18
521.447	438.85
521.653	548.9
521.859	431.1
522.065	442.34
522.271	553.94
522.477	466.75
522.683	490.97
522.889	465.78
523.095	496.78
523.301	440.79
523.507	451.25
523.713	457.84
523.919	412.31
524.125	485.74
524.331	457.84
524.537	532.43
524.742	498.14
524.948	497.56
525.154	484.58
525.36	592.69
525.566	507.05
525.772	501.05
525.977	457.45
526.183	519.26
526.389	540.96
526.595	499.3
526.8	466.75
527.006	456.29
527.212	432.46
527.417	431.68
527.623	437.5
527.829	487.48
528.034	528.17
528.24	477.41
528.446	427.42
528.651	499.69
528.857	509.38
529.062	567.5
529.268	500.47
529.473	525.07
529.679	503.37
529.884	537.66
530.09	541.35
530.295	556.85
530.501	526.04
530.706	532.43
530.912	488.07
531.117	522.16
531.323	501.43
531.528	525.07
531.733	524.68
531.939	499.11
532.144	556.07
532.35	519.06
532.555	577.19
532.76	559.75
532.966	577.58
533.171	544.83
533.376	544.45
533.581	505.31
533.787	543.09
533.992	552.97
534.197	582.03
534.402	505.89
534.607	565.56
534.813	636.09
535.018	528.75
535.223	513.25
535.428	551.42
535.633	570.6
535.838	553.16
536.043	537.08
536.249	628.92
536.454	557.04
536.659	564.01
536.864	534.76
537.069	547.55
537.274	564.21
537.479	557.43
537.684	578.55
537.889	544.83
538.094	613.03
538.299	566.15
538.504	586.1
538.708	565.56
538.913	575.25
539.118	552.97
539.323	584.36
539.528	555.49
539.733	557.81
539.938	589.01
540.142	592.3
540.347	585.71
540.552	545.41
540.757	570.02
540.962	575.64
541.166	525.07
541.371	534.18
541.576	594.43
541.781	451.83
541.985	562.66
542.19	578.74
542.395	594.24
542.599	629.31
542.804	565.56
543.008	650.62
543.213	546.77
543.418	538.25
543.622	597.15
543.827	573.51
544.031	644.23
544.236	618.46
544.44	575.64
544.645	663.99
544.849	579.51
545.054	621.94
545.258	682.78
545.463	630.28
545.667	589.4
545.872	625.43
546.076	610.32
546.281	609.35
546.485	569.25
546.689	613.03
546.894	609.16
547.098	625.63
547.302	567.11
547.507	606.83
547.711	612.84
547.915	683.94
548.119	556.26
548.324	605.86
548.528	663.41
548.732	619.81
548.936	625.82
549.141	639.96
549.345	597.15
549.549	615.74
549.753	600.63
549.957	682.59
550.161	668.64
550.366	612.06
550.57	564.6
550.774	614.97
550.978	612.45
551.182	641.51
551.386	627.37
551.59	597.15
551.794	579.71
551.998	603.93
552.202	586.49
552.406	539.02
552.61	594.05
552.814	623.69
553.018	661.66
553.222	600.05
553.426	623.11
553.63	667.28
553.833	603.35
554.037	548.51
554.241	653.72
554.445	597.53
554.649	598.31
554.853	569.63
555.056	660.69
555.26	651.39
555.464	632.99
555.668	604.89
555.871	644.61
556.075	626.59
556.279	603.35
556.483	585.52
556.686	620.39
556.89	613.61
557.094	613.42
557.297	560.53
557.501	662.24
557.704	554.52
557.908	655.27
558.112	554.52
558.315	654.88
558.519	605.67
558.722	611.68
558.926	583.78
559.129	565.76
559.333	533.4
559.536	559.36
559.74	541.54
559.943	561.88
560.147	542.7
560.35	599.08
560.553	556.85
560.757	502.79
560.96	621.94
561.164	555.49
561.367	634.73
561.57	570.6
561.774	599.47
561.977	571.18
562.18	545.03
562.384	636.67
562.587	557.43
562.79	611.29
562.993	587.65
563.197	606.83
563.4	646.36
563.603	623.3
563.806	666.31
564.009	563.24
564.212	586.68
564.416	549.48
564.619	617.1
564.822	577.38
565.025	603.54
565.228	581.84
565.431	576.03
565.634	519.26
565.837	552.58
566.04	543.28
566.243	545.61
566.446	497.75
566.649	578.74
566.852	533.4
567.055	553.36
567.258	595.01
567.461	637.44
567.664	632.79
567.867	513.06
568.07	571.38
568.273	560.33
568.475	579.32
568.678	556.85
568.881	530.88
569.084	587.26
569.287	490.39
569.489	522.75
569.692	600.44
569.895	594.43
570.098	501.43
570.3	541.35
570.503	440.98
570.706	473.73
570.909	514.22
571.111	487.48
571.314	477.8
571.516	508.8
571.719	511.7
571.922	513.06
572.124	476.44
572.327	545.61
572.529	459.97
572.732	467.14
572.935	514.03
573.137	568.08
573.34	495.82
573.542	546.38
573.745	519.65
573.947	528.75
574.15	519.84
574.352	485.93
574.554	552
574.757	492.52
574.959	479.54
575.162	477.02
575.364	482.25
575.566	604.31
575.769	479.35
575.971	519.06
576.173	414.64
576.376	492.72
576.578	529.33
576.78	554.91
576.982	441.57
577.185	497.75
577.387	453.38
577.589	431.1
577.791	489.62
577.993	491.36
578.196	470.24
578.398	524.49
578.6	535.53
578.802	461.72
579.004	470.24
579.206	437.11
579.408	482.83
579.61	453.77
579.812	511.9
580.014	459.39
580.216	483.42
580.418	446.6
580.62	429.36
580.822	409.21
581.024	450.28
581.226	502.79
581.428	435.37
581.63	546.38
581.832	438.08
582.034	519.06
582.236	483.8
582.438	498.92
582.64	510.93
582.841	539.6
583.043	565.18
583.245	490
583.447	516.74
583.649	483.8
583.85	519.26
584.052	554.52
584.254	482.25
584.456	537.47
584.657	459.97
584.859	462.3
585.061	490.2
585.262	456.1
585.464	449.12
585.666	498.72
585.867	477.02
586.069	523.71
586.27	483.8
586.472	481.09
586.674	469.27
586.875	440.02
587.077	443.5
587.278	481.87
587.48	467.14
587.681	550.45
587.883	512.48
588.084	419.48
588.285	462.68
588.487	470.43
588.688	479.54
588.89	440.4
589.091	404.75
589.292	443.31
589.494	426.07
589.695	435.75
589.896	365.62
590.098	380.73
590.299	433.82
590.5	374.34
590.702	395.26
590.903	413.86
591.104	496.78
591.305	422.19
591.507	465.98
591.708	442.15
591.909	448.54
592.11	499.3
592.311	455.9
592.512	444.67
592.714	398.36
592.915	424.32
593.116	422.58
593.317	415.41
593.518	421.61
593.719	400.3
593.92	441.18
594.121	486.52
594.322	435.95
594.523	448.15
594.724	404.37
594.925	433.62
595.126	487.48
595.327	465.01
595.528	440.02
595.729	487.48
595.929	435.56
596.13	420.25
596.331	443.5
596.532	481.48
596.733	487.48
596.934	448.93
597.135	478.57
597.335	469.66
597.536	432.65
597.737	445.44
597.938	448.93
598.138	453.77
598.339	414.64
598.54	458.81
598.74	459.39
598.941	467.14
599.142	499.3
599.342	476.44
599.543	413.09
599.744	446.02
599.944	469.27
600.145	438.08
600.345	455.9
600.546	506.67
600.746	486.71
600.947	521.2
601.147	485.16
601.348	470.63
601.548	439.05
601.749	448.93
601.949	414.83
602.15	425.49
602.35	427.42
602.551	506.47
602.751	432.07
602.951	399.14
603.152	374.72
603.352	468.88
603.552	456.48
603.753	484.58
603.953	478.57
604.153	460.36
604.354	415.41
604.554	428.2
604.754	453.38
604.954	389.84
605.155	455.32
605.355	434.01
605.555	456.48
605.755	498.72
605.955	451.64
606.155	458.81
606.356	451.64
606.556	489.62
606.756	440.21
606.956	403.4
607.156	529.91
607.356	431.1
607.556	426.07
607.756	434.98
607.956	482.25
608.156	439.05
608.356	425.29
608.556	474.89
608.756	417.35
608.956	418.32
609.156	442.73
609.356	398.94
609.556	410.95
609.755	445.83
609.955	420.64
610.155	439.63
610.355	417.74
610.555	411.73
610.755	410.76
610.954	353.22
611.154	434.98
611.354	442.15
611.554	401.27
611.753	413.86
611.953	380.92
612.153	446.99
612.352	464.04
612.552	376.66
612.752	381.5
612.951	434.2
613.151	426.45
613.351	368.72
613.55	413.28
613.75	436.33
613.949	434.59
614.149	427.23
614.348	425.68
614.548	397.39
614.747	385.19
614.947	429.17
615.146	341.79
615.346	463.07
615.545	443.12
615.745	443.89
615.944	443.5
616.144	413.47
616.343	468.69
616.542	428
616.742	429.75
616.941	409.4
617.14	358.25
617.34	417.54
617.539	431.68
617.738	365.62
617.938	474.12
618.137	412.7
618.336	353.22
618.535	383.44
618.734	388.67
618.934	386.93
619.133	400.69
619.332	395.07
619.531	376.27
619.73	395.84
619.929	447.77
620.128	452.61
620.328	470.82
620.527	367.36
620.726	394.29
620.925	407.08
621.124	392.74
621.323	418.7
621.522	340.04
621.721	355.35
621.92	355.74
622.119	403.98
622.318	357.87
622.517	363.68
622.715	370.65
622.914	307.11
623.113	388.87
623.312	332.68
623.511	397.2
623.71	365.42
623.909	355.74
624.107	436.72
624.306	359.03
624.505	324.16
624.704	373.95
624.902	372.01
625.101	407.27
625.3	394.1
625.499	334.81
625.697	362.9
625.896	366
626.095	394.87
626.293	335.97
626.492	345.85
626.69	398.36
626.889	344.11
627.088	386.15
627.286	341.21
627.485	328.03
627.683	354.38
627.882	373.95
628.08	289.86
628.279	358.84
628.477	413.67
628.676	342.17
628.874	361.55
629.073	366
629.271	332.1
629.469	351.47
629.668	341.59
629.866	347.79
630.065	331.32
630.263	382.09
630.461	299.74
630.66	368.52
630.858	388.09
631.056	391.58
631.254	402.82
631.453	328.42
631.651	381.31
631.849	358.06
632.047	361.74
632.245	365.81
632.444	374.72
632.642	383.64
632.84	384.02
633.038	340.43
633.236	290.44
633.434	312.92
633.632	324.54
633.83	344.69
634.028	368.72
634.227	349.92
634.425	396.23
634.623	327.45
634.821	362.9
635.019	321.83
635.216	334.42
635.414	377.24
635.612	331.32
635.81	332.29
636.008	404.56
636.206	332.1
636.404	369.88
636.602	327.64
636.8	357.48
636.997	400.69
637.195	398.17
637.393	361.94
637.591	408.05
637.789	367.75
637.986	341.21
638.184	355.93
638.382	400.88
638.58	392.55
638.777	410.57
638.975	363.49
639.173	344.5
639.37	359.8
639.568	360.58
639.765	383.05
639.963	348.37
640.161	407.66
640.358	384.41
640.556	317.96
640.753	338.88
640.951	341.79
641.148	344.11
641.346	316.21
641.543	341.59
641.741	377.82
641.938	347.79
642.136	330.94
642.333	309.62
642.531	380.15
642.728	393.71
642.925	365.42
643.123	328.42
643.32	370.07
643.517	352.05
643.715	332.68
643.912	337.52
644.109	363.49
644.306	311.95
644.504	322.41
644.701	322.02
644.898	358.06
645.095	331.32
645.293	348.95
645.49	349.54
645.687	347.99
645.884	375.11
646.081	333.07
646.278	329.39
646.475	318.15
646.672	315.63
646.87	373.17
647.067	353.22
647.264	366
647.461	337.91
647.658	287.73
647.855	356.12
648.052	344.3
648.249	236.19
648.446	309.62
648.642	311.95
648.839	312.14
649.036	291.99
649.233	266.03
649.43	281.14
649.627	259.64
649.824	302.46
650.021	310.98
650.217	294.51
650.414	282.11
650.611	338.11
650.808	309.43
651.004	300.91
651.201	312.53
651.398	358.84
651.595	312.14
651.791	313.31
651.988	316.02
652.185	277.85
652.381	308.85
652.578	242.39
652.775	307.11
652.971	276.69
653.168	285.41
653.364	341.79
653.561	260.8
653.757	297.03
653.954	313.11
654.15	275.33
654.347	374.14
654.543	287.34
654.74	251.5
654.936	265.26
655.133	301.49
655.329	302.26
655.525	298.58
655.722	328.22
655.918	288.51
656.115	318.73
656.311	262.35
656.507	263.9
656.704	211.59
656.9	236.58
657.096	244.53
657.292	226.89
657.489	280.76
657.685	305.75
657.881	256.73
658.077	276.88
658.273	255.96
658.47	342.56
658.666	253.24
658.862	296.84
659.058	264.67
659.254	326.87
659.45	260.41
659.646	291.22
659.842	296.26
660.038	342.37
660.234	251.89
660.43	281.14
660.626	331.52
660.822	282.11
661.018	313.89
661.214	287.54
661.41	266.81
661.606	294.9
661.802	309.04
661.998	276.88
662.194	259.44
662.39	300.91
662.586	312.34
662.781	296.06
662.977	305.56
663.173	327.84
663.369	298.58
663.564	282.31
663.76	333.84
663.956	276.69
664.152	350.89
664.347	225.54
664.543	275.52
664.739	281.14
664.934	257.89
665.13	211.01
665.326	317.37
665.521	302.26
665.717	262.35
665.912	233.87
666.108	200.35
666.304	272.62
666.499	291.02
666.695	231.54
666.89	266.22
667.086	315.44
667.281	290.83
667.477	347.02
667.672	273.59
667.867	300.13
668.063	277.07
668.258	233.29
668.454	278.04
668.649	368.91
668.844	281.53
669.04	291.99
669.235	282.11
669.43	230.96
669.626	245.3
669.821	268.16
670.016	236.78
670.211	291.8
670.407	228.44
670.602	269.71
670.797	266.61
670.992	328.22
671.187	270.1
671.382	325.71
671.578	273.78
671.773	276.69
671.968	227.67
672.163	276.11
672.358	286.37
672.553	260.61
672.748	263.32
672.943	333.07
673.138	279.4
673.333	293.16
673.528	233.48
673.723	272.42
673.918	245.3
674.113	232.71
674.308	332.68
674.503	281.14
674.698	297.61
674.892	282.69
675.087	305.56
675.282	276.3
675.477	214.11
675.672	264.29
675.867	233.29
676.061	221.47
676.256	217.59
676.451	233.09
676.646	274.94
676.84	226.51
677.035	213.33
677.23	230.58
677.424	270.87
677.619	287.73
677.814	289.28
678.008	290.06
678.203	196.48
678.397	250.14
678.592	263.51
678.787	297.22
678.981	211.2
679.176	263.32
679.37	245.49
679.565	226.12
679.759	226.89
679.954	276.69
680.148	289.67
680.342	307.11
680.537	271.26
680.731	258.86
680.926	283.86
681.12	291.99
681.314	217.59
681.509	228.25
681.703	260.41
681.897	272.62
682.092	251.89
682.286	225.15
682.48	315.44
682.674	293.93
682.869	253.44
683.063	249.37
683.257	292.96
683.451	218.18
683.645	275.14
683.839	224.76
684.034	266.81
684.228	281.72
684.422	241.62
684.616	226.12
684.81	264.09
685.004	244.91
685.198	251.31
685.392	272.04
685.586	241.04
685.78	278.62
685.974	263.12
686.168	257.12
686.362	316.79
686.556	229.99
686.75	216.24
686.944	254.99
687.138	298.97
687.331	197.25
687.525	213.53
687.719	193.96
687.913	243.36
688.107	210.23
688.301	194.54
688.494	231.54
688.688	183.3
688.882	170.32
689.076	180.98
689.269	210.81
689.463	288.89
689.657	201.51
689.85	218.76
690.044	210.04
690.238	194.73
690.431	218.18
690.625	185.63
690.818	225.15
691.012	231.74
691.205	254.21
691.399	188.92
691.593	235.42
691.786	278.04
691.98	277.66
692.173	291.61
692.366	240.65
692.56	257.7
692.753	297.61
692.947	210.43
693.14	304.59
693.333	293.74
693.527	214.11
693.72	284.24
693.914	245.49
694.107	275.14
694.3	261.19
694.493	236.78
694.687	287.54
694.88	238.52
695.073	308.85
695.266	288.89
695.46	245.49
695.653	325.51
695.846	320.09
696.039	215.46
696.232	273.01
696.425	297.03
696.618	277.46
696.812	267.39
697.005	337.91
697.198	385.38
697.391	335.01
697.584	326.09
697.777	362.32
697.97	358.45
698.163	330.16
698.356	336.75
698.549	411.92
698.742	375.89
698.935	317.96
699.127	363.49
699.32	344.69
699.513	293.35
699.706	363.29
699.899	360.58
700.092	310.01
700.285	382.09
700.477	303.04
700.67	368.14
700.863	381.12
701.056	451.83
701.248	414.25
701.441	402.24
701.634	386.74
701.826	457.65
702.019	318.92
702.212	398.75
702.404	326.67
702.597	355.15
702.79	386.15
702.982	403.98
703.175	413.47
703.367	411.34
703.56	420.84
703.752	480.51
703.945	443.31
704.137	440.79
704.33	452.03
704.522	437.88
704.715	449.51
704.907	451.25
705.1	449.12
705.292	469.85
705.484	420.25
705.677	463.85
705.869	480.32
706.061	480.32
706.254	503.18
706.446	463.65
706.638	440.79
706.831	526.23
707.023	468.5
707.215	567.31
707.407	521.58
707.599	519.06
707.792	523.13
707.984	495.43
708.176	542.51
708.368	481.28
708.56	499.5
708.752	500.85
708.944	526.23
709.136	576.8
709.329	498.92
709.521	620.78
709.713	583
709.905	564.01
710.097	589.59
710.289	551.61
710.481	564.98
710.672	583
710.864	593.85
711.056	623.49
711.248	599.47
711.44	599.47
711.632	584.55
711.824	618.07
712.016	662.83
712.207	641.71
712.399	643.64
712.591	715.52
712.783	633.57
712.975	648.68
713.166	629.89
713.358	608.38
713.55	706.61
713.741	663.99
713.933	684.14
714.125	672.51
714.316	648.68
714.508	696.92
714.7	697.12
714.891	710.49
715.083	744.59
715.274	695.37
715.466	700.61
715.657	737.03
715.849	676.19
716.04	713.97
716.232	636.67
716.423	763.77
716.615	684.91
716.806	674.84
716.998	691.89
717.189	650.81
717.381	595.01
717.572	601.6
717.763	643.64
717.955	647.33
718.146	603.35
718.337	587.65
718.528	583.2
718.72	511.32
718.911	607.99
719.102	556.46
719.293	604.31
719.485	587.46
719.676	585.13
719.867	533.98
720.058	539.8
720.249	583.2
720.44	546.19
720.632	572.54
720.823	600.05
721.014	644.03
721.205	620.01
721.396	586.1
721.587	683.36
721.778	684.91
721.969	695.18
722.16	724.44
722.351	680.07
722.542	770.36
722.733	772.68
722.924	709.13
723.115	757.57
723.305	786.82
723.496	767.06
723.687	707.39
723.878	736.84
724.069	731.99
724.26	743.04
724.45	684.53
724.641	674.26
724.832	740.91
725.023	724.24
725.213	729.67
725.404	702.16
725.595	699.64
725.785	713.01
725.976	737.42
726.167	716.49
726.357	708.16
726.548	795.54
726.739	744.2
726.929	775.39
727.12	786.82
727.31	818.99
727.501	764.93
727.691	818.02
727.882	806.78
728.072	839.14
728.263	791.67
728.453	796.51
728.644	802.71
728.834	820.54
729.024	792.44
729.215	797.09
729.405	826.35
729.596	880.98
729.786	889.7
729.976	857.35
730.167	879.05
730.357	840.49
730.547	867.23
730.737	884.08
730.928	899.39
731.118	927.68
731.308	896.68
731.498	865.49
731.688	936.01
731.879	906.37
732.069	956.35
732.259	954.41
732.449	949.57
732.639	1000.91
732.829	987.55
733.019	1004.79
733.209	1059.43
733.399	1054.39
733.589	1081.32
733.779	1067.95
733.969	1001.88
734.159	1084.03
734.349	1126.66
734.539	1144.48
734.729	1126.85
734.919	1170.44
735.109	1158.82
735.299	1157.27
735.488	1124.91
735.678	1157.46
735.868	1140.8
736.058	1160.76
736.248	1117.16
736.437	1139.25
736.627	1112.13
736.817	1207.64
737.007	1168.31
737.196	1205.9
737.386	1177.42
737.576	1142.74
737.765	1190.01
737.955	1177.42
738.144	1263.25
738.334	1185.17
738.524	1181.87
738.713	1217.72
738.903	1246.2
739.092	1233.6
739.282	1249.88
739.471	1245.42
739.661	1195.44
739.85	1248.91
740.04	1259.37
740.229	1263.64
740.419	1262.67
740.608	1275.07
740.797	1251.62
740.987	1342.3
741.176	1322.34
741.365	1218.1
741.555	1275.07
741.744	1300.64
741.933	1302.19
742.123	1295.22
742.312	1321.57
742.501	1336.48
742.69	1334.93
742.88	1283.79
743.069	1393.45
743.258	1281.46
743.447	1371.55
743.636	1364.58
743.825	1310.13
744.014	1316.72
744.204	1378.92
744.393	1307.23
744.582	1400.42
744.771	1412.43
744.96	1345.2
745.149	1385.7
745.338	1354.89
745.527	1383.37
745.716	1372.52
745.905	1344.04
746.094	1354.89
746.283	1396.35
746.471	1366.13
746.66	1440.33
746.849	1397.71
747.038	1448.08
747.227	1366.13
747.416	1408.75
747.604	1398.48
747.793	1387.25
747.982	1397.9
748.171	1396.55
748.359	1435.49
748.548	1394.61
748.737	1407.98
748.926	1374.07
749.114	1345.59
749.303	1382.4
749.491	1387.25
749.68	1319.82
749.869	1428.9
750.057	1398.29
750.246	1386.86
750.434	1379.5
750.623	1399.84
750.811	1400.81
751	1403.52
751.188	1389.57
751.377	1415.92
751.565	1357.41
751.754	1359.54
751.942	1374.46
752.131	1415.34
752.319	1339.78
752.507	1290.37
752.696	1391.51
752.884	1456.61
753.072	1362.45
753.261	1368.26
753.449	1343.27
753.637	1333.97
753.825	1431.03
754.014	1325.83
754.202	1390.35
754.39	1446.73
754.578	1414.76
754.766	1382.79
754.955	1355.67
755.143	1425.41
755.331	1340.36
755.519	1336.29
755.707	1351.4
755.895	1311.3
756.083	1334.35
756.271	1339.2
756.459	1328.15
756.647	1408.75
756.835	1349.66
757.023	1320.98
757.211	1337.84
757.399	1328.93
757.587	1337.26
757.775	1292.31
757.963	1323.89
758.151	1325.44
758.339	1333
758.526	1309.75
758.714	1363.61
758.902	1295.41
759.09	1285.14
759.278	1201.25
759.465	1146.22
759.653	943.37
759.841	966.23
760.028	781.4
760.216	679.49
760.404	698.67
760.591	574.67
760.779	491.94
760.967	404.75
761.154	323.19
761.342	380.73
761.529	353.8
761.717	363.68
761.905	332.49
762.092	364.07
762.28	306.14
762.467	331.52
762.655	290.64
762.842	328.61
763.029	362.13
763.217	353.02
763.404	340.43
763.592	374.92
763.779	308.66
763.966	393.71
764.154	390.61
764.341	407.85
764.528	377.82
764.716	434.4
764.903	414.05
765.09	449.12
765.277	464.43
765.465	578.35
765.652	548.71
765.839	613.81
766.026	637.06
766.213	674.64
766.4	706.42
766.588	808.72
766.775	790.5
766.962	844.17
767.149	812.79
767.336	928.65
767.523	858.7
767.71	931.36
767.897	979.99
768.084	1040.44
768.271	1043.15
768.458	1060.01
768.645	1095.66
768.832	1061.17
769.019	1075.12
769.206	1089.46
769.392	1179.16
769.579	1207.64
769.766	1177.81
769.953	1143.12
770.14	1196.21
770.327	1162.69
770.513	1229.34
770.7	1268.09
770.887	1178.19
771.073	1231.86
771.26	1217.91
771.447	1181.1
771.634	1219.07
771.82	1257.24
772.007	1163.66
772.193	1188.66
772.38	1244.65
772.567	1228.37
772.753	1238.45
772.94	1242.71
773.126	1266.15
773.313	1283.59
773.499	1243.49
773.686	1250.65
773.872	1221.59
774.059	1208.42
774.245	1167.54
774.432	1176.64
774.618	1137.7
774.804	1237.67
774.991	1168.51
775.177	1231.47
775.363	1197.76
775.55	1242.32
775.736	1170.44
775.922	1185.36
776.109	1190.21
776.295	1202.41
776.481	1218.3
776.667	1215.01
776.853	1214.42
777.04	1153.01
777.226	1202.41
777.412	1278.36
777.598	1199.89
777.784	1202.99
777.97	1186.72
778.156	1214.04
778.342	1193.11
778.528	1193.69
778.715	1143.51
778.901	1172.77
779.087	1206.09
779.272	1142.16
779.458	1139.83
779.644	1202.41
779.83	1130.72
780.016	1256.08
780.202	1185.36
780.388	1117.94
780.574	1119.29
780.76	1123.56
780.946	1180.13
781.131	1132.27
781.317	1171.41
781.503	1114.64
781.689	1143.71
781.874	1239.22
782.06	1152.04
782.246	1140.41
782.432	1126.46
782.617	1156.49
782.803	1173.16
782.989	1077.25
783.174	1135.57
783.36	1064.08
783.545	1149.91
783.731	1119.88
783.916	1043.93
784.102	1153.01
784.288	1106.12
784.473	1140.61
784.659	1116.97
784.844	1133.44
785.029	1079.58
785.215	1077.25
785.4	1042.38
785.586	1166.18
785.771	1070.66
785.956	1111.93
786.142	1098.56
786.327	1070.66
786.512	1086.74
786.698	1066.79
786.883	1027.65
787.068	1090.23
787.254	1089.46
787.439	1050.13
787.624	1062.14
787.809	1060.2
787.994	1057.68
788.18	1097.21
788.365	1044.7
788.55	1040.44
788.735	1058.46
788.92	1032.69
789.105	1027.65
789.29	1083.45
789.475	1021.65
789.66	993.94
789.845	1008.08
790.03	1007.89
790.215	1074.54
790.4	1060.39
790.585	1097.21
790.77	1023.2
790.955	968.56
791.14	1023.58
791.325	1072.6
791.51	949.18
791.695	1016.41
791.879	981.54
792.064	982.31
792.249	1065.63
792.434	999.56
792.618	982.7
792.803	1022.42
792.988	980.57
793.173	1006.92
793.357	1054.39
793.542	958.29
793.727	1013.51
793.911	1026.49
794.096	979.21
794.281	982.51
794.465	1063.11
794.65	1013.31
794.834	1016.03
795.019	1057.68
795.203	1037.92
795.388	1052.45
795.572	1066.21
795.757	1037.34
795.941	1038.31
796.126	1063.69
796.31	975.15
796.494	1033.46
796.679	1017.38
796.863	984.25
797.048	1062.33
797.232	1017.19
797.416	1008.28
797.601	995.49
797.785	1095.27
797.969	1042.18
798.153	1004.21
798.338	1011.57
798.522	1050.51
798.706	1036.37
798.89	1036.56
799.074	1112.71
799.258	1047.41
799.443	1021.65
799.627	1003.05
799.811	1056.71
799.995	1021.84
800.179	1025.71
800.363	1015.64
800.547	1054
800.731	1079.58
800.915	986.58
801.099	992
801.283	1028.04
801.467	1044.12
801.651	1026.88
801.835	1104.76
802.019	1055.16
802.202	1011.38
802.386	1006.53
802.57	1017.96
802.754	1006.92
802.938	1019.51
803.121	1027.26
803.305	1052.45
803.489	1038.5
803.673	1042.57
803.856	1035.98
804.04	1018.74
804.224	1032.69
804.407	1048.77
804.591	996.85
804.775	1031.33
804.958	1023.58
805.142	1143.71
805.326	995.3
805.509	1038.89
805.693	1043.34
805.876	1049.54
806.06	1040.44
806.243	1051.87
806.427	1054
806.61	1066.98
806.794	986.96
806.977	1050.13
807.16	1020.87
807.344	1053.61
807.527	1065.43
807.71	1014.86
807.894	1033.85
808.077	1047.61
808.26	1013.31
808.444	992.97
808.627	1049.74
808.81	1024.55
808.993	977.08
809.177	979.41
809.36	984.45
809.543	1038.89
809.726	963.13
809.909	979.02
810.092	956.55
810.276	937.17
810.459	963.71
810.642	956.74
810.825	942.4
811.008	949.18
811.191	867.03
811.374	905.01
811.557	923.8
811.74	990.06
811.923	906.17
812.106	853.86
812.289	824.41
812.472	882.73
812.654	960.23
812.837	859.29
813.02	846.11
813.203	863.35
813.386	784.3
813.569	818.79
813.751	758.15
813.934	821.7
814.117	808.33
814.3	759.7
814.482	721.53
814.665	757.96
814.848	721.14
815.03	702.93
815.213	713.01
815.396	706.81
815.578	666.12
815.761	659.92
815.943	742.26
816.126	683.56
816.309	665.73
816.491	616.52
816.674	598.31
816.856	667.48
817.039	583.97
817.221	687.63
817.403	653.72
817.586	634.73
817.768	675.81
817.951	582.81
818.133	614.78
818.315	624.85
818.498	663.41
818.68	710.87
818.862	651.01
819.045	678.71
819.227	662.05
819.409	666.31
819.591	674.84
819.774	645.39
819.956	622.33
820.138	675.23
820.32	670.96
820.502	654.11
820.684	710.49
820.866	708.74
821.048	729.09
821.231	731.22
821.413	701.77
821.595	720.56
821.777	692.08
821.959	714.36
822.141	806.78
822.323	700.61
822.505	659.34
822.686	692.27
822.868	661.86
823.05	592.5
823.232	613.61
823.414	570.02
823.596	618.26
823.778	574.86
823.96	587.85
824.141	574.09
824.323	613.23
824.505	603.54
824.687	632.6
824.868	650.23
825.05	718.04
825.232	731.61
825.413	785.66
825.595	704.67
825.777	665.54
825.958	715.33
826.14	696.73
826.321	719.79
826.503	706.22
826.685	717.66
826.866	710.49
827.048	737.42
827.229	689.56
827.411	684.53
827.592	661.08
827.773	695.37
827.955	640.35
828.136	669.41
828.318	600.05
828.499	626.59
828.68	589.98
828.862	666.51
829.043	716.11
829.224	678.91
829.406	616.52
829.587	624.27
829.768	616.13
829.949	662.24
830.131	618.46
830.312	690.34
830.493	594.43
830.674	627.18
830.855	611.29
831.036	637.44
831.218	690.53
831.399	695.37
831.58	649.26
831.761	667.48
831.942	663.6
832.123	636.67
832.304	582.61
832.485	621.56
832.666	651.59
832.847	635.89
833.028	640.35
833.209	672.71
833.389	636.48
833.57	593.08
833.751	609.35
833.932	696.54
834.113	608.58
834.294	607.61
834.475	652.75
834.655	675.81
834.836	679.88
835.017	643.45
835.198	597.15
835.378	616.71
835.559	663.79
835.74	622.72
835.92	602.38
836.101	595.21
836.281	664.38
836.462	653.72
836.643	663.79
836.823	679.29
837.004	663.41
837.184	708.36
837.365	677.36
837.545	682.59
837.726	675.81
837.906	705.84
838.087	675.23
838.267	674.64
838.448	612.45
838.628	653.33
838.808	655.66
838.989	719.01
839.169	629.11
839.349	689.18
839.53	684.72
839.71	691.11
839.89	643.06
840.07	708.55
840.251	647.91
840.431	673.87
840.611	643.45
840.791	620.01
840.971	666.31
841.151	632.99
841.332	639.96
841.512	715.33
841.692	588.81
841.872	671.93
842.052	676.39
842.232	639.96
842.412	594.63
842.592	670.38
842.772	656.24
842.952	675.61
843.132	608.38
843.312	638.61
843.492	631.24
843.672	680.65
843.851	584.16
844.031	678.52
844.211	661.86
844.391	631.63
844.571	644.61
844.751	686.85
844.93	642.09
845.11	639.19
845.29	667.67
845.47	670.77
845.649	634.15
845.829	671.54
846.009	612.64
846.188	664.76
846.368	645.58
846.547	679.68
846.727	680.26
846.907	595.79
847.086	640.35
847.266	670.77
847.445	651.78
847.625	603.73
847.804	613.81
847.984	643.45
848.163	590.17
848.343	602.18
848.522	617.68
848.701	644.03
848.881	591.53
849.06	627.56
849.239	636.28
849.419	653.91
849.598	606.25
849.777	594.24
849.957	631.05
850.136	550.06
850.315	584.55
850.494	558.98
850.674	552.78
850.853	612.26
851.032	573.12
851.211	655.66
851.39	592.5
851.569	552.58
851.748	539.21
851.927	621.17
852.107	574.48
852.286	529.91
852.465	534.37
852.644	605.09
852.823	562.66
853.002	580.1
853.181	591.14
853.359	598.5
853.538	532.24
853.717	630.86
853.896	531.08
854.075	499.69
854.254	527.59
854.433	492.33
854.611	547.35
854.79	495.23
854.969	532.43
855.148	552.97
855.327	480.7
855.505	530.69
855.684	516.93
855.863	534.18
856.041	507.25
856.22	535.73
856.399	499.3
856.577	567.89
856.756	554.13
856.934	633.76
857.113	651.2
857.291	548.71
857.47	535.15
857.648	541.73
857.827	574.86
858.005	567.5
858.184	552.2
858.362	600.44
858.541	575.25
858.719	535.53
858.898	535.92
859.076	550.65
859.254	609.93
859.433	527.78
859.611	505.12
859.789	515.58
859.967	591.72
860.146	580.48
860.324	521.39
860.502	544.06
860.68	487.1
860.859	501.24
861.037	546.96
861.215	569.05
861.393	534.37
861.571	501.43
861.749	523.13
861.927	545.22
862.105	540.38
862.283	488.07
862.461	494.27
862.639	510.93
862.817	497.17
862.995	517.32
863.173	500.08
863.351	510.93
863.529	499.11
863.707	540.57
863.885	521.39
864.063	481.28
864.241	474.89
864.418	560.14
864.596	505.5
864.774	482.25
864.952	511.9
865.129	527.4
865.307	501.05
865.485	452.61
865.663	573.12
865.84	471.79
866.018	511.51
866.196	412.7
866.373	429.75
866.551	437.3
866.728	380.15
866.906	422.77
867.084	434.2
867.261	476.25
867.439	456.29
867.616	475.47
867.794	476.05
867.971	482.25
868.149	474.7
868.326	493.49
868.503	522.36
868.681	476.44
868.858	449.9
869.035	418.9
869.213	499.11
869.39	474.12
869.567	538.83
869.745	448.35
869.922	463.27
870.099	504.73
870.276	500.66
870.454	488.65
870.631	488.45
870.808	446.22
870.985	507.44
871.162	517.9
871.339	477.8
871.517	440.21
871.694	449.9
871.871	467.53
872.048	472.57
872.225	453.58
872.402	486.71
872.579	408.05
872.756	475.08
872.933	436.53
873.11	455.32
873.287	435.17
873.463	458.42
873.64	421.8
873.817	458.62
873.994	446.22
874.171	443.5
874.348	456.87
874.524	379.57
874.701	470.82
874.878	364.26
875.055	444.67
875.231	450.67
875.408	470.82
875.585	398.75
875.762	438.66
875.938	428.2
876.115	455.71
876.291	439.82
876.468	412.31
876.645	388.67
876.821	414.25
876.998	396.23
877.174	460.94
877.351	412.7
877.527	427.81
877.704	429.75
877.88	429.36
878.057	407.85
878.233	434.01
878.409	407.08
878.586	458.42
878.762	397
878.938	420.64
879.115	345.85
879.291	415.22
879.467	352.64
879.644	386.54
879.82	423.35
879.996	406.3
880.172	353.22
880.349	374.53
880.525	417.15
880.701	368.72
880.877	398.36
881.053	403.79
881.229	395.84
881.405	449.9
881.581	369.69
881.757	382.67
881.933	392.16
882.109	394.29
882.285	375.5
882.461	376.27
882.637	407.66
882.813	376.85
882.989	392.16
883.165	418.7
883.341	352.25
883.517	407.85
883.693	436.14
883.869	422.39
884.044	379.18
884.22	416.77
884.396	467.92
884.572	429.55
884.747	429.75
884.923	454.55
885.099	434.98
885.275	422.97
885.45	373.37
885.626	359.8
885.801	345.85
885.977	394.87
886.153	324.35
886.328	397.78
886.504	361.94
886.679	415.41
886.855	364.07
887.03	409.99
887.206	420.06
887.381	383.64
887.557	395.84
887.732	405.14
887.908	437.69
888.083	428.39
888.258	396.04
888.434	356.32
888.609	372.01
888.784	407.27
888.96	360.19
889.135	329.77
889.31	358.06
889.485	398.55
889.661	366
889.836	416.57
890.011	425.49
890.186	383.05
890.361	367.94
890.537	414.05
890.712	383.05
890.887	402.04
891.062	408.63
891.237	437.88
891.412	350.7
891.587	393.32
891.762	446.02
891.937	435.75
892.112	375.11
892.287	404.37
892.462	346.05
892.637	329.19
892.812	349.73
892.987	349.34
893.161	361.35
893.336	341.21
893.511	379.37
893.686	344.69
893.861	352.25
894.035	358.25
894.21	366.97
894.385	309.62
894.56	355.93
894.734	309.82
894.909	316.41
895.084	332.87
895.258	329
895.433	358.45
895.608	314.47
895.782	265.84
895.957	337.33
896.131	321.64
896.306	268.55
896.48	280.95
896.655	296.26
896.829	267.77
897.004	272.23
897.178	268.74
897.353	244.14
897.527	292.77
897.701	272.42
897.876	198.41
898.05	295.67
898.224	278.82
898.399	312.14
898.573	284.82
898.747	200.74
898.921	290.25
899.096	213.53
899.27	239.49
899.444	205.78
899.618	240.46
899.792	214.3
899.967	239.1
900.141	271.07
900.315	194.54
900.489	226.31
900.663	249.37
900.837	238.71
901.011	212.94
901.185	285.02
901.359	248.98
901.533	245.69
901.707	240.07
901.881	234.06
902.055	205.39
902.229	223.6
902.403	287.34
902.576	234.45
902.75	241.04
902.924	326.09
903.098	273.39
903.272	268.36
903.446	310.4
903.619	273.01
903.793	292.38
903.967	256.34
904.14	291.61
904.314	299.36
904.488	281.53
904.661	340.82
904.835	276.3
905.009	315.24
905.182	363.87
905.356	314.66
905.529	285.79
905.703	262.74
905.876	285.41
906.05	220.89
906.223	240.26
906.397	209.84
906.57	219.53
906.744	232.32
906.917	235.23
907.09	225.54
907.264	225.54
907.437	209.84
907.61	193.57
907.784	232.51
907.957	242.78
908.13	195.51
908.304	243.56
908.477	197.06
908.65	239.1
908.823	179.62
908.996	273.97
909.17	215.66
909.343	215.66
909.516	224.96
909.689	213.14
909.862	172.06
910.035	211.01
910.208	166.06
910.381	172.45
910.554	279.01
910.727	182.91
910.9	192.21
911.073	162.38
911.246	234.45
911.419	232.51
911.592	218.37
911.765	188.14
911.938	200.16
912.11	189.11
912.283	187.76
912.456	246.46
912.629	224.18
912.802	198.41
912.974	179.81
913.147	143.97
913.32	149.2
913.493	172.45
913.665	166.64
913.838	185.82
914.01	188.34
914.183	170.32
914.356	148.04
914.528	181.75
914.701	235.81
914.873	219.14
915.046	185.82
915.218	164.12
915.391	127.11
915.563	149.98
915.736	204.61
915.908	188.34
916.081	173.42
916.253	120.14
916.425	174.39
916.598	199.58
916.77	171.09
916.942	148.62
917.115	103.28
917.287	192.02
917.459	202.68
917.632	171.68
917.804	89.72
917.976	167.03
918.148	148.81
918.32	142.81
918.493	184.66
918.665	205.39
918.837	169.74
919.009	193.96
919.181	201.9
919.353	187.18
919.525	144.94
919.697	183.88
919.869	150.36
920.041	217.59
920.213	262.16
920.385	200.74
920.557	179.81
920.729	212.36
920.901	196.48
921.073	179.62
921.244	165.48
921.416	226.7
921.588	188.92
921.76	167.61
921.932	251.69
922.103	169.93
922.275	170.51
922.447	209.46
922.619	109.68
922.79	159.86
922.962	146.3
923.134	204.42
923.305	161.6
923.477	131.76
923.648	133.12
923.82	165.86
923.991	140.87
924.163	118.4
924.335	153.46
924.506	135.25
924.677	172.64
924.849	114.71
925.02	167.99
925.192	203.26
925.363	167.99
925.535	167.41
925.706	127.89
925.877	207.13
926.049	137.96
926.22	141.65
926.391	187.18
926.562	191.44
926.734	129.63
926.905	177.1
927.076	94.18
927.247	151.91
927.419	132.35
927.59	145.52
927.761	130.21
927.932	122.66
928.103	174.58
928.274	105.8
928.445	109.1
928.616	103.67
928.787	111.23
928.958	158.7
929.129	122.08
929.3	117.04
929.471	83.33
929.642	77.32
929.813	36.63
929.984	118.98
930.155	50.39
930.326	84.68
930.496	74.22
930.667	30.05
930.838	94.37
931.009	39.54
931.18	83.33
931.35	80.23
931.521	91.66
931.692	13.38
931.863	4.86
932.033	45.55
932.204	59.11
932.374	64.53
932.545	16.1
932.716	78.87
932.886	91.46
933.057	-7.54
933.227	23.65
933.398	98.44
933.568	29.85
933.739	-1.34
933.909	24.82
934.08	86.23
934.25	-12
934.421	17.45
934.591	21.91
934.761	-20.52
934.932	-46.1
935.102	15.52
935.272	-3.08
935.443	-10.45
935.613	-1.53
935.783	30.05
935.953	-15.29
936.123	137.77
936.294	-35.05
936.464	31.98
936.634	-0.37
936.804	-14.9
936.974	-56.56
937.144	17.65
937.314	32.57
937.484	6.22
937.655	-17.23
937.825	48.45
937.995	-3.47
938.165	56.01
938.334	-20.33
938.504	31.6
938.674	-9.48
938.844	15.13
939.014	56.78
939.184	19.97
939.354	73.45
939.524	46.52
939.694	46.13
939.863	37.6
940.033	85.46
940.203	76.55
940.373	65.12
940.542	84.3
940.712	41.09
940.882	59.3
941.051	64.73
941.221	69.96
941.391	95.53
941.56	-20.71
941.73	-9.86
941.899	135.83
942.069	6.6
942.238	67.44
942.408	21.52
942.577	86.43
942.747	61.43
942.916	-26.14
943.086	1.18
943.255	75.58
943.425	41.87
943.594	23.65
943.763	-20.52
943.933	-12
944.102	-18.78
944.271	47.1
944.441	38.77
944.61	9.51
944.779	44.19
944.948	93.79
945.117	-33.7
945.287	33.34
945.456	-40.86
945.625	17.26
945.794	25.59
945.963	17.84
946.132	60.66
946.301	18.03
946.47	59.3
946.639	-18.39
946.808	-26.53
946.977	50.78
947.146	73.25
947.315	12.22
947.484	32.76
947.653	13.77
947.822	32.57
947.991	-0.37
948.16	113.36
948.329	52.91
948.498	25.98
948.666	25.01
948.835	54.65
949.004	6.41
949.173	-18.2
949.341	43.03
949.51	52.91
949.679	75.97
949.847	57.56
950.016	110.06
950.185	56.4
950.353	17.65
950.522	-27.69
950.69	52.13
950.859	-4.63
951.028	61.43
951.196	32.95
951.365	-26.72
951.533	34.5
951.701	56.98
951.87	34.7
952.038	-10.83
952.207	39.35
952.375	83.91
952.543	-17.42
952.712	31.02
952.88	-10.45
953.048	97.08
953.217	33.15
953.385	26.95
953.553	46.52
953.721	-12.38
953.89	36.83
954.058	-11.03
954.226	0.79
954.394	40.9
954.562	-15.87
954.73	-3.28
954.898	-2.31
955.067	47.1
955.235	-9.67
955.403	44.38
955.571	105.03
955.739	60.66
955.907	-22.07
956.075	0.98
956.243	4.47
956.41	67.05
956.578	-29.82
956.746	-27.88
956.914	15.13
957.082	33.73
957.25	39.54
957.418	-5.8
957.585	11.25
957.753	80.23
957.921	-32.73
958.089	19.78
958.256	51.94
958.424	37.99
958.592	23.27
958.759	19.39
958.927	64.73
959.095	7.77
959.262	36.83
959.43	46.52
959.597	16.29
959.765	8.93
959.932	-8.31
960.1	66.86
960.267	0.4
960.435	13.97
960.602	56.4
960.77	6.8
960.937	-5.6
961.104	13
961.272	-9.09
961.439	6.8
961.606	40.32
961.774	31.6
961.941	19.97
962.108	48.45
962.275	51.75
962.443	58.33
962.61	38.96
962.777	78.87
962.944	75.77
963.111	34.7
963.278	32.37
963.446	46.32
963.613	38.77
963.78	53.88
963.947	58.33
964.114	20.94
964.281	97.08
964.448	50
964.615	-0.37
964.782	31.21
964.949	65.7
965.116	61.43
965.282	74.42
965.449	28.11
965.616	-18.78
965.783	43.61
965.95	37.41
966.117	31.98
966.283	28.3
966.45	27.72
966.617	45.93
966.784	66.47
966.95	63.37
967.117	41.28
967.284	-39.51
967.45	34.5
967.617	96.7
967.784	42.06
967.95	107.35
968.117	18.23
968.283	61.82
968.45	106
968.616	41.09
968.783	88.36
968.949	40.32
969.116	72.67
969.282	59.11
969.449	34.12
969.615	46.32
969.781	-12.19
969.948	-6.96
970.114	22.3
970.28	75.77
970.447	34.89
970.613	49.42
970.779	25.78
970.945	61.63
971.112	25.98
971.278	34.7
971.444	7.38
971.61	65.7
971.776	12.8
971.942	43.61
972.108	65.12
972.275	17.26
972.441	34.89
972.607	99.6
972.773	17.84
972.939	40.32
973.105	57.56
973.271	13.38
973.437	45.93
973.602	7.57
973.768	71.12
973.934	32.76
974.1	51.36
974.266	-54.81
974.432	56.78
974.598	16.48
974.763	65.89
974.929	37.8
975.095	88.95
975.261	3.12
975.426	24.04
975.592	57.75
975.758	81
975.923	6.6
976.089	36.44
976.255	92.82
976.42	48.84
976.586	36.63
976.751	28.69
976.917	121.69
977.082	54.27
977.248	9.9
977.413	-5.99
977.579	17.65
977.744	56.78
977.91	-3.28
978.075	18.81
978.24	61.43
978.406	8.15
978.571	37.41
978.736	-6.38
978.902	49.03
979.067	-12.38
979.232	-3.86
979.397	35.08
979.563	103.67
979.728	-0.95
979.893	45.35
980.058	9.12
980.223	81.39
980.388	11.25
980.554	52.13
980.719	34.5
980.884	22.49
981.049	58.14
981.214	13.19
981.379	63.76
981.544	29.66
981.709	26.17
981.874	17.65
982.039	35.28
982.204	47.87
982.368	61.05
982.533	13.58
982.698	84.1
982.863	87.98
983.028	0.21
983.193	60.47
983.357	54.27
983.522	21.72
983.687	16.1
983.852	38.38
984.016	11.06
984.181	49.42
984.346	42.06
984.51	51.75
984.675	32.95
984.839	66.86
985.004	17.07
985.168	65.12
985.333	46.9
985.498	37.02
985.662	35.28
985.827	49.42
985.991	21.52
986.155	42.83
986.32	40.32
986.484	98.05
986.649	39.93
986.813	-9.86
986.977	41.67
987.142	46.9
987.306	-3.47
987.47	7.18
987.634	14.74
987.799	74.61
987.963	38.38
988.127	59.11
988.291	87.98
988.455	64.15
988.62	8.93
988.784	34.7
988.948	45.74
989.112	35.28
989.276	55.23
989.44	28.69
989.604	5.25
989.768	20.17
989.932	76.35
990.096	15.52
990.26	-16.65
990.424	-11.22
990.588	31.79
990.752	102.51
990.915	65.89
991.079	56.78
991.243	-5.6
991.407	68.6
991.571	25.2
991.734	56.98
991.898	60.85
992.062	102.31
992.226	15.52
992.389	23.27
992.553	-5.8
992.717	28.5
992.88	17.26
993.044	42.06
993.207	29.47
993.371	52.33
993.535	49.03
993.698	55.04
993.862	61.82
994.025	82.36
994.189	54.46
994.352	60.47
994.515	48.26
994.679	84.1
994.842	35.47
995.006	49.03
995.169	-13.55
995.332	-2.31
995.496	54.85
995.659	-25.36
995.822	46.32
995.985	19.58
996.149	66.86
996.312	18.23
996.475	104.64
996.638	3.89
996.801	88.36
996.964	85.26
997.128	33.92
997.291	28.5
997.454	40.32
997.617	-22.26
997.78	72.09
997.943	33.34
998.106	45.55
998.269	24.04
998.432	23.65
998.595	26.56
998.758	-28.85
998.92	-5.41
999.083	4.47
999.246	21.33
999.409	-18.2
999.572	-29.63
999.735	11.45
999.897	47.68
1000.06	-1.92
1000.223	19.39
1000.386	35.08
1000.548	47.48
1000.711	35.67
1000.874	48.84
1001.036	-37.38
1001.199	61.43
1001.361	1.57
1001.524	55.23
1001.687	44.77
1001.849	-27.69
1002.012	26.17
1002.174	61.05
1002.337	41.09
1002.499	17.65
1002.661	78.1
1002.824	-23.62
1002.986	4.08
1003.149	25.4
1003.311	-29.82
1003.473	98.63
1003.636	-22.85
1003.798	43.8
1003.96	39.93
1004.123	-13.55
1004.285	15.71
1004.447	7.77
1004.609	11.83
1004.771	78.29
1004.933	-0.18
1005.096	-5.99
1005.258	-23.04
1005.42	16.29
1005.582	36.63
1005.744	31.98
1005.906	-25.56
1006.068	9.51
1006.23	-35.44
1006.392	-28.85
1006.554	-4.44
1006.716	61.43
1006.878	48.65
1007.04	0.21
1007.202	14.35
1007.363	-6.38
1007.525	30.63
1007.687	22.68
1007.849	68.99
1008.011	-42.41
1008.172	-34.86
1008.334	10.87
1008.496	22.88
1008.658	-21.1
1008.819	-1.53
1008.981	-20.91
1009.143	4.08
1009.304	7.96
1009.466	28.5
1009.627	64.15
1009.789	130.02
1009.95	29.85
1010.112	11.45
1010.273	30.82
1010.435	-6.77
1010.596	8.35
1010.758	4.67
1010.919	8.73
1011.081	-14.71
1011.242	14.35
1011.403	60.47
1011.565	10.48
1011.726	46.52
1011.887	-29.63
1012.049	-23.62
1012.21	55.82
1012.371	70.35
1012.532	-59.46
1012.693	0.6
1012.855	-2.31
1013.016	8.93
1013.177	46.32
1013.338	16.1
1013.499	84.1
1013.66	44.77
1013.821	31.21
1013.982	23.27
1014.143	31.6
1014.304	-14.32
1014.465	30.43
1014.626	33.34
1014.787	-3.67
1014.948	70.93
1015.109	-65.66
1015.27	65.31
1015.431	-0.37
1015.592	-21.88
1015.752	62.98
1015.913	8.73
1016.074	13.58
1016.235	1.95
1016.395	0.79
1016.556	-10.06
1016.717	20.75
1016.877	58.53
1017.038	-5.99
1017.199	8.73
1017.359	2.53
1017.52	28.88
1017.681	-1.34
1017.841	10.09
1018.002	14.74
1018.162	-16.26
1018.323	67.05
1018.483	-0.37
1018.644	3.89
1018.804	-49
1018.964	-4.44
1019.125	7.96
1019.285	9.9
1019.446	-23.62
1019.606	-14.32
1019.766	-44.55
1019.926	10.48
1020.087	33.53
1020.247	-58.11
1020.407	23.85
1020.567	49.23
1020.728	12.61
1020.888	-25.56
1021.048	5.63
1021.208	-18.39
1021.368	-1.15
1021.528	56.2
1021.688	21.72
1021.848	42.45
1022.008	32.37
1022.168	-14.13
1022.328	0.79
1022.488	27.92
1022.648	-10.45
1022.808	-7.15
1022.968	32.95
1023.128	-2.7
1023.288	9.32
1023.448	2.92
1023.608	57.37
1023.767	30.43
1023.927	-6.18
1024.087	-12
1024.247	-22.46
1024.406	-20.13
1024.566	-18.97
1024.726	-37.38
1024.885	14.55
1025.045	47.68
1025.205	-6.57
1025.364	-7.35
1025.524	18.62
1025.683	0.4
1025.843	29.47
1026.003	14.74
1026.162	55.82
1026.321	58.92
1026.481	6.02
1026.64	-4.44
1026.8	29.08
1026.959	23.65
1027.119	-16.45
1027.278	-20.52
1027.437	-27.5
1027.597	7.57
1027.756	29.08
1027.915	-0.95
1028.074	57.17
1028.234	-22.85
1028.393	24.82
1028.552	-19.16
1028.711	-83.3
1028.87	67.44
1029.03	-46.29
1029.189	-1.73
1029.348	-45.9
1029.507	-23.43
1029.666	-14.51
1029.825	-27.3
1029.984	-12
1030.143	34.5
1030.302	6.41
1030.461	-37.57
1030.62	10.28
1030.779	32.37
1030.938	-30.79
1031.097	-22.65
1031.255	14.55
1031.414	57.75
1031.573	52.13
1031.732	-59.08
1031.891	-3.08
1032.049	31.6
1032.208	13.77
1032.367	-22.26
1032.525	-9.09
1032.684	8.93
1032.843	-6.96
1033.001	-54.04
1033.16	153.66
1033.319	51.36
1033.477	20.17
1033.636	6.22
1033.794	-26.91
1033.953	11.06
1034.111	25.2
1034.27	-3.28
1034.428	20.17
1034.587	-18.39
1034.745	9.12
1034.903	-15.48
1035.062	9.9
1035.22	-48.61
1035.378	23.07
1035.537	-1.34
1035.695	19.97
1035.853	4.28
1036.011	70.35
1036.17	31.02
1036.328	-56.56
1036.486	11.06
1036.644	25.98
1036.802	-91.82
1036.96	2.34
1037.119	-13.55
1037.277	-17.23
1037.435	-32.53
1037.593	-37.38
1037.751	-0.57
1037.909	17.84
1038.067	17.84
