Data from pine_FLMT105791__138__17-22-37-075.txt Node

Date: Mon Mar 20 17:22:37 GMT 2023
User: antho
Spectrometer: FLMT10579
Trigger mode: 0
Integration Time (sec): 1.000000E-1
Scans to average: 10
Electric dark correction enabled: true
Nonlinearity correction enabled: false
Boxcar width: 0
XAxis mode: Wavelengths
Number of Pixels in Spectrum: 3648
>>>>>Begin Spectral Data<<<<<
345.248	-171.95
345.464	-171.95
345.681	-171.95
345.898	-174.28
346.114	-173.69
346.331	-26.06
346.548	23.73
346.764	-23.35
346.981	-15.79
347.197	-21.41
347.414	30.32
347.631	-20.83
347.847	67.33
348.064	-2.03
348.28	26.25
348.497	-53.18
348.713	15.02
348.93	27.42
349.146	11.33
349.363	-14.05
349.579	2.81
349.796	-1.45
350.012	-20.05
350.229	23.15
350.445	-6.88
350.661	-12.5
350.878	8.62
351.094	3.2
351.311	17.34
351.527	30.9
351.743	4.36
351.96	60.93
352.176	67.91
352.392	29.35
352.609	23.54
352.825	-11.53
353.041	2.42
353.257	-19.08
353.474	11.53
353.69	-4.36
353.906	15.98
354.122	-44.27
354.339	34.2
354.555	-7.46
354.771	-9.2
354.987	64.03
355.203	31.29
355.42	36.91
355.636	7.46
355.852	-1.65
356.068	-14.05
356.284	-15.02
356.5	46.4
356.716	13.27
356.932	7.85
357.148	35.75
357.364	-0.68
357.58	72.75
357.796	51.25
358.012	53.38
358.228	40.01
358.444	-55.7
358.66	82.25
358.876	7.27
359.092	-8.04
359.308	31.87
359.524	28.38
359.74	-16.76
359.956	-3.97
360.172	12.69
360.388	28.97
360.604	-9.4
360.819	99.3
361.035	-8.62
361.251	43.69
361.467	-6.49
361.683	54.93
361.898	9.4
362.114	21.99
362.33	9.4
362.546	34.39
362.762	-4.94
362.977	32.26
363.193	-7.07
363.409	32.65
363.624	-20.05
363.84	-31.48
364.056	18.12
364.271	28.38
364.487	37.3
364.703	2.03
364.918	-25.48
365.134	3.78
365.35	11.92
365.565	114.02
365.781	33.62
365.996	22.77
366.212	72.75
366.427	24.7
366.643	5.52
366.858	25.67
367.074	-6.49
367.289	58.22
367.505	84.18
367.72	-33.42
367.936	-30.71
368.151	37.1
368.367	24.32
368.582	12.69
368.798	-7.65
369.013	40.98
369.228	15.98
369.444	2.42
369.659	54.15
369.874	61.32
370.09	84.96
370.305	-59
370.52	3
370.736	60.35
370.951	34.2
371.166	62.68
371.381	78.76
371.597	36.91
371.812	-16.57
372.027	-18.31
372.242	6.88
372.458	65.97
372.673	19.47
372.888	19.08
373.103	26.64
373.318	121.58
373.533	16.76
373.749	37.49
373.964	-8.43
374.179	93.29
374.394	-7.85
374.609	53.76
374.824	-20.25
375.039	54.15
375.254	-11.92
375.469	79.92
375.684	43.5
375.899	50.66
376.114	44.66
376.329	34.39
376.544	55.51
376.759	58.61
376.974	-17.73
377.189	13.47
377.404	22.57
377.619	45.43
377.834	-29.35
378.049	-18.89
378.264	-30.32
378.478	29.35
378.693	0.48
378.908	32.65
379.123	19.67
379.338	72.95
379.553	44.46
379.767	33.23
379.982	24.51
380.197	49.7
380.412	20.25
380.626	70.62
380.841	99.88
381.056	31.87
381.271	67.52
381.485	1.07
381.7	-8.04
381.915	48.53
382.129	-2.03
382.344	35.17
382.559	20.25
382.773	55.7
382.988	-26.64
383.202	32.65
383.417	-15.6
383.632	118.67
383.846	25.48
384.061	35.55
384.275	15.21
384.49	20.44
384.704	63.45
384.919	15.6
385.133	33.03
385.348	70.81
385.562	5.13
385.777	82.05
385.991	26.64
386.206	29.74
386.42	4.17
386.634	51.44
386.849	32.84
387.063	28.38
387.277	3.39
387.492	-2.81
387.706	-27.8
387.92	-11.33
388.135	74.69
388.349	50.66
388.563	57.06
388.778	44.85
388.992	56.09
389.206	45.24
389.42	107.63
389.635	35.55
389.849	37.3
390.063	64.61
390.277	51.83
390.491	78.37
390.706	49.5
390.92	61.71
391.134	40.59
391.348	47.56
391.562	21.22
391.776	59
391.99	6.88
392.205	69.65
392.419	28.19
392.633	37.1
392.847	83.21
393.061	-13.85
393.275	88.45
393.489	49.89
393.703	33.23
393.917	75.66
394.131	-10.95
394.345	46.01
394.559	53.96
394.773	-0.87
394.986	51.44
395.2	33.23
395.414	63.84
395.628	-16.18
395.842	46.21
396.056	17.73
396.27	-39.43
396.484	36.52
396.697	56.48
396.911	60.35
397.125	59.38
397.339	43.69
397.553	47.56
397.766	102.4
397.98	65.58
398.194	69.26
398.408	17.92
398.621	63.84
398.835	68.88
399.049	45.24
399.262	80.11
399.476	82.05
399.69	72.75
399.903	100.46
400.117	36.72
400.331	63.26
400.544	5.52
400.758	139.01
400.971	68.1
401.185	102.98
401.398	22.38
401.612	86.9
401.826	59.58
402.039	73.91
402.253	34.39
402.466	61.51
402.68	26.83
402.893	64.23
403.106	52.21
403.32	28.77
403.533	75.46
403.747	50.86
403.96	66.94
404.174	90.96
404.387	20.44
404.6	57.83
404.814	73.91
405.027	60.93
405.24	43.69
405.454	28.97
405.667	115.96
405.88	-5.72
406.094	75.08
406.307	100.07
406.52	45.24
406.733	15.02
406.947	15.98
407.16	117.31
407.373	101.23
407.586	29.35
407.799	-1.26
408.012	95.61
408.226	88.64
408.439	108.98
408.652	11.72
408.865	63.84
409.078	95.81
409.291	85.35
409.504	30.9
409.717	44.27
409.93	68.68
410.143	80.89
410.357	18.89
410.57	35.36
410.783	65.78
410.996	85.15
411.209	59
411.421	104.91
411.634	49.89
411.847	30.9
412.06	69.46
412.273	44.66
412.486	66.94
412.699	147.73
412.912	85.93
413.125	85.35
413.338	62.48
413.55	70.81
413.763	52.99
413.976	90.58
414.189	27.42
414.402	58.41
414.615	125.84
414.827	34
415.04	93.1
415.253	77.4
415.466	83.6
415.678	128.55
415.891	58.8
416.104	60.35
416.316	79.34
416.529	48.92
416.742	91.93
416.954	116.35
417.167	60.74
417.38	84.38
417.592	105.5
417.805	56.28
418.017	38.65
418.23	82.83
418.442	77.21
418.655	33.03
418.868	93.29
419.08	98.33
419.293	111.5
419.505	93.29
419.718	105.5
419.93	113.83
420.142	66.94
420.355	111.31
420.567	133.98
420.78	113.44
420.992	77.79
421.205	160.13
421.417	29.16
421.629	79.15
421.842	72.17
422.054	48.53
422.266	94.84
422.479	112.08
422.691	94.06
422.903	112.08
423.115	79.73
423.328	56.28
423.54	88.25
423.752	76.82
423.964	51.63
424.177	90.96
424.389	83.02
424.601	186.29
424.813	128.94
425.025	128.55
425.238	128.16
425.45	93.29
425.662	95.81
425.874	389.14
426.086	79.92
426.298	109.37
426.51	114.99
426.722	101.43
426.934	85.35
427.146	115.76
427.358	58.22
427.57	108.21
427.782	121
427.994	79.53
428.206	99.68
428.418	64.03
428.63	111.5
428.842	145.99
429.054	113.83
429.266	132.62
429.478	82.44
429.69	127.2
429.902	55.7
430.114	131.26
430.325	119.45
430.537	69.07
430.749	78.37
430.961	69.26
431.173	94.26
431.384	100.85
431.596	49.5
431.808	96.78
432.02	115.96
432.231	137.46
432.443	182.61
432.655	139.4
432.867	101.81
433.078	128.16
433.29	169.82
433.502	170.59
433.713	162.46
433.925	134.56
434.136	164.59
434.348	104.72
434.56	57.45
434.771	215.74
434.983	94.45
435.194	102.4
435.406	106.66
435.617	191.91
435.829	236.66
436.04	181.25
436.252	156.45
436.463	196.94
436.675	173.5
436.886	170.4
437.098	158.97
437.309	190.74
437.521	149.86
437.732	182.61
437.943	133.39
438.155	174.08
438.366	103.17
438.578	213.03
438.789	194.23
439	180.86
439.211	164.59
439.423	164.59
439.634	167.11
439.845	187.06
440.057	180.28
440.268	194.23
440.479	141.14
440.69	175.63
440.902	132.62
441.113	150.44
441.324	165.75
441.535	168.46
441.746	200.24
441.957	164.78
442.168	137.46
442.38	187.45
442.591	222.71
442.802	158.58
443.013	174.66
443.224	205.08
443.435	178.93
443.646	198.49
443.857	204.11
444.068	172.92
444.279	153.54
444.49	261.46
444.701	201.59
444.912	300.21
445.123	237.24
445.334	219.61
445.545	192.49
445.756	186.29
445.967	172.14
446.178	219.81
446.388	224.84
446.599	248.48
446.81	233.56
447.021	199.46
447.232	237.63
447.443	245.38
447.653	180.09
447.864	242.28
448.075	220.19
448.286	238.41
448.496	233.76
448.707	249.26
448.918	210.7
449.129	315.71
449.339	211.48
449.55	226.39
449.761	189.58
449.971	249.26
450.182	216.13
450.393	255.84
450.603	235.69
450.814	293.82
451.024	250.03
451.235	295.17
451.446	284.91
451.656	303.89
451.867	221.55
452.077	241.89
452.288	294.4
452.498	299.82
452.709	260.3
452.919	260.88
453.13	224.26
453.34	278.9
453.55	208.18
453.761	276.38
453.971	275.99
454.182	273.28
454.392	250.03
454.602	334.5
454.813	289.94
455.023	273.86
455.233	201.4
455.444	244.61
455.654	210.7
455.864	248.09
456.075	250.61
456.285	230.46
456.495	250.22
456.705	290.91
456.916	328.69
457.126	317.26
457.336	267.47
457.546	204.31
457.756	233.56
457.967	292.07
458.177	275.02
458.387	270.57
458.597	260.88
458.807	263.79
459.017	253.71
459.227	276.96
459.437	265.72
459.647	296.92
459.857	305.06
460.068	248.67
460.278	303.7
460.488	305.44
460.698	347.68
460.908	287.04
461.117	254.29
461.327	265.72
461.537	303.12
461.747	285.1
461.957	287.23
462.167	388.17
462.377	318.04
462.587	312.03
462.797	350.39
463.007	293.43
463.216	320.17
463.426	330.82
463.636	328.3
463.846	254.68
464.056	278.12
464.265	338.77
464.475	279.87
464.685	287.04
464.895	291.49
465.104	296.34
465.314	317.07
465.524	287.81
465.733	281.61
465.943	368.22
466.153	381.78
466.362	341.09
466.572	332.95
466.782	296.14
466.991	338.57
467.201	371.12
467.41	265.14
467.62	324.04
467.829	335.09
468.039	349.23
468.249	329.27
468.458	309.51
468.668	363.76
468.877	339.74
469.086	374.61
469.296	405.22
469.505	323.46
469.715	403.09
469.924	339.15
470.134	417.82
470.343	385.07
470.552	355.62
470.762	306.99
470.971	294.21
471.18	350.59
471.39	330.82
471.599	315.52
471.808	409.29
472.018	328.11
472.227	398.05
472.436	422.27
472.645	373.06
472.855	351.55
473.064	417.62
473.273	411.23
473.482	385.07
473.691	427.7
473.901	431.96
474.11	388.17
474.319	441.07
474.528	399.22
474.737	436.42
474.946	432.93
475.155	395.34
475.364	448.23
475.573	396.12
475.783	437.38
475.992	447.27
476.201	445.91
476.41	407.35
476.619	395.15
476.828	440.87
477.037	398.44
477.245	451.72
477.454	451.72
477.663	437.38
477.872	400.77
478.081	480.2
478.29	411.81
478.499	552.28
478.708	490.47
478.917	520.89
479.125	443.39
479.334	446.1
479.543	470.32
479.752	448.23
479.961	454.24
480.169	499.38
480.378	466.64
480.587	595.68
480.796	484.08
481.004	478.65
481.213	518.95
481.422	512.17
481.63	513.33
481.839	524.96
482.048	571.07
482.256	543.36
482.465	545.3
482.674	534.06
482.882	540.85
483.091	588.51
483.299	547.63
483.508	550.73
483.716	522.63
483.925	536
484.134	531.35
484.342	556.54
484.551	585.41
484.759	587.34
484.967	590.25
485.176	621.83
485.384	564.68
485.593	625.32
485.801	610.21
486.01	540.26
486.218	523.99
486.426	468.97
486.635	507.91
486.843	505.78
487.051	527.48
487.26	515.08
487.468	565.06
487.676	595.29
487.885	547.82
488.093	570.49
488.301	572.62
488.509	573.01
488.717	619.51
488.926	594.13
489.134	556.15
489.342	607.69
489.55	560.22
489.758	569.91
489.967	600.71
490.175	718.12
490.383	650.89
490.591	700.11
490.799	603.43
491.007	654.96
491.215	646.05
491.423	653.61
491.631	635.39
491.839	630.16
492.047	683.44
492.255	584.24
492.463	589.48
492.671	616.79
492.879	701.46
493.087	665.62
493.295	686.74
493.503	692.16
493.711	688.29
493.919	722
494.127	712.31
494.334	721.22
494.542	664.84
494.75	703.01
494.958	698.56
495.166	747.19
495.374	698.56
495.581	716.57
495.789	714.64
495.997	761.14
496.205	683.25
496.412	706.31
496.62	688.09
496.828	738.47
497.035	729.17
497.243	730.33
497.451	748.35
497.658	703.4
497.866	702.24
498.074	791.55
498.281	685.19
498.489	813.64
498.696	759.78
498.904	706.69
499.112	728.59
499.319	816.35
499.527	745.25
499.734	816.16
499.942	712.7
500.149	715.41
500.357	787.68
500.564	688.29
500.771	746.6
500.979	711.92
501.186	723.55
501.394	740.21
501.601	729.94
501.808	759
502.016	741.76
502.223	738.27
502.43	758.04
502.638	748.74
502.845	714.06
503.052	816.16
503.26	771.79
503.467	824.3
503.674	753
503.881	789.62
504.089	839.02
504.296	815.19
504.503	718.9
504.71	802.79
504.917	735.56
505.125	784.58
505.332	781.29
505.539	818.1
505.746	885.72
505.953	855.68
506.16	815.77
506.367	871.96
506.574	865.18
506.781	899.08
506.988	800.27
507.195	850.07
507.402	836.7
507.609	848.52
507.816	818.87
508.023	802.21
508.23	831.47
508.437	810.15
508.644	855.88
508.851	894.82
509.058	906.06
509.265	871.96
509.472	890.17
509.679	953.72
509.885	872.35
510.092	872.93
510.299	873.32
510.506	890.75
510.713	884.55
510.92	865.37
511.126	916.91
511.333	951.59
511.54	936.86
511.746	969.03
511.953	925.63
512.16	984.72
512.367	881.65
512.573	927.18
512.78	919.43
512.987	930.86
513.193	946.36
513.4	851.03
513.606	900.25
513.813	921.17
514.02	951.59
514.226	984.14
514.433	958.56
514.639	901.02
514.846	958.76
515.052	900.63
515.259	943.06
515.465	966.9
515.672	923.5
515.878	1026.76
516.085	964.57
516.291	1000.22
516.497	919.43
516.704	962.25
516.91	923.88
517.117	860.14
517.323	856.46
517.529	885.33
517.736	878.93
517.942	895.98
518.148	905.09
518.354	925.24
518.561	951.78
518.767	948.68
518.973	993.63
519.179	1020.76
519.386	971.16
519.592	970
519.798	966.9
520.004	1056.99
520.21	1020.56
520.417	1044.59
520.623	1081.4
520.829	1084.89
521.035	1031.41
521.241	1090.7
521.447	1050.01
521.653	1158.9
521.859	1063.96
522.065	1095.54
522.271	1207.14
522.477	1154.64
522.683	1189.9
522.889	1137.78
523.095	1150.37
523.301	1142.04
523.507	1118.79
523.713	1136.04
523.919	1104.65
524.125	1194.94
524.331	1149.21
524.537	1253.25
524.742	1229.62
524.948	1247.83
525.154	1231.36
525.36	1321.65
525.566	1215.47
525.772	1250.35
525.977	1204.24
526.183	1240.66
526.389	1249.96
526.595	1206.75
526.8	1171.88
527.006	1146.11
527.212	1108.72
527.417	1110.07
527.623	1092.64
527.829	1176.14
528.034	1207.34
528.24	1190.67
528.446	1178.86
528.651	1255.58
528.857	1269.72
529.062	1326.88
529.268	1258.68
529.473	1280.38
529.679	1253.25
529.884	1322.23
530.09	1321.45
530.295	1342.96
530.501	1353.03
530.706	1286.77
530.912	1248.02
531.117	1322.62
531.323	1317.97
531.528	1367.37
531.733	1366.98
531.939	1306.73
532.144	1365.43
532.35	1346.83
532.555	1379.77
532.76	1351.87
532.966	1373.57
533.171	1307.89
533.376	1285.22
533.581	1319.32
533.787	1324.36
533.992	1387.71
534.197	1354.58
534.402	1347.61
534.607	1332.5
534.813	1415.61
535.018	1334.24
535.223	1364.85
535.428	1362.33
535.633	1458.24
535.838	1421.04
536.043	1411.16
536.249	1490.79
536.454	1414.26
536.659	1428.21
536.864	1396.43
537.069	1388.49
537.274	1420.07
537.479	1415.03
537.684	1436.54
537.889	1366.21
538.094	1497.57
538.299	1428.4
538.504	1418.33
538.708	1466.57
538.913	1456.88
539.118	1418.71
539.323	1458.63
539.528	1414.45
539.733	1421.04
539.938	1459.4
540.142	1464.63
540.347	1411.16
540.552	1408.83
540.757	1381.32
540.962	1418.33
541.166	1341.02
541.371	1362.14
541.576	1399.34
541.781	1294.91
541.985	1403.41
542.19	1395.66
542.395	1484.39
542.599	1518.88
542.804	1473.16
543.008	1514.04
543.213	1404.18
543.418	1450.88
543.622	1458.04
543.827	1429.56
544.031	1492.34
544.236	1497.18
544.44	1474.71
544.645	1568.29
544.849	1466.38
545.054	1511.71
545.258	1578.56
545.463	1540
545.667	1451.46
545.872	1505.51
546.076	1523.14
546.281	1529.34
546.485	1471.03
546.689	1543.49
546.894	1519.27
547.098	1512.68
547.302	1510.36
547.507	1534.57
547.711	1516.17
547.915	1552.79
548.119	1480.33
548.324	1484.59
548.528	1537.87
548.732	1478.58
548.936	1541.94
549.141	1538.64
549.345	1511.71
549.549	1489.63
549.753	1514.81
549.957	1595.61
550.161	1551.24
550.366	1570.61
550.57	1467.93
550.774	1545.23
550.978	1527.41
551.182	1532.64
551.386	1504.93
551.59	1496.99
551.794	1510.55
551.998	1554.72
552.202	1500.67
552.406	1490.4
552.61	1524.31
552.814	1503.58
553.018	1628.74
553.222	1538.84
553.426	1515.39
553.63	1603.74
553.833	1523.34
554.037	1501.83
554.241	1560.15
554.445	1522.95
554.649	1531.67
554.853	1483.62
555.056	1588.05
555.26	1591.54
555.464	1561.7
555.668	1560.73
555.871	1576.62
556.075	1552.01
556.279	1532.06
556.483	1493.11
556.686	1502.41
556.89	1517.72
557.094	1512.49
557.297	1474.51
557.501	1550.27
557.704	1435.38
557.908	1555.89
558.112	1459.4
558.315	1580.88
558.519	1502.22
558.722	1461.34
558.926	1484.78
559.129	1457.66
559.333	1414.84
559.536	1400.31
559.74	1403.6
559.943	1400.11
560.147	1390.04
560.35	1393.91
560.553	1414.26
560.757	1362.72
560.96	1469.86
561.164	1399.53
561.367	1501.83
561.57	1427.05
561.774	1511.52
561.977	1464.24
562.18	1418.52
562.384	1529.73
562.587	1459.01
562.79	1420.65
562.993	1443.51
563.197	1470.83
563.4	1467.34
563.603	1482.46
563.806	1500.67
564.009	1425.11
564.212	1422.59
564.416	1393.72
564.619	1450.1
564.822	1345.28
565.025	1454.36
565.228	1400.89
565.431	1437.51
565.634	1334.43
565.837	1322.42
566.04	1320.68
566.243	1365.05
566.446	1268.95
566.649	1365.82
566.852	1341.02
567.055	1343.93
567.258	1364.08
567.461	1445.06
567.664	1410.96
567.867	1286.19
568.07	1362.91
568.273	1371.25
568.475	1408.45
568.678	1321.84
568.881	1301.5
569.084	1339.28
569.287	1228.07
569.489	1263.72
569.692	1315.06
569.895	1353.03
570.098	1254.42
570.3	1242.4
570.503	1205.59
570.706	1282.12
570.909	1220.9
571.111	1219.54
571.314	1214.31
571.516	1248.99
571.719	1240.08
571.922	1222.64
572.124	1232.52
572.327	1246.09
572.529	1212.37
572.732	1193.19
572.935	1259.45
573.137	1301.11
573.34	1185.64
573.542	1267.98
573.745	1265.85
573.947	1252.09
574.15	1206.75
574.352	1226.9
574.554	1275.92
574.757	1200.94
574.959	1156.38
575.162	1207.92
575.364	1185.44
575.566	1278.63
575.769	1151.54
575.971	1177.31
576.173	1090.31
576.376	1176.53
576.578	1205.59
576.78	1240.85
576.982	1112.21
577.185	1171.88
577.387	1134.29
577.589	1158.9
577.791	1156.38
577.993	1147.66
578.196	1140.69
578.398	1195.52
578.6	1172.07
578.802	1123.06
579.004	1116.08
579.206	1134.87
579.408	1159.29
579.61	1111.43
579.812	1148.05
580.014	1135.07
580.216	1119.18
580.418	1124.41
580.62	1125.96
580.822	1111.04
581.024	1145.34
581.226	1167.23
581.428	1131.77
581.63	1218.96
581.832	1093.41
582.034	1210.24
582.236	1156.96
582.438	1150.96
582.64	1216.25
582.841	1201.52
583.043	1217.8
583.245	1168.78
583.447	1181.37
583.649	1144.56
583.85	1175.37
584.052	1187.57
584.254	1134.87
584.456	1207.53
584.657	1112.79
584.859	1129.06
585.061	1130.81
585.262	1136.04
585.464	1087.99
585.666	1140.11
585.867	1140.49
586.069	1172.85
586.27	1139.33
586.472	1155.61
586.674	1134.87
586.875	1109.49
587.077	1095.16
587.278	1115.11
587.48	1119.57
587.681	1240.85
587.883	1115.11
588.084	1057.38
588.285	1120.15
588.487	1089.93
588.688	1082.18
588.89	1034.13
589.091	987.24
589.292	1027.93
589.494	1008.16
589.695	982.98
589.896	898.89
590.098	922.53
590.299	1000.22
590.5	946.55
590.702	973.29
590.903	1019.79
591.104	1035.29
591.305	1017.46
591.507	1076.75
591.708	1073.26
591.909	996.93
592.11	1103.1
592.311	1084.11
592.512	1041.68
592.714	987.82
592.915	983.75
593.116	1008.16
593.317	1011.65
593.518	1014.75
593.719	1012.43
593.92	1051.95
594.121	1053.11
594.322	1023.28
594.523	1003.13
594.724	988.98
594.925	1018.63
595.126	1049.63
595.327	1051.76
595.528	1022.5
595.729	1056.99
595.929	1011.26
596.13	1027.15
596.331	1032.19
596.532	1024.44
596.733	1082.56
596.934	1043.23
597.135	1047.49
597.335	1038.39
597.536	1003.32
597.737	1012.23
597.938	986.85
598.138	1028.7
598.339	1033.35
598.54	1045.75
598.74	1017.85
598.941	1017.85
599.142	1080.04
599.342	1019.79
599.543	1001.96
599.744	1029.48
599.944	1000.41
600.145	1019.4
600.345	1046.72
600.546	1065.9
600.746	1085.28
600.947	1091.86
601.147	1048.46
601.348	1093.61
601.548	990.92
601.749	1034.13
601.949	986.85
602.15	1000.8
602.35	1021.34
602.551	1060.28
602.751	983.95
602.951	1015.53
603.152	955.85
603.352	1070.94
603.552	1028.51
603.753	1049.63
603.953	1016.69
604.153	1022.69
604.354	1013.2
604.554	1020.56
604.754	1014.56
604.954	999.64
605.155	1033.35
605.355	985.88
605.555	1085.66
605.755	1046.72
605.955	1033.16
606.155	1033.74
606.356	1010.68
606.556	1034.32
606.756	1028.7
606.956	993.25
607.156	1071.91
607.356	1017.46
607.556	1015.33
607.756	1026.96
607.956	1054.47
608.156	1013.59
608.356	976
608.556	1036.84
608.756	1008.16
608.956	993.44
609.156	1023.28
609.356	975.23
609.556	977.55
609.755	1015.53
609.955	949.65
610.155	1011.07
610.355	955.85
610.555	946.16
610.755	982.2
610.954	919.04
611.154	991.11
611.354	997.7
611.554	951.2
611.753	933.76
611.953	924.85
612.153	980.65
612.352	968.45
612.552	911.48
612.752	869.25
612.951	965.35
613.151	967.48
613.351	948.88
613.55	929.89
613.75	964.38
613.949	949.65
614.149	937.64
614.348	928.34
614.548	916.52
614.747	890.37
614.947	911.68
615.146	867.31
615.346	954.69
615.545	938.41
615.745	946.16
615.944	940.35
616.144	920.2
616.343	921.36
616.542	924.46
616.742	921.56
616.941	896.76
617.14	846.38
617.34	932.6
617.539	913.42
617.738	871.18
617.938	961.08
618.137	887.27
618.336	867.89
618.535	907.42
618.734	915.55
618.934	923.5
619.133	935.31
619.332	933.38
619.531	870.99
619.73	877.97
619.929	963.99
620.128	931.63
620.328	953.14
620.527	863.24
620.726	872.15
620.925	918.26
621.124	881.65
621.323	912.26
621.522	842.9
621.721	856.85
621.92	855.1
622.119	901.22
622.318	813.84
622.517	877.38
622.715	839.41
622.914	808.02
623.113	838.05
623.312	814.22
623.511	854.33
623.71	847.35
623.909	828.95
624.107	926.01
624.306	798.92
624.505	823.52
624.704	828.75
624.902	831.08
625.101	880.1
625.3	836.89
625.499	777.41
625.697	839.41
625.896	793.69
626.095	862.47
626.293	800.66
626.492	812.29
626.69	845.03
626.889	802.6
627.088	882.42
627.286	818.68
627.485	800.66
627.683	785.74
627.882	840.57
628.08	738.86
628.279	779.93
628.477	825.65
628.676	741.96
628.874	801.63
629.073	759.78
629.271	756.68
629.469	829.53
629.668	785.74
629.866	757.65
630.065	760.55
630.263	798.72
630.461	767.34
630.66	785.35
630.858	786.52
631.056	812.09
631.254	812.09
631.453	761.33
631.651	836.12
631.849	803.95
632.047	813.45
632.245	774.31
632.444	824.3
632.642	836.89
632.84	824.69
633.038	776.05
633.236	770.24
633.434	758.23
633.632	765.59
633.83	739.24
634.028	803.95
634.227	783.61
634.425	866.73
634.623	787.1
634.821	795.43
635.019	795.04
635.216	772.76
635.414	801.82
635.612	782.64
635.81	776.05
636.008	845.42
636.206	758.62
636.404	801.82
636.602	728.2
636.8	767.72
636.997	800.66
637.195	822.94
637.393	784
637.591	875.25
637.789	831.27
637.986	798.53
638.184	767.92
638.382	831.85
638.58	825.85
638.777	862.47
638.975	804.92
639.173	827.01
639.37	798.92
639.568	777.99
639.765	827.79
639.963	772.18
640.161	822.75
640.358	836.7
640.556	726.84
640.753	753.39
640.951	728.2
641.148	768.11
641.346	767.92
641.543	780.51
641.741	794.65
641.938	745.25
642.136	790.2
642.333	726.65
642.531	758.23
642.728	796.79
642.925	762.69
643.123	750.87
643.32	779.35
643.517	736.92
643.715	758.23
643.912	734.01
644.109	774.12
644.306	767.92
644.504	713.09
644.701	719.09
644.898	765.98
645.095	702.82
645.293	741.18
645.49	739.05
645.687	737.5
645.884	758.62
646.081	653.41
646.278	709.21
646.475	715.61
646.672	679.76
646.87	713.86
647.067	720.64
647.264	705.92
647.461	668.33
647.658	643.53
647.855	707.27
648.052	693.52
648.249	635.39
648.446	681.51
648.642	681.12
648.839	662.52
649.036	626.87
649.233	608.27
649.43	618.15
649.627	623.38
649.824	639.85
650.021	652.64
650.217	642.76
650.414	654.38
650.611	681.12
650.808	690.81
651.004	690.42
651.201	662.13
651.398	719.48
651.595	653.8
651.791	632.49
651.988	694.68
652.185	636.75
652.381	679.96
652.578	609.82
652.775	622.41
652.971	647.02
653.168	651.67
653.364	713.67
653.561	624.54
653.757	667.75
653.954	664.46
654.15	638.69
654.347	712.12
654.543	662.13
654.74	606.53
654.936	611.56
655.133	627.64
655.329	639.66
655.525	641.21
655.722	655.93
655.918	624.74
656.115	646.44
656.311	589.28
656.507	516.05
656.704	525.15
656.9	531.93
657.096	575.33
657.292	545.88
657.489	613.69
657.685	607.3
657.881	561
658.077	563.9
658.273	606.33
658.47	657.67
658.666	603.81
658.862	635.01
659.058	589.28
659.254	679.37
659.45	601.29
659.646	644.5
659.842	608.85
660.038	651.67
660.234	603.04
660.43	644.5
660.626	691.19
660.822	651.09
661.018	650.12
661.214	629.19
661.41	570.68
661.606	624.35
661.802	631.52
661.998	606.91
662.194	586.18
662.39	622.8
662.586	615.44
662.781	637.53
662.977	643.14
663.173	638.88
663.369	609.24
663.564	632.68
663.76	645.86
663.956	582.5
664.152	652.06
664.347	573.78
664.543	595.87
664.739	605.56
664.934	566.03
665.13	569.52
665.326	640.24
665.521	618.34
665.717	577.46
665.912	561.58
666.108	516.43
666.304	539.88
666.499	583.28
666.695	511.98
666.89	567.58
667.086	616.6
667.281	616.99
667.477	622.03
667.672	587.34
667.867	594.32
668.063	591.61
668.258	561.38
668.454	566.03
668.649	653.99
668.844	556.54
669.04	615.63
669.235	537.36
669.43	548.98
669.626	512.36
669.821	554.41
670.016	552.28
670.211	571.46
670.407	535.03
670.602	580.76
670.797	578.82
670.992	596.84
671.187	537.55
671.382	602.46
671.578	512.56
671.773	574.75
671.968	520.89
672.163	546.85
672.358	588.7
672.553	530
672.748	538.13
672.943	646.24
673.138	540.65
673.333	576.49
673.528	490.08
673.723	567
673.918	532.51
674.113	513.72
674.308	610.01
674.503	553.83
674.698	576.88
674.892	541.81
675.087	578.43
675.282	553.44
675.477	535.23
675.672	579.98
675.867	519.73
676.061	495.51
676.256	499.58
676.451	541.81
676.646	536.97
676.84	548.01
677.035	488.34
677.23	499.96
677.424	539.49
677.619	578.04
677.814	551.7
678.008	590.06
678.203	476.33
678.397	483.11
678.592	555.18
678.787	602.07
678.981	535.81
679.176	544.72
679.37	534.06
679.565	499.19
679.759	526.12
679.954	567.58
680.148	583.08
680.342	594.51
680.537	565.45
680.731	542.78
680.926	553.25
681.12	566.81
681.314	524.57
681.509	529.03
681.703	507.52
681.897	551.89
682.092	516.24
682.286	491.44
682.48	595.29
682.674	575.72
682.869	497.83
683.063	511.59
683.257	599.36
683.451	514.88
683.645	537.94
683.839	528.25
684.034	543.17
684.228	561.19
684.422	503.06
684.616	500.74
684.81	567.39
685.004	545.88
685.198	505.78
685.392	554.6
685.586	517.21
685.78	538.71
685.974	559.83
686.168	528.64
686.362	570.29
686.556	490.66
686.75	473.81
686.944	477.1
687.138	505
687.331	445.13
687.525	418.4
687.719	354.07
687.913	453.27
688.107	450.75
688.301	417.62
688.494	456.37
688.688	390.5
688.882	382.94
689.076	395.92
689.269	436.8
689.463	480.78
689.657	422.66
689.85	415.68
690.044	457.92
690.238	442.62
690.431	469.74
690.625	457.73
690.818	479.82
691.012	478.27
691.205	529.8
691.399	455.6
691.593	506.36
691.786	551.89
691.98	557.31
692.173	575.72
692.366	553.44
692.56	578.82
692.753	607.11
692.947	526.31
693.14	636.75
693.333	566.03
693.527	531.74
693.72	577.08
693.914	539.3
694.107	542.98
694.3	576.88
694.493	571.65
694.687	602.65
694.88	566.61
695.073	621.83
695.266	591.61
695.46	593.16
695.653	641.79
695.846	637.91
696.039	585.02
696.232	609.63
696.425	635.78
696.618	662.52
696.812	662.71
697.005	714.44
697.198	799.69
697.391	732.07
697.584	745.44
697.777	772.95
697.97	787.29
698.163	789.23
698.356	754.74
698.549	825.85
698.742	808.41
698.935	775.28
699.127	801.82
699.32	779.74
699.513	759.59
699.706	807.64
699.899	837.86
700.092	799.89
700.285	806.67
700.477	764.82
700.67	829.34
700.863	836.12
701.056	924.46
701.248	883.78
701.441	897.34
701.634	850.84
701.826	964.76
702.019	869.05
702.212	930.86
702.404	849.29
702.597	891.53
702.79	888.23
702.982	897.92
703.175	978.71
703.367	965.54
703.56	965.54
703.752	1040.13
703.945	997.31
704.137	1034.9
704.33	1023.28
704.522	1049.04
704.715	1072.68
704.907	1085.66
705.1	1116.66
705.292	1123.64
705.484	1078.11
705.677	1132.16
705.869	1123.64
706.061	1181.37
706.254	1186.41
706.446	1095.54
706.638	1140.3
706.831	1196.1
707.023	1172.46
707.215	1239.69
707.407	1217.8
707.599	1217.99
707.792	1292
707.984	1216.83
708.176	1307.31
708.368	1259.26
708.56	1270.3
708.752	1270.3
708.944	1255.97
709.136	1346.83
709.329	1283.87
709.521	1425.3
709.713	1374.54
709.905	1364.27
710.097	1430.53
710.289	1367.95
710.481	1409.22
710.672	1395.46
710.864	1404.96
711.056	1456.49
711.248	1444.29
711.44	1458.63
711.632	1471.61
711.824	1472.19
712.016	1559.96
712.207	1514.04
712.399	1511.33
712.591	1567.51
712.783	1537.87
712.975	1521.01
713.166	1530.31
713.358	1542.32
713.55	1595.61
713.741	1598.71
713.933	1601.22
714.125	1617.11
714.316	1576.81
714.508	1653.34
714.7	1652.95
714.891	1620.99
715.083	1689.19
715.274	1656.05
715.466	1665.74
715.657	1680.66
715.849	1595.22
716.04	1661.87
716.232	1615.56
716.423	1633.77
716.615	1581.66
716.806	1558.6
716.998	1543.49
717.189	1473.54
717.381	1414.65
717.572	1415.23
717.763	1426.46
717.955	1386.55
718.146	1389.46
718.337	1305.95
718.528	1348.58
718.72	1255.58
718.911	1335.02
719.102	1242.21
719.293	1326.49
719.485	1259.65
719.676	1304.02
719.867	1247.25
720.058	1241.44
720.249	1225.94
720.44	1278.63
720.632	1352.07
720.823	1357.3
721.014	1484.39
721.205	1487.11
721.396	1533.61
721.587	1614.01
721.778	1618.08
721.969	1662.45
722.16	1722.9
722.351	1658.96
722.542	1802.91
722.733	1801.36
722.924	1720.57
723.115	1751.77
723.305	1769.4
723.496	1743.24
723.687	1651.99
723.878	1688.41
724.069	1691.51
724.26	1670.39
724.45	1623.31
724.641	1624.67
724.832	1639.2
725.023	1630.87
725.213	1614.59
725.404	1641.52
725.595	1635.9
725.785	1618.66
725.976	1669.62
726.167	1623.7
726.357	1654.5
726.548	1740.72
726.739	1699.65
726.929	1726.38
727.12	1771.14
727.31	1764.55
727.501	1707.01
727.691	1753.9
727.882	1763.58
728.072	1809.89
728.263	1728.71
728.453	1793.03
728.644	1764.94
728.834	1808.92
729.024	1749.63
729.215	1771.72
729.405	1783.15
729.596	1881.96
729.786	1861.43
729.976	1872.08
730.167	1901.53
730.357	1818.22
730.547	1862.78
730.737	1873.63
730.928	1939.7
731.118	1965.47
731.308	1882.54
731.498	1894.94
731.688	1979.22
731.879	1986.39
732.069	2045.29
732.259	2054.59
732.449	2033.86
732.639	2155.92
732.829	2110.59
733.019	2164.83
733.209	2196.61
733.399	2216.95
733.589	2264.23
733.779	2257.25
733.969	2269.26
734.159	2328.55
734.349	2334.75
734.539	2387.45
734.729	2356.64
734.919	2385.32
735.109	2395.2
735.299	2400.82
735.488	2392.29
735.678	2423.1
735.868	2411.86
736.058	2403.53
736.248	2388.03
736.437	2338.63
736.627	2342.11
736.817	2465.72
737.007	2403.34
737.196	2456.23
737.386	2384.93
737.576	2381.25
737.765	2457.59
737.955	2409.54
738.144	2533.34
738.334	2451.58
738.524	2459.33
738.713	2480.26
738.903	2504.09
739.092	2499.44
739.282	2493.82
739.471	2517.45
739.661	2519
739.85	2553.88
740.04	2539.74
740.229	2589.14
740.419	2590.11
740.608	2579.84
740.797	2590.11
740.987	2654.82
741.176	2612
741.365	2542.06
741.555	2516.49
741.744	2630.22
741.933	2597.47
742.123	2593.6
742.312	2638.55
742.501	2707.13
742.69	2648.62
742.88	2596.12
743.069	2724.96
743.258	2610.26
743.447	2662.38
743.636	2674.58
743.825	2662.18
744.014	2689.5
744.204	2659.47
744.393	2624.02
744.582	2711.78
744.771	2740.46
744.96	2686.98
745.149	2713.91
745.338	2660.44
745.527	2730.19
745.716	2674
745.905	2643.78
746.094	2710.43
746.283	2687.56
746.471	2713.72
746.66	2793.35
746.849	2784.83
747.038	2773.01
747.227	2695.7
747.416	2714.3
747.604	2695.7
747.793	2663.54
747.982	2746.85
748.171	2736.39
748.359	2764.68
748.548	2733.87
748.737	2707.13
748.926	2705.39
749.114	2663.73
749.303	2719.15
749.491	2688.53
749.68	2600.18
749.869	2709.26
750.057	2722.05
750.246	2701.51
750.434	2656.18
750.623	2667.22
750.811	2644.17
751	2702.68
751.188	2658.5
751.377	2688.34
751.565	2673.61
751.754	2620.33
751.942	2630.22
752.131	2699.19
752.319	2648.04
752.507	2617.82
752.696	2635.45
752.884	2700.16
753.072	2623.24
753.261	2667.41
753.449	2651.53
753.637	2654.43
753.825	2714.69
754.014	2625.76
754.202	2661.41
754.39	2683.88
754.578	2690.66
754.766	2598.25
754.955	2631.38
755.143	2709.65
755.331	2603.67
755.519	2622.85
755.707	2649.2
755.895	2588.95
756.083	2603.48
756.271	2590.69
756.459	2590.11
756.647	2626.34
756.835	2553.69
757.023	2570.35
757.211	2587.2
757.399	2550.97
757.587	2578.48
757.775	2526.56
757.963	2541.09
758.151	2583.52
758.339	2496.92
758.526	2497.11
758.714	2534.7
758.902	2432.98
759.09	2406.82
759.278	2234.58
759.465	2053.62
759.653	1787.42
759.841	1640.94
760.028	1387.13
760.216	1165.49
760.404	1182.15
760.591	956.24
760.779	786.13
760.967	682.47
761.154	540.46
761.342	632.29
761.529	594.71
761.717	663.29
761.905	608.85
762.092	691.39
762.28	629.19
762.467	632.1
762.655	579.79
762.842	618.34
763.029	618.73
763.217	618.73
763.404	609.24
763.592	671.04
763.779	604.98
763.966	662.52
764.154	710.57
764.341	744.28
764.528	722.58
764.716	800.47
764.903	836.5
765.09	864.6
765.277	923.69
765.465	1051.95
765.652	1080.43
765.839	1141.46
766.026	1214.5
766.213	1260.62
766.4	1329.78
766.588	1507.26
766.775	1488.66
766.962	1587.47
767.149	1598.9
767.336	1726.77
767.523	1691.51
767.71	1804.46
767.897	1888.36
768.084	1973.61
768.271	1996.27
768.458	2056.53
768.645	2107.87
768.832	2021.07
769.019	2060.21
769.206	2110
769.392	2169.1
769.579	2252.8
769.766	2174.13
769.953	2198.93
770.14	2223.93
770.327	2218.7
770.513	2243.11
770.7	2307.24
770.887	2213.08
771.073	2298.91
771.26	2278.95
771.447	2214.24
771.634	2231.29
771.82	2334.75
772.007	2205.52
772.193	2262.1
772.38	2312.08
772.567	2286.51
772.753	2287.86
772.94	2331.07
773.126	2312.66
773.313	2316.54
773.499	2309.76
773.686	2295.03
773.872	2262.68
774.059	2274.88
774.245	2256.86
774.432	2242.72
774.618	2197
774.804	2288.83
774.991	2222.77
775.177	2304.33
775.363	2248.53
775.55	2272.17
775.736	2176.65
775.922	2214.82
776.109	2245.24
776.295	2261.51
776.481	2249.5
776.667	2255.12
776.853	2220.83
777.04	2205.13
777.226	2240.98
777.412	2268.3
777.598	2183.05
777.784	2237.88
777.97	2200.48
778.156	2209.78
778.342	2196.42
778.528	2179.75
778.715	2130.35
778.901	2147.98
779.087	2165.03
779.272	2119.89
779.458	2129.19
779.644	2182.47
779.83	2166.19
780.016	2231.48
780.202	2128.22
780.388	2110.59
780.574	2076.29
780.76	2107.68
780.946	2172.58
781.131	2089.08
781.317	2154.18
781.503	2073.19
781.689	2133.06
781.874	2207.07
782.06	2098.96
782.246	2124.92
782.432	2101.29
782.617	2137.52
782.803	2177.23
782.989	2050.14
783.174	2086.17
783.36	2010.61
783.545	2076.68
783.731	2062.15
783.916	1980.19
784.102	2094.7
784.288	2043.55
784.473	2043.36
784.659	2006.93
784.844	2062.15
785.029	2024.56
785.215	2012.16
785.4	1955.59
785.586	2083.27
785.771	1981.36
785.956	2026.69
786.142	1980.97
786.327	1983.1
786.512	1988.52
786.698	2015.46
786.883	1921.88
787.068	1933.89
787.254	1939.12
787.439	1945.51
787.624	1932.53
787.809	1917.23
787.994	1889.13
788.18	1987.56
788.365	1915.68
788.55	1874.99
788.735	1926.72
788.92	1871.5
789.105	1902.69
789.29	1906.57
789.475	1834.3
789.66	1878.28
789.845	1866.66
790.03	1843.41
790.215	1898.63
790.4	1872.08
790.585	1875.18
790.77	1859.1
790.955	1790.9
791.14	1878.48
791.325	1893.98
791.51	1781.6
791.695	1825.2
791.879	1808.92
792.064	1788.38
792.249	1869.18
792.434	1803.3
792.618	1826.75
792.803	1892.04
792.988	1809.89
793.173	1834.11
793.357	1874.21
793.542	1779.28
793.727	1816.09
793.911	1845.15
794.096	1801.17
794.281	1855.42
794.465	1921.88
794.65	1852.9
794.834	1873.83
795.019	1872.47
795.203	1909.67
795.388	1903.28
795.572	1925.75
795.757	1853.1
795.941	1905.02
796.126	1854.65
796.31	1819.38
796.494	1872.47
796.679	1815.7
796.863	1825.39
797.048	1888.16
797.232	1886.23
797.416	1898.63
797.601	1833.91
797.785	1893.39
797.969	1890.49
798.153	1865.11
798.338	1886.03
798.522	1916.84
798.706	1876.35
798.89	1901.53
799.074	2040.64
799.258	1974.77
799.443	1889.71
799.627	1898.43
799.811	1931.56
799.995	1839.92
800.179	1832.56
800.363	1888.55
800.547	1917.23
800.731	1941.83
800.915	1854.65
801.099	1866.27
801.283	1904.05
801.467	1885.84
801.651	1843.6
801.835	1909.28
802.019	1856.39
802.202	1873.25
802.386	1830.04
802.57	1861.43
802.754	1801.36
802.938	1807.56
803.121	1829.46
803.305	1931.18
803.489	1876.73
803.673	1878.86
803.856	1880.99
804.04	1870.15
804.224	1816.09
804.407	1809.5
804.591	1828.68
804.775	1908.7
804.958	1870.15
805.142	1970.51
805.326	1843.8
805.509	1878.67
805.693	1894.94
805.876	1866.66
806.06	1902.5
806.243	1878.67
806.427	1934.08
806.61	1943.96
806.794	1871.7
806.977	1924.98
807.16	1887.58
807.344	1891.65
807.527	1881.77
807.71	1907.34
807.894	1911.99
808.077	1922.26
808.26	1856
808.444	1836.43
808.627	1903.66
808.81	1826.55
808.993	1773.66
809.177	1805.63
809.36	1844.57
809.543	1847.48
809.726	1777.73
809.909	1798.26
810.092	1736.85
810.276	1731.23
810.459	1775.4
810.642	1756.42
810.825	1731.62
811.008	1726.38
811.191	1653.15
811.374	1660.12
811.557	1710.88
811.74	1723.48
811.923	1663.22
812.106	1620.21
812.289	1585.34
812.472	1625.05
812.654	1611.11
812.837	1599.48
813.02	1543.29
813.203	1536.32
813.386	1439.25
813.569	1464.44
813.751	1431.7
813.934	1474.13
814.117	1446.61
814.3	1394.88
814.482	1357.68
814.665	1358.26
814.848	1367.37
815.03	1291.62
815.213	1252.09
815.396	1262.94
815.578	1265.07
815.761	1227.29
815.943	1304.98
816.126	1215.47
816.309	1186.22
816.491	1132.74
816.674	1092.44
816.856	1140.88
817.039	1136.42
817.221	1231.75
817.403	1133.13
817.586	1154.83
817.768	1184.09
817.951	1098.45
818.133	1111.62
818.315	1122.86
818.498	1178.08
818.68	1205.79
818.862	1190.67
819.045	1193.19
819.227	1191.84
819.409	1166.46
819.591	1180.79
819.774	1174.79
819.956	1152.89
820.138	1222.45
820.32	1218.19
820.502	1230.78
820.684	1305.18
820.866	1279.02
821.048	1343.15
821.231	1346.25
821.413	1338.7
821.595	1274.95
821.777	1319.32
821.959	1305.57
822.141	1386.55
822.323	1273.6
822.505	1171.11
822.686	1167.42
822.868	1148.44
823.05	1058.54
823.232	1032.58
823.414	1010.68
823.596	1054.28
823.778	1037.61
823.96	1053.11
824.141	1022.31
824.323	1077.53
824.505	1128.67
824.687	1168.01
824.868	1202.69
825.05	1291.42
825.232	1274.37
825.413	1366.98
825.595	1299.56
825.777	1240.47
825.958	1296.27
826.14	1249.96
826.321	1292.97
826.503	1267.01
826.685	1302.47
826.866	1347.61
827.048	1346.64
827.229	1251.51
827.411	1250.15
827.592	1210.82
827.773	1206.17
827.955	1162.58
828.136	1176.92
828.318	1160.06
828.499	1173.24
828.68	1137.2
828.862	1170.14
829.043	1194.16
829.224	1172.66
829.406	1122.09
829.587	1146.5
829.768	1114.53
829.949	1159.87
830.131	1166.26
830.312	1214.12
830.493	1139.72
830.674	1160.64
830.855	1153.86
831.036	1157.54
831.218	1192.03
831.399	1219.15
831.58	1178.08
831.761	1168.59
831.942	1198.04
832.123	1111.82
832.304	1131
832.485	1115.69
832.666	1143.21
832.847	1161.61
833.028	1157.35
833.209	1160.26
833.389	1129.06
833.57	1121.7
833.751	1122.47
833.932	1177.69
834.113	1157.35
834.294	1148.82
834.475	1181.37
834.655	1210.24
834.836	1194.35
835.017	1193
835.198	1151.92
835.378	1164.91
835.559	1234.46
835.74	1141.66
835.92	1165.29
836.101	1150.76
836.281	1184.86
836.462	1166.46
836.643	1205.4
836.823	1227.1
837.004	1208.3
837.184	1268.95
837.365	1263.52
837.545	1232.52
837.726	1192.03
837.906	1243.57
838.087	1194.55
838.267	1200.36
838.448	1166.84
838.628	1210.24
838.808	1213.73
838.989	1263.91
839.169	1150.18
839.349	1229.81
839.53	1216.25
839.71	1239.69
839.89	1189.12
840.07	1260.81
840.251	1203.27
840.431	1234.85
840.611	1207.34
840.791	1181.76
840.971	1229.81
841.151	1193.39
841.332	1173.62
841.512	1233.88
841.692	1151.34
841.872	1192.42
842.052	1199.59
842.232	1201.72
842.412	1129.06
842.592	1186.22
842.772	1206.75
842.952	1212.57
843.132	1157.35
843.312	1156.38
843.492	1131.77
843.672	1205.4
843.851	1093.41
844.031	1164.32
844.211	1140.69
844.391	1113.56
844.571	1177.11
844.751	1156.38
844.93	1187.19
845.11	1127.12
845.29	1208.11
845.47	1202.1
845.649	1152.51
845.829	1221.48
846.009	1118.79
846.188	1179.05
846.368	1175.37
846.547	1180.79
846.727	1196.1
846.907	1122.67
847.086	1155.99
847.266	1213.15
847.445	1172.66
847.625	1128.67
847.804	1120.73
847.984	1163.94
848.163	1112.4
848.343	1149.99
848.522	1129.45
848.701	1154.44
848.881	1086.83
849.06	1135.65
849.239	1137.39
849.419	1149.79
849.598	1069.58
849.777	1100.97
849.957	1073.65
850.136	1035.48
850.315	1031.8
850.494	1014.36
850.674	1055.05
850.853	1092.25
851.032	1057.38
851.211	1112.4
851.39	1063.96
851.569	1008.74
851.748	1025.02
851.927	1051.37
852.107	1075.98
852.286	998.67
852.465	1028.7
852.644	1094.38
852.823	1051.56
853.002	1046.91
853.181	1076.36
853.359	1078.88
853.538	1018.43
853.717	1084.89
853.896	979.68
854.075	954.3
854.254	913.03
854.433	857.82
854.611	949.85
854.79	869.05
854.969	912.45
855.148	943.06
855.327	887.65
855.505	927.76
855.684	904.12
855.863	937.83
856.041	915.36
856.22	981.43
856.399	928.53
856.577	1023.86
856.756	987.82
856.934	1120.92
857.113	1085.47
857.291	1004.87
857.47	974.26
857.648	1006.61
857.827	1019.01
858.005	1031.22
858.184	987.05
858.362	1041.29
858.541	989.76
858.719	1018.04
858.898	999.64
859.076	980.07
859.254	1030.25
859.433	1001
859.611	960.7
859.789	923.11
859.967	1015.91
860.146	1042.07
860.324	951.2
860.502	970.96
860.68	957.21
860.859	931.25
861.037	954.3
861.215	972.9
861.393	971.16
861.571	942.1
861.749	932.02
861.927	970.96
862.105	944.81
862.283	966.51
862.461	920.2
862.639	905.09
862.817	937.06
862.995	957.79
863.173	918.46
863.351	963.8
863.529	947.71
863.707	961.08
863.885	967.67
864.063	914.39
864.241	902.57
864.418	987.63
864.596	926.01
864.774	900.63
864.952	920.98
865.129	914.2
865.307	880.68
865.485	865.37
865.663	947.13
865.84	859.95
866.018	899.67
866.196	743.12
866.373	827.98
866.551	794.46
866.728	753.58
866.906	780.7
867.084	778.57
867.261	838.44
867.439	857.43
867.616	868.28
867.794	834.95
867.971	844.64
868.149	828.37
868.326	885.91
868.503	864.79
868.681	876.03
868.858	837.28
869.035	819.26
869.213	873.51
869.39	859.56
869.567	920.59
869.745	825.07
869.922	884.36
870.099	871.18
870.276	908.77
870.454	849.87
870.631	870.22
870.808	852.39
870.985	910.52
871.162	951.98
871.339	874.87
871.517	797.95
871.694	810.15
871.871	830.69
872.048	828.75
872.225	832.43
872.402	826.04
872.579	798.53
872.756	828.17
872.933	804.54
873.11	821.59
873.287	840.18
873.463	815
873.64	793.88
873.817	844.25
873.994	801.82
874.171	757.45
874.348	850.45
874.524	756.87
874.701	796.79
874.878	747.19
875.055	805.5
875.231	796.59
875.408	803.76
875.585	734.59
875.762	814.03
875.938	793.69
876.115	774.31
876.291	787.68
876.468	762.1
876.645	727.62
876.821	763.07
876.998	742.15
877.174	798.53
877.351	767.14
877.527	753
877.704	775.09
877.88	775.28
878.057	723.74
878.233	784.58
878.409	769.85
878.586	766.56
878.762	744.86
878.938	735.17
879.115	725.1
879.291	733.82
879.467	665.23
879.644	733.43
879.82	728.01
879.996	740.6
880.172	676.47
880.349	703.79
880.525	744.47
880.701	698.36
880.877	692.94
881.053	745.44
881.229	700.3
881.405	724.52
881.581	695.26
881.757	705.14
881.933	684.41
882.109	749.9
882.285	736.14
882.461	668.14
882.637	711.54
882.813	682.47
882.989	699.33
883.165	748.35
883.341	684.8
883.517	712.31
883.693	724.52
883.869	739.05
884.044	683.44
884.22	712.7
884.396	756.68
884.572	760.75
884.747	755.52
884.923	725.49
885.099	733.82
885.275	749.51
885.45	705.72
885.626	709.21
885.801	689.06
885.977	687.32
886.153	637.33
886.328	724.91
886.504	669.88
886.679	718.12
886.855	662.32
887.03	699.72
887.206	763.27
887.381	704.56
887.557	743.31
887.732	711.73
887.908	747.19
888.083	746.02
888.258	691.77
888.434	715.8
888.609	726.65
888.784	753
888.96	702.62
889.135	682.86
889.31	646.24
889.485	725.1
889.661	700.88
889.836	743.7
890.011	738.66
890.186	682.47
890.361	667.94
890.537	701.46
890.712	706.11
890.887	704.76
891.062	701.07
891.237	759.39
891.412	676.66
891.587	692.36
891.762	709.02
891.937	735.76
892.112	665.42
892.287	683.44
892.462	631.13
892.637	633.84
892.812	610.59
892.987	636.17
893.161	630.55
893.336	639.27
893.511	625.9
893.686	657.29
893.861	632.68
894.035	646.83
894.21	659.61
894.385	588.12
894.56	621.83
894.734	576.88
894.909	569.13
895.084	605.75
895.258	591.41
895.433	599.94
895.608	561.38
895.782	517.79
895.957	554.99
896.131	580.37
896.306	502.1
896.48	529.03
896.655	502.48
896.829	446.68
897.004	463.15
897.178	482.33
897.353	470.9
897.527	480.4
897.701	466.83
897.876	426.92
898.05	528.45
898.224	469.55
898.399	508.49
898.573	482.91
898.747	401.35
898.921	449.2
899.096	374.42
899.27	387.2
899.444	380.23
899.618	395.53
899.792	426.53
899.967	409.1
900.141	439.13
900.315	374.22
900.489	381.2
900.663	402.9
900.837	418.01
901.011	362.99
901.185	475.94
901.359	441.84
901.533	394.76
901.707	425.18
901.881	396.31
902.055	363.37
902.229	408.52
902.403	486.01
902.576	395.92
902.75	406.38
902.924	553.63
903.098	443
903.272	497.45
903.446	518.18
903.619	495.31
903.793	532.13
903.967	506.16
904.14	528.83
904.314	556.35
904.488	508.49
904.661	530.77
904.835	509.46
905.009	554.99
905.182	558.48
905.356	531.93
905.529	514.5
905.703	492.21
905.876	499.77
906.05	449.01
906.223	485.63
906.397	404.83
906.57	406.19
906.744	396.89
906.917	395.73
907.09	416.07
907.264	408.9
907.437	390.5
907.61	373.64
907.784	361.05
907.957	408.13
908.13	341.09
908.304	404.83
908.477	371.12
908.65	381.97
908.823	339.35
908.996	437.97
909.17	364.92
909.343	337.22
909.516	361.05
909.689	368.8
909.862	324.62
910.035	358.72
910.208	301.37
910.381	324.43
910.554	448.23
910.727	391.08
910.9	352.33
911.073	319.59
911.246	388.37
911.419	386.04
911.592	401.15
911.765	341.48
911.938	331.21
912.11	363.37
912.283	350.39
912.456	387.98
912.629	357.56
912.802	351.55
912.974	293.62
913.147	266.69
913.32	248.87
913.493	296.34
913.665	305.83
913.838	321.52
914.01	290.52
914.183	314.74
914.356	287.42
914.528	315.52
914.701	393.21
914.873	348.65
915.046	308.35
915.218	275.8
915.391	223.68
915.563	252.94
915.736	280.64
915.908	337.22
916.081	298.27
916.253	283.36
916.425	309.12
916.598	327.72
916.77	289.94
916.942	302.34
917.115	237.82
917.287	307.19
917.459	272.7
917.632	248.87
917.804	227.36
917.976	301.76
918.148	278.9
918.32	272.89
918.493	328.69
918.665	374.22
918.837	325.2
919.009	354.07
919.181	341.09
919.353	330.05
919.525	326.75
919.697	316.87
919.869	326.17
920.041	356.4
920.213	392.63
920.385	349.81
920.557	325.01
920.729	362.4
920.901	337.41
921.073	350
921.244	296.14
921.416	375.97
921.588	326.56
921.76	287.42
921.932	394.57
922.103	302.73
922.275	308.54
922.447	311.84
922.619	256.42
922.79	318.23
922.962	310.87
923.134	321.33
923.305	253.52
923.477	270.18
923.648	271.92
923.82	288.78
923.991	236.86
924.163	228.14
924.335	276.96
924.506	255.26
924.677	299.44
924.849	245.77
925.02	249.45
925.192	298.86
925.363	255.07
925.535	284.13
925.706	273.09
925.877	303.89
926.049	231.04
926.22	312.03
926.391	265.92
926.562	295.17
926.734	234.92
926.905	289.17
927.076	243.64
927.247	241.7
927.419	191.91
927.59	226.97
927.761	247.9
927.932	218.06
928.103	260.88
928.274	183.77
928.445	194.81
928.616	188.42
928.787	213.41
928.958	206.63
929.129	228.91
929.3	183.38
929.471	151.22
929.642	141.73
929.813	89.41
929.984	182.61
930.155	109.56
930.326	164.78
930.496	113.05
930.667	80.5
930.838	130.88
931.009	77.98
931.18	116.15
931.35	113.44
931.521	120.03
931.692	67.52
931.863	37.3
932.033	78.76
932.204	89.8
932.374	100.26
932.545	40.4
932.716	103.17
932.886	114.41
933.057	10.17
933.227	44.08
933.398	128.55
933.568	45.05
933.739	-5.91
933.909	25.09
934.08	88.45
934.25	-3
934.421	1.45
934.591	56.28
934.761	22.57
934.932	-25.67
935.102	32.84
935.272	28.38
935.443	26.83
935.613	31.87
935.783	62.87
935.953	6.3
936.123	172.14
936.294	-15.98
936.464	5.13
936.634	17.15
936.804	1.84
936.974	-3.78
937.144	67.52
937.314	42.14
937.484	21.99
937.655	7.65
937.825	66.94
937.995	14.43
938.165	35.94
938.334	20.83
938.504	34.78
938.674	12.3
938.844	26.83
939.014	79.34
939.184	71.4
939.354	98.91
939.524	106.08
939.694	52.99
939.863	51.44
940.033	108.21
940.203	99.1
940.373	51.44
940.542	91.35
940.712	25.87
940.882	95.61
941.051	105.69
941.221	70.62
941.391	109.76
941.56	85.15
941.73	22.57
941.899	149.09
942.069	47.18
942.238	70.23
942.408	39.82
942.577	97.75
942.747	49.89
942.916	8.23
943.086	38.65
943.255	86.31
943.425	77.21
943.594	33.81
943.763	-46.79
943.933	24.32
944.102	-20.63
944.271	48.15
944.441	52.21
944.61	30.9
944.779	36.72
944.948	102.78
945.117	19.08
945.287	16.95
945.456	-20.63
945.625	13.27
945.794	66.16
945.963	13.08
946.132	67.33
946.301	10.17
946.47	86.9
946.639	2.03
946.808	41.95
946.977	56.48
947.146	87.86
947.315	24.9
947.484	50.86
947.653	21.02
947.822	34.97
947.991	0.68
948.16	125.84
948.329	59.58
948.498	24.12
948.666	57.06
948.835	57.45
949.004	-9.01
949.173	1.65
949.341	50.28
949.51	58.41
949.679	118.09
949.847	65.2
950.016	116.35
950.185	90
950.353	15.98
950.522	45.24
950.69	103.95
950.859	16.76
951.028	46.4
951.196	65.58
951.365	4.36
951.533	36.33
951.701	78.37
951.87	75.27
952.038	13.66
952.207	83.8
952.375	96.58
952.543	44.66
952.712	24.9
952.88	36.72
953.048	98.91
953.217	32.84
953.385	55.51
953.553	98.13
953.721	-3.78
953.89	38.85
954.058	1.45
954.226	29.16
954.394	27.42
954.562	-14.82
954.73	48.73
954.898	46.79
955.067	89.8
955.235	20.83
955.403	73.91
955.571	131.65
955.739	63.26
955.907	12.69
956.075	27.42
956.243	21.99
956.41	29.35
956.578	-9.2
956.746	-17.53
956.914	17.92
957.082	86.51
957.25	80.5
957.418	35.75
957.585	54.93
957.753	76.82
957.921	17.34
958.089	51.63
958.256	53.76
958.424	67.52
958.592	57.25
958.759	44.08
958.927	68.49
959.095	42.14
959.262	63.45
959.43	54.73
959.597	34
959.765	50.28
959.932	2.42
960.1	61.13
960.267	55.51
960.435	43.3
960.602	48.92
960.77	23.15
960.937	10.37
961.104	32.07
961.272	-0.68
961.439	45.82
961.606	57.83
961.774	72.17
961.941	36.91
962.108	62.48
962.275	63.26
962.443	80.11
962.61	60.16
962.777	102.98
962.944	65.78
963.111	79.15
963.278	76.24
963.446	46.4
963.613	42.14
963.78	62.29
963.947	101.23
964.114	59.77
964.281	112.86
964.448	55.9
964.615	44.85
964.782	60.93
964.949	84.18
965.116	62.48
965.282	114.02
965.449	56.48
965.616	28.97
965.783	83.99
965.95	71.2
966.117	39.23
966.283	57.64
966.45	47.76
966.617	49.11
966.784	85.54
966.95	88.25
967.117	89.03
967.284	22.18
967.45	29.35
967.617	110.15
967.784	70.23
967.95	112.86
968.117	75.08
968.283	103.95
968.45	145.21
968.616	101.81
968.783	99.68
968.949	66.94
969.116	119.45
969.282	67.91
969.449	86.9
969.615	63.06
969.781	31.87
969.948	56.09
970.114	9.78
970.28	121
970.447	54.15
970.613	106.27
970.779	58.8
970.945	83.02
971.112	100.26
971.278	50.47
971.444	62.68
971.61	91.93
971.776	59.38
971.942	89.03
972.108	86.51
972.275	66.55
972.441	63.45
972.607	140.18
972.773	61.71
972.939	86.31
973.105	73.72
973.271	55.9
973.437	62.29
973.602	35.75
973.768	92.32
973.934	63.84
974.1	75.08
974.266	-0.1
974.432	80.7
974.598	42.33
974.763	91.93
974.929	66.75
975.095	131.84
975.261	27.22
975.426	9.98
975.592	85.93
975.758	150.25
975.923	21.02
976.089	38.65
976.255	104.72
976.42	61.71
976.586	67.33
976.751	57.06
976.917	142.89
977.082	74.69
977.248	20.05
977.413	6.49
977.579	50.66
977.744	55.51
977.91	30.71
978.075	37.3
978.24	83.41
978.406	59.77
978.571	30.13
978.736	27.42
978.902	63.84
979.067	28.77
979.232	-12.69
979.397	46.21
979.563	115.18
979.728	22.77
979.893	40.78
980.058	26.25
980.223	83.21
980.388	73.91
980.554	46.98
980.719	48.73
980.884	70.23
981.049	94.45
981.214	38.27
981.379	71.4
981.544	33.81
981.709	39.62
981.874	37.88
982.039	46.4
982.204	62.87
982.368	31.87
982.533	61.71
982.698	93.1
982.863	98.13
983.028	66.75
983.193	83.21
983.357	49.31
983.522	62.68
983.687	25.28
983.852	39.04
984.016	57.45
984.181	57.45
984.346	65.78
984.51	71.78
984.675	73.72
984.839	52.21
985.004	70.04
985.168	95.42
985.333	83.41
985.498	44.27
985.662	62.1
985.827	66.16
985.991	50.86
986.155	31.1
986.32	65
986.484	99.1
986.649	66.94
986.813	16.37
986.977	43.69
987.142	77.98
987.306	45.43
987.47	61.71
987.634	34.97
987.799	55.7
987.963	34
988.127	51.05
988.291	111.5
988.455	50.66
988.62	34.58
988.784	81.28
988.948	67.52
989.112	59
989.276	73.53
989.44	48.92
989.604	59.58
989.768	26.64
989.932	123.51
990.096	14.43
990.26	9.4
990.424	9.78
990.588	46.4
990.752	99.68
990.915	87.48
991.079	50.47
991.243	48.73
991.407	87.28
991.571	43.88
991.734	58.61
991.898	78.95
992.062	148.7
992.226	42.72
992.389	18.12
992.553	-13.47
992.717	31.68
992.88	64.61
993.044	47.95
993.207	29.16
993.371	85.93
993.535	60.16
993.698	71.4
993.862	75.27
994.025	101.23
994.189	67.91
994.352	35.55
994.515	65.2
994.679	100.07
994.842	41.17
995.006	94.26
995.169	18.89
995.332	38.85
995.496	72.56
995.659	10.17
995.822	63.45
995.985	46.4
996.149	104.72
996.312	47.76
996.475	111.89
996.638	31.1
996.801	101.62
996.964	113.05
997.128	28.38
997.291	15.02
997.454	48.15
997.617	-6.68
997.78	66.16
997.943	14.82
998.106	111.5
998.269	48.73
998.432	26.83
998.595	44.08
998.758	8.23
998.92	14.63
999.083	9.2
999.246	44.27
999.409	8.23
999.572	-47.56
999.735	22.77
999.897	44.66
1000.06	41.75
1000.223	10.75
1000.386	75.46
1000.548	84.38
1000.711	94.06
1000.874	43.11
1001.036	12.11
1001.199	74.5
1001.361	13.47
1001.524	49.11
1001.687	66.55
1001.849	0.29
1002.012	39.43
1002.174	32.84
1002.337	66.75
1002.499	28.38
1002.661	51.44
1002.824	3
1002.986	-8.43
1003.149	27.61
1003.311	-7.65
1003.473	82.83
1003.636	18.7
1003.798	50.66
1003.96	63.65
1004.123	30.9
1004.285	34
1004.447	40.01
1004.609	37.3
1004.771	113.25
1004.933	2.03
1005.096	22.57
1005.258	12.5
1005.42	22.38
1005.582	46.4
1005.744	33.62
1005.906	-10.37
1006.068	58.61
1006.23	-28.77
1006.392	-7.65
1006.554	6.88
1006.716	72.17
1006.878	45.43
1007.04	6.3
1007.202	-4.75
1007.363	44.27
1007.525	42.72
1007.687	24.12
1007.849	69.65
1008.011	-26.83
1008.172	-6.1
1008.334	31.48
1008.496	77.01
1008.658	-10.17
1008.819	13.47
1008.981	-6.88
1009.143	12.5
1009.304	25.28
1009.466	39.62
1009.627	91.93
1009.789	131.26
1009.95	0.29
1010.112	-16.18
1010.273	44.66
1010.435	11.92
1010.596	-2.62
1010.758	10.17
1010.919	22.77
1011.081	-9.01
1011.242	20.63
1011.403	48.92
1011.565	27.22
1011.726	35.17
1011.887	7.07
1012.049	-1.65
1012.21	55.9
1012.371	90
1012.532	-22.77
1012.693	35.36
1012.855	-9.98
1013.016	16.95
1013.177	51.83
1013.338	38.46
1013.499	91.93
1013.66	25.87
1013.821	69.85
1013.982	19.67
1014.143	7.27
1014.304	9.59
1014.465	28.97
1014.626	38.07
1014.787	11.53
1014.948	92.71
1015.109	-42.92
1015.27	47.37
1015.431	9.98
1015.592	10.95
1015.752	63.26
1015.913	26.25
1016.074	48.53
1016.235	39.04
1016.395	40.59
1016.556	14.82
1016.717	24.51
1016.877	68.49
1017.038	-0.29
1017.199	9.59
1017.359	0.29
1017.52	36.52
1017.681	-2.42
1017.841	27.22
1018.002	24.32
1018.162	-2.23
1018.323	65.39
1018.483	6.68
1018.644	14.24
1018.804	-47.95
1018.964	-10.75
1019.125	-8.62
1019.285	7.65
1019.446	-3.97
1019.606	10.37
1019.766	-17.34
1019.926	52.99
1020.087	27.42
1020.247	-17.34
1020.407	28.19
1020.567	56.86
1020.728	30.32
1020.888	-15.6
1021.048	-24.9
1021.208	6.49
1021.368	11.72
1021.528	79.53
1021.688	41.95
1021.848	41.56
1022.008	26.45
1022.168	-8.04
1022.328	30.71
1022.488	21.6
1022.648	-18.31
1022.808	32.26
1022.968	37.68
1023.128	-14.82
1023.288	24.12
1023.448	11.53
1023.608	35.17
1023.767	27.42
1023.927	11.53
1024.087	-30.32
1024.247	-8.23
1024.406	-24.12
1024.566	-12.88
1024.726	-10.75
1024.885	11.72
1025.045	58.61
1025.205	2.81
1025.364	-6.68
1025.524	27.8
1025.683	1.07
1025.843	38.65
1026.003	7.07
1026.162	59.77
1026.321	53.76
1026.481	28
1026.64	6.88
1026.8	32.07
1026.959	9.01
1027.119	10.75
1027.278	-9.2
1027.437	6.88
1027.597	1.07
1027.756	1.07
1027.915	7.27
1028.074	27.42
1028.234	-3.78
1028.393	5.13
1028.552	12.88
1028.711	-53.18
1028.87	50.47
1029.03	-31.29
1029.189	9.78
1029.348	-66.36
1029.507	-12.3
1029.666	12.5
1029.825	-6.3
1029.984	-10.56
1030.143	24.51
1030.302	23.54
1030.461	-73.33
1030.62	27.03
1030.779	35.75
1030.938	3.2
1031.097	-33.03
1031.255	52.02
1031.414	65.39
1031.573	48.34
1031.732	-37.49
1031.891	6.68
1032.049	40.78
1032.208	26.45
1032.367	-0.48
1032.525	-19.47
1032.684	-20.83
1032.843	37.3
1033.001	-27.22
1033.16	120.8
1033.319	37.1
1033.477	28
1033.636	-25.28
1033.794	-35.36
1033.953	45.24
1034.111	57.83
1034.27	-28.19
1034.428	21.8
1034.587	-25.67
1034.745	-5.52
1034.903	-3.39
1035.062	4.55
1035.22	-22.18
1035.378	40.01
1035.537	-34
1035.695	14.24
1035.853	4.36
1036.011	44.66
1036.17	10.37
1036.328	-42.14
1036.486	9.59
1036.644	29.16
1036.802	-66.16
1036.96	-25.09
1037.119	-17.53
1037.277	-21.8
1037.435	-42.92
1037.593	-13.85
1037.751	-2.62
1037.909	27.61
1038.067	27.61
