Data from pine_FLMT105791__94__17-21-34-077.txt Node

Date: Mon Mar 20 17:21:34 GMT 2023
User: antho
Spectrometer: FLMT10579
Trigger mode: 0
Integration Time (sec): 1.000000E-1
Scans to average: 10
Electric dark correction enabled: true
Nonlinearity correction enabled: false
Boxcar width: 0
XAxis mode: Wavelengths
Number of Pixels in Spectrum: 3648
>>>>>Begin Spectral Data<<<<<
345.248	-152.14
345.464	-152.14
345.681	-152.14
345.898	-153.3
346.114	-158.73
346.331	-47.13
346.548	24.75
346.764	16.23
346.981	-18.65
347.197	-22.91
347.414	11.58
347.631	-41.12
347.847	68.15
348.064	28.82
348.28	23.01
348.497	-40.93
348.713	-1.79
348.93	34.83
349.146	23.59
349.363	13.9
349.579	8.86
349.796	-16.32
350.012	-10.32
350.229	29.59
350.445	24.75
350.661	3.05
350.878	11.77
351.094	2.08
351.311	15.84
351.527	27.46
351.743	-11.29
351.96	37.34
352.176	23.01
352.392	30.37
352.609	12.93
352.825	-22.14
353.041	-13.61
353.257	-22.91
353.474	12.55
353.69	40.25
353.906	5.38
354.122	-7.8
354.339	35.41
354.555	11
354.771	-12.84
354.987	58.85
355.203	74.16
355.42	-18.26
355.636	-9.54
355.852	5.38
356.068	21.07
356.284	-32.6
356.5	34.05
356.716	14.68
356.932	6.15
357.148	36.38
357.364	12.93
357.58	53.43
357.796	57.69
358.012	53.04
358.228	28.63
358.444	-66.5
358.66	66.41
358.876	-7.02
359.092	-8.57
359.308	33.66
359.524	12.55
359.74	16.23
359.956	-9.93
360.172	15.65
360.388	22.81
360.604	1.5
360.819	98.76
361.035	20.1
361.251	31.53
361.467	3.05
361.683	43.93
361.898	30.76
362.114	32.89
362.33	21.46
362.546	31.53
362.762	9.64
362.977	25.72
363.193	-10.12
363.409	53.04
363.624	-6.83
363.84	-12.84
364.056	-16.32
364.271	42.58
364.487	25.33
364.703	1.11
364.918	-32.02
365.134	-13.42
365.35	-2.76
365.565	87.14
365.781	15.26
365.996	46.06
366.212	74.93
366.427	31.73
366.643	-8.38
366.858	-10.7
367.074	-35.5
367.289	67.96
367.505	87.72
367.72	-12.25
367.936	-4.7
368.151	53.23
368.367	31.92
368.582	0.15
368.798	28.04
369.013	58.85
369.228	48.78
369.444	-7.99
369.659	78.61
369.874	24.94
370.09	59.04
370.305	-42.67
370.52	-4.12
370.736	38.51
370.951	8.09
371.166	66.6
371.381	53.81
371.597	34.24
371.812	-11.67
372.027	-27.37
372.242	15.26
372.458	63.69
372.673	6.93
372.888	9.83
373.103	29.59
373.318	96.05
373.533	30.76
373.749	34.05
373.964	-37.25
374.179	63.69
374.394	7.51
374.609	49.16
374.824	-6.05
375.039	64.47
375.254	-5.28
375.469	65.24
375.684	35.02
375.899	68.93
376.114	27.85
376.329	32.5
376.544	63.31
376.759	64.66
376.974	-15.74
377.189	20.1
377.404	-10.51
377.619	42.77
377.834	-48.68
378.049	-31.24
378.264	-16.52
378.478	32.11
378.693	0.15
378.908	61.37
379.123	9.64
379.338	66.79
379.553	34.24
379.767	28.04
379.982	34.05
380.197	41.61
380.412	3.63
380.626	29.4
380.841	100.31
381.056	32.5
381.271	82.88
381.485	-20.78
381.7	-8.19
381.915	12.74
382.129	12.93
382.344	45.09
382.559	12.35
382.773	60.01
382.988	-22.33
383.202	27.85
383.417	-8.77
383.632	123.76
383.846	23.78
384.061	37.73
384.275	12.16
384.49	48.78
384.704	54.98
384.919	2.47
385.133	45.09
385.348	57.11
385.562	-2.37
385.777	53.43
385.991	35.79
386.206	4.99
386.42	18.75
386.634	68.34
386.849	35.79
387.063	46.45
387.277	-25.82
387.492	-1.99
387.706	10.61
387.92	-12.64
388.135	49.55
388.349	38.89
388.563	-0.05
388.778	18.75
388.992	34.63
389.206	54.2
389.42	87.91
389.635	27.66
389.849	69.31
390.063	58.08
390.277	43.74
390.491	108.06
390.706	55.94
390.92	53.62
391.134	19.33
391.348	77.26
391.562	-1.99
391.776	23.2
391.99	10.61
392.205	63.11
392.419	20.49
392.633	22.23
392.847	78.81
393.061	0.15
393.275	103.8
393.489	25.91
393.703	48.97
393.917	77.26
394.131	25.53
394.345	62.14
394.559	53.23
394.773	22.23
394.986	53.81
395.2	29.59
395.414	46.84
395.628	6.15
395.842	10.22
396.056	4.02
396.27	-22.14
396.484	44.71
396.697	40.06
396.911	88.88
397.125	51.68
397.339	88.88
397.553	48.39
397.766	87.53
397.98	73.19
398.194	68.54
398.408	26.88
398.621	33.66
398.835	76.87
399.049	36.96
399.262	69.12
399.476	48
399.69	81.71
399.903	113.68
400.117	38.7
400.331	69.51
400.544	4.41
400.758	135.96
400.971	69.51
401.185	72.61
401.398	28.04
401.612	81.33
401.826	79.19
402.039	56.72
402.253	21.26
402.466	93.73
402.68	52.26
402.893	71.06
403.106	68.15
403.32	23.78
403.533	68.15
403.747	66.02
403.96	48.78
404.174	84.81
404.387	26.69
404.6	68.34
404.814	46.64
405.027	57.3
405.24	69.89
405.454	43.54
405.667	90.82
405.88	-0.24
406.094	64.28
406.307	86.75
406.52	47.81
406.733	23.78
406.947	-1.4
407.16	108.84
407.373	79.78
407.586	22.04
407.799	17.58
408.012	60.79
408.226	70.09
408.439	87.14
408.652	25.53
408.865	72.61
409.078	101.09
409.291	60.4
409.504	11.19
409.717	51.68
409.93	47.81
410.143	86.17
410.357	-3.54
410.57	32.31
410.783	48
410.996	82.1
411.209	70.28
411.421	107.68
411.634	50.33
411.847	35.6
412.06	62.73
412.273	42.19
412.486	68.54
412.699	153.59
412.912	48.19
413.125	92.56
413.338	55.56
413.55	88.69
413.763	57.88
413.976	83.07
414.189	46.06
414.402	40.64
414.615	84.81
414.827	36.38
415.04	89.85
415.253	60.59
415.466	80.16
415.678	136.16
415.891	59.43
416.104	74.54
416.316	60.98
416.529	34.05
416.742	115.23
416.954	109.42
417.167	44.32
417.38	72.41
417.592	123.17
417.805	29.59
418.017	23.01
418.23	72.03
418.442	65.05
418.655	50.52
418.868	90.82
419.08	103.41
419.293	78.61
419.505	70.67
419.718	62.92
419.93	92.56
420.142	76.87
420.355	118.52
420.567	126.86
420.78	95.66
420.992	53.62
421.205	118.91
421.417	36.18
421.629	59.04
421.842	40.64
422.054	42.19
422.266	82.49
422.479	123.37
422.691	65.44
422.903	118.33
423.115	46.84
423.328	84.23
423.54	98.38
423.752	73.77
423.964	60.79
424.177	97.02
424.389	63.5
424.601	193.89
424.813	111.74
425.025	161.54
425.238	119.3
425.45	89.46
425.662	89.85
425.874	380.86
426.086	119.69
426.298	116.01
426.51	111.36
426.722	82.1
426.934	77.06
427.146	134.41
427.358	66.79
427.57	116.2
427.782	106.9
427.994	120.46
428.206	91.79
428.418	57.69
428.63	130.92
428.842	139.06
429.054	99.54
429.266	107.29
429.478	65.24
429.69	129.57
429.902	67.38
430.114	137.12
430.325	115.62
430.537	84.62
430.749	117.56
430.961	51.49
431.173	86.36
431.384	128.41
431.596	42.96
431.808	133.64
432.02	135.19
432.231	157.47
432.443	151.66
432.655	130.54
432.867	87.72
433.078	142.36
433.29	181.88
433.502	146.23
433.713	178.39
433.925	147.78
434.136	190.99
434.348	104.96
434.56	67.57
434.771	234.77
434.983	124.92
435.194	99.93
435.406	141.77
435.617	193.31
435.829	194.86
436.04	162.12
436.252	186.92
436.463	204.74
436.675	198.35
436.886	162.31
437.098	159.99
437.309	200.09
437.521	181.49
437.732	179.56
437.943	162.7
438.155	154.76
438.366	133.44
438.578	204.74
438.789	179.36
439	205.71
439.211	145.46
439.423	206.29
439.634	193.7
439.845	188.27
440.057	208.62
440.268	201.06
440.479	180.72
440.69	163.09
440.902	167.35
441.113	180.52
441.324	208.42
441.535	194.86
441.746	256.47
441.957	164.64
442.168	212.69
442.38	213.46
442.591	228.57
442.802	175.68
443.013	165.61
443.224	249.11
443.435	195.64
443.646	194.86
443.857	201.25
444.068	185.56
444.279	191.96
444.49	253.76
444.701	205.13
444.912	308.59
445.123	260.74
445.334	233.61
445.545	227.99
445.756	246.01
445.967	193.12
446.178	225.67
446.388	265.97
446.599	279.14
446.81	248.53
447.021	224.5
447.232	278.37
447.443	269.65
447.653	184.79
447.864	281.08
448.075	234
448.286	294.83
448.496	243.3
448.707	296.58
448.918	241.75
449.129	328.93
449.339	214.62
449.55	280.3
449.761	237.29
449.971	290.96
450.182	217.14
450.393	319.83
450.603	246.4
450.814	290.38
451.024	277.4
451.235	296.19
451.446	334.94
451.656	339.2
451.867	228.38
452.077	296
452.288	351.41
452.498	330.29
452.709	269.07
452.919	322.54
453.13	274.69
453.34	338.23
453.55	248.14
453.761	316.73
453.971	295.61
454.182	330.48
454.392	304.91
454.602	366.33
454.813	324.09
455.023	330.29
455.233	254.34
455.444	282.63
455.654	248.34
455.864	274.3
456.075	307.04
456.285	294.06
456.495	269.84
456.705	287.08
456.916	356.06
457.126	397.33
457.336	313.05
457.546	275.85
457.756	294.83
457.967	359.55
458.177	305.88
458.387	328.93
458.597	291.15
458.807	309.95
459.017	301.03
459.227	290.96
459.437	307.23
459.647	351.41
459.857	351.99
460.068	297.74
460.278	336.68
460.488	326.22
460.698	393.06
460.908	314.4
461.117	280.89
461.327	296
461.537	322.54
461.747	304.72
461.957	351.6
462.167	427.94
462.377	362.26
462.587	319.44
462.797	404.88
463.007	351.99
463.216	371.95
463.426	379.7
463.636	373.3
463.846	314.98
464.056	322.54
464.265	390.74
464.475	346.37
464.685	322.73
464.895	372.14
465.104	355.67
465.314	368.27
465.524	358.38
465.733	345.4
465.943	401.78
466.153	431.04
466.362	401.4
466.572	371.17
466.782	370.98
466.991	405.27
467.201	428.33
467.41	324.67
467.62	412.63
467.829	380.08
468.039	385.31
468.249	384.93
468.458	394.23
468.668	423.48
468.877	422.13
469.086	442.28
469.296	437.43
469.505	382.21
469.715	474.05
469.924	408.37
470.134	449.45
470.343	465.33
470.552	387.83
470.762	409.53
470.971	367.3
471.18	407.79
471.39	405.46
471.599	375.24
471.808	442.47
472.018	394.42
472.227	465.14
472.436	466.88
472.645	415.73
472.855	416.12
473.064	465.72
473.273	423.1
473.482	434.91
473.691	509.7
473.901	448.48
474.11	434.53
474.319	533.73
474.528	485.29
474.737	486.26
474.946	484.32
475.155	474.05
475.364	531.79
475.573	496.14
475.783	502.92
475.992	507.96
476.201	542.06
476.41	457.58
476.619	466.11
476.828	489.55
477.037	474.05
477.245	490.71
477.454	502.92
477.663	508.15
477.872	512.41
478.081	566.08
478.29	499.04
478.499	590.49
478.708	553.1
478.917	601.54
479.125	534.5
479.334	538.96
479.543	550.97
479.752	525.98
479.961	556.39
480.169	588.56
480.378	534.31
480.587	660.63
480.796	593.98
481.004	568.21
481.213	584.49
481.422	575.38
481.63	571.51
481.839	640.09
482.048	634.28
482.256	617.04
482.465	594.17
482.674	630.6
482.882	627.31
483.091	676.9
483.299	668.77
483.508	649.39
483.716	645.9
483.925	612.19
484.134	617.23
484.342	613.16
484.551	694.92
484.759	692.99
484.967	662.18
485.176	683.3
485.384	672.45
485.593	705.58
485.801	662.57
486.01	656.17
486.218	630.41
486.426	519.19
486.635	610.45
486.843	594.37
487.051	639.7
487.26	595.14
487.468	647.07
487.676	661.02
487.885	644.74
488.093	657.34
488.301	681.75
488.509	688.34
488.717	722.05
488.926	668.38
489.134	691.24
489.342	697.83
489.55	662.57
489.758	686.4
489.967	685.62
490.175	801.87
490.383	711
490.591	793.35
490.799	713.91
491.007	770.48
491.215	772.42
491.423	744.91
491.631	765.83
491.839	743.94
492.047	774.36
492.255	711.97
492.463	694.15
492.671	757.12
492.879	778.82
493.087	764.09
493.295	806.52
493.503	769.9
493.711	839.26
493.919	831.51
494.127	843.33
494.334	833.45
494.542	764.87
494.75	814.46
494.958	833.45
495.166	872.4
495.374	809.62
495.581	842.36
495.789	811.56
495.997	899.52
496.205	803.42
496.412	826.09
496.62	808.07
496.828	846.43
497.035	823.38
497.243	860.58
497.451	839.26
497.658	852.05
497.866	849.73
498.074	874.72
498.281	830.16
498.489	918.31
498.696	872.98
498.904	827.06
499.112	822.8
499.319	926.06
499.527	846.43
499.734	907.85
499.942	835.39
500.149	845.66
500.357	877.82
500.564	816.98
500.771	874.91
500.979	813.3
501.186	845.66
501.394	850.31
501.601	871.62
501.808	880.73
502.016	831.51
502.223	838.3
502.43	866.2
502.638	865.23
502.845	814.08
503.052	924.71
503.26	864.84
503.467	941.76
503.674	877.63
503.881	903.78
504.089	1006.08
504.296	919.86
504.503	871.23
504.71	910.37
504.917	879.95
505.125	905.53
505.332	892.35
505.539	962.49
505.746	997.94
505.953	986.12
506.16	982.25
506.367	984.19
506.574	1024.87
506.781	1024.68
506.988	924.9
507.195	970.43
507.402	947.38
507.609	1017.71
507.816	930.91
508.023	922.96
508.23	955.51
508.437	912.89
508.644	987.87
508.851	1045.22
509.058	1009.96
509.265	1002.98
509.472	1024.29
509.679	1100.44
509.885	1010.92
510.092	1026.23
510.299	1007.05
510.506	1006.08
510.713	1028.56
510.92	1030.69
511.126	1050.64
511.333	1076.02
511.54	1066.14
511.746	1131.82
511.953	1100.05
512.16	1132.21
512.367	1061.11
512.573	1046.77
512.78	1089.59
512.987	1050.84
513.193	1057.42
513.4	979.93
513.606	1037.66
513.813	1060.72
514.02	1073.5
514.226	1153.91
514.433	1108.96
514.639	1073.5
514.846	1092.88
515.052	1067.5
515.259	1111.09
515.465	1079.32
515.672	1095.98
515.878	1173.67
516.085	1070.99
516.291	1151.59
516.497	1079.32
516.704	1068.66
516.91	1051.61
517.117	990.77
517.323	956.87
517.529	1039.99
517.736	1005.5
517.942	1023.91
518.148	1031.66
518.354	1053.94
518.561	1100.05
518.767	1098.3
518.973	1115.16
519.179	1161.08
519.386	1075.25
519.592	1114.97
519.798	1083.97
520.004	1180.84
520.21	1124.07
520.417	1199.25
520.623	1186.07
520.829	1196.92
521.035	1224.43
521.241	1228.5
521.447	1248.26
521.653	1343.78
521.859	1262.8
522.065	1255.24
522.271	1340.1
522.477	1261.44
522.683	1291.47
522.889	1263.76
523.095	1294.57
523.301	1261.05
523.507	1271.9
523.713	1298.06
523.919	1259.31
524.125	1325.96
524.331	1299.41
524.537	1391.83
524.742	1382.14
524.948	1368.58
525.154	1383.69
525.36	1484.64
525.566	1365.68
525.772	1417.02
525.977	1315.11
526.183	1416.05
526.389	1437.17
526.595	1357.54
526.8	1339.13
527.006	1264.73
527.212	1250.01
527.417	1232.38
527.623	1249.23
527.829	1318.6
528.034	1326.15
528.24	1383.5
528.446	1349.21
528.651	1420.12
528.857	1423.61
529.062	1470.3
529.268	1448.99
529.473	1456.93
529.679	1467.59
529.884	1498.39
530.09	1458.48
530.295	1500.52
530.501	1466.23
530.706	1452.47
530.912	1453.25
531.117	1493.36
531.323	1467.01
531.528	1535.4
531.733	1524.35
531.939	1518.93
532.144	1532.69
532.35	1529.59
532.555	1552.45
532.76	1553.42
532.966	1549.74
533.171	1502.27
533.376	1484.83
533.581	1439.88
533.787	1515.83
533.992	1514.86
534.197	1567.56
534.402	1466.23
534.607	1509.05
534.813	1624.91
535.018	1538.5
535.223	1527.07
535.428	1545.09
535.633	1588.49
535.838	1570.08
536.043	1612.12
536.249	1665.6
536.454	1581.12
536.659	1603.21
536.864	1555.35
537.069	1584.03
537.274	1613.48
537.479	1576.09
537.684	1578.99
537.889	1575.31
538.094	1638.28
538.299	1595.85
538.504	1578.6
538.708	1595.65
538.913	1619.87
539.118	1600.11
539.323	1616.77
539.528	1560.78
539.733	1573.18
539.938	1594.68
540.142	1606.31
540.347	1590.04
540.552	1554.77
540.757	1560.59
540.962	1566.59
541.166	1502.46
541.371	1496.84
541.576	1527.45
541.781	1485.99
541.985	1600.3
542.19	1561.75
542.395	1662.3
542.599	1675.87
542.804	1635.57
543.008	1707.64
543.213	1581.9
543.418	1558.65
543.622	1615.42
543.827	1584.8
544.031	1665.79
544.236	1671.22
544.44	1643.51
544.645	1683.23
544.849	1629.37
545.054	1682.26
545.258	1753.17
545.463	1683.61
545.667	1624.13
545.872	1667.73
546.076	1671.8
546.281	1667.34
546.485	1628.4
546.689	1664.63
546.894	1701.63
547.098	1709.38
547.302	1625.88
547.507	1669.86
547.711	1677.42
547.915	1679.35
548.119	1649.32
548.324	1637.5
548.528	1718.88
548.732	1679.93
548.936	1728.18
549.141	1758.98
549.345	1704.35
549.549	1671.02
549.753	1698.73
549.957	1805.09
550.161	1805.09
550.366	1711.13
550.57	1699.5
550.774	1712.68
550.978	1707.64
551.182	1738.64
551.386	1704.93
551.59	1649.32
551.794	1672.18
551.998	1712.87
552.202	1701.83
552.406	1707.83
552.61	1735.35
552.814	1741.16
553.018	1768.28
553.222	1698.53
553.426	1677.61
553.63	1777.78
553.833	1699.31
554.037	1699.5
554.241	1770.41
554.445	1714.42
554.649	1712.87
554.853	1696.98
555.056	1758.79
555.26	1762.66
555.464	1722.95
555.668	1678
555.871	1776.42
556.075	1799.48
556.279	1694.46
556.483	1692.14
556.686	1671.99
556.89	1722.95
557.094	1738.83
557.297	1646.42
557.501	1748.91
557.704	1625.3
557.908	1689.62
558.112	1660.37
558.315	1697.37
558.519	1640.99
558.722	1694.66
558.926	1645.45
559.129	1599.53
559.333	1606.5
559.536	1599.14
559.74	1638.67
559.943	1585.77
560.147	1597.59
560.35	1595.65
560.553	1588.68
560.757	1599.14
560.96	1662.3
561.164	1631.88
561.367	1694.85
561.57	1611.54
561.774	1672.57
561.977	1619.1
562.18	1603.21
562.384	1725.46
562.587	1603.79
562.79	1643.9
562.993	1591.39
563.197	1634.79
563.4	1689.23
563.603	1681.87
563.806	1730.89
564.009	1613.48
564.212	1618.32
564.416	1558.07
564.619	1621.03
564.822	1577.64
565.025	1653.39
565.228	1580.35
565.431	1634.21
565.634	1496.84
565.837	1548.57
566.04	1551.67
566.243	1506.72
566.446	1480.57
566.649	1568.92
566.852	1530.17
567.055	1513.89
567.258	1544.7
567.461	1612.51
567.664	1604.76
567.867	1506.72
568.07	1568.14
568.273	1548.96
568.475	1568.53
568.678	1532.69
568.881	1514.47
569.084	1523.58
569.287	1442.01
569.489	1453.64
569.692	1494.71
569.895	1522.61
570.098	1431.94
570.3	1474.95
570.503	1413.73
570.706	1401.13
570.909	1403.84
571.111	1333.71
571.314	1360.06
571.516	1405.59
571.719	1434.84
571.922	1389.89
572.124	1420.12
572.327	1441.62
572.529	1401.91
572.732	1421.47
572.935	1423.99
573.137	1483.67
573.34	1428.84
573.542	1459.06
573.745	1450.92
573.947	1427.29
574.15	1401.13
574.352	1390.09
574.554	1450.92
574.757	1366.84
574.959	1386.99
575.162	1374.78
575.364	1367.81
575.566	1459.26
575.769	1347.85
575.971	1397.64
576.173	1296.7
576.376	1332.35
576.578	1406.56
576.78	1412.76
576.982	1299.41
577.185	1337.58
577.387	1310.85
577.589	1317.63
577.791	1384.28
577.993	1388.34
578.196	1310.85
578.398	1360.64
578.6	1363.93
578.802	1275
579.004	1292.44
579.206	1303.87
579.408	1337.78
579.61	1287.98
579.812	1390.28
580.014	1306.58
580.216	1274.03
580.418	1311.43
580.62	1327.9
580.822	1279.26
581.024	1343.59
581.226	1399.97
581.428	1316.85
581.63	1375.75
581.832	1305.23
582.034	1388.93
582.236	1361.22
582.438	1389.31
582.64	1372.84
582.841	1418.76
583.043	1454.41
583.245	1361.22
583.447	1374.98
583.649	1371.49
583.85	1358.7
584.052	1397.64
584.254	1340.49
584.456	1435.23
584.657	1312.59
584.859	1354.24
585.061	1352.5
585.262	1320.53
585.464	1277.33
585.666	1357.93
585.867	1272.68
586.069	1384.28
586.27	1301.16
586.472	1302.9
586.674	1310.85
586.875	1285.85
587.077	1297.67
587.278	1326.73
587.48	1303.29
587.681	1378.08
587.883	1289.73
588.084	1279.26
588.285	1301.55
588.487	1289.53
588.688	1300.19
588.89	1180.26
589.091	1163.21
589.292	1206.22
589.494	1163.98
589.695	1125.62
589.896	1098.5
590.098	1084.74
590.299	1164.37
590.5	1111.87
590.702	1151.97
590.903	1168.44
591.104	1254.27
591.305	1162.82
591.507	1257.76
591.708	1256.01
591.909	1202.93
592.11	1298.06
592.311	1220.17
592.512	1190.53
592.714	1144.22
592.915	1204.67
593.116	1190.14
593.317	1202.93
593.518	1219.2
593.719	1209.71
593.92	1224.24
594.121	1238.19
594.322	1180.07
594.523	1213.97
594.724	1129.69
594.925	1212.03
595.126	1212.03
595.327	1194.6
595.528	1189.95
595.729	1232.38
595.929	1192.66
596.13	1200.8
596.331	1230.25
596.532	1219.98
596.733	1273.26
596.934	1244.39
597.135	1231.99
597.335	1205.64
597.536	1204.48
597.737	1227.15
597.938	1174.83
598.138	1189.17
598.339	1224.63
598.54	1194.4
598.74	1194.6
598.941	1181.42
599.142	1251.75
599.342	1210.48
599.543	1172.32
599.744	1195.76
599.944	1195.18
600.145	1177.16
600.345	1215.72
600.546	1295.93
600.746	1277.52
600.947	1306.97
601.147	1221.92
601.348	1246.13
601.548	1151.39
601.749	1190.72
601.949	1152.55
602.15	1189.56
602.35	1190.72
602.551	1246.13
602.751	1179.87
602.951	1191.88
603.152	1126.59
603.352	1200.02
603.552	1222.69
603.753	1212.62
603.953	1223.66
604.153	1234.51
604.354	1193.82
604.554	1217.85
604.754	1196.15
604.954	1171.93
605.155	1206.42
605.355	1199.25
605.555	1214.94
605.755	1241.68
605.955	1205.45
606.155	1211.65
606.356	1234.9
606.556	1182.97
606.756	1204.48
606.956	1154.69
607.156	1254.46
607.356	1173.87
607.556	1227.53
607.756	1230.44
607.956	1236.45
608.156	1213
608.356	1135.12
608.556	1224.43
608.756	1174.83
608.956	1176.58
609.156	1194.4
609.356	1141.12
609.556	1127.17
609.755	1195.57
609.955	1143.25
610.155	1172.32
610.355	1182.39
610.555	1101.6
610.755	1132.21
610.954	1120.39
611.154	1180.65
611.354	1169.6
611.554	1112.45
611.753	1137.83
611.953	1117.68
612.153	1183.55
612.352	1166.7
612.552	1134.92
612.752	1081.64
612.951	1139.77
613.151	1127.56
613.351	1102.57
613.55	1151.97
613.75	1133.18
613.949	1119.04
614.149	1136.67
614.348	1136.86
614.548	1079.51
614.747	1046.77
614.947	1087.65
615.146	1030.3
615.346	1133.18
615.545	1108.77
615.745	1103.92
615.944	1111.29
616.144	1056.65
616.343	1100.63
616.542	1095.4
616.742	1098.5
616.941	1067.89
617.14	1016.93
617.34	1103.54
617.539	1061.49
617.738	1053.74
617.938	1124.07
618.137	1081.06
618.336	1040.37
618.535	1097.34
618.734	1074.47
618.934	1078.54
619.133	1103.73
619.332	1088.23
619.531	1040.57
619.73	1043.67
619.929	1117.49
620.128	1097.92
620.328	1145.77
620.527	1015.19
620.726	1057.81
620.925	1099.85
621.124	1033.98
621.323	1072.92
621.522	1036.89
621.721	1004.92
621.92	998.52
622.119	1054.91
622.318	1042.89
622.517	1057.81
622.715	1054.32
622.914	989.81
623.113	1049.09
623.312	1008.6
623.511	1014.8
623.71	1023.32
623.909	989.03
624.107	1097.14
624.306	987.67
624.505	992.91
624.704	987.67
624.902	986.32
625.101	1047.74
625.3	1014.02
625.499	954.35
625.697	982.06
625.896	990
626.095	1011.12
626.293	952.22
626.492	929.94
626.69	1010.73
626.889	960.74
627.088	1014.8
627.286	949.12
627.485	955.13
627.683	970.82
627.882	969.08
628.08	875.69
628.279	959.39
628.477	998.14
628.676	914.24
628.874	961.52
629.073	914.44
629.271	906.3
629.469	998.91
629.668	943.31
629.866	945.44
630.065	922.58
630.263	979.34
630.461	896.61
630.66	921.22
630.858	940.59
631.056	996.01
631.254	981.28
631.453	908.04
631.651	975.08
631.849	960.16
632.047	953.19
632.245	906.3
632.444	948.34
632.642	950.86
632.84	989.42
633.038	927.23
633.236	894.29
633.434	916.18
633.632	923.35
633.83	902.81
634.028	963.26
634.227	937.88
634.425	997.17
634.623	922.38
634.821	945.24
635.019	981.86
635.216	944.47
635.414	975.66
635.612	969.27
635.81	916.96
636.008	1006.86
636.206	930.33
636.404	943.11
636.602	900.1
636.8	920.64
636.997	964.62
637.195	974.89
637.393	928
637.591	1008.79
637.789	954.93
637.986	956.09
638.184	945.63
638.382	947.38
638.58	986.51
638.777	1036.5
638.975	959.78
639.173	938.27
639.37	969.85
639.568	969.66
639.765	972.56
639.963	945.83
640.161	1002.59
640.358	995.42
640.556	911.73
640.753	889.64
640.951	874.14
641.148	925.87
641.346	916.38
641.543	944.08
641.741	966.94
641.938	889.45
642.136	908.63
642.333	886.15
642.531	973.14
642.728	944.66
642.925	951.64
643.123	905.91
643.32	951.06
643.517	931.88
643.715	897.19
643.912	912.5
644.109	921.41
644.306	932.07
644.504	878.6
644.701	900.29
644.898	922.77
645.095	905.53
645.293	893.32
645.49	939.24
645.687	911.92
645.884	944.66
646.081	837.13
646.278	858.25
646.475	882.28
646.672	833.84
646.87	862.71
647.067	851.86
647.264	875.88
647.461	817.95
647.658	791.22
647.855	870.46
648.052	847.4
648.249	780.37
648.446	853.41
648.642	802.26
648.839	805.17
649.036	792.38
649.233	802.26
649.43	793.15
649.627	787.92
649.824	802.84
650.021	782.3
650.217	805.55
650.414	765.25
650.611	834.61
650.808	843.33
651.004	821.05
651.201	828.8
651.398	902.04
651.595	805.94
651.791	799.74
651.988	867.55
652.185	790.63
652.381	840.23
652.578	768.16
652.775	811.56
652.971	781.92
653.168	801.48
653.364	840.81
653.561	753.05
653.757	791.02
653.954	826.48
654.15	773.39
654.347	850.7
654.543	809.43
654.74	771.26
654.936	772.03
655.133	783.47
655.329	803.42
655.525	792.57
655.722	825.7
655.918	718.17
656.115	784.05
656.311	693.76
656.507	665.28
656.704	647.84
656.9	683.1
657.096	715.07
657.292	667.6
657.489	771.26
657.685	729.99
657.881	698.22
658.077	718.56
658.273	729.02
658.47	836.16
658.666	761.57
658.862	777.85
659.058	715.65
659.254	805.75
659.45	729.41
659.646	785.21
659.842	758.86
660.038	797.22
660.234	743.36
660.43	742.97
660.626	841.2
660.822	781.92
661.018	786.18
661.214	766.03
661.41	714.1
661.606	778.23
661.802	792.77
661.998	792.38
662.194	750.72
662.39	754.21
662.586	780.37
662.781	812.33
662.977	798.38
663.173	790.63
663.369	774.36
663.564	787.53
663.76	799.16
663.956	728.44
664.152	781.33
664.347	697.64
664.543	735.61
664.739	753.43
664.934	702.48
665.13	728.83
665.326	758.67
665.521	773.2
665.717	715.85
665.912	711.39
666.108	659.27
666.304	725.53
666.499	700.35
666.695	645.52
666.89	703.45
667.086	772.42
667.281	750.72
667.477	791.6
667.672	754.21
667.867	758.08
668.063	725.92
668.258	680
668.454	702.29
668.649	780.95
668.844	703.64
669.04	737.55
669.235	718.37
669.43	686.59
669.626	680.78
669.821	686.98
670.016	641.64
670.211	710.04
670.407	671.29
670.602	712.75
670.797	669.54
670.992	730.77
671.187	665.86
671.382	705
671.578	652.88
671.773	692.4
671.968	663.15
672.163	704.22
672.358	735.42
672.553	664.12
672.748	663.92
672.943	729.02
673.138	699.19
673.333	713.52
673.528	690.47
673.723	685.62
673.918	664.5
674.113	646.49
674.308	769.32
674.503	692.79
674.698	687.37
674.892	695.5
675.087	678.45
675.282	710.62
675.477	677.87
675.672	676.9
675.867	650.36
676.061	642.42
676.256	627.11
676.451	676.13
676.646	680.59
676.84	636.6
677.035	619.75
677.23	604.06
677.424	683.1
677.619	712.75
677.814	727.67
678.008	675.94
678.203	628.47
678.397	656.37
678.592	637.96
678.787	716.24
678.981	666.83
679.176	671.87
679.37	666.64
679.565	643.39
679.759	650.17
679.954	703.45
680.148	731.93
680.342	705.19
680.537	678.07
680.731	687.37
680.926	704.42
681.12	688.92
681.314	661.79
681.509	655.2
681.703	661.6
681.897	675.55
682.092	650.75
682.286	635.44
682.48	719.53
682.674	716.24
682.869	649.2
683.063	638.15
683.257	730.57
683.451	651.72
683.645	669.74
683.839	681.17
684.034	675.16
684.228	696.86
684.422	648.62
684.616	652.3
684.81	700.15
685.004	680.2
685.198	640.67
685.392	713.14
685.586	652.69
685.78	684.85
685.974	694.34
686.168	713.72
686.362	725.73
686.556	613.36
686.75	586.23
686.944	612
687.138	611.81
687.331	495.36
687.525	547.29
687.719	479.28
687.913	523.84
688.107	551.36
688.301	523.46
688.494	570.92
688.688	553.87
688.882	508.93
689.076	514.93
689.269	547.09
689.463	608.12
689.657	561.82
689.85	573.64
690.044	591.85
690.238	571.12
690.431	548.64
690.625	588.17
690.818	612.39
691.012	593.4
691.205	624.21
691.399	601.15
691.593	649.78
691.786	680.97
691.98	696.09
692.173	707.13
692.366	702.09
692.56	707.32
692.753	737.74
692.947	651.33
693.14	737.35
693.333	716.82
693.527	654.82
693.72	733.67
693.914	693.37
694.107	695.5
694.3	703.45
694.493	710.42
694.687	751.3
694.88	703.25
695.073	794.7
695.266	761.38
695.46	724.37
695.653	796.06
695.846	776.88
696.039	721.08
696.232	763.12
696.425	829
696.618	840.81
696.812	853.02
697.005	865.03
697.198	964.62
697.391	891.19
697.584	937.88
697.777	946.41
697.97	929.55
698.163	894.68
698.356	937.49
698.549	1006.08
698.742	961.52
698.935	938.66
699.127	964.43
699.32	902.81
699.513	910.76
699.706	962.1
699.899	966.75
700.092	930.13
700.285	983.41
700.477	914.63
700.67	976.44
700.863	983.61
701.056	1091.72
701.248	1050.64
701.441	1051.22
701.634	1000.46
701.826	1121.17
702.019	1021.19
702.212	1101.02
702.404	1022.16
702.597	1016.54
702.79	1011.31
702.982	1063.24
703.175	1123.1
703.367	1139.96
703.56	1148.87
703.752	1214.17
703.945	1161.47
704.137	1195.95
704.33	1220.75
704.522	1224.24
704.715	1231.41
704.907	1250.01
705.1	1269
705.292	1271.9
705.484	1235.67
705.677	1260.47
705.869	1310.46
706.061	1344.36
706.254	1339.52
706.446	1320.92
706.638	1300
706.831	1407.14
707.023	1333.71
707.215	1426.12
707.407	1418.76
707.599	1407.53
707.792	1484.25
707.984	1424.96
708.176	1470.88
708.368	1454.22
708.56	1453.64
708.752	1450.92
708.944	1436.01
709.136	1485.22
709.329	1449.57
709.521	1597.59
709.713	1549.35
709.905	1560.59
710.097	1583.25
710.289	1554.58
710.481	1585
710.672	1604.37
710.864	1606.89
711.056	1639.05
711.248	1649.32
711.44	1702.99
711.632	1648.93
711.824	1693.69
712.016	1720.23
712.207	1703.18
712.399	1690.2
712.591	1771.96
712.783	1736.12
712.975	1752.98
713.166	1707.06
713.358	1745.23
713.55	1816.53
713.741	1794.63
713.933	1825.83
714.125	1826.21
714.316	1768.67
714.508	1878.14
714.7	1858.18
714.891	1847.14
715.083	1938.78
715.274	1867.29
715.466	1884.92
715.657	1920.18
715.849	1821.56
716.04	1843.26
716.232	1797.15
716.423	1867.48
716.615	1813.23
716.806	1811.1
716.998	1741.16
717.189	1691.17
717.381	1608.44
717.572	1560.78
717.763	1633.05
717.955	1593.91
718.146	1551.29
718.337	1528.04
718.528	1540.82
718.72	1444.72
718.911	1482.89
719.102	1463.52
719.293	1507.3
719.485	1488.32
719.676	1469.33
719.867	1445.5
720.058	1469.91
720.249	1470.88
720.44	1504.98
720.632	1540.24
720.823	1602.24
721.014	1676.06
721.205	1675.28
721.396	1746.58
721.587	1865.93
721.778	1915.72
721.969	1895.38
722.16	1966.49
722.351	1981.6
722.542	2075.57
722.733	2089.9
722.924	2001.17
723.115	2057.16
723.305	2050.57
723.496	2026.16
723.687	1884.14
723.878	1929.87
724.069	1901.77
724.26	1907.97
724.45	1870.97
724.641	1869.22
724.832	1896.35
725.023	1898.87
725.213	1873.87
725.404	1867.29
725.595	1865.74
725.785	1867.87
725.976	1919.6
726.167	1900.03
726.357	1918.82
726.548	2000
726.739	1948.47
726.929	2034.3
727.12	2016.09
727.31	2033.52
727.501	1967.26
727.691	2004.07
727.882	1972.3
728.072	2061.42
728.263	2061.23
728.453	2080.8
728.644	2083.32
728.834	2036.43
729.024	2028.68
729.215	2027.13
729.405	2044.95
729.596	2140.28
729.786	2134.66
729.976	2186.58
730.167	2174.38
730.357	2106.76
730.547	2139.7
730.737	2165.66
730.928	2208.86
731.118	2246.84
731.308	2162.17
731.498	2219.91
731.688	2260.01
731.879	2305.35
732.069	2388.27
732.259	2366.19
732.449	2405.52
732.639	2432.06
732.829	2473.72
733.019	2485.15
733.209	2587.64
733.399	2588.61
733.589	2605.27
733.779	2647.89
733.969	2628.33
734.159	2712.8
734.349	2739.73
734.539	2755.62
734.729	2744.77
734.919	2782.16
735.109	2805.41
735.299	2756.2
735.488	2780.42
735.678	2757.36
735.868	2758.72
736.058	2765.5
736.248	2744.57
736.437	2717.26
736.627	2736.82
736.817	2819.17
737.007	2784.87
737.196	2808.51
737.386	2809.29
737.576	2792.62
737.765	2813.74
737.955	2799.6
738.144	2929.02
738.334	2929.41
738.524	2830.79
738.713	2844.94
738.903	2834.09
739.092	2905.77
739.282	2869.35
739.471	2908.1
739.661	2908.87
739.85	2968.35
740.04	2908.87
740.229	2998.38
740.419	3019.5
740.608	3002.45
740.797	2997.03
740.987	3089.83
741.176	3020.08
741.365	2948.98
741.555	2978.62
741.744	3010.59
741.933	2953.82
742.123	3017.18
742.312	3060.19
742.501	3104.94
742.69	3127.42
742.88	2964.09
743.069	3102.04
743.258	3090.22
743.447	3121.03
743.636	3060.58
743.825	3078.4
744.014	3080.14
744.204	3161.71
744.393	3077.63
744.582	3166.36
744.771	3187.87
744.96	3135.56
745.149	3176.63
745.338	3104.17
745.527	3193.1
745.716	3151.64
745.905	3126.64
746.094	3196.39
746.283	3182.06
746.471	3171.01
746.66	3253.55
746.849	3232.43
747.038	3184.96
747.227	3152.99
747.416	3209.37
747.604	3143.89
747.793	3128.78
747.982	3139.43
748.171	3201.43
748.359	3151.25
748.548	3209.76
748.737	3201.82
748.926	3177.02
749.114	3144.47
749.303	3202.98
749.491	3150.09
749.68	3064.65
749.869	3190.19
750.057	3167.14
750.246	3108.82
750.434	3126.64
750.623	3133.23
750.811	3119.28
751	3196.2
751.188	3133.43
751.377	3175.86
751.565	3100.29
751.754	3064.45
751.942	3119.67
752.131	3145.24
752.319	3069.3
752.507	3040.43
752.696	3140.59
752.884	3139.63
753.072	3093.71
753.261	3089.83
753.449	3115.6
753.637	3075.11
753.825	3179.54
754.014	3086.93
754.202	3083.83
754.39	3160.94
754.578	3095.84
754.766	3030.55
754.955	3055.54
755.143	3178.57
755.331	3010.4
755.519	3055.93
755.707	3051.08
755.895	3054.76
756.083	3049.34
756.271	3002.84
756.459	3030.93
756.647	3044.11
756.835	3049.73
757.023	2992.96
757.211	3070.46
757.399	3006.33
757.587	3019.11
757.775	2961.38
757.963	3004.2
758.151	3039.65
758.339	2964.28
758.526	2964.87
758.714	2924.18
758.902	2877.1
759.09	2816.46
759.278	2615.15
759.465	2471.2
759.653	2111.22
759.841	1914.76
760.028	1640.99
760.216	1428.06
760.404	1328.28
760.591	1083.39
760.779	922.58
760.967	799.93
761.154	693.37
761.342	705.39
761.529	704.61
761.717	773
761.905	743.17
762.092	817.95
762.28	777.07
762.467	768.74
762.655	714.88
762.842	736.38
763.029	734.45
763.217	818.15
763.404	762.15
763.592	805.17
763.779	753.82
763.966	817.18
764.154	842.36
764.341	868.91
764.528	911.73
764.716	911.92
764.903	1019.45
765.09	1033.4
765.277	1109.74
765.465	1242.26
765.652	1260.66
765.839	1324.02
766.026	1473.98
766.213	1491.42
766.4	1610.38
766.588	1769.83
766.775	1772.93
766.962	1870.58
767.149	1961.84
767.336	2081.96
767.523	2020.74
767.71	2178.83
767.897	2239.86
768.084	2315.42
768.271	2364.64
768.458	2415.79
768.645	2474.68
768.832	2371.81
769.019	2462.48
769.206	2471.97
769.392	2562.45
769.579	2653.71
769.766	2570.98
769.953	2602.95
770.14	2632.4
770.327	2625.23
770.513	2659.13
770.7	2708.93
770.887	2626.39
771.073	2679.48
771.26	2694.59
771.447	2625.61
771.634	2627.94
771.82	2770.73
772.007	2662.81
772.193	2691.1
772.38	2698.85
772.567	2697.88
772.753	2632.78
772.94	2714.35
773.126	2751.55
773.313	2718.81
773.499	2721.52
773.686	2746.12
773.872	2676.38
774.059	2693.81
774.245	2643.24
774.432	2639.37
774.618	2593.65
774.804	2669.01
774.991	2599.07
775.177	2658.94
775.363	2671.53
775.55	2709.89
775.736	2621.16
775.922	2670.95
776.109	2656.81
776.295	2618.45
776.481	2665.91
776.667	2685.68
776.853	2639.56
777.04	2623.48
777.226	2622.13
777.412	2706.79
777.598	2607.4
777.784	2631.62
777.97	2573.3
778.156	2626.78
778.342	2591.51
778.528	2555.48
778.715	2538.04
778.901	2585.31
779.087	2621.55
779.272	2572.91
779.458	2519.44
779.644	2556.45
779.83	2541.92
780.016	2597.33
780.202	2523.12
780.388	2523.51
780.574	2468.87
780.76	2508.59
780.946	2541.14
781.131	2534.17
781.317	2546.37
781.503	2479.92
781.689	2485.73
781.874	2585.7
782.06	2479.53
782.246	2490.57
782.432	2482.24
782.617	2514.98
782.803	2531.65
782.989	2423.92
783.174	2432.64
783.36	2399.9
783.545	2449.5
783.731	2436.71
783.916	2366.96
784.102	2453.76
784.288	2367.74
784.473	2432.25
784.659	2374.13
784.844	2420.24
785.029	2365.61
785.215	2352.43
785.4	2350.88
785.586	2431.29
785.771	2341.77
785.956	2439.23
786.142	2336.35
786.327	2344.68
786.512	2340.22
786.698	2367.93
786.883	2272.8
787.068	2336.93
787.254	2305.54
787.439	2306.12
787.624	2310.39
787.809	2280.36
787.994	2291.79
788.18	2343.32
788.365	2231.73
788.55	2260.21
788.735	2264.47
788.92	2266.79
789.105	2217
789.29	2267.38
789.475	2197.63
789.66	2247.42
789.845	2190.46
790.03	2188.71
790.215	2242.58
790.4	2229.59
790.585	2237.34
790.77	2205.18
790.955	2136.6
791.14	2155.97
791.325	2268.15
791.51	2070.92
791.695	2185.81
791.879	2131.36
792.064	2107.73
792.249	2184.84
792.434	2168.37
792.618	2166.82
792.803	2190.07
792.988	2174.96
793.173	2139.31
793.357	2193.56
793.542	2126.91
793.727	2167.98
793.911	2204.41
794.096	2148.03
794.281	2185.42
794.465	2265.05
794.65	2201.7
794.834	2213.71
795.019	2262.34
795.203	2225.14
795.388	2245.48
795.572	2255.94
795.757	2212.74
795.941	2228.63
796.126	2212.74
796.31	2147.06
796.494	2226.88
796.679	2180.77
796.863	2161.01
797.048	2218.16
797.232	2222.81
797.416	2227.08
797.601	2183.29
797.785	2277.84
797.969	2268.93
798.153	2149.77
798.338	2235.6
798.522	2236.96
798.706	2258.27
798.89	2260.01
799.074	2359.6
799.258	2274.16
799.443	2244.13
799.627	2225.72
799.811	2301.09
799.995	2181.16
800.179	2184.65
800.363	2192.01
800.547	2283.07
800.731	2284.23
800.915	2155.78
801.099	2168.37
801.283	2199.76
801.467	2233.86
801.651	2232.11
801.835	2234.44
802.019	2208.86
802.202	2219.91
802.386	2179.8
802.57	2161.4
802.754	2188.71
802.938	2113.54
803.121	2187.36
803.305	2249.94
803.489	2183.68
803.673	2184.65
803.856	2214.87
804.04	2150.16
804.224	2215.84
804.407	2192.01
804.591	2158.1
804.775	2179.03
804.958	2234.63
805.142	2273.96
805.326	2212.35
805.509	2238.89
805.693	2268.34
805.876	2251.29
806.06	2252.46
806.243	2279.19
806.427	2237.54
806.61	2291.59
806.794	2201.7
806.977	2266.21
807.16	2195.3
807.344	2248.78
807.527	2220.49
807.71	2162.75
807.894	2203.25
808.077	2244.71
808.26	2177.28
808.444	2197.24
808.627	2244.32
808.81	2215.84
808.993	2132.14
809.177	2142.99
809.36	2149.96
809.543	2173.21
809.726	2056.38
809.909	2090.48
810.092	2077.5
810.276	2051.15
810.459	2084.28
810.642	2097.65
810.825	2034.49
811.008	2058.13
811.191	1969.97
811.374	1973.85
811.557	1999.62
811.74	2094.17
811.923	1923.86
812.106	1980.82
812.289	1923.47
812.472	1936.26
812.654	1924.83
812.837	1909.91
813.02	1846.17
813.203	1835.13
813.386	1742.32
813.569	1736.51
813.751	1677.8
813.934	1735.15
814.117	1719.85
814.3	1656.88
814.482	1604.37
814.665	1584.61
814.848	1569.89
815.03	1523.58
815.213	1506.14
815.396	1517.38
815.578	1469.52
815.761	1457.71
815.943	1543.15
816.126	1442.98
816.309	1432.91
816.491	1352.11
816.674	1310.85
816.856	1398.23
817.039	1391.83
817.221	1456.54
817.403	1368.19
817.586	1404.43
817.768	1418.76
817.951	1334.48
818.133	1326.15
818.315	1334.68
818.498	1408.11
818.68	1464.1
818.862	1416.24
819.045	1441.82
819.227	1413.53
819.409	1379.43
819.591	1411.59
819.774	1391.64
819.956	1373.62
820.138	1460.81
820.32	1434.26
820.502	1474.17
820.684	1539.66
820.866	1525.9
821.048	1606.5
821.231	1600.11
821.413	1602.24
821.595	1566.98
821.777	1563.88
821.959	1540.82
822.141	1611.35
822.323	1497.04
822.505	1453.25
822.686	1405.98
822.868	1339.91
823.05	1226.95
823.232	1224.05
823.414	1177.74
823.596	1243.62
823.778	1207
823.96	1265.7
824.141	1266.86
824.323	1293.21
824.505	1315.11
824.687	1402.68
824.868	1448.41
825.05	1524.74
825.232	1558.65
825.413	1572.99
825.595	1545.09
825.777	1464.68
825.958	1545.67
826.14	1516.6
826.321	1538.69
826.503	1498.2
826.685	1533.85
826.866	1579.77
827.048	1564.07
827.229	1499.17
827.411	1457.71
827.592	1448.6
827.773	1440.85
827.955	1390.09
828.136	1385.83
828.318	1360.44
828.499	1388.34
828.68	1343.39
828.862	1398.81
829.043	1403.65
829.224	1378.27
829.406	1337.97
829.587	1351.53
829.768	1379.43
829.949	1375.56
830.131	1360.83
830.312	1432.32
830.493	1367.42
830.674	1379.82
830.855	1392.8
831.036	1349.4
831.218	1433.29
831.399	1433.1
831.58	1379.63
831.761	1396.09
831.942	1407.72
832.123	1357.93
832.304	1343.39
832.485	1368.19
832.666	1380.59
832.847	1370.33
833.028	1371.68
833.209	1397.45
833.389	1377.69
833.57	1329.45
833.751	1309.1
833.932	1423.41
834.113	1375.75
834.294	1334.48
834.475	1400.16
834.655	1444.72
834.836	1461.39
835.017	1404.62
835.198	1340.1
835.378	1405.98
835.559	1446.66
835.74	1403.65
835.92	1400.74
836.101	1373.81
836.281	1436.97
836.462	1426.9
836.643	1458.48
836.823	1450.34
837.004	1439.69
837.184	1492.19
837.365	1454.8
837.545	1464.87
837.726	1417.21
837.906	1516.41
838.087	1441.04
838.267	1454.61
838.448	1366.06
838.628	1403.26
838.808	1421.28
838.989	1470.88
839.169	1379.24
839.349	1448.21
839.53	1449.57
839.71	1462.55
839.89	1414.69
840.07	1486.57
840.251	1412.56
840.431	1482.89
840.611	1413.53
840.791	1428.64
840.971	1469.14
841.151	1400.55
841.332	1386.79
841.512	1463.71
841.692	1367.03
841.872	1403.65
842.052	1416.24
842.232	1458.48
842.412	1391.64
842.592	1408.88
842.772	1447.82
842.952	1444.92
843.132	1416.44
843.312	1382.92
843.492	1361.8
843.672	1425.74
843.851	1340.29
844.031	1347.27
844.211	1384.66
844.391	1337.39
844.571	1377.49
844.751	1402.29
844.93	1416.63
845.11	1374.01
845.29	1427.67
845.47	1408.3
845.649	1386.79
845.829	1412.37
846.009	1351.53
846.188	1402.1
846.368	1371.88
846.547	1379.63
846.727	1383.69
846.907	1356.96
847.086	1359.28
847.266	1418.96
847.445	1365.87
847.625	1337.78
847.804	1314.14
847.984	1382.92
848.163	1340.1
848.343	1340.29
848.522	1371.1
848.701	1361.61
848.881	1304.26
849.06	1336.23
849.239	1394.54
849.419	1353.08
849.598	1304.06
849.777	1264.35
849.957	1270.16
850.136	1222.11
850.315	1231.02
850.494	1239.93
850.674	1182.58
850.853	1312.78
851.032	1273.26
851.211	1310.26
851.39	1256.4
851.569	1245.36
851.748	1189.56
851.927	1264.93
852.107	1277.33
852.286	1225.21
852.465	1191.5
852.644	1301.55
852.823	1231.6
853.002	1278.1
853.181	1276.16
853.359	1244.39
853.538	1175.42
853.717	1294.76
853.896	1204.87
854.075	1122.91
854.254	1087.84
854.433	1057.23
854.611	1093.27
854.79	1028.94
854.969	1116.52
855.148	1121.75
855.327	1095.79
855.505	1122.33
855.684	1136.09
855.863	1160.3
856.041	1088.42
856.22	1147.9
856.399	1144.61
856.577	1245.36
856.756	1220.56
856.934	1287.98
857.113	1296.51
857.291	1219.98
857.47	1154.1
857.648	1200.6
857.827	1226.57
858.005	1234.51
858.184	1178.9
858.362	1262.21
858.541	1179.87
858.719	1193.24
858.898	1208.35
859.076	1190.33
859.254	1253.5
859.433	1171.54
859.611	1175.8
859.789	1137.64
859.967	1250.78
860.146	1255.82
860.324	1114.39
860.502	1166.12
860.68	1151.97
860.859	1134.73
861.037	1110.7
861.215	1201.57
861.393	1189.56
861.571	1174.06
861.749	1141.7
861.927	1197.31
862.105	1178.9
862.283	1126.98
862.461	1107.6
862.639	1087.07
862.817	1115.74
862.995	1121.94
863.173	1115.94
863.351	1123.49
863.529	1129.5
863.707	1170.77
863.885	1117.87
864.063	1089.2
864.241	1086.29
864.418	1161.27
864.596	1095.98
864.774	1067.89
864.952	1102.18
865.129	1145.97
865.307	1099.66
865.485	1052.39
865.663	1146.16
865.84	1019.26
866.018	1049.29
866.196	923.93
866.373	946.6
866.551	951.06
866.728	895.26
866.906	969.27
867.084	976.44
867.261	1011.51
867.439	1015.96
867.616	1020.22
867.794	1019.84
867.971	1012.28
868.149	1041.34
868.326	1092.1
868.503	1076.8
868.681	1027.97
868.858	1022.16
869.035	992.13
869.213	1046.77
869.39	996.97
869.567	1073.7
869.745	997.75
869.922	1032.43
870.099	1037.27
870.276	1070.6
870.454	1039.6
870.631	1058.01
870.808	1017.51
870.985	1051.22
871.162	1101.02
871.339	1049.29
871.517	992.52
871.694	983.02
871.871	999.3
872.048	997.75
872.225	975.66
872.402	1054.32
872.579	956.68
872.756	1016.35
872.933	953.58
873.11	994.65
873.287	1023.91
873.463	960.16
873.64	977.99
873.817	1002.79
873.994	977.02
874.171	931.29
874.348	962.1
874.524	931.88
874.701	964.23
874.878	884.8
875.055	966.94
875.231	980.51
875.408	964.04
875.585	905.53
875.762	952.61
875.938	941.18
876.115	937.88
876.291	926.64
876.468	927.03
876.645	886.35
876.821	920.44
876.998	955.32
877.174	929.94
877.351	932.07
877.527	904.94
877.704	916.38
877.88	933.81
878.057	901.26
878.233	955.32
878.409	923.35
878.586	932.46
878.762	897
878.938	907.85
879.115	839.07
879.291	915.6
879.467	858.25
879.644	878.21
879.82	931.68
879.996	851.28
880.172	838.68
880.349	850.11
880.525	930.13
880.701	846.43
880.877	826.28
881.053	857.48
881.229	862.32
881.405	886.35
881.581	840.62
881.757	863.29
881.933	900.88
882.109	878.01
882.285	910.37
882.461	811.75
882.637	842.36
882.813	839.07
882.989	834.03
883.165	893.71
883.341	827.06
883.517	901.46
883.693	850.89
883.869	871.62
884.044	822.41
884.22	856.31
884.396	911.34
884.572	899.52
884.747	900.1
884.923	874.14
885.099	858.83
885.275	869.3
885.45	840.04
885.626	841.59
885.801	831.13
885.977	864.06
886.153	778.43
886.328	876.27
886.504	807.3
886.679	883.63
886.855	822.6
887.03	836.16
887.206	904.17
887.381	863.48
887.557	889.25
887.732	882.86
887.908	881.31
888.083	880.15
888.258	863.68
888.434	858.06
888.609	890.61
888.784	896.81
888.96	846.05
889.135	828.03
889.31	829
889.485	874.14
889.661	849.34
889.836	873.95
890.011	867.36
890.186	830.35
890.361	818.34
890.537	883.83
890.712	860.96
890.887	878.01
891.062	853.02
891.237	885.38
891.412	835.58
891.587	859.61
891.762	865.03
891.937	912.89
892.112	808.26
892.287	845.27
892.462	808.46
892.637	782.69
892.812	779.01
892.987	790.83
893.161	781.33
893.336	779.98
893.511	779.4
893.686	779.01
893.861	781.53
894.035	761.18
894.21	798.97
894.385	725.73
894.56	778.23
894.734	718.95
894.909	685.82
895.084	729.41
895.258	711.39
895.433	708.49
895.608	682.33
895.782	658.69
895.957	648.23
896.131	670.51
896.306	614.91
896.48	613.16
896.655	627.89
896.829	566.47
897.004	565.31
897.178	550.58
897.353	545.93
897.527	629.82
897.701	584.87
897.876	535.28
898.05	630.41
898.224	590.3
898.399	638.35
898.573	574.99
898.747	488.78
898.921	532.56
899.096	482.77
899.27	480.44
899.444	483.54
899.618	494.59
899.792	503.69
899.967	487.81
900.141	555.04
900.315	458.74
900.489	472.11
900.663	541.48
900.837	505.63
901.011	452.55
901.185	574.41
901.359	498.27
901.533	516.09
901.707	522.68
901.881	503.31
902.055	444.21
902.229	472.5
902.403	543.41
902.576	510.09
902.75	526.36
902.924	607.74
903.098	559.49
903.272	591.27
903.446	619.17
903.619	611.22
903.793	637.19
903.967	595.72
904.14	653.85
904.314	647.45
904.488	611.22
904.661	629.44
904.835	645.52
905.009	672.45
905.182	684.85
905.356	667.41
905.529	645.13
905.703	600.37
905.876	618.39
906.05	573.06
906.223	569.96
906.397	516.68
906.57	513.96
906.744	486.45
906.917	486.26
907.09	488.19
907.264	475.79
907.437	482.77
907.61	431.62
907.784	470.37
907.957	486.84
908.13	430.85
908.304	485.68
908.477	433.75
908.65	449.25
908.823	403.53
908.996	492.65
909.17	447.51
909.343	452.16
909.516	426.78
909.689	447.12
909.862	439.95
910.035	447.12
910.208	383.96
910.381	429.3
910.554	506.79
910.727	444.41
910.9	419.61
911.073	437.82
911.246	500.79
911.419	505.83
911.592	461.65
911.765	406.82
911.938	429.49
912.11	450.61
912.283	446.93
912.456	492.46
912.629	439.18
912.802	433.36
912.974	384.73
913.147	381.63
913.32	303.94
913.493	365.55
913.665	373.11
913.838	395.97
914.01	360.13
914.183	389.38
914.356	382.99
914.528	403.91
914.701	455.06
914.873	407.4
915.046	382.02
915.218	364.97
915.391	308.01
915.563	330.1
915.736	372.14
915.908	409.15
916.081	366.91
916.253	388.61
916.425	385.12
916.598	376.01
916.77	371.36
916.942	331.26
917.115	272.55
917.287	367.68
917.459	333
917.632	319.63
917.804	277.2
917.976	390.74
918.148	354.51
918.32	376.01
918.493	371.17
918.665	406.63
918.837	364.97
919.009	457.2
919.181	435.11
919.353	406.24
919.525	421.16
919.697	401.2
919.869	381.05
920.041	445.57
920.213	498.85
920.385	426.2
920.557	403.72
920.729	439.95
920.901	408.18
921.073	378.92
921.244	376.98
921.416	422.32
921.588	413.8
921.76	384.54
921.932	476.38
922.103	406.24
922.275	408.76
922.447	428.52
922.619	339.78
922.79	373.3
922.962	397.13
923.134	405.66
923.305	371.36
923.477	316.92
923.648	323.7
923.82	350.44
923.991	298.13
924.163	276.62
924.335	343.47
924.506	313.24
924.677	402.56
924.849	335.33
925.02	351.41
925.192	345.98
925.363	330.68
925.535	349.47
925.706	317.7
925.877	375.82
926.049	318.47
926.22	340.17
926.391	335.91
926.562	372.72
926.734	289.22
926.905	353.54
927.076	326.42
927.247	321.77
927.419	264.61
927.59	277.59
927.761	285.53
927.932	272.36
928.103	289.99
928.274	253.95
928.445	241.17
928.616	256.28
928.787	275.85
928.958	282.24
929.129	230.7
929.3	253.18
929.471	179.17
929.642	145.26
929.813	127.63
929.984	210.17
930.155	152.43
930.326	187.69
930.496	142.94
930.667	91.4
930.838	158.05
931.009	127.63
931.18	134.41
931.35	140.81
931.521	177.04
931.692	99.73
931.863	43.54
932.033	132.47
932.204	122.01
932.374	102.83
932.545	66.21
932.716	126.47
932.886	121.82
933.057	37.93
933.227	68.34
933.398	133.64
933.568	48.97
933.739	23.39
933.909	32.89
934.08	103.99
934.25	-7.41
934.421	10.8
934.591	76.68
934.761	11.58
934.932	23.39
935.102	69.7
935.272	11.58
935.443	38.7
935.613	39.67
935.783	35.41
935.953	-15.55
936.123	167.93
936.294	-5.67
936.464	8.09
936.634	20.3
936.804	3.25
936.974	-4.12
937.144	43.74
937.314	48.39
937.484	32.69
937.655	3.63
937.825	72.22
937.995	19.33
938.165	74.93
938.334	29.79
938.504	66.79
938.674	21.65
938.844	20.3
939.014	119.88
939.184	61.95
939.354	116.97
939.524	102.25
939.694	65.63
939.863	68.34
940.033	167.54
940.203	129.57
940.373	101.67
940.542	121.82
940.712	69.7
940.882	105.35
941.051	110.39
941.221	122.59
941.391	158.82
941.56	62.34
941.73	48.78
941.899	162.12
942.069	55.75
942.238	96.83
942.408	62.34
942.577	116.2
942.747	62.14
942.916	18.36
943.086	51.88
943.255	89.08
943.425	58.08
943.594	90.24
943.763	10.8
943.933	23.01
944.102	-8.38
944.271	59.04
944.441	89.85
944.61	36.76
944.779	52.65
944.948	149.52
945.117	2.47
945.287	38.89
945.456	-0.82
945.625	14.68
945.794	83.84
945.963	35.02
946.132	61.18
946.301	47.03
946.47	80.55
946.639	16.61
946.808	40.06
946.977	89.08
947.146	105.74
947.315	19.13
947.484	83.07
947.653	68.15
947.822	63.89
947.991	42.58
948.16	126.27
948.329	102.25
948.498	35.99
948.666	36.18
948.835	89.08
949.004	13.51
949.173	24.94
949.341	67.76
949.51	66.41
949.679	96.44
949.847	83.46
950.016	146.23
950.185	123.56
950.353	32.31
950.522	65.63
950.69	95.86
950.859	40.06
951.028	104.77
951.196	77.45
951.365	44.32
951.533	54.98
951.701	76.68
951.87	72.99
952.038	26.11
952.207	45.48
952.375	130.92
952.543	44.71
952.712	42.38
952.88	34.63
953.048	119.11
953.217	49.55
953.385	65.05
953.553	85.2
953.721	29.59
953.89	63.69
954.058	28.43
954.226	19.52
954.394	47.61
954.562	-2.18
954.73	53.23
954.898	11.96
955.067	77.26
955.235	55.36
955.403	85.78
955.571	131.12
955.739	86.36
955.907	41.41
956.075	60.01
956.243	16.03
956.41	85.78
956.578	4.99
956.746	30.76
956.914	32.5
957.082	79.39
957.25	79.39
957.418	43.35
957.585	56.53
957.753	96.83
957.921	22.23
958.089	64.28
958.256	56.33
958.424	95.08
958.592	85.78
958.759	52.84
958.927	63.5
959.095	37.15
959.262	43.93
959.43	77.26
959.597	46.84
959.765	69.7
959.932	34.44
960.1	95.28
960.267	76.09
960.435	62.53
960.602	77.84
960.77	41.22
960.937	14.68
961.104	37.73
961.272	22.62
961.439	11.38
961.606	73.96
961.774	93.14
961.941	54.98
962.108	60.98
962.275	66.99
962.443	110.19
962.61	71.25
962.777	132.47
962.944	97.79
963.111	104.58
963.278	88.49
963.446	86.75
963.613	65.83
963.78	73.77
963.947	97.99
964.114	72.8
964.281	136.16
964.448	90.04
964.615	84.43
964.782	72.03
964.949	110.58
965.116	108.84
965.282	106.51
965.449	83.84
965.616	56.14
965.783	109.61
965.95	66.99
966.117	17.78
966.283	58.08
966.45	103.61
966.617	79.58
966.784	113.68
966.95	100.7
967.117	99.54
967.284	52.46
967.45	60.98
967.617	113.68
967.784	103.99
967.95	122.98
968.117	85.59
968.283	123.76
968.45	173.55
968.616	81.52
968.783	116.78
968.949	116.39
969.116	131.89
969.282	88.11
969.449	88.11
969.615	95.66
969.781	45.87
969.948	75.71
970.114	39.09
970.28	144.49
970.447	95.28
970.613	139.45
970.779	84.43
970.945	129.96
971.112	84.43
971.278	67.38
971.444	41.61
971.61	108.64
971.776	60.01
971.942	61.37
972.108	97.99
972.275	89.08
972.441	96.63
972.607	177.81
972.773	55.94
972.939	88.88
973.105	59.82
973.271	34.83
973.437	61.76
973.602	71.83
973.768	92.76
973.934	80.55
974.1	93.34
974.266	-4.89
974.432	104.77
974.598	57.3
974.763	107.48
974.929	48.97
975.095	131.12
975.261	62.73
975.426	53.23
975.592	85.78
975.758	148.36
975.923	35.79
976.089	69.12
976.255	116.01
976.42	92.18
976.586	93.53
976.751	83.65
976.917	159.21
977.082	102.83
977.248	41.99
977.413	18.16
977.579	83.65
977.744	77.45
977.91	31.14
978.075	72.41
978.24	96.63
978.406	83.07
978.571	54.39
978.736	51.1
978.902	83.65
979.067	31.92
979.232	41.99
979.397	81.52
979.563	102.44
979.728	29.59
979.893	71.25
980.058	45.29
980.223	93.92
980.388	82.88
980.554	82.68
980.719	62.14
980.884	80.94
981.049	109.03
981.214	75.51
981.379	81.71
981.544	49.55
981.709	64.08
981.874	73.96
982.039	55.17
982.204	123.56
982.368	62.34
982.533	35.6
982.698	98.18
982.863	120.85
983.028	78.61
983.193	76.09
983.357	86.17
983.522	66.99
983.687	48
983.852	54.78
984.016	59.04
984.181	90.63
984.346	64.47
984.51	102.06
984.675	75.32
984.839	89.85
985.004	70.28
985.168	98.38
985.333	61.56
985.498	65.63
985.662	111.94
985.827	80.94
985.991	55.56
986.155	57.69
986.32	106.51
986.484	114.07
986.649	106.71
986.813	11
986.977	79.78
987.142	77.64
987.306	18.16
987.47	38.89
987.634	64.28
987.799	112.91
987.963	93.14
988.127	100.51
988.291	142.55
988.455	56.91
988.62	80.36
988.784	79.39
988.948	93.92
989.112	55.56
989.276	58.27
989.44	78.42
989.604	39.67
989.768	64.86
989.932	149.72
990.096	49.36
990.26	42.96
990.424	39.86
990.588	51.88
990.752	135.38
990.915	114.65
991.079	35.6
991.243	43.35
991.407	91.4
991.571	58.66
991.734	111.16
991.898	79.78
992.062	142.55
992.226	43.16
992.389	61.37
992.553	39.09
992.717	43.16
992.88	48.39
993.044	50.91
993.207	54.78
993.371	79.58
993.535	88.88
993.698	50.13
993.862	83.65
994.025	98.38
994.189	80.94
994.352	80.16
994.515	74.16
994.679	114.46
994.842	27.46
995.006	80.74
995.169	34.83
995.332	34.63
995.496	96.63
995.659	6.54
995.822	55.75
995.985	44.9
996.149	99.73
996.312	63.69
996.475	118.14
996.638	55.75
996.801	107.48
996.964	126.66
997.128	8.67
997.291	50.13
997.454	58.08
997.617	15.06
997.78	94.5
997.943	38.51
998.106	85.2
998.269	36.76
998.432	48.58
998.595	53.23
998.758	20.88
998.92	15.06
999.083	5.96
999.246	54.01
999.409	15.84
999.572	-16.32
999.735	20.49
999.897	67.76
1000.06	8.67
1000.223	25.14
1000.386	87.72
1000.548	56.33
1000.711	64.28
1000.874	59.43
1001.036	33.86
1001.199	79.78
1001.361	40.64
1001.524	51.88
1001.687	71.44
1001.849	11.77
1002.012	59.04
1002.174	66.21
1002.337	101.67
1002.499	45.68
1002.661	81.52
1002.824	20.1
1002.986	28.82
1003.149	69.31
1003.311	23.98
1003.473	109.03
1003.636	3.83
1003.798	69.89
1003.96	58.85
1004.123	28.04
1004.285	29.98
1004.447	67.57
1004.609	50.91
1004.771	114.07
1004.933	22.04
1005.096	12.35
1005.258	-15.94
1005.42	20.88
1005.582	76.68
1005.744	64.66
1005.906	-7.99
1006.068	48.78
1006.23	-12.45
1006.392	-33.37
1006.554	19.33
1006.716	94.89
1006.878	79.19
1007.04	11.38
1007.202	32.31
1007.363	72.8
1007.525	62.73
1007.687	28.63
1007.849	90.82
1008.011	-9.74
1008.172	-5.67
1008.334	28.43
1008.496	48
1008.658	-14.39
1008.819	12.74
1008.981	21.84
1009.143	14.48
1009.304	25.72
1009.466	58.85
1009.627	90.43
1009.789	146.23
1009.95	56.14
1010.112	10.61
1010.273	45.09
1010.435	22.81
1010.596	48.78
1010.758	4.99
1010.919	35.99
1011.081	4.21
1011.242	25.53
1011.403	34.44
1011.565	33.86
1011.726	43.35
1011.887	-26.98
1012.049	21.07
1012.21	71.25
1012.371	65.44
1012.532	-53.91
1012.693	51.1
1012.855	25.14
1013.016	36.38
1013.177	53.23
1013.338	39.28
1013.499	74.54
1013.66	69.51
1013.821	53.23
1013.982	47.03
1014.143	29.01
1014.304	9.64
1014.465	44.32
1014.626	85.39
1014.787	31.14
1014.948	93.92
1015.109	-23.3
1015.27	43.93
1015.431	13.13
1015.592	-2.57
1015.752	70.67
1015.913	16.23
1016.074	51.1
1016.235	42.77
1016.395	24.56
1016.556	11.38
1016.717	-5.47
1016.877	63.89
1017.038	-13.61
1017.199	7.51
1017.359	-7.99
1017.52	24.17
1017.681	-16.32
1017.841	10.41
1018.002	-7.6
1018.162	31.34
1018.323	75.13
1018.483	-2.95
1018.644	-10.12
1018.804	-15.35
1018.964	-20.97
1019.125	1.89
1019.285	36.57
1019.446	-24.27
1019.606	3.05
1019.766	-8.38
1019.926	43.74
1020.087	30.95
1020.247	-31.44
1020.407	51.49
1020.567	43.74
1020.728	-3.15
1020.888	-19.81
1021.048	11.96
1021.208	7.31
1021.368	19.71
1021.528	75.32
1021.688	48.58
1021.848	60.59
1022.008	37.34
1022.168	12.55
1022.328	29.79
1022.488	36.38
1022.648	2.08
1022.808	36.96
1022.968	27.85
1023.128	2.86
1023.288	12.93
1023.448	28.24
1023.608	55.17
1023.767	51.1
1023.927	-6.44
1024.087	-17.68
1024.247	-30.08
1024.406	14.87
1024.566	-22.33
1024.726	-16.9
1024.885	33.08
1025.045	40.64
1025.205	-5.86
1025.364	26.69
1025.524	21.46
1025.683	-2.18
1025.843	39.48
1026.003	18.94
1026.162	75.71
1026.321	78.61
1026.481	15.65
1026.64	19.52
1026.8	23.01
1026.959	28.04
1027.119	19.52
1027.278	16.23
1027.437	6.93
1027.597	33.86
1027.756	29.01
1027.915	28.82
1028.074	20.3
1028.234	-11.87
1028.393	31.14
1028.552	-9.74
1028.711	-67.47
1028.87	65.05
1029.03	-25.24
1029.189	28.63
1029.348	-38.99
1029.507	-5.86
1029.666	-9.15
1029.825	-34.34
1029.984	3.44
1030.143	37.34
1030.302	9.64
1030.461	-35.89
1030.62	24.94
1030.779	59.24
1030.938	-6.25
1031.097	-26.59
1031.255	34.24
1031.414	58.08
1031.573	36.96
1031.732	-48.1
1031.891	-18.45
1032.049	51.88
1032.208	11.58
1032.367	14.29
1032.525	10.61
1032.684	22.23
1032.843	-3.54
1033.001	-30.08
1033.16	154.95
1033.319	63.69
1033.477	21.84
1033.636	0.53
1033.794	-34.92
1033.953	49.55
1034.111	17.58
1034.27	-17.68
1034.428	28.63
1034.587	-18.07
1034.745	12.74
1034.903	16.03
1035.062	40.06
1035.22	-34.92
1035.378	12.74
1035.537	-4.7
1035.695	52.07
1035.853	3.44
1036.011	30.95
1036.17	30.95
1036.328	-48.29
1036.486	17.97
1036.644	18.94
1036.802	-83.36
1036.96	-8.38
1037.119	25.91
1037.277	7.31
1037.435	-21.36
1037.593	0.92
1037.751	-2.76
1037.909	23.78
1038.067	23.78
