Data from pine_FLMT105791__176__17-23-30-073.txt Node

Date: Mon Mar 20 17:23:30 GMT 2023
User: antho
Spectrometer: FLMT10579
Trigger mode: 0
Integration Time (sec): 1.000000E-1
Scans to average: 10
Electric dark correction enabled: true
Nonlinearity correction enabled: false
Boxcar width: 0
XAxis mode: Wavelengths
Number of Pixels in Spectrum: 3648
>>>>>Begin Spectral Data<<<<<
345.248	-159.79
345.464	-159.79
345.681	-159.79
345.898	-155.72
346.114	-153.59
346.331	-33.86
346.548	32.79
346.764	-8.86
346.981	-1.7
347.197	-23.2
347.414	15.74
347.631	-13.9
347.847	58.95
348.064	5.86
348.28	21.55
348.497	-49.16
348.713	-4.21
348.93	11.29
349.146	20.59
349.363	18.26
349.579	14
349.796	0.63
350.012	-23.39
350.229	48.87
350.445	32.4
350.661	-21.07
350.878	3.34
351.094	19.04
351.311	-5.57
351.527	13.8
351.743	7.02
351.96	59.14
352.176	42.09
352.392	30.08
352.609	57.4
352.825	-18.36
353.041	41.7
353.257	-8.86
353.474	12.45
353.69	12.25
353.906	13.61
354.122	-11.96
354.339	52.36
354.555	7.99
354.771	22.72
354.987	72.51
355.203	71.73
355.42	14.39
355.636	16.52
355.852	-14.48
356.068	-12.74
356.284	-23.98
356.5	57.4
356.716	14.77
356.932	27.17
357.148	64.57
357.364	-3.25
357.58	65.54
357.796	41.9
358.012	55.85
358.228	33.18
358.444	-60.79
358.66	67.86
358.876	26.01
359.092	-2.47
359.308	16.52
359.524	61.85
359.74	6.25
359.956	-15.65
360.172	-7.9
360.388	56.04
360.604	-3.63
360.819	91.5
361.035	13.03
361.251	43.64
361.467	-14.29
361.683	48.87
361.898	42.48
362.114	42.48
362.33	29.5
362.546	30.47
362.762	1.4
362.977	28.14
363.193	-3.05
363.409	35.7
363.624	-24.94
363.84	-22.23
364.056	4.5
364.271	47.13
364.487	18.45
364.703	-6.54
364.918	-4.6
365.134	-16.42
365.35	2.76
365.565	111.84
365.781	40.74
365.996	34.54
366.212	50.81
366.427	40.54
366.643	2.37
366.858	-29.21
367.074	-18.16
367.289	55.46
367.505	124.82
367.72	-11.77
367.936	-33.08
368.151	47.9
368.367	27.56
368.582	24.27
368.798	5.28
369.013	60.11
369.228	33.76
369.444	-14.87
369.659	96.73
369.874	48.87
370.09	60.5
370.305	-19.13
370.52	19.62
370.736	58.56
370.951	23.1
371.166	59.14
371.381	98.47
371.597	42.48
371.812	6.05
372.027	-8.48
372.242	5.28
372.458	94.02
372.673	-19.13
372.888	28.92
373.103	70.38
373.318	121.33
373.533	23.3
373.749	19.81
373.964	-19.52
374.179	69.02
374.394	-12.93
374.609	41.9
374.824	-19.13
375.039	69.41
375.254	16.13
375.469	66.7
375.684	19.81
375.899	38.41
376.114	22.14
376.329	23.3
376.544	77.93
376.759	46.55
376.974	13.22
377.189	5.09
377.404	8.77
377.619	51.97
377.834	-34.83
378.049	-18.75
378.264	-34.63
378.478	61.85
378.693	-8.28
378.908	40.35
379.123	2.95
379.338	61.08
379.553	26.98
379.767	42.48
379.982	44.03
380.197	46.74
380.412	27.56
380.626	40.15
380.841	93.05
381.056	53.52
381.271	65.92
381.485	0.44
381.7	-17
381.915	30.27
382.129	24.65
382.344	31.44
382.559	27.95
382.773	45
382.988	-21.46
383.202	56.43
383.417	5.09
383.632	119.59
383.846	39.19
384.061	53.52
384.275	27.37
384.49	55.07
384.704	34.54
384.919	35.31
385.133	10.7
385.348	55.85
385.562	-21.84
385.777	63.6
385.991	25.43
386.206	25.24
386.42	11.67
386.634	75.61
386.849	43.64
387.063	30.66
387.277	-5.38
387.492	15.74
387.706	0.24
387.92	-25.72
388.135	40.35
388.349	31.82
388.563	23.49
388.778	15.55
388.992	75.22
389.206	65.54
389.42	81.03
389.635	38.22
389.849	42.09
390.063	84.91
390.277	43.25
390.491	92.47
390.706	42.48
390.92	44.8
391.134	34.54
391.348	40.93
391.562	-25.72
391.776	36.47
391.99	-12.35
392.205	79.87
392.419	-14.1
392.633	5.67
392.847	70.38
393.061	11.48
393.275	88.78
393.489	38.8
393.703	65.53
393.917	64.95
394.131	8.96
394.345	74.25
394.559	73.48
394.773	15.55
394.986	52.36
395.2	22.91
395.414	58.75
395.628	-21.26
395.842	40.93
396.056	16.71
396.27	-33.66
396.484	42.67
396.697	61.47
396.911	91.3
397.125	70.77
397.339	62.63
397.553	69.22
397.766	107
397.98	65.34
398.194	69.6
398.408	15.35
398.621	53.33
398.835	86.85
399.049	54.88
399.262	76
399.476	88.78
399.69	66.12
399.903	137.42
400.117	56.43
400.331	61.27
400.544	22.72
400.758	164.15
400.971	58.56
401.185	83.55
401.398	34.73
401.612	110.29
401.826	67.67
402.039	75.61
402.253	53.14
402.466	97.12
402.68	40.74
402.893	74.06
403.106	56.82
403.32	58.56
403.533	58.75
403.747	65.15
403.96	50.23
404.174	69.8
404.387	19.04
404.6	54.49
404.814	83.55
405.027	47.52
405.24	51.97
405.454	87.62
405.667	95.76
405.88	2.37
406.094	42.67
406.307	91.3
406.52	69.02
406.733	21.94
406.947	3.73
407.16	145.36
407.373	84.91
407.586	49.26
407.799	14
408.012	93.43
408.226	92.08
408.439	111.45
408.652	0.24
408.865	78.52
409.078	111.26
409.291	82.2
409.504	46.35
409.717	83.94
409.93	78.9
410.143	71.15
410.357	-4.41
410.57	15.55
410.783	40.74
410.996	77.35
411.209	59.72
411.421	97.89
411.634	82.97
411.847	29.89
412.06	66.5
412.273	49.84
412.486	72.12
412.699	152.72
412.912	73.09
413.125	96.34
413.338	82
413.55	100.8
413.763	87.82
413.976	70.38
414.189	36.47
414.402	52.55
414.615	122.3
414.827	41.12
415.04	104.28
415.253	73.09
415.466	88.98
415.678	142.65
415.891	92.27
416.104	83.94
416.316	49.84
416.529	42.67
416.742	85.3
416.954	123.47
417.167	59.34
417.38	62.63
417.592	110.1
417.805	41.7
418.017	14.97
418.23	95.18
418.442	43.84
418.655	56.24
418.868	94.21
419.08	103.12
419.293	98.86
419.505	72.9
419.718	93.63
419.93	119.01
420.142	25.43
420.355	126.37
420.567	131.6
420.78	105.45
420.992	79.68
421.205	116.68
421.417	36.28
421.629	76
421.842	78.71
422.054	33.18
422.266	114.17
422.479	112.23
422.691	52.36
422.903	113.78
423.115	45.97
423.328	78.52
423.54	64.57
423.752	89.17
423.964	77.93
424.177	93.82
424.389	89.37
424.601	210.07
424.813	93.63
425.025	118.43
425.238	121.92
425.45	82
425.662	55.27
425.874	381.92
426.086	77.35
426.298	95.18
426.51	108.55
426.722	68.25
426.934	80.07
427.146	118.43
427.358	47.52
427.57	124.05
427.782	98.86
427.994	83.17
428.206	51.59
428.418	14.97
428.63	129.67
428.842	126.95
429.054	94.4
429.266	105.45
429.478	68.44
429.69	105.06
429.902	81.23
430.114	129.08
430.325	110.87
430.537	83.75
430.749	89.56
430.961	15.94
431.173	94.02
431.384	118.43
431.596	48.87
431.808	90.14
432.02	94.79
432.231	119.2
432.443	139.74
432.655	123.66
432.867	78.71
433.078	124.63
433.29	170.93
433.502	165.7
433.713	136.45
433.925	82.39
434.136	174.03
434.348	51
434.56	50.23
434.771	219.95
434.983	66.31
435.194	85.88
435.406	97.31
435.617	138.38
435.829	176.16
436.04	163.76
436.252	163.18
436.463	174.03
436.675	160.47
436.886	137.42
437.098	146.13
437.309	205.61
437.521	151.75
437.732	149.23
437.943	152.72
438.155	139.74
438.366	86.65
438.578	219.95
438.789	163.76
439	162.21
439.211	152.33
439.423	178.49
439.634	161.05
439.845	143.03
440.057	154.46
440.268	169.77
440.479	113.97
440.69	151.37
440.902	153.11
441.113	125.4
441.324	139.35
441.535	156.4
441.746	194.57
441.957	101.38
442.168	136.45
442.38	167.06
442.591	173.84
442.802	148.85
443.013	136.25
443.224	199.41
443.435	137.22
443.646	142.26
443.857	151.75
444.068	140.32
444.279	136.45
444.49	219.37
444.701	159.31
444.912	278.08
445.123	177.13
445.334	193.8
445.545	196.12
445.756	149.04
445.967	177.13
446.178	205.61
446.388	207.94
446.599	212.4
446.81	217.24
447.021	150.01
447.232	222.47
447.443	223.25
447.653	163.38
447.864	214.33
448.075	198.06
448.286	224.21
448.496	185.27
448.707	222.47
448.918	162.41
449.129	249.79
449.339	167.06
449.55	183.14
449.761	180.62
449.971	251.14
450.182	191.28
450.393	231.96
450.603	193.8
450.814	233.13
451.024	224.8
451.235	235.26
451.446	249.98
451.656	259.48
451.867	208.91
452.077	216.08
452.288	263.35
452.498	256.18
452.709	203.48
452.919	238.36
453.13	186.82
453.34	265.87
453.55	180.81
453.761	252.11
453.971	248.43
454.182	255.6
454.392	266.84
454.602	283.31
454.813	212.01
455.023	262.96
455.233	165.51
455.444	237.2
455.654	185.08
455.864	205.03
456.075	224.21
456.285	221.5
456.495	227.9
456.705	242.81
456.916	284.08
457.126	274.01
457.336	240.49
457.546	180.81
457.756	226.73
457.967	268.19
458.177	240.88
458.387	256.38
458.597	200.38
458.807	215.88
459.017	231.77
459.227	221.7
459.437	218.01
459.647	260.44
459.857	255.79
460.068	217.05
460.278	274.01
460.488	249.98
460.698	311.4
460.908	245.72
461.117	205.81
461.327	210.07
461.537	249.01
461.747	233.32
461.957	273.62
462.167	336.59
462.377	269.74
462.587	274.98
462.797	299.19
463.007	258.31
463.216	269.36
463.426	297.45
463.636	280.4
463.846	203.48
464.056	249.79
464.265	297.26
464.475	259.28
464.685	292.41
464.895	272.84
465.104	244.94
465.314	290.86
465.524	251.92
465.733	261.22
465.943	316.44
466.153	335.81
466.362	282.53
466.572	283.31
466.782	253.08
466.991	237.97
467.201	323.8
467.41	211.81
467.62	290.09
467.829	251.73
468.039	293.96
468.249	274.78
468.458	282.92
468.668	313.53
468.877	318.38
469.086	347.63
469.296	299.97
469.505	267.42
469.715	347.63
469.924	306.56
470.134	335.23
470.343	341.04
470.552	279.82
470.762	283.11
470.971	248.04
471.18	309.08
471.39	273.81
471.599	282.14
471.808	333.1
472.018	223.44
472.227	324.19
472.436	325.54
472.645	289.51
472.855	285.44
473.064	358.29
473.273	320.7
473.482	331.55
473.691	353.44
473.901	330.19
474.11	318.76
474.319	394.13
474.528	335.62
474.737	365.46
474.946	364.29
475.155	343.37
475.364	384.64
475.573	337.94
475.783	360.61
475.992	341.82
476.201	408.08
476.41	330.19
476.619	301.52
476.828	327.29
477.037	328.45
477.245	343.95
477.454	402.27
477.663	345.5
477.872	359.45
478.081	399.56
478.29	325.35
478.499	425.71
478.708	344.14
478.917	411.18
479.125	369.33
479.334	358.29
479.543	385.99
479.752	372.82
479.961	383.86
480.169	412.73
480.378	349.37
480.587	476.09
480.796	398.39
481.004	387.74
481.213	417.77
481.422	386.57
481.63	392.77
481.839	409.05
482.048	478.02
482.256	407.69
482.465	404.59
482.674	440.63
482.882	427.45
483.091	481.7
483.299	470.08
483.508	424.55
483.716	402.85
483.925	425.71
484.134	412.34
484.342	392.97
484.551	466.98
484.759	441.02
484.967	447.02
485.176	459.62
485.384	441.02
485.593	452.64
485.801	445.47
486.01	442.37
486.218	441.79
486.426	364.87
486.635	419.32
486.843	392
487.051	402.85
487.26	390.84
487.468	458.45
487.676	472.79
487.885	416.22
488.093	462.14
488.301	476.47
488.509	448.57
488.717	476.47
488.926	421.84
489.134	442.76
489.342	470.08
489.55	442.76
489.758	445.28
489.967	432.1
490.175	560.56
490.383	502.05
490.591	545.45
490.799	466.98
491.007	546.03
491.215	476.09
491.423	475.7
491.631	476.67
491.839	494.3
492.047	522.58
492.255	451.67
492.463	434.62
492.671	477.25
492.879	525.3
493.087	498.56
493.295	520.07
493.503	516.19
493.711	544.48
493.919	550.87
494.127	540.99
494.334	531.88
494.542	475.89
494.75	508.44
494.958	513.28
495.166	572.18
495.374	517.93
495.581	503.21
495.789	530.14
495.997	549.71
496.205	533.24
496.412	496.43
496.62	535.57
496.828	547.38
497.035	522.39
497.243	540.99
497.451	533.63
497.658	551.84
497.866	538.47
498.074	572.57
498.281	523.75
498.489	603.96
498.696	565.02
498.904	540.02
499.112	539.63
499.319	608.8
499.527	510.77
499.734	594.27
499.942	507.08
500.149	533.63
500.357	567.53
500.564	510.77
500.771	578.77
500.979	514.64
501.186	526.85
501.394	550.87
501.601	563.85
501.808	585.94
502.016	527.62
502.223	558.04
502.43	574.51
502.638	549.32
502.845	524.52
503.052	599.89
503.26	553.97
503.467	632.05
503.674	555.72
503.881	568.89
504.089	657.05
504.296	589.43
504.503	564.82
504.71	539.83
504.917	544.48
505.125	595.05
505.332	579.93
505.539	599.7
505.746	648.13
505.953	604.93
506.16	622.75
506.367	647.36
506.574	644.84
506.781	658.79
506.988	564.82
507.195	606.86
507.402	611.32
507.609	645.81
507.816	594.46
508.023	589.23
508.23	606.86
508.437	532.66
508.644	635.35
508.851	670.03
509.058	641.93
509.265	620.62
509.472	673.51
509.679	711.88
509.885	612.87
510.092	603.18
510.299	620.81
510.506	641.16
510.713	646.58
510.92	649.49
511.126	649.1
511.333	683.98
511.54	663.83
511.746	683.59
511.953	695.41
512.16	701.03
512.367	641.35
512.573	666.54
512.78	672.16
512.987	671.77
513.193	682.81
513.4	591.36
513.606	655.3
513.813	674.68
514.02	649.49
514.226	750.43
514.433	725.83
514.639	626.82
514.846	652.59
515.052	635.15
515.259	663.05
515.465	640.58
515.672	674.48
515.878	755.08
516.085	641.74
516.291	728.15
516.497	629.92
516.704	637.48
516.91	629.73
517.117	637.67
517.323	600.86
517.529	621.01
517.736	603.76
517.942	624.5
518.148	621.01
518.354	645.61
518.561	652.98
518.767	646.58
518.973	685.91
519.179	677.97
519.386	649.3
519.592	667.7
519.798	645.81
520.004	701.41
520.21	658.98
520.417	717.88
520.623	719.63
520.829	723.31
521.035	728.54
521.241	704.13
521.447	755.66
521.653	807.59
521.859	717.49
522.065	744.62
522.271	817.86
522.477	744.04
522.683	811.85
522.889	762.25
523.095	778.72
523.301	749.08
523.507	739.39
523.713	748.88
523.919	687.08
524.125	804.49
524.331	755.66
524.537	794.22
524.742	803.13
524.948	811.46
525.154	799.06
525.36	897.49
525.566	826.38
525.772	790.92
525.977	741.91
526.183	797.9
526.389	858.15
526.595	771.36
526.8	769.42
527.006	755.86
527.212	700.06
527.417	727.57
527.623	722.92
527.829	780.07
528.034	790.15
528.24	771.16
528.446	783.95
528.651	827.35
528.857	823.67
529.062	879.47
529.268	815.14
529.473	808.75
529.679	822.51
529.884	899.23
530.09	856.22
530.295	885.09
530.501	869.78
530.706	849.63
530.912	793.06
531.117	832
531.323	850.41
531.528	864.94
531.733	904.46
531.939	827.35
532.144	891.29
532.35	865.9
532.555	884.12
532.76	898.45
532.966	915.7
533.171	874.24
533.376	847.31
533.581	826.38
533.787	879.08
533.992	869.39
534.197	905.24
534.402	841.3
534.607	868.23
534.813	944.95
535.018	853.31
535.223	854.09
535.428	874.43
535.633	932.55
535.838	871.91
536.043	902.72
536.249	984.28
536.454	886.44
536.659	901.75
536.864	897.68
537.069	896.13
537.274	932.55
537.479	906.2
537.684	914.34
537.889	863
538.094	965.49
538.299	924.8
538.504	914.92
538.708	912.4
538.913	910.85
539.118	919.96
539.323	937.98
539.528	885.47
539.733	888.77
539.938	937.01
540.142	937.2
540.347	906.79
540.552	869.59
540.757	910.47
540.962	937.59
541.166	879.08
541.371	863.97
541.576	900.2
541.781	773.68
541.985	894.39
542.19	925
542.395	968.59
542.599	972.27
542.804	907.56
543.008	969.56
543.213	936.62
543.418	909.89
543.622	972.66
543.827	865.32
544.031	977.89
544.236	991.45
544.44	923.64
544.645	1001.92
544.849	928.29
545.054	971.5
545.258	1038.92
545.463	1003.85
545.667	925.19
545.872	987
546.076	974.4
546.281	979.25
546.485	926.35
546.689	962.58
546.894	980.41
547.098	932.75
547.302	910.27
547.507	924.42
547.711	961.03
547.915	1042.41
548.119	935.07
548.324	930.42
548.528	1032.53
548.732	972.08
548.936	977.89
549.141	994.75
549.345	935.07
549.549	944.18
549.753	954.25
549.957	1065.66
550.161	1011.99
550.366	955.61
550.57	912.6
550.774	945.34
550.978	948.44
551.182	964.72
551.386	933.52
551.59	960.84
551.794	940.5
551.998	966.27
552.202	946.7
552.406	899.42
552.61	960.84
552.814	958.32
553.018	1007.73
553.222	966.65
553.426	975.95
553.63	1024.39
553.833	961.23
554.037	887.8
554.241	1004.63
554.445	986.61
554.649	954.83
554.853	967.04
555.056	1019.16
555.26	995.91
555.464	997.65
555.668	1001.92
555.871	1018.19
556.075	1018.77
556.279	975.57
556.483	919.38
556.686	950.38
556.89	935.85
557.094	984.67
557.297	896.71
557.501	983.7
557.704	907.17
557.908	1018.58
558.112	937.01
558.315	1024.2
558.519	960.84
558.722	943.21
558.926	956.19
559.129	914.15
559.333	889.74
559.536	898.26
559.74	881.6
559.943	908.72
560.147	889.15
560.35	896.13
560.553	895.35
560.757	853.7
560.96	964.91
561.164	900
561.367	972.85
561.57	899.62
561.774	931.39
561.977	915.5
562.18	900.97
562.384	999.59
562.587	910.47
562.79	899.81
562.993	909.11
563.197	930.42
563.4	972.85
563.603	999.98
563.806	1052.48
564.009	902.33
564.212	927.71
564.416	881.6
564.619	918.6
564.822	867.07
565.025	940.69
565.228	917.05
565.431	914.34
565.634	846.34
565.837	918.99
566.04	901.94
566.243	866.1
566.446	784.72
566.649	911.63
566.852	844.01
567.055	863
567.258	934.3
567.461	941.85
567.664	957.74
567.867	830.26
568.07	882.95
568.273	869.2
568.475	920.35
568.678	835.29
568.881	881.21
569.084	862.61
569.287	799.64
569.489	829.87
569.692	894
569.895	880.05
570.098	806.23
570.3	828.51
570.503	782.4
570.706	791.7
570.909	825.22
571.111	802.16
571.314	787.05
571.516	797.9
571.719	841.11
571.922	827.54
572.124	791.51
572.327	806.23
572.529	773.87
572.732	820.57
572.935	818.24
573.137	844.4
573.34	806.04
573.542	842.46
573.745	805.65
573.947	854.28
574.15	835.49
574.352	794.22
574.554	888.96
574.757	806.42
574.959	788.21
575.162	770.97
575.364	780.66
575.566	886.64
575.769	756.05
575.971	788.79
576.173	735.32
576.376	788.41
576.578	829.09
576.78	839.75
576.982	715.17
577.185	776.59
577.387	759.15
577.589	753.73
577.791	809.72
577.993	791.89
578.196	780.85
578.398	801.19
578.6	803.32
578.802	720.98
579.004	770.97
579.206	770.39
579.408	795.38
579.61	731.83
579.812	813.59
580.014	770
580.216	770.19
580.418	740.16
580.62	727.57
580.822	697.73
581.024	730.09
581.226	818.63
581.428	756.83
581.63	825.99
581.832	732.8
582.034	828.32
582.236	766.32
582.438	838.01
582.64	819.21
582.841	834.71
583.043	831.42
583.245	787.24
583.447	798.29
583.649	774.26
583.85	790.15
584.052	812.24
584.254	787.63
584.456	811.66
584.657	739.78
584.859	766.32
585.061	779.49
585.262	758.38
585.464	745.98
585.666	809.91
585.867	793.44
586.069	832.58
586.27	803.91
586.472	777.94
586.674	758.38
586.875	755.86
587.077	761.28
587.278	757.02
587.48	768.45
587.681	870.17
587.883	813.79
588.084	723.31
588.285	753.53
588.487	733.58
588.688	765.54
588.89	712.46
589.091	692.5
589.292	712.65
589.494	693.28
589.695	699.86
589.896	605.51
590.098	612.1
590.299	715.17
590.5	642.71
590.702	646.58
590.903	678.55
591.104	751.21
591.305	694.44
591.507	746.75
591.708	732.99
591.909	730.28
592.11	788.21
592.311	720.59
592.512	708.97
592.714	672.74
592.915	709.94
593.116	689.4
593.317	683.98
593.518	711.49
593.719	681.07
593.92	732.22
594.121	779.69
594.322	734.93
594.523	719.82
594.724	688.82
594.925	702.58
595.126	752.95
595.327	717.11
595.528	723.89
595.729	707.03
595.929	730.09
596.13	711.88
596.331	715.94
596.532	698.31
596.733	781.62
596.934	731.64
597.135	730.09
597.335	714.01
597.536	683.78
597.737	738.61
597.938	708
598.138	736.87
598.339	729.89
598.54	734.35
598.74	728.54
598.941	745.59
599.142	765.16
599.342	715.56
599.543	731.83
599.744	704.13
599.944	722.34
600.145	699.28
600.345	756.24
600.546	788.6
600.746	775.81
600.947	782.01
601.147	755.28
601.348	761.28
601.548	701.41
601.749	709.74
601.949	679.13
602.15	694.05
602.35	718.66
602.551	741.33
602.751	693.47
602.951	667.31
603.152	646.97
603.352	722.53
603.552	710.13
603.753	734.93
603.953	740.36
604.153	730.67
604.354	697.73
604.554	718.46
604.754	680.68
604.954	681.65
605.155	760.12
605.355	696.57
605.555	757.6
605.755	742.68
605.955	705.68
606.155	758.96
606.356	733.58
606.556	774.26
606.756	755.66
606.956	691.53
607.156	775.62
607.356	720.98
607.556	737.26
607.756	699.86
607.956	765.93
608.156	682.04
608.356	703.35
608.556	713.81
608.756	724.28
608.956	696.96
609.156	713.81
609.356	658.21
609.556	721.76
609.755	713.81
609.955	698.7
610.155	718.85
610.355	720.98
610.555	674.48
610.755	706.64
610.954	649.1
611.154	701.99
611.354	719.43
611.554	660.53
611.753	678.36
611.953	650.65
612.153	729.51
612.352	718.85
612.552	664.41
612.752	598.34
612.951	664.02
613.151	694.05
613.351	663.63
613.55	690.56
613.75	684.56
613.949	687.85
614.149	685.14
614.348	681.46
614.548	636.51
614.747	599.7
614.947	658.98
615.146	634.57
615.346	686.88
615.545	696.38
615.745	665.38
615.944	720.21
616.144	673.9
616.343	706.64
616.542	646
616.742	698.51
616.941	650.07
617.14	608.22
617.34	658.98
617.539	678.74
617.738	634.57
617.938	706.26
618.137	658.6
618.336	623.72
618.535	664.99
618.734	650.65
618.934	665.96
619.133	674.1
619.332	671.58
619.531	635.15
619.73	649.88
619.929	707.42
620.128	668.67
620.328	705.29
620.527	642.9
620.726	638.06
620.925	654.33
621.124	669.06
621.323	659.18
621.522	655.11
621.721	621.98
621.92	637.09
622.119	651.43
622.318	636.7
622.517	626.24
622.715	623.14
622.914	585.75
623.113	614.03
623.312	586.72
623.511	629.15
623.71	632.83
623.909	617.91
624.107	665.57
624.306	601.25
624.505	601.25
624.704	595.24
624.902	606.28
625.101	680.88
625.3	622.95
625.499	607.83
625.697	610.16
625.896	589.43
626.095	602.8
626.293	569.67
626.492	585.75
626.69	606.48
626.889	574.32
627.088	648.71
627.286	536.92
627.485	600.47
627.683	546.42
627.882	608.41
628.08	529.95
628.279	581.48
628.477	632.05
628.676	547.38
628.874	604.93
629.073	589.62
629.271	579.74
629.469	600.08
629.668	567.92
629.866	586.33
630.065	563.27
630.263	620.23
630.461	526.27
630.66	597.37
630.858	620.62
631.056	617.91
631.254	624.3
631.453	553.58
631.651	608.22
631.849	579.16
632.047	589.43
632.245	572.18
632.444	585.17
632.642	598.92
632.84	604.15
633.038	570.44
633.236	541.96
633.434	558.23
633.632	540.8
633.83	548.16
634.028	625.85
634.227	572.38
634.425	616.94
634.623	557.27
634.821	627.79
635.019	601.44
635.216	583.62
635.414	600.47
635.612	576.06
635.81	570.05
636.008	627.4
636.206	573.35
636.404	603.96
636.602	573.15
636.8	602.41
636.997	617.13
637.195	575.28
637.393	596.01
637.591	629.34
637.789	619.85
637.986	556.3
638.184	598.34
638.382	618.3
638.58	594.66
638.777	648.52
638.975	612.29
639.173	563.08
639.37	590.98
639.568	619.65
639.765	601.25
639.963	568.31
640.161	633.21
640.358	603.96
640.556	580.9
640.753	530.72
640.951	529.75
641.148	560.75
641.346	579.35
641.543	550.1
641.741	591.17
641.938	533.43
642.136	556.1
642.333	545.45
642.531	600.66
642.728	616.55
642.925	552.23
643.123	559.01
643.32	611.71
643.517	565.21
643.715	560.56
643.912	568.12
644.109	603.18
644.306	547.77
644.504	549.52
644.701	575.87
644.898	615.97
645.095	538.47
645.293	563.66
645.49	585.17
645.687	571.41
645.884	600.08
646.081	521.03
646.278	557.07
646.475	530.72
646.672	551.45
646.87	604.73
647.067	573.54
647.264	547.77
647.461	503.98
647.658	509.8
647.855	598.92
648.052	535.95
648.249	463.3
648.446	515.8
648.642	507.67
648.839	530.14
649.036	491.2
649.233	515.8
649.43	500.5
649.627	476.47
649.824	530.33
650.021	498.75
650.217	452.25
650.414	514.45
650.611	528.59
650.808	540.6
651.004	518.71
651.201	568.5
651.398	564.43
651.595	510.18
651.791	504.95
651.988	553.2
652.185	523.55
652.381	549.32
652.578	482.09
652.775	491.59
652.971	484.03
653.168	525.3
653.364	528.78
653.561	470.85
653.757	493.14
653.954	505.34
654.15	470.27
654.347	544.67
654.543	503.98
654.74	467.75
654.936	461.17
655.133	496.04
655.329	511.54
655.525	520.45
655.722	553.97
655.918	516.19
656.115	513.48
656.311	454.97
656.507	408.27
656.704	412.54
656.9	445.47
657.096	433.46
657.292	433.46
657.489	490.42
657.685	487.13
657.881	456.13
658.077	458.45
658.273	476.09
658.47	537.7
658.666	450.7
658.862	495.07
659.058	480.74
659.254	507.08
659.45	482.29
659.646	491.78
659.842	497.98
660.038	515.22
660.234	495.65
660.43	484.03
660.626	563.66
660.822	504.37
661.018	517.93
661.214	488.1
661.41	461.17
661.606	505.73
661.802	518.13
661.998	507.08
662.194	476.47
662.39	505.53
662.586	526.07
662.781	524.52
662.977	540.22
663.173	547.58
663.369	491.78
663.564	526.07
663.76	544.87
663.956	459.81
664.152	556.68
664.347	411.96
664.543	516.97
664.739	497.2
664.934	451.48
665.13	436.56
665.326	526.85
665.521	472.4
665.717	444.31
665.912	452.45
666.108	420.29
666.304	456.32
666.499	470.66
666.695	414.09
666.89	456.13
667.086	500.3
667.281	498.56
667.477	532.66
667.672	489.65
667.867	489.65
668.063	519.68
668.258	459.04
668.454	466.2
668.649	543.32
668.844	460.97
669.04	524.13
669.235	491.39
669.43	455.94
669.626	439.66
669.821	465.82
670.016	456.13
670.211	485.19
670.407	443.54
670.602	460.78
670.797	478.22
670.992	493.33
671.187	425.32
671.382	519.1
671.578	455.35
671.773	485
671.968	440.05
672.163	472.79
672.358	502.05
672.553	447.99
672.748	434.62
672.943	531.69
673.138	455.35
673.333	460.97
673.528	436.75
673.723	463.1
673.918	464.27
674.113	431.72
674.308	540.02
674.503	490.81
674.698	472.6
674.892	487.13
675.087	484.8
675.282	462.91
675.477	433.07
675.672	472.99
675.867	470.47
676.061	407.31
676.256	398.78
676.451	473.18
676.646	438.69
676.84	428.42
677.035	419.12
677.23	421.84
677.424	448.77
677.619	484.03
677.814	494.49
678.008	443.34
678.203	382.31
678.397	403.04
678.592	441.99
678.787	478.02
678.981	447.8
679.176	420.29
679.37	435.4
679.565	408.86
679.759	432.69
679.954	488.1
680.148	514.45
680.342	506.7
680.537	488.1
680.731	420.87
680.926	465.04
681.12	461.36
681.314	423.77
681.509	430.36
681.703	409.05
681.897	454.39
682.092	443.54
682.286	420.09
682.48	485.77
682.674	482.09
682.869	429.97
683.063	416.6
683.257	504.76
683.451	405.37
683.645	457.68
683.839	420.29
684.034	457.29
684.228	473.57
684.422	409.44
684.616	433.65
684.81	454.97
685.004	426.1
685.198	446.25
685.392	466.2
685.586	400.91
685.78	467.56
685.974	419.32
686.168	450.32
686.362	524.72
686.556	412.92
686.75	398.78
686.944	394.71
687.138	459.42
687.331	325.74
687.525	378.82
687.719	313.34
687.913	387.93
688.107	391.42
688.301	362.36
688.494	373.98
688.688	340.66
688.882	311.98
689.076	322.83
689.269	357.32
689.463	434.62
689.657	359.26
689.85	370.11
690.044	382.51
690.238	351.51
690.431	371.07
690.625	400.91
690.818	368.75
691.012	370.11
691.205	413.7
691.399	348.41
691.593	412.15
691.786	471.63
691.98	423.97
692.173	457.1
692.366	431.14
692.56	465.62
692.753	504.95
692.947	399.94
693.14	476.67
693.333	465.82
693.527	412.73
693.72	442.37
693.914	435.59
694.107	411.18
694.3	448.19
694.493	462.72
694.687	472.6
694.88	406.34
695.073	486.94
695.266	485
695.46	447.99
695.653	528.78
695.846	492.75
696.039	423
696.232	436.75
696.425	468.92
696.618	507.86
696.812	488.49
697.005	537.7
697.198	599.31
697.391	555.91
697.584	562.3
697.777	567.34
697.97	588.07
698.163	571.99
698.356	566.18
698.549	636.7
698.742	580.9
698.935	519.87
699.127	544.48
699.32	510.96
699.513	512.7
699.706	570.63
699.899	556.88
700.092	539.44
700.285	576.06
700.477	540.41
700.67	584.58
700.863	601.83
701.056	633.41
701.248	618.3
701.441	623.53
701.634	592.53
701.826	693.08
702.019	572.18
702.212	640.58
702.404	574.32
702.597	603.76
702.79	598.15
702.982	646.78
703.175	659.76
703.367	692.11
703.56	683.39
703.752	756.63
703.945	684.17
704.137	676.42
704.33	702.58
704.522	675.84
704.715	696.18
704.907	738.42
705.1	736.09
705.292	704.51
705.484	711.88
705.677	740.16
705.869	740.36
706.061	797.51
706.254	817.08
706.446	751.4
706.638	748.88
706.831	842.27
707.023	769.81
707.215	857.19
707.407	823.28
707.599	827.54
707.792	826.38
707.984	827.35
708.176	889.15
708.368	822.7
708.56	831.42
708.752	846.53
708.944	859.51
709.136	874.04
709.329	829.87
709.521	936.43
709.713	931
709.905	883.73
710.097	929.45
710.289	888.19
710.481	900
710.672	942.63
710.864	908.53
711.056	980.41
711.248	953.48
711.44	968.2
711.632	917.25
711.824	962.2
712.016	1034.46
712.207	1005.4
712.399	997.85
712.591	1064.69
712.783	1017.03
712.975	1059.07
713.166	981.57
713.358	1029.62
713.55	1080.77
713.741	1065.85
713.933	1035.05
714.125	1049.77
714.316	1023.03
714.508	1092.59
714.7	1119.13
714.891	1090.85
715.083	1142.96
715.274	1082.9
715.466	1074.96
715.657	1114.1
715.849	1000.95
716.04	1098.79
716.232	1046.67
716.423	1123.59
716.615	1018.38
716.806	1042.02
716.998	1007.53
717.189	999.4
717.381	939.92
717.572	925.19
717.763	999.01
717.955	962.39
718.146	923.45
718.337	901.36
718.528	902.33
718.72	856.22
718.911	898.65
719.102	865.71
719.293	930.81
719.485	886.44
719.676	894
719.867	851.57
720.058	899.62
720.249	868.62
720.44	912.21
720.632	896.13
720.823	919.77
721.014	979.25
721.205	988.74
721.396	1018.77
721.587	1091.81
721.778	1084.84
721.969	1095.11
722.16	1150.52
722.351	1096.46
722.542	1202.44
722.733	1200.12
722.924	1171.25
723.115	1166.02
723.305	1168.15
723.496	1218.91
723.687	1128.24
723.878	1164.47
724.069	1156.91
724.26	1161.76
724.45	1109.64
724.641	1092.2
724.832	1166.79
725.023	1129.59
725.213	1122.23
725.404	1085.81
725.595	1132.5
725.785	1090.65
725.976	1114.1
726.167	1134.24
726.357	1130.18
726.548	1249.33
726.739	1149.36
726.929	1183.07
727.12	1210.19
727.31	1233.44
727.501	1194.11
727.691	1210.97
727.882	1223.17
728.072	1216.97
728.263	1212.13
728.453	1261.15
728.644	1272
728.834	1223.76
729.024	1242.74
729.215	1226.66
729.405	1255.72
729.596	1308.23
729.786	1296.8
729.976	1330.12
730.167	1315.59
730.357	1279.75
730.547	1264.83
730.737	1310.17
730.928	1397.74
731.118	1396.77
731.308	1333.8
731.498	1317.53
731.688	1407.62
731.879	1366.35
732.069	1470.01
732.259	1424.87
732.449	1450.05
732.639	1499.26
732.829	1481.83
733.019	1537.24
733.209	1551
733.399	1552.35
733.589	1604.47
733.779	1565.91
733.969	1558.16
734.159	1611.64
734.349	1651.94
734.539	1691.46
734.729	1677.71
734.919	1729.82
735.109	1693.21
735.299	1656.78
735.488	1714.32
735.678	1674.02
735.868	1702.7
736.058	1701.54
736.248	1710.26
736.437	1657.17
736.627	1662.01
736.817	1766.05
737.007	1715.49
737.196	1790.66
737.386	1732.34
737.576	1721.69
737.765	1738.54
737.955	1708.71
738.144	1797.25
738.334	1767.22
738.524	1703.47
738.713	1749.59
738.903	1760.63
739.092	1775.55
739.282	1817.59
739.471	1828.63
739.661	1787.17
739.85	1824.57
740.04	1867.97
740.229	1876.68
740.419	1879.2
740.608	1873.39
740.797	1882.11
740.987	1911.95
741.176	1901.29
741.365	1882.88
741.555	1860.41
741.744	1899.16
741.933	1882.3
742.123	1898.77
742.312	1923.18
742.501	1896.83
742.69	1968.71
742.88	1876.68
743.069	2003.39
743.258	1931.32
743.447	1979.95
743.636	1971.81
743.825	1903.42
744.014	1935.58
744.204	1953.99
744.393	1943.33
744.582	1964.26
744.771	2017.73
744.96	1943.72
745.149	2000.1
745.338	1950.31
745.527	1988.28
745.716	1950.7
745.905	1941.98
746.094	1998.55
746.283	1979.76
746.471	2017.73
746.66	2050.09
746.849	2049.7
747.038	2059.97
747.227	1993.71
747.416	2019.09
747.604	1995.45
747.793	1990.03
747.982	2015.41
748.171	2024.9
748.359	2044.08
748.548	1980.53
748.737	2023.54
748.926	1994.68
749.114	1953.02
749.303	1998.55
749.491	2039.82
749.68	1899.93
749.869	2005.53
750.057	1962.13
750.246	1972.59
750.434	1953.41
750.623	2002.81
750.811	1968.13
751	2019.86
751.188	1978.6
751.377	1999.33
751.565	1950.31
751.754	1933.06
751.942	1978.79
752.131	2012.89
752.319	1946.82
752.507	1902.84
752.696	2011.14
752.884	2049.31
753.072	1965.23
753.261	1982.08
753.449	1993.13
753.637	1966.39
753.825	2035.17
754.014	1928.61
754.202	1942.36
754.39	2024.51
754.578	2050.86
754.766	1958.45
754.955	1926.48
755.143	2013.28
755.331	1951.28
755.519	1948.18
755.707	1939.65
755.895	1950.5
756.083	1958.83
756.271	1907.1
756.459	1919.89
756.647	1994.48
756.835	1935
757.023	1912.53
757.211	1927.83
757.399	1937.52
757.587	1938.68
757.775	1886.37
757.963	1928.61
758.151	1922.99
758.339	1903.03
758.526	1892.77
758.714	1919.89
758.902	1831.54
759.09	1777.87
759.278	1721.69
759.465	1608.73
759.653	1357.05
759.841	1297.38
760.028	1084.26
760.216	961.62
760.404	959.1
760.591	778.14
760.779	644.45
760.967	585.94
761.154	475.89
761.342	526.65
761.529	496.24
761.717	528.78
761.905	472.4
762.092	544.87
762.28	508.63
762.467	515.03
762.655	463.3
762.842	480.93
763.029	502.43
763.217	490.04
763.404	504.37
763.592	535.18
763.779	464.27
763.966	545.64
764.154	531.5
764.341	591.17
764.528	577.03
764.716	620.04
764.903	650.85
765.09	675.45
765.277	709.16
765.465	795.19
765.652	828.71
765.839	871.33
766.026	935.07
766.213	960.07
766.4	1038.53
766.588	1165.24
766.775	1122.43
766.962	1168.15
767.149	1215.42
767.336	1333.03
767.523	1257.27
767.71	1363.84
767.897	1453.35
768.084	1513.02
768.271	1472.33
768.458	1512.63
768.645	1559.33
768.832	1542.47
769.019	1527.16
769.206	1562.04
769.392	1637.6
769.579	1733.89
769.766	1685.46
769.953	1653.68
770.14	1696.11
770.327	1654.26
770.513	1737.77
770.7	1775.55
770.887	1684.49
771.073	1754.04
771.26	1722.66
771.447	1685.84
771.634	1709.67
771.82	1775.55
772.007	1687.39
772.193	1724.79
772.38	1768.96
772.567	1743
772.753	1716.84
772.94	1734.09
773.126	1771.87
773.313	1778.65
773.499	1798.22
773.686	1771.87
773.872	1716.07
774.059	1711.03
774.245	1676.16
774.432	1685.46
774.618	1675.96
774.804	1725.95
774.991	1637.6
775.177	1739.12
775.363	1687.39
775.55	1719.56
775.736	1674.61
775.922	1699.02
776.109	1730.21
776.295	1706.96
776.481	1712.39
776.667	1735.05
776.853	1672.28
777.04	1681.39
777.226	1668.41
777.412	1754.82
777.598	1676.16
777.784	1668.6
777.97	1662.98
778.156	1739.12
778.342	1675.96
778.528	1672.86
778.715	1596.33
778.901	1643.99
779.087	1638.96
779.272	1631.01
779.458	1590.91
779.644	1666.08
779.83	1631.98
780.016	1728.27
780.202	1690.49
780.388	1638.18
780.574	1561.46
780.76	1606.02
780.946	1692.82
781.131	1613.19
781.317	1633.34
781.503	1577.15
781.689	1631.59
781.874	1732.73
782.06	1600.4
782.246	1583.16
782.432	1593.43
782.617	1606.02
782.803	1681.58
782.989	1541.7
783.174	1573.86
783.36	1561.84
783.545	1577.54
783.731	1587.61
783.916	1524.26
784.102	1571.14
784.288	1528.71
784.473	1545.76
784.659	1532.01
784.844	1581.03
785.029	1497.33
785.215	1545.18
785.4	1489.38
785.586	1597.11
785.771	1486.67
785.956	1538.6
786.142	1519.8
786.327	1510.11
786.512	1540.53
786.698	1509.92
786.883	1466.33
787.068	1524.26
787.254	1514.76
787.439	1484.54
787.624	1495.58
787.809	1474.27
787.994	1488.8
788.18	1515.73
788.365	1445.02
788.55	1485.12
788.735	1469.81
788.92	1462.07
789.105	1456.25
789.29	1482.6
789.475	1458.38
789.66	1441.33
789.845	1425.25
790.03	1439.2
790.215	1493.26
790.4	1466.91
790.585	1493.84
790.77	1464.97
790.955	1374.49
791.14	1438.82
791.325	1501.78
791.51	1362.87
791.695	1422.93
791.879	1387.86
792.064	1374.1
792.249	1451.99
792.434	1387.08
792.618	1391.73
792.803	1448.31
792.988	1381.47
793.173	1427.38
793.357	1458.58
793.542	1368.1
793.727	1398.32
793.911	1405.1
794.096	1376.62
794.281	1426.42
794.465	1514.57
794.65	1399.68
794.834	1431.84
795.019	1459.16
795.203	1427.58
795.388	1475.24
795.572	1480.28
795.757	1463.61
795.941	1479.11
796.126	1464.78
796.31	1400.45
796.494	1415.18
796.679	1389.8
796.863	1383.21
797.048	1452.96
797.232	1461.29
797.416	1425.06
797.601	1404.91
797.785	1485.7
797.969	1481.05
798.153	1408.2
798.338	1421.18
798.522	1476.98
798.706	1442.88
798.89	1468.26
799.074	1516.31
799.258	1480.28
799.443	1444.24
799.627	1420.02
799.811	1503.14
799.995	1467.1
800.179	1414.79
800.363	1463.62
800.547	1496.94
800.731	1494.81
800.915	1410.33
801.099	1433.97
801.283	1439.4
801.467	1477.18
801.651	1468.65
801.835	1483.38
802.019	1463.03
802.202	1460.71
802.386	1407.62
802.57	1401.81
802.754	1432.81
802.938	1403.75
803.121	1400.26
803.305	1482.41
803.489	1422.54
803.673	1421.18
803.856	1488.03
804.04	1438.82
804.224	1447.92
804.407	1427.19
804.591	1415.18
804.775	1408.4
804.958	1447.53
805.142	1530.07
805.326	1460.13
805.509	1443.66
805.693	1443.66
805.876	1490.93
806.06	1458
806.243	1487.06
806.427	1474.27
806.61	1457.42
806.794	1409.75
806.977	1477.18
807.16	1451.22
807.344	1479.11
807.527	1457.61
807.71	1415.18
807.894	1494.03
808.077	1536.08
808.26	1421.38
808.444	1404.33
808.627	1495.39
808.81	1422.54
808.993	1366.55
809.177	1374.3
809.36	1424.67
809.543	1434.94
809.726	1322.57
809.909	1329.35
810.092	1332.25
810.276	1348.92
810.459	1351.24
810.642	1337.87
810.825	1321.99
811.008	1347.17
811.191	1307.07
811.374	1266.77
811.557	1297.19
811.74	1353.18
811.923	1234.41
812.106	1275.87
812.289	1211.36
812.472	1242.94
812.654	1281.88
812.837	1247.01
813.02	1223.95
813.203	1199.93
813.386	1100.34
813.569	1108.48
813.751	1071.66
813.934	1137.34
814.117	1135.02
814.3	1090.85
814.482	1069.73
814.665	1029.81
814.848	1045.7
815.03	984.09
815.213	1008.5
815.396	995.33
815.578	987.77
815.761	962.58
815.943	1004.63
816.126	938.95
816.309	901.75
816.491	879.66
816.674	825.22
816.856	899.04
817.039	876.17
817.221	975.18
817.403	886.83
817.586	913.37
817.768	927.71
817.951	841.11
818.133	877.53
818.315	870.55
818.498	922.09
818.68	972.47
818.862	962
819.045	946.7
819.227	920.35
819.409	906.79
819.591	965.49
819.774	923.64
819.956	897.87
820.138	986.22
820.32	953.28
820.502	993
820.684	990.29
820.866	1016.45
821.048	1078.83
821.231	1042.41
821.413	1040.28
821.595	1007.92
821.777	999.2
821.959	997.85
822.141	1088.33
822.323	977.12
822.505	952.9
822.686	948.25
822.868	906.4
823.05	834.91
823.232	830.26
823.414	766.32
823.596	818.63
823.778	816.69
823.96	860.67
824.141	851.57
824.323	831.03
824.505	890.7
824.687	902.33
824.868	940.5
825.05	1028.26
825.232	1008.89
825.413	1086.39
825.595	1029.23
825.777	958.52
825.958	989.9
826.14	1015.48
826.321	1026.91
826.503	994.36
826.685	1025.55
826.866	1019.35
827.048	1019.74
827.229	996.88
827.411	941.08
827.592	933.14
827.773	921.51
827.955	913.57
828.136	918.02
828.318	890.9
828.499	933.33
828.68	870.75
828.862	911.63
829.043	949.8
829.224	906.01
829.406	879.08
829.587	907.37
829.768	871.91
829.949	904.85
830.131	869
830.312	943.79
830.493	886.05
830.674	906.4
830.855	889.93
831.036	886.44
831.218	923.45
831.399	931.97
831.58	921.32
831.761	947.67
831.942	920.74
832.123	908.72
832.304	859.12
832.485	882.76
832.666	890.51
832.847	929.84
833.028	897.29
833.209	932.75
833.389	920.74
833.57	839.94
833.751	912.6
833.932	926.35
834.113	924.61
834.294	905.43
834.475	925.97
834.655	952.7
834.836	942.05
835.017	957.16
835.198	861.84
835.378	920.54
835.559	950.18
835.74	932.55
835.92	907.17
836.101	880.24
836.281	947.28
836.462	926.94
836.643	960.26
836.823	953.87
837.004	953.48
837.184	999.78
837.365	993
837.545	988.16
837.726	925
837.906	1011.99
838.087	950.38
838.267	939.53
838.448	899.81
838.628	939.92
838.808	918.6
838.989	1007.34
839.169	896.13
839.349	953.48
839.53	969.17
839.71	971.3
839.89	917.83
840.07	987.58
840.251	937.4
840.431	1007.92
840.611	944.57
840.791	920.35
840.971	943.02
841.151	952.9
841.332	894.39
841.512	980.99
841.692	887.41
841.872	946.7
842.052	922.87
842.232	933.33
842.412	884.12
842.592	935.46
842.772	959.87
842.952	940.69
843.132	928.1
843.312	911.05
843.492	895.74
843.672	952.51
843.851	881.21
844.031	931.39
844.211	887.99
844.391	892.64
844.571	912.6
844.751	940.88
844.93	912.79
845.11	891.09
845.29	925.77
845.47	961.42
845.649	931.59
845.829	954.83
846.009	905.62
846.188	950.38
846.368	883.34
846.547	906.2
846.727	958.9
846.907	892.06
847.086	914.15
847.266	940.5
847.445	907.95
847.625	904.46
847.804	891.29
847.984	909.11
848.163	899.62
848.343	899.23
848.522	923.25
848.701	905.82
848.881	857.57
849.06	875.2
849.239	898.65
849.419	895.74
849.598	847.31
849.777	844.79
849.957	847.89
850.136	814.76
850.315	807.01
850.494	841.11
850.674	808.75
850.853	880.63
851.032	838.78
851.211	881.02
851.39	834.32
851.569	811.46
851.748	809.14
851.927	838.97
852.107	863.19
852.286	820.18
852.465	781.04
852.644	869.59
852.823	861.25
853.002	805.26
853.181	806.62
853.359	855.44
853.538	776.2
853.717	854.09
853.896	797.71
854.075	759.15
854.254	720.21
854.433	689.59
854.611	768.26
854.79	693.28
854.969	755.28
855.148	770.97
855.327	726.79
855.505	770.58
855.684	748.49
855.863	752.56
856.041	718.27
856.22	748.88
856.399	720.59
856.577	804.68
856.756	768.45
856.934	875.59
857.113	915.5
857.291	796.74
857.47	788.21
857.648	778.72
857.827	827.74
858.005	825.02
858.184	764.38
858.362	857.19
858.541	819.02
858.719	785.69
858.898	754.31
859.076	779.3
859.254	884.5
859.433	787.63
859.611	761.86
859.789	757.79
859.967	841.3
860.146	887.41
860.324	793.44
860.502	777.75
860.68	715.17
860.859	735.51
861.037	781.62
861.215	775.42
861.393	779.88
861.571	767.29
861.749	745.2
861.927	773.1
862.105	778.52
862.283	763.41
862.461	725.63
862.639	725.44
862.817	765.93
862.995	766.71
863.173	731.25
863.351	779.3
863.529	728.54
863.707	775.81
863.885	784.14
864.063	672.35
864.241	724.28
864.418	786.66
864.596	691.14
864.774	665.57
864.952	737.06
865.129	727.96
865.307	713.23
865.485	704.51
865.663	769.61
865.84	693.08
866.018	709.16
866.196	615.78
866.373	648.13
866.551	613.45
866.728	602.02
866.906	633.99
867.084	628.18
867.261	675.65
867.439	661.31
867.616	708.78
867.794	635.73
867.971	694.44
868.149	670.41
868.326	737.26
868.503	689.21
868.681	674.1
868.858	654.53
869.035	654.14
869.213	702.19
869.39	662.28
869.567	743.07
869.745	659.95
869.922	681.26
870.099	681.26
870.276	692.89
870.454	680.1
870.631	699.28
870.808	693.47
870.985	720.79
871.162	778.52
871.339	719.04
871.517	640.58
871.694	625.85
871.871	681.07
872.048	669.25
872.225	658.4
872.402	703.54
872.579	640.77
872.756	683.78
872.933	619.85
873.11	633.8
873.287	665.76
873.463	657.05
873.64	621.98
873.817	685.14
873.994	635.73
874.171	629.73
874.348	673.13
874.524	607.06
874.701	640
874.878	596.01
875.055	661.31
875.231	640.96
875.408	649.88
875.585	592.91
875.762	607.25
875.938	661.11
876.115	609.58
876.291	614.61
876.468	624.5
876.645	577.61
876.821	580.13
876.998	617.33
877.174	599.31
877.351	602.21
877.527	583.03
877.704	636.7
877.88	619.26
878.057	586.72
878.233	641.74
878.409	595.24
878.586	589.62
878.762	609.58
878.938	589.82
879.115	552.03
879.291	584.39
879.467	545.45
879.644	584.39
879.82	627.4
879.996	554.17
880.172	539.05
880.349	557.46
880.525	602.8
880.701	566.18
880.877	543.9
881.053	583.23
881.229	582.45
881.405	600.08
881.581	545.45
881.757	572.38
881.933	605.51
882.109	610.74
882.285	616.94
882.461	503.21
882.637	565.02
882.813	547.19
882.989	551.84
883.165	599.11
883.341	528.78
883.517	578
883.693	591.75
883.869	595.43
884.044	554.17
884.22	639.22
884.396	618.68
884.572	599.5
884.747	609.19
884.923	578.77
885.099	602.99
885.275	622.36
885.45	573.73
885.626	542.15
885.801	591.36
885.977	554.75
886.153	499.53
886.328	586.72
886.504	563.85
886.679	580.9
886.855	527.62
887.03	596.79
887.206	580.32
887.381	559.01
887.557	587.1
887.732	578.97
887.908	602.41
888.083	601.25
888.258	589.82
888.434	587.1
888.609	555.91
888.784	586.33
888.96	556.88
889.135	545.25
889.31	539.83
889.485	598.73
889.661	557.27
889.836	601.83
890.011	583.23
890.186	556.1
890.361	542.35
890.537	596.4
890.712	560.17
890.887	565.4
891.062	574.9
891.237	632.83
891.412	533.63
891.587	573.73
891.762	595.63
891.937	630.7
892.112	571.99
892.287	565.21
892.462	526.65
892.637	508.44
892.812	504.95
892.987	512.12
893.161	531.3
893.336	515.03
893.511	503.79
893.686	521.23
893.861	489.45
894.035	511.93
894.21	525.3
894.385	463.1
894.56	502.82
894.734	469.89
894.909	474.15
895.084	518.71
895.258	470.85
895.433	459.23
895.608	456.9
895.782	409.44
895.957	465.24
896.131	445.86
896.306	398.97
896.48	411.18
896.655	401.3
896.829	360.61
897.004	389.09
897.178	393.74
897.353	392.77
897.527	420.09
897.701	388.32
897.876	358.48
898.05	431.52
898.224	415.44
898.399	431.91
898.573	380.18
898.747	303.65
898.921	403.43
899.096	301.33
899.27	335.42
899.444	307.53
899.618	333.1
899.792	317.99
899.967	293.19
900.141	381.73
900.315	330.77
900.489	335.23
900.663	340.27
900.837	358.87
901.011	316.05
901.185	400.33
901.359	356.93
901.533	348.79
901.707	374.95
901.881	342.4
902.055	264.32
902.229	349.37
902.403	411.76
902.576	350.54
902.75	329.22
902.924	450.9
903.098	365.46
903.272	401.69
903.446	448.38
903.619	426.29
903.793	437.92
903.967	415.64
904.14	442.57
904.314	419.51
904.488	406.14
904.661	452.84
904.835	423.39
905.009	465.43
905.182	488.68
905.356	454.39
905.529	450.12
905.703	374.95
905.876	401.88
906.05	397.23
906.223	375.92
906.397	350.15
906.57	349.18
906.744	338.72
906.917	350.54
907.09	331.36
907.264	373.01
907.437	327.09
907.61	302.88
907.784	317.99
907.957	336.78
908.13	308.69
908.304	367.2
908.477	292.03
908.65	326.32
908.823	249.21
908.996	352.47
909.17	304.62
909.343	295.51
909.516	311.4
909.689	294.35
909.862	283.11
910.035	311.4
910.208	265.29
910.381	291.44
910.554	367.39
910.727	300.36
910.9	272.07
911.073	274.98
911.246	341.24
911.419	342.4
911.592	321.67
911.765	277.49
911.938	284.08
912.11	305.39
912.283	288.15
912.456	332.71
912.629	292.41
912.802	284.47
912.974	265.09
913.147	235.06
913.32	235.26
913.493	240.88
913.665	255.02
913.838	295.71
914.01	243.39
914.183	259.48
914.356	240.88
914.528	281.95
914.701	327.48
914.873	281.56
915.046	263.74
915.218	258.31
915.391	193.99
915.563	209.88
915.736	276.91
915.908	276.33
916.081	290.86
916.253	252.11
916.425	253.66
916.598	268
916.77	250.56
916.942	232.93
917.115	171.32
917.287	292.03
917.459	241.26
917.632	217.82
917.804	199.41
917.976	263.35
918.148	253.28
918.32	232.74
918.493	266.84
918.665	303.46
918.837	249.59
919.009	317.6
919.181	316.24
919.353	284.47
919.525	247.27
919.697	270.71
919.869	269.74
920.041	305.01
920.213	359.06
920.385	286.41
920.557	263.54
920.729	299.78
920.901	272.26
921.073	293.38
921.244	278.08
921.416	312.76
921.588	288.73
921.76	239.13
921.932	340.07
922.103	265.87
922.275	267.42
922.447	280.4
922.619	214.14
922.79	269.36
922.962	268.58
923.134	291.06
923.305	227.31
923.477	241.26
923.648	215.88
923.82	214.72
923.991	218.21
924.163	223.25
924.335	214.72
924.506	207.75
924.677	272.26
924.849	210.85
925.02	245.72
925.192	262.19
925.363	236.42
925.535	245.53
925.706	237.78
925.877	259.28
926.049	216.66
926.22	241.46
926.391	241.65
926.562	262.38
926.734	214.53
926.905	261.41
927.076	192.05
927.247	214.91
927.419	197.67
927.59	188.95
927.761	210.26
927.932	183.72
928.103	211.23
928.274	185.66
928.445	161.44
928.616	186.82
928.787	183.33
928.958	203.48
929.129	207.75
929.3	147.88
929.471	146.52
929.642	107
929.813	58.75
929.984	195.54
930.155	102.15
930.326	176.36
930.496	110.68
930.667	53.91
930.838	113
931.009	95.76
931.18	105.25
931.35	94.98
931.521	127.92
931.692	73.28
931.863	37.44
932.033	97.5
932.204	87.04
932.374	77.93
932.545	48.1
932.716	106.8
932.886	113.58
933.057	15.35
933.227	34.92
933.398	121.33
933.568	30.27
933.739	19.62
933.909	42.48
934.08	91.3
934.25	-2.66
934.421	-7.12
934.591	60.3
934.761	8.77
934.932	-2.47
935.102	29.69
935.272	12.45
935.443	38.99
935.613	23.49
935.783	46.35
935.953	14.97
936.123	160.28
936.294	3.34
936.464	28.72
936.634	37.25
936.804	-16.42
936.974	-11
937.144	53.14
937.314	42.48
937.484	6.83
937.655	-4.41
937.825	64.18
937.995	4.5
938.165	84.13
938.334	4.7
938.504	36.67
938.674	6.64
938.844	6.25
939.014	78.13
939.184	50.42
939.354	101.96
939.524	88.98
939.694	33.37
939.863	32.6
940.033	100.8
940.203	104.48
940.373	83.55
940.542	98.47
940.712	37.83
940.882	78.32
941.051	77.16
941.221	107
941.391	104.48
941.56	33.37
941.73	8.96
941.899	157.18
942.069	53.33
942.238	67.86
942.408	51.2
942.577	68.25
942.747	52.36
942.916	-8.09
943.086	13.61
943.255	76.77
943.425	76
943.594	40.74
943.763	-14.87
943.933	4.12
944.102	-22.23
944.271	27.95
944.441	70.96
944.61	25.43
944.779	55.46
944.948	151.75
945.117	13.42
945.287	55.85
945.456	-13.9
945.625	49.26
945.794	64.18
945.963	17.49
946.132	72.32
946.301	30.85
946.47	77.55
946.639	-10.8
946.808	15.16
946.977	69.8
947.146	60.5
947.315	8.57
947.484	56.04
947.653	35.12
947.822	44.03
947.991	14.97
948.16	111.45
948.329	79.1
948.498	25.62
948.666	52.17
948.835	66.31
949.004	-37.93
949.173	-0.15
949.341	41.32
949.51	51.39
949.679	92.27
949.847	57.2
950.016	131.41
950.185	101.57
950.353	16.52
950.522	33.57
950.69	62.05
950.859	39.96
951.028	85.3
951.196	54.49
951.365	35.5
951.533	54.1
951.701	83.75
951.87	79.1
952.038	16.13
952.207	69.99
952.375	102.35
952.543	48.87
952.712	56.24
952.88	11.67
953.048	105.25
953.217	43.25
953.385	32.4
953.553	91.11
953.721	9.54
953.89	44.61
954.058	10.9
954.226	28.92
954.394	50.04
954.562	7.99
954.73	58.37
954.898	40.54
955.067	90.14
955.235	18.45
955.403	85.88
955.571	115.33
955.739	79.1
955.907	26.59
956.075	11.67
956.243	9.93
956.41	70.38
956.578	0.44
956.746	17.29
956.914	30.47
957.082	66.12
957.25	64.57
957.418	-6.15
957.585	50.23
957.753	46.94
957.921	7.8
958.089	30.66
958.256	43.64
958.424	58.17
958.592	57.98
958.759	12.45
958.927	51.59
959.095	29.89
959.262	33.37
959.43	52.55
959.597	30.66
959.765	40.54
959.932	31.24
960.1	65.15
960.267	41.51
960.435	49.65
960.602	46.55
960.77	28.92
960.937	3.54
961.104	37.05
961.272	-11.96
961.439	26.2
961.606	64.76
961.774	63.02
961.941	27.75
962.108	39.19
962.275	51
962.443	98.28
962.61	86.46
962.777	126.57
962.944	60.11
963.111	67.67
963.278	72.51
963.446	40.15
963.613	56.24
963.78	66.31
963.947	71.54
964.114	84.72
964.281	130.63
964.448	66.12
964.615	43.06
964.782	71.15
964.949	75.42
965.116	48.29
965.282	89.37
965.449	36.28
965.616	18.26
965.783	91.5
965.95	39.96
966.117	30.66
966.283	64.76
966.45	77.16
966.617	52.55
966.784	82
966.95	83.94
967.117	89.75
967.284	20.78
967.45	25.62
967.617	111.65
967.784	67.28
967.95	95.37
968.117	51.97
968.283	114.94
968.45	154.85
968.616	61.27
968.783	111.45
968.949	71.35
969.116	90.33
969.282	44.8
969.449	63.4
969.615	48.68
969.781	22.52
969.948	32.6
970.114	16.32
970.28	100.22
970.447	67.67
970.613	92.47
970.779	45.39
970.945	95.37
971.112	76.19
971.278	57.59
971.444	74.83
971.61	110.1
971.776	46.16
971.942	50.81
972.108	49.07
972.275	50.42
972.441	74.45
972.607	125.4
972.773	62.05
972.939	76
973.105	58.75
973.271	9.54
973.437	48.29
973.602	44.03
973.768	99.83
973.934	65.73
974.1	54.1
974.266	-1.31
974.432	59.92
974.598	49.84
974.763	98.47
974.929	18.07
975.095	90.72
975.261	27.37
975.426	41.32
975.592	39.19
975.758	116.88
975.923	1.6
976.089	43.45
976.255	72.12
976.42	40.35
976.586	64.37
976.751	54.69
976.917	143.62
977.082	97.5
977.248	8.96
977.413	-9.25
977.579	67.47
977.744	77.93
977.91	9.74
978.075	36.47
978.24	89.95
978.406	41.32
978.571	40.35
978.736	16.9
978.902	82.39
979.067	19.81
979.232	-3.05
979.397	66.31
979.563	118.04
979.728	28.72
979.893	47.9
980.058	27.17
980.223	88.78
980.388	72.9
980.554	45.58
980.719	9.15
980.884	51.59
981.049	75.42
981.214	35.89
981.379	84.91
981.544	39.19
981.709	44.22
981.874	32.99
982.039	42.48
982.204	79.87
982.368	50.62
982.533	38.8
982.698	81.81
982.863	83.17
983.028	21.17
983.193	77.74
983.357	45.39
983.522	66.12
983.687	42.09
983.852	22.91
984.016	59.92
984.181	42.87
984.346	48.68
984.51	79.87
984.675	43.84
984.839	72.51
985.004	44.22
985.168	94.4
985.333	60.69
985.498	36.09
985.662	106.8
985.827	68.25
985.991	32.02
986.155	53.72
986.32	84.13
986.484	119.78
986.649	61.85
986.813	7.6
986.977	81.62
987.142	69.8
987.306	10.51
987.47	32.6
987.634	39.57
987.799	69.8
987.963	37.83
988.127	78.9
988.291	132.77
988.455	75.03
988.62	49.26
988.784	76.97
988.948	90.53
989.112	13.22
989.276	44.61
989.44	40.54
989.604	38.6
989.768	44.61
989.932	124.43
990.096	26.2
990.26	1.6
990.424	14.19
990.588	14.19
990.752	102.93
990.915	91.3
991.079	54.1
991.243	14.77
991.407	98.08
991.571	54.1
991.734	74.25
991.898	77.35
992.062	130.63
992.226	22.72
992.389	30.66
992.553	7.8
992.717	15.16
992.88	46.35
993.044	16.71
993.207	56.43
993.371	83.75
993.535	66.5
993.698	62.44
993.862	74.45
994.025	71.15
994.189	66.7
994.352	44.03
994.515	53.14
994.679	67.08
994.842	30.85
995.006	78.13
995.169	25.62
995.332	31.63
995.496	51.78
995.659	-10.22
995.822	31.05
995.985	36.28
996.149	75.22
996.312	50.23
996.475	103.32
996.638	14
996.801	87.43
996.964	113
997.128	32.79
997.291	51
997.454	62.82
997.617	10.51
997.78	76.38
997.943	6.05
998.106	59.53
998.269	59.34
998.432	34.54
998.595	34.73
998.758	6.64
998.92	13.61
999.083	-18.55
999.246	17.29
999.409	9.15
999.572	-14.29
999.735	20.39
999.897	67.28
1000.06	37.25
1000.223	24.85
1000.386	60.5
1000.548	53.14
1000.711	50.62
1000.874	52.36
1001.036	11.48
1001.199	86.65
1001.361	47.9
1001.524	38.22
1001.687	53.72
1001.849	20.2
1002.012	52.94
1002.174	56.24
1002.337	57.4
1002.499	35.31
1002.661	61.47
1002.824	-5.18
1002.986	6.44
1003.149	32.6
1003.311	-2.66
1003.473	107.38
1003.636	24.46
1003.798	37.44
1003.96	39.77
1004.123	43.06
1004.285	4.5
1004.447	18.26
1004.609	16.13
1004.771	98.86
1004.933	-25.72
1005.096	30.27
1005.258	-7.31
1005.42	5.28
1005.582	79.48
1005.744	25.43
1005.906	-16.61
1006.068	44.8
1006.23	19.62
1006.392	-23.01
1006.554	-4.8
1006.716	78.13
1006.878	57.59
1007.04	-24.56
1007.202	36.47
1007.363	31.24
1007.525	38.99
1007.687	41.51
1007.849	84.52
1008.011	-22.23
1008.172	-3.25
1008.334	10.7
1008.496	57.98
1008.658	1.02
1008.819	3.15
1008.981	-16.61
1009.143	14.39
1009.304	-13.32
1009.466	30.85
1009.627	94.02
1009.789	120.17
1009.95	28.14
1010.112	16.71
1010.273	24.85
1010.435	-23.98
1010.596	36.09
1010.758	35.5
1010.919	36.86
1011.081	-1.11
1011.242	33.37
1011.403	20.39
1011.565	13.22
1011.726	54.1
1011.887	0.63
1012.049	13.22
1012.21	58.17
1012.371	81.23
1012.532	-31.92
1012.693	15.74
1012.855	-16.03
1013.016	36.28
1013.177	66.12
1013.338	9.93
1013.499	87.23
1013.66	30.47
1013.821	46.16
1013.982	45.97
1014.143	17.87
1014.304	-2.47
1014.465	41.9
1014.626	61.66
1014.787	32.4
1014.948	65.34
1015.109	-56.14
1015.27	84.33
1015.431	-2.28
1015.592	5.86
1015.752	91.3
1015.913	39.19
1016.074	40.54
1016.235	25.04
1016.395	22.91
1016.556	12.45
1016.717	24.85
1016.877	62.82
1017.038	16.13
1017.199	50.04
1017.359	33.18
1017.52	45.58
1017.681	6.44
1017.841	27.75
1018.002	41.7
1018.162	6.64
1018.323	65.15
1018.483	12.25
1018.644	21.36
1018.804	-3.05
1018.964	-0.53
1019.125	-13.13
1019.285	52.36
1019.446	-8.86
1019.606	-16.03
1019.766	-30.18
1019.926	47.71
1020.087	26.98
1020.247	4.12
1020.407	22.91
1020.567	69.22
1020.728	9.35
1020.888	-18.75
1021.048	-7.7
1021.208	-18.75
1021.368	2.37
1021.528	65.53
1021.688	74.25
1021.848	36.67
1022.008	29.89
1022.168	-13.13
1022.328	19.42
1022.488	40.74
1022.648	24.85
1022.808	29.5
1022.968	4.12
1023.128	-8.67
1023.288	-18.55
1023.448	8.57
1023.608	46.55
1023.767	47.9
1023.927	-25.91
1024.087	-13.51
1024.247	-19.13
1024.406	8.77
1024.566	-39.67
1024.726	-16.81
1024.885	13.8
1025.045	41.12
1025.205	12.84
1025.364	-7.9
1025.524	21.36
1025.683	15.35
1025.843	9.54
1026.003	20.97
1026.162	55.46
1026.321	58.95
1026.481	29.3
1026.64	-9.45
1026.8	24.85
1026.959	16.13
1027.119	-5.96
1027.278	-17.58
1027.437	-11.96
1027.597	22.52
1027.756	43.06
1027.915	31.63
1028.074	41.7
1028.234	-18.55
1028.393	15.16
1028.552	18.84
1028.711	-60.59
1028.87	69.02
1029.03	-16.61
1029.189	-1.7
1029.348	-34.44
1029.507	6.25
1029.666	-8.67
1029.825	-15.65
1029.984	-4.8
1030.143	30.08
1030.302	28.34
1030.461	-23.2
1030.62	36.09
1030.779	27.75
1030.938	-15.65
1031.097	-9.83
1031.255	32.4
1031.414	67.28
1031.573	55.27
1031.732	-13.51
1031.891	16.13
1032.049	50.81
1032.208	23.49
1032.367	-39.48
1032.525	-24.56
1032.684	-5.38
1032.843	18.65
1033.001	-65.05
1033.16	165.9
1033.319	40.93
1033.477	37.05
1033.636	10.51
1033.794	-18.36
1033.953	26.59
1034.111	28.14
1034.27	-9.83
1034.428	2.57
1034.587	-33.86
1034.745	25.24
1034.903	40.35
1035.062	38.41
1035.22	-14.87
1035.378	39.96
1035.537	-13.71
1035.695	34.73
1035.853	12.64
1036.011	43.64
1036.17	32.79
1036.328	-63.89
1036.486	13.42
1036.644	19.04
1036.802	-78.81
1036.96	9.15
1037.119	-6.15
1037.277	-4.21
1037.435	-32.11
1037.593	0.63
1037.751	-16.23
1037.909	45.77
1038.067	45.77
