Data from pine_FLMT105791__162__17-23-16-064.txt Node

Date: Mon Mar 20 17:23:16 GMT 2023
User: antho
Spectrometer: FLMT10579
Trigger mode: 0
Integration Time (sec): 1.000000E-1
Scans to average: 10
Electric dark correction enabled: true
Nonlinearity correction enabled: false
Boxcar width: 0
XAxis mode: Wavelengths
Number of Pixels in Spectrum: 3648
>>>>>Begin Spectral Data<<<<<
345.248	-148.89
345.464	-148.89
345.681	-148.89
345.898	-157.03
346.114	-157.81
346.331	-22.57
346.548	26.83
346.764	-4.75
346.981	-21.22
347.197	-30.71
347.414	22.77
347.631	-18.89
347.847	58.22
348.064	-3.58
348.28	51.44
348.497	-61.51
348.713	3.97
348.93	53.38
349.146	16.37
349.363	-24.32
349.579	15.21
349.796	3.2
350.012	5.72
350.229	20.63
350.445	16.57
350.661	-17.34
350.878	-5.13
351.094	28.38
351.311	31.29
351.527	33.42
351.743	-12.5
351.96	37.1
352.176	60.55
352.392	24.9
352.609	47.95
352.825	-3.39
353.041	12.69
353.257	10.17
353.474	3.39
353.69	1.65
353.906	8.23
354.122	-28.58
354.339	58.03
354.555	4.75
354.771	-3.97
354.987	54.35
355.203	58.41
355.42	-17.15
355.636	-2.81
355.852	-1.65
356.068	-4.36
356.284	-33.03
356.5	55.31
356.716	24.51
356.932	21.8
357.148	34.78
357.364	7.85
357.58	54.73
357.796	75.08
358.012	57.25
358.228	4.17
358.444	-46.6
358.66	73.72
358.876	32.07
359.092	-19.47
359.308	-10.75
359.524	8.04
359.74	34.39
359.956	-2.81
360.172	19.08
360.388	44.08
360.604	-5.33
360.819	100.46
361.035	19.08
361.251	38.07
361.467	-4.36
361.683	55.7
361.898	13.66
362.114	43.11
362.33	24.9
362.546	37.68
362.762	16.95
362.977	15.02
363.193	-12.3
363.409	49.11
363.624	-22.77
363.84	-13.85
364.056	-18.5
364.271	17.15
364.487	30.71
364.703	-6.68
364.918	-2.03
365.134	26.83
365.35	-10.17
365.565	98.52
365.781	27.8
365.996	32.26
366.212	75.85
366.427	13.08
366.643	15.6
366.858	-0.87
367.074	-18.7
367.289	55.12
367.505	101.04
367.72	-38.07
367.936	-11.14
368.151	22.57
368.367	33.62
368.582	21.02
368.798	33.23
369.013	53.18
369.228	30.32
369.444	37.88
369.659	75.85
369.874	44.66
370.09	49.7
370.305	-47.37
370.52	-18.7
370.736	61.51
370.951	-4.75
371.166	43.88
371.381	73.72
371.597	48.15
371.812	0.1
372.027	-21.99
372.242	26.83
372.458	80.31
372.673	3.2
372.888	24.7
373.103	39.23
373.318	105.5
373.533	30.13
373.749	34
373.964	-1.45
374.179	65.97
374.394	7.65
374.609	64.03
374.824	-25.67
375.039	48.15
375.254	19.28
375.469	83.6
375.684	36.91
375.899	59.19
376.114	18.5
376.329	40.98
376.544	55.51
376.759	63.65
376.974	-8.82
377.189	0.87
377.404	-7.27
377.619	34.78
377.834	-32.07
378.049	-25.09
378.264	-25.09
378.478	23.54
378.693	-22.38
378.908	25.87
379.123	0.87
379.338	40.78
379.553	21.6
379.767	25.48
379.982	62.29
380.197	29.16
380.412	36.52
380.626	6.3
380.841	96.58
381.056	32.84
381.271	62.29
381.485	-16.76
381.7	-8.62
381.915	14.43
382.129	42.72
382.344	58.41
382.559	9.4
382.773	60.55
382.988	-38.46
383.202	31.29
383.417	-2.23
383.632	120.41
383.846	29.35
384.061	21.41
384.275	3.58
384.49	30.52
384.704	42.14
384.919	26.25
385.133	28.58
385.348	40.2
385.562	-37.88
385.777	91.74
385.991	9.98
386.206	7.27
386.42	-13.47
386.634	61.51
386.849	27.42
387.063	36.91
387.277	-8.43
387.492	21.8
387.706	-12.69
387.92	-14.43
388.135	56.28
388.349	34.2
388.563	37.3
388.778	29.93
388.992	39.82
389.206	43.88
389.42	85.54
389.635	15.4
389.849	29.93
390.063	56.28
390.277	6.88
390.491	44.66
390.706	21.8
390.92	27.03
391.134	20.44
391.348	70.62
391.562	-31.68
391.776	19.86
391.99	-17.15
392.205	22.77
392.419	-10.37
392.633	11.92
392.847	60.55
393.061	21.02
393.275	69.65
393.489	31.48
393.703	30.13
393.917	72.95
394.131	8.04
394.345	49.31
394.559	31.87
394.773	33.62
394.986	31.87
395.2	16.37
395.414	51.25
395.628	7.85
395.842	39.04
396.056	7.85
396.27	-43.88
396.484	35.55
396.697	37.88
396.911	60.35
397.125	22.18
397.339	50.47
397.553	40.2
397.766	105.88
397.98	50.47
398.194	59.77
398.408	12.69
398.621	60.35
398.835	63.45
399.049	20.05
399.262	41.17
399.476	56.28
399.69	47.37
399.903	105.11
400.117	20.83
400.331	31.48
400.544	-5.13
400.758	160.52
400.971	34.39
401.185	67.13
401.398	7.65
401.612	59.77
401.826	31.68
402.039	52.99
402.253	27.22
402.466	29.93
402.68	-6.1
402.893	51.83
403.106	25.09
403.32	40.59
403.533	38.27
403.747	18.31
403.96	45.63
404.174	37.1
404.387	9.59
404.6	28.77
404.814	59.19
405.027	40.4
405.24	16.57
405.454	27.8
405.667	61.51
405.88	-45.43
406.094	28.19
406.307	78.18
406.52	49.5
406.733	-8.82
406.947	-33.23
407.16	73.91
407.373	63.45
407.586	8.82
407.799	-6.3
408.012	59.58
408.226	42.72
408.439	93.68
408.652	-32.07
408.865	44.27
409.078	48.73
409.291	57.25
409.504	-6.1
409.717	53.38
409.93	46.79
410.143	33.81
410.357	-38.07
410.57	-7.65
410.783	43.11
410.996	30.71
411.209	14.43
411.421	68.88
411.634	9.98
411.847	13.66
412.06	56.09
412.273	6.88
412.486	19.08
412.699	114.02
412.912	4.17
413.125	59.38
413.338	27.42
413.55	55.12
413.763	39.23
413.976	51.83
414.189	28
414.402	12.5
414.615	64.81
414.827	0.87
415.04	40.4
415.253	48.73
415.466	60.16
415.678	77.79
415.891	37.3
416.104	-0.87
416.316	58.41
416.529	-3.39
416.742	38.46
416.954	71.4
417.167	31.48
417.38	7.27
417.592	95.81
417.805	-29.74
418.017	-7.85
418.23	45.24
418.442	11.33
418.655	-6.49
418.868	30.71
419.08	78.37
419.293	101.43
419.505	41.17
419.718	33.81
419.93	57.64
420.142	9.01
420.355	82.83
420.567	85.93
420.78	58.8
420.992	28.77
421.205	90.77
421.417	-7.46
421.629	3
421.842	-11.14
422.054	-1.65
422.266	67.52
422.479	64.42
422.691	9.78
422.903	65
423.115	13.27
423.328	25.87
423.54	54.93
423.752	51.63
423.964	0.68
424.177	64.03
424.389	22.18
424.601	127.97
424.813	58.22
425.025	53.76
425.238	61.32
425.45	13.08
425.662	34.78
425.874	343.22
426.086	26.06
426.298	69.26
426.51	47.37
426.722	32.26
426.934	3.78
427.146	72.17
427.358	27.8
427.57	87.86
427.782	30.32
427.994	52.21
428.206	29.16
428.418	-16.95
428.63	57.83
428.842	58.8
429.054	50.86
429.266	77.4
429.478	2.81
429.69	57.25
429.902	-7.27
430.114	58.41
430.325	67.52
430.537	25.48
430.749	46.4
430.961	3.97
431.173	49.89
431.384	47.37
431.596	-8.82
431.808	15.6
432.02	40.98
432.231	40.78
432.443	38.46
432.655	34.2
432.867	-0.48
433.078	7.85
433.29	83.99
433.502	70.81
433.713	88.45
433.925	25.09
434.136	88.64
434.348	1.84
434.56	-3.58
434.771	140.56
434.983	3
435.194	24.32
435.406	43.5
435.617	52.41
435.829	100.07
436.04	77.4
436.252	61.32
436.463	90.96
436.675	64.61
436.886	48.15
437.098	50.86
437.309	78.18
437.521	33.23
437.732	50.86
437.943	58.41
438.155	67.52
438.366	-0.29
438.578	80.31
438.789	51.63
439	100.26
439.211	56.67
439.423	76.43
439.634	58.22
439.845	74.11
440.057	68.88
440.268	62.68
440.479	36.33
440.69	52.6
440.902	72.56
441.113	23.15
441.324	46.98
441.535	44.66
441.746	127
441.957	26.06
442.168	30.9
442.38	59.38
442.591	74.11
442.802	49.89
443.013	31.1
443.224	58.03
443.435	47.76
443.646	33.23
443.857	71.78
444.068	46.21
444.279	40.59
444.49	117.9
444.701	65.78
444.912	154.9
445.123	97.94
445.334	93.87
445.545	68.49
445.756	43.5
445.967	40.2
446.178	69.85
446.388	105.5
446.599	93.1
446.81	106.85
447.021	36.72
447.232	78.76
447.443	110.53
447.653	41.17
447.864	98.71
448.075	61.51
448.286	94.84
448.496	99.88
448.707	96.97
448.918	94.26
449.129	144.24
449.339	53.76
449.55	74.5
449.761	57.64
449.971	110.73
450.182	55.12
450.393	88.64
450.603	48.73
450.814	94.84
451.024	91.93
451.235	103.36
451.446	122.35
451.656	104.91
451.867	20.63
452.077	98.71
452.288	146.76
452.498	118.09
452.709	74.69
452.919	78.95
453.13	65.97
453.34	128.55
453.55	46.4
453.761	128.94
453.971	107.24
454.182	104.72
454.392	96.78
454.602	132.62
454.813	104.72
455.023	129.52
455.233	43.11
455.444	102.59
455.654	9.2
455.864	97.36
456.075	99.3
456.285	66.16
456.495	70.04
456.705	92.71
456.916	143.08
457.126	133.98
457.336	76.82
457.546	33.03
457.756	58.41
457.967	107.05
458.177	65.97
458.387	88.64
458.597	89.22
458.807	80.89
459.017	72.56
459.227	78.95
459.437	110.53
459.647	122.35
459.857	121
460.068	65
460.278	123.51
460.488	105.88
460.698	173.89
460.908	86.51
461.117	37.88
461.327	71.4
461.537	85.15
461.747	117.51
461.957	67.13
462.167	189.58
462.377	145.41
462.587	90.77
462.797	119.06
463.007	113.25
463.216	115.57
463.426	142.89
463.636	120.41
463.846	51.05
464.056	79.73
464.265	134.36
464.475	65
464.685	120.8
464.895	117.12
465.104	116.35
465.314	130.68
465.524	98.33
465.733	71.98
465.943	176.21
466.153	150.64
466.362	147.15
466.572	83.8
466.782	86.31
466.991	90.77
467.201	174.86
467.41	52.41
467.62	120.22
467.829	108.21
468.039	158.39
468.249	102.59
468.458	89.8
468.668	150.44
468.877	137.66
469.086	149.28
469.296	127.2
469.505	80.11
469.715	188.61
469.924	143.66
470.134	178.15
470.343	181.64
470.552	115.76
470.762	123.71
470.971	86.12
471.18	145.21
471.39	125.26
471.599	82.83
471.808	134.56
472.018	77.01
472.227	157.81
472.436	141.92
472.645	112.66
472.855	78.56
473.064	175.05
473.273	114.21
473.482	142.5
473.691	177.76
473.901	148.12
474.11	119.64
474.319	228.52
474.528	142.89
474.737	195.01
474.946	133.39
475.155	154.32
475.364	179.7
475.573	151.41
475.783	120.22
475.992	167.49
476.201	178.54
476.41	143.28
476.619	85.93
476.828	164.98
477.037	114.02
477.245	142.31
477.454	211.86
477.663	139.79
477.872	126.42
478.081	200.04
478.29	113.25
478.499	215.35
478.708	146.18
478.917	234.92
479.125	156.45
479.334	158.78
479.543	148.7
479.752	165.75
479.961	172.73
480.169	191.33
480.378	113.63
480.587	265.34
480.796	188.03
481.004	140.18
481.213	206.83
481.422	182.99
481.63	172.73
481.839	207.6
482.048	236.08
482.256	172.34
482.465	207.02
482.674	181.25
482.882	217.29
483.091	238.99
483.299	191.52
483.508	203.53
483.716	202.76
483.925	209.93
484.134	178.54
484.342	188.81
484.551	229.88
484.759	224.07
484.967	208.38
485.176	239.18
485.384	237.82
485.593	252.55
485.801	206.24
486.01	220.19
486.218	197.72
486.426	143.86
486.635	203.53
486.843	206.63
487.051	197.53
487.26	206.44
487.468	224.46
487.676	230.07
487.885	180.48
488.093	211.48
488.301	195.98
488.509	201.4
488.717	249.45
488.926	177.57
489.134	187.84
489.342	228.91
489.55	186.68
489.758	213.22
489.967	172.73
490.175	304.28
490.383	226.78
490.591	284.71
490.799	164.98
491.007	273.28
491.215	238.02
491.423	202.37
491.631	209.54
491.839	217.29
492.047	255.07
492.255	202.37
492.463	153.16
492.671	201.4
492.879	279.48
493.087	229.88
493.295	246.54
493.503	265.34
493.711	255.46
493.919	279.87
494.127	281.61
494.334	257.59
494.542	209.73
494.75	240.15
494.958	231.82
495.166	279.87
495.374	299.82
495.581	265.14
495.789	236.27
495.997	309.9
496.205	257.97
496.412	244.02
496.62	250.81
496.828	297.5
497.035	240.15
497.243	304.09
497.451	269.02
497.658	278.32
497.866	257.97
498.074	317.65
498.281	255.84
498.489	335.28
498.696	328.3
498.904	227.36
499.112	253.52
499.319	323.27
499.527	270.37
499.734	306.6
499.942	235.31
500.149	237.24
500.357	256.42
500.564	239.57
500.771	263.4
500.979	246.16
501.186	256.81
501.394	291.11
501.601	250.42
501.808	290.52
502.016	263.4
502.223	296.34
502.43	292.27
502.638	262.62
502.845	229.49
503.052	336.64
503.26	252.16
503.467	328.89
503.674	248.09
503.881	300.02
504.089	372.87
504.296	319.39
504.503	235.31
504.71	309.9
504.917	246.35
505.125	313.97
505.332	292.07
505.539	303.7
505.746	353.3
505.953	322.3
506.16	305.06
506.367	356.59
506.574	351.36
506.781	366.47
506.988	262.24
507.195	320.55
507.402	295.56
507.609	338.57
507.816	308.15
508.023	318.42
508.23	305.64
508.437	268.05
508.644	326.56
508.851	360.08
509.058	356.98
509.265	323.07
509.472	335.47
509.679	423.24
509.885	300.02
510.092	321.33
510.299	311.84
510.506	344.19
510.713	326.17
510.92	290.52
511.126	370.15
511.333	372.67
511.54	331.21
511.746	418.78
511.953	393.4
512.16	379.07
512.367	329.85
512.573	310.09
512.78	325.2
512.987	362.6
513.193	332.57
513.4	277.35
513.606	306.8
513.813	356.98
514.02	365.31
514.226	414.33
514.433	366.09
514.639	333.92
514.846	353.69
515.052	333.73
515.259	333.54
515.465	363.95
515.672	345.74
515.878	404.64
516.085	348.45
516.291	372.67
516.497	328.11
516.704	347.49
516.91	303.31
517.117	301.18
517.323	299.24
517.529	330.44
517.736	355.04
517.942	321.52
518.148	307.38
518.354	374.03
518.561	350
518.767	352.14
518.973	362.99
519.179	403.87
519.386	344.39
519.592	333.92
519.798	327.53
520.004	406
520.21	352.72
520.417	400.96
520.623	393.02
520.829	418.78
521.035	416.46
521.241	384.3
521.447	424.02
521.653	513.33
521.859	381.2
522.065	410.07
522.271	486.79
522.477	424.21
522.683	477.68
522.889	465.48
523.095	417.23
523.301	413.75
523.507	396.7
523.713	420.53
523.919	386.82
524.125	455.02
524.331	413.17
524.537	488.73
524.742	433.9
524.948	462.57
525.154	448.23
525.36	526.9
525.566	468.97
525.772	480.78
525.977	416.07
526.183	473.23
526.389	497.25
526.595	444.17
526.8	441.65
527.006	412.39
527.212	414.91
527.417	410.07
527.623	364.73
527.829	446.1
528.034	443.97
528.24	450.95
528.446	418.4
528.651	476.91
528.857	476.33
529.062	531.35
529.268	428.08
529.473	466.45
529.679	446.3
529.884	519.34
530.09	487.76
530.295	546.08
530.501	476.33
530.706	522.83
530.912	435.45
531.117	458.31
531.323	459.47
531.528	495.31
531.733	474.2
531.939	461.41
532.144	491.44
532.35	499.38
532.555	494.73
532.76	487.37
532.966	550.15
533.171	505.39
533.376	461.41
533.581	445.13
533.787	523.21
533.992	491.63
534.197	542.01
534.402	481.95
534.607	498.03
534.813	608.27
535.018	467.8
535.223	466.45
535.428	513.72
535.633	546.27
535.838	547.43
536.043	511.01
536.249	609.63
536.454	479.04
536.659	527.86
536.864	515.08
537.069	489.11
537.274	550.15
537.479	509.65
537.684	535.03
537.889	463.93
538.094	611.56
538.299	546.85
538.504	540.26
538.708	536.78
538.913	549.37
539.118	516.05
539.323	530.96
539.528	521.47
539.733	532.32
539.938	539.49
540.142	552.08
540.347	527.86
540.552	522.83
540.757	512.95
540.962	507.13
541.166	505.97
541.371	492.21
541.576	544.53
541.781	453.27
541.985	527.48
542.19	514.5
542.395	576.49
542.599	587.93
542.804	582.31
543.008	594.9
543.213	502.68
543.418	504.42
543.622	553.25
543.827	496.86
544.031	606.53
544.236	603.04
544.44	527.48
544.645	616.99
544.849	552.47
545.054	566.61
545.258	615.05
545.463	656.71
545.667	520.7
545.872	589.28
546.076	577.66
546.281	562.35
546.485	548.79
546.689	605.17
546.894	603.43
547.098	543.36
547.302	529.03
547.507	580.37
547.711	572.04
547.915	628.61
548.119	530
548.324	543.75
548.528	641.59
548.732	559.83
548.936	584.05
549.141	605.75
549.345	547.43
549.549	575.91
549.753	531.35
549.957	637.53
550.161	623.77
550.366	554.41
550.57	533.68
550.774	585.02
550.978	551.31
551.182	579.79
551.386	557.7
551.59	579.79
551.794	545.5
551.998	598.97
552.202	547.24
552.406	515.08
552.61	569.33
552.814	570.49
553.018	658.26
553.222	577.85
553.426	567.78
553.63	654.38
553.833	575.14
554.037	572.43
554.241	627.45
554.445	588.51
554.649	567.2
554.853	565.65
555.056	599.94
555.26	598
555.464	606.53
555.668	593.74
555.871	616.79
556.075	635.78
556.279	568.36
556.483	563.71
556.686	549.95
556.89	588.89
557.094	600.13
557.297	544.14
557.501	618.73
557.704	513.53
557.908	609.24
558.112	562.35
558.315	611.18
558.519	562.35
558.722	543.95
558.926	559.83
559.129	545.88
559.333	480.01
559.536	539.3
559.74	497.45
559.943	532.32
560.147	525.54
560.35	533.48
560.553	523.8
560.757	493.18
560.96	616.21
561.164	518.76
561.367	576.3
561.57	536.39
561.774	537.94
561.977	542.2
562.18	530.38
562.384	632.49
562.587	573.39
562.79	527.86
562.993	516.63
563.197	591.99
563.4	615.63
563.603	597.03
563.806	632.49
564.009	524.38
564.212	543.75
564.416	504.23
564.619	545.5
564.822	494.15
565.025	572.04
565.228	541.62
565.431	540.46
565.634	476.33
565.837	542.78
566.04	512.75
566.243	543.17
566.446	448.04
566.649	553.25
566.852	497.64
567.055	507.13
567.258	562.16
567.461	581.34
567.664	575.14
567.867	484.66
568.07	551.7
568.273	528.06
568.475	560.22
568.678	495.9
568.881	509.65
569.084	560.22
569.287	419.75
569.489	463.93
569.692	533.29
569.895	528.06
570.098	469.35
570.3	489.89
570.503	432.35
570.706	485.05
570.909	435.06
571.111	468.77
571.314	458.31
571.516	511.78
571.719	488.34
571.922	453.08
572.124	474.2
572.327	485.63
572.529	400.18
572.732	452.88
572.935	463.15
573.137	517.79
573.34	471.48
573.542	496.48
573.745	496.28
573.947	468.97
574.15	475.36
574.352	471.1
574.554	511.2
574.757	452.3
574.959	436.42
575.162	407.55
575.364	464.9
575.566	585.21
575.769	458.12
575.971	473.62
576.173	359.89
576.376	467.22
576.578	494.93
576.78	536.39
576.982	400.18
577.185	451.53
577.387	408.9
577.589	405.22
577.791	456.57
577.993	469.35
578.196	445.91
578.398	505.2
578.6	475.36
578.802	398.44
579.004	430.99
579.206	444.75
579.408	466.83
579.61	419.17
579.812	477.68
580.014	424.4
580.216	415.68
580.418	441.65
580.62	416.85
580.822	361.82
581.024	434.87
581.226	475.36
581.428	401.93
581.63	489.11
581.832	418.98
582.034	487.18
582.236	427.5
582.438	461.6
582.64	478.65
582.841	499
583.043	508.68
583.245	484.27
583.447	464.9
583.649	442.23
583.85	453.27
584.052	495.12
584.254	443.78
584.456	489.7
584.657	396.5
584.859	400.38
585.061	429.63
585.262	426.34
585.464	392.82
585.666	466.64
585.867	418.4
586.069	503.06
586.27	442.81
586.472	434.09
586.674	418.59
586.875	443.39
587.077	403.48
587.278	434.28
587.48	421.88
587.681	521.08
587.883	441.45
588.084	370.74
588.285	430.99
588.487	434.87
588.688	439.9
588.89	367.83
589.091	392.44
589.292	417.04
589.494	400.77
589.695	394.95
589.896	331.6
590.098	321.91
590.299	396.7
590.5	352.14
590.702	334.7
590.903	381.2
591.104	446.49
591.305	399.41
591.507	439.52
591.708	470.71
591.909	382.36
592.11	448.23
592.311	419.95
592.512	411.62
592.714	354.85
592.915	365.89
593.116	363.76
593.317	391.08
593.518	354.46
593.719	372.48
593.92	413.17
594.121	437.38
594.322	395.53
594.523	412.97
594.724	355.62
594.925	397.28
595.126	420.14
595.327	429.83
595.528	401.35
595.729	398.83
595.929	387.4
596.13	402.51
596.331	386.43
596.532	429.63
596.733	457.34
596.934	422.27
597.135	424.79
597.335	419.95
597.536	379.26
597.737	403.28
597.938	400.57
598.138	422.66
598.339	413.55
598.54	428.28
598.74	406
598.941	400.96
599.142	444.17
599.342	442.42
599.543	356.79
599.744	387.01
599.944	378.87
600.145	375.97
600.345	404.83
600.546	486.01
600.746	442.23
600.947	495.31
601.147	435.83
601.348	440.48
601.548	379.26
601.749	425.76
601.949	365.89
602.15	402.12
602.35	415.49
602.551	444.17
602.751	385.46
602.951	398.25
603.152	343.03
603.352	429.25
603.552	397.28
603.753	443
603.953	396.89
604.153	410.26
604.354	371.32
604.554	427.7
604.754	394.95
604.954	365.7
605.155	400.77
605.355	406.38
605.555	445.52
605.755	444.75
605.955	397.08
606.155	449.2
606.356	400.57
606.556	447.65
606.756	402.9
606.956	353.88
607.156	450.37
607.356	385.46
607.556	413.55
607.756	405.03
607.956	443.2
608.156	433.7
608.356	387.79
608.556	417.23
608.756	415.88
608.956	380.81
609.156	393.6
609.356	387.79
609.556	369.96
609.755	409.87
609.955	377.9
610.155	405.22
610.355	403.87
610.555	378.49
610.755	410.07
610.954	337.02
611.154	402.51
611.354	426.92
611.554	355.43
611.753	381
611.953	347.68
612.153	404.25
612.352	402.32
612.552	374.03
612.752	330.82
612.951	382.94
613.151	403.48
613.351	368.22
613.55	370.15
613.75	411.81
613.949	402.32
614.149	417.43
614.348	385.07
614.548	372.87
614.747	327.72
614.947	376.16
615.146	304.47
615.346	430.02
615.545	361.63
615.745	377.32
615.944	403.67
616.144	376.16
616.343	409.48
616.542	359.69
616.742	377.13
616.941	373.64
617.14	314.55
617.34	367.05
617.539	374.03
617.738	342.06
617.938	427.12
618.137	377.71
618.336	323.27
618.535	367.44
618.734	341.87
618.934	364.34
619.133	379.65
619.332	388.37
619.531	323.46
619.73	362.79
619.929	409.87
620.128	391.47
620.328	424.02
620.527	328.5
620.726	346.13
620.925	370.74
621.124	350.59
621.323	374.61
621.522	340.12
621.721	328.3
621.92	334.12
622.119	384.1
622.318	325.59
622.517	356.4
622.715	346.71
622.914	283.74
623.113	328.5
623.312	289.17
623.511	371.12
623.71	348.45
623.909	326.95
624.107	404.83
624.306	290.91
624.505	316.49
624.704	319
624.902	313.19
625.101	381.39
625.3	331.6
625.499	315.13
625.697	334.7
625.896	312.42
626.095	370.74
626.293	305.64
626.492	316.1
626.69	340.7
626.889	335.09
627.088	350.97
627.286	305.83
627.485	301.96
627.683	313
627.882	341.29
628.08	291.3
628.279	330.44
628.477	379.84
628.676	303.7
628.874	332.18
629.073	292.85
629.271	293.62
629.469	316.87
629.668	331.99
629.866	306.22
630.065	274.25
630.263	350.97
630.461	309.9
630.66	307.77
630.858	345.16
631.056	354.07
631.254	372.87
631.453	295.76
631.651	352.72
631.849	343.61
632.047	310.87
632.245	302.15
632.444	325.4
632.642	335.67
632.84	318.42
633.038	293.04
633.236	265.34
633.434	271.92
633.632	275.99
633.83	271.15
634.028	342.64
634.227	301.37
634.425	375.97
634.623	320.17
634.821	290.52
635.019	293.62
635.216	292.66
635.414	331.79
635.612	307.38
635.81	325.4
636.008	365.7
636.206	308.35
636.404	349.62
636.602	269.21
636.8	299.63
636.997	310.87
637.195	349.62
637.393	331.21
637.591	375.77
637.789	308.93
637.986	301.57
638.184	308.54
638.382	366.86
638.58	352.14
638.777	354.07
638.975	315.9
639.173	341.09
639.37	333.54
639.568	308.15
639.765	337.41
639.963	310.67
640.161	353.69
640.358	348.65
640.556	293.24
640.753	303.7
640.951	295.76
641.148	337.8
641.346	296.92
641.543	309.12
641.741	337.02
641.938	277.35
642.136	306.99
642.333	246.74
642.531	358.34
642.728	345.94
642.925	313.77
643.123	269.99
643.32	297.11
643.517	312.22
643.715	309.7
643.912	305.06
644.109	307.96
644.306	300.41
644.504	269.21
644.701	328.3
644.898	318.23
645.095	271.34
645.293	315.71
645.49	317.07
645.687	328.11
645.884	356.79
646.081	236.47
646.278	292.07
646.475	306.02
646.672	291.11
646.87	330.63
647.067	324.24
647.264	300.79
647.461	291.11
647.658	241.12
647.855	321.72
648.052	258.75
648.249	224.65
648.446	271.73
648.642	258.17
648.839	277.74
649.036	253.71
649.233	237.63
649.43	248.29
649.627	222.71
649.824	256.23
650.021	275.8
650.217	245.77
650.414	236.08
650.611	280.64
650.808	274.83
651.004	277.16
651.201	288.2
651.398	322.88
651.595	269.41
651.791	260.11
651.988	316.49
652.185	243.44
652.381	275.8
652.578	250.61
652.775	267.47
652.971	255.26
653.168	264.76
653.364	298.66
653.561	221.74
653.757	275.22
653.954	239.18
654.15	255.07
654.347	316.29
654.543	295.95
654.74	228.33
654.936	216.51
655.133	240.73
655.329	250.81
655.525	281.22
655.722	290.33
655.918	248.09
656.115	288.59
656.311	226.97
656.507	221.74
656.704	172.73
656.9	205.86
657.096	177.18
657.292	191.13
657.489	237.05
657.685	263.79
657.881	203.73
658.077	243.83
658.273	235.5
658.47	270.57
658.666	229.11
658.862	235.89
659.058	202.76
659.254	290.14
659.45	215.74
659.646	278.32
659.842	219.03
660.038	277.16
660.234	236.08
660.43	266.31
660.626	300.6
660.822	267.08
661.018	295.37
661.214	233.17
661.41	207.79
661.606	318.81
661.802	268.05
661.998	225.04
662.194	238.6
662.39	289.75
662.586	249.64
662.781	282.77
662.977	245.38
663.173	285.29
663.369	257.78
663.564	263.01
663.76	259.33
663.956	230.66
664.152	300.21
664.347	204.11
664.543	264.37
664.739	236.08
664.934	178.93
665.13	217.87
665.326	262.43
665.521	255.46
665.717	206.24
665.912	222.71
666.108	153.93
666.304	225.81
666.499	224.84
666.695	171.76
666.89	209.15
667.086	277.93
667.281	272.31
667.477	294.59
667.672	225.81
667.867	235.11
668.063	238.41
668.258	194.23
668.454	232.59
668.649	305.25
668.844	252.36
669.04	261.85
669.235	229.88
669.43	199.66
669.626	217.09
669.821	213.41
670.016	186.09
670.211	235.11
670.407	220.19
670.602	227.75
670.797	235.11
670.992	278.71
671.187	206.24
671.382	249.26
671.578	201.79
671.773	242.09
671.968	196.36
672.163	235.69
672.358	260.49
672.553	201.79
672.748	187.06
672.943	288.2
673.138	227.17
673.333	285.1
673.528	149.48
673.723	229.88
673.918	212.25
674.113	188.61
674.308	306.99
674.503	262.62
674.698	244.41
674.892	244.02
675.087	237.63
675.282	262.43
675.477	209.93
675.672	256.04
675.867	227.36
676.061	198.3
676.256	177.38
676.451	194.81
676.646	232.4
676.84	186.48
677.035	190.16
677.23	176.6
677.424	221.16
677.619	274.06
677.814	257.78
678.008	263.21
678.203	148.89
678.397	191.52
678.592	217.09
678.787	261.66
678.981	174.86
679.176	227.36
679.37	211.48
679.565	188.61
679.759	186.87
679.954	268.05
680.148	249.84
680.342	264.37
680.537	227.56
680.731	219.81
680.926	250.81
681.12	245.19
681.314	203.14
681.509	224.84
681.703	228.52
681.897	266.11
682.092	192.49
682.286	190.16
682.48	299.24
682.674	263.21
682.869	222.52
683.063	211.67
683.257	281.42
683.451	206.44
683.645	211.09
683.839	231.62
684.034	213.8
684.228	237.24
684.422	178.34
684.616	185.32
684.81	238.99
685.004	203.34
685.198	207.79
685.392	259.52
685.586	205.47
685.78	220.58
685.974	252.36
686.168	244.8
686.362	296.34
686.556	179.89
686.75	176.21
686.944	193.26
687.138	227.36
687.331	155.09
687.525	190.74
687.719	142.11
687.913	182.03
688.107	190.94
688.301	170.21
688.494	225.04
688.688	156.06
688.882	128.16
689.076	128.16
689.269	180.09
689.463	263.59
689.657	194.23
689.85	166.91
690.044	192.29
690.238	175.44
690.431	158.78
690.625	149.86
690.818	169.82
691.012	205.47
691.205	203.53
691.399	141.73
691.593	186.29
691.786	227.75
691.98	230.27
692.173	257.2
692.366	205.66
692.56	218.45
692.753	270.18
692.947	168.27
693.14	277.35
693.333	260.49
693.527	198.11
693.72	240.15
693.914	212.64
694.107	204.31
694.3	237.24
694.493	174.28
694.687	248.09
694.88	200.63
695.073	277.74
695.266	265.72
695.46	237.82
695.653	284.32
695.846	271.15
696.039	194.81
696.232	239.76
696.425	259.72
696.618	257.39
696.812	213.03
697.005	298.27
697.198	361.44
697.391	301.18
697.584	277.54
697.777	315.52
697.97	300.79
698.163	316.1
698.356	271.73
698.549	367.64
698.742	331.02
698.935	292.66
699.127	333.15
699.32	266.31
699.513	282
699.706	302.73
699.899	325.59
700.092	291.49
700.285	343.42
700.477	283.74
700.67	317.26
700.863	355.62
701.056	412.39
701.248	379.26
701.441	375
701.634	332.76
701.826	426.53
702.019	326.56
702.212	375.97
702.404	333.54
702.597	312.03
702.79	353.3
702.982	362.6
703.175	361.63
703.367	384.88
703.56	370.93
703.752	457.15
703.945	387.79
704.137	383.72
704.33	390.11
704.522	397.67
704.715	422.08
704.907	413.36
705.1	432.35
705.292	413.94
705.484	399.22
705.677	444.55
705.869	435.06
706.061	440.68
706.254	460.83
706.446	424.98
706.638	413.55
706.831	493.96
707.023	441.26
707.215	526.31
707.407	506.94
707.599	472.65
707.792	483.88
707.984	488.92
708.176	514.11
708.368	468.97
708.56	506.55
708.752	474.97
708.944	475.55
709.136	501.13
709.329	496.67
709.521	596.84
709.713	543.17
709.905	578.43
710.097	577.27
710.289	523.21
710.481	549.56
710.672	558.48
710.864	553.44
711.056	598.97
711.248	591.8
711.44	585.21
711.632	578.82
711.824	567.39
712.016	622.61
712.207	634.62
712.399	624.35
712.591	677.63
712.783	621.44
712.975	666.59
713.166	596.06
713.358	608.08
713.55	684.8
713.741	676.66
713.933	676.86
714.125	624.74
714.316	655.54
714.508	682.67
714.7	705.92
714.891	683.83
715.083	754.94
715.274	656.32
715.466	679.37
715.657	689.45
715.849	665.81
716.04	692.94
716.232	617.57
716.423	731.3
716.615	654.19
716.806	648.76
716.998	649.93
717.189	620.48
717.381	581.14
717.572	561.77
717.763	633.65
717.955	606.91
718.146	583.86
718.337	553.44
718.528	571.46
718.72	502.29
718.911	590.44
719.102	533.68
719.293	590.83
719.485	546.85
719.676	574.56
719.867	513.14
720.058	519.53
720.249	532.9
720.44	554.8
720.632	560.41
720.823	607.3
721.014	648.96
721.205	592.19
721.396	641.01
721.587	714.06
721.778	702.82
721.969	686.35
722.16	713.28
722.351	665.81
722.542	797.56
722.733	823.72
722.924	717.54
723.115	757.07
723.305	779.15
723.496	800.08
723.687	721.81
723.878	710.18
724.069	735.37
724.26	752.03
724.45	671.04
724.641	686.16
724.832	742.73
725.023	747.57
725.213	694.87
725.404	700.3
725.595	709.21
725.785	696.81
725.976	769.47
726.167	752.22
726.357	717.35
726.548	776.05
726.739	741.37
726.929	752.61
727.12	788.45
727.31	814.8
727.501	782.06
727.691	797.17
727.882	838.25
728.072	830.5
728.263	776.64
728.453	835.53
728.644	820.42
728.834	806.86
729.024	804.15
729.215	787.29
729.405	824.88
729.596	837.28
729.786	875.06
729.976	833.21
730.167	889.59
730.357	834.76
730.547	849.48
730.737	884.36
730.928	906.83
731.118	968.45
731.308	881.26
731.498	862.47
731.688	934.35
731.879	918.26
732.069	976
732.259	947.13
732.449	930.08
732.639	1011.07
732.829	994.8
733.019	989.37
733.209	1040.13
733.399	1038.78
733.589	1106.59
733.779	1067.45
733.969	1055.83
734.159	1099.22
734.349	1156.77
734.539	1165.29
734.729	1114.14
734.919	1190.67
735.109	1190.48
735.299	1135.84
735.488	1162.97
735.678	1175.17
735.868	1201.72
736.058	1163.55
736.248	1137.78
736.437	1144.37
736.627	1124.8
736.817	1261.59
737.007	1188.93
737.196	1214.89
737.386	1165.29
737.576	1149.99
737.765	1196.87
737.955	1206.17
738.144	1274.57
738.334	1226.9
738.524	1187.19
738.713	1239.5
738.903	1194.94
739.092	1242.99
739.282	1239.3
739.471	1271.08
739.661	1213.54
739.85	1243.37
740.04	1283.09
740.229	1267.78
740.419	1273.98
740.608	1308.67
740.797	1298.98
740.987	1373.57
741.176	1329.2
741.365	1244.54
741.555	1267.01
741.744	1327.46
741.933	1302.66
742.123	1323.2
742.312	1348
742.501	1368.53
742.69	1388.88
742.88	1311.18
743.069	1436.35
743.258	1319.13
743.447	1432.47
743.636	1367.37
743.825	1365.63
744.014	1368.92
744.204	1424.14
744.393	1369.89
744.582	1385.39
744.771	1424.14
744.96	1366.98
745.149	1407.09
745.338	1356.71
745.527	1391.4
745.716	1374.54
745.905	1363.5
746.094	1405.54
746.283	1441.58
746.471	1417.55
746.66	1481.49
746.849	1418.52
747.038	1477.61
747.227	1368.34
747.416	1445.06
747.604	1380.74
747.793	1409.41
747.982	1402.44
748.171	1428.79
748.359	1450.29
748.548	1424.14
748.737	1403.41
748.926	1374.93
749.114	1317.38
749.303	1415.23
749.491	1405.54
749.68	1366.4
749.869	1451.26
750.057	1421.23
750.246	1405.73
750.434	1381.51
750.623	1377.06
750.811	1385.39
751	1443.32
751.188	1416.78
751.377	1435.76
751.565	1404.57
751.754	1383.06
751.942	1369.11
752.131	1411.35
752.319	1383.06
752.507	1336.37
752.696	1419.1
752.884	1459.59
753.072	1405.73
753.261	1378.61
753.449	1406.9
753.637	1390.81
753.825	1465.02
754.014	1395.46
754.202	1385.97
754.39	1471.22
754.578	1465.21
754.766	1398.18
754.955	1351.1
755.143	1483.23
755.331	1391.78
755.519	1390.43
755.707	1424.14
755.895	1352.45
756.083	1398.18
756.271	1354.97
756.459	1366.4
756.647	1449.91
756.835	1355.55
757.023	1368.92
757.211	1381.51
757.399	1407.67
757.587	1378.8
757.775	1372.02
757.963	1355.55
758.151	1405.73
758.339	1338.7
758.526	1346.64
758.714	1390.43
758.902	1322.42
759.09	1283.87
759.278	1191.84
759.465	1142.62
759.653	994.6
759.841	961.28
760.028	767.14
760.216	679.76
760.404	702.82
760.591	552.28
760.779	469.93
760.967	397.08
761.154	318.04
761.342	344.77
761.529	327.34
761.717	381.59
761.905	314.94
762.092	343.61
762.28	305.25
762.467	343.8
762.655	300.02
762.842	306.02
763.029	341.87
763.217	340.7
763.404	337.41
763.592	396.12
763.779	299.82
763.966	356.98
764.154	356.2
764.341	412.58
764.528	398.05
764.716	405.61
764.903	424.98
765.09	452.3
765.277	476.52
765.465	604.2
765.652	575.53
765.839	601.1
766.026	661.55
766.213	666.2
766.4	686.74
766.588	867.5
766.775	804.34
766.962	877.38
767.149	846.38
767.336	921.95
767.523	897.15
767.71	972.71
767.897	1004.29
768.084	1065.13
768.271	1047.49
768.458	1109.88
768.645	1115.31
768.832	1060.86
769.019	1097.87
769.206	1130.03
769.392	1180.02
769.579	1263.52
769.766	1178.47
769.953	1175.56
770.14	1249.77
770.327	1174.21
770.513	1197.45
770.7	1272.05
770.887	1196.49
771.073	1267.2
771.26	1269.72
771.447	1206.95
771.634	1227.29
771.82	1315.25
772.007	1195.71
772.193	1239.89
772.38	1261.78
772.567	1249.19
772.753	1258.49
772.94	1267.4
773.126	1292.78
773.313	1289.29
773.499	1288.32
773.686	1277.08
773.872	1254.03
774.059	1247.64
774.245	1202.69
774.432	1195.9
774.618	1147.66
774.804	1262.75
774.991	1181.37
775.177	1266.43
775.363	1224.58
775.55	1300.14
775.736	1227.29
775.922	1197.26
776.109	1240.85
776.295	1203.07
776.481	1297.04
776.667	1245.5
776.853	1254.03
777.04	1222.45
777.226	1208.11
777.412	1295.3
777.598	1207.92
777.784	1191.06
777.97	1167.23
778.156	1260.23
778.342	1202.88
778.528	1200.17
778.715	1149.79
778.901	1178.47
779.087	1226.32
779.272	1173.62
779.458	1159.29
779.644	1201.91
779.83	1150.96
780.016	1258.49
780.202	1212.18
780.388	1137.2
780.574	1147.66
780.76	1168.01
780.946	1190.29
781.131	1161.61
781.317	1184.86
781.503	1138.36
781.689	1143.01
781.874	1242.4
782.06	1201.91
782.246	1157.16
782.432	1160.84
782.617	1153.67
782.803	1209.08
782.989	1124.99
783.174	1148.05
783.36	1095.74
783.545	1148.05
783.731	1159.09
783.916	1121.7
784.102	1162.97
784.288	1110.85
784.473	1133.32
784.659	1121.51
784.844	1163.36
785.029	1095.54
785.215	1107.56
785.4	1069
785.586	1144.76
785.771	1085.47
785.956	1127.51
786.142	1110.66
786.327	1074.43
786.512	1113.17
786.698	1078.69
786.883	1075.01
787.068	1048.85
787.254	1084.89
787.439	1075.98
787.624	1119.76
787.809	1039.55
787.994	1089.73
788.18	1131
788.365	1017.46
788.55	1083.92
788.735	1039.74
788.92	1051.56
789.105	1067.84
789.29	1107.94
789.475	1050.01
789.66	1059.89
789.845	1019.59
790.03	1044.78
790.215	1089.73
790.4	1075.2
790.585	1107.56
790.77	1060.86
790.955	952.75
791.14	1047.88
791.325	1098.26
791.51	983.36
791.695	1013.01
791.879	1007.97
792.064	972.13
792.249	1078.11
792.434	1004.48
792.618	1009.52
792.803	1063.96
792.988	1015.72
793.173	1011.26
793.357	1035.09
793.542	963.8
793.727	1021.73
793.911	1053.69
794.096	1001.19
794.281	1019.21
794.465	1104.26
794.65	1020.76
794.834	1046.14
795.019	1060.67
795.203	1067.26
795.388	1033.35
795.572	1074.23
795.757	1012.62
795.941	1031.22
796.126	1032.77
796.31	1007.97
796.494	1072.29
796.679	1016.3
796.863	989.18
797.048	1093.22
797.232	1081.01
797.416	1031.41
797.601	1010.29
797.785	1080.82
797.969	1085.86
798.153	1007.78
798.338	1034.51
798.522	1050.79
798.706	1044.2
798.89	1054.28
799.074	1144.56
799.258	1025.79
799.443	1076.56
799.627	1038.97
799.811	1102.52
799.995	1065.13
800.179	1030.06
800.363	1037.42
800.547	1050.59
800.731	1066.68
800.915	1031.8
801.099	1030.44
801.283	1066.48
801.467	1069.19
801.651	1014.94
801.835	1020.18
802.019	1058.93
802.202	1061.25
802.386	1048.46
802.57	1031.03
802.754	1008.74
802.938	1011.46
803.121	1043.23
803.305	1097.29
803.489	1020.18
803.673	1044.2
803.856	1052.14
804.04	1031.41
804.224	1025.79
804.407	1050.98
804.591	1029.09
804.775	1038.39
804.958	1039.16
805.142	1149.41
805.326	1039.16
805.509	1050.01
805.693	1069.97
805.876	1093.8
806.06	1022.89
806.243	1075.2
806.427	1109.49
806.61	1093.99
806.794	1022.11
806.977	1094.19
807.16	1050.4
807.344	1058.93
807.527	1062.8
807.71	1046.14
807.894	1062.8
808.077	1082.76
808.26	1047.69
808.444	1023.47
808.627	1108.33
808.81	1044.2
808.993	1003.9
809.177	1007.78
809.36	1008.74
809.543	1033.54
809.726	969.22
809.909	994.02
810.092	959.53
810.276	994.21
810.459	985.3
810.642	996.15
810.825	946.36
811.008	978.33
811.191	911.68
811.374	911.87
811.557	930.08
811.74	982.4
811.923	905.67
812.106	920.2
812.289	843.67
812.472	891.92
812.654	940.16
812.837	886.68
813.02	893.08
813.203	870.22
813.386	778.38
813.569	806.28
813.751	764.82
813.934	809.96
814.117	785.16
814.3	743.89
814.482	774.5
814.665	762.49
814.848	739.24
815.03	716.96
815.213	715.8
815.396	710.37
815.578	712.89
815.761	682.28
815.943	745.25
816.126	668.72
816.309	647.21
816.491	624.54
816.674	598.97
816.856	642.18
817.039	646.83
817.221	675.31
817.403	644.31
817.586	652.64
817.768	678.21
817.951	620.28
818.133	614.47
818.315	622.41
818.498	667.94
818.68	727.23
818.862	665.42
819.045	690.03
819.227	686.16
819.409	636.56
819.591	700.49
819.774	669.49
819.956	628.23
820.138	698.75
820.32	653.61
820.502	687.71
820.684	687.12
820.866	730.91
821.048	773.34
821.231	744.47
821.413	753.58
821.595	720.06
821.777	712.51
821.959	707.66
822.141	788.07
822.323	703.01
822.505	670.07
822.686	687.51
822.868	669.69
823.05	622.41
823.232	599.55
823.414	557.9
823.596	608.85
823.778	562.35
823.96	590.44
824.141	576.88
824.323	563.13
824.505	638.11
824.687	629
824.868	637.33
825.05	738.27
825.232	722
825.413	805.12
825.595	733.82
825.777	683.44
825.958	717.16
826.14	690.42
826.321	762.1
826.503	722.39
826.685	721.81
826.866	753.39
827.048	734.01
827.229	723.94
827.411	669.11
827.592	666.59
827.773	661.16
827.955	661.16
828.136	642.37
828.318	630.16
828.499	679.37
828.68	636.17
828.862	671.82
829.043	683.83
829.224	664.65
829.406	636.75
829.587	627.26
829.768	610.21
829.949	653.8
830.131	637.91
830.312	696.42
830.493	610.21
830.674	666.59
830.855	612.92
831.036	630.55
831.218	683.83
831.399	699.33
831.58	677.82
831.761	653.41
831.942	669.88
832.123	638.88
832.304	628.61
832.485	627.84
832.666	658.45
832.847	668.33
833.028	635.78
833.209	688.87
833.389	646.24
833.57	609.24
833.751	644.31
833.932	662.32
834.113	665.62
834.294	618.34
834.475	645.08
834.655	692.94
834.836	700.49
835.017	652.44
835.198	574.94
835.378	673.56
835.559	687.12
835.74	655.16
835.92	637.14
836.101	622.61
836.281	664.65
836.462	648.57
836.643	694.29
836.823	689.26
837.004	667.94
837.184	761.72
837.365	684.8
837.545	711.34
837.726	681.31
837.906	704.37
838.087	683.44
838.267	699.14
838.448	626.09
838.628	659.03
838.808	682.47
838.989	732.85
839.169	627.64
839.349	700.49
839.53	724.52
839.71	672.4
839.89	637.14
840.07	719.09
840.251	640.04
840.431	677.63
840.611	668.52
840.791	648.96
840.971	684.02
841.151	680.92
841.332	659.81
841.512	713.47
841.692	634.23
841.872	681.51
842.052	671.24
842.232	727.81
842.412	630.94
842.592	629.39
842.772	678.21
842.952	653.61
843.132	646.44
843.312	628.42
843.492	625.32
843.672	688.48
843.851	624.93
844.031	687.9
844.211	650.51
844.391	613.31
844.571	637.33
844.751	709.21
844.93	681.51
845.11	626.68
845.29	645.66
845.47	656.51
845.649	669.88
845.829	658.84
846.009	610.79
846.188	648.18
846.368	659.42
846.547	636.36
846.727	670.85
846.907	623.38
847.086	663.1
847.266	690.42
847.445	620.09
847.625	623.77
847.804	631.71
847.984	654.38
848.163	590.64
848.343	653.03
848.522	638.49
848.701	653.22
848.881	612.73
849.06	617.96
849.239	634.04
849.419	650.51
849.598	620.28
849.777	606.14
849.957	625.13
850.136	582.89
850.315	563.32
850.494	585.99
850.674	549.37
850.853	638.69
851.032	590.64
851.211	636.94
851.39	597.42
851.569	565.65
851.748	557.12
851.927	613.31
852.107	618.73
852.286	560.03
852.465	542.2
852.644	602.07
852.823	613.11
853.002	592.58
853.181	596.26
853.359	620.67
853.538	533.68
853.717	625.13
853.896	546.66
854.075	535.42
854.254	519.53
854.433	485.63
854.611	552.86
854.79	512.17
854.969	534.45
855.148	541.81
855.327	498.22
855.505	532.71
855.684	504.23
855.863	573.98
856.041	516.63
856.22	545.11
856.399	482.33
856.577	612.73
856.756	536.78
856.934	653.41
857.113	652.64
857.291	554.8
857.47	532.9
857.648	571.46
857.827	573.59
858.005	598.97
858.184	555.18
858.362	622.22
858.541	581.34
858.719	531.74
858.898	551.11
859.076	520.7
859.254	618.54
859.433	542.78
859.611	544.91
859.789	516.43
859.967	579.21
860.146	622.61
860.324	539.68
860.502	527.86
860.68	504.42
860.859	518.37
861.037	538.33
861.215	553.63
861.393	545.3
861.571	551.31
861.749	507.91
861.927	544.33
862.105	545.3
862.283	524.96
862.461	520.7
862.639	482.72
862.817	505.2
862.995	511.01
863.173	499.19
863.351	509.85
863.529	521.47
863.707	571.07
863.885	524.76
864.063	479.62
864.241	475.17
864.418	605.17
864.596	488.34
864.774	487.95
864.952	493.76
865.129	512.75
865.307	466.45
865.485	416.07
865.663	555.38
865.84	462.18
866.018	521.47
866.196	407.35
866.373	464.7
866.551	450.17
866.728	399.99
866.906	445.72
867.084	456.76
867.261	473.23
867.439	448.82
867.616	493.18
867.794	485.05
867.971	491.05
868.149	469.93
868.326	516.43
868.503	488.53
868.681	507.33
868.858	468
869.035	439.13
869.213	497.06
869.39	440.87
869.567	541.81
869.745	449.98
869.922	459.67
870.099	487.56
870.276	524.18
870.454	505.39
870.631	509.26
870.808	477.1
870.985	492.99
871.162	557.7
871.339	494.54
871.517	447.65
871.694	441.65
871.871	474.78
872.048	458.89
872.225	448.82
872.402	474.97
872.579	438.93
872.756	461.99
872.933	453.66
873.11	457.92
873.287	481.36
873.463	446.49
873.64	410.65
873.817	480.4
873.994	431.38
874.171	443.97
874.348	453.08
874.524	406.58
874.701	460.63
874.878	386.82
875.055	470.13
875.231	439.52
875.408	466.25
875.585	380.42
875.762	456.57
875.938	437.19
876.115	433.9
876.291	457.53
876.468	430.41
876.645	368.22
876.821	444.17
876.998	406.97
877.174	436.8
877.351	407.55
877.527	412.39
877.704	417.62
877.88	451.14
878.057	416.65
878.233	451.72
878.409	404.64
878.586	453.47
878.762	420.92
878.938	422.85
879.115	358.72
879.291	425.95
879.467	356.4
879.644	406.97
879.82	428.67
879.996	395.73
880.172	344.39
880.349	397.86
880.525	423.43
880.701	366.86
880.877	397.47
881.053	418.2
881.229	393.98
881.405	447.27
881.581	372.67
881.757	378.1
881.933	403.87
882.109	417.04
882.285	395.34
882.461	370.15
882.637	399.41
882.813	372.87
882.989	375.77
883.165	447.65
883.341	357.95
883.517	438.55
883.693	418.2
883.869	438.55
884.044	364.54
884.22	414.91
884.396	457.92
884.572	416.27
884.747	446.88
884.923	413.36
885.099	448.04
885.275	473.03
885.45	392.05
885.626	394.57
885.801	350
885.977	358.34
886.153	354.07
886.328	401.54
886.504	399.41
886.679	417.04
886.855	368.41
887.03	411.03
887.206	426.15
887.381	393.4
887.557	415.1
887.732	403.09
887.908	409.68
888.083	439.32
888.258	393.4
888.434	359.11
888.609	411.03
888.784	406.97
888.96	376.74
889.135	387.4
889.31	343.8
889.485	383.33
889.661	364.92
889.836	441.45
890.011	416.85
890.186	378.68
890.361	351.55
890.537	406
890.712	377.32
890.887	383.33
891.062	377.71
891.237	423.43
891.412	386.62
891.587	421.11
891.762	415.88
891.937	430.8
892.112	377.9
892.287	372.67
892.462	345.35
892.637	342.25
892.812	350.59
892.987	348.84
893.161	347.29
893.336	344.58
893.511	361.24
893.686	399.22
893.861	361.44
894.035	354.46
894.21	367.05
894.385	318.23
894.56	375
894.734	339.54
894.909	309.32
895.084	339.93
895.258	317.26
895.433	355.43
895.608	331.21
895.782	312.42
895.957	305.64
896.131	328.11
896.306	256.04
896.48	264.76
896.655	300.41
896.829	256.62
897.004	265.92
897.178	263.79
897.353	238.41
897.527	289.56
897.701	271.54
897.876	220.77
898.05	290.72
898.224	295.17
898.399	314.74
898.573	272.51
898.747	195.78
898.921	255.26
899.096	209.93
899.27	218.64
899.444	215.35
899.618	220.77
899.792	232.4
899.967	199.66
900.141	234.72
900.315	194.43
900.489	242.86
900.663	266.89
900.837	220.58
901.011	187.06
901.185	302.34
901.359	221.36
901.533	247.32
901.707	233.17
901.881	215.54
902.055	193.46
902.229	217.29
902.403	282.97
902.576	231.24
902.75	233.95
902.924	325.79
903.098	233.76
903.272	280.64
903.446	329.08
903.619	270.76
903.793	275.8
903.967	253.13
904.14	317.84
904.314	317.26
904.488	281.03
904.661	331.99
904.835	263.98
905.009	296.72
905.182	390.3
905.356	336.64
905.529	285.87
905.703	253.52
905.876	257.78
906.05	241.89
906.223	245.77
906.397	216.9
906.57	205.86
906.744	207.6
906.917	227.75
907.09	215.74
907.264	217.29
907.437	207.21
907.61	180.86
907.784	217.48
907.957	213.8
908.13	209.34
908.304	230.66
908.477	210.7
908.65	213.41
908.823	178.15
908.996	254.1
909.17	218.06
909.343	212.06
909.516	203.14
909.689	210.7
909.862	183.58
910.035	193.07
910.208	190.16
910.381	203.53
910.554	271.54
910.727	222.91
910.9	205.28
911.073	163.62
911.246	259.33
911.419	244.22
911.592	216.51
911.765	172.14
911.938	156.84
912.11	211.28
912.283	215.93
912.456	245.57
912.629	211.48
912.802	219.81
912.974	143.47
913.147	162.26
913.32	121.19
913.493	139.59
913.665	151.41
913.838	163.62
914.01	167.49
914.183	154.13
914.356	138.63
914.528	202.18
914.701	241.7
914.873	206.83
915.046	189.97
915.218	144.44
915.391	144.83
915.563	139.59
915.736	205.66
915.908	216.9
916.081	149.67
916.253	122.55
916.425	169.24
916.598	180.67
916.77	155.29
916.942	138.82
917.115	83.99
917.287	182.99
917.459	146.18
917.632	147.54
917.804	116.73
917.976	172.92
918.148	148.7
918.32	151.8
918.493	178.73
918.665	217.09
918.837	172.34
919.009	181.44
919.181	213.22
919.353	186.09
919.525	181.06
919.697	147.34
919.869	174.86
920.041	200.24
920.213	261.66
920.385	175.24
920.557	162.26
920.729	192.88
920.901	183.19
921.073	170.01
921.244	148.12
921.416	204.31
921.588	185.32
921.76	149.67
921.932	239.96
922.103	149.09
922.275	164.78
922.447	196.75
922.619	137.66
922.79	167.49
922.962	180.67
923.134	198.3
923.305	162.07
923.477	123.71
923.648	161.68
923.82	147.54
923.991	130.68
924.163	119.45
924.335	157.42
924.506	135.14
924.677	195.59
924.849	129.13
925.02	154.13
925.192	166.91
925.363	126.61
925.535	145.41
925.706	140.76
925.877	183.58
926.049	132.23
926.22	152.19
926.391	150.25
926.562	192.29
926.734	93.68
926.905	155.68
927.076	95.03
927.247	151.22
927.419	116.93
927.59	99.49
927.761	139.59
927.932	90
928.103	140.18
928.274	109.18
928.445	96.78
928.616	93.87
928.787	104.72
928.958	177.18
929.129	130.49
929.3	108.4
929.471	77.79
929.642	64.81
929.813	20.25
929.984	130.49
930.155	53.57
930.326	125.26
930.496	60.93
930.667	39.23
930.838	52.41
931.009	58.41
931.18	67.52
931.35	40.2
931.521	95.42
931.692	47.95
931.863	19.08
932.033	44.08
932.204	71.98
932.374	68.88
932.545	34.78
932.716	71.59
932.886	75.46
933.057	2.23
933.227	27.03
933.398	103.75
933.568	42.14
933.739	10.95
933.909	1.26
934.08	77.21
934.25	7.65
934.421	-7.65
934.591	17.15
934.761	-5.52
934.932	-23.15
935.102	-3.58
935.272	11.92
935.443	4.55
935.613	-0.87
935.783	21.6
935.953	4.75
936.123	142.11
936.294	-9.59
936.464	-8.04
936.634	24.51
936.804	-16.57
936.974	-4.94
937.144	26.45
937.314	21.8
937.484	-3.97
937.655	-3.58
937.825	29.35
937.995	-5.52
938.165	37.3
938.334	10.95
938.504	-4.55
938.674	-2.62
938.844	-14.05
939.014	20.25
939.184	15.02
939.354	46.6
939.524	38.85
939.694	0.29
939.863	-8.43
940.033	55.31
940.203	56.28
940.373	29.35
940.542	64.42
940.712	19.47
940.882	33.42
941.051	42.33
941.221	46.79
941.391	66.16
941.56	21.22
941.73	-13.08
941.899	99.88
942.069	9.59
942.238	51.44
942.408	40.01
942.577	61.13
942.747	31.87
942.916	-22.18
943.086	17.73
943.255	76.43
943.425	31.1
943.594	36.52
943.763	-34.58
943.933	7.27
944.102	-57.06
944.271	20.05
944.441	40.78
944.61	-7.85
944.779	1.65
944.948	106.08
945.117	-13.66
945.287	3
945.456	-67.13
945.625	-11.92
945.794	62.1
945.963	-5.13
946.132	69.65
946.301	11.33
946.47	40.2
946.639	-35.75
946.808	-18.5
946.977	63.26
947.146	70.04
947.315	-21.02
947.484	51.83
947.653	18.12
947.822	0.68
947.991	-2.23
948.16	85.93
948.329	59.77
948.498	13.08
948.666	19.67
948.835	25.67
949.004	-21.8
949.173	-19.67
949.341	44.08
949.51	47.95
949.679	75.27
949.847	44.85
950.016	87.28
950.185	79.15
950.353	-21.99
950.522	2.03
950.69	84.76
950.859	4.36
951.028	39.82
951.196	16.57
951.365	33.03
951.533	14.43
951.701	54.15
951.87	65.2
952.038	11.53
952.207	46.4
952.375	78.37
952.543	19.47
952.712	-3.39
952.88	-12.5
953.048	63.06
953.217	17.53
953.385	10.95
953.553	52.02
953.721	2.23
953.89	13.27
954.058	-23.35
954.226	3.97
954.394	25.09
954.562	-3
954.73	-5.91
954.898	12.5
955.067	58.61
955.235	4.94
955.403	48.15
955.571	84.96
955.739	61.51
955.907	9.01
956.075	6.3
956.243	-2.81
956.41	58.03
956.578	-16.37
956.746	-36.13
956.914	-10.75
957.082	45.63
957.25	50.66
957.418	-10.17
957.585	19.86
957.753	55.7
957.921	-30.32
958.089	25.87
958.256	61.51
958.424	29.35
958.592	11.53
958.759	-0.29
958.927	46.6
959.095	-6.49
959.262	19.08
959.43	60.16
959.597	-19.28
959.765	28.38
959.932	-4.55
960.1	44.08
960.267	22.38
960.435	11.72
960.602	78.18
960.77	3.58
960.937	-11.53
961.104	18.12
961.272	-16.37
961.439	-11.92
961.606	42.33
961.774	54.15
961.941	42.33
962.108	42.72
962.275	30.32
962.443	48.34
962.61	51.05
962.777	72.75
962.944	67.91
963.111	11.33
963.278	35.36
963.446	41.56
963.613	26.45
963.78	35.17
963.947	49.11
964.114	30.32
964.281	87.67
964.448	34.39
964.615	33.81
964.782	44.66
964.949	44.46
965.116	37.3
965.282	79.34
965.449	14.43
965.616	4.75
965.783	62.87
965.95	27.03
966.117	-3.58
966.283	41.37
966.45	23.54
966.617	59.58
966.784	46.01
966.95	53.76
967.117	50.08
967.284	9.01
967.45	6.49
967.617	78.56
967.784	45.82
967.95	87.48
968.117	11.72
968.283	84.96
968.45	98.13
968.616	30.71
968.783	60.55
968.949	51.44
969.116	67.33
969.282	18.7
969.449	44.85
969.615	24.32
969.781	-17.92
969.948	-7.85
970.114	-19.67
970.28	93.48
970.447	17.53
970.613	69.46
970.779	27.03
970.945	60.35
971.112	45.82
971.278	51.83
971.444	34.58
971.61	54.73
971.776	25.09
971.942	43.11
972.108	47.95
972.275	9.78
972.441	51.63
972.607	102.2
972.773	1.07
972.939	53.18
973.105	43.88
973.271	9.4
973.437	30.13
973.602	16.37
973.768	52.6
973.934	30.9
974.1	39.43
974.266	-47.95
974.432	45.24
974.598	35.94
974.763	43.5
974.929	8.23
975.095	96.78
975.261	10.95
975.426	-1.84
975.592	35.36
975.758	99.49
975.923	-13.27
976.089	1.26
976.255	74.11
976.42	47.18
976.586	35.75
976.751	50.66
976.917	101.04
977.082	50.66
977.248	0.48
977.413	-28.38
977.579	53.96
977.744	22.77
977.91	12.3
978.075	10.95
978.24	81.47
978.406	18.31
978.571	-6.3
978.736	21.02
978.902	64.42
979.067	-5.33
979.232	-26.45
979.397	33.23
979.563	92.13
979.728	14.43
979.893	39.43
980.058	18.7
980.223	53.96
980.388	40.98
980.554	41.17
980.719	27.03
980.884	36.33
981.049	81.08
981.214	13.08
981.379	44.08
981.544	22.96
981.709	0.87
981.874	23.15
982.039	30.52
982.204	40.98
982.368	24.51
982.533	5.13
982.698	63.06
982.863	52.21
983.028	12.3
983.193	57.64
983.357	19.28
983.522	23.35
983.687	36.72
983.852	18.7
984.016	16.37
984.181	34.2
984.346	59.58
984.51	39.62
984.675	43.88
984.839	66.75
985.004	45.43
985.168	56.28
985.333	37.1
985.498	24.51
985.662	42.92
985.827	41.37
985.991	-15.21
986.155	6.49
986.32	64.42
986.484	88.64
986.649	31.29
986.813	-13.47
986.977	32.26
987.142	37.1
987.306	-18.5
987.47	-4.36
987.634	26.83
987.799	17.73
987.963	20.05
988.127	46.6
988.291	117.51
988.455	39.04
988.62	27.61
988.784	58.61
988.948	56.86
989.112	11.72
989.276	52.21
989.44	27.61
989.604	34.78
989.768	4.75
989.932	79.73
990.096	21.8
990.26	-6.49
990.424	-13.08
990.588	32.45
990.752	93.87
990.915	88.45
991.079	-4.36
991.243	-12.11
991.407	44.46
991.571	31.48
991.734	38.46
991.898	59.96
992.062	124.48
992.226	33.42
992.389	17.15
992.553	-33.23
992.717	11.33
992.88	32.84
993.044	29.74
993.207	7.65
993.371	66.55
993.535	37.49
993.698	37.49
993.862	52.8
994.025	86.31
994.189	40.2
994.352	36.91
994.515	48.53
994.679	59
994.842	17.34
995.006	44.85
995.169	11.14
995.332	40.59
995.496	43.88
995.659	-24.7
995.822	11.33
995.985	44.46
996.149	52.8
996.312	38.07
996.475	76.63
996.638	2.23
996.801	86.7
996.964	92.71
997.128	42.72
997.291	13.66
997.454	54.54
997.617	1.65
997.78	54.73
997.943	2.03
998.106	68.49
998.269	4.17
998.432	41.75
998.595	25.48
998.758	-38.46
998.92	9.4
999.083	-41.56
999.246	25.09
999.409	-19.47
999.572	-17.92
999.735	1.26
999.897	28.38
1000.06	3.58
1000.223	-4.36
1000.386	54.15
1000.548	49.89
1000.711	33.62
1000.874	12.3
1001.036	1.07
1001.199	45.43
1001.361	-9.2
1001.524	35.17
1001.687	38.65
1001.849	9.2
1002.012	19.28
1002.174	24.12
1002.337	41.17
1002.499	16.18
1002.661	74.11
1002.824	10.17
1002.986	6.49
1003.149	2.42
1003.311	-7.07
1003.473	75.08
1003.636	9.2
1003.798	31.68
1003.96	54.93
1004.123	26.64
1004.285	0.87
1004.447	39.62
1004.609	3.2
1004.771	81.28
1004.933	-11.72
1005.096	0.87
1005.258	-10.56
1005.42	-2.03
1005.582	61.32
1005.744	18.89
1005.906	-41.17
1006.068	13.27
1006.23	-5.72
1006.392	-24.32
1006.554	11.33
1006.716	39.62
1006.878	38.65
1007.04	-9.98
1007.202	11.14
1007.363	18.7
1007.525	37.68
1007.687	30.32
1007.849	88.25
1008.011	-43.11
1008.172	-20.25
1008.334	18.89
1008.496	40.98
1008.658	-32.84
1008.819	2.42
1008.981	-28.58
1009.143	0.1
1009.304	-11.14
1009.466	32.65
1009.627	51.25
1009.789	132.04
1009.95	-6.3
1010.112	5.91
1010.273	43.11
1010.435	-2.03
1010.596	-10.75
1010.758	-5.52
1010.919	9.98
1011.081	-15.4
1011.242	18.89
1011.403	60.35
1011.565	31.29
1011.726	34.39
1011.887	2.03
1012.049	-2.23
1012.21	57.64
1012.371	58.8
1012.532	-20.25
1012.693	-1.84
1012.855	-13.47
1013.016	26.06
1013.177	46.6
1013.338	-7.07
1013.499	88.25
1013.66	33.03
1013.821	63.06
1013.982	13.27
1014.143	30.32
1014.304	0.29
1014.465	30.32
1014.626	60.93
1014.787	-2.23
1014.948	96.97
1015.109	-53.57
1015.27	74.11
1015.431	-9.4
1015.592	-11.33
1015.752	60.55
1015.913	6.88
1016.074	17.73
1016.235	3.78
1016.395	16.18
1016.556	35.17
1016.717	20.63
1016.877	43.3
1017.038	-3.97
1017.199	29.93
1017.359	23.35
1017.52	8.43
1017.681	17.53
1017.841	22.57
1018.002	7.46
1018.162	-8.04
1018.323	40.2
1018.483	9.4
1018.644	17.73
1018.804	-1.45
1018.964	-28.77
1019.125	3.2
1019.285	-6.88
1019.446	-27.42
1019.606	-15.79
1019.766	-47.76
1019.926	40.4
1020.087	40.78
1020.247	-6.68
1020.407	23.35
1020.567	38.07
1020.728	17.92
1020.888	-13.27
1021.048	-10.37
1021.208	-0.29
1021.368	-14.24
1021.528	51.83
1021.688	55.9
1021.848	49.11
1022.008	30.71
1022.168	12.69
1022.328	-1.65
1022.488	29.35
1022.648	4.17
1022.808	15.6
1022.968	41.75
1023.128	-9.98
1023.288	-29.93
1023.448	1.65
1023.608	35.75
1023.767	27.22
1023.927	-24.7
1024.087	-20.05
1024.247	-20.63
1024.406	-0.48
1024.566	-45.24
1024.726	-19.67
1024.885	6.88
1025.045	52.21
1025.205	2.42
1025.364	-13.66
1025.524	24.7
1025.683	49.89
1025.843	4.36
1026.003	27.8
1026.162	59.77
1026.321	48.34
1026.481	22.57
1026.64	3.39
1026.8	7.27
1026.959	14.24
1027.119	9.4
1027.278	2.23
1027.437	-6.1
1027.597	7.46
1027.756	30.13
1027.915	27.42
1028.074	16.37
1028.234	-2.03
1028.393	1.26
1028.552	-12.11
1028.711	-46.79
1028.87	71.01
1029.03	-16.95
1029.189	10.37
1029.348	-46.6
1029.507	-31.29
1029.666	11.92
1029.825	-16.76
1029.984	-17.53
1030.143	-0.48
1030.302	15.6
1030.461	-59.38
1030.62	18.89
1030.779	31.48
1030.938	-19.47
1031.097	-28.58
1031.255	25.28
1031.414	47.18
1031.573	76.43
1031.732	-31.29
1031.891	9.59
1032.049	47.56
1032.208	30.52
1032.367	-18.5
1032.525	-24.12
1032.684	16.57
1032.843	23.54
1033.001	-35.17
1033.16	138.82
1033.319	51.63
1033.477	29.74
1033.636	-9.59
1033.794	-18.7
1033.953	18.31
1034.111	41.95
1034.27	-9.2
1034.428	11.33
1034.587	-14.43
1034.745	17.53
1034.903	2.03
1035.062	14.82
1035.22	-21.22
1035.378	43.88
1035.537	-12.88
1035.695	18.5
1035.853	-2.81
1036.011	30.32
1036.17	37.68
1036.328	-59.38
1036.486	3.39
1036.644	-5.13
1036.802	-80.31
1036.96	-5.91
1037.119	-16.95
1037.277	-27.22
1037.435	-8.62
1037.593	-14.24
1037.751	-3.58
1037.909	35.75
1038.067	35.75
