Data from pine_FLMT105791__129__17-22-28-075.txt Node

Date: Mon Mar 20 17:22:28 GMT 2023
User: antho
Spectrometer: FLMT10579
Trigger mode: 0
Integration Time (sec): 1.000000E-1
Scans to average: 10
Electric dark correction enabled: true
Nonlinearity correction enabled: false
Boxcar width: 0
XAxis mode: Wavelengths
Number of Pixels in Spectrum: 3648
>>>>>Begin Spectral Data<<<<<
345.248	-186.8
345.464	-186.8
345.681	-186.8
345.898	-188.35
346.114	-178.09
346.331	-23.09
346.548	15.85
346.764	-14.95
346.981	-1.58
347.197	-15.73
347.414	9.66
347.631	-25.22
347.847	56.74
348.064	-21.34
348.28	25.74
348.497	-21.54
348.713	15.47
348.93	29.03
349.146	27.48
349.363	-18.83
349.579	27.87
349.796	0.94
350.012	-16.5
350.229	20.31
350.445	1.13
350.661	-16.89
350.878	-12.24
351.094	-3.33
351.311	-0.03
351.527	11.21
351.743	0.16
351.96	23.02
352.176	33.49
352.392	22.44
352.609	66.23
352.825	5.78
353.041	-7.2
353.257	12.76
353.474	-1.97
353.69	16.44
353.906	-3.33
354.122	-49.05
354.339	41.43
354.555	-0.23
354.771	-19.79
354.987	23.8
355.203	20.31
355.42	-23.67
355.636	-8.56
355.852	-14.95
356.068	8.69
356.284	-51.76
356.5	53.05
356.716	0.94
356.932	-7.59
357.148	30
357.364	6.36
357.58	49.76
357.796	48.21
358.012	54.22
358.228	30.97
358.444	-57.77
358.66	52.86
358.876	5.2
359.092	-3.71
359.308	9.27
359.524	25.74
359.74	-8.36
359.956	-19.41
360.172	19.34
360.388	56.74
360.604	-38.78
360.819	93.94
361.035	35.04
361.251	49.37
361.467	-7.01
361.683	46.85
361.898	5.97
362.114	51.89
362.33	22.05
362.546	53.83
362.762	-3.71
362.977	16.82
363.193	-37.43
363.409	48.21
363.624	-16.5
363.84	5.59
364.056	7.14
364.271	-5.07
364.487	-10.49
364.703	-12.04
364.918	-51.38
365.134	22.05
365.35	13.14
365.565	117.18
365.781	3.07
365.996	36.2
366.212	61.77
366.427	15.66
366.643	-7.01
366.858	9.27
367.074	-37.62
367.289	45.5
367.505	108.66
367.72	-19.21
367.936	-7.2
368.151	42.98
368.367	41.82
368.582	15.08
368.798	-1.97
369.013	43.17
369.228	17.6
369.444	11.4
369.659	43.17
369.874	38.33
370.09	43.75
370.305	-42.66
370.52	3.46
370.736	66.04
370.951	11.21
371.166	66.81
371.381	73.4
371.597	19.54
371.812	-18.05
372.027	-33.94
372.242	-14.95
372.458	54.02
372.673	14.31
372.888	-22.31
373.103	25.74
373.318	88.9
373.533	25.54
373.749	43.17
373.964	-23.86
374.179	32.32
374.394	-17.47
374.609	54.8
374.824	-13.01
375.039	52.86
375.254	10.82
375.469	85.41
375.684	43.37
375.899	58.29
376.114	11.98
376.329	20.7
376.544	34.45
376.759	71.27
376.974	1.13
377.189	4.62
377.404	11.4
377.619	44.53
377.834	-54.28
378.049	-30.45
378.264	-35.1
378.478	41.43
378.693	-10.49
378.908	32.32
379.123	2.49
379.338	58.09
379.553	31.74
379.767	21.47
379.982	28.45
380.197	38.33
380.412	-4.88
380.626	30.77
380.841	92.77
381.056	38.52
381.271	115.25
381.485	-15.14
381.7	-21.15
381.915	29.03
382.129	-4.88
382.344	26.7
382.559	-8.56
382.773	51.5
382.988	2.1
383.202	18.57
383.417	-14.95
383.632	118.15
383.846	24.57
384.061	22.05
384.275	12.17
384.49	25.54
384.704	35.81
384.919	34.84
385.133	9.27
385.348	49.57
385.562	-7.59
385.777	54.22
385.991	25.54
386.206	6.36
386.42	-15.53
386.634	49.37
386.849	34.26
387.063	29.22
387.277	-5.84
387.492	-1
387.706	-20.38
387.92	-27.16
388.135	62.55
388.349	26.51
388.563	33.87
388.778	26.51
388.992	43.95
389.206	48.21
389.42	100.91
389.635	2.1
389.849	35.23
390.063	57.9
390.277	14.89
390.491	50.34
390.706	9.66
390.92	66.62
391.134	33.29
391.348	63.32
391.562	-42.27
391.776	42.4
391.99	23.8
392.205	35.62
392.419	10.82
392.633	26.7
392.847	63.9
393.061	-21.73
393.275	91.22
393.489	16.24
393.703	60.03
393.917	65.45
394.131	6.17
394.345	41.04
394.559	73.79
394.773	-0.42
394.986	17.79
395.2	24.38
395.414	42.01
395.628	-4.49
395.842	20.89
396.056	25.74
396.27	-47.69
396.484	35.04
396.697	29.42
396.911	77.47
397.125	51.31
397.339	82.31
397.553	39.49
397.766	115.05
397.98	63.32
398.194	75.53
398.408	29.03
398.621	47.82
398.835	54.22
399.049	55.38
399.262	51.7
399.476	32.13
399.69	52.28
399.903	97.42
400.117	26.51
400.331	55.96
400.544	12.76
400.758	138.3
400.971	49.37
401.185	83.86
401.398	13.34
401.612	84.44
401.826	39.88
402.039	49.76
402.253	-0.42
402.466	79.21
402.68	9.66
402.893	41.04
403.106	56.54
403.32	39.1
403.533	33.68
403.747	64.29
403.96	7.72
404.174	71.27
404.387	22.05
404.6	10.82
404.814	67.59
405.027	67.2
405.24	25.35
405.454	48.6
405.667	76.3
405.88	-8.75
406.094	39.69
406.307	71.07
406.52	54.8
406.733	16.24
406.947	7.72
407.16	105.17
407.373	80.37
407.586	17.79
407.799	-16.89
408.012	80.18
408.226	55.38
408.439	85.6
408.652	-9.72
408.865	36.39
409.078	116.22
409.291	49.18
409.504	9.07
409.717	47.44
409.93	45.89
410.143	22.05
410.357	12.56
410.57	3.84
410.783	47.24
410.996	84.64
411.209	36.39
411.421	66.04
411.634	44.72
411.847	-11.27
412.06	37.36
412.273	20.12
412.486	22.05
412.699	134.62
412.912	25.54
413.125	55.19
413.338	39.49
413.55	76.3
413.763	36.78
413.976	30.58
414.189	11.01
414.402	19.54
414.615	99.75
414.827	18.76
415.04	73.98
415.253	63.32
415.466	68.17
415.678	82.89
415.891	58.48
416.104	46.27
416.316	12.76
416.529	36.39
416.742	81.34
416.954	64.49
417.167	62.35
417.38	40.65
417.592	92.97
417.805	4.81
418.017	-13.4
418.23	55.38
418.442	45.5
418.655	37.17
418.868	59.84
419.08	89.67
419.293	101.69
419.505	50.34
419.718	78.44
419.93	69.33
420.142	24.96
420.355	89.48
420.567	110.6
420.78	61.39
420.992	51.89
421.205	120.09
421.417	0.94
421.629	38.91
421.842	16.24
422.054	17.02
422.266	77.66
422.479	91.22
422.691	29.61
422.903	98.39
423.115	64.29
423.328	49.76
423.54	53.64
423.752	35.62
423.964	41.24
424.177	59.84
424.389	55.38
424.601	164.46
424.813	82.7
425.025	94.71
425.238	77.66
425.45	50.34
425.662	31.74
425.874	352.01
426.086	72.82
426.298	76.5
426.51	55.77
426.722	56.74
426.934	67
427.146	81.15
427.358	39.69
427.57	87.35
427.782	38.52
427.994	67.39
428.206	62.16
428.418	22.44
428.63	86.38
428.842	78.24
429.054	74.75
429.266	94.9
429.478	56.93
429.69	48.21
429.902	15.47
430.114	94.32
430.325	68.36
430.537	69.33
430.749	77.47
430.961	-4.1
431.173	63.32
431.384	92.39
431.596	-5.65
431.808	52.09
432.02	116.6
432.231	102.07
432.443	96.07
432.655	74.56
432.867	42.59
433.078	86.96
433.29	165.82
433.502	96.26
433.713	107.3
433.925	73.59
434.136	118.15
434.348	76.89
434.56	30.97
434.771	175.31
434.983	30.97
435.194	51.5
435.406	71.46
435.617	97.23
435.829	136.95
436.04	95.87
436.252	111.95
436.463	159.62
436.675	106.72
436.886	90.25
437.098	119.51
437.309	128.03
437.521	91.22
437.732	89.67
437.943	93.16
438.155	72.24
438.366	33.49
438.578	133.27
438.789	98.2
439	114.08
439.211	97.62
439.423	126.1
439.634	123
439.845	84.83
440.057	130.17
440.268	116.99
440.479	57.51
440.69	79.02
440.902	76.3
441.113	107.88
441.324	91.42
441.535	89.09
441.746	148.96
441.957	97.62
442.168	77.66
442.38	104.2
442.591	138.69
442.802	99.94
443.013	87.15
443.224	142.76
443.435	120.09
443.646	123.19
443.857	96.45
444.068	78.63
444.279	87.15
444.49	167.75
444.701	105.56
444.912	173.76
445.123	130.36
445.334	141.4
445.545	126.68
445.756	119.32
445.967	108.47
446.178	124.74
446.388	184.03
446.599	135.59
446.81	133.46
447.021	112.15
447.232	166.98
447.443	145.86
447.653	78.63
447.864	157.48
448.075	136.75
448.286	150.32
448.496	148.96
448.707	181.32
448.918	127.45
449.129	211.93
449.339	109.43
449.55	145.47
449.761	145.47
449.971	169.11
450.182	146.63
450.393	141.21
450.603	134.82
450.814	146.83
451.024	165.04
451.235	160.39
451.446	202.82
451.656	188.48
451.867	121.64
452.077	155.35
452.288	211.73
452.498	200.88
452.709	129.58
452.919	169.69
453.13	128.62
453.34	189.84
453.55	113.12
453.761	187.71
453.971	174.15
454.182	193.91
454.392	191.2
454.602	222
454.813	179.38
455.023	205.73
455.233	112.15
455.444	180.73
455.654	86.57
455.864	140.63
456.075	166.01
456.285	147.8
456.495	142.18
456.705	172.6
456.916	200.69
457.126	225.68
457.336	150.12
457.546	103.23
457.756	128.81
457.967	207.86
458.177	163.49
458.387	180.35
458.597	142.76
458.807	151.67
459.017	167.75
459.227	162.91
459.437	169.5
459.647	204.37
459.857	185
460.068	144.31
460.278	201.27
460.488	176.86
460.698	247.96
460.908	154.58
461.117	127.84
461.327	141.79
461.537	185.38
461.747	183.83
461.957	190.61
462.167	269.08
462.377	198.75
462.587	160.39
462.797	213.28
463.007	203.4
463.216	221.61
463.426	216
463.636	222.97
463.846	143.73
464.056	140.63
464.265	223.36
464.475	172.79
464.685	200.69
464.895	185.58
465.104	156.13
465.314	215.22
465.524	159.03
465.733	162.91
465.943	233.63
466.153	265.21
466.362	228.4
466.572	189.45
466.782	160.78
466.991	185.38
467.201	273.54
467.41	144.12
467.62	206.89
467.829	209.6
468.039	217.35
468.249	207.08
468.458	187.13
468.668	221.42
468.877	224.71
469.086	261.91
469.296	246.8
469.505	168.72
469.715	261.53
469.924	225.68
470.134	253.58
470.343	263.27
470.552	215.61
470.762	220.06
470.971	179.38
471.18	241.38
471.39	204.76
471.599	206.5
471.808	218.51
472.018	180.93
472.227	240.02
472.436	261.14
472.645	225.1
472.855	199.72
473.064	225.88
473.273	223.36
473.482	252.81
473.691	275.09
473.901	241.96
474.11	208.25
474.319	307.25
474.528	219.87
474.737	302.21
474.946	251.65
475.155	279.74
475.364	289.62
475.573	242.35
475.783	276.83
475.992	291.17
476.201	298.73
476.41	242.15
476.619	230.33
476.828	272.96
477.037	252.61
477.245	263.46
477.454	266.95
477.663	270.05
477.872	252.81
478.081	325.85
478.29	248.35
478.499	349.1
478.708	266.56
478.917	336.7
479.125	305.7
479.334	291.94
479.543	266.37
479.752	283.81
479.961	294.66
480.169	308.8
480.378	254.75
480.587	398.7
480.796	327.59
481.004	296.21
481.213	335.93
481.422	300.08
481.63	289.81
481.839	349.29
482.048	367.12
482.256	314.61
482.465	324.11
482.674	348.71
482.882	321.59
483.091	405.09
483.299	308.41
483.508	363.44
483.716	326.63
483.925	348.13
484.134	358.21
484.342	276.83
484.551	362.28
484.759	336.89
484.967	341.74
485.176	365.57
485.384	362.47
485.593	361.5
485.801	348.33
486.01	357.24
486.218	323.72
486.426	295.43
486.635	310.35
486.843	307.25
487.051	329.73
487.26	311.32
487.468	370.02
487.676	365.37
487.885	320.43
488.093	344.84
488.301	360.92
488.509	358.59
488.717	412.84
488.926	357.82
489.134	369.44
489.342	366.92
489.55	349.29
489.758	360.53
489.967	332.44
490.175	485.11
490.383	353.17
490.591	458.57
490.799	367.51
491.007	404.32
491.215	375.84
491.423	386.88
491.631	382.62
491.839	382.62
492.047	435.9
492.255	392.5
492.463	332.24
492.671	376.61
492.879	413.23
493.087	388.04
493.295	400.83
493.503	407.61
493.711	416.52
493.919	434.93
494.127	437.45
494.334	441.32
494.542	359.95
494.75	400.44
494.958	423.5
495.166	471.74
495.374	438.03
495.581	434.35
495.789	411.29
495.997	474.26
496.205	437.45
496.412	439.19
496.62	424.86
496.828	477.17
497.035	439
497.243	470.77
497.451	427.18
497.658	454.89
497.866	408.97
498.074	486.08
498.281	402.38
498.489	533.16
498.696	458.76
498.904	443.26
499.112	436.48
499.319	519.79
499.527	453.72
499.734	507.39
499.942	403.74
500.149	461.86
500.357	445.59
500.564	431.44
500.771	488.6
500.979	416.91
501.186	411.68
501.394	475.62
501.601	475.62
501.808	477.55
502.016	438.22
502.223	470.77
502.43	450.82
502.638	460.31
502.845	434.16
503.052	544.98
503.26	455.85
503.467	536.45
503.674	482.2
503.881	462.44
504.089	567.26
504.296	500.61
504.503	465.93
504.71	502.16
504.917	451.21
505.125	512.04
505.332	485.11
505.539	501
505.746	528.9
505.953	499.25
506.16	532.58
506.367	558.35
506.574	572.1
506.781	545.75
506.988	480.46
507.195	513.4
507.402	500.8
507.609	558.35
507.816	470.58
508.023	469.61
508.23	502.55
508.437	511.46
508.644	538
508.851	568.23
509.058	541.68
509.265	540.91
509.472	562.03
509.679	635.85
509.885	516.89
510.092	548.47
510.299	507.78
510.506	563.97
510.713	562.8
510.92	538.97
511.126	581.21
511.333	602.13
511.54	595.55
511.746	619.77
511.953	613.37
512.16	631.97
512.367	536.45
512.573	576.37
512.78	571.52
512.987	548.47
513.193	579.08
513.4	499.64
513.606	540.91
513.813	604.27
514.02	571.52
514.226	624.22
514.433	637.4
514.639	568.81
514.846	578.3
515.052	586.44
515.259	580.05
515.465	569.39
515.672	599.62
515.878	667.81
516.085	597.87
516.291	613.57
516.497	602.52
516.704	580.43
516.91	542.46
517.117	527.15
517.323	510.69
517.529	562.61
517.736	555.63
517.942	563.97
518.148	549.24
518.354	578.5
518.561	577.92
518.767	576.95
518.973	607.75
519.179	634.3
519.386	568.23
519.592	585.67
519.798	587.8
520.004	647.47
520.21	637.01
520.417	658.13
520.623	669.75
520.829	685.06
521.035	663.55
521.241	692.81
521.447	698.04
521.653	761.2
521.859	653.28
522.065	683.51
522.271	766.63
522.477	735.24
522.683	741.83
522.889	713.35
523.095	699.78
523.301	677.89
523.507	670.53
523.713	695.33
523.919	656.58
524.125	750.93
524.331	713.35
524.537	793.75
524.742	771.28
524.948	753.84
525.154	760.81
525.36	868.73
525.566	759.46
525.772	815.84
525.977	713.54
526.183	773.41
526.389	826.11
526.595	741.05
526.8	739.31
527.006	692.23
527.212	681.76
527.417	659.29
527.623	699.2
527.829	753.64
528.034	754.23
528.24	732.53
528.446	704.43
528.651	782.51
528.857	789.49
529.062	872.61
529.268	785.61
529.473	813.51
529.679	787.36
529.884	875.12
530.09	831.72
530.295	848.19
530.501	840.25
530.706	845.09
530.912	781.35
531.117	814.48
531.323	795.88
531.528	844.12
531.733	836.18
531.939	812.35
532.144	845.09
532.35	844.9
532.555	851.29
532.76	881.91
532.966	866.02
533.171	878.81
533.376	818.74
533.581	780.77
533.787	835.79
533.992	840.06
534.197	889.27
534.402	849.74
534.607	859.43
534.813	950.1
535.018	834.63
535.223	828.62
535.428	879
535.633	906.9
535.838	891.59
536.043	886.94
536.249	951.65
536.454	884.81
536.659	908.06
536.864	866.21
537.069	875.12
537.274	926.47
537.479	884.42
537.684	909.8
537.889	852.84
538.094	963.67
538.299	870.28
538.504	894.3
538.708	888.11
538.913	921.82
539.118	914.07
539.323	919.88
539.528	869.51
539.733	875.9
539.938	908.84
540.142	924.72
540.347	901.86
540.552	858.46
540.757	887.52
540.962	897.21
541.166	860.79
541.371	862.72
541.576	883.07
541.781	799.18
541.985	903.99
542.19	899.92
542.395	953.98
542.599	960.37
542.804	933.44
543.008	974.13
543.213	900.12
543.418	903.99
543.622	942.74
543.827	881.13
544.031	976.07
544.236	994.08
544.44	967.35
544.645	1043.3
544.849	937.32
545.054	991.95
545.258	1063.64
545.463	982.65
545.667	915.23
545.872	972.58
546.076	954.56
546.281	999.32
546.485	942.94
546.689	995.25
546.894	992.15
547.098	964.25
547.302	903.02
547.507	967.15
547.711	951.07
547.915	992.73
548.119	954.37
548.324	948.94
548.528	1001.25
548.732	946.42
548.936	988.27
549.141	994.08
549.345	941.77
549.549	963.47
549.753	953.4
549.957	1035.35
550.161	1017.14
550.366	951.27
550.57	935.96
550.774	955.53
550.978	976.26
551.182	1002.8
551.386	930.15
551.59	965.22
551.794	941.97
551.998	987.11
552.202	976.07
552.406	911.94
552.61	957.47
552.814	963.86
553.018	1013.65
553.222	943.71
553.426	916.2
553.63	1015.78
553.833	981.88
554.037	940.8
554.241	993.89
554.445	963.47
554.649	984.4
554.853	971.22
555.056	1003.77
555.26	989.63
555.464	971.22
555.668	1003.38
555.871	1017.72
556.075	1040.58
556.279	969.09
556.483	917.55
556.686	944.68
556.89	988.66
557.094	970.06
557.297	930.15
557.501	1006.87
557.704	904.96
557.908	992.34
558.112	889.46
558.315	996.41
558.519	922.4
558.722	971.22
558.926	929.37
559.129	896.44
559.333	870.09
559.536	902.05
559.74	898.76
559.943	879.97
560.147	869.51
560.35	943.71
560.553	897.79
560.757	878.61
560.96	981.3
561.164	885.97
561.367	935.57
561.57	910.77
561.774	937.51
561.977	907.48
562.18	878.81
562.384	982.07
562.587	909.03
562.79	891.2
562.993	940.61
563.197	956.69
563.4	989.24
563.603	974.9
563.806	1023.73
564.009	901.47
564.212	901.67
564.416	879.39
564.619	928.4
564.822	845.48
565.025	948.55
565.228	858.07
565.431	907.09
565.634	816.61
565.837	888.11
566.04	863.69
566.243	863.31
566.446	803.05
566.649	895.27
566.852	814.87
567.055	854.39
567.258	876.87
567.461	930.73
567.664	926.85
567.867	836.96
568.07	860.01
568.273	847.42
568.475	897.21
568.678	847.81
568.881	884.42
569.084	862.34
569.287	761.78
569.489	777.09
569.692	843.35
569.895	850.91
570.098	784.45
570.3	817
570.503	741.63
570.706	773.21
570.909	775.54
571.111	750.74
571.314	756.36
571.516	808.09
571.719	794.91
571.922	780.38
572.124	778.06
572.327	800.53
572.529	734.46
572.732	726.91
572.935	779.41
573.137	844.12
573.34	772.83
573.542	823.78
573.745	818.36
573.947	813.32
574.15	774.96
574.352	753.64
574.554	820.68
574.757	745.89
574.959	777.28
575.162	736.21
575.364	758.29
575.566	844.51
575.769	725.94
575.971	790.07
576.173	652.9
576.376	752.87
576.578	787.55
576.78	819.71
576.982	694.55
577.185	726.13
577.387	710.44
577.589	707.15
577.791	773.99
577.993	773.6
578.196	720.13
578.398	772.83
578.6	802.86
578.802	718.38
579.004	704.82
579.206	697.46
579.408	732.72
579.61	700.17
579.812	799.76
580.014	703.46
580.216	703.85
580.418	687.38
580.62	709.66
580.822	657.35
581.024	709.66
581.226	730.98
581.428	686.41
581.63	756.16
581.832	693.97
582.034	762.75
582.236	741.44
582.438	714.51
582.64	741.05
582.841	792.01
583.043	802.27
583.245	749.19
583.447	731.36
583.649	723.81
583.85	741.24
584.052	793.56
584.254	723.81
584.456	760.81
584.657	701.14
584.859	714.89
585.061	726.52
585.262	723.03
585.464	689.51
585.666	764.11
585.867	692.03
586.069	743.57
586.27	716.25
586.472	704.82
586.674	726.52
586.875	688.55
587.077	697.46
587.278	729.81
587.48	699.2
587.681	811.38
587.883	772.05
588.084	653.48
588.285	683.7
588.487	705.4
588.688	765.66
588.89	666.26
589.091	649.21
589.292	657.93
589.494	658.9
589.695	626.35
589.896	577.14
590.098	578.88
590.299	638.17
590.5	577.14
590.702	612.4
590.903	628.87
591.104	682.73
591.305	675.56
591.507	702.5
591.708	663.94
591.909	660.06
592.11	714.89
592.311	685.06
592.512	637.4
592.714	606.98
592.915	610.27
593.116	646.11
593.317	638.56
593.518	680.41
593.719	637.01
593.92	711.8
594.121	703.27
594.322	688.35
594.523	665.1
594.724	617.05
594.925	645.92
595.126	693.78
595.327	664.13
595.528	673.63
595.729	660.26
595.929	628.1
596.13	686.41
596.331	662.58
596.532	662.97
596.733	706.95
596.934	683.7
597.135	699.98
597.335	668.4
597.536	626.35
597.737	656.19
597.938	611.82
598.138	686.03
598.339	710.63
598.54	703.66
598.74	682.54
598.941	668.98
599.142	710.44
599.342	679.83
599.543	649.41
599.744	636.04
599.944	664.33
600.145	648.83
600.345	691.65
600.546	733.88
600.746	708.31
600.947	772.24
601.147	704.43
601.348	687.96
601.548	643.01
601.749	679.83
601.949	616.86
602.15	613.37
602.35	623.06
602.551	717.99
602.751	628.68
602.951	635.85
603.152	585.08
603.352	699.98
603.552	646.11
603.753	685.83
603.953	689.13
604.153	676.53
604.354	662.2
604.554	645.34
604.754	671.69
604.954	633.71
605.155	662
605.355	659.87
605.555	668.01
605.755	694.16
605.955	646.5
606.155	681.76
606.356	662
606.556	685.25
606.756	660.45
606.956	612.98
607.156	706.18
607.356	592.45
607.556	679.25
607.756	640.88
607.956	689.51
608.156	654.45
608.356	623.45
608.556	667.81
608.756	651.73
608.956	620.35
609.156	655.8
609.356	608.53
609.556	636.62
609.755	634.49
609.955	603.1
610.155	650.57
610.355	632.16
610.555	620.15
610.755	645.92
610.954	560.67
611.154	631.2
611.354	682.54
611.554	609.11
611.753	638.36
611.953	597.48
612.153	655.41
612.352	662
612.552	576.56
612.752	550.98
612.951	614.92
613.151	613.37
613.351	564.16
613.55	619.96
613.75	636.81
613.949	598.65
614.149	624.61
614.348	625.38
614.548	576.95
614.747	570.36
614.947	599.03
615.146	522.31
615.346	625.97
615.545	599.62
615.745	591.09
615.944	657.16
616.144	613.95
616.343	636.81
616.542	595.74
616.742	599.03
616.941	590.9
617.14	548.85
617.34	591.09
617.539	586.25
617.738	602.91
617.938	637.78
618.137	599.23
618.336	531.22
618.535	591.67
618.734	564.74
618.934	606.4
619.133	582.37
619.332	620.35
619.531	577.72
619.73	574.82
619.929	629.45
620.128	615.12
620.328	667.81
620.527	545.56
620.726	563
620.925	600.39
621.124	542.27
621.323	591.48
621.522	537.42
621.721	532.97
621.92	556.8
622.119	570.55
622.318	542.65
622.517	561.64
622.715	564.16
622.914	518.44
623.113	548.66
623.312	487.05
623.511	570.75
623.71	541.49
623.909	520.76
624.107	598.07
624.306	494.22
624.505	533.74
624.704	530.06
624.902	532.97
625.101	603.88
625.3	566.1
625.499	516.69
625.697	523.67
625.896	509.33
626.095	539.36
626.293	496.15
626.492	520.18
626.69	578.5
626.889	515.53
627.088	574.43
627.286	517.08
627.485	507
627.683	514.95
627.882	532.77
628.08	475.62
628.279	525.41
628.477	597.68
628.676	475.81
628.874	551.18
629.073	477.55
629.271	509.14
629.469	495.96
629.668	501
629.866	517.66
630.065	512.62
630.263	525.22
630.461	482.98
630.66	514.95
630.858	534.32
631.056	560.28
631.254	559.51
631.453	480.07
631.651	538
631.849	513.01
632.047	544.98
632.245	523.28
632.444	509.52
632.642	530.45
632.84	548.08
633.038	502.35
633.236	496.54
633.434	464.96
633.632	469.61
633.83	469.8
634.028	529.48
634.227	503.71
634.425	562.22
634.623	505.07
634.821	506.62
635.019	507.59
635.216	492.28
635.414	550.02
635.612	504.87
635.81	487.44
636.008	581.79
636.206	489.76
636.404	524.83
636.602	459.92
636.8	499.45
636.997	525.6
637.195	544.01
637.393	499.25
637.591	594.58
637.789	520.18
637.986	484.14
638.184	524.64
638.382	544.2
638.58	537.04
638.777	565.9
638.975	507.59
639.173	491.5
639.37	512.24
639.568	529.67
639.765	550.98
639.963	487.44
640.161	548.47
640.358	523.86
640.556	490.92
640.753	465.93
640.951	459.73
641.148	517.66
641.346	461.86
641.543	506.42
641.741	500.03
641.938	478.91
642.136	487.63
642.333	452.95
642.531	529.48
642.728	547.11
642.925	513.98
643.123	476.39
643.32	521.34
643.517	464.77
643.715	496.15
643.912	494.8
644.109	496.93
644.306	493.64
644.504	466.32
644.701	467.29
644.898	534.71
645.095	464.96
645.293	462.05
645.49	474.65
645.687	497.7
645.884	517.47
646.081	434.16
646.278	458.37
646.475	451.98
646.672	445.78
646.87	479.1
647.067	472.52
647.264	477.55
647.461	425.05
647.658	420.98
647.855	476.59
648.052	444.81
648.249	354.72
648.446	434.35
648.642	446.56
648.839	446.94
649.036	410.91
649.233	390.95
649.43	404.32
649.627	383.01
649.824	456.82
650.021	410.13
650.217	410.71
650.414	421.37
650.611	456.24
650.808	439
651.004	444.42
651.201	474.84
651.398	469.22
651.595	446.75
651.791	435.32
651.988	454.89
652.185	423.31
652.381	448.3
652.578	403.35
652.775	415.75
652.971	413.23
653.168	437.06
653.364	432.61
653.561	370.61
653.757	440.55
653.954	430.47
654.15	402.19
654.347	504.49
654.543	423.31
654.74	377.97
654.936	417.69
655.133	428.54
655.329	442.68
655.525	401.8
655.722	451.01
655.918	402.19
656.115	432.41
656.311	377.39
656.507	331.47
656.704	330.69
656.9	351.04
657.096	373.71
657.292	334.57
657.489	400.25
657.685	375.26
657.881	382.04
658.077	370.8
658.273	376.81
658.47	457.4
658.666	377.77
658.862	418.66
659.058	360.53
659.254	444.42
659.45	376.42
659.646	401.8
659.842	405.67
660.038	425.82
660.234	361.69
660.43	398.31
660.626	473.1
660.822	440.74
661.018	407.81
661.214	388.62
661.41	371.19
661.606	445.2
661.802	426.99
661.998	389.4
662.194	379.91
662.39	404.51
662.586	407.22
662.781	434.93
662.977	426.99
663.173	418.07
663.369	386.69
663.564	418.07
663.76	471.16
663.956	386.88
664.152	427.76
664.347	355.11
664.543	411.68
664.739	368.86
664.934	335.15
665.13	351.04
665.326	417.49
665.521	395.21
665.717	359.37
665.912	359.76
666.108	287.49
666.304	382.04
666.499	372.16
666.695	314.61
666.89	368.47
667.086	433.96
667.281	388.62
667.477	449.46
667.672	377.97
667.867	388.62
668.063	386.69
668.258	344.26
668.454	371.57
668.649	448.49
668.844	387.07
669.04	420.4
669.235	379.13
669.43	331.08
669.626	313.64
669.821	359.95
670.016	363.24
670.211	376.22
670.407	356.08
670.602	352.78
670.797	351.81
670.992	396.37
671.187	368.47
671.382	434.16
671.578	385.14
671.773	392.11
671.968	323.72
672.163	405.29
672.358	409.16
672.553	348.33
672.748	365.76
672.943	448.49
673.138	364.79
673.333	420.4
673.528	342.9
673.723	378.36
673.918	394.63
674.113	333.41
674.308	458.76
674.503	404.32
674.698	372.74
674.892	367.31
675.087	396.37
675.282	376.61
675.477	349.68
675.672	403.93
675.867	368.47
676.061	321.59
676.256	328.18
676.451	335.15
676.646	364.6
676.84	302.79
677.035	302.6
677.23	299.69
677.424	396.18
677.619	426.99
677.814	411.29
678.008	381.65
678.203	305.51
678.397	314.81
678.592	364.02
678.787	409.55
678.981	348.52
679.176	363.05
679.37	365.18
679.565	339.03
679.759	349.29
679.954	389.21
680.148	434.74
680.342	409.36
680.537	381.07
680.731	335.93
680.926	362.66
681.12	378.36
681.314	339.03
681.509	347.74
681.703	360.34
681.897	382.42
682.092	321.59
682.286	330.69
682.48	397.73
682.674	366.15
682.869	340.77
683.063	349.68
683.257	428.92
683.451	348.13
683.645	358.21
683.839	355.49
684.034	343.09
684.228	387.46
684.422	315
684.616	305.7
684.81	353.75
685.004	356.08
685.198	333.41
685.392	379.71
685.586	315
685.78	338.44
685.974	382.23
686.168	370.8
686.362	399.28
686.556	316.74
686.75	325.66
686.944	339.41
687.138	370.02
687.331	266.56
687.525	318.1
687.719	251.06
687.913	309.58
688.107	291.56
688.301	275.09
688.494	319.46
688.688	299.69
688.882	269.08
689.076	241.76
689.269	275.09
689.463	374.48
689.657	272.38
689.85	285.94
690.044	328.18
690.238	291.94
690.431	302.99
690.625	280.51
690.818	338.25
691.012	349.68
691.205	356.27
691.399	296.98
691.593	327.98
691.786	379.32
691.98	375.45
692.173	397.15
692.366	357.04
692.56	382.81
692.753	398.12
692.947	340.96
693.14	427.18
693.333	437.64
693.527	347.74
693.72	376.22
693.914	368.09
694.107	387.46
694.3	394.63
694.493	391.14
694.687	431.25
694.88	370.41
695.073	448.88
695.266	439.97
695.46	397.73
695.653	454.3
695.846	459.54
696.039	360.14
696.232	406.64
696.425	454.3
696.618	444.23
696.812	431.25
697.005	523.28
697.198	559.7
697.391	471.74
697.584	525.41
697.777	559.7
697.97	513.2
698.163	509.72
698.356	498.87
698.549	590.32
698.742	542.27
698.935	511.46
699.127	543.82
699.32	519.6
699.513	509.72
699.706	543.43
699.899	530.06
700.092	508.17
700.285	582.76
700.477	497.12
700.67	567.07
700.863	609.11
701.056	641.85
701.248	621.51
701.441	594.38
701.634	610.08
701.826	665.49
702.019	571.91
702.212	636.23
702.404	552.34
702.597	598.26
702.79	602.91
702.982	642.43
703.175	667.04
703.367	669.17
703.56	679.05
703.752	743.38
703.945	698.62
704.137	705.98
704.33	721.87
704.522	730.59
704.715	732.33
704.907	757.13
705.1	745.89
705.292	760.81
705.484	745.31
705.677	770.69
705.869	771.47
706.061	780.19
706.254	813.32
706.446	774.76
706.638	777.28
706.831	847.03
707.023	822.62
707.215	864.66
707.407	853.81
707.599	821.07
707.792	877.84
707.984	842.77
708.176	900.5
708.368	867.76
708.56	883.26
708.752	866.21
708.944	893.53
709.136	912.52
709.329	913.1
709.521	1032.06
709.713	970.06
709.905	962.89
710.097	1009.2
710.289	931.12
710.481	960.18
710.672	996.41
710.864	1006.87
711.056	1040.78
711.248	1050.66
711.44	1040.97
711.632	1040.58
711.824	1031.87
712.016	1091.93
712.207	1104.91
712.399	1065.58
712.591	1129.13
712.783	1102.97
712.975	1168.84
713.166	1087.86
713.358	1121.18
713.55	1187.64
713.741	1144.05
713.933	1132.03
714.125	1147.53
714.316	1134.94
714.508	1212.24
714.7	1234.91
714.891	1193.45
715.083	1232.01
715.274	1212.83
715.466	1174.46
715.657	1280.25
715.849	1195.19
716.04	1209.53
716.232	1148.7
716.423	1198.88
716.615	1133
716.806	1172.53
716.998	1128.74
717.189	1128.93
717.381	1043.3
717.572	1029.15
717.763	1061.9
717.955	1089.99
718.146	1052.4
718.337	995.63
718.528	970.84
718.72	940.8
718.911	997.57
719.102	979.94
719.293	1011.33
719.485	1019.85
719.676	975.68
719.867	954.95
720.058	930.15
720.249	996.8
720.44	960.76
720.632	1005.32
720.823	1019.27
721.014	1117.7
721.205	1115.95
721.396	1151.41
721.587	1214.18
721.778	1210.5
721.969	1244.21
722.16	1291.68
722.351	1228.33
722.542	1376.35
722.733	1376.15
722.924	1291.1
723.115	1375.19
723.305	1331.98
723.496	1376.74
723.687	1261.46
723.878	1314.74
724.069	1285.09
724.26	1324.23
724.45	1238.98
724.641	1233.36
724.832	1279.86
725.023	1266.69
725.213	1239.56
725.404	1262.62
725.595	1263.2
725.785	1243.44
725.976	1290.32
726.167	1297.11
726.357	1298.85
726.548	1388.75
726.739	1331.4
726.929	1352.32
727.12	1354.26
727.31	1382.55
727.501	1353.1
727.691	1362.4
727.882	1369.18
728.072	1418
728.263	1371.5
728.453	1393.4
728.644	1411.42
728.834	1404.44
729.024	1387.39
729.215	1397.47
729.405	1412
729.596	1498.99
729.786	1494.53
729.976	1480.97
730.167	1492.79
730.357	1458.3
730.547	1449.2
730.737	1494.53
730.928	1566.41
731.118	1588.31
731.308	1520.5
731.498	1496.08
731.688	1572.03
731.879	1572.81
732.069	1620.66
732.259	1594.31
732.449	1638.49
732.639	1729.94
732.829	1694.48
733.019	1723.54
733.209	1746.6
733.399	1764.23
733.589	1821
733.779	1823.13
733.969	1780.31
734.159	1863.43
734.349	1890.55
734.539	1918.65
734.729	1910.7
734.919	1989.17
735.109	1950.61
735.299	1944.03
735.488	1971.15
735.678	1957.4
735.868	1988.98
736.058	1973.09
736.248	1940.73
736.437	1903.92
736.627	1938.41
736.817	1990.91
737.007	1976.38
737.196	2013.97
737.386	1979.68
737.576	1938.99
737.765	2050.78
737.955	1989.17
738.144	2104.26
738.334	2042.26
738.524	1972.31
738.713	2057.18
738.903	2035.09
739.092	2066.67
739.282	2067.83
739.471	2075.78
739.661	2031.02
739.85	2067.44
740.04	2082.36
740.229	2128.09
740.419	2143.97
740.608	2143.39
740.797	2124.79
740.987	2195.71
741.176	2178.46
741.365	2126.15
741.555	2126.54
741.744	2233.68
741.933	2164.12
742.123	2191.06
742.312	2215.08
742.501	2212.56
742.69	2207.72
742.88	2156.18
743.069	2268.55
743.258	2153.08
743.447	2249.57
743.636	2245.5
743.825	2209.85
744.014	2242.01
744.204	2272.24
744.393	2226.7
744.582	2277.47
744.771	2298.39
744.96	2225.15
745.149	2299.94
745.338	2230.97
745.527	2313.5
745.716	2247.63
745.905	2220.5
746.094	2298.58
746.283	2288.7
746.471	2292.38
746.66	2370.66
746.849	2320.67
747.038	2371.43
747.227	2265.07
747.416	2323.38
747.604	2256.35
747.793	2322.03
747.982	2333.27
748.171	2316.99
748.359	2345.08
748.548	2294.52
748.737	2303.43
748.926	2290.64
749.114	2224.96
749.303	2320.67
749.491	2326.48
749.68	2215.27
749.869	2329.58
750.057	2273.4
750.246	2268.94
750.434	2281.15
750.623	2268.17
750.811	2268.36
751	2306.92
751.188	2274.17
751.377	2327.84
751.565	2257.9
751.754	2238.14
751.942	2262.55
752.131	2304.59
752.319	2251.89
752.507	2192.22
752.696	2266.42
752.884	2331.13
753.072	2266.23
753.261	2258.87
753.449	2266.62
753.637	2256.15
753.825	2324.93
754.014	2248.21
754.202	2236.59
754.39	2263.52
754.578	2304.01
754.766	2233.29
754.955	2208.1
755.143	2271.27
755.331	2223.6
755.519	2222.83
755.707	2229.42
755.895	2183.89
756.083	2232.9
756.271	2187.57
756.459	2236
756.647	2276.3
756.835	2189.51
757.023	2196.87
757.211	2215.66
757.399	2191.44
757.587	2237.55
757.775	2157.54
757.963	2214.69
758.151	2193.38
758.339	2184.86
758.526	2157.34
758.714	2173.04
758.902	2099.99
759.09	2052.53
759.278	1912.06
759.465	1790.97
759.653	1576.3
759.841	1483.68
760.028	1239.37
760.216	1075.26
760.404	1038.07
760.591	866.21
760.779	724.97
760.967	616.86
761.154	550.21
761.342	549.63
761.529	534.71
761.717	565.32
761.905	522.31
762.092	590.12
762.28	523.09
762.467	556.99
762.655	485.89
762.842	523.28
763.029	557.57
763.217	532.19
763.404	575.98
763.592	593.03
763.779	514.56
763.966	556.6
764.154	613.18
764.341	628.1
764.528	602.52
764.716	673.82
764.903	712.18
765.09	743.57
765.277	770.11
765.465	894.11
765.652	902.83
765.839	969.48
766.026	1067.32
766.213	1065.19
766.4	1143.46
766.588	1309.51
766.775	1289.16
766.962	1351.74
767.149	1388.55
767.336	1515.26
767.523	1453.85
767.71	1523.4
767.897	1634.61
768.084	1694.09
768.271	1669.29
768.458	1716.18
768.645	1768.3
768.832	1743.5
769.019	1777.02
769.206	1774.69
769.392	1854.71
769.579	1975.61
769.766	1895.98
769.953	1867.5
770.14	1935.12
770.327	1891.72
770.513	1938.6
770.7	2031.6
770.887	1923.49
771.073	1984.13
771.26	1967.66
771.447	1949.26
771.634	1879.12
771.82	2006.8
772.007	1922.33
772.193	1982.78
772.38	1997.31
772.567	1979.48
772.753	1997.7
772.94	1992.66
773.126	1989.75
773.313	2005.45
773.499	2004.86
773.686	1982.97
773.872	1934.73
774.059	2008.35
774.245	1891.91
774.432	1946.35
774.618	1896.56
774.804	1970.38
774.991	1895.59
775.177	2006.22
775.363	1954.88
775.55	1998.08
775.736	1902.95
775.922	1935.89
776.109	1923.3
776.295	1942.67
776.481	1910.9
776.667	1987.62
776.853	1937.25
777.04	1904.89
777.226	1910.51
777.412	1980.84
777.598	1901.98
777.784	1910.51
777.97	1898.11
778.156	1909.93
778.342	1897.92
778.528	1896.37
778.715	1818.67
778.901	1864.01
779.087	1913.42
779.272	1873.12
779.458	1883.58
779.644	1917.87
779.83	1832.62
780.016	1970.38
780.202	1906.44
780.388	1864.78
780.574	1786.51
780.76	1848.7
780.946	1899.47
781.131	1841.54
781.317	1833.59
781.503	1824.1
781.689	1819.45
781.874	1956.04
782.06	1843.09
782.246	1808.99
782.432	1831.07
782.617	1863.62
782.803	1921.36
782.989	1775.27
783.174	1801.82
783.36	1748.15
783.545	1838.44
783.731	1771.79
783.916	1733.81
784.102	1833.59
784.288	1747.37
784.473	1766.17
784.659	1717.92
784.844	1816.15
785.029	1741.56
785.215	1741.37
785.4	1717.73
785.586	1822.55
785.771	1698.36
785.956	1774.69
786.142	1738.66
786.327	1730.13
786.512	1754.35
786.698	1727.03
786.883	1670.07
787.068	1706.88
787.254	1723.35
787.439	1680.53
787.624	1709.98
787.809	1662.9
787.994	1696.81
788.18	1746.6
788.365	1625.89
788.55	1681.89
788.735	1687.7
788.92	1659.03
789.105	1624.54
789.29	1691.57
789.475	1628.99
789.66	1643.33
789.845	1645.66
790.03	1605.74
790.215	1666.78
790.4	1697.19
790.585	1675.69
790.77	1644.88
790.955	1567.38
791.14	1604
791.325	1681.5
791.51	1522.05
791.695	1601.87
791.879	1618.92
792.064	1560.8
792.249	1667.16
792.434	1569.13
792.618	1602.06
792.803	1620.47
792.988	1604.39
793.173	1624.73
793.357	1635.19
793.542	1542.39
793.727	1614.46
793.911	1609.81
794.096	1584.43
794.281	1653.99
794.465	1702.62
794.65	1587.34
794.834	1621.44
795.019	1613.88
795.203	1633.26
795.388	1667.55
795.572	1651.86
795.757	1628.41
795.941	1633.45
796.126	1622.02
796.31	1571.84
796.494	1651.66
796.679	1592.76
796.863	1597.8
797.048	1658.06
797.232	1619.11
797.416	1622.41
797.601	1628.99
797.785	1657.48
797.969	1617.56
798.153	1587.34
798.338	1646.04
798.522	1662.13
798.706	1666.39
798.89	1672.78
799.074	1762.68
799.258	1694.29
799.443	1656.12
799.627	1639.07
799.811	1656.7
799.995	1638.68
800.179	1607.29
800.363	1650.31
800.547	1659.61
800.731	1668.71
800.915	1622.79
801.099	1647.79
801.283	1651.47
801.467	1638.49
801.651	1630.16
801.835	1678.98
802.019	1676.85
802.202	1679.17
802.386	1583.85
802.57	1611.94
802.754	1640.62
802.938	1572.81
803.121	1628.8
803.305	1689.83
803.489	1630.54
803.673	1622.02
803.856	1622.41
804.04	1643.33
804.224	1653.02
804.407	1594.31
804.591	1617.37
804.775	1651.66
804.958	1674.72
805.142	1763.65
805.326	1635.78
805.509	1641.59
805.693	1674.53
805.876	1663.87
806.06	1645.66
806.243	1660.58
806.427	1731.49
806.61	1719.09
806.794	1600.13
806.977	1676.85
807.16	1655.54
807.344	1641.01
807.527	1639.07
807.71	1628.8
807.894	1658.83
808.077	1680.92
808.26	1629.77
808.444	1640.04
808.627	1663.87
808.81	1643.14
808.993	1582.3
809.177	1566.41
809.36	1591.41
809.543	1598.58
809.726	1526.31
809.909	1555.18
810.092	1542.78
810.276	1494.92
810.459	1564.86
810.642	1536.19
810.825	1530.18
811.008	1514.68
811.191	1426.72
811.374	1462.18
811.557	1481.94
811.74	1552.27
811.923	1432.15
812.106	1439.9
812.289	1366.08
812.472	1424.2
812.654	1430.21
812.837	1418.39
813.02	1361.24
813.203	1350.97
813.386	1268.82
813.569	1266.3
813.751	1261.46
813.934	1305.24
814.117	1256.61
814.3	1214.76
814.482	1200.43
814.665	1177.18
814.848	1135.33
815.03	1096.77
815.213	1142.5
815.396	1116.53
815.578	1112.27
815.761	1068.68
815.943	1134.75
816.126	1060.35
816.309	1021.98
816.491	1005.32
816.674	1002.03
816.856	1014.04
817.039	1001.45
817.221	1068.1
817.403	1005.9
817.586	987.3
817.768	1049.69
817.951	955.14
818.133	956.3
818.315	978.97
818.498	1037.48
818.68	1062.48
818.862	1057.44
819.045	1078.95
819.227	1074.3
819.409	1018.88
819.591	1046.98
819.774	1025.86
819.956	1040.39
820.138	1088.44
820.32	1096
820.502	1076.04
820.684	1156.06
820.866	1155.28
821.048	1188.8
821.231	1179.69
821.413	1171.36
821.595	1168.46
821.777	1132.81
821.959	1138.81
822.141	1228.71
822.323	1087.08
822.505	1068.87
822.686	1064.03
822.868	1018.88
823.05	940.8
823.232	921.62
823.414	895.66
823.596	961.92
823.778	911.35
823.96	918.91
824.141	930.34
824.323	925.69
824.505	996.6
824.687	1021.21
824.868	1020.24
825.05	1117.89
825.232	1154.31
825.413	1211.08
825.595	1136.3
825.777	1061.7
825.958	1149.28
826.14	1129.71
826.321	1165.94
826.503	1120.41
826.685	1124.09
826.866	1153.93
827.048	1140.56
827.229	1114.98
827.411	1056.28
827.592	1024.7
827.773	1037.87
827.955	1017.14
828.136	1047.56
828.318	999.7
828.499	1059.18
828.68	980.52
828.862	1028.38
829.043	1030.32
829.224	1028.96
829.406	996.02
829.587	1019.66
829.768	974.9
829.949	1008.03
830.131	991.18
830.312	1065.19
830.493	1015.78
830.674	1018.5
830.855	992.73
831.036	986.53
831.218	1050.66
831.399	1076.04
831.58	1012.1
831.761	1034.19
831.942	1056.28
832.123	1012.49
832.304	970.84
832.485	999.9
832.666	1015.59
832.847	1046.98
833.028	1025.08
833.209	1016.37
833.389	1003.77
833.57	953.4
833.751	962.7
833.932	1052.4
834.113	1025.47
834.294	1008.62
834.475	1023.34
834.655	1062.67
834.836	1062.48
835.017	1038.65
835.198	969.09
835.378	1010.94
835.559	1052.4
835.74	1016.56
835.92	1012.49
836.101	1006.68
836.281	1075.07
836.462	1028.57
836.643	1083.4
836.823	1066.55
837.004	1116.73
837.184	1113.24
837.365	1080.88
837.545	1109.36
837.726	1072.36
837.906	1095.22
838.087	1085.73
838.267	1067.32
838.448	1009
838.628	1063.25
838.808	1069.06
838.989	1099.1
839.169	1026.25
839.349	1056.67
839.53	1095.22
839.71	1078.56
839.89	1046.98
840.07	1109.75
840.251	1022.57
840.431	1077.4
840.611	1068.68
840.791	1041.17
840.971	1112.66
841.151	1015.59
841.332	1027.6
841.512	1059.77
841.692	1002.22
841.872	1041.55
842.052	1071
842.232	1081.08
842.412	1005.32
842.592	1026.83
842.772	1037.1
842.952	1068.87
843.132	1028.57
843.312	1024.89
843.492	1014.82
843.672	1078.75
843.851	983.43
844.031	1018.5
844.211	999.51
844.391	1002.61
844.571	1054.73
844.751	1040.39
844.93	1055.12
845.11	988.08
845.29	1026.83
845.47	1038.65
845.649	1048.72
845.829	1038.45
846.009	1002.42
846.188	1049.88
846.368	1047.56
846.547	1019.08
846.727	1065
846.907	991.18
847.086	1040.2
847.266	1050.27
847.445	1001.45
847.625	990.98
847.804	969.09
847.984	1014.62
848.163	998.35
848.343	970.84
848.522	1015.01
848.701	1018.5
848.881	958.05
849.06	994.28
849.239	1024.12
849.419	990.21
849.598	970.06
849.777	954.75
849.957	936.35
850.136	920.27
850.315	897.99
850.494	897.79
850.674	902.83
850.853	968.9
851.032	953.01
851.211	972.58
851.39	952.62
851.569	873.38
851.748	913.87
851.927	971.03
852.107	923.37
852.286	912.32
852.465	881.91
852.644	940.42
852.823	916.39
853.002	914.65
853.181	939.06
853.359	941.97
853.538	880.94
853.717	950.88
853.896	872.22
854.075	815.84
854.254	804.99
854.433	780.19
854.611	822.62
854.79	765.66
854.969	814.67
855.148	846.26
855.327	804.41
855.505	813.12
855.684	832.11
855.863	836.37
856.041	846.26
856.22	855.94
856.399	802.86
856.577	893.14
856.756	879.77
856.934	996.8
857.113	985.17
857.291	879.58
857.47	870.28
857.648	893.34
857.827	908.25
858.005	920.27
858.184	846.06
858.362	956.5
858.541	900.31
858.719	877.45
858.898	872.61
859.076	852.46
859.254	941.19
859.433	846.64
859.611	851.87
859.789	841.8
859.967	932.47
860.146	949.14
860.324	825.52
860.502	862.53
860.68	815.84
860.859	831.72
861.037	862.34
861.215	868.92
861.393	871.64
861.571	823.01
861.749	803.63
861.927	891.98
862.105	840.44
862.283	841.8
862.461	795.3
862.639	805.18
862.817	848
862.995	817
863.173	818.55
863.351	855.56
863.529	860.01
863.707	858.07
863.885	850.32
864.063	768.37
864.241	809.44
864.418	856.52
864.596	836.57
864.774	757.91
864.952	785.61
865.129	845.48
865.307	800.14
865.485	736.79
865.663	834.05
865.84	768.95
866.018	791.62
866.196	663.16
866.373	715.09
866.551	675.76
866.728	642.43
866.906	709.08
867.084	694.94
867.261	742.21
867.439	731.94
867.616	779.61
867.794	730.98
867.971	754.61
868.149	760.43
868.326	804.79
868.503	778.06
868.681	768.37
868.858	747.83
869.035	695.13
869.213	780.77
869.39	730.39
869.567	806.54
869.745	766.24
869.922	762.36
870.099	773.79
870.276	749.77
870.454	751.71
870.631	751.51
870.808	756.55
870.985	794.91
871.162	803.82
871.339	755.97
871.517	713.54
871.694	713.73
871.871	736.4
872.048	760.04
872.225	705.79
872.402	750.74
872.579	693.39
872.756	758.68
872.933	706.76
873.11	712.96
873.287	725.74
873.463	719.74
873.64	715.48
873.817	769.73
873.994	712.76
874.171	687.19
874.348	712.76
874.524	667.43
874.701	696.1
874.878	651.93
875.055	721.09
875.231	720.9
875.408	702.88
875.585	687.96
875.762	706.56
875.938	696.68
876.115	661.23
876.291	693.97
876.468	687
876.645	622.09
876.821	667.81
876.998	669.36
877.174	669.56
877.351	683.7
877.527	658.51
877.704	654.64
877.88	665.3
878.057	677.31
878.233	740.47
878.409	649.02
878.586	679.63
878.762	640.88
878.938	662
879.115	589.73
879.291	660.84
879.467	612.4
879.644	622.67
879.82	683.12
879.996	645.92
880.172	599.23
880.349	612.21
880.525	678.08
880.701	608.14
880.877	602.33
881.053	615.12
881.229	627.32
881.405	656.77
881.581	603.49
881.757	639.91
881.933	640.69
882.109	662
882.285	637.78
882.461	601.36
882.637	606.4
882.813	598.84
882.989	602.13
883.165	654.25
883.341	603.68
883.517	649.8
883.693	642.24
883.869	647.66
884.044	586.05
884.22	624.61
884.396	686.61
884.572	645.15
884.747	644.18
884.923	645.34
885.099	655.41
885.275	667.43
885.45	622.67
885.626	601.17
885.801	602.33
885.977	628.87
886.153	557.38
886.328	646.89
886.504	594.97
886.679	651.15
886.855	603.3
887.03	654.64
887.206	625.19
887.381	640.5
887.557	649.02
887.732	609.69
887.908	620.93
888.083	656.19
888.258	632.55
888.434	630.61
888.609	601.17
888.784	661.61
888.96	604.65
889.135	604.07
889.31	588.77
889.485	626.55
889.661	606.78
889.836	625.77
890.011	635.85
890.186	595.16
890.361	576.37
890.537	658.32
890.712	618.22
890.887	629.26
891.062	613.37
891.237	657.93
891.412	595.35
891.587	631.2
891.762	646.11
891.937	663.94
892.112	576.17
892.287	602.91
892.462	567.26
892.637	539.36
892.812	549.05
892.987	583.73
893.161	584.31
893.336	557.38
893.511	566.48
893.686	535.68
893.861	562.22
894.035	560.67
894.21	534.52
894.385	539.36
894.56	577.14
894.734	528.32
894.909	516.5
895.084	504.68
895.258	508.55
895.433	524.25
895.608	498.48
895.782	471.16
895.957	482.79
896.131	486.47
896.306	420.21
896.48	439.77
896.655	449.85
896.829	398.51
897.004	401.8
897.178	417.11
897.353	410.52
897.527	456.63
897.701	425.24
897.876	361.89
898.05	447.91
898.224	436.29
898.399	463.6
898.573	418.85
898.747	343.29
898.921	424.27
899.096	342.51
899.27	345.61
899.444	322.36
899.618	341.16
899.792	344.06
899.967	351.04
900.141	379.13
900.315	308.8
900.489	364.79
900.663	373.12
900.837	368.86
901.011	320.62
901.185	442.87
901.359	364.79
901.533	369.25
901.707	386.49
901.881	374.09
902.055	318.68
902.229	379.91
902.403	414.2
902.576	361.11
902.75	384.94
902.924	468.84
903.098	426.99
903.272	412.65
903.446	480.27
903.619	435.9
903.793	447.14
903.967	387.46
904.14	461.09
904.314	458.57
904.488	452.75
904.661	465.74
904.835	438.61
905.009	479.69
905.182	537.62
905.356	461.28
905.529	473.29
905.703	443.65
905.876	448.11
906.05	406.06
906.223	431.44
906.397	354.72
906.57	366.54
906.744	367.31
906.917	352.2
907.09	362.86
907.264	362.08
907.437	346.78
907.61	340.19
907.784	332.24
907.957	350.26
908.13	321.39
908.304	372.54
908.477	312.29
908.65	356.66
908.823	290.39
908.996	388.43
909.17	319.84
909.343	336.51
909.516	351.62
909.689	324.3
909.862	295.43
910.035	321.39
910.208	275.86
910.381	295.24
910.554	410.91
910.727	306.67
910.9	302.02
911.073	298.92
911.246	359.18
911.419	366.34
911.592	347.55
911.765	308.03
911.938	318.29
912.11	332.44
912.283	300.28
912.456	344.84
912.629	315
912.802	307.44
912.974	266.18
913.147	268.89
913.32	212.7
913.493	263.27
913.665	281.68
913.838	303.38
914.01	281.29
914.183	260.17
914.356	238.66
914.528	324.88
914.701	328.76
914.873	307.64
915.046	288.46
915.218	280.51
915.391	195.46
915.563	239.44
915.736	269.66
915.908	292.14
916.081	266.56
916.253	252.03
916.425	288.26
916.598	259.4
916.77	278.58
916.942	265.01
917.115	208.25
917.287	269.47
917.459	283.61
917.632	268.5
917.804	197.01
917.976	239.63
918.148	237.89
918.32	239.63
918.493	290.59
918.665	320.43
918.837	273.15
919.009	322.56
919.181	322.94
919.353	291.56
919.525	286.33
919.697	288.07
919.869	279.74
920.041	314.03
920.213	371.57
920.385	308.61
920.557	264.82
920.729	311.13
920.901	313.84
921.073	274.9
921.244	265.79
921.416	315.97
921.588	293.3
921.76	255.13
921.932	347.94
922.103	285.16
922.275	276.06
922.447	301.44
922.619	237.31
922.79	283.42
922.962	271.8
923.134	306.67
923.305	249.71
923.477	225.49
923.648	192.36
923.82	282.26
923.991	229.17
924.163	183.83
924.335	260.75
924.506	223.16
924.677	289.62
924.849	220.45
925.02	237.11
925.192	264.43
925.363	264.82
925.535	262.88
925.706	208.63
925.877	300.28
926.049	228.2
926.22	256.49
926.391	241.57
926.562	265.01
926.734	212.51
926.905	270.44
927.076	201.08
927.247	225.3
927.419	195.65
927.59	196.43
927.761	202.82
927.932	185.19
928.103	222.58
928.274	180.35
928.445	173.95
928.616	168.92
928.787	172.4
928.958	212.7
929.129	178.8
929.3	159.81
929.471	129.39
929.642	102.07
929.813	92.77
929.984	189.65
930.155	94.32
930.326	141.02
930.496	95.49
930.667	62.16
930.838	119.32
931.009	73.2
931.18	128.62
931.35	87.15
931.521	116.6
931.692	34.84
931.863	33.87
932.033	88.7
932.204	92.97
932.374	94.71
932.545	47.82
932.716	112.34
932.886	92.39
933.057	16.44
933.227	42.59
933.398	126.29
933.568	30.97
933.739	-13.79
933.909	21.28
934.08	65.26
934.25	0.36
934.421	16.63
934.591	38.72
934.761	28.45
934.932	-30.84
935.102	25.54
935.272	16.63
935.443	18.95
935.613	11.01
935.783	46.47
935.953	12.37
936.123	135.98
936.294	-21.54
936.464	15.47
936.634	16.63
936.804	13.92
936.974	-15.53
937.144	47.44
937.314	44.34
937.484	34.65
937.655	9.27
937.825	82.7
937.995	10.62
938.165	37.94
938.334	21.09
938.504	23.02
938.674	7.14
938.844	25.15
939.014	53.64
939.184	47.05
939.354	100.14
939.524	67.78
939.694	28.64
939.863	60.61
940.033	87.35
940.203	109.63
940.373	80.18
940.542	98.97
940.712	43.37
940.882	85.8
941.051	96.26
941.221	55.19
941.391	114.47
941.56	33.68
941.73	42.98
941.899	132.88
942.069	42.98
942.238	58.09
942.408	5.59
942.577	87.35
942.747	39.1
942.916	-26.38
943.086	27.67
943.255	91.61
943.425	72.24
943.594	30.97
943.763	-41.69
943.933	11.59
944.102	-11.46
944.271	31.35
944.441	51.12
944.61	7.52
944.779	40.65
944.948	133.07
945.117	-10.88
945.287	24.57
945.456	-24.64
945.625	11.4
945.794	32.9
945.963	25.54
946.132	50.54
946.301	2.87
946.47	75.14
946.639	-34.71
946.808	29.42
946.977	30.39
947.146	100.91
947.315	12.95
947.484	56.93
947.653	46.66
947.822	14.11
947.991	9.46
948.16	86.77
948.329	81.34
948.498	37.17
948.666	43.17
948.835	50.15
949.004	0.94
949.173	-11.27
949.341	45.11
949.51	32.71
949.679	96.65
949.847	75.14
950.016	143.15
950.185	104.2
950.353	35.62
950.522	27.67
950.69	89.29
950.859	13.14
951.028	77.27
951.196	51.7
951.365	3.84
951.533	24.38
951.701	75.34
951.87	60.22
952.038	-4.1
952.207	57.9
952.375	92
952.543	32.71
952.712	29.61
952.88	0.55
953.048	106.53
953.217	48.02
953.385	31.16
953.553	71.46
953.721	2.68
953.89	44.34
954.058	-11.27
954.226	3.84
954.394	41.62
954.562	0.36
954.73	43.75
954.898	52.67
955.067	85.99
955.235	38.52
955.403	78.63
955.571	98.97
955.739	77.27
955.907	18.57
956.075	15.08
956.243	16.63
956.41	51.5
956.578	11.98
956.746	-1.39
956.914	-0.61
957.082	38.72
957.25	76.11
957.418	7.33
957.585	16.63
957.753	97.81
957.921	14.69
958.089	30.58
958.256	44.92
958.424	60.03
958.592	56.74
958.759	31.74
958.927	63.71
959.095	26.7
959.262	20.31
959.43	61.58
959.597	-10.11
959.765	20.7
959.932	3.65
960.1	77.08
960.267	42.2
960.435	47.44
960.602	54.41
960.77	30.58
960.937	23.6
961.104	37.36
961.272	-9.72
961.439	28.25
961.606	68.94
961.774	69.72
961.941	32.71
962.108	71.27
962.275	57.12
962.443	75.92
962.61	43.56
962.777	114.86
962.944	74.56
963.111	67.2
963.278	70.49
963.446	53.83
963.613	44.34
963.78	36.39
963.947	45.89
964.114	41.82
964.281	131.13
964.448	72.43
964.615	35.04
964.782	60.8
964.949	80.57
965.116	67.39
965.282	90.06
965.449	58.48
965.616	2.1
965.783	91.42
965.95	52.09
966.117	36.97
966.283	54.41
966.45	67.39
966.617	52.86
966.784	72.82
966.95	74.95
967.117	68.36
967.284	27.87
967.45	25.93
967.617	110.98
967.784	64.87
967.95	107.5
968.117	34.65
968.283	79.21
968.45	139.27
968.616	64.68
968.783	85.8
968.949	68.75
969.116	88.7
969.282	49.76
969.449	74.56
969.615	53.64
969.781	44.53
969.948	39.3
970.114	-7.2
970.28	94.52
970.447	62.94
970.613	93.55
970.779	40.65
970.945	73.98
971.112	59.84
971.278	34.84
971.444	78.44
971.61	114.08
971.776	78.24
971.942	71.65
972.108	77.85
972.275	78.44
972.441	80.57
972.607	136.75
972.773	28.25
972.939	67
973.105	89.09
973.271	28.84
973.437	56.35
973.602	22.83
973.768	64.68
973.934	63.52
974.1	75.92
974.266	-20.57
974.432	48.4
974.598	26.51
974.763	61.97
974.929	52.67
975.095	82.31
975.261	21.67
975.426	22.05
975.592	44.72
975.758	106.33
975.923	5.59
976.089	17.4
976.255	89.87
976.42	49.37
976.586	56.15
976.751	60.42
976.917	123
977.082	43.17
977.248	25.54
977.413	-1.78
977.579	44.72
977.744	36.78
977.91	3.84
978.075	44.14
978.24	73.4
978.406	49.57
978.571	30.97
978.736	46.47
978.902	81.73
979.067	14.69
979.232	-2.74
979.397	39.3
979.563	109.05
979.728	21.47
979.893	42.01
980.058	26.7
980.223	115.83
980.388	57.7
980.554	56.54
980.719	14.11
980.884	49.18
981.049	93.35
981.214	24.77
981.379	84.44
981.544	48.6
981.709	47.05
981.874	20.31
982.039	55.38
982.204	66.62
982.368	61.39
982.533	13.14
982.698	81.34
982.863	107.3
983.028	18.37
983.193	76.89
983.357	83.47
983.522	61.19
983.687	12.56
983.852	58.67
984.016	30
984.181	46.47
984.346	72.24
984.51	76.3
984.675	59.64
984.839	56.35
985.004	32.52
985.168	92.77
985.333	85.41
985.498	38.52
985.662	86.96
985.827	53.64
985.991	50.34
986.155	26.7
986.32	93.35
986.484	97.04
986.649	67.59
986.813	12.17
986.977	41.62
987.142	85.02
987.306	27.48
987.47	19.34
987.634	55.19
987.799	45.89
987.963	67.39
988.127	80.37
988.291	125.13
988.455	33.68
988.62	52.67
988.784	64.87
988.948	71.27
989.112	10.62
989.276	54.6
989.44	41.04
989.604	21.86
989.768	42.4
989.932	118.35
990.096	30
990.26	-6.43
990.424	27.29
990.588	60.8
990.752	101.49
990.915	55.96
991.079	35.81
991.243	26.32
991.407	53.64
991.571	41.43
991.734	61.58
991.898	97.81
992.062	145.28
992.226	36.2
992.389	40.85
992.553	-0.81
992.717	-13.4
992.88	28.06
993.044	47.24
993.207	29.8
993.371	72.62
993.535	57.51
993.698	38.33
993.862	54.6
994.025	99.94
994.189	61
994.352	55.57
994.515	75.92
994.679	66.04
994.842	30.19
995.006	73.59
995.169	30.77
995.332	2.29
995.496	77.85
995.659	0.74
995.822	21.09
995.985	29.42
996.149	92.19
996.312	29.42
996.475	100.72
996.638	42.59
996.801	97.42
996.964	86.77
997.128	30.77
997.291	55.38
997.454	34.65
997.617	-21.15
997.78	80.76
997.943	43.56
998.106	75.53
998.269	16.24
998.432	43.17
998.595	65.07
998.758	-13.59
998.92	11.98
999.083	-11.27
999.246	33.49
999.409	-7.98
999.572	-18.24
999.735	5.39
999.897	47.44
1000.06	34.07
1000.223	11.59
1000.386	52.47
1000.548	60.03
1000.711	67.97
1000.874	65.65
1001.036	-2.55
1001.199	61.19
1001.361	4.81
1001.524	50.73
1001.687	65.26
1001.849	42.79
1002.012	62.74
1002.174	31.35
1002.337	46.47
1002.499	17.21
1002.661	43.37
1002.824	16.82
1002.986	5.2
1003.149	43.37
1003.311	-5.26
1003.473	86.77
1003.636	15.85
1003.798	65.84
1003.96	42.59
1004.123	24.77
1004.285	-7.2
1004.447	59.64
1004.609	12.17
1004.771	75.34
1004.933	-10.49
1005.096	21.47
1005.258	-27.74
1005.42	23.22
1005.582	57.32
1005.744	27.67
1005.906	-2.94
1006.068	45.89
1006.23	1.52
1006.392	-43.24
1006.554	22.44
1006.716	77.08
1006.878	34.45
1007.04	-5.65
1007.202	1.13
1007.363	56.74
1007.525	51.12
1007.687	44.53
1007.849	59.45
1008.011	-24.44
1008.172	-14.56
1008.334	51.5
1008.496	30.58
1008.658	-20.18
1008.819	-12.43
1008.981	-29.87
1009.143	9.46
1009.304	-14.76
1009.466	38.14
1009.627	69.52
1009.789	102.07
1009.95	33.68
1010.112	-8.36
1010.273	52.28
1010.435	9.07
1010.596	25.35
1010.758	12.37
1010.919	9.46
1011.081	-19.99
1011.242	5.01
1011.403	44.92
1011.565	20.12
1011.726	62.55
1011.887	-3.33
1012.049	9.27
1012.21	57.9
1012.371	41.43
1012.532	-40.72
1012.693	28.84
1012.855	21.28
1013.016	18.37
1013.177	53.05
1013.338	2.49
1013.499	79.21
1013.66	44.14
1013.821	24.57
1013.982	13.72
1014.143	17.4
1014.304	7.72
1014.465	37.55
1014.626	42.2
1014.787	30.19
1014.948	107.11
1015.109	-19.21
1015.27	43.56
1015.431	-11.46
1015.592	31.74
1015.752	50.73
1015.913	12.17
1016.074	54.99
1016.235	12.76
1016.395	17.4
1016.556	14.11
1016.717	2.87
1016.877	49.37
1017.038	14.69
1017.199	27.09
1017.359	18.95
1017.52	32.13
1017.681	22.44
1017.841	-8.75
1018.002	-3.71
1018.162	-6.23
1018.323	82.89
1018.483	28.06
1018.644	-3.33
1018.804	-33.94
1018.964	-29.48
1019.125	-9.91
1019.285	27.67
1019.446	-25.99
1019.606	-24.44
1019.766	-34.13
1019.926	23.02
1020.087	56.35
1020.247	-1.39
1020.407	43.17
1020.567	58.67
1020.728	-8.36
1020.888	-23.86
1021.048	-12.82
1021.208	-24.44
1021.368	-38.2
1021.528	54.41
1021.688	63.52
1021.848	54.41
1022.008	23.22
1022.168	14.11
1022.328	5.2
1022.488	42.4
1022.648	-0.42
1022.808	-5.46
1022.968	51.12
1023.128	-13.79
1023.288	7.52
1023.448	7.14
1023.608	31.16
1023.767	-1
1023.927	-9.72
1024.087	-8.56
1024.247	-31.42
1024.406	-5.84
1024.566	2.87
1024.726	-28.51
1024.885	-7.39
1025.045	33.87
1025.205	19.73
1025.364	-9.72
1025.524	26.12
1025.683	7.52
1025.843	25.54
1026.003	11.01
1026.162	43.17
1026.321	25.35
1026.481	13.72
1026.64	14.89
1026.8	-13.01
1026.959	7.91
1027.119	17.4
1027.278	-20.18
1027.437	-15.34
1027.597	6.75
1027.756	-3.71
1027.915	17.79
1028.074	26.12
1028.234	-25.41
1028.393	13.14
1028.552	1.13
1028.711	-47.11
1028.87	16.63
1029.03	-34.52
1029.189	-38.2
1029.348	-53.12
1029.507	-14.76
1029.666	-16.69
1029.825	-24.64
1029.984	-2.74
1030.143	1.52
1030.302	12.37
1030.461	-74.82
1030.62	12.56
1030.779	31.94
1030.938	-7.78
1031.097	-13.79
1031.255	31.94
1031.414	52.09
1031.573	46.47
1031.732	-31.81
1031.891	23.99
1032.049	79.21
1032.208	25.15
1032.367	-26.38
1032.525	-13.59
1032.684	-14.76
1032.843	-16.69
1033.001	-43.82
1033.16	145.08
1033.319	21.09
1033.477	39.49
1033.636	-23.28
1033.794	-47.11
1033.953	21.67
1034.111	79.99
1034.27	-12.24
1034.428	0.36
1034.587	-24.44
1034.745	11.21
1034.903	-14.95
1035.062	41.24
1035.22	-30.06
1035.378	34.26
1035.537	-1.78
1035.695	33.68
1035.853	-8.94
1036.011	16.44
1036.17	42.2
1036.328	-39.17
1036.486	14.69
1036.644	21.09
1036.802	-58.35
1036.96	-20.96
1037.119	7.52
1037.277	-15.14
1037.435	-32.19
1037.593	1.32
1037.751	-13.21
1037.909	21.67
1038.067	21.67
