Data from pine_FLMT105791__39__17-20-13-079.txt Node

Date: Mon Mar 20 17:20:13 GMT 2023
User: antho
Spectrometer: FLMT10579
Trigger mode: 0
Integration Time (sec): 1.000000E-1
Scans to average: 10
Electric dark correction enabled: true
Nonlinearity correction enabled: false
Boxcar width: 0
XAxis mode: Wavelengths
Number of Pixels in Spectrum: 3648
>>>>>Begin Spectral Data<<<<<
345.248	-146.91
345.464	-146.91
345.681	-146.91
345.898	-165.12
346.114	-161.44
346.331	-34.15
346.548	15.06
346.764	-4.31
346.981	-21.75
347.197	-7.8
347.414	21.84
347.631	-23.69
347.847	67.57
348.064	-3.54
348.28	17.58
348.497	-32.99
348.713	6.15
348.93	30.95
349.146	33.47
349.363	7.51
349.579	19.71
349.796	-8.96
350.012	-18.26
350.229	37.15
350.445	27.85
350.661	-11.09
350.878	23.78
351.094	6.15
351.311	39.09
351.527	14.87
351.743	-5.86
351.96	38.7
352.176	57.11
352.392	18.16
352.609	37.34
352.825	-24.65
353.041	19.52
353.257	3.25
353.474	-20.97
353.69	15.26
353.906	-13.8
354.122	-33.18
354.339	44.13
354.555	4.02
354.771	16.03
354.987	60.01
355.203	59.24
355.42	-1.02
355.636	0.92
355.852	-5.86
356.068	13.32
356.284	-37.25
356.5	80.16
356.716	44.13
356.932	-3.15
357.148	31.34
357.364	-9.15
357.58	50.71
357.796	58.27
358.012	41.03
358.228	40.44
358.444	-46.94
358.66	29.4
358.876	49.36
359.092	-24.27
359.308	25.91
359.524	21.65
359.74	-16.71
359.956	-25.43
360.172	4.99
360.388	54.39
360.604	-0.44
360.819	74.35
361.035	35.41
361.251	39.86
361.467	-12.25
361.683	32.11
361.898	29.01
362.114	39.28
362.33	3.83
362.546	47.42
362.762	-4.89
362.977	14.87
363.193	-18.45
363.409	44.51
363.624	-6.64
363.84	-23.49
364.056	-18.26
364.271	10.61
364.487	32.31
364.703	-30.08
364.918	-65.15
365.134	3.63
365.35	12.93
365.565	64.66
365.781	18.16
365.996	24.36
366.212	59.82
366.427	6.73
366.643	-7.41
366.858	-3.54
367.074	-35.7
367.289	27.66
367.505	103.03
367.72	-23.88
367.936	-13.22
368.151	38.89
368.367	0.92
368.582	19.71
368.798	9.25
369.013	82.29
369.228	24.75
369.444	20.68
369.659	52.07
369.874	29.79
370.09	73.19
370.305	-46.55
370.52	-7.22
370.736	72.99
370.951	23.78
371.166	58.27
371.381	77.45
371.597	48.58
371.812	-21.55
372.027	-14.97
372.242	-1.21
372.458	108.64
372.673	-14.97
372.888	-10.32
373.103	23.59
373.318	119.69
373.533	16.81
373.749	36.76
373.964	2.66
374.179	56.72
374.394	-10.9
374.609	46.45
374.824	-42.09
375.039	82.29
375.254	-8.38
375.469	57.88
375.684	-1.02
375.899	56.14
376.114	24.56
376.329	39.09
376.544	30.56
376.759	21.84
376.974	-13.03
377.189	-1.6
377.404	2.66
377.619	52.46
377.834	-24.65
378.049	-29.69
378.264	-30.66
378.478	11.96
378.693	-17.1
378.908	18.16
379.123	-9.35
379.338	67.76
379.553	15.06
379.767	14.87
379.982	36.18
380.197	45.29
380.412	20.1
380.626	26.88
380.841	78.23
381.056	28.43
381.271	94.89
381.485	10.8
381.7	-10.7
381.915	39.09
382.129	-18.07
382.344	35.99
382.559	-1.4
382.773	48.58
382.988	-41.7
383.202	17.97
383.417	8.67
383.632	96.05
383.846	12.74
384.061	18.55
384.275	13.51
384.49	37.34
384.704	46.26
384.919	34.44
385.133	10.61
385.348	43.74
385.562	11.19
385.777	36.57
385.991	7.51
386.206	26.3
386.42	-18.65
386.634	57.69
386.849	37.34
387.063	24.56
387.277	-29.3
387.492	-32.99
387.706	-18.07
387.92	-17.87
388.135	48
388.349	14.87
388.563	17.58
388.778	36.57
388.992	39.09
389.206	53.23
389.42	107.48
389.635	17.39
389.849	42.58
390.063	65.24
390.277	13.9
390.491	59.63
390.706	29.21
390.92	39.09
391.134	27.27
391.348	40.44
391.562	-16.9
391.776	15.26
391.99	-20.39
392.205	55.17
392.419	-19.81
392.633	24.94
392.847	81.33
393.061	-0.44
393.275	46.26
393.489	9.83
393.703	27.27
393.917	46.84
394.131	-0.82
394.345	39.48
394.559	48.19
394.773	-5.47
394.986	46.45
395.2	14.68
395.414	37.54
395.628	1.11
395.842	9.83
396.056	6.15
396.27	-28.14
396.484	51.49
396.697	51.49
396.911	41.41
397.125	63.69
397.339	73.96
397.553	55.17
397.766	104.19
397.98	60.79
398.194	63.69
398.408	13.32
398.621	52.46
398.835	75.32
399.049	27.66
399.262	71.83
399.476	76.29
399.69	58.46
399.903	106.71
400.117	53.04
400.331	53.04
400.544	9.83
400.758	142.55
400.971	53.62
401.185	72.61
401.398	-8.96
401.612	88.49
401.826	76.48
402.039	61.56
402.253	50.13
402.466	67.18
402.68	42.19
402.893	64.66
403.106	34.24
403.32	23.78
403.533	81.71
403.747	42.19
403.96	77.45
404.174	57.11
404.387	7.51
404.6	23.59
404.814	70.09
405.027	28.24
405.24	38.7
405.454	31.73
405.667	72.99
405.88	-14
406.094	40.64
406.307	99.93
406.52	59.63
406.733	22.04
406.947	-3.15
407.16	108.45
407.373	82.1
407.586	37.34
407.799	24.36
408.012	91.59
408.226	67.76
408.439	84.23
408.652	15.65
408.865	64.47
409.078	55.94
409.291	40.25
409.504	-0.63
409.717	49.36
409.93	23.59
410.143	42.58
410.357	12.16
410.57	-1.99
410.783	37.93
410.996	40.44
411.209	60.4
411.421	76.29
411.634	58.08
411.847	9.25
412.06	64.66
412.273	21.07
412.486	43.35
412.699	136.93
412.912	42.77
413.125	72.61
413.338	41.41
413.55	64.86
413.763	71.64
413.976	83.46
414.189	16.23
414.402	25.91
414.615	111.94
414.827	35.41
415.04	74.74
415.253	52.65
415.466	80.16
415.678	103.8
415.891	46.06
416.104	60.01
416.316	77.26
416.529	40.64
416.742	68.93
416.954	105.93
417.167	54.2
417.38	85.39
417.592	103.8
417.805	49.36
418.017	4.8
418.23	77.84
418.442	58.27
418.655	20.68
418.868	54.78
419.08	108.06
419.293	104.38
419.505	76.48
419.718	65.05
419.93	98.38
420.142	57.11
420.355	90.24
420.567	126.27
420.78	70.48
420.992	45.09
421.205	106.9
421.417	8.09
421.629	50.33
421.842	48.78
422.054	8.28
422.266	94.31
422.479	74.93
422.691	48
422.903	80.16
423.115	55.75
423.328	71.25
423.54	105.54
423.752	71.06
423.964	51.49
424.177	62.73
424.389	80.16
424.601	159.79
424.813	94.11
425.025	91.79
425.238	98.76
425.45	50.52
425.662	62.92
425.874	375.82
426.086	72.8
426.298	91.98
426.51	81.33
426.722	74.54
426.934	58.66
427.146	102.83
427.358	41.99
427.57	127.63
427.782	61.76
427.994	81.33
428.206	43.16
428.418	34.63
428.63	116.2
428.842	90.43
429.054	93.92
429.266	106.32
429.478	45.68
429.69	116.97
429.902	20.3
430.114	129.96
430.325	84.23
430.537	65.05
430.749	68.73
430.961	28.63
431.173	80.55
431.384	97.02
431.596	27.46
431.808	75.32
432.02	79
432.231	109.22
432.443	115.81
432.655	97.02
432.867	81.71
433.078	136.35
433.29	154.56
433.502	106.9
433.713	136.74
433.925	109.81
434.136	140.03
434.348	31.53
434.56	66.6
434.771	191.57
434.983	54.39
435.194	95.86
435.406	123.56
435.617	136.54
435.829	169.29
436.04	115.04
436.252	148.75
436.463	173.36
436.675	144.68
436.886	132.09
437.098	129.96
437.309	152.82
437.521	134.41
437.732	156.89
437.943	105.16
438.155	118.14
438.366	74.35
438.578	212.1
438.789	120.66
439	152.04
439.211	131.51
439.423	110.39
439.634	152.62
439.845	151.66
440.057	159.41
440.268	164.64
440.479	113.68
440.69	156.89
440.902	117.56
441.113	132.67
441.324	105.16
441.535	168.9
441.746	194.47
441.957	107.68
442.168	103.03
442.38	140.42
442.591	192.92
442.802	123.95
443.013	118.14
443.224	144.87
443.435	126.86
443.646	135.38
443.857	130.92
444.068	129.96
444.279	108.26
444.49	208.42
444.701	145.46
444.912	227.8
445.123	173.94
445.334	165.22
445.545	151.66
445.756	170.84
445.967	117.17
446.178	176.84
446.388	191.18
446.599	165.22
446.81	189.82
447.021	165.99
447.232	183.24
447.443	220.82
447.653	160.96
447.864	211.91
448.075	183.43
448.286	209
448.496	190.6
448.707	212.3
448.918	158.05
449.129	241.75
449.339	162.31
449.55	208.23
449.761	186.72
449.971	216.95
450.182	174.13
450.393	208.81
450.603	171.61
450.814	237.1
451.024	206.29
451.235	238.65
451.446	241.94
451.656	253.37
451.867	153.98
452.077	199.9
452.288	255.31
452.498	243.3
452.709	193.89
452.919	234.77
453.13	157.27
453.34	247.37
453.55	126.47
453.761	229.35
453.971	221.21
454.182	228.38
454.392	210.36
454.602	260.74
454.813	243.69
455.023	230.51
455.233	182.07
455.444	202.03
455.654	139.26
455.864	188.27
456.075	198.54
456.285	171.42
456.495	184.21
456.705	232.25
456.916	244.07
457.126	267.52
457.336	206.29
457.546	158.82
457.756	212.3
457.967	257.64
458.177	186.53
458.387	221.21
458.597	201.25
458.807	199.51
459.017	194.47
459.227	201.84
459.437	200.48
459.647	279.34
459.857	270.42
460.068	188.47
460.278	268.29
460.488	229.35
460.698	296.38
460.908	205.32
461.117	178.01
461.327	197.96
461.537	225.67
461.747	219.66
461.957	235.55
462.167	325.06
462.377	282.63
462.587	234.97
462.797	258.99
463.007	252.21
463.216	279.92
463.426	292.7
463.636	266.94
463.846	203.97
464.056	244.27
464.265	282.44
464.475	216.95
464.685	232.84
464.895	273.72
465.104	261.9
465.314	283.4
465.524	233.8
465.733	213.65
465.943	290.96
466.153	297.35
466.362	281.08
466.572	244.85
466.782	225.28
466.991	263.64
467.201	279.92
467.41	207.84
467.62	277.98
467.829	234.39
468.039	286.31
468.249	234.77
468.458	275.85
468.668	283.6
468.877	271.97
469.086	335.33
469.296	301.23
469.505	240.78
469.715	326.22
469.924	305.1
470.134	309.17
470.343	349.28
470.552	250.85
470.762	296.77
470.971	256.86
471.18	300.65
471.39	266.55
471.599	242.52
471.808	336.1
472.018	240.59
472.227	340.56
472.436	324.48
472.645	272.55
472.855	277.2
473.064	345.98
473.273	287.47
473.482	313.05
473.691	319.05
473.901	344.24
474.11	318.67
474.319	393.06
474.528	303.36
474.737	369.04
474.946	327.58
475.155	343.66
475.364	378.92
475.573	326.8
475.783	339.2
475.992	344.43
476.201	367.68
476.41	322.93
476.619	312.66
476.828	332.81
477.037	304.13
477.245	339.2
477.454	397.71
477.663	324.48
477.872	329.9
478.081	403.14
478.29	307.82
478.499	453.13
478.708	377.95
478.917	417.67
479.125	356.25
479.334	375.05
479.543	366.52
479.752	375.43
479.961	392.68
480.169	449.83
480.378	347.34
480.587	519.97
480.796	422.51
481.004	391.32
481.213	391.32
481.422	407.6
481.63	400.43
481.839	416.7
482.048	471.73
482.256	411.66
482.465	415.73
482.674	434.72
482.882	438.98
483.091	467.66
483.299	402.17
483.508	429.88
483.716	428.91
483.925	425.23
484.134	395.2
484.342	407.79
484.551	453.9
484.759	458.75
484.967	443.05
485.176	469.01
485.384	448.86
485.593	481.8
485.801	473.08
486.01	458.16
486.218	424.45
486.426	391.13
486.635	394.61
486.843	422.71
487.051	386.48
487.26	410.11
487.468	453.13
487.676	450.22
487.885	413.41
488.093	466.3
488.301	456.81
488.509	471.73
488.717	488.78
488.926	450.03
489.134	451
489.342	464.94
489.55	445.57
489.758	471.53
489.967	443.05
490.175	567.24
490.383	458.16
490.591	548.26
490.799	440.92
491.007	538.38
491.215	499.82
491.423	451.96
491.631	478.12
491.839	488.97
492.047	545.35
492.255	443.05
492.463	451.19
492.671	492.46
492.879	546.71
493.087	493.43
493.295	533.92
493.503	523.65
493.711	531.4
493.919	534.11
494.127	551.55
494.334	566.08
494.542	499.24
494.75	513.77
494.958	515.51
495.166	573.64
495.374	545.54
495.581	542.06
495.789	552.52
495.997	593.4
496.205	522.49
496.412	528.11
496.62	535.08
496.828	562.4
497.035	568.99
497.243	590.3
497.451	561.62
497.658	552.13
497.866	547.09
498.074	613.16
498.281	562.98
498.489	606.96
498.696	565.69
498.904	540.31
499.112	562.21
499.319	640.67
499.527	563.56
499.734	602.12
499.942	525.39
500.149	554.65
500.357	586.81
500.564	548.45
500.771	588.75
500.979	533.92
501.186	550
501.394	569.18
501.601	579.06
501.808	602.31
502.016	585.07
502.223	580.22
502.43	602.31
502.638	568.02
502.845	542.44
503.052	645.71
503.26	610.06
503.467	647.26
503.674	591.85
503.881	612.39
504.089	676.9
504.296	631.57
504.503	556.2
504.71	594.37
504.917	560.46
505.125	605.8
505.332	614.13
505.539	642.22
505.746	681.94
505.953	668.57
506.16	653.85
506.367	676.9
506.574	678.84
506.781	688.14
506.988	599.41
507.195	685.04
507.402	665.86
507.609	651.72
507.816	628.27
508.023	632.92
508.23	625.76
508.437	598.63
508.644	677.49
508.851	697.64
509.058	704.42
509.265	655.2
509.472	680.97
509.679	741.23
509.885	661.79
510.092	666.44
510.299	671.67
510.506	684.85
510.713	706.74
510.92	668.77
511.126	699.57
511.333	737.55
511.54	725.73
511.746	730.77
511.953	730.96
512.16	750.14
512.367	722.43
512.573	722.24
512.78	731.15
512.987	725.92
513.193	717.98
513.4	642.61
513.606	698.99
513.813	755.76
514.02	729.99
514.226	800.52
514.433	777.65
514.639	719.34
514.846	751.5
515.052	722.43
515.259	723.4
515.465	737.55
515.672	747.43
515.878	837.91
516.085	734.25
516.291	779.4
516.497	716.04
516.704	756.34
516.91	730.18
517.117	680.97
517.323	640.87
517.529	709.84
517.736	651.72
517.942	679.42
518.148	705
518.354	722.43
518.561	699.19
518.767	716.43
518.973	778.62
519.179	756.92
519.386	738.32
519.592	729.8
519.798	745.3
520.004	811.75
520.21	784.05
520.417	788.7
520.623	790.63
520.829	814.27
521.035	839.46
521.241	840.81
521.447	813.69
521.653	949.51
521.859	870.26
522.065	871.62
522.271	903.01
522.477	880.92
522.683	925.87
522.889	900.29
523.095	896.23
523.301	832.1
523.507	842.75
523.713	884.99
523.919	832.1
524.125	922.96
524.331	888.09
524.537	959.97
524.742	909.4
524.948	936.91
525.154	961.52
525.36	1026.81
525.566	940.79
525.772	958.42
525.977	923.16
526.183	974.89
526.389	982.64
526.595	921.22
526.8	922.96
527.006	885.57
527.212	839.65
527.417	851.66
527.623	830.16
527.829	928.39
528.034	927.03
528.24	921.03
528.446	888.48
528.651	988.45
528.857	981.86
529.062	1021.39
529.268	987.67
529.473	975.28
529.679	994.65
529.884	1071.37
530.09	986.9
530.295	1043.86
530.501	1019.64
530.706	1012.47
530.912	981.67
531.117	1014.8
531.323	1026.04
531.528	1070.41
531.733	1039.41
531.939	1044.64
532.144	1056.26
532.35	1047.74
532.555	1086.29
532.76	1073.5
532.966	1077.57
533.171	1014.99
533.376	989.61
533.581	997.75
533.787	1026.81
533.992	1051.61
534.197	1084.55
534.402	1017.12
534.607	1031.46
534.813	1158.17
535.018	1024.29
535.223	1019.06
535.428	1037.47
535.633	1091.72
535.838	1071.76
536.043	1082.61
536.249	1148.68
536.454	1079.51
536.659	1094.82
536.864	1059.94
537.069	1055.68
537.274	1121.55
537.479	1105.86
537.684	1102.37
537.889	1039.41
538.094	1159.72
538.299	1072.73
538.504	1116.32
538.708	1094.62
538.913	1141.51
539.118	1078.35
539.323	1108.96
539.528	1108.38
539.733	1127.95
539.938	1143.64
540.142	1134.54
540.347	1107.02
540.552	1065.37
540.757	1094.24
540.962	1066.34
541.166	1040.96
541.371	1052.39
541.576	1090.55
541.781	988.06
541.985	1117.29
542.19	1102.95
542.395	1133.37
542.599	1185.68
542.804	1156.43
543.008	1188.59
543.213	1105.86
543.418	1076.99
543.622	1111.29
543.827	1093.85
544.031	1169.22
544.236	1169.8
544.44	1169.99
544.645	1238.58
544.849	1132.6
545.054	1154.3
545.258	1231.41
545.463	1198.08
545.667	1144.61
545.872	1161.66
546.076	1161.08
546.281	1150.23
546.485	1143.25
546.689	1187.62
546.894	1217.07
547.098	1179.68
547.302	1124.85
547.507	1132.02
547.711	1175.22
547.915	1215.52
548.119	1150.62
548.324	1141.51
548.528	1225.21
548.732	1164.37
548.936	1184.33
549.141	1192.27
549.345	1188.4
549.549	1184.33
549.753	1193.24
549.957	1208.93
550.161	1226.37
550.366	1201.57
550.57	1141.7
550.774	1152.55
550.978	1161.85
551.182	1200.99
551.386	1186.27
551.59	1176.38
551.794	1177.16
551.998	1184.72
552.202	1163.02
552.406	1145.39
552.61	1164.76
552.814	1178.71
553.018	1234.51
553.222	1160.3
553.426	1158.75
553.63	1253.5
553.833	1180.65
554.037	1122.52
554.241	1196.73
554.445	1198.86
554.649	1155.65
554.853	1169.6
555.056	1212.23
555.26	1220.75
555.464	1207.97
555.668	1211.65
555.871	1228.31
556.075	1220.75
556.279	1184.72
556.483	1152.36
556.686	1201.77
556.89	1190.72
557.094	1209.9
557.297	1156.43
557.501	1225.98
557.704	1102.18
557.908	1229.67
558.112	1140.35
558.315	1226.95
558.519	1193.63
558.722	1161.08
558.926	1169.41
559.129	1115.35
559.333	1024.1
559.536	1095.2
559.74	1080.29
559.943	1089.97
560.147	1083.19
560.35	1109.54
560.553	1100.44
560.757	1051.81
560.96	1177.55
561.164	1102.76
561.367	1224.24
561.57	1128.92
561.774	1146.16
561.977	1124.85
562.18	1086.1
562.384	1200.02
562.587	1125.24
562.79	1089.2
562.993	1111.67
563.197	1174.64
563.4	1196.34
563.603	1167.86
563.806	1185.88
564.009	1121.94
564.212	1133.57
564.416	1072.54
564.619	1113.22
564.822	1076.99
565.025	1154.3
565.228	1113.61
565.431	1126.98
565.634	1012.09
565.837	1066.34
566.04	1075.83
566.243	1019.06
566.446	992.52
566.649	1115.35
566.852	1022.94
567.055	1062.46
567.258	1065.95
567.461	1171.35
567.664	1121.94
567.867	1032.04
568.07	1097.34
568.273	1055.1
568.475	1107.02
568.678	1061.88
568.881	1037.08
569.084	1031.27
569.287	964.43
569.489	1015.19
569.692	1060.14
569.895	1015.57
570.098	953.96
570.3	992.32
570.503	941.18
570.706	946.99
570.909	956.09
571.111	953.96
571.314	968.3
571.516	971.98
571.719	989.81
571.922	965.2
572.124	985.54
572.327	955.32
572.529	915.6
572.732	954.16
572.935	972.76
573.137	1039.41
573.34	959.97
573.542	1001.04
573.745	1014.22
573.947	961.91
574.15	942.53
574.352	951.64
574.554	999.3
574.757	911.34
574.959	948.15
575.162	926.45
575.364	913.86
575.566	1022.94
575.769	930.71
575.971	920.25
576.173	850.7
576.376	908.63
576.578	1002.01
576.78	1013.25
576.982	880.73
577.185	902.04
577.387	876.46
577.589	920.83
577.791	954.74
577.993	943.11
578.196	910.18
578.398	923.74
578.6	940.79
578.802	869.3
579.004	869.3
579.206	884.8
579.408	945.44
579.61	885.76
579.812	939.82
580.014	893.51
580.216	876.85
580.418	868.52
580.62	862.71
580.822	836.55
581.024	871.81
581.226	939.43
581.428	903.59
581.63	952.41
581.832	839.65
582.034	922.77
582.236	909.01
582.438	924.51
582.64	953.38
582.841	951.64
583.043	1000.46
583.245	936.72
583.447	942.53
583.649	910.37
583.85	939.43
584.052	946.02
584.254	829.19
584.456	944.66
584.657	866.39
584.859	905.14
585.061	893.32
585.262	875.3
585.464	870.46
585.666	930.33
585.867	879.95
586.069	943.5
586.27	936.72
586.472	886.35
586.674	871.43
586.875	875.3
587.077	843.53
587.278	885.38
587.48	848.56
587.681	973.73
587.883	882.08
588.084	813.88
588.285	884.6
588.487	852.44
588.688	914.24
588.89	832.48
589.091	811.56
589.292	827.25
589.494	819.31
589.695	766.03
589.896	716.62
590.098	720.88
590.299	801.68
590.5	732.9
590.702	760.41
590.903	805.75
591.104	864.06
591.305	813.5
591.507	883.63
591.708	835
591.909	849.34
592.11	872.2
592.311	842.56
592.512	806.52
592.714	777.65
592.915	791.8
593.116	809.04
593.317	824.35
593.518	827.06
593.719	806.13
593.92	835.78
594.121	865.81
594.322	806.91
594.523	794.32
594.724	742
594.925	792.38
595.126	828.41
595.327	826.67
595.528	827.06
595.729	809.81
595.929	800.52
596.13	827.64
596.331	811.95
596.532	818.53
596.733	887.9
596.934	837.91
597.135	866
597.335	833.06
597.536	777.07
597.737	794.9
597.938	799.35
598.138	834.03
598.339	806.13
598.54	824.54
598.74	802.07
598.941	808.27
599.142	865.42
599.342	815.05
599.543	790.44
599.744	815.43
599.944	796.45
600.145	799.35
600.345	802.26
600.546	865.42
600.746	872.01
600.947	859.61
601.147	829
601.348	865.61
601.548	781.33
601.749	830.93
601.949	791.6
602.15	777.85
602.35	812.14
602.551	854.76
602.751	779.98
602.951	796.25
603.152	744.13
603.352	846.05
603.552	829.38
603.753	839.07
603.953	849.73
604.153	814.08
604.354	834.61
604.554	788.5
604.754	810.2
604.954	784.24
605.155	820.08
605.355	811.75
605.555	838.1
605.755	858.06
605.955	811.75
606.155	834.23
606.356	814.85
606.556	845.08
606.756	819.7
606.956	760.99
607.156	871.23
607.356	758.28
607.556	843.33
607.756	794.9
607.956	846.82
608.156	815.24
608.356	783.27
608.556	818.92
608.756	779.78
608.956	734.25
609.156	814.08
609.356	754.4
609.556	755.76
609.755	789.28
609.955	741.23
610.155	812.91
610.355	811.75
610.555	779.2
610.755	794.12
610.954	737.35
611.154	784.43
611.354	815.63
611.554	762.73
611.753	761.57
611.953	719.34
612.153	800.52
612.352	782.5
612.552	732.12
612.752	684.65
612.951	751.3
613.151	736.38
613.351	751.11
613.55	732.9
613.75	777.07
613.949	763.51
614.149	773
614.348	735.03
614.548	709.26
614.747	702.48
614.947	711
615.146	660.44
615.346	760.99
615.545	738.32
615.745	734.06
615.944	729.8
616.144	733.87
616.343	760.41
616.542	684.46
616.742	700.54
616.941	732.32
617.14	672.64
617.34	720.5
617.539	710.23
617.738	694.15
617.938	782.11
618.137	716.43
618.336	649.78
618.535	726.7
618.734	694.54
618.934	719.53
619.133	685.82
619.332	733.48
619.531	683.88
619.73	706.35
619.929	732.9
620.128	711.39
620.328	752.66
620.527	704.22
620.726	695.12
620.925	702.48
621.124	721.85
621.323	740.26
621.522	654.62
621.721	648.04
621.92	652.1
622.119	720.5
622.318	688.14
622.517	679.23
622.715	686.01
622.914	642.42
623.113	698.8
623.312	618.78
623.511	696.09
623.71	680.59
623.909	662.95
624.107	752.08
624.306	656.17
624.505	637.77
624.704	661.99
624.902	691.63
625.101	718.37
625.3	660.82
625.499	664.31
625.697	641.45
625.896	620.91
626.095	687.95
626.293	611.61
626.492	661.79
626.69	697.64
626.889	639.7
627.088	690.08
627.286	614.13
627.485	636.02
627.683	611.22
627.882	687.17
628.08	592.04
628.279	624.98
628.477	675.94
628.676	591.27
628.874	636.22
629.073	613.94
629.271	575.96
629.469	630.41
629.668	622.27
629.866	620.14
630.065	608.12
630.263	633.51
630.461	595.53
630.66	597.86
630.858	651.91
631.056	673.8
631.254	679.04
631.453	597.08
631.651	666.25
631.849	639.51
632.047	656.17
632.245	618.2
632.444	631.76
632.642	657.72
632.84	656.75
633.038	632.34
633.236	599.02
633.434	592.43
633.632	626.34
633.83	580.81
634.028	653.07
634.227	634.67
634.425	720.11
634.623	622.27
634.821	616.26
635.019	643
635.216	610.45
635.414	640.09
635.612	643.39
635.81	625.17
636.008	690.27
636.206	633.89
636.404	649.97
636.602	600.18
636.8	587.01
636.997	636.6
637.195	650.36
637.393	628.66
637.591	660.44
637.789	649.78
637.986	607.35
638.184	635.05
638.382	653.46
638.58	657.72
638.777	694.15
638.975	612
639.173	608.51
639.37	627.31
639.568	637.19
639.765	660.82
639.963	633.12
640.161	652.49
640.358	660.44
640.556	623.24
640.753	576.93
640.951	552.71
641.148	620.72
641.346	600.37
641.543	624.01
641.741	628.66
641.938	607.35
642.136	573.64
642.333	587.01
642.531	646.49
642.728	654.62
642.925	630.79
643.123	602.31
643.32	649
643.517	599.79
643.715	620.14
643.912	597.47
644.109	607.16
644.306	580.42
644.504	558.52
644.701	582.36
644.898	646.87
645.095	556.39
645.293	624.21
645.49	617.04
645.687	619.36
645.884	620.33
646.081	527.53
646.278	537.02
646.475	564.53
646.672	575.19
646.87	599.79
647.067	571.12
647.264	581.97
647.461	542.83
647.658	539.54
647.855	590.88
648.052	549.42
648.249	486.26
648.446	556.01
648.642	517.45
648.839	541.09
649.036	529.66
649.233	505.83
649.43	507.76
649.627	496.33
649.824	526.56
650.021	501.56
650.217	512.61
650.414	490.91
650.611	533.73
650.808	545.54
651.004	553.68
651.201	559.49
651.398	583.13
651.595	545.35
651.791	511.44
651.988	541.09
652.185	499.04
652.381	552.91
652.578	508.93
652.775	545.16
652.971	510.09
653.168	554.65
653.364	533.92
653.561	493.23
653.757	488.58
653.954	501.37
654.15	495.75
654.347	576.93
654.543	519.97
654.74	483.54
654.936	491.29
655.133	527.33
655.329	507.18
655.525	539.54
655.722	545.54
655.918	482.96
656.115	514.93
656.311	455.45
656.507	439.95
656.704	388.22
656.9	438.98
657.096	440.15
657.292	426.78
657.489	509.89
657.685	490.13
657.881	467.08
658.077	489.94
658.273	509.89
658.47	541.09
658.666	451.38
658.862	524.62
659.058	476.38
659.254	535.47
659.45	477.34
659.646	478.12
659.842	494.2
660.038	541.67
660.234	478.7
660.43	493.04
660.626	575.19
660.822	522.68
661.018	543.99
661.214	473.28
661.41	473.66
661.606	515.51
661.802	543.22
661.998	488.19
662.194	444.41
662.39	529.08
662.586	498.27
662.781	497.49
662.977	519.39
663.173	523.84
663.369	491.29
663.564	494.39
663.76	502.92
663.956	480.64
664.152	523.65
664.347	466.88
664.543	473.28
664.739	473.47
664.934	423.29
665.13	427.55
665.326	475.21
665.521	480.83
665.717	462.04
665.912	449.25
666.108	408.18
666.304	451.19
666.499	450.03
666.695	391.9
666.89	468.04
667.086	504.08
667.281	478.51
667.477	519.97
667.672	512.22
667.867	486.06
668.063	492.07
668.258	427.16
668.454	458.55
668.649	534.69
668.844	470.37
669.04	484.51
669.235	456.23
669.43	442.08
669.626	422.9
669.821	442.28
670.016	428.52
670.211	478.51
670.407	438.79
670.602	444.02
670.797	420.77
670.992	493.62
671.187	431.04
671.382	460.88
671.578	457.78
671.773	458.74
671.968	411.86
672.163	436.08
672.358	475.41
672.553	400.04
672.748	444.02
672.943	526.94
673.138	440.73
673.333	466.88
673.528	396.55
673.723	483.93
673.918	457.58
674.113	402.95
674.308	496.33
674.503	480.25
674.698	494.78
674.892	427.75
675.087	493.62
675.282	464.36
675.477	440.34
675.672	459.71
675.867	433.75
676.061	403.91
676.256	384.54
676.451	417.67
676.646	469.59
676.84	417.09
677.035	382.21
677.23	377.37
677.424	437.43
677.619	468.04
677.814	459.71
678.008	457.78
678.203	404.5
678.397	412.44
678.592	425.03
678.787	459.33
678.981	420.38
679.176	411.47
679.37	421.35
679.565	423.68
679.759	400.04
679.954	419.8
680.148	493.23
680.342	489.74
680.537	466.11
680.731	427.55
680.926	450.03
681.12	454.48
681.314	399.26
681.509	433.17
681.703	431.04
681.897	440.34
682.092	422.9
682.286	400.04
682.48	483.93
682.674	462.23
682.869	399.26
683.063	425.23
683.257	485.29
683.451	409.53
683.645	486.26
683.839	410.5
684.034	430.26
684.228	471.14
684.422	390.35
684.616	396.55
684.81	470.56
685.004	436.85
685.198	439.56
685.392	462.23
685.586	403.72
685.78	442.28
685.974	446.15
686.168	454.48
686.362	477.93
686.556	400.23
686.75	400.04
686.944	389.19
687.138	413.02
687.331	357.03
687.525	375.63
687.719	308.98
687.913	345.4
688.107	370.4
688.301	353.93
688.494	390.93
688.688	338.23
688.882	292.9
689.076	327.97
689.269	362.65
689.463	434.33
689.657	342.3
689.85	351.99
690.044	343.66
690.238	365.55
690.431	384.73
690.625	343.27
690.818	391.9
691.012	386.86
691.205	396.36
691.399	392.48
691.593	407.6
691.786	454.48
691.98	471.73
692.173	504.47
692.366	441.89
692.56	470.76
692.753	524.04
692.947	419.22
693.14	507.76
693.333	503.5
693.527	429.3
693.72	449.06
693.914	442.47
694.107	480.25
694.3	463.78
694.493	473.86
694.687	492.65
694.88	439.76
695.073	538.18
695.266	504.66
695.46	506.79
695.653	563.95
695.846	524.04
696.039	433.95
696.232	513.19
696.425	536.63
696.618	528.69
696.812	541.86
697.005	579.06
697.198	659.27
697.391	557.36
697.584	580.42
697.777	642.42
697.97	612.77
698.163	620.14
698.356	609.29
698.549	721.08
698.742	646.29
698.935	608.32
699.127	652.1
699.32	619.94
699.513	616.84
699.706	648.23
699.899	675.16
700.092	614.13
700.285	671.87
700.477	615.68
700.67	676.32
700.863	649.59
701.056	773.78
701.248	713.14
701.441	725.34
701.634	695.12
701.826	773.97
702.019	693.37
702.212	729.22
702.404	686.01
702.597	674.39
702.79	711.2
702.982	740.26
703.175	743.75
703.367	781.92
703.56	771.07
703.752	842.36
703.945	792.38
704.137	816.98
704.33	833.45
704.522	832.29
704.715	851.08
704.907	862.32
705.1	870.07
705.292	884.99
705.484	860.58
705.677	880.15
705.869	912.11
706.061	902.43
706.254	942.92
706.446	926.45
706.638	904.36
706.831	974.89
707.023	944.86
707.215	1034.17
707.407	1002.01
707.599	994.07
707.792	1032.04
707.984	983.99
708.176	1017.12
708.368	1009.96
708.56	1012.86
708.752	992.32
708.944	1008.6
709.136	1048.71
709.329	1029.33
709.521	1107.99
709.713	1090.94
709.905	1095.79
710.097	1110.51
710.289	1113.22
710.481	1099.66
710.672	1136.09
710.864	1101.21
711.056	1157.98
711.248	1140.54
711.44	1149.65
711.632	1115.16
711.824	1160.5
712.016	1208.74
712.207	1219.98
712.399	1206.8
712.591	1269.38
712.783	1175.8
712.975	1257.37
713.166	1202.15
713.358	1221.14
713.55	1307.16
713.741	1274.23
713.933	1282.56
714.125	1254.85
714.316	1237.03
714.508	1329.25
714.7	1291.86
714.891	1303.87
715.083	1329.06
715.274	1299.41
715.466	1314.14
715.657	1365.09
715.849	1237.8
716.04	1323.83
716.232	1257.18
716.423	1323.83
716.615	1244.78
716.806	1241.29
716.998	1199.25
717.189	1174.25
717.381	1119.23
717.572	1084.16
717.763	1166.12
717.955	1096.95
718.146	1087.84
718.337	1077.57
718.528	1026.04
718.72	984.38
718.911	1090.55
719.102	998.33
719.293	1031.66
719.485	1058.39
719.676	1049.87
719.867	999.69
720.058	998.52
720.249	980.31
720.44	1056.46
720.632	1061.69
720.823	1087.26
721.014	1188.4
721.205	1192.47
721.396	1198.86
721.587	1285.27
721.778	1292.25
721.969	1326.73
722.16	1373.43
722.351	1341.65
722.542	1412.56
722.733	1442.59
722.924	1365.48
723.115	1428.45
723.305	1427.67
723.496	1422.06
723.687	1321.7
723.878	1339.52
724.069	1341.26
724.26	1354.05
724.45	1335.06
724.641	1293.21
724.832	1327.51
725.023	1323.25
725.213	1295.54
725.404	1307.94
725.595	1291.08
725.785	1284.11
725.976	1344.75
726.167	1355.79
726.357	1323.83
726.548	1420.31
726.739	1335.84
726.929	1421.09
727.12	1447.44
727.31	1437.17
727.501	1384.28
727.691	1404.62
727.882	1395.13
728.072	1420.7
728.263	1441.24
728.453	1481.92
728.644	1489.67
728.834	1460.03
729.024	1416.44
729.215	1436.59
729.405	1452.67
729.596	1543.92
729.786	1498.78
729.976	1535.01
730.167	1547.22
730.357	1453.83
730.547	1500.14
730.737	1530.17
730.928	1574.54
731.118	1629.37
731.308	1529
731.498	1558.26
731.688	1634.02
731.879	1606.31
732.069	1632.27
732.259	1642.93
732.449	1655.91
732.639	1738.25
732.829	1747.94
733.019	1798.12
733.209	1795.21
733.399	1793.66
733.589	1825.05
733.779	1856.83
733.969	1808.19
734.159	1863.61
734.349	1912.82
734.539	1932.39
734.729	1899.84
734.919	1948.66
735.109	2001.94
735.299	1964.74
735.488	1961.45
735.678	1977.34
735.868	1975.79
736.058	1960.48
736.248	1953.31
736.437	1913.4
736.627	1915.72
736.817	2006.2
737.007	1988.57
737.196	1990.51
737.386	1960.29
737.576	1948.66
737.765	1998.45
737.955	2022.67
738.144	2097.27
738.334	2040.3
738.524	2024.8
738.713	2060.45
738.903	2026.35
739.092	2064.72
739.282	2090.68
739.471	2095.72
739.661	2042.05
739.85	2131.75
740.04	2093.78
740.229	2148.8
740.419	2115.67
740.608	2173.02
740.797	2134.08
740.987	2225.14
741.176	2162.17
741.365	2138.15
741.555	2124.78
741.744	2159.85
741.933	2144.54
742.123	2158.68
742.312	2213.51
742.501	2190.07
742.69	2174.76
742.88	2103.27
743.069	2238.51
743.258	2189.3
743.447	2224.17
743.636	2228.82
743.825	2173.99
744.014	2198.6
744.204	2242.38
744.393	2168.18
744.582	2235.21
744.771	2249.55
744.96	2184.26
745.149	2203.05
745.338	2165.66
745.527	2236.76
745.716	2225.72
745.905	2186.97
746.094	2224.36
746.283	2236.76
746.471	2262.73
746.66	2299.92
746.849	2226.3
747.038	2268.54
747.227	2246.26
747.416	2263.89
747.604	2239.28
747.793	2225.33
747.982	2253.04
748.171	2240.83
748.359	2263.31
748.548	2226.11
748.737	2264.28
748.926	2260.4
749.114	2141.05
749.303	2233.08
749.491	2248
749.68	2175.15
749.869	2283.26
750.057	2207.12
750.246	2188.13
750.434	2242.19
750.623	2191.43
750.811	2203.25
751	2236.18
751.188	2201.31
751.377	2240.25
751.565	2199.37
751.754	2134.46
751.942	2168.76
752.131	2216.42
752.319	2152.1
752.507	2128.46
752.696	2246.84
752.884	2241.03
753.072	2171.66
753.261	2246.45
753.449	2192.59
753.637	2191.62
753.825	2265.24
754.014	2194.53
754.202	2188.71
754.39	2248.39
754.578	2212.16
754.766	2183.29
754.955	2176.12
755.143	2254.59
755.331	2160.04
755.519	2167.01
755.707	2142.41
755.895	2139.11
756.083	2152.68
756.271	2100.95
756.459	2124
756.647	2197.43
756.835	2142.99
757.023	2129.81
757.211	2152.29
757.399	2150.16
757.587	2114.12
757.775	2074.02
757.963	2106.95
758.151	2111.02
758.339	2053.09
758.526	2050.38
758.714	2091.45
758.902	2018.41
759.09	2012.4
759.278	1827.18
759.465	1748.33
759.653	1482.31
759.841	1352.5
760.028	1172.12
760.216	1034.56
760.404	1006.66
760.591	816.4
760.779	672.06
760.967	609.67
761.154	502.14
761.342	528.69
761.529	527.91
761.717	568.6
761.905	522.29
762.092	574.02
762.28	509.89
762.467	542.06
762.655	482.77
762.842	521.71
763.029	524.81
763.217	541.67
763.404	518.81
763.592	569.96
763.779	530.82
763.966	556.39
764.154	584.29
764.341	639.9
764.528	656.56
764.716	669.54
764.903	706.55
765.09	720.11
765.277	728.05
765.465	871.81
765.652	910.95
765.839	929.36
766.026	1023.52
766.213	1031.07
766.4	1107.6
766.588	1267.83
766.775	1217.65
766.962	1275
767.149	1331.58
767.336	1449.96
767.523	1392.8
767.71	1541.99
767.897	1572.4
768.084	1631.3
768.271	1648.74
768.458	1700.86
768.645	1712.87
768.832	1673.15
769.019	1702.6
769.206	1730.11
769.392	1782.43
769.579	1896.54
769.766	1805.48
769.953	1798.89
770.14	1864.77
770.327	1815.75
770.513	1892.09
770.7	1900.42
770.887	1827.96
771.073	1912.24
771.26	1872.91
771.447	1839.97
771.634	1844.81
771.82	1918.44
772.007	1835.9
772.193	1874.84
772.38	1889.57
772.567	1864.38
772.753	1872.91
772.94	1929.29
773.126	1933.74
773.313	1940.33
773.499	1909.91
773.686	1920.96
773.872	1831.44
774.059	1904.68
774.245	1873.87
774.432	1863.22
774.618	1797.73
774.804	1863.41
774.991	1786.49
775.177	1890.92
775.363	1851.79
775.55	1871.16
775.736	1805.68
775.922	1826.41
776.109	1865.16
776.295	1888.79
776.481	1877.94
776.667	1889.96
776.853	1826.21
777.04	1842.68
777.226	1813.81
777.412	1923.09
777.598	1794.05
777.784	1826.21
777.97	1833.19
778.156	1836.87
778.342	1832.22
778.528	1783.2
778.715	1782.04
778.901	1763.05
779.087	1807.23
779.272	1733.02
779.458	1767.31
779.644	1800.83
779.83	1756.85
780.016	1865.93
780.202	1804.32
780.388	1784.94
780.574	1694.46
780.76	1720.81
780.946	1803.54
781.131	1764.6
781.317	1774.48
781.503	1708.41
781.689	1752.4
781.874	1861.09
782.06	1762.28
782.246	1778.74
782.432	1740.77
782.617	1746.39
782.803	1803.54
782.989	1681.48
783.174	1731.66
783.36	1628.01
783.545	1711.51
783.731	1708.22
783.916	1645.45
784.102	1714.81
784.288	1691.36
784.473	1679.93
784.659	1686.13
784.844	1720.62
785.029	1667.73
785.215	1678.97
785.4	1611.73
785.586	1702.8
785.771	1606.31
785.956	1681.1
786.142	1704.93
786.327	1616.58
786.512	1645.06
786.698	1621.62
786.883	1596.82
787.068	1611.15
787.254	1669.28
787.439	1632.47
787.624	1609.02
787.809	1587.32
787.994	1626.27
788.18	1660.17
788.365	1567.56
788.55	1557.29
788.735	1582.09
788.92	1583.45
789.105	1598.17
789.29	1610.18
789.475	1513.5
789.66	1528.42
789.845	1526.1
790.03	1507.31
790.215	1589.65
790.4	1579.19
790.585	1620.07
790.77	1521.64
790.955	1448.79
791.14	1528.04
791.325	1597.2
791.51	1448.79
791.695	1554.39
791.879	1514.86
792.064	1502.27
792.249	1600.3
792.434	1535.98
792.618	1515.05
792.803	1554
792.988	1510.02
793.173	1546.25
793.357	1574.15
793.542	1441.24
793.727	1512.34
793.911	1536.75
794.096	1520.48
794.281	1558.07
794.465	1612.7
794.65	1501.11
794.834	1542.76
795.019	1585.39
795.203	1569.89
795.388	1566.98
795.572	1584.03
795.757	1532.49
795.941	1576.47
796.126	1533.65
796.31	1520.67
796.494	1585.39
796.679	1530.17
796.863	1494.32
797.048	1584.03
797.232	1595.07
797.416	1535.59
797.601	1474.56
797.785	1575.31
797.969	1564.46
798.153	1540.05
798.338	1567.75
798.522	1578.22
798.706	1547.99
798.89	1551.67
799.074	1688.46
799.258	1644.28
799.443	1557.49
799.627	1550.9
799.811	1596.62
799.995	1552.06
800.179	1504.98
800.363	1545.47
800.547	1575.89
800.731	1600.3
800.915	1496.84
801.099	1529.2
801.283	1550.9
801.467	1513.31
801.651	1523
801.835	1586.74
802.019	1552.45
802.202	1538.3
802.386	1515.25
802.57	1502.85
802.754	1526.1
802.938	1505.95
803.121	1530.75
803.305	1582.67
803.489	1532.88
803.673	1576.67
803.856	1560
804.04	1519.7
804.224	1539.27
804.407	1550.32
804.591	1522.22
804.775	1531.72
804.958	1545.86
805.142	1642.35
805.326	1558.26
805.509	1561.75
805.693	1594.49
805.876	1628.01
806.06	1531.33
806.243	1554.39
806.427	1597.01
806.61	1604.57
806.794	1558.65
806.977	1612.32
807.16	1564.27
807.344	1601.85
807.527	1560.59
807.71	1512.15
807.894	1571.82
808.077	1598.75
808.26	1544.31
808.444	1542.57
808.627	1615.61
808.81	1540.82
808.993	1466.04
809.177	1499.94
809.36	1536.17
809.543	1521.64
809.726	1445.5
809.909	1446.08
810.092	1471.07
810.276	1448.6
810.459	1465.07
810.642	1453.44
810.825	1405.78
811.008	1415.66
811.191	1350.37
811.374	1376.53
811.557	1395.9
811.74	1470.3
811.923	1375.75
812.106	1349.4
812.289	1331.77
812.472	1362.19
812.654	1381.18
812.837	1336.03
813.02	1277.71
813.203	1291.28
813.386	1202.73
813.569	1235.09
813.751	1176.58
813.934	1231.99
814.117	1229.67
814.3	1148.49
814.482	1151.2
814.665	1106.83
814.848	1099.08
815.03	1069.63
815.213	1092.69
815.396	1052.97
815.578	1036.89
815.761	1018.48
815.943	1104.31
816.126	1021
816.309	985.93
816.491	932.26
816.674	906.3
816.856	941.18
817.039	944.28
817.221	1015.57
817.403	995.42
817.586	959
817.768	977.6
817.951	939.04
818.133	912.11
818.315	934.39
818.498	968.49
818.68	1002.4
818.862	985.16
819.045	1014.22
819.227	1004.53
819.409	953.96
819.591	1005.31
819.774	1006.86
819.956	936.72
820.138	1041.92
820.32	1043.09
820.502	1022.94
820.684	1094.62
820.866	1049.09
821.048	1088.42
821.231	1110.51
821.413	1110.12
821.595	1081.45
821.777	1063.62
821.959	1083.19
822.141	1143.06
822.323	1030.11
822.505	998.52
822.686	994.26
822.868	953.96
823.05	891.96
823.232	888.28
823.414	834.03
823.596	873.36
823.778	859.03
823.96	878.21
824.141	887.9
824.323	872.78
824.505	915.41
824.687	949.7
824.868	942.92
825.05	1083
825.232	1063.62
825.413	1139.38
825.595	1112.06
825.777	1023.32
825.958	1088.23
826.14	1071.37
826.321	1101.79
826.503	1076.99
826.685	1048.12
826.866	1102.57
827.048	1102.37
827.229	1032.43
827.411	1035.53
827.592	1005.11
827.773	984.77
827.955	977.21
828.136	965.01
828.318	937.11
828.499	978.76
828.68	953.77
828.862	989.61
829.043	1020.42
829.224	970.24
829.406	955.9
829.587	971.4
829.768	927.61
829.949	957.45
830.131	957.84
830.312	993.68
830.493	941.18
830.674	989.22
830.855	966.36
831.036	940.59
831.218	1004.53
831.399	1014.8
831.58	967.91
831.761	962.1
831.942	992.52
832.123	966.94
832.304	914.05
832.485	935.36
832.666	959.78
832.847	963.46
833.028	939.82
833.209	971.59
833.389	952.8
833.57	889.45
833.751	950.86
833.932	981.09
834.113	962.49
834.294	963.46
834.475	964.43
834.655	1000.07
834.836	996.39
835.017	990.58
835.198	913.47
835.378	950.86
835.559	1002.98
835.74	970.04
835.92	952.22
836.101	933.23
836.281	984.96
836.462	986.71
836.643	986.32
836.823	1014.99
837.004	1039.79
837.184	1076.6
837.365	1025.84
837.545	1029.52
837.726	1002.98
837.906	1072.15
838.087	1016.16
838.267	989.81
838.448	975.28
838.628	1014.8
838.808	1004.34
838.989	1073.5
839.169	953.77
839.349	1021.58
839.53	1021.77
839.71	1053.16
839.89	977.02
840.07	1050.45
840.251	963.07
840.431	1028.36
840.611	998.91
840.791	950.67
840.971	995.42
841.151	1009.37
841.332	971.01
841.512	1042.89
841.692	930.71
841.872	996.78
842.052	983.99
842.232	1017.12
842.412	939.63
842.592	983.61
842.772	1018.09
842.952	1017.32
843.132	961.13
843.312	943.31
843.492	937.88
843.672	1019.64
843.851	931.49
844.031	976.44
844.211	948.34
844.391	959.97
844.571	957.84
844.751	980.7
844.93	983.03
845.11	943.11
845.29	1007.24
845.47	984.77
845.649	1001.62
845.829	996.01
846.009	953.58
846.188	981.86
846.368	942.53
846.547	973.73
846.727	1006.86
846.907	908.04
847.086	948.15
847.266	993.49
847.445	958.61
847.625	953.96
847.804	943.69
847.984	960.74
848.163	928
848.343	938.66
848.522	969.08
848.701	970.43
848.881	914.63
849.06	923.35
849.239	947.96
849.419	951.06
849.598	904.75
849.777	881.89
849.957	898.74
850.136	848.56
850.315	854.76
850.494	854.38
850.674	899.52
850.853	896.23
851.032	893.51
851.211	935.56
851.39	890.22
851.569	821.83
851.748	853.8
851.927	873.95
852.107	881.89
852.286	821.05
852.465	806.91
852.644	893.32
852.823	872.98
853.002	885.76
853.181	883.05
853.359	875.3
853.538	858.64
853.717	909.59
853.896	800.13
854.075	783.47
854.254	778.82
854.433	753.43
854.611	810.01
854.79	709.45
854.969	803.62
855.148	794.7
855.327	744.52
855.505	798.97
855.684	745.1
855.863	801.68
856.041	747.82
856.22	804.97
856.399	753.63
856.577	873.56
856.756	800.9
856.934	924.32
857.113	917.73
857.291	790.83
857.47	781.92
857.648	826.28
857.827	827.64
858.005	827.64
858.184	809.23
858.362	883.63
858.541	835.2
858.719	835.39
858.898	818.15
859.076	808.07
859.254	887.9
859.433	804.39
859.611	779.98
859.789	803.42
859.967	855.15
860.146	886.35
860.324	766.42
860.502	781.72
860.68	725.92
860.859	757.7
861.037	795.09
861.215	808.65
861.393	793.73
861.571	786.95
861.749	775.33
861.927	816.01
862.105	798.97
862.283	779.78
862.461	754.21
862.639	721.66
862.817	794.7
862.995	766.8
863.173	745.3
863.351	748.01
863.529	790.63
863.707	826.48
863.885	774.55
864.063	686.01
864.241	752.27
864.418	791.02
864.596	745.88
864.774	695.7
864.952	742.97
865.129	775.13
865.307	736.58
865.485	698.6
865.663	796.25
865.84	701.9
866.018	731.54
866.196	612
866.373	692.99
866.551	638.74
866.728	599.99
866.906	632.54
867.084	655.98
867.261	705.39
867.439	722.43
867.616	706.94
867.794	682.14
867.971	696.28
868.149	695.31
868.326	761.18
868.503	744.52
868.681	718.37
868.858	675.74
869.035	673.61
869.213	708.49
869.39	689.89
869.567	772.03
869.745	670.12
869.922	701.7
870.099	737.55
870.276	714.88
870.454	730.96
870.631	716.82
870.808	697.44
870.985	729.8
871.162	738.9
871.339	712.17
871.517	679.81
871.694	637.38
871.871	685.24
872.048	695.5
872.225	657.14
872.402	710.04
872.579	629.05
872.756	698.8
872.933	637.77
873.11	676.32
873.287	665.86
873.463	667.99
873.64	650.94
873.817	696.47
873.994	668.38
874.171	643.77
874.348	652.69
874.524	616.65
874.701	671.87
874.878	575.77
875.055	663.73
875.231	650.17
875.408	670.32
875.585	585.46
875.762	643
875.938	618.97
876.115	630.79
876.291	647.84
876.468	630.6
876.645	612.77
876.821	623.24
876.998	620.72
877.174	627.31
877.351	631.18
877.527	596.5
877.704	641.64
877.88	638.54
878.057	612.39
878.233	643.19
878.409	621.3
878.586	632.54
878.762	613.94
878.938	623.24
879.115	526.17
879.291	605.22
879.467	569.18
879.644	588.36
879.82	609.29
879.996	598.24
880.172	540.7
880.349	571.51
880.525	647.26
880.701	551.55
880.877	556.2
881.053	606.57
881.229	586.42
881.405	637.57
881.581	546.32
881.757	556.01
881.933	593.98
882.109	618.39
882.285	584.1
882.461	538.18
882.637	584.87
882.813	531.59
882.989	556.2
883.165	644.55
883.341	579.06
883.517	634.47
883.693	596.5
883.869	618.01
884.044	577.71
884.22	596.5
884.396	590.69
884.572	606.77
884.747	593.79
884.923	621.88
885.099	613.36
885.275	664.5
885.45	577.9
885.626	563.95
885.801	582.16
885.977	574.99
886.153	509.31
886.328	594.37
886.504	545.35
886.679	607.74
886.855	539.54
887.03	610.26
887.206	612
887.381	593.21
887.557	590.88
887.732	568.21
887.908	606.19
888.083	624.21
888.258	582.16
888.434	573.83
888.609	583.13
888.784	597.66
888.96	562.59
889.135	566.27
889.31	527.53
889.485	562.01
889.661	559.3
889.836	623.62
890.011	589.33
890.186	584.49
890.361	541.48
890.537	570.34
890.712	596.11
890.887	575.57
891.062	586.62
891.237	633.7
891.412	535.08
891.587	556.01
891.762	603.47
891.937	633.12
892.112	543.22
892.287	578.29
892.462	550.58
892.637	509.89
892.812	492.46
892.987	526.75
893.161	490.91
893.336	522.1
893.511	531.98
893.686	581.19
893.861	542.25
894.035	502.14
894.21	551.36
894.385	482.38
894.56	507.96
894.734	475.41
894.909	483.16
895.084	480.83
895.258	482.19
895.433	501.76
895.608	457.2
895.782	401.78
895.957	440.15
896.131	449.83
896.306	385.51
896.48	436.66
896.655	436.85
896.829	398.49
897.004	380.86
897.178	401.2
897.353	379.11
897.527	425.81
897.701	400.62
897.876	324.28
898.05	453.71
898.224	396.16
898.399	437.43
898.573	398.3
898.747	297.93
898.921	376.21
899.096	320.22
899.27	341.72
899.444	312.27
899.618	346.95
899.792	350.63
899.967	328.93
900.141	378.15
900.315	305.68
900.489	340.75
900.663	368.27
900.837	363.81
901.011	299.48
901.185	404.5
901.359	344.05
901.533	346.95
901.707	362.84
901.881	337.07
902.055	294.64
902.229	347.15
902.403	379.31
902.576	330.68
902.75	346.76
902.924	439.18
903.098	378.15
903.272	411.47
903.446	416.51
903.619	395.2
903.793	418.83
903.967	403.14
904.14	458.74
904.314	431.04
904.488	421.74
904.661	462.23
904.835	415.15
905.009	449.25
905.182	487.42
905.356	444.99
905.529	443.44
905.703	391.71
905.876	415.35
906.05	369.82
906.223	363.03
906.397	351.41
906.57	347.53
906.744	339.98
906.917	311.3
907.09	350.63
907.264	329.13
907.437	294.83
907.61	283.6
907.784	331.84
907.957	345.6
908.13	279.53
908.304	327.77
908.477	284.37
908.65	317.31
908.823	253.37
908.996	351.41
909.17	289.02
909.343	292.12
909.516	313.05
909.689	315.18
909.862	269.65
910.035	308.4
910.208	274.3
910.381	304.72
910.554	372.91
910.727	300.84
910.9	302.97
911.073	256.09
911.246	351.22
911.419	344.82
911.592	295.61
911.765	277.79
911.938	280.3
912.11	314.4
912.283	311.88
912.456	314.4
912.629	323.12
912.802	252.6
912.974	254.54
913.147	249.5
913.32	190.6
913.493	243.1
913.665	263.45
913.838	290.96
914.01	217.14
914.183	274.88
914.356	235.35
914.528	302
914.701	329.13
914.873	297.74
915.046	249.11
915.218	251.82
915.391	193.7
915.563	224.12
915.736	258.6
915.908	261.7
916.081	269.65
916.253	207.26
916.425	246.59
916.598	246.4
916.77	249.69
916.942	222.76
917.115	187.11
917.287	245.82
917.459	244.07
917.632	194.47
917.804	181.69
917.976	235.74
918.148	232.25
918.32	256.09
918.493	254.54
918.665	313.43
918.837	240
919.009	334.55
919.181	283.79
919.353	295.03
919.525	247.37
919.697	234.97
919.869	251.24
920.041	300.45
920.213	364.58
920.385	262.67
920.557	239.62
920.729	274.88
920.901	296.77
921.073	286.7
921.244	255.7
921.416	295.22
921.588	248.53
921.76	248.92
921.932	316.34
922.103	279.34
922.275	260.93
922.447	251.63
922.619	211.33
922.79	271.39
922.962	268.68
923.134	266.55
923.305	227.8
923.477	241.36
923.648	210.75
923.82	254.15
923.991	188.08
924.163	178.01
924.335	215.4
924.506	206.29
924.677	251.44
924.849	202.03
925.02	218.69
925.192	209.97
925.363	213.65
925.535	260.54
925.706	217.53
925.877	282.63
926.049	197.19
926.22	218.11
926.391	258.6
926.562	260.35
926.734	212.69
926.905	242.72
927.076	164.83
927.247	208.23
927.419	175.1
927.59	173.16
927.761	210.17
927.932	185.37
928.103	214.24
928.274	159.99
928.445	152.82
928.616	178.01
928.787	187.11
928.958	205.32
929.129	168.9
929.3	158.82
929.471	143.13
929.642	106.51
929.813	93.92
929.984	169.09
930.155	112.32
930.326	142.55
930.496	97.6
930.667	66.21
930.838	128.02
931.009	84.23
931.18	68.34
931.35	94.69
931.521	124.34
931.692	64.47
931.863	18.94
932.033	89.66
932.204	63.11
932.374	89.27
932.545	49.94
932.716	91.21
932.886	112.52
933.057	30.95
933.227	36.18
933.398	125.11
933.568	36.18
933.739	-9.35
933.909	40.64
934.08	62.14
934.25	-11.09
934.421	-3.92
934.591	55.56
934.761	-2.18
934.932	-37.44
935.102	12.35
935.272	13.32
935.443	17.78
935.613	27.27
935.783	35.41
935.953	-13.03
936.123	142.36
936.294	-26.59
936.464	5.96
936.634	14.68
936.804	-24.07
936.974	-18.26
937.144	19.52
937.314	55.17
937.484	0.53
937.655	-14
937.825	62.73
937.995	-13.8
938.165	53.43
938.334	20.88
938.504	56.14
938.674	-3.73
938.844	-2.57
939.014	43.74
939.184	38.12
939.354	79.58
939.524	67.38
939.694	25.33
939.863	37.93
940.033	115.04
940.203	75.13
940.373	49.36
940.542	51.29
940.712	19.52
940.882	76.87
941.051	102.06
941.221	62.92
941.391	88.49
941.56	22.62
941.73	14.29
941.899	148.75
942.069	17
942.238	64.08
942.408	34.63
942.577	66.41
942.747	26.69
942.916	3.05
943.086	-17.1
943.255	67.76
943.425	44.9
943.594	35.41
943.763	-34.92
943.933	0.53
944.102	-48.68
944.271	35.41
944.441	56.33
944.61	10.8
944.779	6.15
944.948	125.89
945.117	-22.14
945.287	26.3
945.456	-20.39
945.625	-6.44
945.794	36.96
945.963	13.32
946.132	48.97
946.301	21.84
946.47	43.16
946.639	-18.84
946.808	14.1
946.977	35.99
947.146	75.9
947.315	11.77
947.484	35.21
947.653	15.65
947.822	21.65
947.991	-2.95
948.16	80.16
948.329	81.13
948.498	30.76
948.666	13.71
948.835	41.03
949.004	-26.01
949.173	-34.73
949.341	50.91
949.51	41.22
949.679	74.35
949.847	48.39
950.016	129.37
950.185	91.4
950.353	15.06
950.522	18.94
950.69	66.02
950.859	7.9
951.028	60.4
951.196	37.54
951.365	13.71
951.533	63.69
951.701	70.67
951.87	51.29
952.038	13.32
952.207	44.9
952.375	83.07
952.543	24.17
952.712	21.07
952.88	6.54
953.048	81.91
953.217	38.12
953.385	30.76
953.553	81.13
953.721	-11.09
953.89	55.36
954.058	-12.06
954.226	12.35
954.394	42.77
954.562	-16.9
954.73	41.41
954.898	29.98
955.067	58.46
955.235	26.88
955.403	57.49
955.571	98.76
955.739	53.81
955.907	5.18
956.075	6.93
956.243	-1.6
956.41	48.97
956.578	-11.87
956.746	-23.3
956.914	16.61
957.082	47.42
957.25	62.34
957.418	-0.05
957.585	21.46
957.753	84.23
957.921	8.67
958.089	31.14
958.256	60.59
958.424	44.13
958.592	45.29
958.759	5.57
958.927	69.51
959.095	-7.41
959.262	18.94
959.43	43.16
959.597	7.7
959.765	32.89
959.932	-21.75
960.1	78.61
960.267	21.84
960.435	29.79
960.602	72.22
960.77	30.95
960.937	-14
961.104	46.84
961.272	3.05
961.439	6.35
961.606	64.47
961.774	72.41
961.941	27.08
962.108	62.53
962.275	62.14
962.443	63.5
962.61	64.86
962.777	97.99
962.944	52.84
963.111	64.66
963.278	46.84
963.446	54.98
963.613	54.78
963.78	66.99
963.947	74.93
964.114	23.2
964.281	122.98
964.448	72.99
964.615	42.58
964.782	38.89
964.949	86.75
965.116	66.02
965.282	79.58
965.449	34.05
965.616	32.69
965.783	56.53
965.95	55.56
966.117	-0.05
966.283	30.18
966.45	45.87
966.617	42.38
966.784	105.93
966.95	79.39
967.117	85.78
967.284	5.57
967.45	27.85
967.617	85.78
967.784	76.87
967.95	103.22
968.117	34.83
968.283	70.48
968.45	145.26
968.616	41.22
968.783	103.22
968.949	72.41
969.116	75.13
969.282	54.2
969.449	61.76
969.615	35.41
969.781	-16.52
969.948	53.43
970.114	-3.15
970.28	83.46
970.447	28.04
970.613	85.78
970.779	46.06
970.945	76.68
971.112	63.5
971.278	29.4
971.444	27.46
971.61	62.14
971.776	42.77
971.942	78.81
972.108	46.64
972.275	13.71
972.441	51.29
972.607	131.31
972.773	47.42
972.939	54.01
973.105	18.36
973.271	9.45
973.437	19.52
973.602	44.32
973.768	72.22
973.934	66.99
974.1	74.54
974.266	-19.62
974.432	45.87
974.598	31.53
974.763	93.92
974.929	22.81
975.095	116.59
975.261	12.93
975.426	43.93
975.592	46.26
975.758	114.26
975.923	4.6
976.089	44.9
976.255	74.16
976.42	72.41
976.586	41.03
976.751	81.13
976.917	140.22
977.082	78.61
977.248	3.05
977.413	-21.36
977.579	26.11
977.744	71.25
977.91	7.7
978.075	19.13
978.24	60.79
978.406	46.06
978.571	23.78
978.736	9.83
978.902	75.9
979.067	-1.02
979.232	6.35
979.397	57.88
979.563	88.88
979.728	30.37
979.893	41.61
980.058	10.41
980.223	66.21
980.388	42.58
980.554	49.55
980.719	30.95
980.884	40.83
981.049	75.51
981.214	23.78
981.379	62.34
981.544	13.51
981.709	36.38
981.874	21.26
982.039	20.88
982.204	68.15
982.368	52.84
982.533	-5.09
982.698	78.61
982.863	75.51
983.028	12.55
983.193	42.58
983.357	54.59
983.522	41.8
983.687	42.77
983.852	36.18
984.016	36.96
984.181	57.69
984.346	75.51
984.51	54.39
984.675	29.4
984.839	74.54
985.004	62.53
985.168	96.05
985.333	63.69
985.498	39.86
985.662	89.08
985.827	61.18
985.991	7.51
986.155	49.55
986.32	79
986.484	90.04
986.649	66.79
986.813	-19.04
986.977	50.71
987.142	57.11
987.306	2.08
987.47	4.41
987.634	59.82
987.799	29.21
987.963	66.41
988.127	50.71
988.291	115.81
988.455	62.14
988.62	28.63
988.784	77.06
988.948	61.95
989.112	44.32
989.276	47.23
989.44	11.38
989.604	33.86
989.768	27.08
989.932	95.66
990.096	17
990.26	-0.24
990.424	-19.04
990.588	48.19
990.752	97.21
990.915	59.04
991.079	33.86
991.243	17
991.407	71.25
991.571	51.49
991.734	51.29
991.898	60.98
992.062	121.62
992.226	56.14
992.389	25.91
992.553	-16.52
992.717	4.41
992.88	35.21
993.044	28.82
993.207	10.03
993.371	72.41
993.535	41.61
993.698	40.83
993.862	76.09
994.025	84.04
994.189	53.23
994.352	41.61
994.515	71.44
994.679	76.29
994.842	31.34
995.006	104.38
995.169	28.04
995.332	8.67
995.496	71.83
995.659	9.25
995.822	26.88
995.985	32.69
996.149	55.94
996.312	29.98
996.475	102.64
996.638	29.79
996.801	97.79
996.964	121.24
997.128	41.41
997.291	22.62
997.454	35.41
997.617	-13.8
997.78	81.33
997.943	-4.7
998.106	73.77
998.269	12.55
998.432	14.1
998.595	46.06
998.758	-9.15
998.92	-6.05
999.083	-14.77
999.246	5.96
999.409	7.7
999.572	-31.05
999.735	12.55
999.897	43.74
1000.06	21.07
1000.223	13.32
1000.386	71.64
1000.548	61.95
1000.711	70.09
1000.874	53.43
1001.036	-23.49
1001.199	69.89
1001.361	-2.95
1001.524	36.57
1001.687	60.4
1001.849	8.28
1002.012	48.58
1002.174	54.39
1002.337	43.74
1002.499	34.83
1002.661	67.76
1002.824	-0.44
1002.986	-10.32
1003.149	33.66
1003.311	-8.57
1003.473	76.68
1003.636	17.97
1003.798	49.16
1003.96	48.39
1004.123	21.84
1004.285	1.7
1004.447	9.25
1004.609	24.17
1004.771	88.88
1004.933	-23.88
1005.096	-16.32
1005.258	-33.57
1005.42	-5.86
1005.582	72.03
1005.744	18.36
1005.906	-33.95
1006.068	39.28
1006.23	0.53
1006.392	-36.86
1006.554	12.16
1006.716	65.05
1006.878	50.33
1007.04	-4.5
1007.202	18.36
1007.363	32.89
1007.525	32.89
1007.687	30.56
1007.849	85.01
1008.011	-45.77
1008.172	-15.55
1008.334	3.05
1008.496	24.56
1008.658	-28.14
1008.819	4.6
1008.981	-36.28
1009.143	-14.77
1009.304	1.11
1009.466	42.38
1009.627	86.94
1009.789	97.99
1009.95	53.62
1010.112	-13.22
1010.273	18.75
1010.435	-8.19
1010.596	12.74
1010.758	-4.12
1010.919	13.13
1011.081	-16.9
1011.242	17.58
1011.403	38.51
1011.565	4.6
1011.726	47.61
1011.887	-12.25
1012.049	-4.12
1012.21	57.11
1012.371	101.48
1012.532	-48.1
1012.693	24.56
1012.855	16.61
1013.016	6.93
1013.177	63.69
1013.338	10.41
1013.499	81.71
1013.66	43.54
1013.821	59.82
1013.982	24.56
1014.143	18.55
1014.304	9.64
1014.465	43.35
1014.626	53.23
1014.787	18.94
1014.948	81.91
1015.109	-28.14
1015.27	66.79
1015.431	-26.4
1015.592	-28.53
1015.752	41.22
1015.913	30.37
1016.074	16.81
1016.235	2.66
1016.395	25.14
1016.556	5.38
1016.717	1.11
1016.877	90.24
1017.038	-7.02
1017.199	35.99
1017.359	20.68
1017.52	8.28
1017.681	39.67
1017.841	31.14
1018.002	-1.02
1018.162	-9.15
1018.323	68.15
1018.483	44.71
1018.644	25.91
1018.804	-37.83
1018.964	-28.92
1019.125	-17.1
1019.285	14.68
1019.446	-16.13
1019.606	-30.27
1019.766	-34.73
1019.926	26.11
1020.087	33.47
1020.247	-39.57
1020.407	11.96
1020.567	60.4
1020.728	8.09
1020.888	-22.72
1021.048	-16.13
1021.208	-14.97
1021.368	13.9
1021.528	70.86
1021.688	48
1021.848	51.68
1022.008	34.05
1022.168	13.71
1022.328	2.08
1022.488	37.15
1022.648	-1.99
1022.808	9.83
1022.968	23.59
1023.128	-18.65
1023.288	-2.57
1023.448	4.99
1023.608	17.2
1023.767	15.65
1023.927	4.41
1024.087	-10.32
1024.247	-29.5
1024.406	-7.22
1024.566	-33.57
1024.726	-14.97
1024.885	-6.05
1025.045	38.12
1025.205	0.15
1025.364	0.15
1025.524	23.2
1025.683	12.93
1025.843	16.23
1026.003	-14.39
1026.162	64.47
1026.321	43.74
1026.481	1.11
1026.64	16.61
1026.8	18.55
1026.959	6.93
1027.119	16.03
1027.278	-7.8
1027.437	-9.15
1027.597	5.38
1027.756	-6.44
1027.915	10.03
1028.074	12.35
1028.234	-10.32
1028.393	11.58
1028.552	-0.82
1028.711	-90.72
1028.87	30.18
1029.03	-22.72
1029.189	17.39
1029.348	-49.07
1029.507	5.76
1029.666	-1.99
1029.825	-36.47
1029.984	-26.01
1030.143	3.63
1030.302	-14
1030.461	-57.4
1030.62	24.56
1030.779	34.83
1030.938	-29.69
1031.097	-25.82
1031.255	0.92
1031.414	71.44
1031.573	42.19
1031.732	-45
1031.891	-2.37
1032.049	24.75
1032.208	58.66
1032.367	-17.49
1032.525	4.41
1032.684	-6.64
1032.843	-2.57
1033.001	-59.92
1033.16	134.02
1033.319	35.41
1033.477	44.51
1033.636	-16.13
1033.794	-51.2
1033.953	20.1
1034.111	38.31
1034.27	-19.04
1034.428	33.86
1034.587	-17.1
1034.745	19.91
1034.903	-2.76
1035.062	7.9
1035.22	-36.67
1035.378	11.38
1035.537	-18.26
1035.695	43.93
1035.853	10.41
1036.011	35.41
1036.17	37.34
1036.328	-57.2
1036.486	3.83
1036.644	9.64
1036.802	-65.92
1036.96	-5.67
1037.119	-18.07
1037.277	-4.5
1037.435	-15.16
1037.593	-43.25
1037.751	6.15
1037.909	49.36
1038.067	49.36
