Data from pine_FLMT105791__74__17-21-14-077.txt Node

Date: Mon Mar 20 17:21:14 GMT 2023
User: antho
Spectrometer: FLMT10579
Trigger mode: 0
Integration Time (sec): 1.000000E-1
Scans to average: 10
Electric dark correction enabled: true
Nonlinearity correction enabled: false
Boxcar width: 0
XAxis mode: Wavelengths
Number of Pixels in Spectrum: 3648
>>>>>Begin Spectral Data<<<<<
345.248	-166.91
345.464	-166.91
345.681	-166.91
345.898	-189.58
346.114	-157.23
346.331	-45.05
346.548	30.9
346.764	14.82
346.981	9.98
347.197	-3.58
347.414	12.69
347.631	-22.38
347.847	48.73
348.064	-10.75
348.28	18.31
348.497	-49.7
348.713	-3.97
348.93	30.32
349.146	46.01
349.363	-8.43
349.579	-9.01
349.796	-12.88
350.012	-13.08
350.229	42.33
350.445	2.03
350.661	-10.17
350.878	24.7
351.094	36.72
351.311	29.93
351.527	8.62
351.743	-28.97
351.96	46.98
352.176	62.68
352.392	-8.62
352.609	46.98
352.825	-16.76
353.041	15.21
353.257	-25.48
353.474	-30.32
353.69	8.62
353.906	12.5
354.122	-20.63
354.339	55.31
354.555	-31.68
354.771	11.33
354.987	51.44
355.203	58.41
355.42	-47.37
355.636	-5.13
355.852	-26.06
356.068	10.75
356.284	-13.66
356.5	45.63
356.716	-8.82
356.932	20.44
357.148	21.6
357.364	5.91
357.58	29.55
357.796	42.14
358.012	50.86
358.228	24.9
358.444	-54.15
358.66	38.07
358.876	17.53
359.092	-25.67
359.308	10.17
359.524	16.95
359.74	3.58
359.956	-14.43
360.172	1.84
360.388	43.5
360.604	-19.28
360.819	84.96
361.035	6.3
361.251	16.37
361.467	-16.37
361.683	50.86
361.898	33.42
362.114	15.21
362.33	33.62
362.546	45.82
362.762	15.6
362.977	55.9
363.193	-24.12
363.409	54.73
363.624	-27.03
363.84	-12.5
364.056	-11.92
364.271	20.44
364.487	-0.1
364.703	-3.58
364.918	-21.22
365.134	-10.75
365.35	33.23
365.565	102.2
365.781	12.5
365.996	31.48
366.212	69.65
366.427	29.55
366.643	2.03
366.858	-0.87
367.074	-22.96
367.289	70.62
367.505	111.31
367.72	-23.73
367.936	-21.02
368.151	19.47
368.367	33.42
368.582	7.46
368.798	-13.85
369.013	60.35
369.228	23.35
369.444	1.45
369.659	42.53
369.874	16.95
370.09	75.27
370.305	-46.21
370.52	-13.85
370.736	62.29
370.951	4.75
371.166	72.56
371.381	64.81
371.597	37.3
371.812	-24.9
372.027	-13.85
372.242	-2.42
372.458	81.08
372.673	2.62
372.888	5.52
373.103	17.73
373.318	75.08
373.533	42.33
373.749	26.64
373.964	-52.99
374.179	82.83
374.394	-21.99
374.609	59.19
374.824	-12.5
375.039	60.55
375.254	-1.26
375.469	55.7
375.684	34.78
375.899	52.8
376.114	-8.23
376.329	31.1
376.544	36.72
376.759	34.2
376.974	-21.8
377.189	-9.78
377.404	2.62
377.619	54.15
377.834	-28
378.049	-28.19
378.264	-63.45
378.478	3.2
378.693	-23.73
378.908	29.35
379.123	-9.78
379.338	57.64
379.553	22.96
379.767	25.28
379.982	43.88
380.197	64.81
380.412	18.89
380.626	38.65
380.841	63.65
381.056	19.28
381.271	57.25
381.485	3.78
381.7	-23.73
381.915	22.57
382.129	13.47
382.344	24.9
382.559	1.65
382.773	44.85
382.988	-41.95
383.202	22.77
383.417	3
383.632	123.9
383.846	9.2
384.061	49.7
384.275	9.98
384.49	34
384.704	48.34
384.919	31.1
385.133	5.72
385.348	16.18
385.562	-23.54
385.777	62.48
385.991	9.4
386.206	17.73
386.42	-32.84
386.634	45.24
386.849	36.13
387.063	3.39
387.277	-9.98
387.492	23.35
387.706	-40.78
387.92	-25.67
388.135	54.35
388.349	40.78
388.563	39.23
388.778	21.22
388.992	28
389.206	42.72
389.42	82.05
389.635	20.44
389.849	24.12
390.063	54.73
390.277	32.65
390.491	70.43
390.706	30.9
390.92	61.51
391.134	-10.37
391.348	30.13
391.562	-34.58
391.776	-5.13
391.99	-5.13
392.205	31.87
392.419	-20.83
392.633	14.63
392.847	51.25
393.061	-4.75
393.275	58.03
393.489	31.29
393.703	40.01
393.917	62.87
394.131	24.51
394.345	34.39
394.559	73.33
394.773	-4.36
394.986	46.79
395.2	3.78
395.414	34.78
395.628	-31.48
395.842	31.29
396.056	9.78
396.27	-25.48
396.484	20.44
396.697	69.85
396.911	71.59
397.125	51.83
397.339	69.07
397.553	38.46
397.766	94.45
397.98	46.21
398.194	41.37
398.408	-7.85
398.621	41.75
398.835	40.2
399.049	37.1
399.262	62.1
399.476	58.03
399.69	38.85
399.903	95.61
400.117	23.35
400.331	49.31
400.544	15.98
400.758	137.46
400.971	53.76
401.185	55.51
401.398	20.25
401.612	90.19
401.826	54.35
402.039	39.62
402.253	22.77
402.466	45.05
402.68	5.91
402.893	48.34
403.106	24.51
403.32	44.08
403.533	57.83
403.747	35.36
403.96	42.53
404.174	64.42
404.387	8.04
404.6	13.47
404.814	57.25
405.027	42.33
405.24	25.48
405.454	16.18
405.667	49.11
405.88	-40.98
406.094	37.1
406.307	60.93
406.52	64.03
406.733	14.43
406.947	-11.53
407.16	80.31
407.373	77.98
407.586	7.85
407.799	1.65
408.012	56.48
408.226	46.01
408.439	86.12
408.652	-15.79
408.865	43.88
409.078	51.44
409.291	36.91
409.504	-4.75
409.717	47.95
409.93	44.66
410.143	43.5
410.357	-9.4
410.57	-9.78
410.783	31.1
410.996	56.09
411.209	17.15
411.421	69.26
411.634	49.7
411.847	10.56
412.06	24.51
412.273	46.21
412.486	57.83
412.699	91.74
412.912	23.15
413.125	47.37
413.338	10.37
413.55	47.18
413.763	17.73
413.976	40.78
414.189	42.14
414.402	34.58
414.615	72.17
414.827	17.34
415.04	61.71
415.253	70.04
415.466	65.2
415.678	119.83
415.891	34
416.104	48.73
416.316	60.35
416.529	29.93
416.742	43.3
416.954	84.57
417.167	63.26
417.38	38.27
417.592	57.25
417.805	-0.29
418.017	-4.17
418.23	46.6
418.442	-7.85
418.655	21.22
418.868	39.62
419.08	70.43
419.293	118.67
419.505	36.52
419.718	63.65
419.93	89.41
420.142	40.59
420.355	99.68
420.567	103.56
420.78	83.6
420.992	54.15
421.205	104.14
421.417	-3.78
421.629	30.9
421.842	34.2
422.054	0.48
422.266	55.7
422.479	92.32
422.691	43.69
422.903	72.36
423.115	48.34
423.328	35.94
423.54	84.18
423.752	53.18
423.964	49.11
424.177	64.42
424.389	34
424.601	160.71
424.813	65.78
425.025	92.71
425.238	82.44
425.45	49.31
425.662	59.58
425.874	358.34
426.086	58.03
426.298	76.05
426.51	71.2
426.722	60.93
426.934	42.33
427.146	83.41
427.358	17.73
427.57	101.62
427.782	81.66
427.994	46.21
428.206	35.17
428.418	34.39
428.63	91.93
428.842	93.87
429.054	75.85
429.266	106.27
429.478	35.94
429.69	57.64
429.902	25.67
430.114	96.39
430.325	86.7
430.537	55.51
430.749	54.93
430.961	37.1
431.173	69.46
431.384	98.33
431.596	4.75
431.808	52.21
432.02	66.94
432.231	117.12
432.443	111.5
432.655	94.06
432.867	47.95
433.078	103.56
433.29	105.88
433.502	97.94
433.713	127.97
433.925	99.3
434.136	142.11
434.348	64.42
434.56	43.11
434.771	169.82
434.983	56.67
435.194	64.81
435.406	82.25
435.617	137.66
435.829	153.16
436.04	145.41
436.252	113.44
436.463	152.19
436.675	123.71
436.886	106.27
437.098	114.41
437.309	167.11
437.521	92.9
437.732	116.93
437.943	116.93
438.155	129.91
438.366	70.23
438.578	169.43
438.789	108.21
439	138.82
439.211	108.98
439.423	135.91
439.634	138.82
439.845	137.27
440.057	128.75
440.268	150.06
440.479	117.9
440.69	127.58
440.902	113.44
441.113	117.31
441.324	95.81
441.535	128.94
441.746	160.71
441.957	70.23
442.168	137.46
442.38	143.28
442.591	135.14
442.802	101.81
443.013	112.28
443.224	140.95
443.435	105.11
443.646	127.2
443.857	123.32
444.068	121.58
444.279	131.84
444.49	202.37
444.701	123.51
444.912	224.46
445.123	174.86
445.334	165.94
445.545	151.8
445.756	153.74
445.967	127.58
446.178	177.96
446.388	195.39
446.599	183.77
446.81	179.89
447.021	136.49
447.232	219.61
447.443	215.54
447.653	122.93
447.864	185.32
448.075	173.11
448.286	199.85
448.496	184.74
448.707	229.3
448.918	159.36
449.129	274.83
449.339	157.81
449.55	205.86
449.761	186.48
449.971	222.32
450.182	179.31
450.393	195.2
450.603	165.17
450.814	226.97
451.024	218.84
451.235	207.41
451.446	224.84
451.656	256.62
451.867	182.8
452.077	215.93
452.288	274.83
452.498	263.4
452.709	176.99
452.919	209.54
453.13	178.15
453.34	244.99
453.55	175.05
453.761	219.22
453.971	230.85
454.182	237.24
454.392	199.66
454.602	286.65
454.813	223.49
455.023	238.21
455.233	181.25
455.444	212.83
455.654	161.68
455.864	209.34
456.075	206.05
456.285	221.55
456.495	213.03
456.705	226.01
456.916	257.39
457.126	250.42
457.336	219.22
457.546	175.44
457.756	207.41
457.967	279.67
458.177	209.73
458.387	231.82
458.597	179.7
458.807	225.04
459.017	207.99
459.227	211.28
459.437	219.61
459.647	245.96
459.857	260.11
460.068	211.09
460.278	276.57
460.488	227.36
460.698	276.57
460.908	235.89
461.117	199.46
461.327	217.29
461.537	244.02
461.747	245.57
461.957	228.91
462.167	348.65
462.377	267.08
462.587	232.59
462.797	261.46
463.007	237.63
463.216	258.94
463.426	301.76
463.636	259.91
463.846	198.3
464.056	222.91
464.265	305.83
464.475	225.62
464.685	258.56
464.895	263.98
465.104	237.82
465.314	277.16
465.524	246.16
465.733	239.18
465.943	327.53
466.153	345.35
466.362	289.56
466.572	255.46
466.782	264.76
466.991	249.84
467.201	307.19
467.41	236.08
467.62	298.86
467.829	260.88
468.039	295.76
468.249	268.05
468.458	268.05
468.668	322.69
468.877	317.65
469.086	326.95
469.296	323.65
469.505	255.46
469.715	330.44
469.924	308.54
470.134	315.52
470.343	354.07
470.552	262.82
470.762	305.83
470.971	259.72
471.18	303.51
471.39	279.48
471.599	279.29
471.808	346.32
472.018	264.37
472.227	360.27
472.436	338.19
472.645	313.58
472.855	283.55
473.064	370.74
473.273	322.3
473.482	339.15
473.691	354.27
473.901	361.44
474.11	336.25
474.319	435.64
474.528	336.83
474.737	388.37
474.946	334.89
475.155	374.03
475.364	394.57
475.573	346.71
475.783	367.83
475.992	384.49
476.201	394.37
476.41	342.06
476.619	309.32
476.828	351.94
477.037	313.97
477.245	331.02
477.454	373.64
477.663	365.12
477.872	337.02
478.081	431.57
478.29	356.79
478.499	430.22
478.708	354.07
478.917	456.18
479.125	416.85
479.334	402.12
479.543	350.78
479.752	398.05
479.961	395.73
480.169	405.61
480.378	372.48
480.587	522.05
480.796	436.03
481.004	392.05
481.213	433.32
481.422	410.26
481.63	402.12
481.839	457.34
482.048	499.96
482.256	463.93
482.465	452.88
482.674	462.18
482.882	484.27
483.091	516.05
483.299	492.6
483.508	502.48
483.716	462.57
483.925	462.77
484.134	439.9
484.342	473.81
484.551	499.77
484.759	492.02
484.967	499.96
485.176	504.23
485.384	502.1
485.593	476.13
485.801	463.93
486.01	466.45
486.218	455.4
486.426	380.23
486.635	433.12
486.843	434.67
487.051	478.85
487.26	417.23
487.468	497.83
487.676	506.16
487.885	447.07
488.093	501.9
488.301	503.45
488.509	505.39
488.717	503.26
488.926	508.88
489.134	495.51
489.342	496.67
489.55	488.53
489.758	507.52
489.967	496.48
490.175	609.43
490.383	495.31
490.591	587.93
490.799	495.9
491.007	572.81
491.215	561.58
491.423	537.75
491.631	554.8
491.839	543.36
492.047	601.88
492.255	492.41
492.463	471.29
492.671	506.36
492.879	575.53
493.087	539.3
493.295	558.67
493.503	567.78
493.711	579.59
493.919	602.26
494.127	604.39
494.334	610.4
494.542	555.96
494.75	606.14
494.958	558.67
495.166	595.29
495.374	589.48
495.581	587.15
495.789	604.98
495.997	646.83
496.205	587.73
496.412	585.6
496.62	612.14
496.828	605.36
497.035	591.03
497.243	639.27
497.451	629.58
497.658	625.71
497.866	628.23
498.074	652.25
498.281	575.91
498.489	680.34
498.696	631.91
498.904	618.34
499.112	620.67
499.319	688.48
499.527	634.62
499.734	645.08
499.942	604.98
500.149	603.62
500.357	644.5
500.564	591.8
500.771	640.04
500.979	577.85
501.186	601.29
501.394	639.27
501.601	618.54
501.808	651.86
502.016	641.98
502.223	624.16
502.43	614.47
502.638	655.54
502.845	619.89
503.052	696.23
503.26	657.87
503.467	722.58
503.674	650.31
503.881	655.35
504.089	745.25
504.296	731.3
504.503	629.58
504.71	658.84
504.917	632.68
505.125	679.37
505.332	678.99
505.539	690.61
505.746	770.24
505.953	734.4
506.16	703.4
506.367	759.39
506.574	742.15
506.781	779.15
506.988	663.29
507.195	729.36
507.402	726.26
507.609	733.24
507.816	692.16
508.023	703.4
508.23	702.82
508.437	667.56
508.644	727.23
508.851	789.42
509.058	731.88
509.265	747.96
509.472	767.53
509.679	821
509.885	746.02
510.092	746.99
510.299	767.14
510.506	768.11
510.713	747.19
510.92	758.04
511.126	761.52
511.333	796.59
511.54	788.65
511.746	811.9
511.953	828.37
512.16	829.14
512.367	774.7
512.573	796.79
512.78	790.39
512.987	773.34
513.193	815.97
513.4	731.11
513.606	804.15
513.813	817.9
514.02	792.72
514.226	868.47
514.433	839.02
514.639	770.05
514.846	843.28
515.052	789.81
515.259	833.4
515.465	817.52
515.672	828.95
515.878	902.77
516.085	839.41
516.291	880.1
516.497	805.31
516.704	818.29
516.91	787.87
517.117	740.79
517.323	739.05
517.529	766.75
517.736	772.95
517.942	788.26
518.148	781.87
518.354	811.51
518.561	809.19
518.767	817.32
518.973	868.28
519.179	868.28
519.386	822.36
519.592	794.07
519.798	814.42
520.004	913.62
520.21	849.48
520.417	906.83
520.623	936.48
520.829	937.83
521.035	950.43
521.241	907.42
521.447	965.35
521.653	1017.08
521.859	943.84
522.065	957.01
522.271	1059.12
522.477	1003.32
522.683	1014.17
522.889	976.78
523.095	1003.71
523.301	971.74
523.507	946.55
523.713	1005.84
523.919	906.45
524.125	1039.55
524.331	978.91
524.537	1060.86
524.742	1061.83
524.948	1061.64
525.154	1057.18
525.36	1147.47
525.566	1051.56
525.772	1107.56
525.977	1025.02
526.183	1088.18
526.389	1091.28
526.595	1016.3
526.8	1044.2
527.006	984.14
527.212	946.16
527.417	957.01
527.623	985.88
527.829	1031.8
528.034	1036.26
528.24	1050.01
528.446	998.09
528.651	1096.71
528.857	1127.51
529.062	1158.12
529.268	1090.7
529.473	1087.99
529.679	1099.61
529.884	1164.52
530.09	1168.78
530.295	1191.25
530.501	1184.28
530.706	1161.22
530.912	1102.13
531.117	1130.61
531.323	1156.19
531.528	1170.91
531.733	1197.84
531.939	1131.19
532.144	1161.61
532.35	1193.58
532.555	1191.06
532.76	1177.5
532.966	1186.22
533.171	1153.28
533.376	1125.77
533.581	1118.41
533.787	1170.91
533.992	1156.77
534.197	1180.02
534.402	1165.87
534.607	1165.1
534.813	1273.98
535.018	1159.48
535.223	1210.82
535.428	1225.74
535.633	1266.24
535.838	1221.87
536.043	1232.91
536.249	1293.36
536.454	1248.8
536.659	1260.62
536.864	1220.32
537.069	1218.96
537.274	1253.25
537.479	1258.68
537.684	1229.04
537.889	1188.74
538.094	1311.77
538.299	1218.57
538.504	1262.94
538.708	1282.32
538.913	1279.22
539.118	1260.42
539.323	1279.41
539.528	1217.02
539.733	1211.79
539.938	1258.87
540.142	1275.53
540.347	1237.56
540.552	1199.97
540.757	1251.7
540.962	1233.3
541.166	1179.82
541.371	1205.01
541.576	1249.77
541.781	1140.49
541.985	1250.93
542.19	1265.27
542.395	1292.58
542.599	1335.79
542.804	1313.32
543.008	1327.46
543.213	1260.23
543.418	1237.56
543.622	1283.67
543.827	1226.71
544.031	1328.62
544.236	1363.11
544.44	1305.18
544.645	1362.14
544.849	1293.75
545.054	1315.64
545.258	1384.03
545.463	1355.16
545.667	1249.38
545.872	1301.88
546.076	1343.73
546.281	1332.5
546.485	1271.27
546.689	1327.27
546.894	1317.77
547.098	1318.35
547.302	1316.42
547.507	1288.52
547.711	1347.8
547.915	1392.17
548.119	1302.47
548.324	1297.23
548.528	1395.08
548.732	1331.53
548.936	1372.41
549.141	1394.11
549.345	1305.57
549.549	1348.97
549.753	1350.71
549.957	1380.93
550.161	1390.04
550.366	1346.64
550.57	1330.95
550.774	1356.13
550.978	1318.35
551.182	1359.62
551.386	1328.04
551.59	1322.03
551.794	1329.59
551.998	1367.76
552.202	1357.88
552.406	1322.42
552.61	1354
552.814	1331.72
553.018	1425.11
553.222	1333.47
553.426	1379.58
553.63	1414.65
553.833	1353.23
554.037	1330.56
554.241	1418.33
554.445	1375.9
554.649	1381.9
554.853	1339.47
555.056	1416
555.26	1377.06
555.464	1371.05
555.668	1400.89
555.871	1389.85
556.075	1383.65
556.279	1319.32
556.483	1351.48
556.686	1360.4
556.89	1357.3
557.094	1361.17
557.297	1292.97
557.501	1390.81
557.704	1288.52
557.908	1389.46
558.112	1319.13
558.315	1405.15
558.519	1317.38
558.722	1338.31
558.926	1311.57
559.129	1241.05
559.333	1269.72
559.536	1262.75
559.74	1241.82
559.943	1265.46
560.147	1257.52
560.35	1283.09
560.553	1318.55
560.757	1213.54
560.96	1337.34
561.164	1264.1
561.367	1354.78
561.57	1317.58
561.774	1304.79
561.977	1291.03
562.18	1244.54
562.384	1343.93
562.587	1309.44
562.79	1259.84
562.993	1265.27
563.197	1316.22
563.4	1369.31
563.603	1318.35
563.806	1348.19
564.009	1235.82
564.212	1333.85
564.416	1221.48
564.619	1295.3
564.822	1228.65
565.025	1272.63
565.228	1267.78
565.431	1290.07
565.634	1206.56
565.837	1213.15
566.04	1208.69
566.243	1247.44
566.446	1145.34
566.649	1269.72
566.852	1191.25
567.055	1226.32
567.258	1234.07
567.461	1309.44
567.664	1311.18
567.867	1178.27
568.07	1239.69
568.273	1223.22
568.475	1284.83
568.678	1210.63
568.881	1186.6
569.084	1202.3
569.287	1115.11
569.489	1146.69
569.692	1252.09
569.895	1237.17
570.098	1130.22
570.3	1133.52
570.503	1090.89
570.706	1139.52
570.909	1127.71
571.111	1096.12
571.314	1093.22
571.516	1126.93
571.719	1119.96
571.922	1124.22
572.124	1138.56
572.327	1167.23
572.529	1069.58
572.732	1088.18
572.935	1137.39
573.137	1180.02
573.34	1096.9
573.542	1151.34
573.745	1120.54
573.947	1149.41
574.15	1106.97
574.352	1082.37
574.554	1213.15
574.757	1089.34
574.959	1081.4
575.162	1068.81
575.364	1085.47
575.566	1201.52
575.769	1062.8
575.971	1077.72
576.173	1032.96
576.376	1056.02
576.578	1106.39
576.78	1146.69
576.982	977.36
577.185	1061.44
577.387	1019.21
577.589	1028.51
577.791	1077.14
577.993	1087.41
578.196	1039.94
578.398	1060.48
578.6	1099.61
578.802	1007.39
579.004	992.66
579.206	1029.86
579.408	1065.9
579.61	1065.9
579.812	1071.91
580.014	1036.26
580.216	1035.68
580.418	1028.89
580.62	1025.79
580.822	987.24
581.024	1055.63
581.226	1072.1
581.428	1031.22
581.63	1107.94
581.832	1026.18
582.034	1077.33
582.236	1083.73
582.438	1119.96
582.64	1107.75
582.841	1138.56
583.043	1143.79
583.245	1095.93
583.447	1059.51
583.649	1088.96
583.85	1085.47
584.052	1129.64
584.254	1045.75
584.456	1120.92
584.657	1044.78
584.859	1071.91
585.061	1069.97
585.262	1060.28
585.464	1008.74
585.666	1072.1
585.867	1038
586.069	1087.41
586.27	1089.54
586.472	1066.09
586.674	1029.86
586.875	1024.24
587.077	1019.79
587.278	1042.26
587.48	1023.28
587.681	1134.1
587.883	1074.23
588.084	1013.2
588.285	994.8
588.487	996.35
588.688	1049.63
588.89	966.31
589.091	959.15
589.292	958.18
589.494	905.09
589.695	904.51
589.896	833.6
590.098	863.24
590.299	932.6
590.5	865.76
590.702	889.01
590.903	921.75
591.104	991.5
591.305	952.36
591.507	994.21
591.708	960.7
591.909	935.31
592.11	997.51
592.311	965.93
592.512	944.03
592.714	896.18
592.915	957.21
593.116	926.21
593.317	944.23
593.518	973.87
593.719	965.35
593.92	999.45
594.121	992.08
594.322	947.71
594.523	968.45
594.724	945.78
594.925	928.53
595.126	995.76
595.327	995.18
595.528	949.26
595.729	973.68
595.929	971.16
596.13	964.76
596.331	996.35
596.532	947.71
596.733	1029.48
596.934	993.05
597.135	968.25
597.335	1000.8
597.536	937.06
597.737	961.86
597.938	923.11
598.138	949.85
598.339	939.96
598.54	952.56
598.74	946.55
598.941	948.68
599.142	1007.39
599.342	970.58
599.543	953.91
599.744	950.43
599.944	968.25
600.145	935.9
600.345	964.18
600.546	1001
600.746	979.88
600.947	1021.73
601.147	961.08
601.348	977.16
601.548	907.61
601.749	979.3
601.949	931.05
602.15	915.94
602.35	931.44
602.551	949.46
602.751	922.14
602.951	916.13
603.152	864.79
603.352	936.48
603.552	947.33
603.753	950.62
603.953	984.14
604.153	969.22
604.354	914.2
604.554	961.66
604.754	937.25
604.954	922.53
605.155	948.88
605.355	951.98
605.555	988.6
605.755	1004.48
605.955	959.73
606.155	1005.26
606.356	965.35
606.556	977.94
606.756	973.68
606.956	943.06
607.156	1007.97
607.356	924.85
607.556	981.04
607.756	968.06
607.956	978.33
608.156	934.93
608.356	929.7
608.556	965.15
608.756	950.62
608.956	894.43
609.156	931.44
609.356	876.42
609.556	890.56
609.755	943.65
609.955	901.22
610.155	919.04
610.355	897.92
610.555	917.68
610.755	918.07
610.954	860.33
611.154	898.12
611.354	924.85
611.554	905.87
611.753	897.92
611.953	857.23
612.153	897.92
612.352	916.13
612.552	854.91
612.752	794.46
612.951	873.9
613.151	869.05
613.351	845.61
613.55	866.15
613.75	887.65
613.949	866.15
614.149	889.59
614.348	884.36
614.548	836.5
614.747	813.84
614.947	848.13
615.146	774.89
615.346	888.62
615.545	858.2
615.745	852.78
615.944	884.55
616.144	843.09
616.343	885.33
616.542	830.3
616.742	808.8
616.941	808.8
617.14	762.3
617.34	841.73
617.539	822.55
617.738	789.42
617.938	898.7
618.137	842.12
618.336	812.67
618.535	882.62
618.734	843.87
618.934	839.6
619.133	857.82
619.332	820.23
619.531	792.91
619.73	845.61
619.929	883.2
620.128	847.93
620.328	891.53
620.527	821.2
620.726	828.56
620.925	873.9
621.124	808.22
621.323	848.9
621.522	805.5
621.721	821.59
621.92	779.93
622.119	852.97
622.318	783.61
622.517	808.22
622.715	842.51
622.914	775.28
623.113	848.9
623.312	802.4
623.511	787.49
623.71	794.46
623.909	805.89
624.107	856.27
624.306	762.88
624.505	751.06
624.704	787.29
624.902	777.41
625.101	828.95
625.3	814.8
625.499	751.25
625.697	768.3
625.896	744.67
626.095	781.87
626.293	751.84
626.492	742.34
626.69	782.45
626.889	746.02
627.088	847.55
627.286	743.89
627.485	729.75
627.683	762.88
627.882	779.15
628.08	684.61
628.279	732.85
628.477	802.02
628.676	714.83
628.874	785.35
629.073	719.67
629.271	676.47
629.469	768.89
629.668	727.81
629.866	707.86
630.065	693.91
630.263	738.27
630.461	736.72
630.66	779.54
630.858	771.99
631.056	772.18
631.254	785.16
631.453	707.47
631.651	788.45
631.849	742.54
632.047	740.79
632.245	734.01
632.444	739.24
632.642	767.14
632.84	744.47
633.038	730.52
633.236	708.24
633.434	705.14
633.632	712.7
633.83	696.62
634.028	755.71
634.227	725.49
634.425	824.88
634.623	743.7
634.821	742.34
635.019	759.2
635.216	698.75
635.414	784.58
635.612	750.09
635.81	734.98
636.008	802.99
636.206	736.72
636.404	773.92
636.602	654.77
636.8	712.12
636.997	773.54
637.195	783.22
637.393	724.91
637.591	784.77
637.789	757.07
637.986	761.52
638.184	780.12
638.382	790.78
638.58	802.6
638.777	803.76
638.975	739.82
639.173	730.72
639.37	770.63
639.568	759.59
639.765	794.07
639.963	723.36
640.161	774.5
640.358	801.63
640.556	719.09
640.753	695.84
640.951	701.66
641.148	756.29
641.346	735.95
641.543	707.86
641.741	759.59
641.938	703.4
642.136	716.77
642.333	706.31
642.531	781.67
642.728	793.69
642.925	754.94
643.123	705.34
643.32	759
643.517	712.51
643.715	741.96
643.912	689.84
644.109	760.94
644.306	715.02
644.504	671.43
644.701	714.83
644.898	725.1
645.095	685.19
645.293	716.96
645.49	719.29
645.687	730.72
645.884	738.27
646.081	641.98
646.278	686.35
646.475	670.85
646.672	678.79
646.87	717.74
647.067	704.76
647.264	690.81
647.461	635.59
647.658	636.56
647.855	691.19
648.052	652.06
648.249	582.69
648.446	619.31
648.642	617.96
648.839	647.02
649.036	627.84
649.233	594.13
649.43	609.43
649.627	582.31
649.824	607.3
650.021	603.23
650.217	623.19
650.414	650.12
650.611	638.11
650.808	684.8
651.004	658.06
651.201	658.06
651.398	696.23
651.595	630.55
651.791	628.61
651.988	668.91
652.185	631.33
652.381	641.21
652.578	607.3
652.775	660.19
652.971	599.94
653.168	637.91
653.364	676.66
653.561	584.63
653.757	627.06
653.954	617.57
654.15	606.91
654.347	670.07
654.543	642.76
654.74	586.57
654.936	584.44
655.133	607.69
655.329	612.53
655.525	609.04
655.722	635.39
655.918	582.89
656.115	608.46
656.311	536.97
656.507	502.68
656.704	504.42
656.9	492.21
657.096	499.77
657.292	525.35
657.489	585.6
657.685	560.61
657.881	534.65
658.077	553.83
658.273	547.82
658.47	645.08
658.666	591.8
658.862	630.94
659.058	585.79
659.254	616.6
659.45	574.56
659.646	606.91
659.842	595.09
660.038	655.93
660.234	545.5
660.43	579.21
660.626	659.22
660.822	605.75
661.018	645.08
661.214	600.91
661.41	549.76
661.606	605.75
661.802	616.99
661.998	573.2
662.194	583.28
662.39	611.18
662.586	613.11
662.781	608.08
662.977	604.98
663.173	633.46
663.369	587.15
663.564	582.89
663.76	614.08
663.956	565.26
664.152	593.93
664.347	543.75
664.543	578.82
664.739	588.7
664.934	533.48
665.13	511.78
665.326	601.49
665.521	569.13
665.717	556.35
665.912	531.93
666.108	480.4
666.304	523.02
666.499	564.68
666.695	506.94
666.89	557.7
667.086	581.34
667.281	554.6
667.477	619.89
667.672	558.09
667.867	548.01
668.063	602.65
668.258	540.07
668.454	584.63
668.649	624.93
668.844	568.55
669.04	604.01
669.235	543.17
669.43	537.94
669.626	514.69
669.821	539.1
670.016	518.18
670.211	552.86
670.407	514.3
670.602	540.26
670.797	509.85
670.992	566.03
671.187	504.81
671.382	549.95
671.578	516.63
671.773	561.77
671.968	484.08
672.163	540.26
672.358	564.1
672.553	501.32
672.748	526.9
672.943	587.73
673.138	523.8
673.333	584.44
673.528	476.33
673.723	527.48
673.918	511.01
674.113	481.95
674.308	589.09
674.503	541.23
674.698	553.83
674.892	520.5
675.087	573.59
675.282	535.42
675.477	524.18
675.672	538.52
675.867	540.85
676.061	486.4
676.256	475.55
676.451	475.94
676.646	544.91
676.84	503.26
677.035	463.73
677.23	513.14
677.424	534.84
677.619	544.72
677.814	525.35
678.008	566.03
678.203	454.43
678.397	503.26
678.592	515.46
678.787	570.88
678.981	540.07
679.176	535.23
679.37	490.86
679.565	492.41
679.759	511.78
679.954	542.78
680.148	561.96
680.342	554.8
680.537	547.82
680.731	512.56
680.926	528.25
681.12	541.62
681.314	502.48
681.509	508.49
681.703	493.96
681.897	526.31
682.092	502.87
682.286	491.25
682.48	581.73
682.674	537.94
682.869	495.9
683.063	507.52
683.257	574.75
683.451	475.17
683.645	526.9
683.839	522.44
684.034	516.05
684.228	548.4
684.422	477.3
684.616	493.38
684.81	516.24
685.004	500.16
685.198	516.05
685.392	558.86
685.586	507.71
685.78	522.05
685.974	510.43
686.168	551.31
686.362	578.82
686.556	488.73
686.75	462.38
686.944	469.93
687.138	483.3
687.331	388.56
687.525	403.09
687.719	373.06
687.913	437.19
688.107	431.38
688.301	386.62
688.494	453.66
688.688	416.46
688.882	370.35
689.076	390.69
689.269	415.1
689.463	520.31
689.657	418.59
689.85	416.07
690.044	447.07
690.238	431.38
690.431	430.41
690.625	450.17
690.818	470.9
691.012	463.35
691.205	492.21
691.399	437.58
691.593	503.26
691.786	516.82
691.98	545.88
692.173	569.13
692.366	512.75
692.56	549.18
692.753	553.63
692.947	516.05
693.14	586.76
693.333	543.56
693.527	463.73
693.72	545.69
693.914	543.36
694.107	525.73
694.3	554.6
694.493	565.06
694.687	601.1
694.88	536.39
695.073	601.1
695.266	603.43
695.46	569.13
695.653	633.26
695.846	658.06
696.039	567.97
696.232	588.89
696.425	611.56
696.618	605.94
696.812	611.76
697.005	686.74
697.198	744.28
697.391	658.06
697.584	694.87
697.777	728.59
697.97	717.35
698.163	701.27
698.356	712.31
698.549	819.65
698.742	758.42
698.935	680.73
699.127	741.76
699.32	704.17
699.513	725.49
699.706	760.17
699.899	766.56
700.092	722.39
700.285	765.79
700.477	703.21
700.67	774.7
700.863	793.69
701.056	873.12
701.248	813.84
701.441	833.21
701.634	780.32
701.826	912.26
702.019	789.62
702.212	868.47
702.404	808.22
702.597	787.49
702.79	836.31
702.982	857.04
703.175	895.02
703.367	902.57
703.56	897.92
703.752	952.36
703.945	933.38
704.137	966.12
704.33	965.35
704.522	953.14
704.715	965.15
704.907	996.35
705.1	1029.67
705.292	1040.33
705.484	1000.61
705.677	1051.37
705.869	1012.81
706.061	1048.27
706.254	1082.95
706.446	1058.93
706.638	1061.25
706.831	1105.81
707.023	1035.48
707.215	1175.37
707.407	1137.59
707.599	1102.52
707.792	1207.72
707.984	1148.63
708.176	1199.2
708.368	1138.56
708.56	1207.34
708.752	1168.39
708.944	1159.29
709.136	1218.38
709.329	1198.04
709.521	1336.95
709.713	1243.57
709.905	1258.68
710.097	1300.53
710.289	1202.49
710.481	1235.24
710.672	1278.83
710.864	1291.81
711.056	1341.99
711.248	1317
711.44	1324.36
711.632	1363.69
711.824	1324.17
712.016	1363.88
712.207	1394.5
712.399	1367.37
712.591	1484.39
712.783	1394.5
712.975	1446.03
713.166	1354.97
713.358	1446.42
713.55	1479.74
713.741	1489.43
713.933	1464.05
714.125	1473.16
714.316	1415.23
714.508	1491.56
714.7	1490.21
714.891	1522.95
715.083	1570.81
715.274	1490.21
715.466	1508.81
715.657	1539.22
715.849	1457.08
716.04	1520.43
716.232	1434.21
716.423	1538.26
716.615	1443.71
716.806	1417.94
716.998	1408.25
717.189	1338.89
717.381	1244.73
717.572	1222.64
717.763	1317.19
717.955	1276.89
718.146	1266.62
718.337	1220.7
718.528	1203.85
718.72	1137.39
718.911	1212.95
719.102	1168.01
719.293	1261.97
719.485	1176.53
719.676	1195.32
719.867	1172.46
720.058	1167.81
720.249	1168.01
720.44	1184.67
720.632	1232.91
720.823	1279.6
721.014	1347.03
721.205	1371.63
721.396	1425.88
721.587	1486.53
721.778	1496.6
721.969	1534.96
722.16	1593.47
722.351	1592.89
722.542	1670.59
722.733	1680.85
722.924	1607.62
723.115	1608.97
723.305	1659.15
723.496	1652.18
723.687	1555.11
723.878	1532.44
724.069	1571
724.26	1566.93
724.45	1542.91
724.641	1523.53
724.832	1549.69
725.023	1555.89
725.213	1534.57
725.404	1487.3
725.595	1528.96
725.785	1495.05
725.976	1566.54
726.167	1564.61
726.357	1546.97
726.548	1687.05
726.739	1564.41
726.929	1628.54
727.12	1664.39
727.31	1679.11
727.501	1626.41
727.691	1647.34
727.882	1682.99
728.072	1698.1
728.263	1706.43
728.453	1739.37
728.644	1698.87
728.834	1673.1
729.024	1656.05
729.215	1692.87
729.405	1721.93
729.596	1775.98
729.786	1786.64
729.976	1762.42
730.167	1809.11
730.357	1765.13
730.547	1774.43
730.737	1814.73
730.928	1842.83
731.118	1860.26
731.308	1823.06
731.498	1798.85
731.688	1892.04
731.879	1903.86
732.069	1960.82
732.259	1953.07
732.449	1999.37
732.639	2021.46
732.829	2101.48
733.019	2066.99
733.209	2131.7
733.399	2090.82
733.589	2194.48
733.779	2183.05
733.969	2218.5
734.159	2250.08
734.349	2275.27
734.539	2312.47
734.729	2294.84
734.919	2348.12
735.109	2381.44
735.299	2298.91
735.488	2344.24
735.678	2333.01
735.868	2351.8
736.058	2345.79
736.248	2328.94
736.437	2329.91
736.627	2274.11
736.817	2391.13
737.007	2347.15
737.196	2413.61
737.386	2343.47
737.576	2334.17
737.765	2395.98
737.955	2399.27
738.144	2467.08
738.334	2457.39
738.524	2392.49
738.713	2477.54
738.903	2441.12
739.092	2430.46
739.282	2528.5
739.471	2478.32
739.661	2472.31
739.85	2443.25
740.04	2475.99
740.229	2515.71
740.419	2531.02
740.608	2529.47
740.797	2521.91
740.987	2546.52
741.176	2582.94
741.365	2513
741.555	2496.34
741.744	2586.43
741.933	2548.84
742.123	2597.08
742.312	2575
742.501	2591.08
742.69	2589.53
742.88	2527.72
743.069	2713.33
743.258	2625.37
743.447	2674.39
743.636	2671.87
743.825	2596.7
744.014	2609.1
744.204	2685.05
744.393	2582.75
744.582	2702.68
744.771	2696.28
744.96	2614.91
745.149	2695.51
745.338	2611.81
745.527	2657.15
745.716	2646.49
745.905	2629.63
746.094	2660.05
746.283	2708.3
746.471	2683.69
746.66	2730.38
746.849	2711.59
747.038	2708.3
747.227	2677.49
747.416	2680.59
747.604	2671.29
747.793	2673.81
747.982	2695.12
748.171	2699.19
748.359	2688.53
748.548	2725.73
748.737	2666.64
748.926	2676.52
749.114	2571.9
749.303	2686.79
749.491	2681.95
749.68	2628.47
749.869	2704.23
750.057	2640.1
750.246	2633.7
750.434	2648.43
750.623	2634.87
750.811	2663.93
751	2649.98
751.188	2639.13
751.377	2637.58
751.565	2647.85
751.754	2598.83
751.942	2611.62
752.131	2665.86
752.319	2609.48
752.507	2569.96
752.696	2668.38
752.884	2661.8
753.072	2609.48
753.261	2619.17
753.449	2647.07
753.637	2590.11
753.825	2697.83
754.014	2640.48
754.202	2626.15
754.39	2725.93
754.578	2699.77
754.766	2625.18
754.955	2594.76
755.143	2679.62
755.331	2589.72
755.519	2588.95
755.707	2620.14
755.895	2600.96
756.083	2618.01
756.271	2575.97
756.459	2575.19
756.647	2617.82
756.835	2607.74
757.023	2568.41
757.211	2571.12
757.399	2557.17
757.587	2537.41
757.775	2540.51
757.963	2517.26
758.151	2529.27
758.339	2474.25
758.526	2480.26
758.714	2519.59
758.902	2427.56
759.09	2389.97
759.278	2219.28
759.465	2060.99
759.653	1762.42
759.841	1597.16
760.028	1365.63
760.216	1173.43
760.404	1160.26
760.591	884.17
760.779	759
760.967	687.9
761.154	536.97
761.342	605.17
761.529	581.14
761.717	680.92
761.905	632.1
762.092	737.11
762.28	666.2
762.467	658.06
762.655	576.49
762.842	625.9
763.029	653.22
763.217	639.46
763.404	638.69
763.592	651.86
763.779	626.48
763.966	655.93
764.154	711.34
764.341	770.82
764.528	748.15
764.716	776.44
764.903	861.3
765.09	883.97
765.277	907.22
765.465	1069.19
765.652	1106.97
765.839	1149.21
766.026	1245.31
766.213	1251.51
766.4	1355.94
766.588	1529.92
766.775	1488.27
766.962	1588.82
767.149	1641.72
767.336	1780.83
767.523	1706.62
767.71	1813.76
767.897	1885.06
768.084	1967.99
768.271	1961.79
768.458	2031.92
768.645	2079.39
768.832	2073.97
769.019	2091.21
769.206	2110.2
769.392	2147.78
769.579	2242.72
769.766	2181.11
769.953	2207.85
770.14	2241.95
770.327	2247.18
770.513	2283.02
770.7	2326.03
770.887	2213.08
771.073	2308.01
771.26	2274.11
771.447	2266.55
771.634	2225.48
771.82	2343.28
772.007	2246.01
772.193	2269.07
772.38	2301.81
772.567	2285.15
772.753	2281.47
772.94	2335.72
773.126	2332.81
773.313	2318.67
773.499	2310.53
773.686	2348.31
773.872	2257.64
774.059	2299.1
774.245	2251.83
774.432	2296.58
774.618	2181.3
774.804	2296
774.991	2215.02
775.177	2291.16
775.363	2270.04
775.55	2258.41
775.736	2185.57
775.922	2236.52
776.109	2259.58
776.295	2252.02
776.481	2266.16
776.667	2296
776.853	2248.73
777.04	2218.31
777.226	2232.06
777.412	2302.98
777.598	2213.85
777.784	2187.89
777.97	2178.01
778.156	2243.88
778.342	2215.02
778.528	2197
778.715	2147.98
778.901	2164.64
779.087	2223.35
779.272	2174.52
779.458	2146.04
779.644	2172
779.83	2157.08
780.016	2269.85
780.202	2171.62
780.388	2149.33
780.574	2106.71
780.76	2111.94
780.946	2176.85
781.131	2155.53
781.317	2142.94
781.503	2139.45
781.689	2105.55
781.874	2256.86
782.06	2098.96
782.246	2126.09
782.432	2123.95
782.617	2161.93
782.803	2144.3
782.989	2042.58
783.174	2087.92
783.36	2039.29
783.545	2094.12
783.731	2062.15
783.916	1989.11
784.102	2088.89
784.288	2046.46
784.473	2052.27
784.659	2044.13
784.844	2097.99
785.029	2022.82
785.215	2014.68
785.4	1978.26
785.586	2091.21
785.771	1981.74
785.956	2041.81
786.142	2024.95
786.327	1984.46
786.512	1980.19
786.698	1969.92
786.883	1922.46
787.068	1940.67
787.254	1995.69
787.439	1937.57
787.624	1949.97
787.809	1936.99
787.994	1952.1
788.18	2044.32
788.365	1875.76
788.55	1881.38
788.735	1878.48
788.92	1908.89
789.105	1921.29
789.29	1913.93
789.475	1843.41
789.66	1845.54
789.845	1853.87
790.03	1842.25
790.215	1906.96
790.4	1897.27
790.585	1906.96
790.77	1873.25
790.955	1817.83
791.14	1865.11
791.325	1944.35
791.51	1779.47
791.695	1832.56
791.879	1817.25
792.064	1776.18
792.249	1881.19
792.434	1805.05
792.618	1826.16
792.803	1878.28
792.988	1791.68
793.173	1839.53
793.357	1878.09
793.542	1800.01
793.727	1833.14
793.911	1903.08
794.096	1845.35
794.281	1851.35
794.465	1908.51
794.65	1842.63
794.834	1850.38
795.019	1896.11
795.203	1907.34
795.388	1901.34
795.572	1932.92
795.757	1889.52
795.941	1868.6
796.126	1913.74
796.31	1814.93
796.494	1854.45
796.679	1827.13
796.863	1825
797.048	1898.24
797.232	1835.46
797.416	1877.31
797.601	1820.35
797.785	1928.85
797.969	1945.9
798.153	1848.83
798.338	1896.11
798.522	1921.68
798.706	1871.31
798.89	1911.03
799.074	2015.84
799.258	1953.84
799.443	1884.29
799.627	1866.27
799.811	1937.18
799.995	1879.25
800.179	1857.16
800.363	1877.7
800.547	1912.58
800.731	1962.18
800.915	1856.58
801.099	1864.72
801.283	1892.81
801.467	1898.82
801.651	1859.3
801.835	1928.66
802.019	1876.73
802.202	1931.95
802.386	1849.8
802.57	1842.05
802.754	1850.38
802.938	1835.46
803.121	1890.68
803.305	1903.86
803.489	1857.75
803.673	1877.12
803.856	1875.18
804.04	1894.17
804.224	1895.14
804.407	1850.58
804.591	1890.29
804.775	1888.36
804.958	1868.01
805.142	1940.48
805.326	1881.77
805.509	1900.37
805.693	1950.74
805.876	1920.33
806.06	1905.02
806.243	1912.96
806.427	1936.99
806.61	1961.01
806.794	1842.83
806.977	1959.27
807.16	1916.45
807.344	1900.76
807.527	1903.66
807.71	1863.17
807.894	1910.83
808.077	1929.43
808.26	1883.9
808.444	1872.66
808.627	1926.33
808.81	1864.53
808.993	1793.03
809.177	1794.39
809.36	1842.63
809.543	1856.39
809.726	1786.25
809.909	1779.28
810.092	1772.11
810.276	1769.98
810.459	1793.03
810.642	1765.33
810.825	1725.22
811.008	1766.49
811.191	1630.29
811.374	1702.94
811.557	1733.55
811.74	1775.79
811.923	1612.85
812.106	1666.52
812.289	1628.54
812.472	1652.18
812.654	1635.71
812.837	1630.67
813.02	1599.87
813.203	1552.98
813.386	1470.83
813.569	1494.47
813.751	1450.1
813.934	1489.82
814.117	1454.56
814.3	1439.25
814.482	1411.16
814.665	1375.12
814.848	1359.23
815.03	1279.8
815.213	1303.43
815.396	1298.78
815.578	1264.1
815.761	1268.17
815.943	1317
816.126	1214.12
816.309	1194.35
816.491	1127.9
816.674	1117.44
816.856	1158.12
817.039	1140.49
817.221	1231.75
817.403	1155.41
817.586	1202.1
817.768	1178.66
817.951	1122.67
818.133	1126.16
818.315	1149.41
818.498	1179.24
818.68	1251.7
818.862	1205.4
819.045	1223.03
819.227	1210.63
819.409	1181.18
819.591	1230.2
819.774	1185.83
819.956	1172.27
820.138	1253.64
820.32	1218.57
820.502	1270.3
820.684	1324.36
820.866	1328.23
821.048	1364.27
821.231	1365.63
821.413	1354.39
821.595	1335.02
821.777	1343.54
821.959	1339.47
822.141	1415.23
822.323	1266.62
822.505	1224.19
822.686	1166.84
822.868	1181.76
823.05	1069.97
823.232	1054.08
823.414	1000.03
823.596	1072.88
823.778	1050.59
823.96	1105.23
824.141	1055.44
824.323	1055.83
824.505	1173.43
824.687	1203.85
824.868	1221.87
825.05	1294.91
825.232	1331.72
825.413	1390.23
825.595	1340.63
825.777	1255.97
825.958	1315.06
826.14	1264.49
826.321	1332.5
826.503	1278.63
826.685	1316.03
826.866	1340.83
827.048	1346.25
827.229	1290.07
827.411	1240.08
827.592	1194.16
827.773	1255.58
827.955	1172.07
828.136	1224.97
828.318	1165.87
828.499	1171.11
828.68	1123.83
828.862	1209.27
829.043	1211.21
829.224	1186.99
829.406	1126.35
829.587	1151.34
829.768	1144.17
829.949	1215.67
830.131	1192.61
830.312	1230.59
830.493	1192.8
830.674	1196.68
830.855	1173.62
831.036	1170.52
831.218	1232.33
831.399	1266.82
831.58	1206.17
831.761	1183.5
831.942	1191.84
832.123	1165.87
832.304	1155.41
832.485	1163.94
832.666	1183.12
832.847	1198.23
833.028	1179.44
833.209	1166.84
833.389	1169.94
833.57	1140.3
833.751	1144.56
833.932	1192.22
834.113	1161.22
834.294	1147.47
834.475	1218.77
834.655	1217.02
834.836	1211.02
835.017	1233.69
835.198	1143.98
835.378	1194.94
835.559	1243.57
835.74	1209.47
835.92	1174.79
836.101	1167.23
836.281	1219.74
836.462	1205.2
836.643	1251.12
836.823	1242.99
837.004	1231.94
837.184	1304.02
837.365	1242.4
837.545	1305.18
837.726	1237.56
837.906	1255.39
838.087	1229.62
838.267	1255.39
838.448	1164.71
838.628	1224.19
838.808	1203.65
838.989	1302.66
839.169	1187.96
839.349	1255.39
839.53	1286.38
839.71	1265.27
839.89	1221.48
840.07	1295.49
840.251	1191.06
840.431	1259.26
840.611	1213.54
840.791	1197.45
840.971	1244.34
841.151	1211.21
841.332	1192.61
841.512	1265.27
841.692	1172.07
841.872	1231.75
842.052	1224.97
842.232	1235.43
842.412	1164.91
842.592	1214.5
842.772	1232.14
842.952	1221.09
843.132	1190.67
843.312	1172.85
843.492	1163.36
843.672	1234.85
843.851	1156.19
844.031	1194.55
844.211	1161.61
844.391	1154.64
844.571	1201.91
844.751	1206.95
844.93	1198.04
845.11	1174.98
845.29	1194.55
845.47	1226.9
845.649	1212.18
845.829	1192.03
846.009	1166.46
846.188	1185.64
846.368	1177.5
846.547	1186.6
846.727	1202.69
846.907	1154.44
847.086	1210.82
847.266	1196.68
847.445	1179.63
847.625	1171.11
847.804	1140.49
847.984	1170.52
848.163	1155.99
848.343	1167.62
848.522	1167.23
848.701	1156.77
848.881	1114.92
849.06	1131.39
849.239	1209.08
849.419	1144.17
849.598	1065.71
849.777	1106.97
849.957	1093.61
850.136	1044.98
850.315	1048.08
850.494	1041.68
850.674	1042.07
850.853	1076.75
851.032	1064.74
851.211	1116.66
851.39	1070.74
851.569	1037.23
851.748	1019.59
851.927	1113.56
852.107	1071.13
852.286	1049.82
852.465	1040.33
852.644	1120.73
852.823	1090.12
853.002	1083.34
853.181	1084.69
853.359	1075.2
853.538	1034.51
853.717	1096.12
853.896	1000.8
854.075	942.29
854.254	963.02
854.433	902.57
854.611	945.39
854.79	896.37
854.969	958.95
855.148	969.41
855.327	914.39
855.505	954.88
855.684	947.71
855.863	961.66
856.041	946.55
856.22	988.21
856.399	970.38
856.577	1025.41
856.756	1043.62
856.934	1119.18
857.113	1101.74
857.291	1023.28
857.47	1025.41
857.648	1030.64
857.827	1035.48
858.005	1054.86
858.184	976.78
858.362	1073.65
858.541	1023.08
858.719	1052.92
858.898	1049.24
859.076	1009.52
859.254	1098.84
859.433	993.44
859.611	981.62
859.789	980.46
859.967	1072.1
860.146	1066.68
860.324	978.71
860.502	1015.91
860.68	920.01
860.859	965.73
861.037	988.21
861.215	992.66
861.393	999.06
861.571	962.05
861.749	979.88
861.927	998.67
862.105	1001
862.283	986.08
862.461	975.81
862.639	950.04
862.817	941.32
862.995	957.21
863.173	933.76
863.351	957.21
863.529	976.97
863.707	1020.18
863.885	964.96
864.063	912.07
864.241	919.04
864.418	1009.91
864.596	916.72
864.774	904.7
864.952	930.28
865.129	972.51
865.307	919.62
865.485	854.72
865.663	940.55
865.84	876.22
866.018	891.14
866.196	772.37
866.373	819.26
866.551	805.5
866.728	746.99
866.906	806.86
867.084	794.85
867.261	844.83
867.439	841.73
867.616	912.65
867.794	848.32
867.971	893.08
868.149	855.3
868.326	897.15
868.503	906.45
868.681	878.93
868.858	843.87
869.035	839.02
869.213	908.97
869.39	840.96
869.567	951.2
869.745	869.25
869.922	865.37
870.099	906.83
870.276	905.67
870.454	869.63
870.631	890.75
870.808	851.03
870.985	916.72
871.162	921.36
871.339	901.02
871.517	835.15
871.694	831.66
871.871	846.97
872.048	851.03
872.225	842.51
872.402	857.82
872.579	808.02
872.756	851.62
872.933	833.98
873.11	828.75
873.287	854.33
873.463	827.2
873.64	788.84
873.817	858.78
873.994	817.52
874.171	830.88
874.348	834.76
874.524	769.47
874.701	830.11
874.878	752.8
875.055	836.7
875.231	814.22
875.408	855.1
875.585	758.23
875.762	806.67
875.938	817.71
876.115	802.21
876.291	802.99
876.468	776.64
876.645	736.14
876.821	774.12
876.998	803.57
877.174	818.87
877.351	787.29
877.527	752.61
877.704	811.7
877.88	785.94
878.057	778.77
878.233	840.96
878.409	784.77
878.586	780.9
878.762	800.85
878.938	767.53
879.115	708.44
879.291	770.44
879.467	718.71
879.644	753.97
879.82	769.08
879.996	741.57
880.172	700.88
880.349	773.54
880.525	740.79
880.701	729.94
880.877	731.88
881.053	756.29
881.229	722.39
881.405	788.45
881.581	722.58
881.757	764.82
881.933	739.63
882.109	771.79
882.285	736.34
882.461	706.31
882.637	735.76
882.813	720.64
882.989	721.61
883.165	793.49
883.341	685.57
883.517	748.54
883.693	748.15
883.869	734.01
884.044	715.8
884.22	757.45
884.396	797.17
884.572	787.1
884.747	793.1
884.923	753.39
885.099	769.08
885.275	785.16
885.45	725.49
885.626	699.72
885.801	699.14
885.977	720.06
886.153	705.53
886.328	758.42
886.504	738.66
886.679	770.63
886.855	736.53
887.03	752.22
887.206	762.1
887.381	730.72
887.557	795.62
887.732	751.84
887.908	775.28
888.083	749.12
888.258	723.16
888.434	716.19
888.609	718.51
888.784	780.9
888.96	746.99
889.135	698.17
889.31	705.72
889.485	697.97
889.661	725.87
889.836	763.07
890.011	694.87
890.186	732.07
890.361	720.45
890.537	737.89
890.712	755.13
890.887	734.4
891.062	762.69
891.237	799.89
891.412	692.94
891.587	729.56
891.762	806.86
891.937	796.79
892.112	705.34
892.287	722.97
892.462	669.69
892.637	695.65
892.812	654.38
892.987	675.31
893.161	654.19
893.336	664.84
893.511	687.32
893.686	696.81
893.861	638.69
894.035	670.07
894.21	671.24
894.385	598.39
894.56	666.78
894.734	600.71
894.909	603.43
895.084	626.09
895.258	629
895.433	647.02
895.608	597.61
895.782	518.95
895.957	586.18
896.131	562.16
896.306	517.01
896.48	510.43
896.655	529.8
896.829	478.07
897.004	494.93
897.178	499.19
897.353	476.33
897.527	537.94
897.701	505.2
897.876	427.7
898.05	546.46
898.224	505.78
898.399	535.03
898.573	492.99
898.747	391.85
898.921	478.27
899.096	354.27
899.27	405.22
899.444	382.36
899.618	431.38
899.792	415.1
899.967	461.41
900.141	480.59
900.315	418.01
900.489	421.11
900.663	439.32
900.837	424.02
901.011	387.2
901.185	469.93
901.359	426.34
901.533	410.26
901.707	449.01
901.881	465.87
902.055	382.36
902.229	449.59
902.403	460.05
902.576	421.69
902.75	451.72
902.924	527.09
903.098	476.91
903.272	515.27
903.446	508.1
903.619	516.43
903.793	550.73
903.967	507.33
904.14	553.63
904.314	551.11
904.488	528.83
904.661	582.69
904.835	537.36
905.009	578.63
905.182	607.3
905.356	567.58
905.529	564.29
905.703	510.04
905.876	508.49
906.05	485.82
906.223	496.86
906.397	450.56
906.57	428.47
906.744	431.77
906.917	425.76
907.09	434.87
907.264	423.24
907.437	401.15
907.61	378.1
907.784	416.65
907.957	378.29
908.13	385.65
908.304	442.42
908.477	379.07
908.65	400.18
908.823	379.26
908.996	422.27
909.17	353.1
909.343	372.48
909.516	396.5
909.689	391.66
909.862	350.97
910.035	386.04
910.208	362.99
910.381	368.6
910.554	438.74
910.727	399.22
910.9	361.82
911.073	348.07
911.246	417.23
911.419	413.75
911.592	404.25
911.765	346.9
911.938	364.15
912.11	406
912.283	387.98
912.456	424.6
912.629	367.83
912.802	335.47
912.974	306.8
913.147	315.71
913.32	287.42
913.493	314.94
913.665	331.99
913.838	318.62
914.01	305.44
914.183	319.59
914.356	289.56
914.528	370.74
914.701	406.77
914.873	355.82
915.046	341.29
915.218	320.17
915.391	243.06
915.563	266.11
915.736	308.15
915.908	343.61
916.081	323.65
916.253	310.48
916.425	326.17
916.598	341.67
916.77	303.89
916.942	289.75
917.115	243.44
917.287	348.84
917.459	300.02
917.632	278.12
917.804	249.45
917.976	301.18
918.148	306.22
918.32	299.05
918.493	334.12
918.665	367.05
918.837	318.62
919.009	392.82
919.181	349.23
919.353	337.6
919.525	349.62
919.697	332.37
919.869	312.61
920.041	385.27
920.213	440.29
920.385	364.15
920.557	356.2
920.729	350
920.901	361.82
921.073	343.42
921.244	311.06
921.416	370.74
921.588	336.64
921.76	303.89
921.932	405.22
922.103	332.18
922.275	348.84
922.447	331.4
922.619	268.44
922.79	345.16
922.962	337.22
923.134	343.42
923.305	292.46
923.477	310.67
923.648	269.6
923.82	308.54
923.991	263.4
924.163	235.69
924.335	299.63
924.506	252.36
924.677	327.14
924.849	266.69
925.02	297.89
925.192	331.79
925.363	307.57
925.535	295.17
925.706	279.48
925.877	341.29
926.049	277.54
926.22	296.34
926.391	297.11
926.562	325.4
926.734	270.18
926.905	314.16
927.076	254.68
927.247	287.04
927.419	209.93
927.59	221.16
927.761	224.46
927.932	228.52
928.103	241.12
928.274	209.54
928.445	203.53
928.616	210.89
928.787	201.79
928.958	233.76
929.129	231.62
929.3	211.28
929.471	182.22
929.642	143.47
929.813	94.84
929.984	189.78
930.155	110.92
930.326	198.69
930.496	141.34
930.667	100.85
930.838	139.01
931.009	105.3
931.18	115.18
931.35	101.81
931.521	137.85
931.692	86.51
931.863	33.62
932.033	110.34
932.204	86.7
932.374	84.18
932.545	54.73
932.716	143.86
932.886	112.28
933.057	32.84
933.227	40.01
933.398	161.1
933.568	46.01
933.739	18.12
933.909	46.98
934.08	68.68
934.25	15.21
934.421	7.07
934.591	66.75
934.761	13.27
934.932	-2.62
935.102	30.71
935.272	28.77
935.443	38.85
935.613	30.71
935.783	30.71
935.953	0.29
936.123	158
936.294	11.14
936.464	12.69
936.634	32.84
936.804	18.12
936.974	7.85
937.144	48.92
937.314	29.93
937.484	2.23
937.655	22.38
937.825	58.03
937.995	5.33
938.165	57.83
938.334	12.88
938.504	28
938.674	14.43
938.844	38.46
939.014	78.76
939.184	74.5
939.354	124.87
939.524	107.43
939.694	62.68
939.863	47.95
940.033	90.58
940.203	108.21
940.373	98.91
940.542	111.7
940.712	74.3
940.882	96
941.051	93.29
941.221	80.11
941.391	90.19
941.56	25.87
941.73	28.77
941.899	160.71
942.069	41.75
942.238	114.99
942.408	36.13
942.577	76.05
942.747	41.56
942.916	-1.45
943.086	17.92
943.255	107.82
943.425	59.96
943.594	19.67
943.763	-6.3
943.933	15.02
944.102	-6.68
944.271	46.79
944.441	54.15
944.61	27.42
944.779	55.7
944.948	135.72
945.117	-1.45
945.287	29.93
945.456	-9.78
945.625	21.8
945.794	63.26
945.963	20.83
946.132	56.09
946.301	16.18
946.47	87.09
946.639	10.95
946.808	29.16
946.977	59.38
947.146	88.64
947.315	21.6
947.484	67.71
947.653	37.68
947.822	16.37
947.991	14.05
948.16	114.8
948.329	91.55
948.498	36.13
948.666	41.75
948.835	55.31
949.004	11.92
949.173	1.07
949.341	41.95
949.51	58.61
949.679	83.41
949.847	65
950.016	155.29
950.185	97.36
950.353	41.75
950.522	52.21
950.69	81.66
950.859	22.38
951.028	83.6
951.196	73.91
951.365	38.65
951.533	51.44
951.701	77.79
951.87	83.02
952.038	2.03
952.207	66.36
952.375	113.05
952.543	20.44
952.712	35.17
952.88	18.31
953.048	112.28
953.217	39.04
953.385	43.3
953.553	83.6
953.721	36.72
953.89	63.26
954.058	23.35
954.226	32.65
954.394	56.09
954.562	-38.27
954.73	16.76
954.898	24.9
955.067	71.01
955.235	5.52
955.403	77.21
955.571	96
955.739	71.59
955.907	16.57
956.075	33.62
956.243	4.17
956.41	60.35
956.578	-5.52
956.746	-20.05
956.914	29.93
957.082	70.04
957.25	70.23
957.418	16.76
957.585	57.25
957.753	95.61
957.921	31.68
958.089	69.65
958.256	70.62
958.424	39.23
958.592	90.96
958.759	38.85
958.927	82.63
959.095	26.45
959.262	65
959.43	63.06
959.597	-0.1
959.765	43.11
959.932	15.6
960.1	83.41
960.267	60.55
960.435	37.88
960.602	57.25
960.77	14.05
960.937	-30.13
961.104	30.32
961.272	-6.49
961.439	30.52
961.606	51.44
961.774	77.6
961.941	32.07
962.108	81.66
962.275	71.01
962.443	74.88
962.61	58.22
962.777	127.78
962.944	76.63
963.111	71.98
963.278	51.83
963.446	78.95
963.613	52.99
963.78	54.54
963.947	44.66
964.114	64.23
964.281	139.4
964.448	99.68
964.615	58.41
964.782	85.15
964.949	88.06
965.116	87.48
965.282	99.49
965.449	46.98
965.616	48.53
965.783	72.17
965.95	58.61
966.117	35.17
966.283	51.44
966.45	45.24
966.617	62.68
966.784	120.03
966.95	79.15
967.117	107.43
967.284	29.16
967.45	28.38
967.617	110.34
967.784	69.85
967.95	106.66
968.117	52.02
968.283	106.27
968.45	167.49
968.616	58.61
968.783	101.23
968.949	74.88
969.116	105.5
969.282	64.61
969.449	96.78
969.615	65.58
969.781	28.97
969.948	38.65
970.114	18.89
970.28	102.78
970.447	41.95
970.613	96.39
970.779	77.79
970.945	82.83
971.112	60.55
971.278	61.51
971.444	65.58
971.61	109.76
971.776	38.65
971.942	79.92
972.108	99.3
972.275	80.31
972.441	84.96
972.607	148.89
972.773	59.38
972.939	97.94
973.105	51.05
973.271	47.76
973.437	33.81
973.602	41.17
973.768	82.83
973.934	32.45
974.1	73.53
974.266	-1.45
974.432	82.44
974.598	43.3
974.763	81.66
974.929	50.08
975.095	102.59
975.261	59.77
975.426	43.88
975.592	43.5
975.758	106.66
975.923	3
976.089	21.02
976.255	93.1
976.42	66.36
976.586	45.63
976.751	72.36
976.917	130.3
977.082	109.18
977.248	27.8
977.413	-2.03
977.579	31.29
977.744	55.31
977.91	21.99
978.075	24.12
978.24	91.55
978.406	54.15
978.571	56.48
978.736	45.43
978.902	90.58
979.067	22.96
979.232	-7.46
979.397	72.17
979.563	103.75
979.728	21.8
979.893	65.58
980.058	37.49
980.223	69.65
980.388	53.38
980.554	52.02
980.719	40.78
980.884	52.8
981.049	123.13
981.214	27.22
981.379	91.16
981.544	8.62
981.709	51.83
981.874	51.05
982.039	61.32
982.204	97.16
982.368	71.78
982.533	37.3
982.698	63.06
982.863	106.46
983.028	40.59
983.193	75.46
983.357	59.58
983.522	46.98
983.687	52.8
983.852	66.16
984.016	53.38
984.181	69.65
984.346	74.3
984.51	62.68
984.675	68.49
984.839	69.07
985.004	75.66
985.168	99.1
985.333	80.11
985.498	44.08
985.662	87.28
985.827	61.71
985.991	54.15
986.155	42.72
986.32	70.62
986.484	113.05
986.649	70.04
986.813	5.13
986.977	64.03
987.142	91.74
987.306	18.12
987.47	34.2
987.634	32.07
987.799	58.8
987.963	65.97
988.127	78.76
988.291	115.18
988.455	34.78
988.62	73.91
988.784	83.41
988.948	106.85
989.112	28.19
989.276	96.39
989.44	61.51
989.604	26.45
989.768	39.23
989.932	129.13
990.096	26.83
990.26	20.44
990.424	21.02
990.588	52.99
990.752	126.03
990.915	81.28
991.079	48.92
991.243	22.57
991.407	76.05
991.571	36.52
991.734	53.38
991.898	86.7
992.062	160.71
992.226	43.69
992.389	24.12
992.553	12.5
992.717	31.87
992.88	58.41
993.044	55.9
993.207	29.74
993.371	90.96
993.535	54.15
993.698	43.5
993.862	77.79
994.025	79.15
994.189	43.69
994.352	54.93
994.515	71.98
994.679	88.64
994.842	23.73
995.006	70.81
995.169	52.02
995.332	23.15
995.496	78.95
995.659	0.68
995.822	45.43
995.985	44.85
996.149	98.71
996.312	30.13
996.475	106.85
996.638	28.77
996.801	106.08
996.964	121.38
997.128	61.9
997.291	34
997.454	77.98
997.617	6.49
997.78	82.83
997.943	28
998.106	70.04
998.269	37.68
998.432	15.4
998.595	47.76
998.758	0.68
998.92	5.72
999.083	-20.05
999.246	42.14
999.409	-7.85
999.572	-49.89
999.735	23.73
999.897	40.98
1000.06	33.03
1000.223	39.82
1000.386	64.42
1000.548	71.59
1000.711	87.09
1000.874	60.55
1001.036	-5.72
1001.199	78.76
1001.361	8.62
1001.524	48.92
1001.687	35.36
1001.849	9.98
1002.012	46.79
1002.174	51.83
1002.337	73.91
1002.499	30.71
1002.661	71.4
1002.824	1.65
1002.986	15.21
1003.149	39.23
1003.311	25.09
1003.473	98.91
1003.636	21.41
1003.798	39.82
1003.96	65
1004.123	14.63
1004.285	0.48
1004.447	3.58
1004.609	47.95
1004.771	97.55
1004.933	3.97
1005.096	3.58
1005.258	-23.93
1005.42	8.43
1005.582	52.6
1005.744	35.94
1005.906	-13.85
1006.068	37.49
1006.23	15.02
1006.392	-16.76
1006.554	-8.04
1006.716	52.02
1006.878	32.45
1007.04	-4.94
1007.202	-4.94
1007.363	25.28
1007.525	20.44
1007.687	34.78
1007.849	65.39
1008.011	-40.01
1008.172	18.7
1008.334	16.18
1008.496	29.16
1008.658	-27.61
1008.819	11.92
1008.981	2.23
1009.143	11.92
1009.304	-3.2
1009.466	14.63
1009.627	117.12
1009.789	106.27
1009.95	50.28
1010.112	-2.42
1010.273	42.92
1010.435	2.42
1010.596	24.51
1010.758	3.97
1010.919	32.45
1011.081	-6.3
1011.242	33.23
1011.403	53.76
1011.565	24.9
1011.726	50.66
1011.887	-1.84
1012.049	5.72
1012.21	52.99
1012.371	70.23
1012.532	-46.21
1012.693	15.21
1012.855	5.13
1013.016	31.87
1013.177	72.75
1013.338	26.25
1013.499	85.35
1013.66	67.71
1013.821	27.8
1013.982	38.27
1014.143	22.77
1014.304	4.55
1014.465	65
1014.626	38.65
1014.787	13.85
1014.948	94.26
1015.109	-55.51
1015.27	53.57
1015.431	-14.05
1015.592	-2.03
1015.752	55.51
1015.913	33.81
1016.074	43.11
1016.235	-4.36
1016.395	2.42
1016.556	-8.62
1016.717	4.55
1016.877	72.75
1017.038	1.26
1017.199	37.3
1017.359	37.68
1017.52	42.92
1017.681	17.53
1017.841	21.8
1018.002	33.42
1018.162	0.48
1018.323	53.18
1018.483	11.92
1018.644	-3.39
1018.804	-5.52
1018.964	-26.83
1019.125	9.4
1019.285	7.85
1019.446	-0.48
1019.606	-24.51
1019.766	-43.88
1019.926	28.77
1020.087	22.38
1020.247	-30.13
1020.407	31.68
1020.567	67.71
1020.728	8.43
1020.888	-0.87
1021.048	-14.05
1021.208	-24.7
1021.368	-27.03
1021.528	67.71
1021.688	45.82
1021.848	59.77
1022.008	36.72
1022.168	7.46
1022.328	10.75
1022.488	26.45
1022.648	-1.45
1022.808	4.17
1022.968	25.28
1023.128	-5.13
1023.288	20.05
1023.448	2.62
1023.608	22.96
1023.767	46.01
1023.927	-6.3
1024.087	1.26
1024.247	-29.93
1024.406	24.51
1024.566	-23.54
1024.726	-17.15
1024.885	2.23
1025.045	34.58
1025.205	10.95
1025.364	-28.19
1025.524	25.67
1025.683	19.08
1025.843	16.95
1026.003	12.3
1026.162	59
1026.321	68.3
1026.481	15.98
1026.64	-5.13
1026.8	15.98
1026.959	20.05
1027.119	45.24
1027.278	3.58
1027.437	-7.27
1027.597	5.52
1027.756	18.31
1027.915	23.54
1028.074	2.03
1028.234	5.91
1028.393	12.69
1028.552	-5.72
1028.711	-75.66
1028.87	27.8
1029.03	-9.2
1029.189	7.46
1029.348	-74.5
1029.507	2.62
1029.666	22.57
1029.825	-22.96
1029.984	-0.1
1030.143	14.63
1030.302	-20.83
1030.461	-62.48
1030.62	4.75
1030.779	51.63
1030.938	-10.17
1031.097	-20.63
1031.255	27.22
1031.414	75.85
1031.573	57.83
1031.732	-38.27
1031.891	16.76
1032.049	65.97
1032.208	41.37
1032.367	-8.82
1032.525	-21.22
1032.684	-10.17
1032.843	5.91
1033.001	-43.5
1033.16	143.08
1033.319	67.13
1033.477	14.82
1033.636	11.14
1033.794	-46.98
1033.953	38.07
1034.111	30.13
1034.27	-24.7
1034.428	34.97
1034.587	-16.37
1034.745	22.96
1034.903	28.38
1035.062	10.75
1035.22	-57.64
1035.378	59.58
1035.537	-59.19
1035.695	37.88
1035.853	30.32
1036.011	19.86
1036.17	9.4
1036.328	-41.75
1036.486	25.48
1036.644	16.57
1036.802	-74.69
1036.96	-17.92
1037.119	0.29
1037.277	-8.62
1037.435	-30.13
1037.593	-9.59
1037.751	0.68
1037.909	26.45
1038.067	26.45
