Data from pine_FLMT105791__108__17-22-07-076.txt Node

Date: Mon Mar 20 17:22:07 GMT 2023
User: antho
Spectrometer: FLMT10579
Trigger mode: 0
Integration Time (sec): 1.000000E-1
Scans to average: 10
Electric dark correction enabled: true
Nonlinearity correction enabled: false
Boxcar width: 0
XAxis mode: Wavelengths
Number of Pixels in Spectrum: 3648
>>>>>Begin Spectral Data<<<<<
345.248	-135.77
345.464	-135.77
345.681	-135.77
345.898	-161.15
346.114	-181.49
346.331	-28.63
346.548	63.99
346.764	-16.42
346.981	-22.43
347.197	-36.96
347.414	21.36
347.631	-24.17
347.847	44.03
348.064	-1.89
348.28	25.04
348.497	-35.79
348.713	11.87
348.93	10.32
349.146	14.39
349.363	-10.41
349.579	27.17
349.796	-8.86
350.012	8.96
350.229	36.47
350.445	4.89
350.661	-39.67
350.878	-2.86
351.094	27.17
351.311	26.98
351.527	16.52
351.743	-30.37
351.96	51.97
352.176	28.72
352.392	29.5
352.609	38.6
352.825	-21.07
353.041	14.19
353.257	-17.2
353.474	2.76
353.69	-1.7
353.906	13.61
354.122	-39.48
354.339	53.52
354.555	16.52
354.771	-33.47
354.987	73.09
355.203	54.3
355.42	-31.34
355.636	-24.75
355.852	-15.06
356.068	13.42
356.284	-17.97
356.5	60.5
356.716	34.15
356.932	-2.66
357.148	38.02
357.364	33.76
357.58	20.97
357.796	61.27
358.012	40.93
358.228	37.25
358.444	-42.38
358.66	34.92
358.876	17.68
359.092	-2.28
359.308	17.49
359.524	17.87
359.74	9.35
359.956	-10.8
360.172	16.32
360.388	50.42
360.604	-16.03
360.819	85.3
361.035	12.45
361.251	40.54
361.467	-22.04
361.683	46.55
361.898	26.98
362.114	29.69
362.33	7.22
362.546	50.23
362.762	21.36
362.977	-4.02
363.193	-28.24
363.409	50.04
363.624	-27.46
363.84	-3.44
364.056	-39.28
364.271	17.87
364.487	15.35
364.703	21.55
364.918	-29.98
365.134	26.98
365.35	13.61
365.565	103.32
365.781	4.5
365.996	40.15
366.212	61.85
366.427	32.02
366.643	-25.33
366.858	-21.26
367.074	-28.24
367.289	56.04
367.505	94.6
367.72	-35.79
367.936	5.86
368.151	47.9
368.367	38.41
368.582	49.84
368.798	-0.34
369.013	75.8
369.228	42.29
369.444	19.62
369.659	46.16
369.874	23.1
370.09	66.31
370.305	-49.36
370.52	-13.71
370.736	46.55
370.951	0.63
371.166	50.62
371.381	92.85
371.597	41.12
371.812	8.57
372.027	-9.06
372.242	3.73
372.458	76.77
372.673	-17
372.888	13.22
373.103	30.27
373.318	103.12
373.533	36.47
373.749	8.19
373.964	-30.95
374.179	48.49
374.394	-14.68
374.609	31.44
374.824	10.51
375.039	53.52
375.254	-14.48
375.469	89.37
375.684	21.55
375.899	46.74
376.114	12.45
376.329	17.49
376.544	60.11
376.759	56.04
376.974	-10.03
377.189	30.85
377.404	24.07
377.619	46.55
377.834	-6.73
378.049	-31.92
378.264	-29.21
378.478	21.17
378.693	-14.87
378.908	50.62
379.123	-9.06
379.338	50.23
379.553	25.82
379.767	12.25
379.982	22.91
380.197	46.16
380.412	14.39
380.626	19.62
380.841	74.06
381.056	56.24
381.271	91.11
381.485	18.65
381.7	-27.27
381.915	38.02
382.129	14
382.344	32.02
382.559	2.57
382.773	51.2
382.988	-12.74
383.202	26.59
383.417	-5.18
383.632	99.83
383.846	9.15
384.061	29.69
384.275	26.98
384.49	44.8
384.704	39.19
384.919	17.87
385.133	19.04
385.348	56.62
385.562	-20.68
385.777	42.87
385.991	8.19
386.206	12.64
386.42	-8.48
386.634	61.85
386.849	36.67
387.063	37.83
387.277	-3.44
387.492	-4.02
387.706	3.15
387.92	-25.33
388.135	41.51
388.349	29.89
388.563	23.49
388.778	38.99
388.992	50.62
389.206	43.25
389.42	93.82
389.635	39.96
389.849	46.55
390.063	58.37
390.277	16.71
390.491	81.81
390.706	54.1
390.92	42.87
391.134	30.66
391.348	57.01
391.562	-18.75
391.776	30.27
391.99	-11.58
392.205	64.95
392.419	-2.28
392.633	19.04
392.847	70.57
393.061	7.22
393.275	103.32
393.489	17.87
393.703	52.36
393.917	83.17
394.131	20.2
394.345	37.64
394.559	63.99
394.773	20.59
394.986	37.05
395.2	15.35
395.414	63.79
395.628	-3.05
395.842	18.45
396.056	-4.6
396.27	-36.57
396.484	8.77
396.697	39.77
396.911	52.94
397.125	81.23
397.339	84.72
397.553	64.76
397.766	117.85
397.98	80.26
398.194	75.03
398.408	44.22
398.621	41.32
398.835	49.84
399.049	16.13
399.262	77.55
399.476	47.9
399.69	39.19
399.903	105.45
400.117	50.42
400.331	48.49
400.544	19.62
400.758	135.28
400.971	45.77
401.185	68.83
401.398	10.12
401.612	81.62
401.826	54.88
402.039	49.84
402.253	14.77
402.466	67.86
402.68	29.11
402.893	55.07
403.106	74.25
403.32	24.85
403.533	54.49
403.747	40.35
403.96	43.45
404.174	76.58
404.387	26.79
404.6	56.82
404.814	56.62
405.027	48.68
405.24	43.45
405.454	34.34
405.667	69.6
405.88	-24.17
406.094	42.09
406.307	83.75
406.52	47.13
406.733	10.9
406.947	-18.94
407.16	106.22
407.373	92.66
407.586	26.59
407.799	-13.51
408.012	76.19
408.226	35.31
408.439	106.61
408.652	13.03
408.865	71.15
409.078	89.75
409.291	63.21
409.504	1.99
409.717	46.55
409.93	38.41
410.143	27.95
410.357	-26.49
410.57	-20.1
410.783	42.87
410.996	37.64
411.209	33.18
411.421	57.01
411.634	32.4
411.847	-6.15
412.06	36.28
412.273	48.1
412.486	22.33
412.699	152.72
412.912	47.32
413.125	59.14
413.338	37.44
413.55	68.25
413.763	52.36
413.976	60.5
414.189	12.06
414.402	39.96
414.615	95.57
414.827	15.35
415.04	75.22
415.253	99.44
415.466	72.12
415.678	99.63
415.891	58.17
416.104	49.65
416.316	54.3
416.529	26.01
416.742	84.91
416.954	75.22
417.167	41.12
417.38	41.9
417.592	89.75
417.805	35.12
418.017	30.66
418.23	87.43
418.442	41.9
418.655	43.06
418.868	64.95
419.08	94.02
419.293	100.8
419.505	71.35
419.718	46.74
419.93	98.67
420.142	35.31
420.355	94.79
420.567	117.46
420.78	77.74
420.992	59.53
421.205	133.54
421.417	16.9
421.629	13.8
421.842	26.2
422.054	25.04
422.266	94.98
422.479	91.5
422.691	37.44
422.903	102.93
423.115	25.62
423.328	43.25
423.54	94.79
423.752	49.26
423.964	54.88
424.177	73.67
424.389	53.33
424.601	144.2
424.813	85.49
425.025	95.57
425.238	101.57
425.45	39.57
425.662	71.15
425.874	355.77
426.086	64.57
426.298	87.43
426.51	107.97
426.722	75.42
426.934	60.89
427.146	129.86
427.358	62.63
427.57	103.9
427.782	79.68
427.994	95.18
428.206	33.95
428.418	26.2
428.63	87.82
428.842	111.65
429.054	82.2
429.266	103.12
429.478	34.54
429.69	90.53
429.902	34.73
430.114	95.37
430.325	91.3
430.537	42.09
430.749	73.67
430.961	7.6
431.173	90.33
431.384	116.88
431.596	21.36
431.808	69.8
432.02	95.95
432.231	113.39
432.443	126.37
432.655	80.84
432.867	40.35
433.078	117.27
433.29	131.22
433.502	118.23
433.713	113.58
433.925	102.35
434.136	125.02
434.348	69.8
434.56	35.31
434.771	207.55
434.983	47.52
435.194	68.05
435.406	94.4
435.617	131.99
435.829	135.28
436.04	122.11
436.252	118.23
436.463	131.99
436.675	150.59
436.886	137.22
437.098	125.02
437.309	150.98
437.521	117.46
437.732	123.27
437.943	122.69
438.155	106.8
438.366	74.06
438.578	167.83
438.789	128.31
439	135.09
439.211	97.89
439.423	130.05
439.634	125.98
439.845	146.91
440.057	131.22
440.268	150.59
440.479	103.12
440.69	155.82
440.902	81.42
441.113	115.52
441.324	107
441.535	158.34
441.746	204.06
441.957	83.94
442.168	100.99
442.38	166.67
442.591	159.5
442.802	114.75
443.013	137.42
443.224	161.63
443.435	135.28
443.646	108.16
443.857	117.85
444.068	117.85
444.279	89.95
444.49	220.15
444.701	148.65
444.912	240.29
445.123	190.5
445.334	177.91
445.545	173.65
445.756	147.88
445.967	110.68
446.178	152.72
446.388	172.1
446.599	198.83
446.81	178.1
447.021	151.56
447.232	189.34
447.443	204.26
447.653	135.28
447.864	200.77
448.075	176.94
448.286	188.37
448.496	169.19
448.707	191.66
448.918	169.96
449.129	251.34
449.339	145.75
449.55	188.56
449.761	170.16
449.971	225.18
450.182	130.44
450.393	195.54
450.603	145.75
450.814	200.19
451.024	163.96
451.235	226.73
451.446	220.15
451.656	235.84
451.867	169.38
452.077	206.2
452.288	252.5
452.498	222.47
452.709	170.55
452.919	217.24
453.13	189.92
453.34	236.23
453.55	136.45
453.761	225.76
453.971	207.36
454.182	242.04
454.392	209.3
454.602	251.34
454.813	211.43
455.023	243.39
455.233	192.83
455.444	184.69
455.654	144.58
455.864	209.1
456.075	206.2
456.285	180.23
456.495	181.2
456.705	188.95
456.916	219.95
457.126	238.94
457.336	203.29
457.546	131.6
457.756	192.83
457.967	230.22
458.177	204.65
458.387	199.22
458.597	200
458.807	198.83
459.017	190.7
459.227	208.91
459.437	200.96
459.647	239.71
459.857	240.88
460.068	209.1
460.278	269.55
460.488	252.89
460.698	303.07
460.908	204.06
461.117	178.88
461.327	187.6
461.537	225.18
461.747	233.9
461.957	213.36
462.167	336.59
462.377	246.69
462.587	249.59
462.797	250.37
463.007	251.92
463.216	270.71
463.426	279.63
463.636	262.96
463.846	202.9
464.056	229.45
464.265	290.67
464.475	200.77
464.685	224.99
464.895	248.24
465.104	221.5
465.314	254.63
465.524	233.51
465.733	181.98
465.943	307.14
466.153	293.77
466.362	273.43
466.572	260.83
466.782	235.65
466.991	236.61
467.201	300.36
467.41	203.48
467.62	260.83
467.829	258.89
468.039	267.42
468.249	259.67
468.458	250.56
468.668	294.93
468.877	280.59
469.086	282.92
469.296	294.93
469.505	230.22
469.715	310.04
469.924	302.29
470.134	296.29
470.343	327.68
470.552	274.78
470.762	278.27
470.971	243.59
471.18	286.41
471.39	279.24
471.599	240.49
471.808	290.09
472.018	222.28
472.227	308.88
472.436	314.5
472.645	283.89
472.855	252.5
473.064	323.99
473.273	273.43
473.482	317.99
473.691	363.91
473.901	339.69
474.11	296.29
474.319	388.12
474.528	312.56
474.737	374.37
474.946	308.49
475.155	293.19
475.364	351.51
475.573	323.8
475.783	332.32
475.992	325.93
476.201	365.65
476.41	292.22
476.619	283.89
476.828	353.83
477.037	294.74
477.245	307.91
477.454	362.74
477.663	336.78
477.872	316.05
478.081	393.16
478.29	280.79
478.499	410.21
478.708	349.37
478.917	416.99
479.125	343.95
479.334	391.81
479.543	314.31
479.752	369.91
479.961	348.99
480.169	405.76
480.378	340.85
480.587	462.14
480.796	390.84
481.004	377.86
481.213	394.91
481.422	370.88
481.63	378.24
481.839	401.69
482.048	437.34
482.256	401.11
482.465	403.24
482.674	410.02
482.882	447.22
483.091	466.79
483.299	429.2
483.508	442.95
483.716	394.71
483.925	439.08
484.134	413.7
484.342	405.17
484.551	436.75
484.759	421.45
484.967	421.06
485.176	460.2
485.384	450.32
485.593	468.53
485.801	452.64
486.01	415.83
486.218	414.86
486.426	371.66
486.635	392.19
486.843	419.51
487.051	406.34
487.26	368.56
487.468	425.71
487.676	460.97
487.885	385.61
488.093	414.86
488.301	426.1
488.509	444.12
488.717	456.9
488.926	423.39
489.134	438.5
489.342	454
489.55	436.95
489.758	444.5
489.967	441.02
490.175	560.37
490.383	466.98
490.591	545.83
490.799	452.64
491.007	519.87
491.215	469.89
491.423	466.4
491.631	472.79
491.839	477.64
492.047	507.86
492.255	434.62
492.463	430.75
492.671	471.82
492.879	557.07
493.087	478.41
493.295	487.9
493.503	517.93
493.711	510.38
493.919	531.3
494.127	585.36
494.334	530.92
494.542	470.08
494.75	519.68
494.958	513.28
495.166	554.55
495.374	559.01
495.581	542.93
495.789	531.5
495.997	568.5
496.205	545.25
496.412	510.96
496.62	522.2
496.828	522
497.035	532.27
497.243	556.3
497.451	561.72
497.658	545.06
497.866	539.83
498.074	597.76
498.281	517.35
498.489	642.71
498.696	547
498.904	532.66
499.112	553.97
499.319	627.01
499.527	534.02
499.734	589.23
499.942	523.94
500.149	546.42
500.357	587.88
500.564	541.38
500.771	606.28
500.979	529.17
501.186	526.65
501.394	577.22
501.601	560.95
501.808	585.36
502.016	571.22
502.223	564.82
502.43	559.59
502.638	566.76
502.845	545.64
503.052	645.61
503.26	536.53
503.467	640.96
503.674	579.93
503.881	596.79
504.089	673.13
504.296	622.56
504.503	543.51
504.71	585.36
504.917	553.39
505.125	599.7
505.332	578.58
505.539	600.66
505.746	657.05
505.953	619.07
506.16	640.38
506.367	694.83
506.574	678.94
506.781	657.05
506.988	604.54
507.195	667.7
507.402	600.66
507.609	689.21
507.816	599.7
508.023	599.31
508.23	648.33
508.437	564.63
508.644	645.42
508.851	696.18
509.058	685.14
509.265	675.45
509.472	664.21
509.679	748.49
509.885	682.04
510.092	658.21
510.299	664.41
510.506	689.79
510.713	677
510.92	654.53
511.126	684.36
511.333	713.62
511.54	730.67
511.746	755.86
511.953	728.15
512.16	755.28
512.367	695.99
512.573	695.99
512.78	677.78
512.987	695.6
513.193	719.04
513.4	645.23
513.606	688.04
513.813	741.71
514.02	707.23
514.226	777.75
514.433	750.82
514.639	699.86
514.846	741.52
515.052	695.79
515.259	719.63
515.465	693.28
515.672	719.82
515.878	818.82
516.085	711.1
516.291	759.15
516.497	712.65
516.704	721.95
516.91	667.31
517.117	657.82
517.323	617.91
517.529	686.49
517.736	647.94
517.942	678.36
518.148	698.31
518.354	702.19
518.561	694.63
518.767	699.48
518.973	764.96
519.179	770.58
519.386	682.81
519.592	707.03
519.798	721.76
520.004	823.86
520.21	768.26
520.417	807.01
520.623	813.21
520.829	825.41
521.035	793.83
521.241	825.22
521.447	853.12
521.653	943.6
521.859	798.67
522.065	819.21
522.271	933.52
522.477	870.94
522.683	915.7
522.889	859.32
523.095	886.05
523.301	850.02
523.507	834.91
523.713	886.44
523.919	848.47
524.125	927.71
524.331	891.87
524.537	919.38
524.742	917.05
524.948	910.47
525.154	931.97
525.36	1025.36
525.566	940.69
525.772	981.77
525.977	887.02
526.183	948.63
526.389	948.25
526.595	914.15
526.8	896.13
527.006	890.51
527.212	863.58
527.417	857.19
527.623	879.08
527.829	908.72
528.034	894.58
528.24	895.74
528.446	889.54
528.651	948.25
528.857	981.38
529.062	1027.88
529.268	954.06
529.473	971.69
529.679	977.31
529.884	1043.18
530.09	985.64
530.295	1039.31
530.501	1020.9
530.706	1012.96
530.912	973.05
531.117	994.94
531.323	1012.18
531.528	1020.9
531.733	1041.63
531.939	1023.81
532.144	1055.97
532.35	1000.95
532.555	1049.38
532.76	1051.13
532.966	1028.46
533.171	1007.92
533.376	991.84
533.581	939.53
533.787	1009.67
533.992	1023.62
534.197	1055.58
534.402	1053.45
534.607	1042.6
534.813	1129.01
535.018	1027.3
535.223	1027.68
535.428	1063.53
535.633	1118.94
535.838	1107.7
536.043	1073.41
536.249	1135.41
536.454	1095.69
536.659	1092.4
536.864	1069.34
537.069	1050.35
537.274	1105.96
537.479	1100.73
537.684	1079.41
537.889	1022.84
538.094	1125.33
538.299	1086.2
538.504	1164.28
538.708	1073.02
538.913	1113.9
539.118	1083.29
539.323	1136.96
539.528	1071.08
539.733	1084.26
539.938	1113.13
540.142	1126.11
540.347	1050.93
540.552	1086.97
540.757	1084.65
540.962	1068.95
541.166	1031.75
541.371	1030.01
541.576	1072.83
541.781	995.33
541.985	1098.4
542.19	1112.74
542.395	1151.29
542.599	1178.42
542.804	1147.03
543.008	1180.94
543.213	1098.4
543.418	1057.91
543.622	1127.85
543.827	1092.2
544.031	1195.47
544.236	1207.09
544.44	1153.62
544.645	1239.45
544.849	1150.33
545.054	1164.47
545.258	1234.8
545.463	1199.34
545.667	1131.14
545.872	1175.13
546.076	1199.93
546.281	1160.01
546.485	1121.07
546.689	1170.09
546.894	1179.58
547.098	1184.62
547.302	1138.12
547.507	1175.32
547.711	1134.63
547.915	1225.89
548.119	1122.81
548.324	1152.65
548.528	1234.02
548.732	1150.13
548.936	1170.67
549.141	1208.26
549.345	1136.18
549.549	1178.23
549.753	1166.6
549.957	1240.81
550.161	1209.22
550.366	1206.12
550.57	1141.99
550.774	1151.68
550.978	1179.97
551.182	1201.48
551.386	1149.36
551.59	1160.79
551.794	1115.26
551.998	1187.53
552.202	1167.38
552.406	1134.63
552.61	1157.88
552.814	1153.23
553.018	1225.89
553.222	1186.17
553.426	1175.71
553.63	1274.91
553.833	1169.7
554.037	1155.56
554.241	1237.71
554.445	1168.54
554.649	1205.74
554.853	1189.46
555.056	1215.42
555.26	1226.08
555.464	1200.12
555.668	1228.41
555.871	1231.31
556.075	1244.68
556.279	1169.12
556.483	1127.27
556.686	1216.59
556.89	1172.41
557.094	1226.08
557.297	1133.47
557.501	1210.19
557.704	1124.75
557.908	1212.32
558.112	1160.59
558.315	1244.68
558.519	1156.14
558.722	1148
558.926	1156.53
559.129	1092.78
559.333	1050.93
559.536	1116.61
559.74	1075.35
559.943	1082.32
560.147	1096.66
560.35	1119.91
560.553	1103.44
560.757	1011.22
560.96	1146.64
561.164	1098.6
561.367	1190.43
561.57	1130.18
561.774	1119.52
561.977	1088.52
562.18	1100.92
562.384	1211.74
562.587	1123.98
562.79	1094.33
562.993	1073.6
563.197	1162.53
563.4	1163.31
563.603	1160.98
563.806	1210.19
564.009	1137.15
564.212	1133.28
564.416	1059.65
564.619	1129.59
564.822	1072.83
565.025	1124.94
565.228	1080.38
565.431	1104.6
565.634	1027.3
565.837	1071.47
566.04	1071.08
566.243	1053.45
566.446	947.67
566.649	1076.51
566.852	1016.25
567.055	1029.23
567.258	1089.88
567.461	1125.72
567.664	1133.86
567.867	1024.78
568.07	1033.5
568.273	1037.56
568.475	1093.56
568.678	1014.9
568.881	1030.4
569.084	1042.02
569.287	951.15
569.489	966.46
569.692	1044.54
569.895	1059.65
570.098	981.77
570.3	1007.34
570.503	895.94
570.706	954.06
570.909	998.62
571.111	952.32
571.314	932.55
571.516	960.26
571.719	971.11
571.922	945.53
572.124	925.97
572.327	952.7
572.529	920.54
572.732	945.92
572.935	951.35
573.137	1013.15
573.34	960.26
573.542	1007.73
573.745	980.41
573.947	971.3
574.15	941.66
574.352	907.37
574.554	1017.61
574.757	949.99
574.959	940.88
575.162	935.46
575.364	934.3
575.566	1015.28
575.769	903.69
575.971	943.79
576.173	842.46
576.376	923.84
576.578	980.02
576.78	972.27
576.982	855.64
577.185	903.69
577.387	873.07
577.589	895.35
577.791	935.65
577.993	926.94
578.196	885.47
578.398	911.05
578.6	960.26
578.802	848.27
579.004	875.79
579.206	854.86
579.408	906.79
579.61	899.62
579.812	959.48
580.014	869.78
580.216	883.73
580.418	851.37
580.62	867.45
580.822	844.59
581.024	897.87
581.226	906.2
581.428	874.43
581.63	947.67
581.832	841.88
582.034	954.83
582.236	884.31
582.438	901.55
582.64	926.16
582.841	983.12
583.043	989.9
583.245	925.19
583.447	927.52
583.649	894.58
583.85	891.09
584.052	973.43
584.254	848.47
584.456	959.48
584.657	873.27
584.859	895.35
585.061	899.62
585.262	898.07
585.464	823.28
585.666	912.02
585.867	848.08
586.069	945.92
586.27	902.33
586.472	909.5
586.674	880.05
586.875	856.22
587.077	846.14
587.278	881.4
587.48	832.19
587.681	981.96
587.883	900.97
588.084	815.92
588.285	860.48
588.487	837.42
588.688	841.88
588.89	778.14
589.091	780.07
589.292	813.21
589.494	787.44
589.695	800.81
589.896	743.07
590.098	726.41
590.299	791.12
590.5	735.13
590.702	774.07
590.903	777.75
591.104	819.41
591.305	806.23
591.507	889.74
591.708	806.04
591.909	797.71
592.11	885.09
592.311	845.95
592.512	804.29
592.714	766.12
592.915	788.02
593.116	803.52
593.317	801.77
593.518	801.19
593.719	781.82
593.92	831.81
594.121	865.71
594.322	827.16
594.523	843.24
594.724	756.63
594.925	791.7
595.126	838.39
595.327	853.31
595.528	833.16
595.729	810.88
595.929	822.89
596.13	773.1
596.331	785.31
596.532	796.54
596.733	851.18
596.934	831.81
597.135	851.57
597.335	835.49
597.536	779.49
597.737	825.61
597.938	795.77
598.138	815.14
598.339	800.61
598.54	821.15
598.74	854.28
598.941	806.04
599.142	873.07
599.342	822.31
599.543	792.09
599.744	813.79
599.944	798.87
600.145	815.14
600.345	833.55
600.546	895.35
600.746	859.32
600.947	905.43
601.147	835.49
601.348	835.68
601.548	782.59
601.749	824.25
601.949	782.21
602.15	769.42
602.35	794.41
602.551	833.74
602.751	776.97
602.951	811.46
603.152	745.78
603.352	833.74
603.552	807.78
603.753	870.75
603.953	848.08
604.153	842.66
604.354	812.62
604.554	793.25
604.754	805.46
604.954	757.02
605.155	846.92
605.355	827.35
605.555	826.19
605.755	851.95
605.955	791.12
606.155	832.58
606.356	805.46
606.556	817.86
606.756	824.44
606.956	749.66
607.156	880.05
607.356	786.86
607.556	813.21
607.756	790.15
607.956	825.02
608.156	831.22
608.356	805.84
608.556	825.22
608.756	788.02
608.956	778.91
609.156	783.76
609.356	763.41
609.556	790.15
609.755	805.26
609.955	779.3
610.155	786.86
610.355	767.67
610.555	736.68
610.755	785.31
610.954	698.51
611.154	786.08
611.354	790.34
611.554	748.3
611.753	751.21
611.953	717.49
612.153	800.03
612.352	755.66
612.552	710.33
612.752	697.54
612.951	773.49
613.151	758.38
613.351	729.7
613.55	742.68
613.75	766.51
613.949	758.57
614.149	770.39
614.348	784.53
614.548	727.76
614.747	691.14
614.947	698.51
615.146	653.56
615.346	752.18
615.545	771.16
615.745	766.32
615.944	771.55
616.144	748.11
616.343	755.86
616.542	734.35
616.742	740.16
616.941	747.14
617.14	674.29
617.34	714.78
617.539	749.27
617.738	704.71
617.938	793.64
618.137	692.31
618.336	668.86
618.535	750.24
618.734	703.74
618.934	716.14
619.133	730.86
619.332	741.13
619.531	695.21
619.73	693.28
619.929	755.28
620.128	753.53
620.328	750.82
620.527	696.76
620.726	701.61
620.925	720.59
621.124	671.19
621.323	738.61
621.522	650.46
621.721	663.44
621.92	663.05
622.119	711.49
622.318	681.65
622.517	698.51
622.715	683.59
622.914	616.75
623.113	665.38
623.312	635.35
623.511	664.8
623.71	675.84
623.909	662.86
624.107	730.67
624.306	633.21
624.505	666.93
624.704	649.88
624.902	673.71
625.101	702.77
625.3	666.35
625.499	657.82
625.697	642.9
625.896	638.83
626.095	669.06
626.293	616.36
626.492	642.13
626.69	658.6
626.889	634.38
627.088	688.43
627.286	649.1
627.485	638.64
627.683	619.65
627.882	676.03
628.08	576.83
628.279	642.32
628.477	695.41
628.676	590.4
628.874	656.85
629.073	600.66
629.271	600.66
629.469	643.29
629.668	616.55
629.866	641.93
630.065	618.88
630.263	699.67
630.461	605.51
630.66	631.66
630.858	665.76
631.056	668.67
631.254	690.56
631.453	586.33
631.651	616.55
631.849	633.8
632.047	666.93
632.245	608.8
632.444	643.29
632.642	650.26
632.84	632.25
633.038	603.18
633.236	578.97
633.434	619.26
633.632	586.72
633.83	597.37
634.028	662.86
634.227	621.98
634.425	683.39
634.623	614.61
634.821	622.95
635.019	646.2
635.216	579.35
635.414	624.11
635.612	645.81
635.81	593.11
636.008	664.21
636.206	613.84
636.404	661.7
636.602	597.76
636.8	636.7
636.997	642.32
637.195	670.03
637.393	630.11
637.591	684.17
637.789	645.61
637.986	613.06
638.184	605.31
638.382	674.68
638.58	667.51
638.777	679.13
638.975	630.5
639.173	621.2
639.37	650.46
639.568	648.13
639.765	651.62
639.963	634.57
640.161	659.56
640.358	632.05
640.556	597.95
640.753	581.1
640.951	542.93
641.148	637.28
641.346	600.86
641.543	585.17
641.741	630.31
641.938	581.1
642.136	631.08
642.333	566.37
642.531	619.65
642.728	643.48
642.925	617.71
643.123	627.01
643.32	608.61
643.517	618.49
643.715	612.1
643.912	570.44
644.109	601.83
644.306	588.85
644.504	600.66
644.701	594.46
644.898	600.66
645.095	584
645.293	578.38
645.49	600.28
645.687	593.11
645.884	617.91
646.081	531.88
646.278	584.2
646.475	572.77
646.672	567.15
646.87	610.35
647.067	592.33
647.264	586.33
647.461	552.81
647.658	517.16
647.855	610.16
648.052	571.6
648.249	505.73
648.446	546.22
648.642	533.43
648.839	502.44
649.036	545.06
649.233	495.27
649.43	496.24
649.627	498.37
649.824	522.58
650.021	505.34
650.217	512.9
650.414	519.68
650.611	538.47
650.808	534.02
651.004	542.35
651.201	570.05
651.398	620.81
651.595	513.48
651.791	539.83
651.988	540.8
652.185	512.32
652.381	537.89
652.578	481.32
652.775	503.98
652.971	527.04
653.168	497.59
653.364	558.62
653.561	476.67
653.757	494.69
653.954	538.28
654.15	514.64
654.347	573.93
654.543	522
654.74	498.75
654.936	492.55
655.133	527.04
655.329	504.95
655.525	548.35
655.722	540.8
655.918	529.37
656.115	548.16
656.311	457.29
656.507	430.75
656.704	418.74
656.9	443.34
657.096	427.07
657.292	453.22
657.489	484.22
657.685	478.02
657.881	474.15
658.077	472.79
658.273	493.33
658.47	552.42
658.666	485.97
658.862	514.06
659.058	486.94
659.254	528.01
659.45	502.82
659.646	536.53
659.842	486.55
660.038	527.43
660.234	475.7
660.43	505.34
660.626	585.55
660.822	515.03
661.018	505.15
661.214	498.56
661.41	468.53
661.606	506.7
661.802	535.57
661.998	486.74
662.194	481.9
662.39	509.99
662.586	515.42
662.781	528.4
662.977	533.82
663.173	534.79
663.369	513.28
663.564	506.5
663.76	532.66
663.956	486.16
664.152	522.2
664.347	427.07
664.543	495.46
664.739	510.38
664.934	434.24
665.13	434.04
665.326	528.98
665.521	469.3
665.717	476.86
665.912	472.99
666.108	426.29
666.304	464.85
666.499	480.74
666.695	433.46
666.89	483.06
667.086	502.82
667.281	492.17
667.477	527.23
667.672	490.42
667.867	478.6
668.063	506.5
668.258	433.46
668.454	497.2
668.649	556.1
668.844	467.95
669.04	523.94
669.235	464.65
669.43	458.45
669.626	455.55
669.821	461.55
670.016	430.94
670.211	465.82
670.407	447.8
670.602	483.06
670.797	448.96
670.992	477.83
671.187	405.17
671.382	512.9
671.578	448.77
671.773	474.15
671.968	416.8
672.163	465.24
672.358	463.1
672.553	433.85
672.748	443.54
672.943	524.13
673.138	467.95
673.333	494.3
673.528	428.04
673.723	472.02
673.918	467.75
674.113	420.67
674.308	514.45
674.503	482.09
674.698	486.35
674.892	461.55
675.087	482.09
675.282	459.62
675.477	464.85
675.672	490.04
675.867	452.45
676.061	418.74
676.256	407.5
676.451	423.19
676.646	449.93
676.84	422.22
677.035	391.61
677.23	421.64
677.424	495.07
677.619	462.14
677.814	484.61
678.008	492.55
678.203	373.98
678.397	432.69
678.592	444.5
678.787	499.34
678.981	453.03
679.176	469.69
679.37	438.11
679.565	419.12
679.759	420.09
679.954	463.1
680.148	516.58
680.342	502.82
680.537	448.19
680.731	419.7
680.926	453.03
681.12	469.11
681.314	374.76
681.509	427.26
681.703	450.12
681.897	475.31
682.092	439.08
682.286	426.29
682.48	513.09
682.674	470.66
682.869	444.7
683.063	431.33
683.257	523.94
683.451	429.59
683.645	466.79
683.839	433.27
684.034	441.99
684.228	483.64
684.422	413.12
684.616	439.08
684.81	477.05
685.004	462.14
685.198	419.7
685.392	467.17
685.586	415.64
685.78	474.73
685.974	466.4
686.168	461.17
686.362	519.29
686.556	444.12
686.75	388.71
686.944	409.24
687.138	451.09
687.331	330.39
687.525	379.02
687.719	323.03
687.913	369.33
688.107	375.72
688.301	362.94
688.494	415.44
688.688	340.07
688.882	305.01
689.076	320.7
689.269	382.89
689.463	441.6
689.657	385.61
689.85	346.66
690.044	393.16
690.238	362.16
690.431	384.06
690.625	391.61
690.818	400.33
691.012	421.06
691.205	444.31
691.399	376.89
691.593	429.39
691.786	466.4
691.98	467.37
692.173	515.03
692.366	456.52
692.56	485.39
692.753	530.33
692.947	460.97
693.14	557.65
693.333	506.12
693.527	434.82
693.72	492.55
693.914	457.68
694.107	466.98
694.3	505.15
694.493	465.43
694.687	502.24
694.88	465.62
695.073	544.87
695.266	505.34
695.46	529.95
695.653	582.07
695.846	548.74
696.039	465.62
696.232	509.6
696.425	578
696.618	587.88
696.812	541.77
697.005	657.24
697.198	668.09
697.391	578.19
697.584	596.4
697.777	680.88
697.97	643.1
698.163	633.02
698.356	598.92
698.549	708.78
698.742	678.74
698.935	627.6
699.127	675.26
699.32	632.25
699.513	647.36
699.706	664.41
699.899	677.58
700.092	631.47
700.285	677.58
700.477	640.77
700.67	669.64
700.863	716.91
701.056	774.46
701.248	760.7
701.441	768.64
701.634	713.23
701.826	828.32
702.019	745.78
702.212	763.03
702.404	740.94
702.597	704.13
702.79	761.86
702.982	789.96
703.175	809.72
703.367	831.22
703.56	822.12
703.752	926.35
703.945	855.05
704.137	863.19
704.33	901.17
704.522	899.23
704.715	891.87
704.907	928.1
705.1	949.41
705.292	936.43
705.484	903.88
705.677	960.65
705.869	968.98
706.061	989.32
706.254	996.88
706.446	1000.95
706.638	953.28
706.831	1059.07
707.023	963.94
707.215	1106.73
707.407	1047.45
707.599	1041.44
707.792	1073.21
707.984	1106.54
708.176	1095.5
708.368	1068.18
708.56	1114.29
708.752	1079.41
708.944	1094.53
709.136	1113.32
709.329	1096.66
709.521	1212.32
709.713	1154.78
709.905	1163.5
710.097	1257.66
710.289	1171.44
710.481	1165.63
710.672	1200.89
710.864	1227.82
711.056	1279.17
711.248	1252.04
711.44	1265.8
711.632	1271.61
711.824	1302.22
712.016	1338.07
712.207	1324.12
712.399	1312.49
712.591	1391.35
712.783	1321.21
712.975	1370.23
713.166	1337.49
713.358	1384.95
713.55	1431.45
713.741	1389.41
713.933	1412.66
714.125	1388.83
714.316	1404.52
714.508	1463.42
714.7	1484.54
714.891	1420.99
715.083	1490.74
715.274	1445.21
715.466	1461.87
715.657	1495.58
715.849	1403.17
716.04	1467.88
716.232	1422.54
716.423	1484.54
716.615	1421.38
716.806	1393.48
716.998	1347.75
717.189	1348.72
717.381	1246.42
717.572	1257.08
717.763	1294.86
717.955	1272.39
718.146	1282.66
718.337	1210.77
718.528	1182.88
718.72	1113.9
718.911	1215.04
719.102	1140.44
719.293	1233.83
719.485	1194.69
719.676	1152.07
719.867	1113.32
720.058	1136.57
720.249	1149.74
720.44	1177.26
720.632	1216.59
720.823	1227.82
721.014	1318.5
721.205	1313.07
721.396	1394.64
721.587	1450.83
721.778	1447.92
721.969	1483.18
722.16	1537.43
722.351	1480.08
722.542	1621.91
722.733	1623.84
722.924	1563.98
723.115	1595.56
723.305	1562.04
723.496	1619
723.687	1501.98
723.878	1556.81
724.069	1536.66
724.26	1525.03
724.45	1520.38
724.641	1469.23
724.832	1524.84
725.023	1520.19
725.213	1505.85
725.404	1489.38
725.595	1479.11
725.785	1465.16
725.976	1516.12
726.167	1519.8
726.357	1519.03
726.548	1640.12
726.739	1547.9
726.929	1588.19
727.12	1634.11
727.31	1614.54
727.501	1608.15
727.691	1642.83
727.882	1634.11
728.072	1622.88
728.263	1627.53
728.453	1648.84
728.644	1702.12
728.834	1674.61
729.024	1637.99
729.215	1612.41
729.405	1682.16
729.596	1749.97
729.786	1740.87
729.976	1735.05
730.167	1747.84
730.357	1703.67
730.547	1726.53
730.737	1783.49
730.928	1842.58
731.118	1852.66
731.308	1765.86
731.498	1797.44
731.688	1888.31
731.879	1877.07
732.069	1895.67
732.259	1914.08
732.449	1899.55
732.639	1960.19
732.829	1998.36
733.019	2014.63
733.209	2053.96
733.399	2077.79
733.589	2106.47
733.779	2165.95
733.969	2085.54
734.159	2147.16
734.349	2211.09
734.539	2254.3
734.729	2268.25
734.919	2289.95
735.109	2261.85
735.299	2232.79
735.488	2281.62
735.678	2271.15
735.868	2322.11
736.058	2277.93
736.248	2290.92
736.437	2205.67
736.627	2210.51
736.817	2359.5
737.007	2301.77
737.196	2309.32
737.386	2280.65
737.576	2272.51
737.765	2372.87
737.955	2301.18
738.144	2448.43
738.334	2385.27
738.524	2331.22
738.713	2352.53
738.903	2395.15
739.092	2417.24
739.282	2410.26
739.471	2411.04
739.661	2383.91
739.85	2392.63
740.04	2425.38
740.229	2455.6
740.419	2502.68
740.608	2482.73
740.797	2472.84
740.987	2495.71
741.176	2483.31
741.365	2456.96
741.555	2426.15
741.744	2534.65
741.933	2516.24
742.123	2516.24
742.312	2573.98
742.501	2578.24
742.69	2607.11
742.88	2516.44
743.069	2625.32
743.258	2548.79
743.447	2594.52
743.636	2613.12
743.825	2564.29
744.014	2554.41
744.204	2656.13
744.393	2547.63
744.582	2656.9
744.771	2682.87
744.96	2620.29
745.149	2617.38
745.338	2570.69
745.527	2634.82
745.716	2584.64
745.905	2569.91
746.094	2623.58
746.283	2609.82
746.471	2639.27
746.66	2692.55
746.849	2654.77
747.038	2661.75
747.227	2629.97
747.416	2664.85
747.604	2629.97
747.793	2626.49
747.982	2677.05
748.171	2672.99
748.359	2668.53
748.548	2647.99
748.737	2642.76
748.926	2620.48
749.114	2568.75
749.303	2627.07
749.491	2640.05
749.68	2550.92
749.869	2630.75
750.057	2643.73
750.246	2604.2
750.434	2610.4
750.623	2612.34
750.811	2620.48
751	2644.89
751.188	2646.44
751.377	2626.49
751.565	2616.6
751.754	2564.68
751.942	2598.01
752.131	2626.87
752.319	2615.05
752.507	2542.01
752.696	2629
752.884	2646.05
753.072	2587.54
753.261	2607.89
753.449	2587.35
753.637	2600.91
753.825	2688.68
754.014	2580.76
754.202	2573.79
754.39	2652.45
754.578	2655.94
754.766	2599.17
754.955	2582.89
755.143	2657.29
755.331	2551.89
755.519	2590.84
755.707	2587.54
755.895	2564.29
756.083	2616.02
756.271	2556.74
756.459	2537.56
756.647	2575.34
756.835	2568.75
757.023	2525.54
757.211	2570.69
757.399	2555.57
757.587	2571.85
757.775	2494.74
757.963	2512.18
758.151	2499.97
758.339	2463.16
758.526	2491.25
758.714	2517.79
758.902	2441.65
759.09	2365.31
759.278	2203.73
759.465	2048.15
759.653	1764.31
759.841	1677.32
760.028	1408.78
760.216	1215.81
760.404	1226.47
760.591	982.15
760.779	834.52
760.967	715.56
761.154	577.61
761.342	636.51
761.529	620.62
761.717	663.05
761.905	610.16
762.092	669.06
762.28	597.95
762.467	651.43
762.655	584.97
762.842	655.5
763.029	623.91
763.217	641.55
763.404	650.26
763.592	667.7
763.779	617.52
763.966	674.68
764.154	705.09
764.341	756.83
764.528	736.68
764.716	793.83
764.903	786.47
765.09	859.51
765.277	920.15
765.465	1014.32
765.652	1065.08
765.839	1110.22
766.026	1221.24
766.213	1248.75
766.4	1316.56
766.588	1513.6
766.775	1497.13
766.962	1562.43
767.149	1589.74
767.336	1700.96
767.523	1672.09
767.71	1785.04
767.897	1838.13
768.084	1959.41
768.271	1954.57
768.458	1993.71
768.645	2041.95
768.832	2007.85
769.019	2054.93
769.206	2080.31
769.392	2138.44
769.579	2224.46
769.766	2171.18
769.953	2158.39
770.14	2207.8
770.327	2203.15
770.513	2237.44
770.7	2350.2
770.887	2192.69
771.073	2245.58
771.26	2240.93
771.447	2199.66
771.634	2198.89
771.82	2323.66
772.007	2214.39
772.193	2267.28
772.38	2277.74
772.567	2296.34
772.753	2242.29
772.94	2313.39
773.126	2288.78
773.313	2294.21
773.499	2305.06
773.686	2266.89
773.872	2276.19
774.059	2251.78
774.245	2210.51
774.432	2244.42
774.618	2198.89
774.804	2239.77
774.991	2182.61
775.177	2248.87
775.363	2234.54
775.55	2248.49
775.736	2160.33
775.922	2232.4
776.109	2247.32
776.295	2221.94
776.481	2238.6
776.667	2221.94
776.853	2210.7
777.04	2177.96
777.226	2190.94
777.412	2268.63
777.598	2178.54
777.784	2206.83
777.97	2188.23
778.156	2213.42
778.342	2195.2
778.528	2167.11
778.715	2096.78
778.901	2149.09
779.087	2180.09
779.272	2141.92
779.458	2154.52
779.644	2171.37
779.83	2159.94
780.016	2232.4
780.202	2173.31
780.388	2124.1
780.574	2058.23
780.76	2118.87
780.946	2164.01
781.131	2139.41
781.317	2118.67
781.503	2055.71
781.689	2105.31
781.874	2216.32
782.06	2102.98
782.246	2101.24
782.432	2095.42
782.617	2109.18
782.803	2136.5
782.989	2024.9
783.174	2047.96
783.36	1984.02
783.545	2079.54
783.731	2083.22
783.916	1991.77
784.102	2088.45
784.288	2031.49
784.473	2039.43
784.659	1986.35
784.844	2090.58
785.029	1998.94
785.215	1978.98
785.4	1934.03
785.586	2041.76
785.771	1928.03
785.956	2013.28
786.142	2003.2
786.327	1967.75
786.512	1967.94
786.698	1963.29
786.883	1927.64
787.068	1987.31
787.254	1962.9
787.439	1940.23
787.624	1944.69
787.809	1918.73
787.994	1922.21
788.18	2000.1
788.365	1881.72
788.55	1952.05
788.735	1925.51
788.92	1914.27
789.105	1868.55
789.29	1907.88
789.475	1860.22
789.66	1904.97
789.845	1875.13
790.03	1853.05
790.215	1891.02
790.4	1904.97
790.585	1918.73
790.77	1895.09
790.955	1791.82
791.14	1844.33
791.325	1907.1
791.51	1729.44
791.695	1840.84
791.879	1825.34
792.064	1772.84
792.249	1878.04
792.434	1830.18
792.618	1850.92
792.803	1890.63
792.988	1843.55
793.173	1823.6
793.357	1879.01
793.542	1806.94
793.727	1826.89
793.911	1868.93
794.096	1823.21
794.281	1904
794.465	1948.18
794.65	1882.88
794.834	1872.81
795.019	1918.34
795.203	1903.61
795.388	1902.06
795.572	1929.19
795.757	1871.45
795.941	1902.84
796.126	1889.28
796.31	1838.13
796.494	1849.95
796.679	1841.42
796.863	1817.4
797.048	1891.02
797.232	1841.03
797.416	1899.74
797.601	1869.71
797.785	1901.87
797.969	1914.08
798.153	1838.9
798.338	1866.03
798.522	1954.96
798.706	1945.46
798.89	1927.83
799.074	2002.43
799.258	1944.88
799.443	1891.41
799.627	1885.02
799.811	1955.54
799.995	1880.37
800.179	1870.29
800.363	1887.34
800.547	1897.61
800.731	1924.35
800.915	1841.42
801.099	1885.79
801.283	1902.06
801.467	1900.32
801.651	1873.39
801.835	1921.05
802.019	1919.11
802.202	1927.83
802.386	1868.93
802.57	1829.02
802.754	1889.28
802.938	1825.92
803.121	1821.27
803.305	1912.33
803.489	1915.63
803.673	1900.13
803.856	1899.16
804.04	1883.27
804.224	1891.6
804.407	1860.6
804.591	1867.38
804.775	1859.63
804.958	1883.27
805.142	1988.67
805.326	1880.17
805.509	1853.63
805.693	1894.32
805.876	1922.21
806.06	1864.28
806.243	1898.77
806.427	1970.46
806.61	1973.17
806.794	1874.36
806.977	1918.34
807.16	1900.52
807.344	1913.88
807.527	1893.35
807.71	1874.36
807.894	1913.69
808.077	1927.06
808.26	1855.18
808.444	1822.43
808.627	1919.5
808.81	1812.75
808.993	1770.51
809.177	1775.74
809.36	1819.14
809.543	1874.36
809.726	1762.37
809.909	1767.8
810.092	1738.35
810.276	1743
810.459	1751.14
810.642	1773.8
810.825	1730.02
811.008	1759.27
811.191	1663.95
811.374	1678.09
811.557	1681.39
811.74	1732.92
811.923	1642.64
812.106	1654.46
812.289	1617.84
812.472	1618.23
812.654	1659.3
812.837	1622.49
813.02	1565.72
813.203	1548.28
813.386	1457.42
813.569	1446.37
813.751	1419.05
813.934	1477.95
814.117	1428.55
814.3	1410.33
814.482	1389.41
814.665	1355.89
814.848	1306.29
815.03	1265.02
815.213	1287.31
815.396	1264.25
815.578	1307.65
815.761	1244.1
815.943	1331.87
816.126	1212.91
816.309	1228.99
816.491	1147.61
816.674	1099.76
816.856	1194.11
817.039	1164.86
817.221	1212.52
817.403	1182.1
817.586	1176.68
817.768	1197.41
817.951	1136.38
818.133	1130.56
818.315	1136.96
818.498	1159.43
818.68	1232.67
818.862	1192.76
819.045	1245.65
819.227	1225.11
819.409	1191.59
819.591	1224.34
819.774	1194.69
819.956	1161.76
820.138	1276.46
820.32	1221.62
820.502	1230.34
820.684	1300.29
820.866	1294.09
821.048	1355.5
821.231	1395.61
821.413	1348.34
821.595	1348.92
821.777	1359.57
821.959	1328.57
822.141	1356.86
822.323	1274.71
822.505	1238.48
822.686	1196.24
822.868	1181.33
823.05	1069.53
823.232	1100.92
823.414	1020.13
823.596	1088.71
823.778	1030.01
823.96	1065.46
824.141	1073.8
824.323	1102.47
824.505	1124.36
824.687	1190.04
824.868	1196.83
825.05	1289.44
825.232	1285.95
825.413	1383.98
825.595	1343.3
825.777	1246.04
825.958	1334.77
826.14	1309.39
826.321	1332.84
826.503	1295.44
826.685	1307.07
826.866	1316.17
827.048	1305.71
827.229	1279.75
827.411	1249.14
827.592	1228.79
827.773	1223.17
827.955	1168.15
828.136	1210.97
828.318	1168.93
828.499	1197.99
828.68	1144.9
828.862	1189.27
829.043	1196.44
829.224	1155.56
829.406	1147.23
829.587	1119.71
829.768	1179
829.949	1198.76
830.131	1168.73
830.312	1203.02
830.493	1167.18
830.674	1184.04
830.855	1160.4
831.036	1170.28
831.218	1233.06
831.399	1234.41
831.58	1190.82
831.761	1172.8
831.942	1191.01
832.123	1208.06
832.304	1130.56
832.485	1160.01
832.666	1167.57
832.847	1177.64
833.028	1183.65
833.209	1195.47
833.389	1151.68
833.57	1124.36
833.751	1131.92
833.932	1210
834.113	1189.66
834.294	1137.15
834.475	1199.34
834.655	1238.09
834.836	1218.14
835.017	1198.76
835.198	1146.64
835.378	1196.05
835.559	1211.94
835.74	1176.09
835.92	1146.45
836.101	1171.83
836.281	1231.7
836.462	1206.51
836.643	1224.14
836.823	1219.88
837.004	1222.79
837.184	1289.05
837.365	1240.22
837.545	1242.94
837.726	1219.69
837.906	1267.54
838.087	1247.78
838.267	1206.32
838.448	1198.96
838.628	1230.92
838.808	1187.53
838.989	1272.97
839.169	1172.41
839.349	1247.97
839.53	1229.37
839.71	1254.95
839.89	1216.59
840.07	1253.59
840.251	1199.73
840.431	1241.77
840.611	1228.6
840.791	1192.76
840.971	1218.91
841.151	1205.54
841.332	1211.36
841.512	1253.01
841.692	1157.3
841.872	1233.83
842.052	1202.06
842.232	1234.61
842.412	1152.65
842.592	1195.08
842.772	1243.91
842.952	1218.14
843.132	1200.7
843.312	1186.75
843.492	1156.33
843.672	1222.79
843.851	1121.65
844.031	1178.81
844.211	1212.52
844.391	1170.86
844.571	1223.37
844.751	1189.08
844.93	1222.01
845.11	1166.41
845.29	1210.39
845.47	1224.72
845.649	1195.47
845.829	1221.62
846.009	1199.73
846.188	1185.78
846.368	1170.28
846.547	1192.95
846.727	1240.22
846.907	1163.5
847.086	1232.67
847.266	1236.16
847.445	1188.88
847.625	1119.33
847.804	1135.6
847.984	1174.74
848.163	1163.31
848.343	1159.63
848.522	1165.05
848.701	1185.39
848.881	1121.65
849.06	1153.43
849.239	1196.44
849.419	1187.53
849.598	1088.33
849.777	1113.51
849.957	1117.97
850.136	1035.63
850.315	1041.25
850.494	1044.73
850.674	1043.96
850.853	1114.87
851.032	1095.5
851.211	1100.53
851.39	1077.67
851.569	1023.03
851.748	1046.67
851.927	1111.77
852.107	1118.36
852.286	1036.01
852.465	1048.41
852.644	1054.61
852.823	1084.06
853.002	1065.08
853.181	1070.31
853.359	1063.14
853.538	1018.19
853.717	1100.34
853.896	1014.51
854.075	992.62
854.254	950.57
854.433	907.37
854.611	976.53
854.79	919.38
854.969	943.02
855.148	987.19
855.327	902.33
855.505	955.8
855.684	932.55
855.863	973.24
856.041	949.22
856.22	974.98
856.399	947.08
856.577	1045.9
856.756	1033.3
856.934	1137.15
857.113	1144.32
857.291	1033.69
857.47	1000.37
857.648	1064.11
857.827	1015.67
858.005	1048.41
858.184	1009.08
858.362	1089.3
858.541	1014.9
858.719	993.58
858.898	993.78
859.076	1007.92
859.254	1077.09
859.433	982.15
859.611	1002.3
859.789	993
859.967	1046.09
860.146	1069.15
860.324	990.48
860.502	964.13
860.68	935.85
860.859	993.2
861.037	968.59
861.215	998.82
861.393	1005.79
861.571	987.58
861.749	985.83
861.927	979.83
862.105	990.68
862.283	961.62
862.461	943.98
862.639	920.54
862.817	963.36
862.995	993
863.173	927.32
863.351	974.79
863.529	977.7
863.707	1022.07
863.885	955.42
864.063	919.96
864.241	923.84
864.418	1011.8
864.596	936.82
864.774	910.85
864.952	914.92
865.129	919.57
865.307	903.69
865.485	908.14
865.663	966.07
865.84	893.42
866.018	920.15
866.196	792.47
866.373	833.55
866.551	812.82
866.728	766.9
866.906	795.57
867.084	808.36
867.261	835.49
867.439	842.85
867.616	861.45
867.794	845.37
867.971	866.29
868.149	869.59
868.326	935.07
868.503	894.39
868.681	890.12
868.858	881.79
869.035	823.47
869.213	914.15
869.39	864.55
869.567	946.5
869.745	859.12
869.922	889.15
870.099	911.24
870.276	892.45
870.454	903.49
870.631	909.3
870.808	867.84
870.985	892.45
871.162	933.33
871.339	897.68
871.517	842.66
871.694	823.86
871.871	854.09
872.048	818.63
872.225	802.55
872.402	876.95
872.579	782.21
872.756	856.41
872.933	796.93
873.11	843.43
873.287	842.85
873.463	828.51
873.64	821.73
873.817	821.54
873.994	847.31
874.171	819.02
874.348	853.12
874.524	777.56
874.701	783.17
874.878	764.57
875.055	843.43
875.231	819.02
875.408	822.31
875.585	785.5
875.762	775.81
875.938	824.44
876.115	788.79
876.291	809.72
876.468	790.73
876.645	760.89
876.821	772.32
876.998	745.78
877.174	796.54
877.351	772.32
877.527	743.07
877.704	794.99
877.88	779.69
878.057	756.63
878.233	821.54
878.409	789.57
878.586	795.19
878.762	796.74
878.938	776.78
879.115	697.93
879.291	778.33
879.467	732.8
879.644	735.51
879.82	762.64
879.996	740.94
880.172	692.11
880.349	772.91
880.525	768.64
880.701	703.35
880.877	739.97
881.053	753.14
881.229	729.89
881.405	786.86
881.581	685.33
881.757	727.18
881.933	745.78
882.109	780.85
882.285	750.63
882.461	701.41
882.637	741.52
882.813	696.57
882.989	758.57
883.165	773.1
883.341	712.26
883.517	772.52
883.693	709.55
883.869	773.29
884.044	719.04
884.22	721.95
884.396	793.25
884.572	770.58
884.747	785.31
884.923	760.12
885.099	762.64
885.275	793.06
885.45	724.47
885.626	714.01
885.801	695.02
885.977	698.7
886.153	654.91
886.328	756.44
886.504	700.25
886.679	742.1
886.855	683.2
887.03	743.65
887.206	738.23
887.381	738.42
887.557	738.81
887.732	746.75
887.908	753.53
888.083	746.17
888.258	714.2
888.434	694.24
888.609	715.36
888.784	752.56
888.96	704.51
889.135	708.97
889.31	710.91
889.485	744.04
889.661	718.66
889.836	759.15
890.011	740.94
890.186	745.98
890.361	696.18
890.537	746.17
890.712	758.96
890.887	748.11
891.062	727.57
891.237	800.22
891.412	695.6
891.587	745.78
891.762	738.81
891.937	778.33
892.112	698.12
892.287	723.31
892.462	647.94
892.637	665.96
892.812	660.73
892.987	657.24
893.161	640.96
893.336	695.41
893.511	640.38
893.686	664.21
893.861	677.19
894.035	681.65
894.21	685.14
894.385	585.17
894.56	665.76
894.734	626.82
894.909	590.4
895.084	621.59
895.258	581.68
895.433	615.2
895.608	560.75
895.782	531.69
895.957	575.67
896.131	565.6
896.306	497.59
896.48	495.85
896.655	544.09
896.829	497.4
897.004	478.99
897.178	462.72
897.353	474.34
897.527	531.11
897.701	500.11
897.876	447.22
898.05	509.02
898.224	510.77
898.399	544.67
898.573	487.52
898.747	427.84
898.921	482.29
899.096	388.71
899.27	383.47
899.444	387.35
899.618	379.21
899.792	423.77
899.967	391.03
900.141	466.4
900.315	369.91
900.489	422.03
900.663	461.94
900.837	444.12
901.011	351.31
901.185	478.99
901.359	427.84
901.533	448.77
901.707	459.81
901.881	412.54
902.055	373.21
902.229	423.58
902.403	434.04
902.576	425.71
902.75	455.94
902.924	533.05
903.098	445.28
903.272	487.32
903.446	536.73
903.619	513.28
903.793	522.78
903.967	503.98
904.14	546.22
904.314	556.68
904.488	524.72
904.661	547.97
904.835	547.97
905.009	566.37
905.182	629.92
905.356	532.85
905.529	541.77
905.703	513.87
905.876	520.65
906.05	479.38
906.223	492.94
906.397	466.98
906.57	426.68
906.744	412.73
906.917	437.92
907.09	405.95
907.264	425.9
907.437	392.58
907.61	379.41
907.784	402.27
907.957	418.35
908.13	356.16
908.304	422.8
908.477	377.08
908.65	411.57
908.823	361.97
908.996	428.62
909.17	370.3
909.343	372.82
909.516	388.71
909.689	364.29
909.862	354.8
910.035	344.34
910.208	361.97
910.381	350.54
910.554	425.71
910.727	359.84
910.9	389.09
911.073	332.71
911.246	403.62
911.419	404.59
911.592	400.14
911.765	348.79
911.938	363.71
912.11	366.42
912.283	354.22
912.456	423.39
912.629	422.61
912.802	357.12
912.974	306.17
913.147	297.84
913.32	285.05
913.493	304.23
913.665	322.83
913.838	334.07
914.01	315.28
914.183	345.89
914.356	316.83
914.528	329.81
914.701	350.34
914.873	360.61
915.046	307.53
915.218	309.85
915.391	255.6
915.563	281.76
915.736	332.91
915.908	356.35
916.081	329.61
916.253	307.14
916.425	304.81
916.598	315.47
916.77	302.68
916.942	292.03
917.115	237.39
917.287	345.89
917.459	300.74
917.632	266.64
917.804	248.82
917.976	297.64
918.148	330.19
918.32	292.99
918.493	365.84
918.665	364.87
918.837	322.83
919.009	376.69
919.181	364.1
919.353	318.18
919.525	333.29
919.697	304.43
919.869	317.02
920.041	375.92
920.213	410.99
920.385	341.82
920.557	346.08
920.729	369.91
920.901	367.01
921.073	345.69
921.244	351.51
921.416	383.67
921.588	327.09
921.76	316.05
921.932	405.95
922.103	331.55
922.275	335.04
922.447	352.28
922.619	292.03
922.79	357.12
922.962	318.38
923.134	352.47
923.305	278.85
923.477	295.51
923.648	269.94
923.82	285.83
923.991	256.38
924.163	246.3
924.335	302.49
924.506	274.59
924.677	316.05
924.849	276.53
925.02	317.02
925.192	290.48
925.363	284.28
925.535	318.96
925.706	280.59
925.877	346.86
926.049	275.36
926.22	286.41
926.391	286.99
926.562	315.66
926.734	279.04
926.905	315.28
927.076	228.86
927.247	259.48
927.419	224.21
927.59	212.98
927.761	240.49
927.932	219.18
928.103	241.26
928.274	234.29
928.445	211.43
928.616	202.51
928.787	217.05
928.958	245.53
929.129	209.1
929.3	209.1
929.471	171.32
929.642	164.35
929.813	85.3
929.984	201.35
930.155	105.83
930.326	188.95
930.496	132.77
930.667	91.3
930.838	133.15
931.009	104.28
931.18	94.02
931.35	116.1
931.521	107.19
931.692	81.23
931.863	44.42
932.033	87.04
932.204	107.19
932.374	101.38
932.545	57.01
932.716	116.49
932.886	87.43
933.057	12.06
933.227	57.79
933.398	137.61
933.568	38.02
933.739	31.82
933.909	24.65
934.08	98.08
934.25	3.34
934.421	7.8
934.591	33.95
934.761	10.12
934.932	-3.63
935.102	26.59
935.272	25.24
935.443	14.97
935.613	23.88
935.783	28.14
935.953	-8.67
936.123	168.8
936.294	-7.31
936.464	7.99
936.634	23.88
936.804	-34.24
936.974	-1.5
937.144	77.55
937.314	25.04
937.484	35.12
937.655	23.69
937.825	66.89
937.995	7.8
938.165	64.37
938.334	12.45
938.504	57.79
938.674	-1.89
938.844	30.47
939.014	88.98
939.184	49.07
939.354	101.38
939.524	115.13
939.694	47.13
939.863	54.1
940.033	157.37
940.203	102.93
940.373	95.18
940.542	99.63
940.712	48.49
940.882	73.67
941.051	123.08
941.221	85.68
941.391	125.79
941.56	23.1
941.73	38.02
941.899	159.11
942.069	34.54
942.238	104.87
942.408	52.55
942.577	121.72
942.747	43.45
942.916	23.69
943.086	48.29
943.255	105.45
943.425	54.49
943.594	56.43
943.763	-30.37
943.933	33.18
944.102	-16.03
944.271	60.69
944.441	48.87
944.61	46.55
944.779	65.15
944.948	104.09
945.117	38.8
945.287	42.48
945.456	-17.97
945.625	27.75
945.794	71.73
945.963	31.05
946.132	81.62
946.301	19.23
946.47	95.76
946.639	-18.16
946.808	21.75
946.977	77.35
947.146	75.61
947.315	23.49
947.484	69.02
947.653	14.19
947.822	22.72
947.991	20
948.16	111.26
948.329	51.2
948.498	61.66
948.666	33.76
948.835	56.82
949.004	25.62
949.173	26.2
949.341	60.5
949.51	63.21
949.679	81.42
949.847	73.87
950.016	117.46
950.185	103.32
950.353	28.34
950.522	44.22
950.69	89.95
950.859	35.12
951.028	101.57
951.196	48.87
951.365	24.85
951.533	52.55
951.701	63.21
951.87	71.35
952.038	33.76
952.207	66.7
952.375	105.25
952.543	20.59
952.712	45.58
952.88	58.56
953.048	83.36
953.217	72.7
953.385	51.2
953.553	79.48
953.721	15.35
953.89	42.29
954.058	5.47
954.226	30.08
954.394	52.36
954.562	-31.73
954.73	59.53
954.898	-2.47
955.067	59.72
955.235	41.12
955.403	100.6
955.571	111.07
955.739	64.37
955.907	32.4
956.075	27.17
956.243	-3.25
956.41	69.41
956.578	-4.6
956.746	23.88
956.914	6.05
957.082	62.24
957.25	57.98
957.418	18.84
957.585	33.18
957.753	106.8
957.921	4.12
958.089	25.43
958.256	73.09
958.424	67.67
958.592	70.96
958.759	20
958.927	62.05
959.095	41.7
959.262	26.4
959.43	70.38
959.597	25.43
959.765	63.6
959.932	13.22
960.1	77.16
960.267	54.1
960.435	38.99
960.602	87.23
960.77	40.35
960.937	12.25
961.104	45.58
961.272	3.73
961.439	35.89
961.606	60.3
961.774	99.05
961.941	53.72
962.108	57.2
962.275	66.31
962.443	100.99
962.61	56.24
962.777	95.76
962.944	74.45
963.111	55.85
963.278	82.78
963.446	52.55
963.613	33.37
963.78	62.44
963.947	94.21
964.114	49.65
964.281	121.92
964.448	65.53
964.615	30.85
964.782	83.75
964.949	71.73
965.116	81.23
965.282	98.28
965.449	51.78
965.616	15.35
965.783	68.44
965.95	87.23
966.117	40.54
966.283	47.71
966.45	79.29
966.617	59.72
966.784	113.78
966.95	84.13
967.117	94.6
967.284	42.48
967.45	52.36
967.617	108.16
967.784	83.55
967.95	126.76
968.117	64.18
968.283	127.92
968.45	148.46
968.616	80.84
968.783	88.98
968.949	107
969.116	120.17
969.282	61.08
969.449	89.75
969.615	73.67
969.781	32.4
969.948	38.02
970.114	52.36
970.28	129.86
970.447	74.06
970.613	120.95
970.779	63.4
970.945	113.78
971.112	94.4
971.278	58.37
971.444	37.83
971.61	130.05
971.776	72.51
971.942	95.76
972.108	118.43
972.275	69.99
972.441	78.71
972.607	157.56
972.773	39.96
972.939	93.24
973.105	75.22
973.271	63.02
973.437	51
973.602	82.58
973.768	69.6
973.934	77.93
974.1	90.92
974.266	2.95
974.432	68.63
974.598	55.46
974.763	81.03
974.929	41.7
975.095	118.82
975.261	50.23
975.426	32.21
975.592	74.06
975.758	120.75
975.923	-8.09
976.089	43.64
976.255	95.18
976.42	49.65
976.586	89.17
976.751	72.12
976.917	154.66
977.082	96.34
977.248	14.58
977.413	34.34
977.579	50.81
977.744	82.2
977.91	26.2
978.075	54.49
978.24	88.78
978.406	62.44
978.571	69.02
978.736	39.96
978.902	76
979.067	18.65
979.232	32.99
979.397	46.35
979.563	83.94
979.728	20.59
979.893	59.14
980.058	36.28
980.223	104.67
980.388	88.01
980.554	55.27
980.719	45.39
980.884	66.7
981.049	86.85
981.214	59.72
981.379	65.92
981.544	56.43
981.709	45
981.874	47.9
982.039	63.99
982.204	98.86
982.368	43.64
982.533	34.34
982.698	93.24
982.863	96.73
983.028	45
983.193	47.32
983.357	77.35
983.522	84.33
983.687	30.85
983.852	79.29
984.016	52.36
984.181	59.14
984.346	62.24
984.51	96.73
984.675	61.66
984.839	74.25
985.004	94.4
985.168	107
985.333	100.22
985.498	40.74
985.662	79.1
985.827	72.32
985.991	50.23
986.155	51.2
986.32	82.58
986.484	102.93
986.649	89.56
986.813	16.32
986.977	69.6
987.142	93.82
987.306	27.95
987.47	39.77
987.634	39.19
987.799	57.98
987.963	68.44
988.127	85.3
988.291	110.87
988.455	45.58
988.62	42.87
988.784	76.97
988.948	70.38
989.112	14.77
989.276	49.84
989.44	70.38
989.604	32.6
989.768	38.6
989.932	137.61
990.096	37.44
990.26	33.57
990.424	32.79
990.588	26.98
990.752	130.05
990.915	52.94
991.079	64.57
991.243	48.29
991.407	66.31
991.571	45.58
991.734	107.19
991.898	96.15
992.062	115.72
992.226	43.84
992.389	33.76
992.553	7.99
992.717	18.65
992.88	44.42
993.044	68.83
993.207	88.2
993.371	77.74
993.535	65.15
993.698	58.95
993.862	76.58
994.025	90.72
994.189	71.54
994.352	62.24
994.515	71.54
994.679	73.87
994.842	73.87
995.006	65.15
995.169	36.28
995.332	28.14
995.496	95.57
995.659	7.99
995.822	46.16
995.985	59.53
996.149	85.88
996.312	19.62
996.475	135.67
996.638	35.5
996.801	100.02
996.964	124.24
997.128	36.47
997.291	38.41
997.454	75.03
997.617	-13.32
997.78	94.21
997.943	17.29
998.106	86.85
998.269	38.99
998.432	50.62
998.595	77.16
998.758	3.73
998.92	29.69
999.083	13.61
999.246	44.42
999.409	-14.29
999.572	-14.48
999.735	28.53
999.897	82.58
1000.06	12.84
1000.223	14.19
1000.386	67.47
1000.548	69.8
1000.711	73.28
1000.874	60.3
1001.036	-14.1
1001.199	67.86
1001.361	28.53
1001.524	22.72
1001.687	77.16
1001.849	48.87
1002.012	66.5
1002.174	55.65
1002.337	63.79
1002.499	47.9
1002.661	89.75
1002.824	1.79
1002.986	22.91
1003.149	74.45
1003.311	23.88
1003.473	93.24
1003.636	1.99
1003.798	67.67
1003.96	39.38
1004.123	42.87
1004.285	25.24
1004.447	34.15
1004.609	19.04
1004.771	125.79
1004.933	-14.48
1005.096	32.4
1005.258	-5.57
1005.42	32.21
1005.582	71.54
1005.744	43.84
1005.906	-10.8
1006.068	19.62
1006.23	5.28
1006.392	-0.53
1006.554	-3.83
1006.716	71.35
1006.878	52.17
1007.04	-6.93
1007.202	9.93
1007.363	33.18
1007.525	51.78
1007.687	34.92
1007.849	65.53
1008.011	-18.94
1008.172	14
1008.334	14
1008.496	25.24
1008.658	-33.28
1008.819	5.28
1008.981	-25.53
1009.143	0.24
1009.304	15.16
1009.466	80.84
1009.627	102.54
1009.789	117.85
1009.95	29.11
1010.112	14
1010.273	39.19
1010.435	9.54
1010.596	17.29
1010.758	11.67
1010.919	6.83
1011.081	-20.1
1011.242	20.59
1011.403	48.1
1011.565	39.19
1011.726	42.87
1011.887	19.62
1012.049	9.54
1012.21	57.2
1012.371	93.43
1012.532	-36.96
1012.693	31.82
1012.855	27.95
1013.016	22.91
1013.177	70.38
1013.338	-3.63
1013.499	99.25
1013.66	50.81
1013.821	57.59
1013.982	39.19
1014.143	57.01
1014.304	-1.31
1014.465	47.13
1014.626	48.1
1014.787	-14.1
1014.948	106.61
1015.109	-39.67
1015.27	67.08
1015.431	13.61
1015.592	-0.73
1015.752	94.79
1015.913	29.89
1016.074	11.09
1016.235	1.21
1016.395	12.25
1016.556	31.44
1016.717	-4.99
1016.877	74.83
1017.038	4.12
1017.199	28.72
1017.359	35.5
1017.52	21.94
1017.681	2.95
1017.841	27.75
1018.002	18.26
1018.162	-24.94
1018.323	67.67
1018.483	21.36
1018.644	6.64
1018.804	-13.9
1018.964	-12.93
1019.125	-5.76
1019.285	33.37
1019.446	-31.14
1019.606	-12.35
1019.766	-43.35
1019.926	58.17
1020.087	22.52
1020.247	-21.85
1020.407	35.7
1020.567	82.2
1020.728	21.94
1020.888	-12.35
1021.048	-2.47
1021.208	-25.53
1021.368	21.17
1021.528	52.36
1021.688	70.38
1021.848	55.65
1022.008	45.58
1022.168	-7.31
1022.328	27.56
1022.488	53.52
1022.648	12.25
1022.808	35.12
1022.968	50.62
1023.128	-2.08
1023.288	1.02
1023.448	10.9
1023.608	33.57
1023.767	30.66
1023.927	16.52
1024.087	-5.96
1024.247	-24.94
1024.406	-21.07
1024.566	-20.49
1024.726	-7.31
1024.885	24.85
1025.045	62.44
1025.205	3.15
1025.364	-26.49
1025.524	17.49
1025.683	3.92
1025.843	45.39
1026.003	-2.66
1026.162	62.05
1026.321	65.92
1026.481	26.01
1026.64	-15.26
1026.8	18.84
1026.959	27.95
1027.119	17.29
1027.278	5.86
1027.437	-0.34
1027.597	21.55
1027.756	14.77
1027.915	25.82
1028.074	8.57
1028.234	-17.39
1028.393	13.61
1028.552	-0.53
1028.711	-48.97
1028.87	45.39
1029.03	-50.52
1029.189	9.15
1029.348	-45.68
1029.507	-2.08
1029.666	6.05
1029.825	-22.62
1029.984	-5.57
1030.143	16.71
1030.302	13.22
1030.461	-32.31
1030.62	14.58
1030.779	36.09
1030.938	0.63
1031.097	-14.1
1031.255	41.32
1031.414	51.97
1031.573	47.71
1031.732	-26.88
1031.891	7.41
1032.049	67.47
1032.208	19.42
1032.367	-16.03
1032.525	-9.83
1032.684	19.23
1032.843	-5.96
1033.001	-46.26
1033.16	122.69
1033.319	66.7
1033.477	35.5
1033.636	-16.61
1033.794	-51.49
1033.953	20.78
1034.111	30.66
1034.27	-23.01
1034.428	21.55
1034.587	-1.7
1034.745	14
1034.903	3.15
1035.062	26.01
1035.22	-13.32
1035.378	47.52
1035.537	-14.1
1035.695	36.86
1035.853	3.15
1036.011	39.57
1036.17	15.16
1036.328	-59.82
1036.486	33.57
1036.644	27.75
1036.802	-66.21
1036.96	-11
1037.119	2.76
1037.277	-28.43
1037.435	-28.82
1037.593	-9.45
1037.751	5.09
1037.909	41.32
1038.067	41.32
