Data from pine_FLMT105791__60__17-21-00-078.txt Node

Date: Mon Mar 20 17:21:00 GMT 2023
User: antho
Spectrometer: FLMT10579
Trigger mode: 0
Integration Time (sec): 1.000000E-1
Scans to average: 10
Electric dark correction enabled: true
Nonlinearity correction enabled: false
Boxcar width: 0
XAxis mode: Wavelengths
Number of Pixels in Spectrum: 3648
>>>>>Begin Spectral Data<<<<<
345.248	-132.93
345.464	-132.93
345.681	-132.93
345.898	-177.68
346.114	-158.31
346.331	-38.77
346.548	30.21
346.764	-19.2
346.981	9.67
347.197	-19.39
347.414	10.25
347.631	-16.48
347.847	62.18
348.064	5.02
348.28	21.88
348.497	-44.38
348.713	-0.98
348.93	55.2
349.146	16.65
349.363	-13.97
349.579	28.27
349.796	6.57
350.012	-11.83
350.229	36.41
350.445	-1.57
350.661	-19.58
350.878	-2.15
351.094	16.06
351.311	-13.97
351.527	19.94
351.743	-30.05
351.96	22.65
352.176	28.85
352.392	22.07
352.609	49.58
352.825	-0.4
353.041	26.91
353.257	4.05
353.474	0.76
353.69	7.93
353.906	12
354.122	-23.27
354.339	43.38
354.555	23.43
354.771	-3.89
354.987	59.46
355.203	46.29
355.42	-4.86
355.636	-3.5
355.852	13.55
356.068	28.66
356.284	-45.55
356.5	52.88
356.716	23.23
356.932	-1.37
357.148	17.03
357.364	6.96
357.58	54.23
357.796	52.68
358.012	33.31
358.228	22.26
358.444	-46.32
358.66	58.11
358.876	22.26
359.092	-14.74
359.308	23.62
359.524	26.91
359.74	-16.68
359.956	-27.33
360.172	-22.88
360.388	26.33
360.604	-12.42
360.819	69.73
361.035	-8.15
361.251	24.4
361.467	-23.85
361.683	19.55
361.898	25.95
362.114	24.98
362.33	16.26
362.546	57.14
362.762	19.55
362.977	34.47
363.193	-22.88
363.409	29.24
363.624	-18.42
363.84	-27.53
364.056	-9.9
364.271	20.71
364.487	57.91
364.703	-12.03
364.918	-46.13
365.134	-9.51
365.35	3.86
365.565	119.91
365.781	21.1
365.996	19.94
366.212	84.46
366.427	12.77
366.643	-10.28
366.858	11.41
367.074	-29.85
367.289	52.68
367.505	100.93
367.72	-47.87
367.936	6.96
368.151	64.89
368.367	23.62
368.582	9.48
368.798	-14.16
369.013	40.48
369.228	-7.38
369.444	15.1
369.659	52.68
369.874	0.18
370.09	44.74
370.305	-55.43
370.52	-23.46
370.736	44.93
370.951	29.82
371.166	66.25
371.381	67.6
371.597	22.07
371.812	-21.91
372.027	-15.13
372.242	10.25
372.458	81.75
372.673	-18.03
372.888	-7.18
373.103	32.53
373.318	116.23
373.533	22.26
373.749	5.8
373.964	-34.12
374.179	59.66
374.394	-6.6
374.609	70.9
374.824	-40.7
375.039	60.24
375.254	-26.56
375.469	60.82
375.684	26.91
375.899	64.31
376.114	9.28
376.329	21.1
376.544	68.96
376.759	30.6
376.974	-2.34
377.189	7.73
377.404	-17.45
377.619	25.36
377.834	-35.08
378.049	-22.49
378.264	-25.4
378.478	35.44
378.693	-6.41
378.908	28.27
379.123	17.23
379.338	52.88
379.553	-2.92
379.767	12.77
379.982	19.75
380.197	20.33
380.412	20.33
380.626	39.12
380.841	97.05
381.056	31.56
381.271	70.31
381.485	-21.91
381.7	-39.15
381.915	13.74
382.129	-9.51
382.344	20.91
382.559	13.16
382.773	56.36
382.988	-37.8
383.202	12.19
383.417	-14.74
383.632	107.71
383.846	32.73
384.061	16.06
384.275	6.96
384.49	33.7
384.704	52.3
384.919	38.15
385.133	1.92
385.348	36.99
385.562	-21.52
385.777	52.1
385.991	-5.44
386.206	-4.08
386.42	0.76
386.634	44.74
386.849	37.76
387.063	34.28
387.277	-17.45
387.492	-9.12
387.706	-36.83
387.92	17.03
388.135	32.92
388.349	32.92
388.563	28.08
388.778	45.32
388.992	39.31
389.206	24.01
389.42	96.08
389.635	-1.95
389.849	69.93
390.063	61.6
390.277	20.71
390.491	59.27
390.706	29.82
390.92	53.65
391.134	8.12
391.348	43.77
391.562	-18.81
391.776	17.81
391.99	-4.28
392.205	34.28
392.419	-15.52
392.633	-6.02
392.847	56.17
393.061	-2.92
393.275	103.83
393.489	12.58
393.703	12
393.917	50.75
394.131	10.25
394.345	48.81
394.559	60.43
394.773	11.41
394.986	48.42
395.2	1.53
395.414	47.45
395.628	-9.9
395.842	19.55
396.056	19.55
396.27	-38.18
396.484	9.09
396.697	13.35
396.911	62.18
397.125	52.49
397.339	53.07
397.553	41.06
397.766	91.82
397.98	67.8
398.194	18.58
398.408	13.93
398.621	27.3
398.835	50.55
399.049	36.21
399.262	66.44
399.476	37.38
399.69	54.43
399.903	86.2
400.117	24.59
400.331	53.46
400.544	-3.12
400.758	103.64
400.971	22.65
401.185	50.55
401.398	-0.21
401.612	66.44
401.826	55.98
402.039	60.82
402.253	27.11
402.466	53.46
402.68	-0.98
402.893	40.48
403.106	30.79
403.32	20.52
403.533	58.11
403.747	13.93
403.96	33.89
404.174	64.5
404.387	-2.92
404.6	36.99
404.814	53.65
405.027	30.98
405.24	44.55
405.454	1.73
405.667	53.85
405.88	-34.12
406.094	39.31
406.307	54.04
406.52	55.98
406.733	-11.25
406.947	-26.75
407.16	89.11
407.373	55.78
407.586	23.62
407.799	16.26
408.012	56.95
408.226	37.57
408.439	57.72
408.652	10.06
408.865	49.2
409.078	67.02
409.291	64.5
409.504	-9.9
409.717	39.9
409.93	38.35
410.143	18.39
410.357	-21.52
410.57	-11.06
410.783	-4.47
410.996	34.86
411.209	15.48
411.421	65.47
411.634	44.93
411.847	17.42
412.06	54.43
412.273	29.63
412.486	16.06
412.699	117.98
412.912	11.41
413.125	67.99
413.338	46.68
413.55	82.71
413.763	33.11
413.976	24.78
414.189	12
414.402	9.09
414.615	74.38
414.827	-19.97
415.04	95.69
415.253	35.25
415.466	70.7
415.678	103.83
415.891	15.48
416.104	37.57
416.316	14.51
416.529	19.16
416.742	56.17
416.954	80.58
417.167	34.47
417.38	5.99
417.592	88.14
417.805	27.69
418.017	-32.76
418.23	37.38
418.442	20.33
418.655	22.85
418.868	35.63
419.08	89.69
419.293	68.76
419.505	43
419.718	55.4
419.93	88.53
420.142	40.09
420.355	93.56
420.567	98.99
420.78	40.67
420.992	46.1
421.205	86.01
421.417	-13.77
421.629	17.81
421.842	-8.93
422.054	-22.1
422.266	63.92
422.479	69.73
422.691	16.45
422.903	60.63
423.115	11.8
423.328	39.9
423.54	66.25
423.752	29.63
423.964	14.71
424.177	58.69
424.389	21.3
424.601	144.33
424.813	66.63
425.025	74
425.238	60.24
425.45	21.68
425.662	40.67
425.874	350.67
426.086	37.18
426.298	44.74
426.51	69.93
426.722	49.58
426.934	20.33
427.146	53.26
427.358	13.16
427.57	77.87
427.782	37.57
427.994	42.22
428.206	33.31
428.418	-28.88
428.63	28.46
428.842	90.66
429.054	78.65
429.266	110.81
429.478	5.8
429.69	55.59
429.902	29.24
430.114	53.26
430.325	72.64
430.537	55.01
430.749	49
430.961	-7.38
431.173	50.36
431.384	66.83
431.596	-4.47
431.808	19.16
432.02	59.85
432.231	66.25
432.443	68.18
432.655	43.19
432.867	35.83
433.078	89.88
433.29	132.12
433.502	83.88
433.713	87.95
433.925	77.1
434.136	94.34
434.348	20.91
434.56	-14.74
434.771	140.64
434.983	23.43
435.194	68.18
435.406	55.98
435.617	89.11
435.829	112.16
436.04	102.86
436.252	67.8
436.463	114.29
436.675	96.66
436.886	66.63
437.098	95.31
437.309	121.08
437.521	79.81
437.732	103.64
437.943	79.42
438.155	87.36
438.366	11.8
438.578	137.74
438.789	78.84
439	105.96
439.211	67.6
439.423	98.41
439.634	111.97
439.845	73.41
440.057	87.17
440.268	116.23
440.479	61.6
440.69	87.75
440.902	79.61
441.113	74.77
441.324	62.56
441.535	107.9
441.746	126.89
441.957	28.85
442.168	73.41
442.38	118.94
442.591	118.94
442.802	73.61
443.013	74.96
443.224	96.08
443.435	82.71
443.646	79.23
443.857	100.15
444.068	75.93
444.279	49.2
444.49	156.73
444.701	108.68
444.912	183.46
445.123	128.24
445.334	110.42
445.545	115.46
445.756	108.29
445.967	60.63
446.178	91.63
446.388	156.92
446.599	129.6
446.81	129.99
447.021	90.66
447.232	133.67
447.443	142.97
447.653	85.62
447.864	150.53
448.075	92.6
448.286	140.45
448.496	122.43
448.707	164.28
448.918	107.32
449.129	187.34
449.339	88.33
449.55	144.91
449.761	123.59
449.971	160.41
450.182	106.54
450.393	146.07
450.603	118.17
450.814	185.59
451.024	155.37
451.235	152.46
451.446	165.25
451.656	169.13
451.867	120.49
452.077	150.72
452.288	186.95
452.498	175.52
452.709	142.78
452.919	143.36
453.13	115.84
453.34	168.74
453.55	103.06
453.761	163.89
453.971	152.85
454.182	170.68
454.392	173.58
454.602	180.75
454.813	149.75
455.023	177.26
455.233	93.56
455.444	143.94
455.654	86.59
455.864	149.56
456.075	142.58
456.285	113.13
456.495	112.74
456.705	177.07
456.916	176.1
457.126	222.21
457.336	153.04
457.546	98.79
457.756	95.89
457.967	187.72
458.177	123.79
458.387	148.2
458.597	129.99
458.807	143.36
459.017	138.13
459.227	139.68
459.437	152.85
459.647	171.64
459.857	183.46
460.068	102.09
460.278	194.7
460.488	168.93
460.698	211.56
460.908	148.78
461.117	113.71
461.327	117.59
461.537	147.23
461.747	146.46
461.957	156.34
462.167	282.47
462.377	190.82
462.587	182.49
462.797	222.02
463.007	185.79
463.216	195.09
463.426	210.01
463.636	188.5
463.846	137.74
464.056	136.77
464.265	212.72
464.475	134.25
464.685	178.81
464.895	208.84
465.104	175.91
465.314	195.28
465.524	168.16
465.733	159.63
465.943	227.06
466.153	231.9
466.362	226.67
466.572	194.7
466.782	165.64
466.991	172.81
467.201	226.28
467.41	138.13
467.62	195.09
467.829	168.16
468.039	201.29
468.249	162.54
468.458	176.49
468.668	210.2
468.877	196.44
469.086	223.76
469.296	212.72
469.505	170.68
469.715	237.52
469.924	218.14
470.134	238.1
470.343	245.85
470.552	180.75
470.762	199.54
470.971	177.65
471.18	198.38
471.39	177.65
471.599	161.38
471.808	238.68
472.018	155.56
472.227	256.89
472.436	245.85
472.645	186.17
472.855	187.34
473.064	219.69
473.273	212.91
473.482	238.29
473.691	238.1
473.901	241.01
474.11	211.56
474.319	279.37
474.528	229.57
474.737	267.94
474.946	244.88
475.155	239.84
475.364	274.72
475.573	229.19
475.783	238.29
475.992	244.11
476.201	268.71
476.41	216.4
476.619	210.59
476.828	247.59
477.037	229.38
477.245	217.17
477.454	260.38
477.663	222.79
477.872	228.02
478.081	290.99
478.29	246.04
478.499	304.94
478.708	251.27
478.917	311.53
479.125	241.78
479.334	256.12
479.543	233.06
479.752	267.74
479.961	252.63
480.169	298.35
480.378	235.39
480.587	394.26
480.796	301.65
481.004	266.97
481.213	293.32
481.422	292.15
481.63	270.07
481.839	291.96
482.048	325.67
482.256	289.64
482.465	262.9
482.674	305.91
482.882	328.77
483.091	352.22
483.299	295.25
483.508	307.46
483.716	286.15
483.925	297.97
484.134	288.28
484.342	303.2
484.551	315.6
484.759	332.45
484.967	329.35
485.176	352.6
485.384	332.07
485.593	364.62
485.801	314.24
486.01	318.89
486.218	298.55
486.426	247.98
486.635	290.22
486.843	289.44
487.051	296.22
487.26	284.21
487.468	317.54
487.676	311.53
487.885	278.59
488.093	321.02
488.301	304.17
488.509	313.27
488.717	335.55
488.926	302.04
489.134	334
489.342	353.19
489.55	304.55
489.758	350.67
489.967	293.51
490.175	413.63
490.383	323.74
490.591	381.86
490.799	311.53
491.007	399.68
491.215	355.9
491.423	356.48
491.631	332.07
491.839	351.83
492.047	366.94
492.255	330.52
492.463	303
492.671	321.8
492.879	392.71
493.087	356.87
493.295	361.9
493.503	365
493.711	394.07
493.919	422.74
494.127	416.15
494.334	412.47
494.542	337.69
494.75	350.28
494.958	365.39
495.166	385.35
495.374	396
495.581	409.37
495.789	377.98
495.997	439.21
496.205	378.57
496.412	372.75
496.62	365.58
496.828	406.66
497.035	371.78
497.243	428.17
497.451	399.49
497.658	386.9
497.866	397.17
498.074	462.26
498.281	377.6
498.489	485.32
498.696	427.97
498.904	402.98
499.112	433.2
499.319	482.61
499.527	393.68
499.734	435.33
499.942	329.16
500.149	372.75
500.357	417.51
500.564	380.89
500.771	410.73
500.979	378.57
501.186	405.5
501.394	432.04
501.601	414.22
501.808	415.38
502.016	417.7
502.223	389.22
502.43	433.4
502.638	415.96
502.845	378.76
503.052	467.69
503.26	399.49
503.467	504.11
503.674	413.44
503.881	439.21
504.089	526.4
504.296	457.23
504.503	390
504.71	420.22
504.917	390
505.125	443.67
505.332	435.33
505.539	456.84
505.746	468.46
505.953	460.91
506.16	453.93
506.367	491.71
506.574	512.06
506.781	494.81
506.988	426.62
507.195	462.65
507.402	469.82
507.609	458
507.816	432.82
508.023	465.36
508.23	457.03
508.437	447.54
508.644	496.36
508.851	505.86
509.058	477.96
509.265	508.96
509.472	489.39
509.679	573.48
509.885	483.38
510.092	495.98
510.299	486.87
510.506	512.06
510.713	493.26
510.92	484.55
511.126	505.08
511.333	520.39
511.54	508.57
511.746	548.29
511.953	547.51
512.16	537.24
512.367	507.02
512.573	494.43
512.78	509.54
512.987	512.45
513.193	519.81
513.4	459.75
513.606	482.8
513.813	532.79
514.02	516.9
514.226	602.15
514.433	564.37
514.639	486.48
514.846	531.63
515.052	504.7
515.259	538.41
515.465	547.71
515.672	516.71
515.878	623.27
516.085	511.67
516.291	574.64
516.497	528.33
516.704	521.75
516.91	506.05
517.117	499.66
517.323	453.35
517.529	479.9
517.736	487.45
517.942	509.93
518.148	487.06
518.354	556.04
518.561	515.74
518.767	555.46
518.973	569.21
519.179	549.84
519.386	515.55
519.592	520.97
519.798	504.7
520.004	591.3
520.21	550.81
520.417	592.27
520.623	606.61
520.829	591.3
521.035	588.39
521.241	607.38
521.447	618.62
521.653	684.88
521.859	592.08
522.065	618.04
522.271	702.9
522.477	651.17
522.683	663.76
522.889	623.27
523.095	673.64
523.301	642.06
523.507	613.97
523.713	634.12
523.919	606.99
524.125	670.35
524.331	633.54
524.537	697.47
524.742	665.89
524.948	693.79
525.154	662.21
525.36	743.59
525.566	681.78
525.772	741.84
525.977	608.74
526.183	672.87
526.389	708.32
526.595	651.36
526.8	675.77
527.006	658.72
527.212	603.51
527.417	653.3
527.623	597.31
527.829	664.34
528.034	667.83
528.24	682.56
528.446	613
528.651	739.71
528.857	690.5
529.062	748.62
529.268	697.86
529.473	706.77
529.679	675.19
529.884	747.07
530.09	748.43
530.295	756.76
530.501	737.97
530.706	756.95
530.912	698.25
531.117	752.3
531.323	730.8
531.528	745.72
531.733	740.87
531.939	717.82
532.144	771.1
532.35	777.88
532.555	793.19
532.76	779.82
532.966	795.12
533.171	762.57
533.376	729.64
533.581	669.38
533.787	768.58
533.992	753.85
534.197	788.92
534.402	747.65
534.607	737
534.813	859.45
535.018	755.6
535.223	752.69
535.428	752.69
535.633	769.35
535.838	790.47
536.043	785.44
536.249	845.11
536.454	782.72
536.659	806.75
536.864	755.21
537.069	769.55
537.274	813.33
537.479	793.19
537.684	823.99
537.889	780.79
538.094	859.45
538.299	785.44
538.504	795.12
538.708	821.47
538.913	832.13
539.118	801.32
539.323	811.59
539.528	795.9
539.733	788.92
539.938	826.51
540.142	827.28
540.347	806.75
540.552	788.15
540.757	819.53
540.962	800.74
541.166	734.48
541.371	745.72
541.576	799.97
541.781	701.54
541.985	809.27
542.19	809.85
542.395	889.09
542.599	879.79
542.804	874.56
543.008	870.49
543.213	786.02
543.418	793.57
543.622	842.2
543.827	797.45
544.031	861.77
544.236	848.4
544.44	806.75
544.645	898
544.849	854.6
545.054	849.57
545.258	950.31
545.463	915.63
545.667	834.65
545.872	864.48
546.076	865.07
546.281	872.43
546.485	839.88
546.689	887.73
546.894	892.19
547.098	854.6
547.302	800.35
547.507	857.32
547.711	877.08
547.915	884.83
548.119	845.69
548.324	853.25
548.528	949.54
548.732	882.11
548.936	893.35
549.141	878.05
549.345	850.73
549.549	881.92
549.753	867.78
549.957	950.51
550.161	927.65
550.366	876.5
550.57	832.71
550.774	845.88
550.978	822.63
551.182	886.18
551.386	863.9
551.59	861.58
551.794	861
551.998	873.2
552.202	832.52
552.406	798.42
552.61	897.23
552.814	881.53
553.018	945.66
553.222	885.6
553.426	848.21
553.63	924.16
553.833	828.64
554.037	837.36
554.241	903.23
554.445	875.72
554.649	880.95
554.853	840.07
555.056	918.15
555.26	892.58
555.464	890.25
555.668	879.02
555.871	907.5
556.075	900.91
556.279	866.62
556.483	852.28
556.686	883.66
556.89	864.1
557.094	908.85
557.297	827.67
557.501	937.53
557.704	807.33
557.908	916.99
558.112	834.65
558.315	935.59
558.519	920.86
558.722	889.86
558.926	872.23
559.129	819.92
559.333	768.97
559.536	805.58
559.74	826.32
559.943	819.92
560.147	794.93
560.35	837.75
560.553	807.52
560.757	789.5
560.96	886.96
561.164	822.25
561.367	905.56
561.57	834.07
561.774	854.02
561.977	862.93
562.18	822.83
562.384	957.48
562.587	804.81
562.79	817.4
562.993	840.65
563.197	845.5
563.4	899.75
563.603	893.55
563.806	923.58
564.009	844.92
564.212	861
564.416	769.55
564.619	837.75
564.822	804.03
565.025	889.09
565.228	834.07
565.431	829.42
565.634	751.53
565.837	825.73
566.04	771.87
566.243	812.75
566.446	758.89
566.649	829.8
566.852	768.97
567.055	799.19
567.258	829.03
567.461	871.46
567.664	841.43
567.867	745.91
568.07	826.12
568.273	805.58
568.475	837.75
568.678	805
568.881	796.67
569.084	845.5
569.287	715.88
569.489	757.54
569.692	816.82
569.895	790.47
570.098	744.55
570.3	734.29
570.503	693.21
570.706	725.18
570.909	723.05
571.111	712.97
571.314	698.44
571.516	718.2
571.719	739.9
571.922	724.6
572.124	695.73
572.327	731.57
572.529	715.88
572.732	687.79
572.935	728.67
573.137	773.04
573.34	696.12
573.542	739.9
573.745	725.57
573.947	746.1
574.15	727.5
574.352	681.2
574.554	772.26
574.757	682.17
574.959	695.34
575.162	689.14
575.364	690.69
575.566	746.1
575.769	684.88
575.971	703.67
576.173	637.41
576.376	706.77
576.578	717.43
576.78	759.47
576.982	629.66
577.185	692.44
577.387	645.16
577.589	652.52
577.791	704.84
577.993	687.59
578.196	696.31
578.398	718.59
578.6	750.75
578.802	647.49
579.004	648.65
579.206	651.17
579.408	686.24
579.61	651.75
579.812	695.34
580.014	650.39
580.216	634.12
580.418	657.56
580.62	656.01
580.822	592.85
581.024	671.9
581.226	703.09
581.428	667.06
581.63	744.36
581.832	653.11
582.034	728.67
582.236	655.82
582.438	690.89
582.64	718.98
582.841	724.99
583.043	772.07
583.245	701.16
583.447	695.92
583.649	691.86
583.85	695.73
584.052	741.07
584.254	652.72
584.456	697.09
584.657	645.94
584.859	676.55
585.061	659.5
585.262	646.71
585.464	601.57
585.666	700.19
585.867	645.94
586.069	736.42
586.27	678.68
586.472	665.51
586.674	651.36
586.875	669.96
587.077	631.02
587.278	675.77
587.48	661.82
587.681	741.07
587.883	668.99
588.084	608.93
588.285	659.31
588.487	645.55
588.688	631.41
588.89	621.14
589.091	609.13
589.292	627.34
589.494	596.92
589.695	603.51
589.896	564.56
590.098	521.75
590.299	601.18
590.5	538.79
590.702	567.66
590.903	595.95
591.104	644.77
591.305	614.94
591.507	698.83
591.708	640.71
591.909	607.77
592.11	695.73
592.311	650.2
592.512	591.3
592.714	565.14
592.915	573.48
593.116	574.83
593.317	607.19
593.518	584.91
593.719	578.51
593.92	657.17
594.121	664.15
594.322	630.63
594.523	634.51
594.724	586.46
594.925	575.03
595.126	636.25
595.327	639.35
595.528	623.07
595.729	612.03
595.929	631.99
596.13	610.68
596.331	606.8
596.532	640.71
596.733	662.21
596.934	654.46
597.135	658.92
597.335	610.09
597.536	590.91
597.737	632.76
597.938	613
598.138	638.57
598.339	621.33
598.54	647.1
598.74	636.64
598.941	603.7
599.142	642.45
599.342	648.65
599.543	578.13
599.744	603.31
599.944	629.86
600.145	622.69
600.345	615.13
600.546	687.98
600.746	665.31
600.947	682.75
601.147	652.72
601.348	648.84
601.548	581.42
601.749	630.82
601.949	600.02
602.15	585.88
602.35	614.94
602.551	674.03
602.751	578.9
602.951	606.99
603.152	526.78
603.352	645.55
603.552	633.73
603.753	630.24
603.953	660.86
604.153	632.57
604.354	603.31
604.554	615.13
604.754	621.91
604.954	593.43
605.155	619.78
605.355	571.93
605.555	647.29
605.755	675.39
605.955	614.94
606.155	657.95
606.356	637.22
606.556	635.47
606.756	589.94
606.956	548.87
607.156	661.63
607.356	575.8
607.556	613.58
607.756	585.29
607.956	648.46
608.156	627.14
608.356	596.34
608.556	613.19
608.756	607.58
608.956	579.87
609.156	626.95
609.356	573.48
609.556	580.26
609.755	616.29
609.955	559.72
610.155	611.06
610.355	610.87
610.555	564.18
610.755	610.29
610.954	534.92
611.154	608.35
611.354	611.26
611.554	582.39
611.753	569.99
611.953	531.43
612.153	617.07
612.352	605.64
612.552	553.52
612.752	546.35
612.951	555.46
613.151	580.45
613.351	549.45
613.55	560.3
613.75	627.92
613.949	588.39
614.149	551.78
614.348	563.79
614.548	543.64
614.747	512.83
614.947	548.68
615.146	514
615.346	579.87
615.545	574.44
615.745	592.08
615.944	613
616.144	589.17
616.343	590.72
616.542	545.58
616.742	575.99
616.941	565.14
617.14	523.1
617.34	537.05
617.539	554.88
617.738	528.33
617.938	616.88
618.137	539.38
618.336	525.04
618.535	562.82
618.734	559.14
618.934	547.51
619.133	570.76
619.332	570.96
619.531	509.54
619.73	545.77
619.929	580.84
620.128	547.51
620.328	588.98
620.527	515.16
620.726	531.24
620.925	542.28
621.124	497.72
621.323	546.93
621.522	483.77
621.721	487.45
621.92	483.58
622.119	549.84
622.318	481.83
622.517	537.24
622.715	509.54
622.914	479.31
623.113	497.33
623.312	441.92
623.511	533.56
623.71	474.66
623.909	517.48
624.107	557.2
624.306	464.59
624.505	491.91
624.704	494.43
624.902	499.08
625.101	529.11
625.3	519.23
625.499	460.91
625.697	499.85
625.896	470.98
626.095	517.29
626.293	435.53
626.492	456.84
626.69	534.73
626.889	478.54
627.088	513.61
627.286	496.75
627.485	480.28
627.683	475.83
627.882	520.2
628.08	457.61
628.279	482.22
628.477	539.18
628.676	478.73
628.874	496.56
629.073	456.65
629.271	462.46
629.469	523.68
629.668	484.93
629.866	495.59
630.065	462.26
630.263	516.51
630.461	453.74
630.66	499.27
630.858	513.8
631.056	537.24
631.254	524.85
631.453	464.98
631.651	516.71
631.849	480.48
632.047	518.84
632.245	482.41
632.444	491.33
632.642	493.26
632.84	505.86
633.038	472.73
633.236	467.11
633.434	462.85
633.632	457.81
633.83	446.57
634.028	500.05
634.227	487.84
634.425	552.94
634.623	482.8
634.821	480.67
635.019	509.15
635.216	463.62
635.414	540.54
635.612	491.91
635.81	456.65
636.008	536.86
636.206	476.21
636.404	495.78
636.602	475.05
636.8	488.03
636.997	496.95
637.195	558.75
637.393	468.27
637.591	505.66
637.789	503.15
637.986	459.16
638.184	505.08
638.382	520.97
638.58	529.69
638.777	557.59
638.975	493.26
639.173	478.54
639.37	481.06
639.568	481.64
639.765	494.04
639.963	488.61
640.161	539.57
640.358	506.83
640.556	478.54
640.753	465.95
640.951	451.8
641.148	495.98
641.346	442.7
641.543	465.17
641.741	508.96
641.938	458.39
642.136	494.81
642.333	442.89
642.531	513.03
642.728	539.18
642.925	501.21
643.123	489
643.32	478.54
643.517	448.51
643.715	471.95
643.912	418.28
644.109	481.06
644.306	478.54
644.504	435.14
644.701	455.87
644.898	490.75
645.095	410.53
645.293	466.33
645.49	493.07
645.687	468.27
645.884	507.99
646.081	416.93
646.278	426.62
646.475	429.72
646.672	446.76
646.87	486.48
647.067	456.84
647.264	433.2
647.461	423.71
647.658	397.55
647.855	467.88
648.052	412.47
648.249	390.58
648.446	419.45
648.642	417.51
648.839	398.72
649.036	408.98
649.233	385.93
649.43	378.57
649.627	370.23
649.824	399.3
650.021	395.03
650.217	395.23
650.414	398.72
650.611	423.52
650.808	428.36
651.004	406.27
651.201	427.78
651.398	460.91
651.595	408.6
651.791	379.15
651.988	445.41
652.185	402.98
652.381	426.42
652.578	378.76
652.775	426.03
652.971	415.96
653.168	419.45
653.364	402.78
653.561	373.14
653.757	410.92
653.954	424.1
654.15	382.44
654.347	475.83
654.543	394.45
654.74	371.59
654.936	356.48
655.133	399.88
655.329	391.74
655.525	387.28
655.722	429.91
655.918	381.86
656.115	425.84
656.311	331.49
656.507	332.84
656.704	324.9
656.9	344.27
657.096	362.68
657.292	332.26
657.489	395.42
657.685	373.33
657.881	351.83
658.077	356.29
658.273	384.96
658.47	426.03
658.666	373.92
658.862	401.43
659.058	367.13
659.254	435.33
659.45	369.85
659.646	390.38
659.842	367.72
660.038	414.99
660.234	352.99
660.43	386.32
660.626	417.12
660.822	427.39
661.018	406.47
661.214	411.31
661.41	340.4
661.606	414.02
661.802	408.21
661.998	366.17
662.194	358.8
662.39	390.77
662.586	392.71
662.781	415.77
662.977	403.37
663.173	443.67
663.369	367.52
663.564	408.4
663.76	420.8
663.956	351.64
664.152	456.45
664.347	332.84
664.543	349.12
664.739	380.31
664.934	318.5
665.13	309.79
665.326	386.51
665.521	391.55
665.717	318.12
665.912	330.9
666.108	288.86
666.304	355.7
666.499	345.63
666.695	296.22
666.89	346.79
667.086	414.8
667.281	373.92
667.477	435.14
667.672	358.42
667.867	376.05
668.063	381.86
668.258	317.15
668.454	363.26
668.649	409.76
668.844	375.08
669.04	374.69
669.235	379.53
669.43	327.42
669.626	324.12
669.821	372.75
670.016	315.79
670.211	357.25
670.407	309.01
670.602	333.81
670.797	351.64
670.992	381.47
671.187	310.17
671.382	401.04
671.578	323.15
671.773	379.15
671.968	305.33
672.163	365.78
672.358	359.58
672.553	338.65
672.748	330.71
672.943	438.82
673.138	354.54
673.333	372.37
673.528	310.95
673.723	392.32
673.918	327.8
674.113	335.17
674.308	413.25
674.503	382.05
674.698	336.33
674.892	356.48
675.087	363.84
675.282	376.05
675.477	316.37
675.672	349.5
675.867	328.19
676.061	304.36
676.256	320.64
676.451	303.97
676.646	344.85
676.84	320.64
677.035	300.68
677.23	304.55
677.424	330.71
677.619	388.64
677.814	362.1
678.008	360.35
678.203	275.3
678.397	279.75
678.592	328.39
678.787	387.67
678.981	316.37
679.176	324.7
679.37	323.74
679.565	309.2
679.759	308.04
679.954	349.7
680.148	387.09
680.342	376.82
680.537	346.79
680.731	323.15
680.926	355.7
681.12	342.34
681.314	316.95
681.509	336.14
681.703	314.44
681.897	355.12
682.092	335.55
682.286	311.53
682.48	405.69
682.674	368.49
682.869	354.93
683.063	338.46
683.257	412.28
683.451	325.48
683.645	390.38
683.839	344.47
684.034	329.55
684.228	379.53
684.422	301.26
684.616	289.83
684.81	392.13
685.004	319.09
685.198	343.69
685.392	388.25
685.586	319.09
685.78	346.02
685.974	354.35
686.168	375.08
686.362	373.14
686.556	282.08
686.75	292.93
686.944	295.84
687.138	349.7
687.331	272.78
687.525	293.51
687.719	233.06
687.913	293.12
688.107	285.76
688.301	268.13
688.494	297.39
688.688	236.36
688.882	225.12
689.076	245.66
689.269	268.32
689.463	336.52
689.657	264.06
689.85	284.99
690.044	262.51
690.238	267.36
690.431	274.72
690.625	266
690.818	312.3
691.012	288.47
691.205	342.14
691.399	270.07
691.593	300.87
691.786	366.75
691.98	337.69
692.173	385.54
692.366	353.96
692.56	371.98
692.753	403.56
692.947	309.2
693.14	375.66
693.333	414.6
693.527	301.07
693.72	377.4
693.914	358.42
694.107	359.77
694.3	348.54
694.493	352.6
694.687	403.37
694.88	326.45
695.073	416.73
695.266	412.67
695.46	387.87
695.653	423.32
695.846	434.56
696.039	347.57
696.232	373.92
696.425	421.19
696.618	415.96
696.812	421.97
697.005	475.83
697.198	534.73
697.391	461.1
697.584	448.7
697.777	498.5
697.97	487.45
698.163	495.78
698.356	471.95
698.549	547.51
698.742	494.62
698.935	469.63
699.127	510.9
699.32	462.65
699.513	467.11
699.706	514.96
699.899	483
700.092	480.48
700.285	518.26
700.477	444.83
700.67	499.85
700.863	538.99
701.056	606.61
701.248	570.57
701.441	549.45
701.634	526.78
701.826	643.81
702.019	530.08
702.212	591.11
702.404	498.69
702.597	523.1
702.79	515.16
702.982	558.56
703.175	601.96
703.367	613
703.56	595.95
703.752	661.05
703.945	624.62
704.137	651.75
704.33	665.31
704.522	655.62
704.715	635.09
704.907	658.92
705.1	681.2
705.292	702.12
705.484	672.67
705.677	712.39
705.869	705.03
706.061	722.47
706.254	763.93
706.446	694.96
706.638	688.95
706.831	768.97
707.023	733.7
707.215	788.92
707.407	757.54
707.599	796.67
707.792	817.6
707.984	811.4
708.176	824.77
708.368	767.42
708.56	811.2
708.752	792.6
708.944	794.54
709.136	813.33
709.329	800.74
709.521	943.73
709.713	875.72
709.905	872.23
710.097	875.72
710.289	870.3
710.481	883.28
710.672	880.95
710.864	884.25
711.056	950.31
711.248	918.93
711.44	954.96
711.632	880.37
711.824	911.76
712.016	993.71
712.207	958.84
712.399	970.27
712.591	994.68
712.783	966.78
712.975	999.91
713.166	946.05
713.358	995.07
713.55	1027.04
713.741	1036.34
713.933	1021.61
714.125	1019.09
714.316	1019.48
714.508	1061.52
714.7	1080.32
714.891	1072.18
715.083	1126.62
715.274	1038.66
715.466	1063.85
715.657	1127.98
715.849	1027.62
716.04	1080.32
716.232	1012.31
716.423	1098.92
716.615	1005.73
716.806	1001.66
716.998	1020.26
717.189	971.04
717.381	944.7
717.572	916.99
717.763	922.8
717.955	945.66
718.146	910.98
718.337	878.05
718.528	844.33
718.72	821.28
718.911	888.31
719.102	827.87
719.293	905.36
719.485	883.08
719.676	876.88
719.867	850.53
720.058	832.32
720.249	856.35
720.44	842.01
720.632	916.6
720.823	893.55
721.014	998.94
721.205	985.58
721.396	1038.47
721.587	1102.21
721.778	1059.78
721.969	1087.29
722.16	1134.57
722.351	1100.86
722.542	1254.3
722.733	1256.24
722.924	1155.88
723.115	1228.73
723.305	1227.18
723.496	1211.87
723.687	1134.57
723.878	1142.32
724.069	1160.14
724.26	1145.61
724.45	1101.05
724.641	1082.06
724.832	1185.72
725.023	1151.42
725.213	1149.87
725.404	1101.44
725.595	1143.67
725.785	1105.51
725.976	1148.13
726.167	1175.06
726.357	1143.09
726.548	1226.21
726.739	1185.52
726.929	1188.24
727.12	1241.71
727.31	1244.03
727.501	1224.27
727.691	1280.65
727.882	1218.46
728.072	1283.56
728.263	1243.84
728.453	1284.92
728.644	1269.8
728.834	1282.2
729.024	1248.1
729.215	1283.17
729.405	1271.55
729.596	1331.8
729.786	1343.62
729.976	1330.25
730.167	1363.19
730.357	1321.53
730.547	1352.15
730.737	1345.75
730.928	1391.28
731.118	1401.55
731.308	1354.08
731.498	1385.47
731.688	1422.67
731.879	1431.78
732.069	1488.54
732.259	1443.59
732.449	1466.07
732.639	1544.54
732.829	1555.39
733.019	1604.4
733.209	1559.46
733.399	1582.51
733.589	1621.65
733.779	1616.03
733.969	1618.74
734.159	1678.61
734.349	1722.59
734.539	1763.28
734.729	1722.01
734.919	1804.74
735.109	1790.79
735.299	1766.18
735.488	1787.11
735.678	1773.74
735.868	1780.52
736.058	1774.32
736.248	1773.74
736.437	1742.74
736.627	1708.45
736.817	1844.07
737.007	1809.58
737.196	1845.04
737.386	1777.42
737.576	1783.04
737.765	1845.62
737.955	1803.58
738.144	1915.37
738.334	1870.61
738.524	1826.05
738.713	1884.18
738.903	1863.64
739.092	1892.31
739.282	1860.54
739.471	1871.39
739.661	1861.12
739.85	1920.6
740.04	1925.64
740.229	1919.05
740.419	1947.72
740.608	1971.94
740.797	1934.16
740.987	2021.93
741.176	1978.92
741.365	1941.33
741.555	1941.14
741.744	2010.69
741.933	1966.13
742.123	2003.33
742.312	1997.52
742.501	2024.64
742.69	2017.09
742.88	1966.91
743.069	2070.95
743.258	1960.9
743.447	2036.46
743.636	2012.05
743.825	2004.49
744.014	2020.19
744.204	2050.41
744.393	1985.12
744.582	2047.7
744.771	2057.19
744.96	2057.77
745.149	2080.44
745.338	2010.11
745.527	2054.87
745.716	2038.59
745.905	2019.41
746.094	2043.44
746.283	2064.55
746.471	2081.41
746.66	2145.35
746.849	2084.32
747.038	2112.8
747.227	2066.49
747.416	2111.25
747.604	2041.69
747.793	2063.2
747.982	2071.53
748.171	2100.4
748.359	2120.16
748.548	2103.5
748.737	2089.55
748.926	2058.74
749.114	2017.67
749.303	2071.14
749.491	2109.12
749.68	2023.09
749.869	2112.02
750.057	2047.7
750.246	2036.27
750.434	2032.97
750.623	2079.86
750.811	2055.06
751	2124.03
751.188	2053.9
751.377	2076.95
751.565	2042.47
751.754	2055.25
751.942	2047.5
752.131	2085.09
752.319	2052.93
752.507	1986.47
752.696	2087.8
752.884	2133.72
753.072	2058.35
753.261	2080.44
753.449	2057.58
753.637	2032.2
753.825	2112.41
754.014	2066.88
754.202	2031.23
754.39	2131.4
754.578	2086.84
754.766	2071.34
754.955	2078.5
755.143	2120.55
755.331	2026.77
755.519	2059.52
755.707	2056.42
755.895	2036.27
756.083	2062.42
756.271	2033.75
756.459	1972.52
756.647	2045.18
756.835	2049.25
757.023	2014.57
757.211	2015.73
757.399	2000.04
757.587	2012.63
757.775	1944.82
757.963	2006.04
758.151	1992.67
758.339	1970.39
758.526	1943.46
758.714	2028.13
758.902	1898.71
759.09	1853.76
759.278	1745.84
759.465	1655.17
759.653	1431.58
759.841	1325.21
760.028	1105.12
760.216	960.97
760.404	965.23
760.591	802.48
760.779	662.21
760.967	571.34
761.154	455.29
761.342	505.08
761.529	463.23
761.717	549.64
761.905	473.7
762.092	520.78
762.28	498.69
762.467	498.11
762.655	443.67
762.842	467.3
763.029	508.57
763.217	491.33
763.404	524.65
763.592	514.58
763.779	473.89
763.966	534.73
764.154	562.24
764.341	590.14
764.528	586.46
764.716	613.97
764.903	666.67
765.09	656.4
765.277	726.34
765.465	830
765.652	843.37
765.839	886.96
766.026	966.2
766.213	1004.37
766.4	1077.22
766.588	1206.45
766.775	1166.54
766.962	1228.15
767.149	1233.57
767.336	1367.26
767.523	1302.93
767.71	1428.68
767.897	1501.72
768.084	1521.48
768.271	1548.22
768.458	1594.72
768.645	1651.1
768.832	1580.96
769.019	1621.26
769.206	1627.07
769.392	1710.19
769.579	1806.1
769.766	1708.06
769.953	1735.18
770.14	1748.36
770.327	1732.08
770.513	1802.8
770.7	1845.81
770.887	1733.25
771.073	1852.21
771.26	1774.13
771.447	1761.73
771.634	1746.62
771.82	1856.08
772.007	1777.61
772.193	1807.45
772.38	1839.81
772.567	1818.69
772.753	1810.75
772.94	1822.76
773.126	1832.06
773.313	1872.94
773.499	1829.35
773.686	1813.26
773.872	1825.28
774.059	1807.26
774.245	1769.86
774.432	1796.6
774.618	1700.31
774.804	1808.03
774.991	1734.22
775.177	1829.35
775.363	1759.01
775.55	1807.65
775.736	1742.93
775.922	1758.05
776.109	1779.16
776.295	1759.4
776.481	1773.35
776.667	1806.29
776.853	1752.23
777.04	1721.43
777.226	1769.28
777.412	1817.72
777.598	1698.18
777.784	1734.8
777.97	1723.75
778.156	1756.3
778.342	1733.83
778.528	1739.25
778.715	1714.45
778.901	1695.66
779.087	1755.14
779.272	1657.49
779.458	1675.9
779.644	1717.75
779.83	1695.47
780.016	1761.92
780.202	1706.12
780.388	1669.31
780.574	1620.1
780.76	1676.87
780.946	1727.82
781.131	1691.59
781.317	1672.41
781.503	1691.59
781.689	1662.53
781.874	1789.24
782.06	1675.51
782.246	1631.14
782.432	1637.92
782.617	1670.67
782.803	1706.32
782.989	1616.22
783.174	1669.5
783.36	1612.93
783.545	1648.97
783.731	1659.62
783.916	1579.22
784.102	1642.38
784.288	1581.93
784.473	1635.6
784.659	1604.02
784.844	1662.72
785.029	1626.88
785.215	1606.15
785.4	1516.64
785.586	1660.01
785.771	1573.79
785.956	1602.27
786.142	1597.62
786.327	1578.44
786.512	1571.66
786.698	1579.41
786.883	1526.13
787.068	1573.02
787.254	1564.49
787.439	1585.42
787.624	1565.46
787.809	1541.82
787.994	1545.12
788.18	1559.84
788.365	1494.94
788.55	1527.87
788.735	1498.23
788.92	1532.91
789.105	1518.96
789.29	1529.81
789.475	1484.67
789.66	1520.51
789.845	1495.71
790.03	1445.92
790.215	1532.33
790.4	1519.16
790.585	1573.41
790.77	1496.29
790.955	1407.17
791.14	1521.29
791.325	1546.86
791.51	1385.08
791.695	1451.54
791.879	1464.33
792.064	1440.11
792.249	1468.59
792.434	1459.87
792.618	1461.61
792.803	1488.54
792.988	1447.08
793.173	1466.07
793.357	1485.25
793.542	1427.51
793.727	1463.36
793.911	1493.97
794.096	1450.96
794.281	1520.12
794.465	1546.86
794.65	1479.24
794.834	1481.96
795.019	1541.24
795.203	1505.4
795.388	1476.73
795.572	1554.81
795.757	1523.81
795.941	1502.49
796.126	1497.46
796.31	1440.11
796.494	1488.35
796.679	1499.2
796.863	1451.54
797.048	1484.67
797.232	1476.34
797.416	1458.9
797.601	1446.11
797.785	1511.02
797.969	1542.99
798.153	1455.03
798.338	1515.86
798.522	1537.56
798.706	1505.98
798.89	1526.32
799.074	1595.3
799.258	1534.85
799.443	1541.82
799.627	1496.29
799.811	1509.27
799.995	1503.46
800.179	1490.09
800.363	1475.37
800.547	1532.91
800.731	1551.12
800.915	1458.9
801.099	1493.39
801.283	1490.09
801.467	1515.28
801.651	1477.89
801.835	1523.61
802.019	1501.72
802.202	1507.53
802.386	1465.49
802.57	1449.41
802.754	1457.35
802.938	1441.66
803.121	1455.61
803.305	1554.61
803.489	1502.49
803.673	1541.05
803.856	1542.41
804.04	1499.01
804.224	1521.87
804.407	1508.89
804.591	1472.66
804.775	1511.99
804.958	1519.35
805.142	1605.18
805.326	1499.97
805.509	1523.61
805.693	1523.03
805.876	1577.47
806.06	1513.34
806.243	1549.57
806.427	1531.17
806.61	1578.44
806.794	1508.89
806.977	1554.22
807.16	1524.58
807.344	1494.74
807.527	1490.09
807.71	1505.4
807.894	1489.51
808.077	1559.07
808.26	1473.63
808.444	1481.38
808.627	1526.91
808.81	1484.48
808.993	1454.83
809.177	1431.58
809.36	1484.28
809.543	1511.79
809.726	1395.93
809.909	1417.63
810.092	1406.2
810.276	1394.58
810.459	1443.01
810.642	1401.36
810.825	1399.81
811.008	1360.48
811.191	1304.1
811.374	1332.58
811.557	1365.9
811.74	1427.51
811.923	1330.25
812.106	1318.82
812.289	1288.21
812.472	1318.43
812.654	1360.28
812.837	1289.37
813.02	1279.1
813.203	1244.03
813.386	1181.84
813.569	1187.46
813.751	1144.45
813.934	1188.62
814.117	1180.68
814.3	1124.49
814.482	1104.34
814.665	1066.76
814.848	1077.22
815.03	1020.45
815.213	1056.49
815.396	1040.02
815.578	1023.55
815.761	963.3
815.943	1059.97
816.126	962.52
816.309	974.14
816.491	904.4
816.674	894.13
816.856	934.04
817.039	897.42
817.221	996.04
817.403	938.5
817.586	910.21
817.768	943.34
817.951	890.83
818.133	907.5
818.315	917.96
818.498	937.72
818.68	1016.58
818.862	976.66
819.045	967.17
819.227	927.65
819.409	926.68
819.591	963.88
819.774	928.42
819.956	910.98
820.138	1014.44
820.32	951.86
820.502	996.62
820.684	1061.72
820.866	1040.41
821.048	1087.1
821.231	1075.86
821.413	1047.77
821.595	1054.16
821.777	1063.07
821.959	1073.15
822.141	1124.69
822.323	1007.47
822.505	994.1
822.686	968.33
822.868	934.23
823.05	878.24
823.232	877.66
823.414	783.69
823.596	860.22
823.778	829.03
823.96	845.88
824.141	849.37
824.323	853.25
824.505	907.3
824.687	968.91
824.868	952.06
825.05	1062.88
825.232	1028.01
825.413	1097.56
825.595	1022.39
825.777	984.41
825.958	1055.13
826.14	1028.98
826.321	1087.68
826.503	1054.55
826.685	1044.28
826.866	1089.04
827.048	1053
827.229	1004.95
827.411	984.99
827.592	971.04
827.773	1012.12
827.955	945.47
828.136	953.03
828.318	896.26
828.499	974.14
828.68	903.62
828.862	939.85
829.043	967.95
829.224	933.85
829.406	913.31
829.587	932.68
829.768	920.28
829.949	934.23
830.131	912.73
830.312	1006.31
830.493	948.57
830.674	964.46
830.855	945.08
831.036	938.3
831.218	991.19
831.399	996.23
831.58	946.25
831.761	946.25
831.942	958.84
832.123	950.51
832.304	877.47
832.485	914.66
832.666	940.82
832.847	937.72
833.028	928.23
833.209	953.41
833.389	902.85
833.57	859.64
833.751	899.55
833.932	972.01
834.113	920.67
834.294	903.04
834.475	958.45
834.655	995.84
834.836	955.35
835.017	943.15
835.198	882.5
835.378	949.54
835.559	990.81
835.74	938.3
835.92	908.66
836.101	898.78
836.281	950.9
836.462	972.4
836.643	960
836.823	982.28
837.004	999.14
837.184	1021.03
837.365	992.94
837.545	969.3
837.726	1008.44
837.906	1016.77
838.087	975.69
838.267	954.58
838.448	923.19
838.628	988.68
838.808	964.26
838.989	1015.22
839.169	929.2
839.349	1016.58
839.53	1008.83
839.71	1014.64
839.89	973.37
840.07	1047.77
840.251	975.69
840.431	1000.88
840.611	975.11
840.791	942.56
840.971	1008.44
841.151	1001.66
841.332	976.08
841.512	990.23
841.692	914.08
841.872	994.29
842.052	938.88
842.232	991.78
842.412	906.72
842.592	949.35
842.772	986.35
842.952	954
843.132	932.3
843.312	932.88
843.492	916.02
843.672	968.72
843.851	910.6
844.031	949.73
844.211	912.92
844.391	937.53
844.571	971.04
844.751	969.49
844.93	941.98
845.11	912.92
845.29	955.55
845.47	989.06
845.649	929.78
845.829	969.69
846.009	919.9
846.188	953.61
846.368	923.58
846.547	979.38
846.727	981.31
846.907	894.9
847.086	934.04
847.266	953.41
847.445	930.94
847.625	917.38
847.804	891.22
847.984	927.45
848.163	926.68
848.343	893.93
848.522	936.75
848.701	947.21
848.881	909.43
849.06	916.99
849.239	951.86
849.419	950.51
849.598	893.55
849.777	899.75
849.957	882.31
850.136	836.97
850.315	833.68
850.494	801.32
850.674	828.06
850.853	911.18
851.032	824.77
851.211	906.91
851.39	863.52
851.569	836
851.748	811.4
851.927	867.78
852.107	844.14
852.286	823.22
852.465	797.64
852.644	891.03
852.823	847.24
853.002	830.19
853.181	872.04
853.359	853.44
853.538	838.13
853.717	902.07
853.896	779.43
854.075	776.33
854.254	768
854.433	706.58
854.611	792.22
854.79	682.94
854.969	780.01
855.148	784.27
855.327	734.09
855.505	768.19
855.684	753.27
855.863	798.8
856.041	767.8
856.22	791.64
856.399	761.6
856.577	839.49
856.756	816.24
856.934	904.98
857.113	913.89
857.291	797.64
857.47	788.92
857.648	785.82
857.827	858.48
858.005	852.47
858.184	785.63
858.362	893.35
858.541	798.8
858.719	798.22
858.898	810.23
859.076	782.72
859.254	880.57
859.433	809.46
859.611	782.53
859.789	762.38
859.967	844.92
860.146	881.73
860.324	753.08
860.502	772.84
860.68	725.76
860.859	763.93
861.037	774.78
861.215	813.92
861.393	816.05
861.571	766.84
861.749	753.47
861.927	794.93
862.105	813.33
862.283	758.5
862.461	733.51
862.639	726.54
862.817	756.76
862.995	749.79
863.173	772.65
863.351	779.82
863.529	768
863.707	835.23
863.885	773.81
864.063	681.01
864.241	734.48
864.418	801.13
864.596	712.2
864.774	668.22
864.952	753.47
865.129	761.41
865.307	730.8
865.485	690.11
865.663	789.5
865.84	691.66
866.018	730.22
866.196	613.97
866.373	693.6
866.551	633.73
866.728	587.81
866.906	633.34
867.084	655.43
867.261	668.02
867.439	678.68
867.616	705.61
867.794	684.69
867.971	676.16
868.149	685.66
868.326	731.19
868.503	704.06
868.681	698.83
868.858	679.84
869.035	641.48
869.213	726.54
869.39	692.05
869.567	762.19
869.745	686.43
869.922	704.84
870.099	707.35
870.276	703.09
870.454	701.93
870.631	702.9
870.808	662.21
870.985	691.86
871.162	759.28
871.339	696.51
871.517	676.55
871.694	655.04
871.871	681.97
872.048	670.35
872.225	660.86
872.402	678.68
872.579	628.69
872.756	702.51
872.933	627.72
873.11	667.64
873.287	673.45
873.463	629.27
873.64	619.97
873.817	699.22
873.994	652.52
874.171	620.17
874.348	644.77
874.524	615.33
874.701	634.31
874.878	605.06
875.055	656.4
875.231	666.09
875.408	649.81
875.585	622.11
875.762	642.45
875.938	623.27
876.115	646.91
876.291	634.7
876.468	619.59
876.645	586.26
876.821	634.31
876.998	595.18
877.174	654.66
877.351	610.87
877.527	612.03
877.704	653.69
877.88	601.57
878.057	597.5
878.233	633.54
878.409	597.31
878.586	614.94
878.762	599.83
878.938	590.33
879.115	564.37
879.291	600.99
879.467	544.8
879.644	591.11
879.82	610.29
879.996	595.37
880.172	517.87
880.349	589.75
880.525	614.94
880.701	549.26
880.877	530.27
881.053	604.48
881.229	592.08
881.405	639.74
881.581	549.45
881.757	593.04
881.933	597.89
882.109	606.99
882.285	586.84
882.461	531.82
882.637	570.96
882.813	513.22
882.989	576.19
883.165	604.28
883.341	514.96
883.517	604.28
883.693	600.41
883.869	551.39
884.044	572.89
884.22	599.63
884.396	608.35
884.572	613.19
884.747	624.24
884.923	583.74
885.099	619.97
885.275	595.95
885.45	531.82
885.626	532.01
885.801	549.26
885.977	558.75
886.153	517.1
886.328	583.55
886.504	544.61
886.679	621.72
886.855	557.59
887.03	585.29
887.206	606.03
887.381	582.39
887.557	576.38
887.732	574.06
887.908	596.14
888.083	600.41
888.258	565.14
888.434	579.09
888.609	576.96
888.784	619.97
888.96	547.9
889.135	562.04
889.31	572.89
889.485	563.98
889.661	573.48
889.836	583.16
890.011	580.06
890.186	562.63
890.361	564.56
890.537	566.69
890.712	561.27
890.887	566.31
891.062	570.76
891.237	613.19
891.412	545.77
891.587	578.13
891.762	577.74
891.937	647.29
892.112	526.4
892.287	568.63
892.462	519.61
892.637	491.33
892.812	514.96
892.987	534.34
893.161	490.55
893.336	534.73
893.511	514.58
893.686	514.19
893.861	513.8
894.035	491.13
894.21	529.5
894.385	480.09
894.56	525.04
894.734	473.11
894.909	475.83
895.084	505.86
895.258	464.01
895.433	496.56
895.608	475.05
895.782	444.63
895.957	438.24
896.131	447.93
896.306	402.2
896.48	409.57
896.655	414.22
896.829	392.71
897.004	381.86
897.178	378.37
897.353	380.7
897.527	409.37
897.701	395.03
897.876	351.44
898.05	419.25
898.224	398.91
898.399	433.2
898.573	379.34
898.747	324.51
898.921	394.84
899.096	304.17
899.27	313.47
899.444	304.94
899.618	295.06
899.792	356.48
899.967	333.42
900.141	376.24
900.315	305.91
900.489	311.34
900.663	346.4
900.837	348.34
901.011	293.32
901.185	391.55
901.359	351.64
901.533	335.75
901.707	343.69
901.881	330.9
902.055	302.42
902.229	328.77
902.403	391.16
902.576	340.79
902.75	348.92
902.924	434.56
903.098	385.15
903.272	372.95
903.446	425.07
903.619	372.17
903.793	416.93
903.967	399.88
904.14	440.57
904.314	416.73
904.488	408.6
904.661	452.19
904.835	409.57
905.009	456.06
905.182	512.25
905.356	451.03
905.529	402.98
905.703	380.5
905.876	378.37
906.05	372.75
906.223	367.33
906.397	334.2
906.57	350.47
906.744	303.97
906.917	325.09
907.09	355.9
907.264	359.19
907.437	304.55
907.61	289.05
907.784	340.01
907.957	334.78
908.13	305.33
908.304	374.69
908.477	300.49
908.65	309.59
908.823	276.27
908.996	362.48
909.17	307.07
909.343	302.42
909.516	328
909.689	314.63
909.862	267.94
910.035	308.62
910.208	274.14
910.381	289.44
910.554	356.87
910.727	285.95
910.9	285.76
911.073	277.82
911.246	338.46
911.419	356.87
911.592	301.84
911.765	275.69
911.938	267.94
912.11	296.8
912.283	300.29
912.456	340.4
912.629	287.7
912.802	267.55
912.974	249.14
913.147	236.36
913.32	186.95
913.493	223.18
913.665	263.29
913.838	301.26
914.01	268.91
914.183	256.89
914.356	224.73
914.528	283.24
914.701	328.97
914.873	336.91
915.046	238.29
915.218	239.46
915.391	189.66
915.563	214.46
915.736	276.65
915.908	260.19
916.081	227.83
916.253	233.45
916.425	239.46
916.598	258.06
916.77	232.48
916.942	220.47
917.115	166.8
917.287	279.17
917.459	224.73
917.632	215.24
917.804	176.49
917.976	232.87
918.148	242.17
918.32	245.85
918.493	273.75
918.665	268.52
918.837	238.49
919.009	284.6
919.181	318.31
919.353	258.06
919.525	243.14
919.697	262.12
919.869	244.88
920.041	287.5
920.213	341.37
920.385	262.51
920.557	254.57
920.729	278.01
920.901	287.89
921.073	247.21
921.244	252.05
921.416	318.7
921.588	253.21
921.76	228.8
921.932	306.88
922.103	248.95
922.275	267.74
922.447	262.9
922.619	205.55
922.79	251.66
922.962	232.09
923.134	295.25
923.305	229.19
923.477	200.12
923.648	219.89
923.82	225.12
923.991	204.19
924.163	192.96
924.335	230.74
924.506	212.33
924.677	244.11
924.849	200.12
925.02	219.5
925.192	248.37
925.363	217.37
925.535	261.74
925.706	214.66
925.877	265.22
926.049	223.18
926.22	213.88
926.391	219.5
926.562	266.58
926.734	203.03
926.905	242.56
927.076	162.15
927.247	232.09
927.419	172.03
927.59	173.19
927.761	201.09
927.932	195.67
928.103	193.73
928.274	158.66
928.445	172.23
928.616	180.36
928.787	149.94
928.958	206.32
929.129	170.87
929.3	185.4
929.471	132.31
929.642	99.96
929.813	59.66
929.984	179.59
930.155	76.13
930.326	165.25
930.496	119.91
930.667	55.4
930.838	89.5
931.009	70.31
931.18	91.24
931.35	68.96
931.521	114.49
931.692	52.49
931.863	43.19
932.033	86.01
932.204	75.16
932.374	68.18
932.545	49.58
932.716	90.08
932.886	90.27
933.057	12.38
933.227	11.8
933.398	104.41
933.568	31.37
933.739	0.18
933.909	27.11
934.08	72.83
934.25	-21.13
934.421	17.03
934.591	31.76
934.761	10.25
934.932	-25.59
935.102	21.49
935.272	-0.98
935.443	38.54
935.613	-8.93
935.783	47.26
935.953	-12.42
936.123	147.23
936.294	-13.38
936.464	12.38
936.634	26.91
936.804	-10.67
936.974	-43.61
937.144	48.42
937.314	21.1
937.484	-17.65
937.655	1.53
937.825	44.74
937.995	-22.3
938.165	55.98
938.334	8.7
938.504	19.16
938.674	-21.13
938.844	16.65
939.014	59.46
939.184	31.37
939.354	91.43
939.524	90.27
939.694	29.43
939.863	47.45
940.033	114.29
940.203	81.94
940.373	68.18
940.542	67.21
940.712	4.25
940.882	78.65
941.051	106.35
941.221	61.01
941.391	94.34
941.56	18
941.73	18.78
941.899	140.26
942.069	38.93
942.238	73.03
942.408	39.31
942.577	94.15
942.747	64.11
942.916	-7.77
943.086	30.4
943.255	84.46
943.425	45.13
943.594	40.28
943.763	-0.21
943.933	13.93
944.102	-17.84
944.271	46.1
944.441	50.36
944.61	21.49
944.779	30.79
944.948	93.76
945.117	-17.84
945.287	26.91
945.456	-23.07
945.625	-2.34
945.794	59.46
945.963	17.23
946.132	77.87
946.301	18.58
946.47	46.29
946.639	-19.78
946.808	-6.22
946.977	34.08
947.146	89.5
947.315	13.55
947.484	61.98
947.653	24.4
947.822	39.7
947.991	6.57
948.16	110.61
948.329	81.36
948.498	31.76
948.666	7.54
948.835	59.27
949.004	-24.62
949.173	3.08
949.341	40.09
949.51	38.15
949.679	62.18
949.847	81.16
950.016	129.79
950.185	101.7
950.353	-6.8
950.522	22.65
950.69	84.46
950.859	13.74
951.028	63.73
951.196	11.41
951.365	-5.63
951.533	10.06
951.701	59.46
951.87	52.3
952.038	-14.74
952.207	44.74
952.375	102.86
952.543	12.96
952.712	31.76
952.88	13.55
953.048	83.3
953.217	46.29
953.385	18.2
953.553	63.34
953.721	0.37
953.89	39.31
954.058	-1.37
954.226	19.36
954.394	65.08
954.562	13.74
954.73	34.28
954.898	16.65
955.067	80.39
955.235	-8.54
955.403	88.91
955.571	98.41
955.739	47.06
955.907	-4.86
956.075	2.31
956.243	24.4
956.41	35.63
956.578	-17.45
956.746	-1.18
956.914	14.71
957.082	55.98
957.25	52.3
957.418	-9.7
957.585	34.47
957.753	80.78
957.921	-12.61
958.089	58.88
958.256	58.3
958.424	70.9
958.592	34.28
958.759	14.13
958.927	62.37
959.095	27.11
959.262	37.57
959.43	41.83
959.597	33.5
959.765	40.86
959.932	22.07
960.1	44.16
960.267	72.25
960.435	40.48
960.602	73.03
960.77	10.83
960.937	-16.48
961.104	36.99
961.272	-29.08
961.439	17.81
961.606	62.37
961.774	36.21
961.941	18.78
962.108	67.41
962.275	46.48
962.443	85.81
962.61	58.3
962.777	105.38
962.944	67.8
963.111	49.78
963.278	43
963.446	53.07
963.613	35.83
963.78	68.96
963.947	60.24
964.114	44.93
964.281	113.91
964.448	39.51
964.615	8.7
964.782	49.78
964.949	76.13
965.116	72.45
965.282	94.15
965.449	37.18
965.616	-5.05
965.783	43.19
965.95	51.52
966.117	-9.51
966.283	44.16
966.45	55.98
966.617	57.72
966.784	68.38
966.95	88.53
967.117	82.33
967.284	32.73
967.45	0.18
967.617	94.92
967.784	63.53
967.95	99.76
968.117	63.15
968.283	93.76
968.45	153.04
968.616	58.88
968.783	89.88
968.949	74.77
969.116	76.32
969.282	60.63
969.449	49.58
969.615	57.91
969.781	4.25
969.948	35.63
970.114	-0.79
970.28	81.75
970.447	61.98
970.613	98.99
970.779	74
970.945	69.15
971.112	33.11
971.278	29.05
971.444	62.76
971.61	64.11
971.776	57.91
971.942	56.36
972.108	50.36
972.275	30.79
972.441	55.2
972.607	104.8
972.773	44.74
972.939	62.37
973.105	37.76
973.271	1.53
973.437	38.35
973.602	4.05
973.768	85.62
973.934	46.29
974.1	83.88
974.266	-24.04
974.432	25.75
974.598	37.57
974.763	75.35
974.929	42.41
975.095	80.2
975.261	36.6
975.426	11.61
975.592	44.55
975.758	102.28
975.923	26.14
976.089	18.39
976.255	94.92
976.42	73.8
976.586	58.5
976.751	48.23
976.917	136.38
977.082	78.06
977.248	17.23
977.413	-19.2
977.579	33.31
977.744	69.93
977.91	23.43
978.075	24.2
978.24	72.06
978.406	25.95
978.571	45.51
978.736	17.23
978.902	45.9
979.067	6.18
979.232	-10.67
979.397	38.35
979.563	88.33
979.728	2.31
979.893	31.56
980.058	27.3
980.223	52.3
980.388	48.81
980.554	49.58
980.719	14.32
980.884	48.23
981.049	70.9
981.214	34.86
981.379	52.49
981.544	31.95
981.709	60.05
981.874	24.78
982.039	31.76
982.204	71.09
982.368	52.3
982.533	34.86
982.698	85.23
982.863	66.44
983.028	37.57
983.193	70.31
983.357	42.61
983.522	37.18
983.687	8.12
983.852	21.49
984.016	12.38
984.181	48.81
984.346	50.16
984.51	50.75
984.675	36.99
984.839	90.85
985.004	82.71
985.168	83.68
985.333	62.56
985.498	39.51
985.662	75.55
985.827	41.45
985.991	61.01
986.155	18.39
986.32	86.4
986.484	108.87
986.649	92.79
986.813	35.25
986.977	54.62
987.142	67.99
987.306	4.63
987.47	16.65
987.634	18
987.799	76.13
987.963	50.16
988.127	82.33
988.291	92.98
988.455	54.04
988.62	20.52
988.784	55.01
988.948	77.68
989.112	6.96
989.276	47.06
989.44	49.97
989.604	21.68
989.768	31.76
989.932	107.9
990.096	18.97
990.26	26.14
990.424	-9.12
990.588	32.73
990.752	103.25
990.915	76.13
991.079	10.25
991.243	33.5
991.407	72.45
991.571	30.6
991.734	73.8
991.898	60.43
992.062	116.81
992.226	39.12
992.389	7.15
992.553	-10.67
992.717	5.6
992.88	13.93
993.044	69.35
993.207	35.83
993.371	55.78
993.535	62.37
993.698	46.68
993.862	81.36
994.025	75.74
994.189	30.6
994.352	74.19
994.515	59.46
994.679	53.26
994.842	34.66
995.006	67.02
995.169	-6.6
995.332	15.68
995.496	50.55
995.659	-6.99
995.822	35.63
995.985	22.46
996.149	94.73
996.312	56.17
996.475	89.88
996.638	20.52
996.801	80.78
996.964	82.33
997.128	34.28
997.291	12.19
997.454	48.23
997.617	-18.62
997.78	67.8
997.943	23.62
998.106	68.38
998.269	11.22
998.432	44.35
998.595	52.3
998.758	-25.2
998.92	14.9
999.083	-20.94
999.246	21.88
999.409	12
999.572	-41.48
999.735	22.46
999.897	34.28
1000.06	-4.86
1000.223	20.91
1000.386	33.7
1000.548	43.38
1000.711	45.71
1000.874	35.44
1001.036	-0.98
1001.199	69.73
1001.361	21.68
1001.524	49.58
1001.687	82.52
1001.849	27.69
1002.012	51.52
1002.174	29.82
1002.337	30.01
1002.499	43.58
1002.661	40.86
1002.824	-17.45
1002.986	22.07
1003.149	45.13
1003.311	-14.74
1003.473	82.52
1003.636	13.93
1003.798	51.33
1003.96	45.71
1004.123	19.75
1004.285	18.78
1004.447	32.92
1004.609	34.86
1004.771	85.04
1004.933	-6.6
1005.096	6.18
1005.258	-35.47
1005.42	-5.83
1005.582	52.1
1005.744	36.6
1005.906	-17.26
1006.068	4.63
1006.23	-8.93
1006.392	10.06
1006.554	3.47
1006.716	65.66
1006.878	43.58
1007.04	-28.5
1007.202	25.17
1007.363	14.32
1007.525	52.1
1007.687	38.15
1007.849	53.26
1008.011	-45.93
1008.172	4.05
1008.334	4.05
1008.496	39.7
1008.658	-29.27
1008.819	-30.05
1008.981	-10.67
1009.143	-11.64
1009.304	2.5
1009.466	60.43
1009.627	48.81
1009.789	109.26
1009.95	12
1010.112	-0.6
1010.273	42.61
1010.435	2.31
1010.596	24.4
1010.758	20.52
1010.919	20.13
1011.081	-31.98
1011.242	3.47
1011.403	29.43
1011.565	28.85
1011.726	15.68
1011.887	-9.9
1012.049	9.09
1012.21	59.85
1012.371	69.54
1012.532	-36.63
1012.693	14.71
1012.855	-6.8
1013.016	-3.89
1013.177	49.78
1013.338	30.21
1013.499	82.71
1013.66	27.5
1013.821	41.64
1013.982	49.39
1014.143	27.5
1014.304	-2.15
1014.465	37.38
1014.626	59.27
1014.787	-14.16
1014.948	109.06
1015.109	-39.35
1015.27	56.17
1015.431	-1.57
1015.592	0.95
1015.752	59.85
1015.913	24.98
1016.074	42.8
1016.235	9.67
1016.395	15.68
1016.556	-3.89
1016.717	13.93
1016.877	51.13
1017.038	-10.48
1017.199	15.1
1017.359	29.05
1017.52	34.28
1017.681	-20.75
1017.841	4.83
1018.002	19.55
1018.162	-1.37
1018.323	50.16
1018.483	14.13
1018.644	-17.07
1018.804	-22.1
1018.964	-37.22
1019.125	4.44
1019.285	25.95
1019.446	-22.1
1019.606	-34.31
1019.766	-31.79
1019.926	36.6
1020.087	32.15
1020.247	-16.87
1020.407	17.42
1020.567	52.1
1020.728	-3.31
1020.888	-26.17
1021.048	-17.45
1021.208	-24.04
1021.368	-3.12
1021.528	77.68
1021.688	45.9
1021.848	26.53
1022.008	8.7
1022.168	-9.32
1022.328	17.81
1022.488	30.21
1022.648	6.96
1022.808	5.22
1022.968	15.29
1023.128	14.9
1023.288	-21.13
1023.448	18.97
1023.608	33.31
1023.767	25.17
1023.927	-19.39
1024.087	-44.97
1024.247	-28.11
1024.406	-2.73
1024.566	-16.68
1024.726	-2.73
1024.885	8.9
1025.045	15.1
1025.205	0.37
1025.364	18.58
1025.524	35.83
1025.683	-20.17
1025.843	8.9
1026.003	20.52
1026.162	60.24
1026.321	34.08
1026.481	26.33
1026.64	-18.62
1026.8	32.73
1026.959	14.71
1027.119	-6.22
1027.278	7.73
1027.437	0.95
1027.597	24.98
1027.756	21.3
1027.915	27.69
1028.074	14.51
1028.234	-19.39
1028.393	11.03
1028.552	7.93
1028.711	-68.02
1028.87	67.6
1029.03	-15.13
1029.189	7.54
1029.348	-65.7
1029.507	0.37
1029.666	13.55
1029.825	-11.83
1029.984	-10.67
1030.143	-3.89
1030.302	-21.33
1030.461	-75
1030.62	-18.42
1030.779	38.73
1030.938	-13.97
1031.097	-18.62
1031.255	22.26
1031.414	54.81
1031.573	48.23
1031.732	-60.27
1031.891	-11.45
1032.049	44.35
1032.208	11.61
1032.367	-26.56
1032.525	-16.68
1032.684	11.03
1032.843	9.48
1033.001	-54.07
1033.16	165.06
1033.319	51.33
1033.477	37.96
1033.636	-6.41
1033.794	-48.07
1033.953	54.43
1034.111	31.76
1034.27	4.83
1034.428	20.91
1034.587	-15.52
1034.745	32.92
1034.903	20.52
1035.062	-3.12
1035.22	-24.23
1035.378	29.24
1035.537	-6.02
1035.695	28.66
1035.853	21.88
1036.011	41.45
1036.17	20.52
1036.328	-49.42
1036.486	-1.18
1036.644	17.03
1036.802	-68.8
1036.96	-10.09
1037.119	-6.99
1037.277	-3.5
1037.435	-39.54
1037.593	-30.63
1037.751	12
1037.909	18.2
1038.067	18.2
