Data from pine_FLMT105791__181__17-23-35-073.txt Node

Date: Mon Mar 20 17:23:35 GMT 2023
User: antho
Spectrometer: FLMT10579
Trigger mode: 0
Integration Time (sec): 1.000000E-1
Scans to average: 10
Electric dark correction enabled: true
Nonlinearity correction enabled: false
Boxcar width: 0
XAxis mode: Wavelengths
Number of Pixels in Spectrum: 3648
>>>>>Begin Spectral Data<<<<<
345.248	-159.95
345.464	-159.95
345.681	-159.95
345.898	-165.38
346.114	-169.25
346.331	-29.56
346.548	41.93
346.764	-38.28
346.981	10.93
347.197	-15.23
347.414	6.47
347.631	-23.94
347.847	70.6
348.064	5.51
348.28	19.84
348.497	-53.97
348.713	5.7
348.93	33.6
349.146	35.34
349.363	8.22
349.579	18.1
349.796	-2.05
350.012	-27.63
350.229	42.51
350.445	0.08
350.661	-15.81
350.878	0.66
351.094	8.22
351.311	-10.58
351.527	21.2
351.743	-25.88
351.96	19.84
352.176	32.24
352.392	6.09
352.609	13.26
352.825	-12.71
353.041	2.21
353.257	16.36
353.474	-1.08
353.69	21.01
353.906	-0.69
354.122	-15.81
354.339	42.9
354.555	2.79
354.771	12.48
354.987	63.44
355.203	48.91
355.42	-13.87
355.636	-16.39
355.852	-13.68
356.068	25.27
356.284	-60.17
356.5	42.9
356.716	14.03
356.932	13.26
357.148	23.72
357.364	-7.48
357.58	38.64
357.796	67.7
358.012	36.7
358.228	9.57
358.444	-44.48
358.66	44.45
358.876	16.94
359.092	-27.43
359.308	-0.11
359.524	13.84
359.74	-24.53
359.956	-20.26
360.172	38.64
360.388	37.09
360.604	1.63
360.819	88.24
361.035	4.15
361.251	23.14
361.467	-19.49
361.683	37.67
361.898	-15.42
362.114	19.84
362.33	16.36
362.546	34.57
362.762	14.61
362.977	19.26
363.193	-14.64
363.409	44.45
363.624	-37.31
363.84	-0.11
364.056	1.82
364.271	14.61
364.487	18.68
364.703	-14.06
364.918	-16.39
365.134	-21.43
365.35	22.56
365.565	86.69
365.781	6.09
365.996	31.47
366.212	86.3
366.427	11.32
366.643	-11.93
366.858	-4.57
367.074	-29.95
367.289	49.1
367.505	88.43
367.72	-37.12
367.936	-14.06
368.151	28.17
368.367	19.65
368.582	13.26
368.798	-0.89
369.013	70.02
369.228	7.06
369.444	30.89
369.659	56.07
369.874	20.23
370.09	42.32
370.305	-55.14
370.52	-17.55
370.736	73.12
370.951	24.69
371.166	62.47
371.381	61.89
371.597	41.93
371.812	-19.29
372.027	-35.96
372.242	28.95
372.458	78.74
372.673	-13.68
372.888	-3.02
373.103	30.69
373.318	84.17
373.533	31.66
373.749	25.85
373.964	-38.09
374.179	57.62
374.394	-6.7
374.609	55.69
374.824	-40.61
375.039	70.8
375.254	3.57
375.469	55.88
375.684	22.36
375.899	52
376.114	-3.6
376.329	18.29
376.544	58.4
376.759	31.47
376.974	-26.27
377.189	0.66
377.404	-12.32
377.619	39.22
377.834	-41.57
378.049	-27.04
378.264	-42.54
378.478	28.76
378.693	-38.67
378.908	42.12
379.123	10.74
379.338	80.49
379.553	23.33
379.767	9.19
379.982	22.17
380.197	25.46
380.412	-1.28
380.626	18.87
380.841	94.24
381.056	24.88
381.271	70.22
381.485	-20.46
381.7	-25.3
381.915	2.21
382.129	5.7
382.344	32.44
382.559	-2.83
382.773	30.5
382.988	-29.56
383.202	40.77
383.417	-11.35
383.632	97.73
383.846	23.72
384.061	30.31
384.275	-13.48
384.49	31.66
384.704	20.62
384.919	27.21
385.133	23.91
385.348	31.08
385.562	-37.12
385.777	53.55
385.991	14.03
386.206	-22.2
386.42	7.06
386.634	68.28
386.849	12.48
387.063	13.06
387.277	-11.74
387.492	-14.84
387.706	-7.09
387.92	-32.47
388.135	32.44
388.349	26.82
388.563	6.47
388.778	10.54
388.992	33.6
389.206	45.42
389.42	89.01
389.635	8.41
389.849	58.4
390.063	39.8
390.277	14.61
390.491	76.8
390.706	20.42
390.92	45.42
391.134	2.6
391.348	43.67
391.562	-43.71
391.776	-11.93
391.99	-23.17
392.205	3.18
392.419	-1.66
392.633	0.86
392.847	61.89
393.061	-6.89
393.275	79.9
393.489	24.11
393.703	49.29
393.917	67.12
394.131	-25.11
394.345	34.37
394.559	31.86
394.773	7.64
394.986	10.35
395.2	5.51
395.414	26.62
395.628	-0.31
395.842	13.64
396.056	27.4
396.27	-43.9
396.484	17.13
396.697	12.87
396.911	61.11
397.125	33.02
397.339	61.5
397.553	26.82
397.766	97.34
397.98	54.14
398.194	56.65
398.408	4.92
398.621	29.72
398.835	24.3
399.049	26.43
399.262	69.25
399.476	44.64
399.69	28.17
399.903	82.42
400.117	11.51
400.331	38.83
400.544	5.7
400.758	119.62
400.971	2.79
401.185	34.76
401.398	2.41
401.612	87.07
401.826	29.72
402.039	58.59
402.253	-22.39
402.466	42.9
402.68	11.12
402.893	27.79
403.106	37.28
403.32	29.34
403.533	5.89
403.747	8.61
403.96	39.8
404.174	27.98
404.387	-8.06
404.6	16.16
404.814	46.97
405.027	22.94
405.24	20.42
405.454	10.35
405.667	65.37
405.88	-43.51
406.094	31.08
406.307	55.49
406.52	32.44
406.733	-1.28
406.947	-28.59
407.16	92.5
407.373	74.87
407.586	13.64
407.799	-10.77
408.012	67.7
408.226	48.13
408.439	52.2
408.652	-15.23
408.865	11.12
409.078	47.94
409.291	46
409.504	-12.51
409.717	57.24
409.93	31.27
410.143	27.59
410.357	-11.54
410.57	-8.25
410.783	-8.44
410.996	34.96
411.209	39.02
411.421	58.98
411.634	6.47
411.847	4.54
412.06	-5.73
412.273	-1.66
412.486	3.18
412.699	77.19
412.912	-7.86
413.125	47.36
413.338	31.66
413.55	39.99
413.763	-1.28
413.976	46
414.189	-7.09
414.402	-11.35
414.615	72.35
414.827	15.19
415.04	52.78
415.253	48.71
415.466	33.6
415.678	99.09
415.891	16.16
416.104	33.21
416.316	-14.26
416.529	-21.43
416.742	32.05
416.954	53.75
417.167	10.16
417.38	17.32
417.592	49.87
417.805	-21.81
418.017	-25.49
418.23	27.59
418.442	0.86
418.655	10.35
418.868	20.62
419.08	69.25
419.293	68.47
419.505	0.47
419.718	25.27
419.93	59.17
420.142	-9.61
420.355	53.17
420.567	82.81
420.78	42.12
420.992	15.19
421.205	63.44
421.417	-20.65
421.629	2.41
421.842	-13.09
422.054	-35.76
422.266	33.6
422.479	63.63
422.691	3.57
422.903	42.71
423.115	16.36
423.328	20.62
423.54	49.87
423.752	19.46
423.964	-13.29
424.177	33.21
424.389	14.03
424.601	111.1
424.813	44.45
425.025	73.12
425.238	32.44
425.45	-3.79
425.662	18.1
425.874	303.68
426.086	20.42
426.298	46.39
426.51	42.71
426.722	31.27
426.934	15.58
427.146	50.65
427.358	-23.56
427.57	38.83
427.782	0.66
427.994	44.06
428.206	30.31
428.418	-28.01
428.63	46.97
428.842	46
429.054	39.02
429.266	66.15
429.478	1.82
429.69	31.86
429.902	-19.49
430.114	60.92
430.325	50.26
430.537	18.1
430.749	10.93
430.961	-5.15
431.173	2.02
431.384	70.02
431.596	-27.43
431.808	19.46
432.02	49.68
432.231	15.77
432.443	61.5
432.655	16.36
432.867	-19.1
433.078	56.85
433.29	84.94
433.502	59.75
433.713	70.41
433.925	14.42
434.136	79.71
434.348	-11.54
434.56	-36.15
434.771	126.79
434.983	-8.44
435.194	-3.21
435.406	-10.96
435.617	73.9
435.829	75.25
436.04	54.33
436.252	60.53
436.463	92.89
436.675	62.85
436.886	22.56
437.098	42.32
437.309	38.64
437.521	18.87
437.732	36.7
437.943	53.36
438.155	50.07
438.366	-20.65
438.578	89.4
438.789	37.28
439	48.13
439.211	13.64
439.423	55.1
439.634	42.51
439.845	49.87
440.057	29.53
440.268	77.97
440.479	8.99
440.69	18.68
440.902	29.14
441.113	42.32
441.324	10.35
441.535	47.16
441.746	67.89
441.957	-5.34
442.168	19.07
442.38	22.17
442.591	56.46
442.802	18.29
443.013	15.39
443.224	35.54
443.435	34.37
443.646	5.89
443.857	29.92
444.068	21.97
444.279	11.32
444.49	101.6
444.701	33.99
444.912	128.34
445.123	68.67
445.334	33.6
445.545	32.05
445.756	39.41
445.967	13.64
446.178	60.14
446.388	82.42
446.599	64.79
446.81	64.4
447.021	51.81
447.232	49.68
447.443	80.87
447.653	9.38
447.864	59.56
448.075	17.91
448.286	55.1
448.496	66.34
448.707	91.34
448.918	36.31
449.129	106.06
449.339	31.27
449.55	66.15
449.761	27.01
449.971	63.82
450.182	26.04
450.393	53.55
450.603	35.73
450.814	76.8
451.024	46.77
451.235	66.15
451.446	66.92
451.656	103.35
451.867	28.95
452.077	68.28
452.288	114
452.498	103.15
452.709	74.48
452.919	75.06
453.13	39.61
453.34	86.88
453.55	18.68
453.761	80.29
453.971	83.59
454.182	88.24
454.392	55.3
454.602	92.89
454.813	53.17
455.023	96.57
455.233	15.97
455.444	59.95
455.654	7.06
455.864	42.71
456.075	50.07
456.285	36.31
456.495	44.06
456.705	71.77
456.916	63.63
457.126	79.9
457.336	35.92
457.546	4.34
457.756	24.3
457.967	111.49
458.177	29.53
458.387	37.86
458.597	24.49
458.807	39.22
459.017	44.26
459.227	43.67
459.437	45.81
459.647	90.75
459.857	72.93
460.068	43.48
460.278	92.89
460.488	84.75
460.698	131.83
460.908	57.04
461.117	0.86
461.327	20.81
461.537	37.67
461.747	64.4
461.957	40.38
462.167	154.5
462.377	77.19
462.587	51.81
462.797	81.26
463.007	68.47
463.216	96.57
463.426	82.04
463.636	117.1
463.846	40.77
464.056	33.21
464.265	109.94
464.475	17.52
464.685	54.91
464.895	84.55
465.104	52
465.314	123.89
465.524	55.49
465.733	19.07
465.943	139.97
466.153	139.77
466.362	103.35
466.572	83
466.782	48.13
466.991	68.47
467.201	112.07
467.41	8.8
467.62	75.25
467.829	79.13
468.039	81.65
468.249	85.33
468.458	39.02
468.668	95.99
468.877	79.9
469.086	97.92
469.296	103.74
469.505	26.04
469.715	145.58
469.924	107.61
470.134	96.76
470.343	118.46
470.552	79.9
470.762	77.97
470.971	49.29
471.18	54.91
471.39	41.16
471.599	55.3
471.808	88.62
472.018	22.94
472.227	93.08
472.436	82.81
472.645	56.46
472.855	10.35
473.064	110.52
473.273	89.4
473.482	106.45
473.691	116.91
473.901	94.82
474.11	64.6
474.319	169.22
474.528	100.25
474.737	116.72
474.946	83.2
475.155	81.45
475.364	123.69
475.573	86.49
475.783	83
475.992	87.85
476.201	137.25
476.41	62.27
476.619	39.02
476.828	63.63
477.037	45.22
477.245	100.83
477.454	100.44
477.663	57.82
477.872	73.9
478.081	110.71
478.29	29.53
478.499	148.3
478.708	80.87
478.917	147.52
479.125	95.6
479.334	93.47
479.543	80.49
479.752	88.82
479.961	90.95
480.169	85.72
480.378	61.89
480.587	213.2
480.796	125.05
481.004	86.88
481.213	83.59
481.422	94.05
481.63	73.12
481.839	124.47
482.048	154.11
482.256	106.64
482.465	66.34
482.674	101.99
482.882	115.36
483.091	166.12
483.299	126.99
483.508	107.03
483.716	93.27
483.925	125.24
484.134	102.96
484.342	94.63
484.551	108.97
484.759	121.75
484.967	127.18
485.176	106.64
485.384	114.78
485.593	171.74
485.801	132.6
486.01	126.21
486.218	137.25
486.426	69.05
486.635	132.41
486.843	136.87
487.051	148.3
487.26	120.98
487.468	127.95
487.676	113.23
487.885	93.85
488.093	93.08
488.301	119.62
488.509	117.88
488.717	141.52
488.926	101.6
489.134	92.5
489.342	84.55
489.55	68.47
489.758	111.87
489.967	95.21
490.175	197.12
490.383	68.47
490.591	146.55
490.799	49.49
491.007	124.66
491.215	99.86
491.423	94.82
491.631	127.57
491.839	107.8
492.047	163.41
492.255	95.02
492.463	66.15
492.671	133.19
492.879	188.79
493.087	151.01
493.295	142.48
493.503	134.93
493.711	122.53
493.919	170.77
494.127	149.27
494.334	157.98
494.542	111.29
494.75	112.65
494.958	111.49
495.166	161.28
495.374	127.76
495.581	114.97
495.789	134.54
495.997	166.12
496.205	139.19
496.412	129.5
496.62	120.01
496.828	135.9
497.035	112.84
497.243	149.07
497.451	121.17
497.658	135.9
497.866	124.27
498.074	167.28
498.281	116.72
498.489	192.47
498.696	134.35
498.904	120.59
499.112	151.59
499.319	209.72
499.527	150.62
499.734	163.02
499.942	120.01
500.149	112.65
500.357	132.02
500.564	90.95
500.771	158.57
500.979	77.39
501.186	129.7
501.394	145.39
501.601	167.67
501.808	169.61
502.016	143.65
502.223	150.04
502.43	145.58
502.638	122.34
502.845	125.63
503.052	201
503.26	115.36
503.467	196.73
503.674	142.29
503.881	158.57
504.089	243.81
504.296	182.59
504.503	122.14
504.71	186.66
504.917	119.62
505.125	157.21
505.332	138.8
505.539	174.65
505.746	205.65
505.953	191.7
506.16	173.48
506.367	176.58
506.574	176.78
506.781	203.9
506.988	143.65
507.195	143.65
507.402	131.64
507.609	182.78
507.816	134.74
508.023	146.94
508.23	153.92
508.437	132.6
508.644	183.75
508.851	201.38
509.058	190.53
509.265	158.57
509.472	184.92
509.679	228.31
509.885	163.99
510.092	152.56
510.299	143.26
510.506	177.17
510.713	155.27
510.92	175.03
511.126	158.18
511.333	202.35
511.54	217.66
511.746	218.63
511.953	215.53
512.16	216.11
512.367	147.13
512.573	146.55
512.78	182.59
512.987	172.9
513.193	186.66
513.4	132.6
513.606	189.57
513.813	184.33
514.02	202.35
514.226	260.86
514.433	225.8
514.639	162.05
514.846	182.59
515.052	168.45
515.259	207.97
515.465	188.6
515.672	175.81
515.878	241.88
516.085	154.11
516.291	220.76
516.497	120.79
516.704	154.11
516.91	174.07
517.117	132.02
517.323	118.65
517.529	180.27
517.736	174.07
517.942	198.67
518.148	159.15
518.354	194.41
518.561	165.35
518.767	187.05
518.973	230.83
519.179	194.8
519.386	157.98
519.592	140.55
519.798	139.19
520.004	217.08
520.21	161.08
520.417	212.43
520.623	224.63
520.829	204.48
521.035	210.1
521.241	198.28
521.447	215.14
521.653	299.03
521.859	218.24
522.065	187.05
522.271	289.15
522.477	225.22
522.683	256.99
522.889	204.29
523.095	230.06
523.301	206.81
523.507	225.02
523.713	247.11
523.919	198.67
524.125	257.96
524.331	192.67
524.537	271.33
524.742	248.27
524.948	243.62
525.154	243.81
525.36	314.92
525.566	247.11
525.772	262.22
525.977	172.9
526.183	254.28
526.389	269.39
526.595	215.92
526.8	244.59
527.006	207.58
527.212	208.55
527.417	191.7
527.623	195.38
527.829	249.63
528.034	227.54
528.24	235.1
528.446	189.37
528.651	267.26
528.857	233.74
529.062	276.36
529.268	226.18
529.473	223.28
529.679	215.72
529.884	279.66
530.09	265.71
530.295	296.51
530.501	266.68
530.706	229.86
530.912	215.53
531.117	201
531.323	242.07
531.528	261.64
531.733	251.37
531.939	240.33
532.144	262.8
532.35	241.3
532.555	267.84
532.76	293.8
532.966	287.99
533.171	288.38
533.376	268.23
533.581	222.89
533.787	278.88
533.992	242.07
534.197	312.4
534.402	228.9
534.607	259.7
534.813	340.69
535.018	242.65
535.223	240.71
535.428	280.05
535.633	300
535.838	263.19
536.043	244.01
536.249	339.72
536.454	260.48
536.659	280.82
536.864	226.18
537.069	275.01
537.274	298.26
537.479	289.93
537.684	275.01
537.889	245.56
538.094	344.37
538.299	261.25
538.504	269
538.708	257.96
538.913	271.13
539.118	246.91
539.323	302.91
539.528	268.23
539.733	272.3
539.938	312.01
540.142	325.77
540.347	267.65
540.552	261.83
540.757	294.19
540.962	242.07
541.166	230.45
541.371	233.16
541.576	297.29
541.781	188.98
541.985	265.51
542.19	287.41
542.395	318.41
542.599	356.19
542.804	332.94
543.008	336.04
543.213	240.13
543.418	238.78
543.622	295.16
543.827	250.6
544.031	350.76
544.236	334.1
544.44	282.95
544.645	358.13
544.849	303.68
545.054	310.46
545.258	340.3
545.463	337.39
545.667	277.33
545.872	302.71
546.076	307.36
546.281	290.9
546.485	246.91
546.689	296.9
546.894	303.68
547.098	275.78
547.302	231.41
547.507	291.86
547.711	321.31
547.915	356.38
548.119	275.2
548.324	317.24
548.528	349.02
548.732	320.15
548.936	305.81
549.141	362.19
549.345	282.56
549.549	295.93
549.753	275.01
549.957	355.99
550.161	362.78
550.366	285.86
550.57	270.55
550.774	292.06
550.978	295.16
551.182	339.33
551.386	294.77
551.59	280.63
551.794	283.92
551.998	293.8
552.202	250.79
552.406	227.93
552.61	291.28
552.814	308.91
553.018	335.84
553.222	292.06
553.426	265.13
553.63	359.09
553.833	301.36
554.037	268.61
554.241	323.06
554.445	305.04
554.649	265.51
554.853	305.62
555.056	305.43
555.26	316.66
555.464	288.18
555.668	301.55
555.871	323.83
556.075	323.64
556.279	294.38
556.483	272.88
556.686	311.05
556.89	313.95
557.094	326.35
557.297	276.95
557.501	379.05
557.704	256.02
557.908	362.97
558.112	299.42
558.315	370.72
558.519	312.98
558.722	334.29
558.926	307.75
559.129	271.91
559.333	251.37
559.536	268.42
559.74	259.51
559.943	275.78
560.147	245.95
560.35	306.98
560.553	265.9
560.757	238
560.96	315.5
561.164	244.59
561.367	352.7
561.57	297.1
561.774	300.58
561.977	285.86
562.18	271.33
562.384	377.69
562.587	297.68
562.79	252.53
562.993	300.2
563.197	317.63
563.4	348.83
563.603	362.97
563.806	386.61
564.009	269.78
564.212	306.4
564.416	270.75
564.619	318.02
564.822	278.3
565.025	294.19
565.228	291.09
565.431	294
565.634	212.62
565.837	296.32
566.04	274.04
566.243	253.89
566.446	219.02
566.649	315.5
566.852	266.48
567.055	262.8
567.258	296.9
567.461	328.48
567.664	308.14
567.867	243.43
568.07	280.82
568.273	302.91
568.475	333.91
568.678	299.42
568.881	298.26
569.084	298.45
569.287	198.87
569.489	256.6
569.692	293.8
569.895	323.25
570.098	243.43
570.3	251.95
570.503	191.12
570.706	214.75
570.909	232.19
571.111	261.45
571.314	217.08
571.516	256.8
571.719	249.05
571.922	255.25
572.124	236.65
572.327	240.91
572.529	191.31
572.732	217.47
572.935	251.56
573.137	291.28
573.34	240.13
573.542	252.34
573.745	263.96
573.947	236.84
574.15	264.55
574.352	213.78
574.554	319.96
574.757	213.01
574.959	232.77
575.162	216.5
575.364	232.38
575.566	334.88
575.769	242.85
575.971	265.13
576.173	167.67
576.376	238.39
576.578	281.21
576.78	305.23
576.982	184.72
577.185	232.96
577.387	219.4
577.589	211.46
577.791	255.83
577.993	261.83
578.196	227.15
578.398	257.76
578.6	280.24
578.802	161.28
579.004	217.85
579.206	215.33
579.408	230.83
579.61	225.02
579.812	269.2
580.014	222.5
580.216	229.28
580.418	215.14
580.62	191.12
580.822	191.12
581.024	225.6
581.226	281.21
581.428	199.25
581.63	272.49
581.832	205.45
582.034	271.91
582.236	218.43
582.438	242.26
582.64	263.96
582.841	269.97
583.043	315.89
583.245	247.11
583.447	247.88
583.649	238.78
583.85	234.9
584.052	281.79
584.254	199.45
584.456	281.01
584.657	188.6
584.859	231.41
585.061	237.03
585.262	229.86
585.464	206.03
585.666	238.78
585.867	231.61
586.069	286.63
586.27	241.49
586.472	252.34
586.674	243.43
586.875	219.21
587.077	215.92
587.278	249.43
587.48	215.33
587.681	320.93
587.883	238.97
588.084	193.63
588.285	212.82
588.487	239.94
588.688	241.49
588.89	206.42
589.091	210.1
589.292	218.24
589.494	213.98
589.695	234.9
589.896	156.24
590.098	151.59
590.299	218.24
590.5	175.81
590.702	177.75
590.903	220.18
591.104	257.76
591.305	187.24
591.507	275.01
591.708	234.9
591.909	227.73
592.11	278.88
592.311	206.81
592.512	209.91
592.714	187.82
592.915	177.17
593.116	205.07
593.317	217.85
593.518	219.98
593.719	183.56
593.92	229.86
594.121	261.45
594.322	206.81
594.523	185.5
594.724	173.48
594.925	210.88
595.126	245.75
595.327	258.73
595.528	221.73
595.729	225.6
595.929	225.6
596.13	226.96
596.331	220.18
596.532	218.05
596.733	243.04
596.934	232
597.135	228.51
597.335	234.51
597.536	187.24
597.737	227.54
597.938	212.04
598.138	225.6
598.339	212.23
598.54	206.81
598.74	208.36
598.941	227.15
599.142	278.5
599.342	213.98
599.543	190.73
599.744	229.28
599.944	199.06
600.145	202.55
600.345	214.75
600.546	306.98
600.746	288.57
600.947	301.16
601.147	224.05
601.348	262.03
601.548	208.36
601.749	253.31
601.949	161.28
602.15	178.33
602.35	208.75
602.551	287.02
602.751	181.04
602.951	196.54
603.152	141.13
603.352	256.99
603.552	191.7
603.753	261.64
603.953	222.31
604.153	218.05
604.354	196.54
604.554	236.45
604.754	188.02
604.954	167.48
605.155	192.47
605.355	201.38
605.555	258.35
605.755	248.85
605.955	197.32
606.155	238.39
606.356	230.06
606.556	247.3
606.756	248.66
606.956	163.22
607.156	248.66
607.356	200.03
607.556	240.33
607.756	214.56
607.956	260.86
608.156	225.41
608.356	192.28
608.556	256.8
608.756	244.78
608.956	184.92
609.156	225.6
609.356	212.23
609.556	184.14
609.755	232.19
609.955	215.14
610.155	224.44
610.355	222.5
610.555	181.43
610.755	225.6
610.954	154.11
611.154	227.54
611.354	260.09
611.554	203.9
611.753	192.67
611.953	171.16
612.153	266.87
612.352	237.42
612.552	167.09
612.752	168.25
612.951	198.48
613.151	254.08
613.351	151.4
613.55	200.42
613.75	217.27
613.949	230.83
614.149	249.05
614.348	208.17
614.548	200.22
614.747	162.25
614.947	204.48
615.146	132.41
615.346	215.14
615.545	220.37
615.745	221.92
615.944	223.67
616.144	224.25
616.343	261.25
616.542	199.64
616.742	239.16
616.941	207
617.14	173.68
617.34	213.98
617.539	191.5
617.738	184.53
617.938	250.98
618.137	207.97
618.336	189.76
618.535	210.88
618.734	201.97
618.934	224.63
619.133	235.1
619.332	216.69
619.531	175.03
619.73	184.14
619.929	244.01
620.128	218.43
620.328	236.65
620.527	178.52
620.726	185.3
620.925	213.01
621.124	166.7
621.323	213.78
621.522	180.85
621.721	167.67
621.92	155.66
622.119	216.5
622.318	154.69
622.517	180.27
622.715	219.4
622.914	159.73
623.113	189.57
623.312	147.91
623.511	207.39
623.71	196.35
623.909	160.31
624.107	220.18
624.306	155.47
624.505	166.9
624.704	154.3
624.902	184.33
625.101	257.76
625.3	194.41
625.499	148.1
625.697	209.72
625.896	171.16
626.095	201.58
626.293	120.4
626.492	173.48
626.69	208.94
626.889	157.79
627.088	215.14
627.286	151.4
627.485	175.81
627.683	143.84
627.882	180.07
628.08	133.38
628.279	188.98
628.477	261.06
628.676	168.25
628.874	207.58
629.073	147.13
629.271	145.39
629.469	178.33
629.668	175.23
629.866	169.03
630.065	130.47
630.263	197.51
630.461	159.53
630.66	196.93
630.858	210.3
631.056	198.67
631.254	200.03
631.453	141.13
631.651	228.31
631.849	180.65
632.047	187.05
632.245	150.62
632.444	213.98
632.642	152.75
632.84	204.1
633.038	155.27
633.236	155.66
633.434	128.15
633.632	112.65
633.83	142.29
634.028	195.77
634.227	153.72
634.425	218.24
634.623	186.47
634.821	140.35
635.019	159.73
635.216	140.93
635.414	188.21
635.612	174.65
635.81	174.45
636.008	239.94
636.206	191.31
636.404	205.84
636.602	121.37
636.8	160.31
636.997	179.88
637.195	183.17
637.393	180.27
637.591	219.02
637.789	189.76
637.986	165.73
638.184	165.15
638.382	217.08
638.58	208.36
638.777	236.26
638.975	168.83
639.173	168.64
639.37	199.45
639.568	179.49
639.765	196.54
639.963	173.29
640.161	241.1
640.358	212.82
640.556	180.07
640.753	127.37
640.951	164.57
641.148	196.73
641.346	162.63
641.543	181.04
641.741	207.39
641.938	131.25
642.136	166.12
642.333	138.8
642.531	209.52
642.728	201.58
642.925	176.58
643.123	186.08
643.32	154.69
643.517	167.48
643.715	176.2
643.912	139.58
644.109	182.01
644.306	173.68
644.504	146.75
644.701	190.53
644.898	200.03
645.095	141.52
645.293	177.94
645.49	190.92
645.687	187.82
645.884	200.8
646.081	132.99
646.278	166.12
646.475	169.03
646.672	145.58
646.87	203.32
647.067	180.65
647.264	184.53
647.461	128.34
647.658	111.1
647.855	186.47
648.052	165.15
648.249	97.54
648.446	153.53
648.642	125.63
648.839	155.85
649.036	135.12
649.233	115.75
649.43	131.83
649.627	130.28
649.824	161.28
650.021	144.62
650.217	135.12
650.414	150.82
650.611	160.31
650.808	158.76
651.004	183.75
651.201	180.07
651.398	199.06
651.595	157.02
651.791	158.95
651.988	188.79
652.185	161.47
652.381	163.02
652.578	96.37
652.775	158.37
652.971	148.68
653.168	137.64
653.364	190.34
653.561	103.93
653.757	126.6
653.954	129.89
654.15	142.29
654.347	225.41
654.543	138.03
654.74	104.51
654.936	114.39
655.133	148.3
655.329	134.74
655.525	145.2
655.722	182.01
655.918	137.45
656.115	169.42
656.311	103.15
656.507	115.55
656.704	102.38
656.9	105.48
657.096	125.82
657.292	109.16
657.489	175.62
657.685	143.07
657.881	133.77
658.077	134.54
658.273	109.55
658.47	153.33
658.666	129.31
658.862	154.5
659.058	121.37
659.254	188.4
659.45	86.1
659.646	149.85
659.842	162.44
660.038	182.78
660.234	116.14
660.43	157.79
660.626	223.28
660.822	163.22
661.018	160.31
661.214	139
661.41	111.68
661.606	175.62
661.802	179.68
661.998	125.24
662.194	114
662.39	139.38
662.586	176.78
662.781	158.57
662.977	176.39
663.173	176.97
663.369	129.12
663.564	141.13
663.76	185.3
663.956	142.68
664.152	199.45
664.347	107.03
664.543	136.67
664.739	121.95
664.934	101.99
665.13	98.5
665.326	169.03
665.521	160.12
665.717	98.7
665.912	114.39
666.108	54.91
666.304	122.34
666.499	139.38
666.695	51.42
666.89	133.19
667.086	158.76
667.281	170.19
667.477	167.09
667.672	154.5
667.867	125.82
668.063	158.18
668.258	114.2
668.454	126.79
668.649	228.9
668.844	150.43
669.04	158.76
669.235	159.53
669.43	123.69
669.626	96.57
669.821	111.49
670.016	88.04
670.211	117.3
670.407	71.77
670.602	128.15
670.797	129.12
670.992	178.13
671.187	104.12
671.382	164.96
671.578	106.25
671.773	153.53
671.968	118.85
672.163	134.54
672.358	171.16
672.553	108.77
672.748	119.04
672.943	190.73
673.138	140.35
673.333	151.98
673.528	135.9
673.723	156.82
673.918	132.22
674.113	96.76
674.308	195.18
674.503	145
674.698	164.38
674.892	157.79
675.087	163.6
675.282	155.08
675.477	99.86
675.672	149.65
675.867	145.39
676.061	118.65
676.256	107.61
676.451	89.4
676.646	146.94
676.84	105.29
677.035	109.16
677.23	84.17
677.424	152.75
677.619	149.85
677.814	145.78
678.008	162.44
678.203	70.02
678.397	109.94
678.592	124.27
678.787	173.1
678.981	107.03
679.176	136.09
679.37	130.47
679.565	96.37
679.759	84.94
679.954	115.36
680.148	148.68
680.342	153.53
680.537	145.39
680.731	127.57
680.926	125.05
681.12	154.88
681.314	99.09
681.509	89.79
681.703	130.67
681.897	169.22
682.092	116.14
682.286	90.95
682.48	166.12
682.674	175.23
682.869	132.6
683.063	126.99
683.257	189.95
683.451	103.54
683.645	123.89
683.839	128.34
684.034	123.5
684.228	155.66
684.422	72.74
684.616	86.69
684.81	156.63
685.004	122.92
685.198	146.94
685.392	173.29
685.586	113.23
685.78	153.72
685.974	142.68
686.168	144.03
686.362	178.91
686.556	109.74
686.75	81.26
686.944	117.49
687.138	171.74
687.331	75.84
687.525	125.05
687.719	69.25
687.913	133.57
688.107	140.16
688.301	102.77
688.494	143.26
688.688	97.34
688.882	93.66
689.076	83.78
689.269	94.63
689.463	170.97
689.657	95.21
689.85	87.46
690.044	103.93
690.238	109.16
690.431	72.15
690.625	78.16
690.818	102.96
691.012	123.11
691.205	118.65
691.399	52.97
691.593	116.52
691.786	165.15
691.98	138.42
692.173	170
692.366	136.67
692.56	123.3
692.753	181.23
692.947	116.33
693.14	170.97
693.333	167.87
693.527	97.92
693.72	141.9
693.914	111.68
694.107	112.07
694.3	126.6
694.493	123.89
694.687	142.68
694.88	121.37
695.073	179.68
695.266	167.09
695.46	122.14
695.653	161.08
695.846	160.31
696.039	75.84
696.232	116.33
696.425	146.36
696.618	142.29
696.812	147.52
697.005	200.22
697.198	239.94
697.391	162.63
697.584	150.43
697.777	206.23
697.97	221.53
698.163	205.26
698.356	169.03
698.549	275.98
698.742	213.2
698.935	145.2
699.127	191.12
699.32	140.93
699.513	156.43
699.706	212.23
699.899	189.76
700.092	183.37
700.285	221.34
700.477	147.72
700.67	209.13
700.863	230.25
701.056	248.85
701.248	254.08
701.441	244.01
701.634	222.31
701.826	301.16
702.019	191.31
702.212	263
702.404	184.14
702.597	193.25
702.79	194.22
702.982	198.48
703.175	247.69
703.367	230.45
703.56	233.74
703.752	300.2
703.945	232.58
704.137	262.61
704.33	262.8
704.522	252.73
704.715	246.14
704.907	271.33
705.1	260.67
705.292	271.91
705.484	256.02
705.677	263.58
705.869	273.65
706.061	288.76
706.254	311.82
706.446	270.36
706.638	248.66
706.831	340.88
707.023	250.01
707.215	340.11
707.407	313.56
707.599	307.75
707.792	349.79
707.984	316.66
708.176	348.83
708.368	320.15
708.56	324.8
708.752	319.18
708.944	293.03
709.136	357.54
709.329	325.96
709.521	428.65
709.713	360.06
709.905	352.31
710.097	396.49
710.289	315.11
710.481	352.31
710.672	375.95
710.864	344.95
711.056	400.56
711.248	394.55
711.44	381.18
711.632	374.01
711.824	367.23
712.016	438.53
712.207	395.91
712.399	411.41
712.591	446.47
712.783	392.42
712.975	451.51
713.166	395.52
713.358	407.34
713.55	473.6
713.741	466.82
713.933	452.29
714.125	442.41
714.316	419.93
714.508	481.93
714.7	488.52
714.891	474.57
715.083	537.73
715.274	458.49
715.466	464.11
715.657	505.76
715.849	409.66
716.04	467.01
716.232	414.12
716.423	534.05
716.615	453.26
716.806	445.7
716.998	459.84
717.189	430.2
717.381	387.19
717.572	386.41
717.763	449.38
717.955	442.41
718.146	413.34
718.337	397.26
718.528	386.61
718.72	365.49
718.911	411.41
719.102	378.86
719.293	440.86
719.485	389.9
719.676	408.69
719.867	370.53
720.058	395.13
720.249	400.36
720.44	411.99
720.632	415.28
720.823	451.51
721.014	532.89
721.205	471.27
721.396	501.11
721.587	541.99
721.778	507.7
721.969	520.87
722.16	547.22
722.351	499.95
722.542	632.08
722.733	618.72
722.924	514.67
723.115	592.17
723.305	606.32
723.496	642.55
723.687	552.65
723.878	571.44
724.069	565.82
724.26	599.92
724.45	562.34
724.641	529.2
724.832	574.93
725.023	600.89
725.213	554
725.404	561.95
725.595	533.47
725.785	520.87
725.976	586.17
726.167	567.95
726.357	579.38
726.548	662.5
726.739	576.09
726.929	603.41
727.12	642.74
727.31	648.55
727.501	629.95
727.691	635.77
727.882	642.35
728.072	674.51
728.263	657.85
728.453	659.02
728.644	662.7
728.834	684.4
729.024	658.05
729.215	666.57
729.405	638.09
729.596	713.85
729.786	732.64
729.976	723.92
730.167	717.72
730.357	678
730.547	669.86
730.737	720.63
730.928	736.13
731.118	796.96
731.308	723.73
731.498	752.4
731.688	788.24
731.879	788.44
732.069	790.76
732.259	798.13
732.449	808.98
732.639	841.52
732.829	828.93
733.019	882.41
733.209	911.08
733.399	900.04
733.589	907.98
733.779	896.16
733.969	883.57
734.159	937.04
734.349	955.84
734.539	977.15
734.729	940.14
734.919	999.43
735.109	1003.5
735.299	981.41
735.488	993.04
735.678	1055.81
735.868	1014.15
736.058	1011.25
736.248	986.45
736.437	964.17
736.627	956.22
736.817	1066.66
737.007	1034.3
737.196	1021.52
737.386	992.45
737.576	995.17
737.765	1042.25
737.955	1022.29
738.144	1102.11
738.334	1056.2
738.524	1032.56
738.713	1052.52
738.903	1097.27
739.092	1103.28
739.282	1089.52
739.471	1089.33
739.661	1085.45
739.85	1099.6
740.04	1115.29
740.229	1114.71
740.419	1124.78
740.608	1132.92
740.797	1139.12
740.987	1182.13
741.176	1196.47
741.365	1138.15
741.555	1106.76
741.744	1178.26
741.933	1143.96
742.123	1181.36
742.312	1188.72
742.501	1223.21
742.69	1205.58
742.88	1139.12
743.069	1240.64
743.258	1181.94
743.447	1220.69
743.636	1222.24
743.825	1191.43
744.014	1223.98
744.204	1239.48
744.393	1182.71
744.582	1208.87
744.771	1232.7
744.96	1168.96
745.149	1263.51
745.338	1218.56
745.527	1236.58
745.716	1196.66
745.905	1241.03
746.094	1268.54
746.283	1254.79
746.471	1284.04
746.66	1309.81
746.849	1265.25
747.038	1345.66
747.227	1229.02
747.416	1297.22
747.604	1255.56
747.793	1266.41
747.982	1272.61
748.171	1257.5
748.359	1319.11
748.548	1268.74
748.737	1265.06
748.926	1255.56
749.114	1209.06
749.303	1267.38
749.491	1289.66
749.68	1226.11
749.869	1316.79
750.057	1276.29
750.246	1254.4
750.434	1262.34
750.623	1273.19
750.811	1259.44
751	1284.82
751.188	1273.97
751.377	1299.35
751.565	1278.42
751.754	1233.09
751.942	1229.6
752.131	1292.37
752.319	1242.58
752.507	1199.57
752.696	1291.79
752.884	1325.31
753.072	1263.51
753.261	1290.63
753.449	1273.19
753.637	1303.42
753.825	1361.54
754.014	1277.26
754.202	1249.75
754.39	1326.28
754.578	1279.2
754.766	1261.18
754.955	1259.24
755.143	1359.61
755.331	1272.81
755.519	1257.31
755.707	1285.79
755.895	1262.54
756.083	1263.51
756.271	1235.61
756.459	1248.2
756.647	1336.55
756.835	1260.21
757.023	1243.94
757.211	1233.67
757.399	1220.11
757.587	1253.63
757.775	1201.51
757.963	1255.76
758.151	1264.09
758.339	1238.9
758.526	1213.13
758.714	1248.39
758.902	1175.35
759.09	1177.48
759.278	1108.31
759.465	1013.96
759.653	824.86
759.841	813.04
760.028	651.46
760.216	595.47
760.404	586.75
760.591	455.58
760.779	371.69
760.967	340.69
761.154	250.21
761.342	324.03
761.529	291.86
761.717	319.18
761.905	285.47
762.092	347.86
762.28	317.63
762.467	327.51
762.655	275.78
762.842	288.38
763.029	333.13
763.217	301.36
763.404	323.64
763.592	334.49
763.779	292.45
763.966	298.26
764.154	375.18
764.341	417.99
764.528	376.92
764.716	404.24
764.903	405.01
765.09	445.12
765.277	464.11
765.465	545.09
765.652	559.04
765.839	560.98
766.026	632.86
766.213	633.25
766.4	667.15
766.588	802.97
766.775	741.94
766.962	810.33
767.149	776.23
767.336	912.44
767.523	829.9
767.71	899.46
767.897	962.42
768.084	1013.77
768.271	996.52
768.458	1063.17
768.645	1041.47
768.832	964.36
769.019	1009.5
769.206	1044.96
769.392	1095.14
769.579	1186.59
769.766	1080.61
769.953	1111.61
770.14	1123.43
770.327	1140.48
770.513	1161.6
770.7	1246.84
770.887	1107.15
771.073	1183.49
771.26	1126.72
771.447	1118.2
771.634	1149
771.82	1226.31
772.007	1146.1
772.193	1152.1
772.38	1201.7
772.567	1146.48
772.753	1209.06
772.94	1184.85
773.126	1183.88
773.313	1205.77
773.499	1201.7
773.686	1222.82
773.872	1170.12
774.059	1163.73
774.245	1115.48
774.432	1167.99
774.618	1111.61
774.804	1181.16
774.991	1122.85
775.177	1174.96
775.363	1151.13
775.55	1151.71
775.736	1124.01
775.922	1125.56
776.109	1140.28
776.295	1155.4
776.481	1163.34
776.667	1168.96
776.853	1110.06
777.04	1111.8
777.226	1127.69
777.412	1197.83
777.598	1141.64
777.784	1093.2
777.97	1115.1
778.156	1135.63
778.342	1124.78
778.528	1106.76
778.715	1073.83
778.901	1092.04
779.087	1142.41
779.272	1082.74
779.458	1085.84
779.644	1135.83
779.83	1051.74
780.016	1227.86
780.202	1107.93
780.388	1070.15
780.574	1030.04
780.76	1075.18
780.946	1129.82
781.131	1081.38
781.317	1119.16
781.503	1076.54
781.689	1068.21
781.874	1165.47
782.06	1083.52
782.246	1038.57
782.432	1083.13
782.617	1099.02
782.803	1126.53
782.989	1011.44
783.174	1080.61
783.36	1034.11
783.545	1070.53
783.731	1037.6
783.916	1040.31
784.102	1084.68
784.288	1061.62
784.473	1053.29
784.659	1058.72
784.844	1094.75
785.029	981.02
785.215	1044.77
785.4	1009.5
785.586	1076.54
785.771	989.94
785.956	994.78
786.142	1050
786.327	1020.74
786.512	1017.64
786.698	1013.57
786.883	981.02
787.068	999.62
787.254	1021.13
787.439	968.04
787.624	1037.4
787.809	998.07
787.994	1004.66
788.18	1050.19
788.365	952.35
788.55	976.95
788.735	983.74
788.92	985.48
789.105	981.6
789.29	1021.32
789.475	936.07
789.66	971.14
789.845	967.65
790.03	957.39
790.215	1016.87
790.4	998.65
790.585	1020.93
790.77	974.44
790.955	904.88
791.14	970.75
791.325	1016.48
791.51	909.53
791.695	937.43
791.879	920.77
792.064	908.37
792.249	999.62
792.434	931.81
792.618	924.26
792.803	958.74
792.988	913.02
793.173	933.75
793.357	962.04
793.542	888.99
793.727	906.62
793.911	954.87
794.096	950.8
794.281	967.07
794.465	1004.66
794.65	959.32
794.834	935.1
795.019	1008.54
795.203	1011.44
795.388	981.22
795.572	1019
795.757	969.4
795.941	973.66
796.126	971.34
796.31	891.32
796.494	1006.4
796.679	932.2
796.863	927.74
797.048	1013.38
797.232	989.74
797.416	945.95
797.601	953.51
797.785	991.49
797.969	987.03
798.153	942.85
798.338	970.17
798.522	1000.2
798.706	993.42
798.89	970.75
799.074	1065.88
799.258	994.78
799.443	953.51
799.627	962.81
799.811	1015.7
799.995	969.2
800.179	951.96
800.363	964.17
800.547	973.85
800.731	989.94
800.915	900.42
801.099	976.76
801.283	979.28
801.467	957
801.651	936.65
801.835	977.73
802.019	953.51
802.202	959.9
802.386	934.52
802.57	952.35
802.754	949.83
802.938	938.59
803.121	967.27
803.305	1017.64
803.489	957.19
803.673	969.01
803.856	996.52
804.04	964.55
804.224	957.77
804.407	970.17
804.591	958.55
804.775	988
804.958	966.49
805.142	1063.75
805.326	983.54
805.509	974.05
805.693	973.85
805.876	1040.31
806.06	994.97
806.243	994.59
806.427	1014.93
806.61	1011.64
806.794	962.42
806.977	1043.6
807.16	961.45
807.344	994.97
807.527	974.44
807.71	955.64
807.894	976.18
808.077	1006.6
808.26	957.77
808.444	943.82
808.627	1027.72
808.81	961.26
808.993	946.73
809.177	934.33
809.36	969.98
809.543	980.05
809.726	910.89
809.909	917.67
810.092	919.02
810.276	906.82
810.459	944.79
810.642	901.97
810.825	908.95
811.008	910.5
811.191	808.01
811.374	853.54
811.557	877.37
811.74	931.42
811.923	864.58
812.106	834.55
812.289	820.79
812.472	852.96
812.654	884.73
812.837	827.58
813.02	815.76
813.203	812.08
813.386	725.08
813.569	769.06
813.751	734.77
813.934	785.73
814.117	736.32
814.3	738.65
814.482	736.13
814.665	709
814.848	700.67
815.03	689.05
815.213	688.66
815.396	686.53
815.578	639.06
815.761	638.67
815.943	727.8
816.126	631.7
816.309	622.4
816.491	590.43
816.674	518.55
816.856	627.05
817.039	597.4
817.221	657.66
817.403	619.68
817.586	585.58
817.768	644.48
817.951	587.52
818.133	587.52
818.315	589.27
818.498	612.13
818.68	682.85
818.862	616
819.045	674.71
819.227	646.03
819.409	617.75
819.591	654.37
819.774	612.9
819.956	560.01
820.138	658.24
820.32	680.33
820.502	626.27
820.684	693.11
820.866	712.49
821.048	675.29
821.231	704.74
821.413	701.25
821.595	687.5
821.777	700.48
821.959	669.09
822.141	739.23
822.323	629.37
822.505	622.4
822.686	643.52
822.868	634.99
823.05	533.27
823.232	554
823.414	504.21
823.596	560.4
823.778	515.06
823.96	561.37
824.141	556.33
824.323	568.34
824.505	600.89
824.687	641.97
824.868	618.72
825.05	699.51
825.232	682.26
825.413	746.2
825.595	668.9
825.777	651.27
825.958	678.78
826.14	672.77
826.321	671.22
826.503	624.72
826.685	693.5
826.866	727.8
827.048	713.26
827.229	664.44
827.411	658.43
827.592	638.09
827.773	635.96
827.955	603.41
828.136	609.22
828.318	583.65
828.499	633.44
828.68	564.08
828.862	626.08
829.043	637.51
829.224	616
829.406	596.63
829.587	597.4
829.768	598.57
829.949	631.12
830.131	591.2
830.312	665.41
830.493	628.6
830.674	627.82
830.855	596.63
831.036	571.25
831.218	645.07
831.399	671.41
831.58	592.37
831.761	613.1
831.942	646.62
832.123	594.5
832.304	554.78
832.485	581.71
832.666	602.25
832.847	610.77
833.028	615.42
833.209	625.3
833.389	603.22
833.57	548
833.751	603.99
833.932	647.78
834.113	619.1
834.294	590.23
834.475	627.05
834.655	679.36
834.836	654.95
835.017	614.84
835.198	580.55
835.378	631.12
835.559	631.31
835.74	591.78
835.92	585.78
836.101	585.97
836.281	610.38
836.462	634.41
836.643	665.6
836.823	644.87
837.004	645.84
837.184	690.6
837.365	667.73
837.545	677.61
837.726	622.2
837.906	677.23
838.087	657.27
838.267	606.9
838.448	592.95
838.628	658.05
838.808	653.98
838.989	698.73
839.169	634.99
839.349	655.72
839.53	644.1
839.71	675.29
839.89	594.3
840.07	704.35
840.251	632.28
840.431	673.55
840.611	640.22
840.791	624.92
840.971	639.45
841.151	631.31
841.332	624.53
841.512	656.69
841.692	605.73
841.872	670.45
842.052	632.47
842.232	654.95
842.412	592.17
842.592	646.23
842.772	651.46
842.952	619.88
843.132	632.08
843.312	612.71
843.492	581.52
843.672	648.55
843.851	573.96
844.031	611.55
844.211	589.27
844.391	605.73
844.571	615.03
844.751	669.48
844.93	638.09
845.11	550.9
845.29	627.24
845.47	632.08
845.649	595.08
845.829	630.92
846.009	603.41
846.188	600.12
846.368	600.5
846.547	585.97
846.727	633.83
846.907	570.09
847.086	597.98
847.266	599.34
847.445	593.53
847.625	593.33
847.804	596.63
847.984	568.15
848.163	589.27
848.343	576.48
848.522	616.78
848.701	619.49
848.881	565.05
849.06	584.81
849.239	617.55
849.419	615.81
849.598	583.84
849.777	579.77
849.957	553.23
850.136	533.08
850.315	512.35
850.494	548.58
850.674	545.48
850.853	575.12
851.032	576.87
851.211	619.88
851.39	559.62
851.569	545.09
851.748	576.48
851.927	600.31
852.107	583.26
852.286	504.02
852.465	515.84
852.644	576.48
852.823	566.21
853.002	540.25
853.181	568.73
853.359	548.19
853.538	564.66
853.717	649.52
853.896	524.75
854.075	505.18
854.254	493.94
854.433	442.79
854.611	518.74
854.79	487.36
854.969	506.73
855.148	518.74
855.327	484.64
855.505	514.09
855.684	491.23
855.863	513.7
856.041	455.77
856.22	500.53
856.399	474.57
856.577	534.82
856.756	515.06
856.934	649.33
857.113	629.57
857.291	508.47
857.47	531.92
857.648	537.92
857.827	539.09
858.005	567.76
858.184	513.12
858.362	594.11
858.541	514.09
858.719	554.78
858.898	494.72
859.076	507.5
859.254	591.98
859.433	517.19
859.611	531.14
859.789	470.69
859.967	581.32
860.146	581.13
860.324	475.73
860.502	514.87
860.68	489.87
860.859	509.83
861.037	508.47
861.215	506.34
861.393	525.72
861.571	478.64
861.749	492
861.927	544.12
862.105	534.63
862.283	514.09
862.461	495.69
862.639	478.64
862.817	501.11
862.995	504.02
863.173	471.08
863.351	524.17
863.529	492.39
863.707	551.29
863.885	519.71
864.063	435.43
864.241	474.18
864.418	524.75
864.596	486
864.774	458.68
864.952	514.67
865.129	493.36
865.307	469.92
865.485	451.32
865.663	507.12
865.84	457.71
866.018	508.47
866.196	392.81
866.373	461.39
866.551	427.49
866.728	391.06
866.906	404.62
867.084	436.79
867.261	446.09
867.439	469.14
867.616	501.69
867.794	430.2
867.971	455.97
868.149	454.42
868.326	493.94
868.503	488.71
868.681	467.98
868.858	440.86
869.035	419.54
869.213	486.19
869.39	437.17
869.567	513.12
869.745	427.87
869.922	455.39
870.099	483.87
870.276	469.72
870.454	496.27
870.631	472.44
870.808	484.45
870.985	495.49
871.162	506.73
871.339	452.29
871.517	394.55
871.694	426.91
871.871	456.36
872.048	449.77
872.225	411.6
872.402	479.02
872.579	439.31
872.756	464.88
872.933	417.02
873.11	444.34
873.287	453.84
873.463	436.01
873.64	422.84
873.817	456.74
873.994	448.02
874.171	412.96
874.348	463.14
874.524	369.36
874.701	422.26
874.878	365.29
875.055	456.94
875.231	418.38
875.408	460.42
875.585	366.07
875.762	427.49
875.938	380.99
876.115	425.16
876.291	411.99
876.468	422.26
876.645	365.88
876.821	429.62
876.998	403.27
877.174	418.96
877.351	415.28
877.527	410.05
877.704	413.15
877.88	421.87
878.057	388.74
878.233	453.84
878.409	417.99
878.586	426.91
878.762	399.2
878.938	405.98
879.115	370.72
879.291	410.05
879.467	347.66
879.644	399.98
879.82	428.84
879.996	368.59
880.172	342.04
880.349	382.93
880.525	439.31
880.701	382.54
880.877	345.92
881.053	384.28
881.229	390.87
881.405	448.02
881.581	361.81
881.757	368.78
881.933	422.64
882.109	410.24
882.285	421.09
882.461	324.03
882.637	371.11
882.813	354.83
882.989	374.21
883.165	424.19
883.341	335.26
883.517	396.1
883.693	380.21
883.869	428.07
884.044	338.75
884.22	399.98
884.396	424.77
884.572	385.64
884.747	401.52
884.923	386.99
885.099	411.99
885.275	429.81
885.45	361.42
885.626	369.56
885.801	369.36
885.977	337.39
886.153	336.23
886.328	411.99
886.504	359.09
886.679	426.13
886.855	344.18
887.03	388.93
887.206	403.85
887.381	401.14
887.557	383.7
887.732	399.2
887.908	374.59
888.083	427.68
888.258	353.48
888.434	360.64
888.609	369.56
888.784	446.09
888.96	347.86
889.135	355.61
889.31	351.73
889.485	393
889.661	366.46
889.836	453.64
890.011	399.01
890.186	378.47
890.361	345.53
890.537	381.18
890.712	384.67
890.887	386.22
891.062	393.78
891.237	388.16
891.412	372.85
891.587	342.43
891.762	412.37
891.937	419.74
892.112	349.02
892.287	388.16
892.462	351.34
892.637	302.91
892.812	305.62
892.987	326.16
893.161	340.69
893.336	344.18
893.511	358.32
893.686	368.39
893.861	329.45
894.035	343.59
894.21	349.41
894.385	294
894.56	355.22
894.734	305.23
894.909	318.21
895.084	342.04
895.258	338.36
895.433	348.83
895.608	327.9
895.782	304.46
895.957	292.83
896.131	301.55
896.306	261.25
896.48	263
896.655	299.03
896.829	251.76
897.004	240.71
897.178	262.03
897.353	252.53
897.527	319.76
897.701	233.55
897.876	202.16
898.05	284.7
898.224	279.46
898.399	313.76
898.573	264.93
898.747	199.64
898.921	263.77
899.096	205.45
899.27	195.57
899.444	200.8
899.618	203.13
899.792	243.43
899.967	207.97
900.141	246.53
900.315	213.01
900.489	213.98
900.663	264.74
900.837	233.74
901.011	185.69
901.185	248.66
901.359	247.11
901.533	251.95
901.707	243.23
901.881	225.6
902.055	194.99
902.229	216.5
902.403	268.03
902.576	208.75
902.75	241.68
902.924	307.36
903.098	236.84
903.272	276.75
903.446	285.86
903.619	232.58
903.793	262.8
903.967	242.07
904.14	298.06
904.314	331.78
904.488	264.93
904.661	313.56
904.835	252.15
905.009	311.24
905.182	342.24
905.356	324.22
905.529	288.96
905.703	253.11
905.876	263.38
906.05	247.5
906.223	262.41
906.397	194.99
906.57	206.81
906.744	198.48
906.917	243.04
907.09	269
907.264	214.75
907.437	190.15
907.61	163.02
907.784	214.56
907.957	203.71
908.13	195.18
908.304	254.47
908.477	218.05
908.65	208.55
908.823	155.85
908.996	216.11
909.17	214.95
909.343	215.14
909.516	228.9
909.689	195.96
909.862	196.35
910.035	184.72
910.208	158.95
910.381	176.97
910.554	285.47
910.727	197.12
910.9	168.25
911.073	172.32
911.246	247.69
911.419	231.41
911.592	204.29
911.765	195.57
911.938	174.65
912.11	199.06
912.283	163.41
912.456	248.85
912.629	225.22
912.802	161.86
912.974	169.8
913.147	157.21
913.32	112.65
913.493	123.5
913.665	179.1
913.838	178.91
914.01	153.14
914.183	176.2
914.356	126.21
914.528	190.34
914.701	241.1
914.873	204.87
915.046	173.68
915.218	144.81
915.391	117.49
915.563	109.74
915.736	188.4
915.908	194.22
916.081	154.88
916.253	134.54
916.425	175.23
916.598	173.87
916.77	164.57
916.942	126.79
917.115	106.06
917.287	200.8
917.459	134.93
917.632	131.25
917.804	105.09
917.976	156.63
918.148	150.23
918.32	158.37
918.493	176.39
918.665	193.25
918.837	160.31
919.009	205.45
919.181	188.4
919.353	183.56
919.525	177.55
919.697	207.2
919.869	172.13
920.041	186.66
920.213	290.9
920.385	190.92
920.557	140.74
920.729	192.86
920.901	184.33
921.073	169.8
921.244	154.11
921.416	218.05
921.588	186.27
921.76	193.25
921.932	225.41
922.103	170.58
922.275	159.53
922.447	156.43
922.619	114.97
922.79	178.91
922.962	167.87
923.134	180.46
923.305	142.1
923.477	128.34
923.648	154.69
923.82	164.77
923.991	90.17
924.163	117.88
924.335	146.94
924.506	116.52
924.677	192.47
924.849	113.42
925.02	168.45
925.192	159.53
925.363	119.04
925.535	141.71
925.706	125.82
925.877	200.42
926.049	132.02
926.22	150.23
926.391	140.35
926.562	166.9
926.734	145
926.905	151.4
927.076	106.84
927.247	138.61
927.419	106.25
927.59	111.68
927.761	147.72
927.932	116.91
928.103	125.05
928.274	78.94
928.445	90.37
928.616	120.2
928.787	112.65
928.958	157.21
929.129	141.9
929.3	143.26
929.471	79.32
929.642	47.94
929.813	33.6
929.984	131.25
930.155	49.1
930.326	103.35
930.496	82.62
930.667	24.49
930.838	92.89
931.009	49.29
931.18	81.84
931.35	74.87
931.521	77.97
931.692	28.76
931.863	-1.08
932.033	71.38
932.204	91.53
932.374	71.38
932.545	21.2
932.716	62.08
932.886	70.41
933.057	-12.51
933.227	25.07
933.398	100.44
933.568	48.32
933.739	-1.28
933.909	9.96
934.08	64.99
934.25	4.34
934.421	4.34
934.591	33.21
934.761	-10.96
934.932	-52.04
935.102	17.52
935.272	-17.55
935.443	18.87
935.613	9.57
935.783	39.41
935.953	-36.15
936.123	147.13
936.294	-15.81
936.464	-7.09
936.634	3.96
936.804	-16.78
936.974	-44.09
937.144	38.06
937.314	31.66
937.484	5.7
937.655	-21.62
937.825	47.55
937.995	-8.06
938.165	32.63
938.334	-22.2
938.504	21.78
938.674	-41.38
938.844	-28.98
939.014	28.56
939.184	31.66
939.354	57.43
939.524	55.3
939.694	7.64
939.863	-6.7
940.033	54.72
940.203	77.77
940.373	44.64
940.542	44.64
940.712	40.38
940.882	36.7
941.051	56.85
941.221	63.63
941.391	84.36
941.56	11.9
941.73	10.16
941.899	92.5
942.069	10.74
942.238	61.5
942.408	30.11
942.577	53.17
942.747	31.86
942.916	-19.68
943.086	-8.64
943.255	58.79
943.425	46
943.594	33.02
943.763	-26.66
943.933	-3.21
944.102	-29.37
944.271	4.92
944.441	21.01
944.61	-19.29
944.779	3.57
944.948	116.91
945.117	-38.09
945.287	14.22
945.456	-50.87
945.625	-17.16
945.794	28.17
945.963	13.26
946.132	47.16
946.301	19.46
946.47	48.13
946.639	-46.03
946.808	-17.74
946.977	29.53
947.146	60.92
947.315	0.86
947.484	31.86
947.653	22.36
947.822	3.76
947.991	-30.14
948.16	101.22
948.329	36.7
948.498	0.08
948.666	-6.12
948.835	42.71
949.004	-29.37
949.173	-13.68
949.341	36.31
949.51	21.97
949.679	79.9
949.847	46.39
950.016	95.4
950.185	74.29
950.353	-9.99
950.522	8.41
950.69	40.19
950.859	-18.33
951.028	44.06
951.196	26.62
951.365	19.46
951.533	-4.57
951.701	58.4
951.87	43.87
952.038	5.7
952.207	14.22
952.375	74.29
952.543	21.78
952.712	48.32
952.88	3.18
953.048	76.03
953.217	43.87
953.385	31.47
953.553	52.59
953.721	-18.91
953.89	2.41
954.058	-30.53
954.226	-11.16
954.394	47.16
954.562	-22.78
954.73	20.81
954.898	4.92
955.067	72.93
955.235	5.12
955.403	72.74
955.571	59.17
955.739	12.87
955.907	-3.99
956.075	5.51
956.243	-6.12
956.41	35.54
956.578	-2.63
956.746	-34.6
956.914	-20.46
957.082	47.94
957.25	50.46
957.418	-12.9
957.585	-3.6
957.753	84.55
957.921	-9.8
958.089	28.76
958.256	51.81
958.424	36.51
958.592	37.47
958.759	-12.51
958.927	33.02
959.095	7.25
959.262	12.48
959.43	29.34
959.597	-28.01
959.765	4.73
959.932	-52.04
960.1	34.76
960.267	-9.03
960.435	-5.73
960.602	58.59
960.77	-5.34
960.937	-15.42
961.104	18.68
961.272	-32.66
961.439	-16.78
961.606	25.85
961.774	46.19
961.941	23.72
962.108	47.74
962.275	29.92
962.443	71.19
962.61	27.4
962.777	73.12
962.944	37.67
963.111	15.97
963.278	35.54
963.446	21.2
963.613	19.26
963.78	25.07
963.947	52.78
964.114	18.29
964.281	92.69
964.448	55.49
964.615	15.77
964.782	33.99
964.949	50.46
965.116	69.44
965.282	53.17
965.449	4.73
965.616	-21.23
965.783	60.53
965.95	48.71
966.117	21.01
966.283	22.94
966.45	41.54
966.617	34.18
966.784	76.8
966.95	46.39
967.117	32.24
967.284	-2.63
967.45	-14.84
967.617	71.77
967.784	12.48
967.95	81.07
968.117	22.75
968.283	53.94
968.45	125.24
968.616	43.29
968.783	66.73
968.949	50.46
969.116	69.64
969.282	21.59
969.449	33.21
969.615	55.88
969.781	-38.47
969.948	7.64
970.114	-23.94
970.28	94.44
970.447	30.11
970.613	56.65
970.779	-24.91
970.945	33.6
971.112	48.71
971.278	15.39
971.444	33.21
971.61	69.05
971.776	7.44
971.942	33.21
972.108	42.51
972.275	27.01
972.441	49.1
972.607	105.29
972.773	-3.21
972.939	70.22
973.105	17.91
973.271	-14.64
973.437	17.32
973.602	19.26
973.768	37.09
973.934	19.26
974.1	33.99
974.266	-65.21
974.432	12.67
974.598	27.01
974.763	57.04
974.929	18.87
975.095	118.07
975.261	12.87
975.426	5.51
975.592	18.49
975.758	119.04
975.923	-16.58
976.089	6.09
976.255	66.15
976.42	40.96
976.586	15.97
976.751	34.96
976.917	110.13
977.082	30.69
977.248	-8.44
977.413	-31.69
977.579	-8.25
977.744	37.47
977.91	1.44
978.075	6.47
978.24	69.25
978.406	7.06
978.571	16.94
978.736	1.44
978.902	58.01
979.067	0.86
979.232	-60.56
979.397	36.7
979.563	75.84
979.728	16.94
979.893	3.96
980.058	0.86
980.223	52.78
980.388	36.51
980.554	13.26
980.719	23.91
980.884	41.74
981.049	64.99
981.214	9.38
981.379	36.51
981.544	18.68
981.709	5.31
981.874	15
982.039	15.58
982.204	53.75
982.368	30.5
982.533	-11.54
982.698	50.84
982.863	59.17
983.028	5.7
983.193	35.34
983.357	9.96
983.522	29.92
983.687	20.23
983.852	7.44
984.016	16.94
984.181	28.95
984.346	13.26
984.51	51.23
984.675	18.29
984.839	43.87
985.004	2.79
985.168	68.67
985.333	42.71
985.498	6.28
985.662	51.81
985.827	60.34
985.991	2.99
986.155	18.49
986.32	53.94
986.484	101.8
986.649	39.61
986.813	-8.25
986.977	39.02
987.142	55.88
987.306	-9.8
987.47	-21.62
987.634	31.86
987.799	34.96
987.963	48.32
988.127	53.55
988.291	114
988.455	10.35
988.62	15.77
988.784	35.15
988.948	57.62
989.112	9.57
989.276	61.69
989.44	13.26
989.604	8.22
989.768	8.41
989.932	100.44
990.096	-1.66
990.26	-15.03
990.424	-19.29
990.588	28.17
990.752	77
990.915	53.75
991.079	-11.54
991.243	9.96
991.407	37.28
991.571	0.08
991.734	29.34
991.898	39.02
992.062	113.04
992.226	6.28
992.389	-18.13
992.553	1.05
992.717	-5.93
992.88	6.67
993.044	39.22
993.207	7.83
993.371	36.89
993.535	23.52
993.698	15.97
993.862	62.47
994.025	59.56
994.189	37.09
994.352	34.57
994.515	46.19
994.679	67.5
994.842	23.14
995.006	42.71
995.169	-20.26
995.332	25.85
995.496	33.41
995.659	-42.16
995.822	29.14
995.985	14.03
996.149	93.66
996.312	34.18
996.475	96.37
996.638	10.54
996.801	70.22
996.964	67.7
997.128	26.82
997.291	34.37
997.454	36.7
997.617	-19.49
997.78	63.24
997.943	12.67
998.106	71.77
998.269	1.63
998.432	-5.73
998.595	20.42
998.758	-14.26
998.92	-16.78
999.083	-11.35
999.246	2.79
999.409	-18.91
999.572	-30.34
999.735	14.81
999.897	63.05
1000.06	4.73
1000.223	9.77
1000.386	53.75
1000.548	49.49
1000.711	15.39
1000.874	19.46
1001.036	-36.15
1001.199	59.75
1001.361	-2.24
1001.524	11.9
1001.687	36.51
1001.849	-12.51
1002.012	22.56
1002.174	29.14
1002.337	72.35
1002.499	18.68
1002.661	52.59
1002.824	-5.93
1002.986	-13.48
1003.149	20.42
1003.311	20.81
1003.473	83.39
1003.636	-2.63
1003.798	15
1003.96	46.39
1004.123	23.72
1004.285	-9.99
1004.447	36.51
1004.609	18.1
1004.771	86.1
1004.933	-33.83
1005.096	3.76
1005.258	-34.99
1005.42	-13.09
1005.582	56.65
1005.744	34.37
1005.906	-49.32
1006.068	21.2
1006.23	2.41
1006.392	-41.19
1006.554	-9.41
1006.716	61.5
1006.878	37.09
1007.04	-17.94
1007.202	-1.47
1007.363	31.27
1007.525	43.48
1007.687	28.56
1007.849	48.91
1008.011	-31.31
1008.172	-24.72
1008.334	2.99
1008.496	30.31
1008.658	-26.08
1008.819	-9.99
1008.981	-39.44
1009.143	-17.36
1009.304	3.76
1009.466	33.79
1009.627	71.77
1009.789	108.19
1009.95	61.11
1010.112	-7.48
1010.273	18.68
1010.435	-22.59
1010.596	0.27
1010.758	-11.54
1010.919	-2.83
1011.081	-23.56
1011.242	-18.91
1011.403	44.26
1011.565	-17.94
1011.726	3.57
1011.887	-21.23
1012.049	9.19
1012.21	56.27
1012.371	77.97
1012.532	-49.32
1012.693	4.34
1012.855	-23.94
1013.016	5.31
1013.177	27.4
1013.338	-9.99
1013.499	84.17
1013.66	38.06
1013.821	31.27
1013.982	10.35
1014.143	25.46
1014.304	-4.76
1014.465	59.95
1014.626	34.57
1014.787	-12.51
1014.948	82.62
1015.109	-57.66
1015.27	40.96
1015.431	-17.16
1015.592	-25.3
1015.752	70.02
1015.913	6.86
1016.074	20.04
1016.235	1.44
1016.395	10.35
1016.556	22.36
1016.717	-4.18
1016.877	47.16
1017.038	-9.61
1017.199	16.36
1017.359	-9.61
1017.52	41.16
1017.681	-15.03
1017.841	7.25
1018.002	-2.44
1018.162	-8.83
1018.323	91.72
1018.483	3.57
1018.644	7.25
1018.804	-31.11
1018.964	-21.62
1019.125	4.34
1019.285	27.79
1019.446	-14.84
1019.606	-31.11
1019.766	-32.28
1019.926	37.86
1020.087	33.6
1020.247	-35.18
1020.407	23.91
1020.567	53.17
1020.728	-0.11
1020.888	-43.32
1021.048	-24.53
1021.208	-5.54
1021.368	-9.61
1021.528	46.58
1021.688	35.54
1021.848	32.44
1022.008	4.73
1022.168	-20.07
1022.328	20.42
1022.488	20.04
1022.648	-9.61
1022.808	24.3
1022.968	15.19
1023.128	-9.61
1023.288	-18.33
1023.448	18.87
1023.608	32.82
1023.767	48.91
1023.927	-17.16
1024.087	-18.13
1024.247	-34.79
1024.406	11.32
1024.566	-42.16
1024.726	-27.63
1024.885	-1.28
1025.045	50.46
1025.205	6.09
1025.364	-6.12
1025.524	6.47
1025.683	16.74
1025.843	15.39
1026.003	27.98
1026.162	54.14
1026.321	46.39
1026.481	0.47
1026.64	-5.15
1026.8	16.16
1026.959	17.13
1027.119	27.98
1027.278	-34.41
1027.437	-16.39
1027.597	-7.67
1027.756	49.1
1027.915	41.16
1028.074	42.51
1028.234	-29.37
1028.393	17.52
1028.552	7.64
1028.711	-53.59
1028.87	38.83
1029.03	-24.72
1029.189	-20.46
1029.348	-40.61
1029.507	-6.12
1029.666	-16.58
1029.825	-40.8
1029.984	2.21
1030.143	21.59
1030.302	-38.09
1030.461	-69.86
1030.62	3.18
1030.779	24.11
1030.938	-9.22
1031.097	-54.75
1031.255	45.03
1031.414	60.14
1031.573	48.13
1031.732	-66.18
1031.891	-7.09
1032.049	25.07
1032.208	32.24
1032.367	-16
1032.525	-8.06
1032.684	-9.99
1032.843	11.12
1033.001	-48.16
1033.16	147.91
1033.319	46.19
1033.477	22.94
1033.636	-18.91
1033.794	-36.54
1033.953	45.61
1034.111	31.86
1034.27	-15.03
1034.428	22.94
1034.587	-1.08
1034.745	18.1
1034.903	-9.8
1035.062	17.13
1035.22	-56.3
1035.378	16.74
1035.537	-39.83
1035.695	33.99
1035.853	-1.28
1036.011	12.09
1036.17	10.74
1036.328	-36.15
1036.486	28.37
1036.644	15.97
1036.802	-89.04
1036.96	0.47
1037.119	3.57
1037.277	-27.82
1037.435	-35.96
1037.593	-14.84
1037.751	-6.89
1037.909	16.36
1038.067	16.36
