Data from pine_FLMT105791__72__17-21-12-077.txt Node

Date: Mon Mar 20 17:21:12 GMT 2023
User: antho
Spectrometer: FLMT10579
Trigger mode: 0
Integration Time (sec): 1.000000E-1
Scans to average: 10
Electric dark correction enabled: true
Nonlinearity correction enabled: false
Boxcar width: 0
XAxis mode: Wavelengths
Number of Pixels in Spectrum: 3648
>>>>>Begin Spectral Data<<<<<
345.248	-164.22
345.464	-164.22
345.681	-164.22
345.898	-185.53
346.114	-190.76
346.331	-51.07
346.548	29.53
346.764	-15.81
346.981	9.38
347.197	-16.78
347.414	24.69
347.631	3.57
347.847	53.55
348.064	9.19
348.28	17.91
348.497	-55.33
348.713	-8.83
348.93	13.84
349.146	21.01
349.363	2.02
349.579	25.27
349.796	11.71
350.012	-4.18
350.229	27.4
350.445	8.22
350.661	-25.49
350.878	27.59
351.094	18.87
351.311	2.6
351.527	34.18
351.743	-29.56
351.96	28.37
352.176	-4.18
352.392	12.29
352.609	29.14
352.825	-14.06
353.041	-16.78
353.257	-3.21
353.474	-0.31
353.69	45.42
353.906	9.96
354.122	-24.91
354.339	51.23
354.555	14.61
354.771	4.15
354.987	50.84
355.203	64.99
355.42	-29.18
355.636	-13.48
355.852	-14.64
356.068	21.78
356.284	-22.2
356.5	75.06
356.716	-10.38
356.932	-3.21
357.148	32.05
357.364	-0.11
357.58	58.2
357.796	31.66
358.012	23.72
358.228	28.76
358.444	-59.59
358.66	70.8
358.876	25.27
359.092	-21.43
359.308	13.45
359.524	39.41
359.74	-3.99
359.956	-21.81
360.172	-4.38
360.388	37.47
360.604	-10.77
360.819	77.97
361.035	29.92
361.251	19.46
361.467	-21.81
361.683	27.01
361.898	22.75
362.114	35.73
362.33	-1.08
362.546	59.17
362.762	2.41
362.977	13.06
363.193	-16.19
363.409	36.89
363.624	-7.09
363.84	-13.87
364.056	-2.05
364.271	10.16
364.487	15.39
364.703	1.44
364.918	-27.63
365.134	-10.96
365.35	5.51
365.565	84.55
365.781	26.43
365.996	-1.66
366.212	52.78
366.427	20.62
366.643	-22.78
366.858	-7.28
367.074	-30.14
367.289	51.81
367.505	109.16
367.72	-46.42
367.936	-16.58
368.151	50.26
368.367	39.8
368.582	0.27
368.798	-16.19
369.013	65.57
369.228	31.08
369.444	20.42
369.659	45.42
369.874	9.96
370.09	54.33
370.305	-37.89
370.52	-3.41
370.736	70.22
370.951	6.86
371.166	44.45
371.381	69.44
371.597	37.09
371.812	-14.45
372.027	-17.36
372.242	-12.32
372.458	75.45
372.673	21.01
372.888	8.41
373.103	12.48
373.318	90.75
373.533	29.14
373.749	34.96
373.964	-35.57
374.179	42.71
374.394	-15.23
374.609	65.18
374.824	-13.87
375.039	58.01
375.254	-11.54
375.469	78.94
375.684	38.44
375.899	53.55
376.114	22.75
376.329	17.32
376.544	43.29
376.759	42.9
376.974	-26.27
377.189	11.12
377.404	-6.7
377.619	19.46
377.834	-42.93
378.049	-27.24
378.264	-11.93
378.478	19.26
378.693	-4.38
378.908	21.97
379.123	3.96
379.338	46
379.553	26.62
379.767	19.26
379.982	15.77
380.197	30.69
380.412	0.08
380.626	31.66
380.841	95.21
381.056	27.98
381.271	57.82
381.485	-11.74
381.7	-43.32
381.915	15.77
382.129	13.45
382.344	25.46
382.559	15.97
382.773	49.1
382.988	-21.43
383.202	5.12
383.417	21.59
383.632	105.48
383.846	-8.06
384.061	31.66
384.275	-2.44
384.49	33.02
384.704	30.5
384.919	20.23
385.133	7.06
385.348	18.49
385.562	-28.21
385.777	40.57
385.991	7.44
386.206	-2.83
386.42	-12.51
386.634	39.22
386.849	37.47
387.063	26.04
387.277	-28.98
387.492	-13.29
387.706	-19.1
387.92	-32.66
388.135	70.8
388.349	5.12
388.563	6.09
388.778	28.17
388.992	46.58
389.206	31.66
389.42	89.4
389.635	27.98
389.849	14.22
390.063	41.35
390.277	50.26
390.491	62.47
390.706	46.97
390.92	35.73
391.134	-12.51
391.348	56.85
391.562	-35.38
391.776	-0.69
391.99	-16
392.205	44.06
392.419	-3.41
392.633	4.73
392.847	72.74
393.061	-4.57
393.275	91.34
393.489	16.55
393.703	41.35
393.917	75.84
394.131	17.71
394.345	14.22
394.559	57.62
394.773	11.51
394.986	23.33
395.2	17.91
395.414	61.3
395.628	-25.88
395.842	34.96
396.056	-2.24
396.27	-49.52
396.484	22.94
396.697	30.5
396.911	61.11
397.125	64.99
397.339	57.82
397.553	52.2
397.766	86.69
397.98	65.95
398.194	60.34
398.408	14.42
398.621	56.07
398.835	39.8
399.049	28.56
399.262	73.9
399.476	34.76
399.69	29.92
399.903	76.42
400.117	45.03
400.331	30.11
400.544	-9.8
400.758	141.71
400.971	28.56
401.185	38.64
401.398	10.93
401.612	73.7
401.826	51.62
402.039	62.85
402.253	6.09
402.466	40.19
402.68	26.24
402.893	29.34
403.106	40.38
403.32	15.58
403.533	38.64
403.747	47.36
403.96	48.71
404.174	50.65
404.387	-20.07
404.6	37.67
404.814	42.32
405.027	41.16
405.24	36.89
405.454	31.47
405.667	70.41
405.88	-5.93
406.094	27.98
406.307	52.78
406.52	46.58
406.733	17.32
406.947	-19.29
407.16	101.99
407.373	65.57
407.586	21.97
407.799	10.54
408.012	42.71
408.226	48.32
408.439	84.36
408.652	-0.69
408.865	27.79
409.078	62.27
409.291	67.89
409.504	13.26
409.717	43.29
409.93	26.24
410.143	30.89
410.357	-8.44
410.57	-7.67
410.783	23.52
410.996	58.98
411.209	27.98
411.421	65.57
411.634	42.9
411.847	15
412.06	29.14
412.273	10.54
412.486	39.02
412.699	106.45
412.912	6.47
413.125	69.05
413.338	33.21
413.55	52.2
413.763	51.81
413.976	26.62
414.189	-15.42
414.402	29.34
414.615	88.43
414.827	4.73
415.04	69.83
415.253	32.63
415.466	69.64
415.678	113.42
415.891	40.96
416.104	13.64
416.316	47.74
416.529	12.48
416.742	41.35
416.954	85.72
417.167	24.69
417.38	32.24
417.592	81.84
417.805	23.33
418.017	15.77
418.23	71.96
418.442	3.57
418.655	37.86
418.868	54.72
419.08	84.75
419.293	76.42
419.505	54.52
419.718	69.44
419.93	68.86
420.142	39.61
420.355	94.63
420.567	93.08
420.78	65.95
420.992	35.73
421.205	117.88
421.417	-2.24
421.629	42.9
421.842	-4.96
422.054	15.97
422.266	77.77
422.479	76.03
422.691	15.97
422.903	92.69
423.115	32.82
423.328	43.29
423.54	82.62
423.752	31.08
423.964	47.36
424.177	59.37
424.389	16.74
424.601	142.68
424.813	62.47
425.025	85.91
425.238	96.57
425.45	60.72
425.662	33.99
425.874	358.32
426.086	70.02
426.298	81.84
426.51	87.46
426.722	52.2
426.934	52.59
427.146	65.37
427.358	10.74
427.57	118.27
427.782	46.58
427.994	72.93
428.206	34.76
428.418	27.98
428.63	92.69
428.842	98.31
429.054	71.19
429.266	73.9
429.478	34.76
429.69	60.53
429.902	1.82
430.114	102.77
430.325	77.77
430.537	59.37
430.749	60.72
430.961	17.13
431.173	80.49
431.384	99.47
431.596	13.64
431.808	54.91
432.02	69.64
432.231	79.52
432.443	94.63
432.655	107.8
432.867	60.53
433.078	106.06
433.29	153.33
433.502	99.86
433.713	133.38
433.925	84.94
434.136	164.96
434.348	48.52
434.56	32.82
434.771	173.29
434.983	52.39
435.194	27.21
435.406	77.58
435.617	115.94
435.829	151.98
436.04	125.44
436.252	126.21
436.463	135.12
436.675	123.89
436.886	114.59
437.098	105.09
437.309	163.6
437.521	94.82
437.732	118.65
437.943	116.33
438.155	120.2
438.366	61.69
438.578	165.54
438.789	109.16
439	144.81
439.211	92.3
439.423	138.42
439.634	138.22
439.845	139.19
440.057	114.97
440.268	134.35
440.479	90.95
440.69	143.45
440.902	126.02
441.113	122.92
441.324	116.14
441.535	140.55
441.746	160.12
441.957	104.32
442.168	74.67
442.38	123.89
442.591	167.28
442.802	107.03
443.013	132.02
443.224	135.51
443.435	120.98
443.646	135.7
443.857	130.09
444.068	108.58
444.279	101.8
444.49	213.78
444.701	138.42
444.912	252.53
445.123	186.85
445.334	150.04
445.545	146.55
445.756	126.02
445.967	96.18
446.178	155.08
446.388	199.45
446.599	158.57
446.81	170.77
447.021	143.45
447.232	193.05
447.443	188.79
447.653	118.46
447.864	155.66
448.075	151.78
448.286	190.34
448.496	168.83
448.707	204.48
448.918	153.53
449.129	254.47
449.339	143.65
449.55	182.78
449.761	149.65
449.971	225.02
450.182	145
450.393	213.4
450.603	172.32
450.814	224.25
451.024	185.69
451.235	207.2
451.446	246.91
451.656	255.44
451.867	170.77
452.077	215.92
452.288	252.34
452.498	263.58
452.709	168.25
452.919	221.34
453.13	189.76
453.34	222.31
453.55	145.2
453.761	233.55
453.971	205.26
454.182	256.6
454.392	225.22
454.602	266.48
454.813	222.89
455.023	241.88
455.233	175.81
455.444	212.04
455.654	105.87
455.864	221.15
456.075	189.95
456.285	193.25
456.495	201.38
456.705	238.2
456.916	264.16
457.126	277.53
457.336	206.81
457.546	151.4
457.756	186.08
457.967	252.34
458.177	214.37
458.387	218.05
458.597	187.82
458.807	203.13
459.017	214.75
459.227	206.81
459.437	235.48
459.647	221.53
459.857	242.85
460.068	202.16
460.278	259.51
460.488	234.32
460.698	283.92
460.908	229.09
461.117	182.01
461.327	197.7
461.537	223.86
461.747	242.26
461.957	219.21
462.167	326.54
462.377	244.4
462.587	221.34
462.797	277.14
463.007	240.33
463.216	250.79
463.426	267.26
463.636	250.4
463.846	199.45
464.056	231.03
464.265	280.63
464.475	213.4
464.685	256.02
464.895	283.92
465.104	229.28
465.314	271.91
465.524	226.38
465.733	221.53
465.943	293.41
466.153	297.29
466.362	295.74
466.572	266.68
466.782	256.02
466.991	254.66
467.201	313.56
467.41	220.18
467.62	287.21
467.829	254.47
468.039	272.1
468.249	249.82
468.458	264.74
468.668	282.56
468.877	296.71
469.086	340.88
469.296	308.53
469.505	261.25
469.715	324.22
469.924	295.93
470.134	339.53
470.343	322.28
470.552	302.33
470.762	273.85
470.971	235.29
471.18	289.73
471.39	289.93
471.599	251.76
471.808	326.93
472.018	246.14
472.227	330.81
472.436	336.81
472.645	285.86
472.855	293.03
473.064	362
473.273	357.93
473.482	319.57
473.691	345.73
473.901	347.47
474.11	298.84
474.319	393.19
474.528	319.76
474.737	397.46
474.946	346.31
475.155	334.88
475.364	347.28
475.573	339.14
475.783	322.09
475.992	374.79
476.201	387.58
476.41	343.21
476.619	298.65
476.828	360.26
477.037	302.33
477.245	331
477.454	375.18
477.663	338.17
477.872	353.28
478.081	411.99
478.29	326.54
478.499	440.47
478.708	375.18
478.917	413.92
479.125	384.48
479.334	382.15
479.543	397.46
479.752	405.59
479.961	400.36
480.169	435.62
480.378	369.17
480.587	502.08
480.796	432.72
481.004	401.52
481.213	402.69
481.422	383.7
481.63	380.6
481.839	461.97
482.048	516.61
482.256	459.26
482.465	420.51
482.674	448.99
482.882	432.72
483.091	501.69
483.299	464.49
483.508	500.34
483.716	460.81
483.925	438.53
484.134	422.84
484.342	432.52
484.551	466.82
484.759	478.64
484.967	490.07
485.176	487.94
485.384	481.74
485.593	497.62
485.801	489.49
486.01	437.56
486.218	452.48
486.426	377.31
486.635	405.98
486.843	410.63
487.051	462.94
487.26	432.14
487.468	474.37
487.676	496.85
487.885	448.22
488.093	477.09
488.301	479.8
488.509	477.28
488.717	534.24
488.926	485.81
489.134	460.23
489.342	491.23
489.55	455.39
489.758	515.45
489.967	478.83
490.175	599.15
490.383	519.52
490.591	564.47
490.799	442.99
491.007	566.99
491.215	534.44
491.423	527.27
491.631	508.28
491.839	551.49
492.047	551.87
492.255	514.29
492.463	456.55
492.671	512.54
492.879	557.49
493.087	525.72
493.295	566.21
493.503	590.23
493.711	557.1
493.919	574.15
494.127	570.47
494.334	585.58
494.542	485.81
494.75	551.68
494.958	560.01
495.166	615.23
495.374	594.69
495.581	559.62
495.789	583.26
495.997	623.95
496.205	584.42
496.412	554.39
496.62	573.57
496.828	604.96
497.035	572.6
497.243	600.7
497.451	586.36
497.658	622.4
497.866	596.82
498.074	665.8
498.281	567.57
498.489	657.27
498.696	609.03
498.904	613.1
499.112	603.6
499.319	676.65
499.527	592.37
499.734	679.16
499.942	554
500.149	595.85
500.357	606.51
500.564	577.45
500.771	642.74
500.979	591.78
501.186	578.42
501.394	607.87
501.601	623.37
501.808	661.34
502.016	612.9
502.223	596.05
502.43	631.5
502.638	603.22
502.845	587.13
503.052	674.51
503.26	596.43
503.467	687.88
503.674	657.66
503.881	660.76
504.089	713.46
504.296	686.14
504.503	618.91
504.71	669.48
504.917	587.52
505.125	668.51
505.332	655.53
505.539	682.65
505.746	744.07
505.953	738.45
506.16	676.26
506.367	729.93
506.574	717.14
506.781	722.76
506.988	672.96
507.195	702.03
507.402	693.89
507.609	726.83
507.816	663.47
508.023	674.51
508.23	671.22
508.437	659.02
508.644	705.51
508.851	756.47
509.058	745.43
509.265	738.65
509.472	749.11
509.679	821.38
509.885	740.78
510.092	712.68
510.299	718.69
510.506	727.6
510.713	716.56
510.92	737.1
511.126	728.38
511.333	802
511.54	781.85
511.746	820.6
511.953	823.89
512.16	826.8
512.367	750.66
512.573	767.51
512.78	746.01
512.987	749.88
513.193	792.7
513.4	717.53
513.606	738.06
513.813	789.79
514.02	788.83
514.226	853.92
514.433	814.21
514.639	745.04
514.846	815.18
515.052	774.49
515.259	787.66
515.465	806.07
515.672	803.55
515.878	898.29
516.085	790.96
516.291	827.58
516.497	787.08
516.704	790.76
516.91	740.2
517.117	739.03
517.323	683.23
517.529	764.41
517.736	733.41
517.942	771.97
518.148	760.73
518.354	790.18
518.561	768.68
518.767	817.5
518.973	818.28
519.179	830.29
519.386	783.01
519.592	795.99
519.798	804.71
520.004	897.13
520.21	842.69
520.417	902.56
520.623	913.99
520.829	900.81
521.035	931.42
521.241	926.97
521.447	906.04
521.653	1000.01
521.859	935.49
522.065	915.34
522.271	1024.62
522.477	953.9
522.683	990.13
522.889	963.78
523.095	980.44
523.301	971.92
523.507	923.48
523.713	993.04
523.919	958.16
524.125	1021.13
524.331	952.74
524.537	1056
524.742	1018.8
524.948	1024.23
525.154	1016.87
525.36	1118.97
525.566	1033.92
525.772	1081.97
525.977	968.04
526.183	1036.43
526.389	1079.06
526.595	989.55
526.8	1006.79
527.006	928.9
527.212	929.87
527.417	940.72
527.623	936.65
527.829	1004.27
528.034	1027.52
528.24	1011.44
528.446	968.04
528.651	1091.07
528.857	1055.81
529.062	1131.95
529.268	1040.7
529.473	1080.8
529.679	1084.1
529.884	1123.81
530.09	1112
530.295	1139.51
530.501	1139.31
530.706	1134.28
530.912	1071.89
531.117	1101.73
531.323	1133.89
531.528	1116.45
531.733	1148.03
531.939	1130.4
532.144	1152.3
532.35	1102.7
532.555	1125.95
532.76	1146.87
532.966	1186.59
533.171	1139.9
533.376	1096.69
533.581	1081.77
533.787	1126.72
533.992	1152.49
534.197	1173.41
534.402	1126.91
534.607	1143.96
534.813	1245.29
535.018	1169.35
535.223	1115.29
535.428	1170.7
535.633	1219.33
535.838	1205.38
536.043	1218.17
536.249	1271.84
536.454	1215.84
536.659	1233.86
536.864	1192.59
537.069	1202.09
537.274	1223.59
537.479	1207.13
537.684	1217.01
537.889	1191.63
538.094	1293.92
538.299	1211.58
538.504	1245.68
538.708	1226.11
538.913	1268.74
539.118	1215.84
539.323	1224.56
539.528	1186.2
539.733	1203.44
539.938	1239.68
540.142	1260.02
540.347	1197.83
540.552	1181.55
540.757	1224.18
540.962	1180.2
541.166	1154.81
541.371	1135.44
541.576	1174.58
541.781	1081.19
541.985	1259.44
542.19	1212.16
542.395	1285.01
542.599	1328.22
542.804	1269.71
543.008	1315.24
543.213	1225.92
543.418	1217.98
543.622	1265.06
543.827	1176.71
544.031	1291.02
544.236	1284.82
544.44	1235.99
544.645	1316.01
544.849	1238.13
545.054	1292.96
545.258	1352.44
545.463	1324.92
545.667	1262.34
545.872	1275.13
546.076	1287.72
546.281	1273.19
546.485	1235.61
546.689	1298.38
546.894	1332.09
547.098	1287.34
547.302	1231.93
547.507	1304.97
547.711	1317.37
547.915	1340.04
548.119	1267.19
548.324	1290.24
548.528	1383.44
548.732	1273.19
548.936	1299.93
549.141	1313.3
549.345	1296.64
549.549	1332.87
549.753	1294.12
549.957	1383.63
550.161	1371.62
550.366	1312.14
550.57	1306.13
550.774	1342.94
550.978	1306.13
551.182	1346.62
551.386	1293.34
551.59	1307.1
551.794	1316.4
551.998	1325.89
552.202	1299.35
552.406	1301.87
552.61	1367.94
552.814	1304.58
553.018	1382.08
553.222	1306.32
553.426	1328.61
553.63	1443.3
553.833	1295.86
554.037	1297.99
554.241	1385.76
554.445	1338.49
554.649	1317.37
554.853	1310.59
555.056	1337.13
555.26	1380.53
555.464	1345.46
555.668	1335.77
555.871	1356.89
556.075	1363.67
556.279	1297.61
556.483	1272.81
556.686	1331.71
556.89	1315.24
557.094	1339.26
557.297	1315.24
557.501	1355.34
557.704	1267.38
557.908	1340.62
558.112	1280.17
558.315	1388.28
558.519	1327.06
558.722	1302.06
558.926	1253.43
559.129	1227.08
559.333	1209.64
559.536	1213.71
559.74	1243.74
559.943	1229.02
560.147	1191.63
560.35	1296.06
560.553	1261.18
560.757	1189.3
560.96	1279.01
561.164	1240.84
561.367	1299.35
561.57	1245.1
561.774	1251.69
561.977	1278.04
562.18	1203.25
562.384	1319.5
562.587	1256.53
562.79	1242.58
562.993	1263.89
563.197	1297.8
563.4	1340.23
563.603	1303.03
563.806	1357.09
564.009	1212.55
564.212	1299.16
564.416	1207.32
564.619	1239.87
564.822	1198.79
565.025	1258.47
565.228	1245.68
565.431	1234.44
565.634	1135.05
565.837	1230.18
566.04	1185.43
566.243	1202.28
566.446	1126.33
566.649	1218.56
566.852	1156.95
567.055	1176.13
567.258	1224.56
567.461	1291.6
567.664	1236.58
567.867	1125.56
568.07	1197.24
568.273	1236.77
568.475	1264.86
568.678	1147.26
568.881	1180.78
569.084	1165.28
569.287	1094.17
569.489	1114.71
569.692	1156.95
569.895	1182.52
570.098	1126.53
570.3	1127.88
570.503	1098.24
570.706	1098.63
570.909	1096.11
571.111	1057.17
571.314	1083.71
571.516	1071.89
571.719	1138.15
571.922	1084.68
572.124	1122.07
572.327	1115.29
572.529	1049.03
572.732	1051.74
572.935	1116.06
573.137	1146.1
573.34	1069.57
573.542	1128.27
573.745	1097.27
573.947	1128.08
574.15	1089.33
574.352	1056.58
574.554	1136.99
574.757	1045.73
574.959	1041.28
575.162	1055.42
575.364	1054.65
575.566	1152.68
575.769	1016.87
575.971	1068.02
576.173	979.86
576.376	1060.27
576.578	1089.33
576.78	1101.92
576.982	979.47
577.185	1035.47
577.387	991.87
577.589	1011.83
577.791	1066.66
577.993	1055.62
578.196	1026.36
578.398	1054.26
578.6	1038.57
578.802	981.8
579.004	999.62
579.206	980.05
579.408	1050.19
579.61	1007.57
579.812	1062.01
580.014	1005.63
580.216	1014.93
580.418	1018.03
580.62	1008.15
580.822	958.16
581.024	1010.09
581.226	1059.68
581.428	1004.47
581.63	1069.76
581.832	965.14
582.034	1081.19
582.236	1020.35
582.438	1061.82
582.64	1091.65
582.841	1108.51
583.043	1151.91
583.245	1070.15
583.447	1047.67
583.649	1048.83
583.85	1088.55
584.052	1064.92
584.254	1000.59
584.456	1106.18
584.657	1014.35
584.859	1046.32
585.061	1028.88
585.262	1002.92
585.464	971.53
585.666	1045.35
585.867	997.1
586.069	1081
586.27	1030.62
586.472	1041.47
586.674	1023.45
586.875	1018.42
587.077	986.84
587.278	1049.8
587.48	988.97
587.681	1136.99
587.883	1027.91
588.084	956.61
588.285	980.05
588.487	971.92
588.688	1017.25
588.89	933.17
589.091	895.58
589.292	957.39
589.494	915.34
589.695	885.51
589.896	855.86
590.098	831.26
590.299	932.59
590.5	896.36
590.702	864
590.903	880.08
591.104	958.74
591.305	944.02
591.507	972.5
591.708	956.61
591.909	934.91
592.11	1025.78
592.311	973.85
592.512	918.44
592.714	865.94
592.915	930.84
593.116	925.03
593.317	927.94
593.518	958.94
593.719	937.04
593.92	973.66
594.121	1000.01
594.322	917.47
594.523	926.77
594.724	884.73
594.925	919.99
595.126	978.89
595.327	959.13
595.528	924.84
595.729	930.84
595.929	937.82
596.13	920.38
596.331	947.12
596.532	981.22
596.733	966.49
596.934	984.32
597.135	954.87
597.335	941.5
597.536	891.51
597.737	965.14
597.938	932
598.138	952.74
598.339	929.49
598.54	953.12
598.74	906.82
598.941	909.34
599.142	953.32
599.342	954.09
599.543	933.55
599.744	939.56
599.944	932
600.145	931.42
600.345	952.74
600.546	1012.22
600.746	966.69
600.947	974.44
601.147	918.25
601.348	987.61
601.548	907.4
601.749	966.49
601.949	893.26
602.15	891.71
602.35	945.57
602.551	977.54
602.751	899.65
602.951	889.38
603.152	864.19
603.352	944.21
603.552	928.13
603.753	958.16
603.953	947.89
604.153	949.05
604.354	908.56
604.554	894.81
604.754	944.21
604.954	853.92
605.155	922.9
605.355	888.02
605.555	961.45
605.755	1000.01
605.955	955.06
606.155	958.35
606.356	915.73
606.556	968.43
606.756	935.3
606.956	873.88
607.156	953.7
607.356	883.76
607.556	906.82
607.756	967.85
607.956	962.04
608.156	952.54
608.356	867.29
608.556	986.84
608.756	920.57
608.956	880.27
609.156	919.61
609.356	865.16
609.556	896.36
609.755	891.9
609.955	868.46
610.155	887.64
610.355	922.51
610.555	903.91
610.755	915.34
610.954	822.34
611.154	924.64
611.354	948.86
611.554	851.21
611.753	862.45
611.953	814.01
612.153	912.63
612.352	892.67
612.552	803.16
612.752	801.03
612.951	857.41
613.151	887.83
613.351	856.44
613.55	863.81
613.75	893.45
613.949	838.62
614.149	845.98
614.348	850.63
614.548	834.74
614.747	767.13
614.947	817.31
615.146	747.56
615.346	870.39
615.545	832.81
615.745	830.87
615.944	849.86
616.144	838.23
616.343	882.6
616.542	822.73
616.742	817.89
616.941	801.61
617.14	786.89
617.34	793.48
617.539	806.46
617.738	783.4
617.938	855.67
618.137	831.64
618.336	774.88
618.535	832.61
618.734	799.87
618.934	826.41
619.133	804.13
619.332	819.44
619.531	800.84
619.73	789.41
619.929	824.09
620.128	815.18
620.328	873.3
620.527	771.39
620.726	795.61
620.925	823.7
621.124	813.43
621.323	821.38
621.522	778.94
621.721	783.4
621.92	752.98
622.119	820.6
622.318	830.09
622.517	796.96
622.715	781.85
622.914	752.21
623.113	808.59
623.312	732.64
623.511	821.57
623.71	784.76
623.909	779.14
624.107	826.8
624.306	746.98
624.505	740.39
624.704	773.13
624.902	776.81
625.101	792.51
625.3	770.61
625.499	723.15
625.697	752.59
625.896	727.8
626.095	757.24
626.293	699.51
626.492	739.03
626.69	757.24
626.889	752.21
627.088	797.74
627.286	722.56
627.485	731.86
627.683	709.39
627.882	761.31
628.08	657.27
628.279	685.36
628.477	757.63
628.676	708.81
628.874	741.55
629.073	703
629.271	693.89
629.469	741.36
629.668	671.61
629.866	719.27
630.065	687.3
630.263	700.67
630.461	701.25
630.66	741.55
630.858	741.94
631.056	751.63
631.254	768.29
631.453	690.98
631.651	766.93
631.849	724.7
632.047	763.64
632.245	729.54
632.444	740.58
632.642	743.49
632.84	750.27
633.038	715.2
633.236	681.88
633.434	704.35
633.632	711.52
633.83	704.93
634.028	727.21
634.227	727.02
634.425	793.67
634.623	719.85
634.821	726.25
635.019	758.99
635.216	695.25
635.414	740.39
635.612	733.41
635.81	685.17
636.008	771.97
636.206	696.8
636.404	736.71
636.602	694.08
636.8	724.11
636.997	748.53
637.195	758.41
637.393	717.72
637.591	765.58
637.789	750.27
637.986	720.82
638.184	730.51
638.382	787.28
638.58	755.5
638.777	814.79
638.975	715.59
639.173	728.38
639.37	746.01
639.568	738.65
639.765	785.53
639.963	724.89
640.161	760.15
640.358	769.26
640.556	691.37
640.753	670.64
640.951	680.33
641.148	741.75
641.346	692.92
641.543	704.35
641.741	737.48
641.938	696.99
642.136	689.24
642.333	689.24
642.531	769.26
642.728	739.03
642.925	721.21
643.123	696.8
643.32	702.03
643.517	672.19
643.715	717.72
643.912	716.17
644.109	702.61
644.306	692.92
644.504	645.65
644.701	716.36
644.898	705.32
645.095	690.79
645.293	696.8
645.49	722.18
645.687	673.16
645.884	702.03
646.081	600.89
646.278	680.52
646.475	676.45
646.672	650.68
646.87	675.48
647.067	699.12
647.264	669.67
647.461	614.07
647.658	637.9
647.855	667.73
648.052	655.14
648.249	585.2
648.446	616.97
648.642	600.12
648.839	611.74
649.036	607.28
649.233	580.74
649.43	576.28
649.627	583.65
649.824	585.97
650.021	568.54
650.217	567.37
650.414	586.55
650.611	646.62
650.808	641.97
651.004	665.02
651.201	652.04
651.398	648.75
651.595	610.58
651.791	596.05
651.988	659.4
652.185	589.65
652.381	638.09
652.578	573.38
652.775	634.22
652.971	585
653.168	599.15
653.364	618.33
653.561	571.44
653.757	618.52
653.954	615.23
654.15	585.2
654.347	648.94
654.543	607.48
654.74	536.76
654.936	559.24
655.133	582.87
655.329	577.06
655.525	573.38
655.722	621.23
655.918	594.11
656.115	610.38
656.311	514.67
656.507	492.39
656.704	472.05
656.9	510.6
657.096	500.14
657.292	485.42
657.489	525.52
657.685	554.39
657.881	536.57
658.077	545.09
658.273	558.27
658.47	591.4
658.666	559.62
658.862	605.15
659.058	542.38
659.254	592.95
659.45	551.49
659.646	574.54
659.842	551.1
660.038	603.6
660.234	551.68
660.43	577.83
660.626	615.62
660.822	570.47
661.018	621.43
661.214	566.99
661.41	552.84
661.606	610
661.802	601.47
661.998	573.38
662.194	548.97
662.39	605.73
662.586	610.97
662.781	608.06
662.977	601.08
663.173	600.5
663.369	528.62
663.564	573.77
663.76	594.11
663.956	590.82
664.152	604.77
664.347	522.42
664.543	573.77
664.739	555.17
664.934	498.59
665.13	505.37
665.326	594.11
665.521	581.32
665.717	517.77
665.912	535.6
666.108	505.18
666.304	519.13
666.499	545.67
666.695	458.68
666.89	534.24
667.086	596.05
667.281	563.3
667.477	619.49
667.672	552.07
667.867	539.47
668.063	565.05
668.258	515.84
668.454	562.53
668.649	626.85
668.844	509.44
669.04	550.13
669.235	521.26
669.43	510.41
669.626	513.9
669.821	535.21
670.016	510.6
670.211	545.87
670.407	490.26
670.602	535.6
670.797	524.55
670.992	573.77
671.187	510.6
671.382	557.88
671.578	503.63
671.773	550.9
671.968	486.39
672.163	534.82
672.358	525.52
672.553	501.11
672.748	501.89
672.943	589.85
673.138	509.64
673.333	536.57
673.528	485.61
673.723	542.57
673.918	504.99
674.113	481.54
674.308	559.24
674.503	550.71
674.698	549.35
674.892	512.74
675.087	554.78
675.282	535.99
675.477	474.76
675.672	533.08
675.867	492.78
676.061	484.64
676.256	472.44
676.451	468.95
676.646	512.35
676.84	462.56
677.035	464.49
677.23	469.14
677.424	523.39
677.619	535.6
677.814	545.48
678.008	529.59
678.203	455.77
678.397	480.96
678.592	497.43
678.787	559.04
678.981	511.38
679.176	530.75
679.37	491.81
679.565	446.86
679.759	491.62
679.954	520.29
680.148	531.72
680.342	546.45
680.537	517.77
680.731	476.31
680.926	535.21
681.12	526.3
681.314	439.11
681.509	515.06
681.703	538.12
681.897	500.72
682.092	528.43
682.286	464.49
682.48	553.62
682.674	545.29
682.869	516.42
683.063	484.06
683.257	539.86
683.451	479.61
683.645	518.55
683.839	497.24
684.034	500.14
684.228	520.87
684.422	472.24
684.616	461.59
684.81	499.17
685.004	492.39
685.198	523.39
685.392	539.67
685.586	509.44
685.78	517.58
685.974	542.96
686.168	540.44
686.362	558.07
686.556	462.17
686.75	436.79
686.944	433.3
687.138	492.39
687.331	370.91
687.525	397.07
687.719	348.24
687.913	398.62
688.107	404.82
688.301	353.28
688.494	442.79
688.688	384.48
688.882	357.35
689.076	368.78
689.269	420.71
689.463	498.4
689.657	410.82
689.85	399.39
690.044	434.66
690.238	428.26
690.431	436.98
690.625	418.96
690.818	472.05
691.012	462.75
691.205	485.42
691.399	436.59
691.593	505.18
691.786	537.54
691.98	490.84
692.173	537.92
692.366	488.9
692.56	543.93
692.753	567.57
692.947	479.41
693.14	560.01
693.333	548.19
693.527	482.9
693.72	550.52
693.914	526.3
694.107	505.57
694.3	540.25
694.493	549.74
694.687	577.25
694.88	527.85
695.073	625.3
695.266	588.68
695.46	555.75
695.653	606.51
695.846	600.31
696.039	536.37
696.232	576.87
696.425	609.22
696.618	637.12
696.812	612.52
697.005	666.96
697.198	719.27
697.391	685.95
697.584	647.78
697.777	723.34
697.97	690.98
698.163	683.23
698.356	661.15
698.549	744.07
698.742	746.4
698.935	676.84
699.127	705.51
699.32	681.88
699.513	690.21
699.706	727.99
699.899	716.56
700.092	724.5
700.285	755.89
700.477	672
700.67	745.04
700.863	762.09
701.056	826.03
701.248	787.28
701.441	811.69
701.634	767.32
701.826	893.64
702.019	792.51
702.212	861.67
702.404	775.46
702.597	769.26
702.79	822.93
702.982	813.24
703.175	871.17
703.367	867.68
703.56	877.76
703.752	928.52
703.945	901.97
704.137	906.43
704.33	903.33
704.522	954.67
704.715	951.96
704.907	917.09
705.1	969.4
705.292	993.23
705.484	984.12
705.677	1013.18
705.869	1005.24
706.061	1033.92
706.254	1072.28
706.446	1015.32
706.638	1011.25
706.831	1064.72
707.023	1012.8
707.215	1138.54
707.407	1114.71
707.599	1109.86
707.792	1141.25
707.984	1139.12
708.176	1153.26
708.368	1112.77
708.56	1172.06
708.752	1142.61
708.944	1127.69
709.136	1169.54
709.329	1144.93
709.521	1282.3
709.713	1238.71
709.905	1239.48
710.097	1241.42
710.289	1171.86
710.481	1203.25
710.672	1257.31
710.864	1248.59
711.056	1307.1
711.248	1287.72
711.44	1309.81
711.632	1268.54
711.824	1274.94
712.016	1371.23
712.207	1331.71
712.399	1387.12
712.591	1421.02
712.783	1374.33
712.975	1354.76
713.166	1357.47
713.358	1353.6
713.55	1427.03
713.741	1435.55
713.933	1457.45
714.125	1416.95
714.316	1403.2
714.508	1496.97
714.7	1480.31
714.891	1478.95
715.083	1535.14
715.274	1450.67
715.466	1484.57
715.657	1490.19
715.849	1440.4
716.04	1465.78
716.232	1407.07
716.423	1499.1
716.615	1421.41
716.806	1413.27
716.998	1378.59
717.189	1333.45
717.381	1243.74
717.572	1230.76
717.763	1290.44
717.955	1276.1
718.146	1247.62
718.337	1196.47
718.528	1192.4
718.72	1097.66
718.911	1209.45
719.102	1154.81
719.293	1185.04
719.485	1136.99
719.676	1130.79
719.867	1137.18
720.058	1124.98
720.249	1135.44
720.44	1187.75
720.632	1182.33
720.823	1261.76
721.014	1320.86
721.205	1349.53
721.396	1392.15
721.587	1439.24
721.778	1477.98
721.969	1528.17
722.16	1543.08
722.351	1530.68
722.542	1681.81
722.733	1665.73
722.924	1546.38
723.115	1605.86
723.305	1592.49
723.496	1646.54
723.687	1520.03
723.878	1557.23
724.069	1539.98
724.26	1539.4
724.45	1500.27
724.641	1472.95
724.832	1523.52
725.023	1508.4
725.213	1500.85
725.404	1478.37
725.595	1489.22
725.785	1446.21
725.976	1573.7
726.167	1566.91
726.357	1530.49
726.548	1645.58
726.739	1543.86
726.929	1583.38
727.12	1636.86
727.31	1657.2
727.501	1576.6
727.691	1617.48
727.882	1608.96
728.072	1618.06
728.263	1645.96
728.453	1676.58
728.644	1637.05
728.834	1621.55
729.024	1636.28
729.215	1645.96
729.405	1702.54
729.596	1736.44
729.786	1762.79
729.976	1740.12
730.167	1778.1
730.357	1729.47
730.547	1716.68
730.737	1760.08
730.928	1826.73
731.118	1830.6
731.308	1756.21
731.498	1801.15
731.688	1914.3
731.879	1848.24
732.069	1920.5
732.259	1905.58
732.449	1960.8
732.639	2013.89
732.829	2028.03
733.019	2047.8
733.209	2119.87
733.399	2088.09
733.589	2156.29
733.779	2147.96
733.969	2159.59
734.159	2197.76
734.349	2261.89
734.539	2272.15
734.729	2270.02
734.919	2338.22
735.109	2327.95
735.299	2275.64
735.488	2293.47
735.678	2322.92
735.868	2314.39
736.058	2271.19
736.248	2295.4
736.437	2218.49
736.627	2240.19
736.817	2355.85
737.007	2322.92
737.196	2355.27
737.386	2356.82
737.576	2319.04
737.765	2416.69
737.955	2346.75
738.144	2452.53
738.334	2367.48
738.524	2340.35
738.713	2380.46
738.903	2388.98
739.092	2443.81
739.282	2434.51
739.471	2450.21
739.661	2395.18
739.85	2448.08
740.04	2431.41
740.229	2451.37
740.419	2498.45
740.608	2496.32
740.797	2513.95
740.987	2516.28
741.176	2521.12
741.365	2486.44
741.555	2440.52
741.744	2561.23
741.933	2497.87
742.123	2552.31
742.312	2515.69
742.501	2529.45
742.69	2582.73
742.88	2527.13
743.069	2628.84
743.258	2545.34
743.447	2617.99
743.636	2636.01
743.825	2552.12
744.014	2576.34
744.204	2600.56
744.393	2568.98
744.582	2604.24
744.771	2616.83
744.96	2602.88
745.149	2608.5
745.338	2568.98
745.527	2594.16
745.716	2550.57
745.905	2612.96
746.094	2633.88
746.283	2638.53
746.471	2621.48
746.66	2698.98
746.849	2627.68
747.038	2673.4
747.227	2647.83
747.416	2702.08
747.604	2598.23
747.793	2616.44
747.982	2635.04
748.171	2636.21
748.359	2652.09
748.548	2678.05
748.737	2627.1
748.926	2625.94
749.114	2572.27
749.303	2632.14
749.491	2681.93
749.68	2585.83
749.869	2675.34
750.057	2586.22
750.246	2609.08
750.434	2618.19
750.623	2611.6
750.811	2577.5
751	2639.5
751.188	2587.96
751.377	2611.6
751.565	2616.64
751.754	2590.67
751.942	2607.72
752.131	2626.71
752.319	2538.75
752.507	2543.79
752.696	2584.48
752.884	2656.74
753.072	2568.78
753.261	2629.81
753.449	2572.85
753.637	2537.01
753.825	2657.32
754.014	2559.87
754.202	2625.16
754.39	2623.61
754.578	2592.81
754.766	2542.82
754.955	2530.81
755.143	2653.45
755.331	2528.68
755.519	2561.23
755.707	2581.38
755.895	2557.35
756.083	2572.46
756.271	2508.14
756.459	2542.24
756.647	2557.74
756.835	2550.38
757.023	2543.21
757.211	2547.08
757.399	2488.76
757.587	2539.33
757.775	2468.23
757.963	2482.18
758.151	2524.99
758.339	2421.92
758.526	2443.81
758.714	2503.49
758.902	2376.58
759.09	2304.12
759.278	2175.86
759.465	1998.78
759.653	1711.64
759.841	1544.44
760.028	1333.26
760.216	1184.85
760.404	1118.97
760.591	889.19
760.779	762.86
760.967	649.33
761.154	534.82
761.342	590.23
761.529	590.82
761.717	626.47
761.905	629.37
762.092	668.7
762.28	644.68
762.467	659.6
762.655	590.43
762.842	600.31
763.029	619.88
763.217	638.28
763.404	646.81
763.592	660.95
763.779	583.07
763.966	675.48
764.154	660.76
764.341	747.95
764.528	750.08
764.716	761.31
764.903	831.84
765.09	844.24
765.277	911.86
765.465	1056.39
765.652	1086.81
765.839	1124.59
766.026	1233.28
766.213	1280.56
766.4	1342.56
766.588	1485.93
766.775	1438.27
766.962	1555.1
767.149	1619.81
767.336	1735.67
767.523	1695.56
767.71	1785.07
767.897	1904.62
768.084	1921.08
768.271	1929.8
768.458	1958.09
768.645	2047.99
768.832	1999.55
769.019	2047.21
769.206	2055.93
769.392	2122
769.579	2206.09
769.766	2119.87
769.953	2121.81
770.14	2198.72
770.327	2212.09
770.513	2202.99
770.7	2294.24
770.887	2200.08
771.073	2284.36
771.26	2249.49
771.447	2200.66
771.634	2203.37
771.82	2325.05
772.007	2198.53
772.193	2245.03
772.38	2283.59
772.567	2241.15
772.753	2258.79
772.94	2293.08
773.126	2266.73
773.313	2265.37
773.499	2307.8
773.686	2301.99
773.872	2266.34
774.059	2248.32
774.245	2230.69
774.432	2238.83
774.618	2149.51
774.804	2220.04
774.991	2180.71
775.177	2215.58
775.363	2201.05
775.55	2238.64
775.736	2181.87
775.922	2178.77
776.109	2208.02
776.295	2253.75
776.481	2204.73
776.667	2266.73
776.853	2190.2
777.04	2197.17
777.226	2191.56
777.412	2241.15
777.598	2161.72
777.784	2171.41
777.97	2133.24
778.156	2173.92
778.342	2167.53
778.528	2152.81
778.715	2128.39
778.901	2135.56
779.087	2163.66
779.272	2139.83
779.458	2108.63
779.644	2137.5
779.83	2114.06
780.016	2241.74
780.202	2122.97
780.388	2116.58
780.574	2072.59
780.76	2047.99
780.946	2141.96
781.131	2123.94
781.317	2115.99
781.503	2056.51
781.689	2078.21
781.874	2215.97
782.06	2102.24
782.246	2097.98
782.432	2097.01
782.617	2111.15
782.803	2107.66
782.989	2012.34
783.174	2034.23
783.36	2016.21
783.545	2009.24
783.731	2018.54
783.916	1949.18
784.102	2060.39
784.288	1991.03
784.473	2019.7
784.659	2010.79
784.844	2065.43
785.029	1972.43
785.215	1994.9
785.4	1954.6
785.586	2030.55
785.771	1962.16
785.956	2026.48
786.142	1979.6
786.327	1931.16
786.512	1942.4
786.698	1925.73
786.883	1906.75
787.068	1925.93
787.254	1963.13
787.439	1916.05
787.624	1880.4
787.809	1905.78
787.994	1888.15
788.18	1979.6
788.365	1863.74
788.55	1881.95
788.735	1914.5
788.92	1860.64
789.105	1903.26
789.29	1917.98
789.475	1809.1
789.66	1822.27
789.845	1809.68
790.03	1805.03
790.215	1901.9
790.4	1855.99
790.585	1892.41
790.77	1828.47
790.955	1790.11
791.14	1800.77
791.325	1918.95
791.51	1727.72
791.695	1851.14
791.879	1826.54
792.064	1747.49
792.249	1855.21
792.434	1805.8
792.618	1757.95
792.803	1812.97
792.988	1792.44
793.173	1806.77
793.357	1820.34
793.542	1746.32
793.727	1797.86
793.911	1828.28
794.096	1807.74
794.281	1848.82
794.465	1895.7
794.65	1829.05
794.834	1822.08
795.019	1874.59
795.203	1850.75
795.388	1882.14
795.572	1895.9
795.757	1872.65
795.941	1867.42
796.126	1820.72
796.31	1823.63
796.494	1835.25
796.679	1827.7
796.863	1799.8
797.048	1879.82
797.232	1850.56
797.416	1826.92
797.601	1821.89
797.785	1916.43
797.969	1896.87
798.153	1818.59
798.338	1841.07
798.522	1871.87
798.706	1864.51
798.89	1873.42
799.074	1945.3
799.258	1915.66
799.443	1871.87
799.627	1855.21
799.811	1934.45
799.995	1861.41
800.179	1846.69
800.363	1828.28
800.547	1906.36
800.731	1873.04
800.915	1792.63
801.099	1814.91
801.283	1863.35
801.467	1881.17
801.651	1844.55
801.835	1916.43
802.019	1871.68
802.202	1896.09
802.386	1813.17
802.57	1790.31
802.754	1840.29
802.938	1798.06
803.121	1794.57
803.305	1921.47
803.489	1854.05
803.673	1879.43
803.856	1882.53
804.04	1883.5
804.224	1833.51
804.407	1823.82
804.591	1814.91
804.775	1818.79
804.958	1831.57
805.142	1939.3
805.326	1838.16
805.509	1868.97
805.693	1933.68
805.876	1882.72
806.06	1846.1
806.243	1869.55
806.427	1884.85
806.61	1913.72
806.794	1885.82
806.977	1918.37
807.16	1901.32
807.344	1922.05
807.527	1903.45
807.71	1849.79
807.894	1871.68
808.077	1902.87
808.26	1827.89
808.444	1855.02
808.627	1909.85
808.81	1825.37
808.993	1802.9
809.177	1763.37
809.36	1784.69
809.543	1828.28
809.726	1757.37
809.909	1740.12
810.092	1761.05
810.276	1762.41
810.459	1768.22
810.642	1760.47
810.825	1726.17
811.008	1715.52
811.191	1651.78
811.374	1660.88
811.557	1696.14
811.74	1758.34
811.923	1623.49
812.106	1605.86
812.289	1604.7
812.472	1622.33
812.654	1664.56
812.837	1610.12
813.02	1536.88
813.203	1545.99
813.386	1438.27
813.569	1443.89
813.751	1431.49
813.934	1453.38
814.117	1450.86
814.3	1372.78
814.482	1410.17
814.665	1346.62
814.848	1336.16
815.03	1273.19
815.213	1310.59
815.396	1267.96
815.578	1259.63
815.761	1246.84
815.943	1279.59
816.126	1211.97
816.309	1206.74
816.491	1160.05
816.674	1100.18
816.856	1156.56
817.039	1121.88
817.221	1213.13
817.403	1166.44
817.586	1135.25
817.768	1204.8
817.951	1132.92
818.133	1078.28
818.315	1123.04
818.498	1171.86
818.68	1240.26
818.862	1207.51
819.045	1225.34
819.227	1210.03
819.409	1163.92
819.591	1208.48
819.774	1207.51
819.956	1146.1
820.138	1242.58
820.32	1216.04
820.502	1228.44
820.684	1283.85
820.866	1288.89
821.048	1362.51
821.231	1314.07
821.413	1313.69
821.595	1312.52
821.777	1344.69
821.959	1288.5
822.141	1413.47
822.323	1279.78
822.505	1224.18
822.686	1191.82
822.868	1123.62
823.05	1048.45
823.232	1040.31
823.414	974.63
823.596	1049.8
823.778	1043.22
823.96	1070.92
824.141	1028.68
824.323	1080.22
824.505	1150.55
824.687	1188.53
824.868	1215.46
825.05	1308.07
825.232	1288.69
825.413	1368.13
825.595	1308.84
825.777	1207.32
825.958	1280.94
826.14	1273
826.321	1299.35
826.503	1265.83
826.685	1304.97
826.866	1295.67
827.048	1342.36
827.229	1245.29
827.411	1263.7
827.592	1211.39
827.773	1217.98
827.955	1172.25
828.136	1195.11
828.318	1155.2
828.499	1181.94
828.68	1129.24
828.862	1167.41
829.043	1203.25
829.224	1148.61
829.406	1124.4
829.587	1132.15
829.768	1106.57
829.949	1141.45
830.131	1180
830.312	1238.13
830.493	1149.58
830.674	1183.49
830.855	1164.89
831.036	1145.9
831.218	1215.84
831.399	1207.13
831.58	1155.4
831.761	1146.68
831.942	1177.1
832.123	1139.51
832.304	1114.32
832.485	1141.06
832.666	1146.48
832.847	1160.24
833.028	1169.35
833.209	1168.96
833.389	1144.93
833.57	1111.03
833.751	1132.73
833.932	1191.43
834.113	1147.06
834.294	1143.19
834.475	1188.72
834.655	1201.89
834.836	1194.14
835.017	1193.95
835.198	1117.61
835.378	1186.4
835.559	1220.3
835.74	1173.41
835.92	1173.03
836.101	1129.82
836.281	1191.63
836.462	1179.03
836.643	1216.62
836.823	1224.56
837.004	1189.11
837.184	1286.37
837.365	1227.66
837.545	1258.66
837.726	1219.53
837.906	1267.38
838.087	1206.16
838.267	1195.69
838.448	1150.36
838.628	1202.09
838.808	1195.11
838.989	1271.06
839.169	1155.2
839.349	1223.59
839.53	1229.41
839.71	1248.78
839.89	1185.04
840.07	1291.21
840.251	1167.8
840.431	1249.36
840.611	1205.77
840.791	1145.32
840.971	1195.31
841.151	1207.71
841.332	1186.78
841.512	1236.19
841.692	1131.95
841.872	1204.41
842.052	1190.85
842.232	1204.03
842.412	1146.48
842.592	1191.24
842.772	1195.5
842.952	1196.28
843.132	1187.17
843.312	1156.75
843.492	1133.11
843.672	1210.23
843.851	1127.3
844.031	1152.1
844.211	1214.68
844.391	1145.32
844.571	1169.54
844.751	1214.68
844.93	1190.08
845.11	1140.28
845.29	1179.81
845.47	1159.08
845.649	1181.94
845.829	1192.4
846.009	1148.03
846.188	1160.82
846.368	1161.4
846.547	1168.96
846.727	1191.04
846.907	1132.73
847.086	1163.73
847.266	1186.78
847.445	1145.32
847.625	1155.2
847.804	1115.1
847.984	1161.98
848.163	1138.15
848.343	1124.2
848.522	1112.38
848.701	1175.55
848.881	1103.28
849.06	1132.73
849.239	1135.63
849.419	1159.66
849.598	1096.69
849.777	1094.75
849.957	1083.13
850.136	1011.83
850.315	1047.28
850.494	1035.27
850.674	1020.55
850.853	1117.42
851.032	1045.15
851.211	1097.27
851.39	1102.11
851.569	1014.35
851.748	1043.41
851.927	1072.86
852.107	1060.85
852.286	1049.42
852.465	997.69
852.644	1095.92
852.823	1079.83
853.002	1049.42
853.181	1034.5
853.359	1097.85
853.538	988.77
853.717	1081.19
853.896	969.2
854.075	950.41
854.254	921.16
854.433	891.71
854.611	930.45
854.79	900.04
854.969	933.94
855.148	977.92
855.327	873.11
855.505	966.88
855.684	935.69
855.863	954.87
856.041	913.6
856.22	975.02
856.399	927.94
856.577	1028.49
856.756	971.92
856.934	1123.81
857.113	1109.09
857.291	1005.24
857.47	965.72
857.648	1040.89
857.827	1032.17
858.005	1036.82
858.184	982.57
858.362	1064.72
858.541	989.74
858.719	1046.7
858.898	1005.05
859.076	1007.57
859.254	1069.18
859.433	996.52
859.611	986.06
859.789	970.95
859.967	1038.95
860.146	1049.42
860.324	953.7
860.502	980.83
860.68	943.82
860.859	921.93
861.037	979.09
861.215	983.74
861.393	972.5
861.571	984.9
861.749	953.7
861.927	976.57
862.105	953.32
862.283	956.22
862.461	924.64
862.639	910.31
862.817	943.82
862.995	924.06
863.173	928.32
863.351	956.22
863.529	937.04
863.707	987.03
863.885	940.92
864.063	878.53
864.241	893.26
864.418	1005.82
864.596	909.14
864.774	870.97
864.952	945.18
865.129	935.3
865.307	896.36
865.485	851.99
865.663	921.16
865.84	863.42
866.018	885.12
866.196	750.27
866.373	821.76
866.551	776.04
866.728	750.85
866.906	777.39
867.084	794.06
867.261	842.69
867.439	836.29
867.616	867.68
867.794	852.18
867.971	870.59
868.149	856.64
868.326	879.69
868.503	893.84
868.681	869.23
868.858	843.27
869.035	815.37
869.213	886.67
869.39	872.72
869.567	950.22
869.745	840.75
869.922	848.69
870.099	890.74
870.276	910.31
870.454	906.43
870.631	894.42
870.808	870.01
870.985	899.46
871.162	918.64
871.339	889.96
871.517	804.71
871.694	795.22
871.871	835.13
872.048	833.19
872.225	839.59
872.402	862.45
872.579	771.19
872.756	897.71
872.933	781.66
873.11	821.76
873.287	844.62
873.463	831.45
873.64	777.39
873.817	839.2
873.994	805.68
874.171	837.07
874.348	831.45
874.524	771.97
874.701	811.69
874.878	751.24
875.055	792.89
875.231	827.77
875.408	792.89
875.585	747.95
875.762	820.41
875.938	794.06
876.115	796.38
876.291	782.43
876.468	771
876.645	720.63
876.821	782.04
876.998	777.01
877.174	779.91
877.351	774.29
877.527	738.65
877.704	770.61
877.88	785.53
878.057	750.08
878.233	790.38
878.409	758.21
878.586	805.68
878.762	777.2
878.938	753.95
879.115	660.76
879.291	737.87
879.467	684.59
879.644	731.86
879.82	784.56
879.996	698.93
880.172	673.74
880.349	725.47
880.525	728.18
880.701	711.33
880.877	709.2
881.053	740.78
881.229	732.25
881.405	770.23
881.581	693.89
881.757	707.45
881.933	746.01
882.109	747.75
882.285	719.27
882.461	665.8
882.637	713.26
882.813	679.16
882.989	741.94
883.165	790.18
883.341	699.31
883.517	756.08
883.693	730.51
883.869	745.81
884.044	686.53
884.22	733.61
884.396	753.76
884.572	723.73
884.747	779.53
884.923	762.28
885.099	748.14
885.275	792.89
885.45	712.88
885.626	682.26
885.801	720.05
885.977	691.18
886.153	678.97
886.328	712.88
886.504	696.6
886.679	743.68
886.855	695.63
887.03	720.43
887.206	757.05
887.381	740.2
887.557	728.76
887.732	725.28
887.908	750.27
888.083	755.5
888.258	710.36
888.434	706.29
888.609	689.82
888.784	770.23
888.96	704.35
889.135	715.01
889.31	652.23
889.485	734.19
889.661	735.35
889.836	766.35
890.011	761.89
890.186	723.92
890.361	706.68
890.537	719.46
890.712	748.72
890.887	703.38
891.062	702.61
891.237	759.76
891.412	695.63
891.587	726.05
891.762	731.86
891.937	757.05
892.112	691.76
892.287	692.53
892.462	665.02
892.637	653.01
892.812	630.73
892.987	659.4
893.161	602.63
893.336	634.22
893.511	657.27
893.686	690.21
893.861	661.53
894.035	636.73
894.21	664.83
894.385	623.95
894.56	639.25
894.734	582.1
894.909	601.47
895.084	592.17
895.258	585.39
895.433	604.18
895.608	598.18
895.782	556.52
895.957	567.76
896.131	577.06
896.306	507.31
896.48	512.15
896.655	534.05
896.829	467.01
897.004	445.51
897.178	488.13
897.353	480.96
897.527	514.87
897.701	500.34
897.876	437.37
898.05	511.57
898.224	511.77
898.399	512.35
898.573	471.27
898.747	395.52
898.921	479.41
899.096	396.1
899.27	417.61
899.444	389.13
899.618	405.4
899.792	421.87
899.967	417.8
900.141	459.84
900.315	388.35
900.489	395.91
900.663	409.86
900.837	462.56
901.011	378.28
901.185	499.37
901.359	427.29
901.533	447.25
901.707	432.91
901.881	419.74
902.055	379.05
902.229	406.17
902.403	487.74
902.576	407.14
902.75	443.57
902.924	562.53
903.098	461.78
903.272	523
903.446	555.94
903.619	483.48
903.793	531.92
903.967	501.5
904.14	568.15
904.314	523.2
904.488	518.35
904.661	581.32
904.835	520.49
905.009	572.6
905.182	595.08
905.356	554.78
905.529	566.6
905.703	487.94
905.876	503.63
906.05	497.82
906.223	477.47
906.397	419.35
906.57	407.72
906.744	411.79
906.917	426.91
907.09	419.93
907.264	417.99
907.437	388.93
907.61	371.11
907.784	387.19
907.957	423.61
908.13	373.63
908.304	408.5
908.477	368.39
908.65	402.11
908.823	365.29
908.996	422.84
909.17	389.51
909.343	356.58
909.516	375.56
909.689	373.82
909.862	346.89
910.035	382.34
910.208	308.14
910.381	324.8
910.554	441.44
910.727	348.05
910.9	374.01
911.073	341.27
911.246	421.87
911.419	431.17
911.592	411.6
911.765	343.01
911.938	334.88
912.11	373.43
912.283	378.28
912.456	381.38
912.629	364.71
912.802	332.16
912.974	313.56
913.147	303.88
913.32	259.12
913.493	262.8
913.665	314.92
913.838	355.41
914.01	309.3
914.183	326.93
914.356	293.03
914.528	334.68
914.701	414.89
914.873	361.23
915.046	308.91
915.218	287.21
915.391	234.9
915.563	280.63
915.736	319.76
915.908	331.39
916.081	322.28
916.253	315.69
916.425	307.75
916.598	310.66
916.77	312.21
916.942	309.11
917.115	237.61
917.287	308.72
917.459	298.06
917.632	265.51
917.804	225.02
917.976	296.32
918.148	289.73
918.32	295.74
918.493	344.37
918.665	350.96
918.837	315.11
919.009	372.46
919.181	374.59
919.353	340.49
919.525	345.14
919.697	317.24
919.869	332.16
920.041	372.85
920.213	420.32
920.385	346.31
920.557	339.72
920.729	388.35
920.901	342.24
921.073	330.42
921.244	348.83
921.416	354.83
921.588	340.11
921.76	321.7
921.932	387.58
922.103	340.3
922.275	343.21
922.447	334.29
922.619	280.43
922.79	322.48
922.962	311.82
923.134	329.84
923.305	265.13
923.477	248.27
923.648	269
923.82	308.14
923.991	243.62
924.163	234.9
924.335	281.79
924.506	249.24
924.677	322.48
924.849	251.37
925.02	284.31
925.192	308.91
925.363	271.91
925.535	309.11
925.706	262.41
925.877	314.34
926.049	277.14
926.22	279.08
926.391	288.76
926.562	320.15
926.734	249.82
926.905	319.38
927.076	211.46
927.247	268.81
927.419	209.13
927.59	207.58
927.761	239.75
927.932	257.18
928.103	245.17
928.274	205.07
928.445	187.82
928.616	206.23
928.787	205.84
928.958	224.63
929.129	227.73
929.3	195.57
929.471	171.93
929.642	138.8
929.813	94.24
929.984	191.31
930.155	104.51
930.326	157.21
930.496	116.72
930.667	56.07
930.838	128.73
931.009	91.72
931.18	113.62
931.35	94.05
931.521	133.96
931.692	77.77
931.863	43.67
932.033	92.69
932.204	102.96
932.374	83.39
932.545	69.64
932.716	110.71
932.886	123.3
933.057	16.74
933.227	16.94
933.398	121.75
933.568	39.22
933.739	-0.11
933.909	13.64
934.08	110.52
934.25	-8.06
934.421	14.61
934.591	51.62
934.761	12.87
934.932	-16.97
935.102	34.57
935.272	4.15
935.443	37.28
935.613	14.61
935.783	61.3
935.953	-3.6
936.123	156.63
936.294	19.07
936.464	39.02
936.634	19.65
936.804	-2.63
936.974	-41.96
937.144	56.85
937.314	31.27
937.484	3.76
937.655	-12.13
937.825	47.94
937.995	4.34
938.165	53.17
938.334	4.15
938.504	27.4
938.674	-5.73
938.844	40.19
939.014	81.07
939.184	67.31
939.354	93.85
939.524	81.45
939.694	57.04
939.863	47.74
940.033	114.2
940.203	115.75
940.373	74.48
940.542	106.06
940.712	55.3
940.882	85.14
941.051	105.87
941.221	97.15
941.391	100.64
941.56	44.45
941.73	43.87
941.899	160.12
942.069	27.4
942.238	93.08
942.408	44.84
942.577	97.15
942.747	43.87
942.916	7.83
943.086	34.57
943.255	102.57
943.425	66.34
943.594	19.65
943.763	-6.51
943.933	4.73
944.102	-22.59
944.271	23.91
944.441	39.02
944.61	26.43
944.779	67.5
944.948	118.85
945.117	10.35
945.287	28.76
945.456	-11.93
945.625	22.94
945.794	58.01
945.963	31.66
946.132	54.72
946.301	33.6
946.47	61.89
946.639	-14.26
946.808	58.59
946.977	74.48
947.146	100.25
947.315	34.96
947.484	79.13
947.653	40.57
947.822	25.46
947.991	5.12
948.16	126.02
948.329	101.22
948.498	49.68
948.666	61.11
948.835	77.19
949.004	16.16
949.173	14.42
949.341	38.44
949.51	73.7
949.679	79.13
949.847	75.45
950.016	103.35
950.185	107.22
950.353	16.16
950.522	28.37
950.69	87.27
950.859	2.41
951.028	89.01
951.196	71.57
951.365	40.19
951.533	48.13
951.701	66.92
951.87	48.13
952.038	11.71
952.207	55.69
952.375	95.02
952.543	19.65
952.712	41.54
952.88	61.69
953.048	83.97
953.217	43.09
953.385	51.42
953.553	110.52
953.721	-10.77
953.89	48.13
954.058	4.54
954.226	14.81
954.394	55.49
954.562	-3.79
954.73	36.89
954.898	32.63
955.067	60.14
955.235	36.89
955.403	67.31
955.571	120.2
955.739	68.09
955.907	17.32
956.075	16.16
956.243	38.44
956.41	62.47
956.578	-0.5
956.746	-2.05
956.914	21.97
957.082	40.77
957.25	52
957.418	35.92
957.585	31.47
957.753	85.72
957.921	35.92
958.089	51.42
958.256	72.15
958.424	63.82
958.592	56.46
958.759	16.94
958.927	77.77
959.095	-9.99
959.262	37.86
959.43	44.64
959.597	11.12
959.765	62.85
959.932	3.96
960.1	64.4
960.267	60.72
960.435	49.68
960.602	81.45
960.77	43.09
960.937	-4.18
961.104	50.65
961.272	9.19
961.439	28.56
961.606	69.64
961.774	81.45
961.941	25.85
962.108	57.62
962.275	44.06
962.443	85.33
962.61	71.57
962.777	110.52
962.944	111.49
963.111	82.23
963.278	79.13
963.446	63.63
963.613	30.5
963.78	72.93
963.947	85.33
964.114	47.16
964.281	121.17
964.448	47.36
964.615	29.72
964.782	69.83
964.949	97.73
965.116	88.04
965.282	97.54
965.449	50.07
965.616	25.07
965.783	85.14
965.95	54.33
966.117	9.38
966.283	63.05
966.45	84.17
966.617	45.42
966.784	92.3
966.95	98.7
967.117	78.35
967.284	43.48
967.45	46.77
967.617	92.89
967.784	96.76
967.95	117.49
968.117	56.07
968.283	98.7
968.45	166.32
968.616	69.64
968.783	99.28
968.949	82.62
969.116	79.71
969.282	61.69
969.449	84.75
969.615	55.69
969.781	10.16
969.948	40.57
970.114	24.69
970.28	118.07
970.447	59.75
970.613	113.62
970.779	42.9
970.945	72.74
971.112	69.64
971.278	55.1
971.444	68.28
971.61	111.68
971.776	34.76
971.942	68.47
972.108	81.65
972.275	44.45
972.441	66.34
972.607	147.91
972.773	46
972.939	96.37
973.105	64.02
973.271	17.71
973.437	47.16
973.602	27.01
973.768	85.52
973.934	47.74
974.1	70.99
974.266	1.63
974.432	70.8
974.598	43.48
974.763	76.03
974.929	38.06
975.095	129.5
975.261	43.09
975.426	23.33
975.592	64.79
975.758	106.25
975.923	40.57
976.089	28.76
976.255	97.54
976.42	68.09
976.586	88.82
976.751	64.4
976.917	137.45
977.082	70.8
977.248	4.73
977.413	-23.75
977.579	42.71
977.744	64.79
977.91	39.99
978.075	22.17
978.24	73.9
978.406	74.67
978.571	54.33
978.736	25.46
978.902	67.7
979.067	21.2
979.232	18.87
979.397	57.24
979.563	110.13
979.728	8.8
979.893	50.07
980.058	51.81
980.223	78.16
980.388	68.28
980.554	65.37
980.719	29.53
980.884	60.72
981.049	88.24
981.214	22.56
981.379	66.54
981.544	42.71
981.709	43.29
981.874	44.26
982.039	41.54
982.204	91.34
982.368	56.85
982.533	30.89
982.698	89.59
982.863	78.94
983.028	54.52
983.193	62.85
983.357	79.32
983.522	57.82
983.687	41.93
983.852	34.76
984.016	56.85
984.181	57.62
984.346	45.81
984.51	83.78
984.675	59.95
984.839	74.29
985.004	86.69
985.168	88.82
985.333	57.04
985.498	67.5
985.662	76.61
985.827	56.07
985.991	32.63
986.155	59.75
986.32	98.12
986.484	113.42
986.649	54.52
986.813	-6.31
986.977	69.64
987.142	84.17
987.306	12.29
987.47	27.01
987.634	48.91
987.799	56.65
987.963	63.63
988.127	81.07
988.291	149.85
988.455	79.13
988.62	11.32
988.784	83.39
988.948	76.42
989.112	10.16
989.276	69.83
989.44	43.87
989.604	38.64
989.768	10.93
989.932	133.77
990.096	26.43
990.26	19.84
990.424	24.88
990.588	20.81
990.752	120.2
990.915	89.79
991.079	42.51
991.243	16.55
991.407	49.29
991.571	52.39
991.734	71.57
991.898	69.83
992.062	151.01
992.226	43.29
992.389	29.53
992.553	-17.55
992.717	23.91
992.88	32.44
993.044	58.79
993.207	53.55
993.371	73.9
993.535	78.55
993.698	41.16
993.862	44.06
994.025	80.87
994.189	56.65
994.352	50.26
994.515	51.62
994.679	89.01
994.842	40.38
995.006	69.83
995.169	28.76
995.332	41.74
995.496	94.82
995.659	3.57
995.822	28.56
995.985	11.9
996.149	103.35
996.312	52.59
996.475	97.34
996.638	24.3
996.801	85.33
996.964	87.07
997.128	49.87
997.291	48.32
997.454	32.82
997.617	-6.7
997.78	73.51
997.943	28.17
998.106	79.52
998.269	19.07
998.432	32.63
998.595	35.92
998.758	2.41
998.92	0.08
999.083	-3.02
999.246	14.61
999.409	17.71
999.572	-21.04
999.735	3.18
999.897	72.35
1000.06	7.83
1000.223	-4.38
1000.386	50.84
1000.548	73.7
1000.711	62.27
1000.874	69.83
1001.036	22.36
1001.199	46
1001.361	-0.89
1001.524	45.61
1001.687	49.29
1001.849	24.49
1002.012	48.52
1002.174	36.12
1002.337	75.06
1002.499	39.02
1002.661	104.7
1002.824	1.24
1002.986	3.96
1003.149	34.57
1003.311	8.61
1003.473	78.16
1003.636	22.17
1003.798	42.32
1003.96	67.89
1004.123	43.67
1004.285	47.55
1004.447	34.76
1004.609	30.69
1004.771	81.65
1004.933	-9.99
1005.096	18.49
1005.258	-14.26
1005.42	4.73
1005.582	53.17
1005.744	37.09
1005.906	-6.89
1006.068	43.09
1006.23	-12.13
1006.392	-17.74
1006.554	-18.52
1006.716	97.15
1006.878	61.89
1007.04	0.47
1007.202	21.59
1007.363	18.87
1007.525	58.98
1007.687	38.44
1007.849	76.42
1008.011	-35.57
1008.172	-4.18
1008.334	2.99
1008.496	31.86
1008.658	3.96
1008.819	15.19
1008.981	1.82
1009.143	0.08
1009.304	9.77
1009.466	43.29
1009.627	85.14
1009.789	135.9
1009.95	13.45
1010.112	18.49
1010.273	58.4
1010.435	4.34
1010.596	30.5
1010.758	21.2
1010.919	8.41
1011.081	-20.65
1011.242	25.66
1011.403	53.17
1011.565	18.1
1011.726	39.41
1011.887	-9.99
1012.049	17.32
1012.21	61.11
1012.371	93.47
1012.532	-66.18
1012.693	21.97
1012.855	6.09
1013.016	30.89
1013.177	64.4
1013.338	26.04
1013.499	98.7
1013.66	18.87
1013.821	22.75
1013.982	27.21
1014.143	21.97
1014.304	28.95
1014.465	44.64
1014.626	43.29
1014.787	-9.22
1014.948	100.05
1015.109	-59.01
1015.27	66.73
1015.431	-3.21
1015.592	-17.94
1015.752	87.85
1015.913	13.84
1016.074	16.36
1016.235	4.92
1016.395	2.41
1016.556	18.68
1016.717	36.12
1016.877	72.15
1017.038	-1.66
1017.199	27.21
1017.359	19.84
1017.52	58.98
1017.681	6.47
1017.841	4.15
1018.002	9.57
1018.162	9.57
1018.323	62.47
1018.483	22.36
1018.644	-4.38
1018.804	-23.75
1018.964	-41.77
1019.125	8.41
1019.285	12.48
1019.446	-7.86
1019.606	-21.23
1019.766	-27.24
1019.926	30.31
1020.087	16.16
1020.247	-32.47
1020.407	52.2
1020.567	70.6
1020.728	5.7
1020.888	-29.56
1021.048	-27.04
1021.208	-26.66
1021.368	-20.07
1021.528	55.49
1021.688	38.25
1021.848	34.18
1022.008	17.71
1022.168	27.79
1022.328	33.79
1022.488	24.49
1022.648	-17.94
1022.808	20.23
1022.968	33.02
1023.128	13.64
1023.288	-35.57
1023.448	25.66
1023.608	15.19
1023.767	11.32
1023.927	-13.09
1024.087	-7.67
1024.247	-36.73
1024.406	0.66
1024.566	-9.8
1024.726	-26.27
1024.885	20.62
1025.045	29.34
1025.205	26.82
1025.364	18.49
1025.524	12.48
1025.683	4.92
1025.843	23.14
1026.003	13.26
1026.162	50.65
1026.321	56.85
1026.481	29.34
1026.64	9.38
1026.8	54.91
1026.959	8.41
1027.119	19.65
1027.278	-3.99
1027.437	-30.73
1027.597	9.96
1027.756	14.61
1027.915	8.99
1028.074	39.22
1028.234	-6.7
1028.393	13.64
1028.552	-30.73
1028.711	-64.44
1028.87	34.96
1029.03	-34.79
1029.189	1.63
1029.348	-54.75
1029.507	-24.53
1029.666	2.21
1029.825	-40.41
1029.984	-10.77
1030.143	-4.96
1030.302	-1.66
1030.461	-36.15
1030.62	-6.89
1030.779	23.14
1030.938	-31.89
1031.097	-15.23
1031.255	16.16
1031.414	47.36
1031.573	39.61
1031.732	-41.19
1031.891	11.51
1032.049	37.67
1032.208	35.92
1032.367	1.05
1032.525	-11.16
1032.684	5.89
1032.843	24.49
1033.001	-38.67
1033.16	163.99
1033.319	56.07
1033.477	29.14
1033.636	-36.34
1033.794	-62.89
1033.953	28.37
1034.111	39.41
1034.27	8.8
1034.428	21.2
1034.587	2.02
1034.745	49.87
1034.903	6.67
1035.062	20.62
1035.22	-36.92
1035.378	45.03
1035.537	-22.98
1035.695	33.99
1035.853	1.44
1036.011	20.04
1036.17	21.01
1036.328	-40.61
1036.486	-19.49
1036.644	-15.23
1036.802	-83.23
1036.96	-50.87
1037.119	2.21
1037.277	5.7
1037.435	-59.4
1037.593	-22.39
1037.751	0.27
1037.909	20.23
1038.067	20.23
