Data from pine_FLMT105791__4__17-19-38-080.txt Node

Date: Mon Mar 20 17:19:38 GMT 2023
User: antho
Spectrometer: FLMT10579
Trigger mode: 0
Integration Time (sec): 1.000000E-1
Scans to average: 10
Electric dark correction enabled: true
Nonlinearity correction enabled: false
Boxcar width: 0
XAxis mode: Wavelengths
Number of Pixels in Spectrum: 3648
>>>>>Begin Spectral Data<<<<<
345.248	-190.6
345.464	-190.6
345.681	-190.6
345.898	-188.66
346.114	-159.79
346.331	-33.47
346.548	25.43
346.764	6.44
346.981	-26.88
347.197	-14.1
347.414	-4.99
347.631	-10.22
347.847	64.37
348.064	13.22
348.28	17.1
348.497	-22.81
348.713	-14.1
348.93	25.04
349.146	15.55
349.363	-12.16
349.579	1.6
349.796	-2.28
350.012	2.57
350.229	15.55
350.445	2.37
350.661	-29.59
350.878	-5.57
351.094	19.62
351.311	2.57
351.527	5.86
351.743	-14.29
351.96	18.65
352.176	23.88
352.392	28.72
352.609	12.25
352.825	-17.39
353.041	6.44
353.257	-27.46
353.474	0.24
353.69	13.03
353.906	7.02
354.122	-12.35
354.339	48.68
354.555	-9.64
354.771	-4.99
354.987	37.25
355.203	60.11
355.42	-17.78
355.636	5.67
355.852	-8.28
356.068	-9.25
356.284	-25.72
356.5	43.25
356.716	11.48
356.932	-1.7
357.148	35.7
357.364	-0.92
357.58	28.14
357.796	78.52
358.012	47.13
358.228	6.44
358.444	-52.65
358.66	52.36
358.876	44.8
359.092	-2.28
359.308	13.22
359.524	14.77
359.74	-29.98
359.956	-30.18
360.172	5.47
360.388	50.62
360.604	-14.48
360.819	104.67
361.035	13.61
361.251	37.64
361.467	-36.18
361.683	24.46
361.898	22.33
362.114	30.27
362.33	10.12
362.546	40.93
362.762	-3.05
362.977	3.54
363.193	-31.14
363.409	19.23
363.624	-32.89
363.84	-17.39
364.056	1.99
364.271	11.48
364.487	52.94
364.703	19.81
364.918	-20.88
365.134	-9.25
365.35	23.88
365.565	85.3
365.781	2.95
365.996	33.18
366.212	69.22
366.427	2.37
366.643	-23.01
366.858	-20.68
367.074	-25.53
367.289	40.35
367.505	113.58
367.72	-33.28
367.936	-10.41
368.151	27.37
368.367	42.67
368.582	18.84
368.798	20
369.013	55.27
369.228	25.43
369.444	20.59
369.659	34.73
369.874	27.37
370.09	35.89
370.305	-42.19
370.52	9.15
370.736	38.02
370.951	4.5
371.166	74.25
371.381	63.21
371.597	59.72
371.812	-18.16
372.027	-17.97
372.242	0.63
372.458	74.45
372.673	5.09
372.888	-17.58
373.103	20.97
373.318	110.29
373.533	39.96
373.749	27.75
373.964	-61.56
374.179	53.72
374.394	-18.55
374.609	68.63
374.824	-12.93
375.039	57.59
375.254	-14.68
375.469	65.73
375.684	13.8
375.899	47.32
376.114	-14.29
376.329	38.6
376.544	35.89
376.759	42.48
376.974	-9.06
377.189	32.21
377.404	11.09
377.619	53.91
377.834	-15.84
378.049	-15.65
378.264	-15.26
378.478	12.25
378.693	9.15
378.908	27.75
379.123	11.87
379.338	50.04
379.553	25.62
379.767	13.03
379.982	41.12
380.197	24.46
380.412	20.59
380.626	55.46
380.841	107.97
381.056	36.09
381.271	70.38
381.485	-9.06
381.7	-8.09
381.915	3.34
382.129	17.1
382.344	28.14
382.559	12.45
382.773	57.01
382.988	-30.76
383.202	42.09
383.417	-15.06
383.632	115.52
383.846	-23.2
384.061	7.22
384.275	-6.35
384.49	57.79
384.704	32.6
384.919	31.44
385.133	35.12
385.348	22.52
385.562	-0.92
385.777	41.12
385.991	7.99
386.206	14.77
386.42	-10.03
386.634	67.86
386.849	29.3
387.063	33.57
387.277	-10.61
387.492	4.7
387.706	-17.39
387.92	-4.41
388.135	57.01
388.349	6.44
388.563	8.38
388.778	15.74
388.992	52.55
389.206	46.16
389.42	78.13
389.635	10.7
389.849	32.79
390.063	51.59
390.277	38.22
390.491	87.43
390.706	28.53
390.92	56.43
391.134	35.31
391.348	50.62
391.562	-18.75
391.776	9.15
391.99	-3.63
392.205	33.18
392.419	-0.53
392.633	23.69
392.847	67.86
393.061	-22.62
393.275	79.48
393.489	20.78
393.703	25.24
393.917	56.43
394.131	24.85
394.345	24.46
394.559	64.95
394.773	15.35
394.986	49.65
395.2	14.39
395.414	47.9
395.628	-9.64
395.842	2.57
396.056	11.29
396.27	-42.96
396.484	23.49
396.697	29.11
396.911	77.16
397.125	31.44
397.339	57.59
397.553	73.48
397.766	76.38
397.98	48.87
398.194	43.25
398.408	-2.08
398.621	23.88
398.835	59.53
399.049	24.46
399.262	84.91
399.476	64.57
399.69	62.82
399.903	105.25
400.117	28.72
400.331	51.97
400.544	15.35
400.758	129.28
400.971	29.5
401.185	65.54
401.398	12.84
401.612	79.87
401.826	55.65
402.039	54.49
402.253	11.48
402.466	48.87
402.68	44.8
402.893	47.32
403.106	38.6
403.32	40.54
403.533	57.79
403.747	62.24
403.96	41.32
404.174	48.49
404.387	-24.75
404.6	8.38
404.814	77.35
405.027	37.25
405.24	43.06
405.454	36.28
405.667	64.37
405.88	-22.62
406.094	78.52
406.307	87.62
406.52	55.65
406.733	9.93
406.947	5.28
407.16	117.27
407.373	65.15
407.586	26.59
407.799	1.4
408.012	76
408.226	53.91
408.439	82.58
408.652	-3.05
408.865	59.34
409.078	72.7
409.291	57.79
409.504	-5.18
409.717	67.08
409.93	55.65
410.143	50.81
410.357	-29.79
410.57	23.1
410.783	29.11
410.996	41.12
411.209	50.04
411.421	52.36
411.634	17.29
411.847	38.8
412.06	45.58
412.273	32.6
412.486	37.25
412.699	121.33
412.912	59.92
413.125	75.42
413.338	52.36
413.55	71.35
413.763	54.1
413.976	64.76
414.189	7.6
414.402	14.97
414.615	83.17
414.827	23.1
415.04	74.45
415.253	74.45
415.466	87.62
415.678	83.75
415.891	61.47
416.104	36.86
416.316	57.2
416.529	29.11
416.742	72.7
416.954	76.19
417.167	49.65
417.38	37.83
417.592	95.95
417.805	29.69
418.017	7.41
418.23	72.32
418.442	36.47
418.655	41.12
418.868	75.42
419.08	88.78
419.293	90.14
419.505	63.99
419.718	72.7
419.93	91.69
420.142	44.8
420.355	88.01
420.567	106.42
420.78	68.25
420.992	51.39
421.205	118.04
421.417	-4.02
421.629	56.24
421.842	40.35
422.054	-9.64
422.266	97.7
422.479	95.57
422.691	30.08
422.903	79.48
423.115	42.09
423.328	67.47
423.54	85.3
423.752	80.26
423.964	19.62
424.177	53.72
424.389	67.67
424.601	157.37
424.813	86.27
425.025	115.33
425.238	106.61
425.45	61.08
425.662	47.9
425.874	362.74
426.086	68.05
426.298	76.58
426.51	81.23
426.722	71.54
426.934	41.12
427.146	109.52
427.358	33.95
427.57	107
427.782	90.72
427.994	64.95
428.206	90.72
428.418	20.39
428.63	98.28
428.842	116.49
429.054	99.83
429.266	116.49
429.478	45.77
429.69	65.15
429.902	5.47
430.114	124.05
430.325	100.41
430.537	67.86
430.749	84.52
430.961	19.81
431.173	49.07
431.384	115.91
431.596	2.57
431.808	66.31
432.02	78.32
432.231	103.51
432.443	101.38
432.655	100.41
432.867	47.71
433.078	109.9
433.29	194.18
433.502	142.07
433.713	119.78
433.925	126.37
434.136	130.44
434.348	57.2
434.56	45.97
434.771	206.2
434.983	50.81
435.194	85.3
435.406	109.71
435.617	143.81
435.829	187.79
436.04	129.08
436.252	130.83
436.463	156.4
436.675	140.71
436.886	119.98
437.098	138.97
437.309	174.42
437.521	93.82
437.732	134.51
437.943	125.98
438.155	127.73
438.366	80.45
438.578	189.53
438.789	108.55
439	135.87
439.211	111.07
439.423	144
439.634	164.15
439.845	160.66
440.057	128.31
440.268	167.45
440.479	113.39
440.69	160.08
440.902	101.38
441.113	131.02
441.324	112.03
441.535	156.21
441.746	168.61
441.957	96.92
442.168	132.77
442.38	190.11
442.591	159.7
442.802	133.93
443.013	107.58
443.224	150.4
443.435	129.28
443.646	134.9
443.857	145.55
444.068	124.63
444.279	129.47
444.49	229.83
444.701	152.53
444.912	254.44
445.123	191.86
445.334	186.05
445.545	176.16
445.756	167.25
445.967	128.31
446.178	159.11
446.388	196.51
446.599	192.63
446.81	200.19
447.021	132.77
447.232	215.5
447.443	233.71
447.653	121.72
447.864	180.62
448.075	187.98
448.286	218.4
448.496	200.19
448.707	241.84
448.918	198.83
449.129	273.81
449.339	150.4
449.55	181.2
449.761	178.3
449.971	254.44
450.182	181.78
450.393	214.14
450.603	207.75
450.814	240.68
451.024	198.25
451.235	234.87
451.446	265.48
451.656	272.65
451.867	145.36
452.077	207.16
452.288	270.33
452.498	248.04
452.709	184.11
452.919	216.08
453.13	195.15
453.34	246.88
453.55	134.7
453.761	222.08
453.971	231
454.182	229.25
454.392	250.18
454.602	250.18
454.813	218.4
455.023	247.46
455.233	184.69
455.444	203.87
455.654	170.16
455.864	239.52
456.075	196.9
456.285	204.26
456.495	194.96
456.705	261.41
456.916	282.14
457.126	284.47
457.336	226.54
457.546	172.48
457.756	246.3
457.967	263.93
458.177	218.6
458.387	239.71
458.597	226.73
458.807	223.63
459.017	215.69
459.227	216.08
459.437	209.68
459.647	250.76
459.857	225.18
460.068	226.93
460.278	280.01
460.488	255.21
460.698	297.26
460.908	237.97
461.117	203.48
461.327	200.19
461.537	243.39
461.747	265.87
461.957	249.59
462.167	358.09
462.377	287.38
462.587	273.81
462.797	296.87
463.007	260.44
463.216	255.02
463.426	306.56
463.636	303.46
463.846	207.55
464.056	260.83
464.265	299.39
464.475	233.51
464.685	270.33
464.895	300.16
465.104	258.31
465.314	292.03
465.524	270.71
465.733	236.23
465.943	335.81
466.153	316.63
466.362	274.01
466.572	291.25
466.782	249.59
466.991	262.19
467.201	315.28
467.41	220.53
467.62	302.88
467.829	285.05
468.039	319.73
468.249	301.52
468.458	254.83
468.668	318.18
468.877	318.76
469.086	332.13
469.296	326.13
469.505	282.53
469.715	365.07
469.924	303.84
470.134	342.59
470.343	346.47
470.552	314.31
470.762	303.65
470.971	264.9
471.18	291.44
471.39	321.28
471.599	274.59
471.808	325.93
472.018	271.68
472.227	325.93
472.436	363.52
472.645	321.67
472.855	271.88
473.064	347.63
473.273	333.29
473.482	331.94
473.691	362.94
473.901	358.29
474.11	311.01
474.319	406.14
474.528	354.41
474.737	393.36
474.946	349.18
475.155	382.12
475.364	398.2
475.573	323.03
475.783	372.04
475.992	394.71
476.201	396.07
476.41	348.02
476.619	322.44
476.828	354.02
477.037	348.02
477.245	404.21
477.454	391.22
477.663	355.38
477.872	357.32
478.081	444.89
478.29	330.77
478.499	457.49
478.708	396.46
478.917	431.52
479.125	403.82
479.334	396.65
479.543	395.68
479.752	421.45
479.961	398.2
480.169	454.77
480.378	395.68
480.587	519.68
480.796	442.37
481.004	426.68
481.213	428.81
481.422	426.49
481.63	423.97
481.839	441.02
482.048	488.29
482.256	439.08
482.465	467.75
482.674	457.49
482.882	472.6
483.091	521.42
483.299	481.7
483.508	496.04
483.716	454.77
483.925	477.64
484.134	469.5
484.342	442.76
484.551	505.34
484.759	475.7
484.967	495.46
485.176	503.98
485.384	526.27
485.593	511.15
485.801	507.47
486.01	487.13
486.218	454.58
486.426	411.37
486.635	444.31
486.843	442.95
487.051	450.7
487.26	462.52
487.468	477.64
487.676	488.49
487.885	454
488.093	489.26
488.301	493.72
488.509	521.81
488.717	554.75
488.926	502.63
489.134	511.73
489.342	520.07
489.55	491.39
489.758	509.8
489.967	505.53
490.175	622.95
490.383	506.5
490.591	614.61
490.799	489.84
491.007	577.03
491.215	553.97
491.423	546.03
491.631	542.73
491.839	566.57
492.047	589.62
492.255	518.71
492.463	489.45
492.671	528.98
492.879	582.26
493.087	530.92
493.295	590.59
493.503	581.29
493.711	576.25
493.919	619.46
494.127	614.61
494.334	616.55
494.542	552.03
494.75	588.07
494.958	587.3
495.166	636.51
495.374	607.06
495.581	595.24
495.789	617.52
495.997	662.28
496.205	588.07
496.412	573.35
496.62	598.53
496.828	642.13
497.035	609.19
497.243	636.9
497.451	620.43
497.658	623.91
497.866	598.34
498.074	679.52
498.281	620.04
498.489	704.32
498.696	616.94
498.904	607.25
499.112	632.05
499.319	689.98
499.527	611.71
499.734	655.3
499.942	592.91
500.149	593.5
500.357	632.05
500.564	603.96
500.771	637.67
500.979	608.41
501.186	620.23
501.394	648.52
501.601	632.63
501.808	632.05
502.016	650.26
502.223	625.08
502.43	658.21
502.638	623.33
502.845	602.99
503.052	676.03
503.26	629.15
503.467	725.05
503.674	640.38
503.881	683.01
504.089	745.01
504.296	690.18
504.503	635.35
504.71	664.21
504.917	609.19
505.125	711.29
505.332	678.55
505.539	674.29
505.746	741.71
505.953	720.79
506.16	714.78
506.367	771.36
506.574	794.61
506.781	806.23
506.988	667.12
507.195	696.96
507.402	701.8
507.609	743.26
507.816	702.96
508.023	672.74
508.23	691.34
508.437	666.15
508.644	709.36
508.851	786.08
509.058	757.21
509.265	731.44
509.472	772.32
509.679	835.1
509.885	751.79
510.092	741.71
510.299	768.64
510.506	755.66
510.713	765.93
510.92	763.61
511.126	756.24
511.333	804.49
511.54	782.4
511.746	832
511.953	827.16
512.16	832.19
512.367	749.66
512.573	801.77
512.78	773.1
512.987	768.84
513.193	793.44
513.4	735.71
513.606	775.04
513.813	814.56
514.02	797.32
514.226	847.89
514.433	838.78
514.639	752.56
514.846	814.76
515.052	787.05
515.259	774.07
515.465	771.16
515.672	808.17
515.878	875.98
516.085	779.11
516.291	828.71
516.497	784.53
516.704	806.62
516.91	745.78
517.117	720.21
517.323	718.66
517.529	745.01
517.736	765.93
517.942	779.49
518.148	776.97
518.354	805.07
518.561	781.62
518.767	779.3
518.973	848.08
519.179	853.12
519.386	779.88
519.592	800.42
519.798	803.13
520.004	876.37
520.21	822.51
520.417	879.27
520.623	893.8
520.829	914.92
521.035	918.41
521.241	898.26
521.447	902.91
521.653	1029.23
521.859	877.34
522.065	893.61
522.271	1028.85
522.477	949.41
522.683	1015.87
522.889	934.3
523.095	981.38
523.301	936.24
523.507	922.29
523.713	963.17
523.919	900
524.125	1032.33
524.331	939.72
524.537	1028.46
524.742	1034.27
524.948	1022.84
525.154	1026.91
525.36	1096.08
525.566	1032.72
525.772	1056.55
525.977	985.45
526.183	1057.52
526.389	1054.03
526.595	982.73
526.8	968.01
527.006	968.01
527.212	940.69
527.417	928.87
527.623	943.02
527.829	984.87
528.034	1019.16
528.24	987
528.446	980.22
528.651	1053.26
528.857	1064.3
529.062	1083.29
529.268	1083.87
529.473	1075.15
529.679	1067.6
529.884	1122.04
530.09	1084.84
530.295	1106.93
530.501	1089.88
530.706	1098.6
530.912	1060.43
531.117	1091.23
531.323	1083.1
531.528	1124.94
531.733	1130.18
531.939	1101.7
532.144	1123.98
532.35	1119.52
532.555	1149.74
532.76	1142.96
532.966	1123.01
533.171	1104.8
533.376	1054.61
533.581	1059.85
533.787	1085.03
533.992	1150.52
534.197	1169.31
534.402	1104.99
534.607	1127.66
534.813	1226.27
535.018	1149.74
535.223	1116.23
535.428	1160.21
535.633	1171.64
535.838	1183.84
536.043	1175.51
536.249	1251.46
536.454	1176.48
536.659	1231.7
536.864	1170.48
537.069	1142.77
537.274	1178.03
537.479	1172.22
537.684	1170.28
537.889	1134.63
538.094	1245.46
538.299	1196.63
538.504	1214.26
538.708	1186.36
538.913	1240.61
539.118	1207.87
539.323	1202.44
539.528	1186.75
539.733	1173.96
539.938	1211.16
540.142	1244.1
540.347	1173.19
540.552	1148
540.757	1191.59
540.962	1165.63
541.166	1139.67
541.371	1166.02
541.576	1176.48
541.781	1067.4
541.985	1195.28
542.19	1189.27
542.395	1272.97
542.599	1247.01
542.804	1202.06
543.008	1279.36
543.213	1211.94
543.418	1147.23
543.622	1238.67
543.827	1177.06
544.031	1276.07
544.236	1268.51
544.44	1194.11
544.645	1303.19
544.849	1212.52
545.054	1248.17
545.258	1314.24
545.463	1268.12
545.667	1230.92
545.872	1257.47
546.076	1240.03
546.281	1271.61
546.485	1211.94
546.689	1252.43
546.894	1286.34
547.098	1258.82
547.302	1219.88
547.507	1237.9
547.711	1266.57
547.915	1306.49
548.119	1223.37
548.324	1205.93
548.528	1286.34
548.732	1250.11
548.936	1289.24
549.141	1309.39
549.345	1261.54
549.549	1247.59
549.753	1254.95
549.957	1356.47
550.161	1354.15
550.366	1280.91
550.57	1254.95
550.774	1255.53
550.978	1252.24
551.182	1310.17
551.386	1275.29
551.59	1271.03
551.794	1234.99
551.998	1314.04
552.202	1278.78
552.406	1227.44
552.61	1304.16
552.814	1297.19
553.018	1358.99
553.222	1282.66
553.426	1273.36
553.63	1337.1
553.833	1247.97
554.037	1244.87
554.241	1308.81
554.445	1301.64
554.649	1270.64
554.853	1279.56
555.056	1346.2
555.26	1317.34
555.464	1315.2
555.668	1322.76
555.871	1324.12
556.075	1321.99
556.279	1280.72
556.483	1248.56
556.686	1268.32
556.89	1271.61
557.094	1270.06
557.297	1209.22
557.501	1321.99
557.704	1236.74
557.908	1297.96
558.112	1253.01
558.315	1318.11
558.519	1230.15
558.722	1259.41
558.926	1250.69
559.129	1224.34
559.333	1168.93
559.536	1209.81
559.74	1221.62
559.943	1192.76
560.147	1199.15
560.35	1242.16
560.553	1216.97
560.757	1193.34
560.96	1267.93
561.164	1186.75
561.367	1282.07
561.57	1209.22
561.774	1213.87
561.977	1196.63
562.18	1176.87
562.384	1279.56
562.587	1209.42
562.79	1191.98
562.993	1205.93
563.197	1247.2
563.4	1275.29
563.603	1283.04
563.806	1333.22
564.009	1213.87
564.212	1231.12
564.416	1156.53
564.619	1223.95
564.822	1191.21
565.025	1247.2
565.228	1193.92
565.431	1170.09
565.634	1110.22
565.837	1176.87
566.04	1161.18
566.243	1174.93
566.446	1078.25
566.649	1158.46
566.852	1118.94
567.055	1134.24
567.258	1179.19
567.461	1209.03
567.664	1242.16
567.867	1122.23
568.07	1179.19
568.273	1150.13
568.475	1221.62
568.678	1150.13
568.881	1150.13
569.084	1162.53
569.287	1050.55
569.489	1104.8
569.692	1142.58
569.895	1130.18
570.098	1104.21
570.3	1119.13
570.503	1036.6
570.706	1062.95
570.909	1049.58
571.111	1038.53
571.314	1034.08
571.516	1056.94
571.719	1075.15
571.922	1066.63
572.124	1061.2
572.327	1074.96
572.529	1020.71
572.732	1007.73
572.935	1070.11
573.137	1079.22
573.34	1007.15
573.542	1072.05
573.745	1096.27
573.947	1057.52
574.15	1056.16
574.352	1021.68
574.554	1105.76
574.757	1016.25
574.959	1034.08
575.162	1039.11
575.364	1032.14
575.566	1120.68
575.769	996.49
575.971	1030.01
576.173	934.88
576.376	1003.27
576.578	1032.72
576.78	1063.53
576.982	938.75
577.185	1008.31
577.387	970.92
577.589	957.55
577.791	1022.84
577.993	1035.82
578.196	999.78
578.398	1011.8
578.6	1036.6
578.802	946.5
579.004	986.42
579.206	991.26
579.408	1011.8
579.61	994.75
579.812	1024.97
580.014	980.99
580.216	1002.5
580.418	1002.69
580.62	988.74
580.822	939.53
581.024	981.57
581.226	1066.82
581.428	987.58
581.63	1050.16
581.832	992.42
582.034	1043.38
582.236	1024
582.438	1044.15
582.64	1036.98
582.841	1063.14
583.043	1074.96
583.245	1039.11
583.447	1028.26
583.649	1009.86
583.85	1008.89
584.052	1047.25
584.254	992.42
584.456	1070.11
584.657	984.67
584.859	982.93
585.061	946.7
585.262	961.23
585.464	978.28
585.666	1017.42
585.867	933.52
586.069	999.4
586.27	1011.02
586.472	987.38
586.674	988.35
586.875	976.34
587.077	966.27
587.278	1006.76
587.48	971.69
587.681	1053.45
587.883	1011.8
588.084	950.18
588.285	928.87
588.487	938.17
588.688	978.86
588.89	904.07
589.091	865.13
589.292	891.09
589.494	843.43
589.695	831.42
589.896	795.96
590.098	816.69
590.299	885.67
590.5	835.68
590.702	849.63
590.903	873.07
591.104	927.9
591.305	901.55
591.507	974.4
591.708	933.72
591.909	892.06
592.11	945.53
592.311	906.4
592.512	908.92
592.714	851.95
592.915	859.12
593.116	873.07
593.317	904.85
593.518	867.07
593.719	880.63
593.92	932.17
594.121	958.32
594.322	934.1
594.523	915.7
594.724	863.77
594.925	875.98
595.126	898.65
595.327	930.62
595.528	892.06
595.729	903.69
595.929	881.02
596.13	873.07
596.331	890.32
596.532	900
596.733	1000.37
596.934	938.37
597.135	965.88
597.335	943.98
597.536	893.8
597.737	901.17
597.938	912.79
598.138	911.63
598.339	909.69
598.54	931.39
598.74	873.85
598.941	900.78
599.142	945.15
599.342	928.87
599.543	902.52
599.744	910.85
599.944	896.52
600.145	896.71
600.345	925
600.546	979.63
600.746	956.58
600.947	968.4
601.147	924.03
601.348	988.55
601.548	895.16
601.749	917.05
601.949	867.65
602.15	884.7
602.35	892.25
602.551	940.11
602.751	845.95
602.951	892.84
603.152	827.54
603.352	920.35
603.552	906.98
603.753	929.26
603.953	932.55
604.153	914.34
604.354	877.14
604.554	909.5
604.754	894.19
604.954	887.6
605.155	895.74
605.355	861.84
605.555	915.5
605.755	948.83
605.955	890.9
606.155	947.86
606.356	904.07
606.556	962.58
606.756	906.4
606.956	873.07
607.156	964.52
607.356	856.22
607.556	929.84
607.756	911.82
607.956	927.13
608.156	911.63
608.356	870.94
608.556	928.1
608.756	893.03
608.956	855.05
609.156	883.54
609.356	869.2
609.556	853.89
609.755	885.67
609.955	849.05
610.155	880.82
610.355	880.82
610.555	871.72
610.755	862.8
610.954	848.27
611.154	878.11
611.354	930.81
611.554	868.81
611.753	841.11
611.953	802.36
612.153	898.65
612.352	861.06
612.552	853.31
612.752	777.17
612.951	841.49
613.151	869.59
613.351	806.04
613.55	841.69
613.75	865.52
613.949	850.99
614.149	817.86
614.348	840.52
614.548	809.72
614.747	793.06
614.947	789.57
615.146	753.53
615.346	854.86
615.545	796.93
615.745	813.59
615.944	833.55
616.144	829.87
616.343	880.63
616.542	795.96
616.742	817.86
616.941	793.83
617.14	741.13
617.34	813.59
617.539	830.06
617.738	801.97
617.938	891.48
618.137	799.64
618.336	787.44
618.535	817.08
618.734	802.36
618.934	812.43
619.133	830.06
619.332	836.07
619.531	790.15
619.73	817.08
619.929	828.51
620.128	850.99
620.328	880.44
620.527	797.12
620.726	795.96
620.925	829.29
621.124	798.67
621.323	847.89
621.522	746.56
621.721	749.85
621.92	760.12
622.119	826.57
622.318	750.24
622.517	812.82
622.715	781.82
622.914	747.91
623.113	776.97
623.312	705.09
623.511	844.59
623.71	778.14
623.909	765.54
624.107	829.09
624.306	702.38
624.505	735.13
624.704	735.71
624.902	735.51
625.101	806.81
625.3	764.19
625.499	721.18
625.697	745.59
625.896	723.31
626.095	756.83
626.293	710.13
626.492	702.77
626.69	781.24
626.889	729.31
627.088	791.51
627.286	712.26
627.485	741.52
627.683	715.75
627.882	751.21
628.08	688.24
628.279	712.65
628.477	803.32
628.676	675.65
628.874	745.39
629.073	704.51
629.271	687.27
629.469	733.58
629.668	698.89
629.866	709.16
630.065	681.26
630.263	724.08
630.461	664.99
630.66	683.78
630.858	759.15
631.056	759.93
631.254	763.99
631.453	689.4
631.651	742.49
631.849	723.31
632.047	717.49
632.245	696.18
632.444	726.79
632.642	738.23
632.84	745.39
633.038	701.61
633.236	665.18
633.434	707.61
633.632	668.09
633.83	668.67
634.028	747.33
634.227	683.39
634.425	788.21
634.623	697.15
634.821	718.85
635.019	739.97
635.216	682.62
635.414	760.31
635.612	721.56
635.81	673.13
636.008	745.98
636.206	694.83
636.404	750.04
636.602	696.18
636.8	717.69
636.997	754.31
637.195	784.34
637.393	716.14
637.591	793.83
637.789	732.61
637.986	715.17
638.184	716.53
638.382	757.41
638.58	745.78
638.777	780.27
638.975	747.72
639.173	741.13
639.37	729.89
639.568	744.23
639.765	761.86
639.963	714.01
640.161	775.23
640.358	801.39
640.556	690.56
640.753	699.67
640.951	680.68
641.148	713.81
641.346	697.54
641.543	703.93
641.741	748.69
641.938	681.65
642.136	684.94
642.333	686.11
642.531	732.61
642.728	763.8
642.925	689.4
643.123	685.72
643.32	736.29
643.517	706.45
643.715	721.56
643.912	689.4
644.109	686.88
644.306	709.55
644.504	659.95
644.701	684.36
644.898	714.01
645.095	658.79
645.293	693.08
645.49	711.1
645.687	694.24
645.884	701.8
646.081	599.5
646.278	656.08
646.475	651.81
646.672	661.31
646.87	681.07
647.067	675.26
647.264	699.28
647.461	632.44
647.658	618.1
647.855	657.24
648.052	609.77
648.249	559.98
648.446	618.3
648.642	620.43
648.839	587.88
649.036	634.18
649.233	598.53
649.43	578.97
649.627	549.32
649.824	586.91
650.021	592.72
650.217	609
650.414	599.11
650.611	667.9
650.808	630.89
651.004	654.72
651.201	653.95
651.398	671.38
651.595	624.3
651.791	621.4
651.988	646.58
652.185	583.42
652.381	637.28
652.578	595.63
652.775	621.78
652.971	602.8
653.168	611.9
653.364	624.3
653.561	537.7
653.757	621.98
653.954	609.58
654.15	606.86
654.347	661.7
654.543	642.51
654.74	586.91
654.936	551.84
655.133	610.93
655.329	631.86
655.525	605.31
655.722	621.78
655.918	572.18
656.115	590.98
656.311	515.03
656.507	485.39
656.704	511.93
656.9	492.75
657.096	513.48
657.292	507.28
657.489	568.89
657.685	578
657.881	553.39
658.077	553
658.273	553.78
658.47	611.32
658.666	581.1
658.862	620.43
659.058	544.67
659.254	633.02
659.45	571.41
659.646	580.52
659.842	578.19
660.038	646.78
660.234	562.3
660.43	575.48
660.626	665.96
660.822	595.63
661.018	610.74
661.214	578.77
661.41	567.92
661.606	596.79
661.802	605.9
661.998	595.43
662.194	550.68
662.39	585.17
662.586	597.37
662.781	591.95
662.977	612.87
663.173	606.09
663.369	573.54
663.564	624.3
663.76	600.08
663.956	570.63
664.152	636.51
664.347	536.53
664.543	570.05
664.739	599.89
664.934	500.89
665.13	518.13
665.326	602.99
665.521	575.48
665.717	519.1
665.912	545.25
666.108	480.54
666.304	530.53
666.499	555.72
666.695	488.87
666.89	536.73
667.086	589.62
667.281	566.76
667.477	620.23
667.672	565.21
667.867	534.21
668.063	578
668.258	529.95
668.454	557.85
668.649	599.89
668.844	529.95
669.04	578.38
669.235	532.85
669.43	523.17
669.626	508.05
669.821	500.11
670.016	489.65
670.211	510.77
670.407	511.15
670.602	528.78
670.797	525.1
670.992	574.9
671.187	502.63
671.382	567.15
671.578	506.89
671.773	526.85
671.968	490.23
672.163	504.57
672.358	555.72
672.553	511.54
672.748	523.17
672.943	578.38
673.138	506.5
673.333	533.24
673.528	491.78
673.723	565.21
673.918	516.38
674.113	476.47
674.308	583.42
674.503	553.39
674.698	532.27
674.892	511.15
675.087	544.48
675.282	566.37
675.477	509.41
675.672	556.3
675.867	497.4
676.061	488.49
676.256	482.29
676.451	495.65
676.646	528.4
676.84	472.4
677.035	455.74
677.23	464.46
677.424	558.43
677.619	547.19
677.814	544.67
678.008	552.81
678.203	500.5
678.397	458.26
678.592	549.13
678.787	572.96
678.981	488.29
679.176	524.52
679.37	509.22
679.565	505.34
679.759	517.16
679.954	528.01
680.148	578.19
680.342	559.2
680.537	541.38
680.731	515.61
680.926	521.23
681.12	565.98
681.314	501.85
681.509	506.89
681.703	518.13
681.897	522.78
682.092	513.09
682.286	519.87
682.48	578.77
682.674	564.63
682.869	539.25
683.063	537.5
683.257	613.65
683.451	472.6
683.645	538.47
683.839	531.3
684.034	501.47
684.228	544.28
684.422	499.14
684.616	478.02
684.81	490.81
685.004	495.46
685.198	497.98
685.392	559.01
685.586	502.82
685.78	525.49
685.974	539.25
686.168	544.87
686.362	548.35
686.556	462.52
686.75	450.12
686.944	477.05
687.138	456.9
687.331	380.76
687.525	419.12
687.719	363.13
687.913	410.6
688.107	387.74
688.301	391.61
688.494	451.48
688.688	409.24
688.882	357.12
689.076	349.96
689.269	424.94
689.463	494.3
689.657	414.67
689.85	409.63
690.044	423.97
690.238	440.63
690.431	408.66
690.625	447.22
690.818	447.22
691.012	459.81
691.205	493.72
691.399	415.25
691.593	475.89
691.786	525.68
691.98	526.65
692.173	560.75
692.366	520.45
692.56	550.87
692.753	560.95
692.947	505.53
693.14	565.4
693.333	586.72
693.527	505.53
693.72	556.49
693.914	523.55
694.107	542.73
694.3	581.48
694.493	563.08
694.687	615.58
694.88	530.14
695.073	607.25
695.266	589.04
695.46	563.85
695.653	636.12
695.846	626.43
696.039	551.65
696.232	570.63
696.425	603.38
696.618	646.2
696.812	616.75
697.005	654.72
697.198	725.63
697.391	664.02
697.584	710.52
697.777	718.85
697.97	717.69
698.163	711.88
698.356	689.4
698.549	817.47
698.742	757.21
698.935	697.93
699.127	760.89
699.32	705.68
699.513	698.51
699.706	738.23
699.899	746.17
700.092	722.92
700.285	748.88
700.477	702.58
700.67	749.66
700.863	800.22
701.056	849.44
701.248	810.49
701.441	835.1
701.634	786.27
701.826	888.19
702.019	763.99
702.212	846.92
702.404	776.01
702.597	783.17
702.79	818.63
702.982	837.04
703.175	885.09
703.367	892.84
703.56	874.62
703.752	964.33
703.945	932.17
704.137	965.49
704.33	951.35
704.522	983.32
704.715	979.44
704.907	1024.58
705.1	1013.93
705.292	991.65
705.484	978.08
705.677	1035.43
705.869	1013.73
706.061	1060.81
706.254	1086.78
706.446	1072.83
706.638	1077.48
706.831	1120.1
707.023	1061.78
707.215	1150.33
707.407	1156.33
707.599	1136.76
707.792	1205.54
707.984	1166.99
708.176	1208.45
708.368	1161.95
708.56	1231.31
708.752	1190.43
708.944	1162.92
709.136	1216.78
709.329	1216.78
709.521	1379.33
709.713	1253.21
709.905	1291.76
710.097	1343.49
710.289	1251.07
710.481	1310.75
710.672	1322.37
710.864	1292.73
711.056	1364.03
711.248	1368.49
711.44	1368.29
711.632	1386.7
711.824	1342.91
712.016	1458
712.207	1442.5
712.399	1419.05
712.591	1488.61
712.783	1460.13
712.975	1501.78
713.166	1436.68
713.358	1474.27
713.55	1536.85
713.741	1523.1
713.933	1520.19
714.125	1525.42
714.316	1529.68
714.508	1648.26
714.7	1566.3
714.891	1526.97
715.083	1610.28
715.274	1558.36
715.466	1623.26
715.657	1646.12
715.849	1513.41
716.04	1593.81
716.232	1539.76
716.423	1610.09
716.615	1541.7
716.806	1519.03
716.998	1515.73
717.189	1452.96
717.381	1370.62
717.572	1375.46
717.763	1377.01
717.955	1368.29
718.146	1348.72
718.337	1348.34
718.528	1300.09
718.72	1236.35
718.911	1269.29
719.102	1276.84
719.293	1315.59
719.485	1306.1
719.676	1291.37
719.867	1234.02
720.058	1284.98
720.249	1275.68
720.44	1346.01
720.632	1358.8
720.823	1396.77
721.014	1468.46
721.205	1440.56
721.396	1553.51
721.587	1612.8
721.778	1662.79
721.969	1651.94
722.16	1749.59
722.351	1732.15
722.542	1828.25
722.733	1798.8
722.924	1772.45
723.115	1825.53
723.305	1774.39
723.496	1786.59
723.687	1653.1
723.878	1711.03
724.069	1699.79
724.26	1723.82
724.45	1633.14
724.641	1665.5
724.832	1707.93
725.023	1676.54
725.213	1676.35
725.404	1628.3
725.595	1681.58
725.785	1683.91
725.976	1749
726.167	1749.2
726.357	1752.3
726.548	1836.38
726.739	1727.89
726.929	1837.16
727.12	1833.67
727.31	1805.77
727.501	1753.46
727.691	1800.54
727.882	1818.17
728.072	1867.97
728.263	1836
728.453	1924.54
728.644	1922.41
728.834	1866.42
729.024	1883.27
729.215	1841.03
729.405	1896.45
729.596	1941.2
729.786	1978.6
729.976	1941.59
730.167	1987.31
730.357	1983.44
730.547	1972.98
730.737	2011.73
730.928	2025.09
731.118	2057.26
731.308	2005.72
731.498	2000.68
731.688	2094.07
731.879	2100.85
732.069	2163.04
732.259	2168.27
732.449	2212.06
732.639	2272.9
732.829	2265.53
733.019	2280.26
733.209	2347.68
733.399	2362.99
733.589	2401.55
733.779	2422.08
733.969	2424.6
734.159	2476.72
734.349	2517.99
734.539	2532.91
734.729	2562.55
734.919	2596.65
735.109	2599.56
735.299	2538.33
735.488	2587.54
735.678	2555.96
735.868	2562.55
736.058	2596.84
736.248	2601.69
736.437	2537.17
736.627	2525.35
736.817	2661.55
737.007	2600.91
737.196	2648.96
737.386	2621.06
737.576	2601.1
737.765	2645.86
737.955	2629.59
738.144	2753.58
738.334	2703.98
738.524	2605.75
738.713	2668.14
738.903	2679.38
739.092	2695.46
739.282	2728.01
739.471	2749.52
739.661	2747.97
739.85	2752.23
740.04	2755.33
740.229	2791.95
740.419	2799.7
740.608	2809.19
740.797	2786.33
740.987	2811.51
741.176	2840.58
741.365	2792.33
741.555	2758.43
741.744	2856.85
741.933	2845.81
742.123	2886.88
742.312	2854.91
742.501	2879.91
742.69	2872.35
742.88	2843.29
743.069	2928.54
743.258	2881.65
743.447	2952.95
743.636	2907.42
743.825	2890.95
744.014	2914.59
744.204	2923.69
744.393	2892.89
744.582	2976.97
744.771	2963.99
744.96	2905.68
745.149	2978.14
745.338	2907.03
745.527	2995.57
745.716	2954.31
745.905	2949.27
746.094	3005.07
746.283	2956.82
746.471	2988.41
746.66	3031.81
746.849	2960.31
747.038	3031.03
747.227	2989.37
747.416	3016.31
747.604	2998.09
747.793	2975.04
747.982	2996.16
748.171	3034.13
748.359	3029.48
748.548	2997.71
748.737	2999.26
748.926	3025.61
749.114	2933.38
749.303	2990.73
749.491	2978.72
749.68	2905.87
749.869	3042.85
750.057	2933.77
750.246	2984.72
750.434	2945.59
750.623	2960.51
750.811	2941.91
751	2959.34
751.188	2931.83
751.377	2976.2
751.565	2948.69
751.754	2918.66
751.942	2915.94
752.131	3017.08
752.319	2885.72
752.507	2910.71
752.696	2946.17
752.884	2976.78
753.072	2951.98
753.261	2925.24
753.449	2923.69
753.637	2912.84
753.825	2994.99
754.014	2918.08
754.202	2889.21
754.39	2952.17
754.578	2931.83
754.766	2872.93
754.955	2908.78
755.143	2977.36
755.331	2899.67
755.519	2928.93
755.707	2923.89
755.895	2894.63
756.083	2857.24
756.271	2848.33
756.459	2894.24
756.647	2930.09
756.835	2817.13
757.023	2865.96
757.211	2845.23
757.399	2812.1
757.587	2865.18
757.775	2809
757.963	2806.28
758.151	2810.35
758.339	2777.22
758.526	2760.37
758.714	2827.01
758.902	2723.75
759.09	2643.15
759.278	2496.87
759.465	2270.38
759.653	1974.33
759.841	1815.07
760.028	1510.11
760.216	1300.48
760.404	1238.87
760.591	1011.02
760.779	849.44
760.967	750.82
761.154	627.4
761.342	680.88
761.529	684.75
761.717	748.69
761.905	731.44
762.092	806.81
762.28	751.59
762.467	764.58
762.655	675.65
762.842	705.29
763.029	695.21
763.217	700.44
763.404	711.1
763.592	739.78
763.779	730.86
763.966	756.63
764.154	795.57
764.341	831.22
764.528	858.74
764.716	894.77
764.903	937.4
765.09	1029.81
765.277	1037.37
765.465	1201.28
765.652	1254.95
765.839	1297.77
766.026	1397.16
766.213	1405.1
766.4	1521.55
766.588	1712.58
766.775	1666.86
766.962	1763.73
767.149	1846.85
767.336	1975.5
767.523	1916.98
767.71	2018.89
767.897	2112.86
768.084	2172.15
768.271	2213.42
768.458	2290.92
768.645	2331.02
768.832	2310.29
769.019	2328.12
769.206	2356.6
769.392	2421.89
769.579	2497.06
769.766	2481.56
769.953	2436.23
770.14	2473.23
770.327	2486.41
770.513	2515.47
770.7	2575.72
770.887	2483.69
771.073	2521.09
771.26	2529.42
771.447	2461.99
771.634	2511.21
771.82	2548.21
772.007	2488.73
772.193	2527.87
772.38	2576.5
772.567	2521.28
772.753	2541.62
772.94	2583.86
773.126	2596.26
773.313	2579.6
773.499	2571.46
773.686	2577.66
773.872	2535.23
774.059	2515.27
774.245	2542.98
774.432	2514.69
774.618	2444.94
774.804	2517.02
774.991	2514.11
775.177	2541.43
775.363	2523.99
775.55	2524.57
775.736	2462.38
775.922	2506.56
776.109	2508.69
776.295	2502.49
776.481	2501.33
776.667	2519.15
776.853	2490.28
777.04	2473.43
777.226	2451.14
777.412	2542.79
777.598	2435.06
777.784	2445.53
777.97	2468.19
778.156	2512.95
778.342	2477.88
778.528	2428.09
778.715	2379.07
778.901	2397.09
779.087	2444.94
779.272	2393.21
779.458	2372.68
779.644	2399.41
779.83	2358.73
780.016	2501.71
780.202	2401.74
780.388	2379.85
780.574	2347.3
780.76	2341.68
780.946	2361.25
781.131	2387.4
781.317	2352.72
781.503	2348.07
781.689	2314.55
781.874	2473.23
782.06	2341.1
782.246	2326.57
782.432	2329.08
782.617	2380.62
782.803	2435.26
782.989	2315.13
783.174	2307
783.36	2242.29
783.545	2306.03
783.731	2286.07
783.916	2190.17
784.102	2305.64
784.288	2243.64
784.473	2266.7
784.659	2240.35
784.844	2330.44
785.029	2226.59
785.215	2281.03
785.4	2219.04
785.586	2299.05
785.771	2190.94
785.956	2248.29
786.142	2212.64
786.327	2230.85
786.512	2195.59
786.698	2206.05
786.883	2161.69
787.068	2221.17
787.254	2188.62
787.439	2157.23
787.624	2171.37
787.809	2142.51
787.994	2148.12
788.18	2194.82
788.365	2075.66
788.55	2141.92
788.735	2148.12
788.92	2108.41
789.105	2094.26
789.29	2131.66
789.475	2071.01
789.66	2073.53
789.845	2029.94
790.03	2042.73
790.215	2141.34
790.4	2120.42
790.585	2116.93
790.77	2082.44
790.955	1966.39
791.14	2059.19
791.325	2106.86
791.51	1971.81
791.695	2021.03
791.879	2026.26
792.064	1998.94
792.249	2041.95
792.434	2031.88
792.618	2011.92
792.803	2059.78
792.988	2022.58
793.173	2042.92
793.357	2047.76
793.542	1995.06
793.727	2017.93
793.911	2088.84
794.096	2030.52
794.281	2080.89
794.465	2157.81
794.65	2029.94
794.834	2093.29
795.019	2078.76
795.203	2136.31
795.388	2130.11
795.572	2114.22
795.757	2054.35
795.941	2078.18
796.126	2078.96
796.31	2020.83
796.494	2059.78
796.679	2079.54
796.863	2054.93
797.048	2111.89
797.232	2108.02
797.416	2056.09
797.601	2048.73
797.785	2151.22
797.969	2141.34
798.153	2043.89
798.338	2100.46
798.522	2113.83
798.706	2135.72
798.89	2151.03
799.074	2230.85
799.258	2149.67
799.443	2120.03
799.627	2099.3
799.811	2158.97
799.995	2088.64
800.179	2079.34
800.363	2082.64
800.547	2124.87
800.731	2133.4
800.915	2042.14
801.099	2057.84
801.283	2079.15
801.467	2127.39
801.651	2093.68
801.835	2150.06
802.019	2120.81
802.202	2127.97
802.386	2016.18
802.57	2037.11
802.754	2073.53
802.938	2052.03
803.121	2062.68
803.305	2126.23
803.489	2103.37
803.673	2110.92
803.856	2069.27
804.04	2043.31
804.224	2090.77
804.407	2081.67
804.591	2066.36
804.775	2087.29
804.958	2065.2
805.142	2161.11
805.326	2077.79
805.509	2095.62
805.693	2123.71
805.876	2129.72
806.06	2056.87
806.243	2136.5
806.427	2158.59
806.61	2121.58
806.794	2067.53
806.977	2155.87
807.16	2091.36
807.344	2099.11
807.527	2100.07
807.71	2059
807.894	2129.33
808.077	2120.42
808.26	2062.68
808.444	2044.47
808.627	2137.27
808.81	2045.24
808.993	2026.06
809.177	2001.65
809.36	2038.08
809.543	2049.7
809.726	1966.78
809.909	1980.92
810.092	1965.03
810.276	1964.65
810.459	1986.93
810.642	1954.18
810.825	1934.81
811.008	1926.28
811.191	1865.06
811.374	1883.08
811.557	1865.83
811.74	1947.4
811.923	1849.17
812.106	1821.08
812.289	1798.99
812.472	1817.4
812.654	1828.44
812.837	1816.62
813.02	1786.98
813.203	1719.75
813.386	1632.37
813.569	1605.83
813.751	1593.43
813.934	1642.06
814.117	1607.18
814.3	1577.73
814.482	1549.83
814.665	1503.91
814.848	1500.04
815.03	1452.57
815.213	1436.49
815.396	1429.32
815.578	1383.79
815.761	1387.08
815.943	1445.21
816.126	1377.01
816.309	1349.69
816.491	1300.09
816.674	1257.47
816.856	1303.39
817.039	1262.7
817.221	1368.1
817.403	1289.44
817.586	1287.11
817.768	1338.07
817.951	1250.11
818.133	1270.45
818.315	1271.22
818.498	1297.38
818.68	1366.94
818.862	1369.65
819.045	1345.04
819.227	1357.05
819.409	1305.71
819.591	1381.27
819.774	1328.96
819.956	1297.38
820.138	1347.56
820.32	1358.02
820.502	1387.08
820.684	1431.26
820.866	1449.47
821.048	1499.85
821.231	1495.58
821.413	1520.58
821.595	1493.06
821.777	1496.75
821.959	1462.26
822.141	1535.3
822.323	1382.82
822.505	1356.67
822.686	1334.19
822.868	1246.23
823.05	1148.58
823.232	1167.76
823.414	1057.52
823.596	1215.81
823.778	1154.2
823.96	1210
824.141	1192.76
824.323	1203.22
824.505	1266.96
824.687	1312.1
824.868	1320.63
825.05	1427.97
825.232	1440.37
825.413	1516.12
825.595	1451.41
825.777	1388.44
825.958	1445.6
826.14	1460.9
826.321	1464
826.503	1430.87
826.685	1449.28
826.866	1479.7
827.048	1426.8
827.229	1399.87
827.411	1401.23
827.592	1319.66
827.773	1362.87
827.955	1290.21
828.136	1306.1
828.318	1273.55
828.499	1336.52
828.68	1281.11
828.862	1298.54
829.043	1293.31
829.224	1272.58
829.406	1239.84
829.587	1297.19
829.768	1236.54
829.949	1312.88
830.131	1293.31
830.312	1361.7
830.493	1284.21
830.674	1310.17
830.855	1289.82
831.036	1297.19
831.218	1341.36
831.399	1360.35
831.58	1342.14
831.761	1319.27
831.942	1304.55
832.123	1310.55
832.304	1270.84
832.485	1281.69
832.666	1282.07
832.847	1287.5
833.028	1308.04
833.209	1315.2
833.389	1274.32
833.57	1229.18
833.751	1286.53
833.932	1337.49
834.113	1311.33
834.294	1312.88
834.475	1305.9
834.655	1322.76
834.836	1329.74
835.017	1339.81
835.198	1269.67
835.378	1316.75
835.559	1350.47
835.74	1311.72
835.92	1318.3
836.101	1261.92
836.281	1330.7
836.462	1294.28
836.643	1347.95
836.823	1377.2
837.004	1374.88
837.184	1402.97
837.365	1352.4
837.545	1383.98
837.726	1340
837.906	1414.79
838.087	1356.28
838.267	1346.98
838.448	1316.17
838.628	1323.92
838.808	1344.46
838.989	1399.1
839.169	1314.82
839.349	1353.76
839.53	1349.89
839.71	1382.05
839.89	1348.53
840.07	1401.03
840.251	1341.17
840.431	1384.18
840.611	1361.32
840.791	1352.4
840.971	1362.09
841.151	1364.8
841.332	1312.1
841.512	1377.01
841.692	1263.09
841.872	1360.15
842.052	1331.29
842.232	1358.6
842.412	1284.79
842.592	1334
842.772	1357.25
842.952	1352.4
843.132	1333.22
843.312	1267.54
843.492	1307.84
843.672	1338.65
843.851	1275.49
844.031	1331.48
844.211	1310.36
844.391	1267.16
844.571	1286.72
844.751	1303.58
844.93	1312.1
845.11	1288.08
845.29	1302.42
845.47	1320.05
845.649	1286.72
845.829	1324.89
846.009	1262.51
846.188	1291.76
846.368	1331.29
846.547	1285.76
846.727	1319.66
846.907	1222.4
847.086	1300.87
847.266	1318.89
847.445	1293.12
847.625	1271.03
847.804	1253.01
847.984	1298.15
848.163	1221.82
848.343	1242.16
848.522	1268.12
848.701	1290.99
848.881	1228.41
849.06	1268.12
849.239	1256.69
849.419	1272.39
849.598	1186.75
849.777	1212.52
849.957	1171.64
850.136	1160.59
850.315	1111.96
850.494	1147.03
850.674	1133.47
850.853	1217.17
851.032	1201.67
851.211	1228.41
851.39	1196.44
851.569	1118.36
851.748	1177.26
851.927	1209.42
852.107	1205.93
852.286	1164.86
852.465	1110.03
852.644	1205.35
852.823	1198.76
853.002	1148.97
853.181	1194.11
853.359	1177.84
853.538	1109.06
853.717	1201.67
853.896	1108.28
854.075	1079.8
854.254	1071.28
854.433	975.57
854.611	1026.52
854.79	951.93
854.969	1038.92
855.148	1057.13
855.327	1018.97
855.505	1032.33
855.684	1038.15
855.863	1066.24
856.041	1017.22
856.22	1064.11
856.399	1034.46
856.577	1153.04
856.756	1116.61
856.934	1218.14
857.113	1224.14
857.291	1113.71
857.47	1117.58
857.648	1149.94
857.827	1146.06
858.005	1164.28
858.184	1106.15
858.362	1217.36
858.541	1116.61
858.719	1108.67
858.898	1120.88
859.076	1097.43
859.254	1159.82
859.433	1123.39
859.611	1141.61
859.789	1069.92
859.967	1176.87
860.146	1168.73
860.324	1061.78
860.502	1078.25
860.68	1029.04
860.859	1061.4
861.037	1082.51
861.215	1108.09
861.393	1104.6
861.571	1125.91
861.749	1087.94
861.927	1090.26
862.105	1063.72
862.283	1081.55
862.461	1040.47
862.639	1056.16
862.817	1064.88
862.995	1077.86
863.173	1064.5
863.351	1085.23
863.529	1065.66
863.707	1093.95
863.885	1071.08
864.063	1006.76
864.241	1043.57
864.418	1111.58
864.596	1037.56
864.774	988.55
864.952	1024.58
865.129	1066.05
865.307	997.65
865.485	972.66
865.663	1082.32
865.84	974.21
866.018	987.19
866.196	881.4
866.373	910.47
866.551	879.08
866.728	837.81
866.906	901.17
867.084	917.05
867.261	931.39
867.439	945.73
867.616	965.3
867.794	957.35
867.971	981.57
868.149	967.62
868.326	1051.51
868.503	994.17
868.681	978.47
868.858	965.88
869.035	960.07
869.213	997.27
869.39	962.2
869.567	1013.35
869.745	976.34
869.922	967.43
870.099	1010.05
870.276	1021.29
870.454	972.66
870.631	1007.34
870.808	949.02
870.985	988.93
871.162	1009.67
871.339	978.86
871.517	906.59
871.694	909.11
871.871	939.53
872.048	955.22
872.225	933.91
872.402	948.44
872.579	931.97
872.756	948.25
872.933	920.74
873.11	925.19
873.287	905.04
873.463	928.29
873.64	888.96
873.817	946.5
873.994	911.63
874.171	897.1
874.348	916.28
874.524	883.54
874.701	908.14
874.878	859.12
875.055	932.75
875.231	902.52
875.408	946.89
875.585	829.48
875.762	918.6
875.938	887.22
876.115	879.27
876.291	870.75
876.468	887.8
876.645	834.71
876.821	853.89
876.998	899.62
877.174	902.33
877.351	844.21
877.527	852.73
877.704	878.5
877.88	868.04
878.057	845.17
878.233	885.86
878.409	858.93
878.586	867.84
878.762	860.48
878.938	834.71
879.115	790.34
879.291	820.18
879.467	818.63
879.644	826.38
879.82	872.69
879.996	822.12
880.172	779.49
880.349	801.58
880.525	881.99
880.701	809.72
880.877	809.33
881.053	815.14
881.229	837.81
881.405	822.7
881.581	805.84
881.757	816.31
881.933	812.82
882.109	866.1
882.285	827.16
882.461	791.89
882.637	808.17
882.813	773.68
882.989	791.31
883.165	846.72
883.341	787.24
883.517	811.46
883.693	823.67
883.869	857.19
884.044	766.51
884.22	815.14
884.396	844.21
884.572	853.31
884.747	857.19
884.923	832.97
885.099	836.84
885.275	856.99
885.45	795.96
885.626	801.58
885.801	763.61
885.977	784.92
886.153	752.18
886.328	831.61
886.504	814.37
886.679	868.81
886.855	766.71
887.03	778.72
887.206	814.95
887.381	816.89
887.557	808.56
887.732	852.73
887.908	840.52
888.083	832.77
888.258	799.64
888.434	775.04
888.609	803.52
888.784	829.29
888.96	763.61
889.135	782.98
889.31	750.43
889.485	819.21
889.661	807.2
889.836	805.46
890.011	802.36
890.186	799.26
890.361	783.95
890.537	798.67
890.712	839.17
890.887	809.52
891.062	793.25
891.237	826.38
891.412	784.34
891.587	805.07
891.762	806.04
891.937	829.09
892.112	761.48
892.287	797.51
892.462	771.36
892.637	736.48
892.812	712.46
892.987	764.58
893.161	710.91
893.336	722.53
893.511	720.98
893.686	740.55
893.861	747.33
894.035	731.06
894.21	741.52
894.385	667.9
894.56	720.79
894.734	674.29
894.909	684.36
895.084	691.34
895.258	674.68
895.433	694.24
895.608	652.01
895.782	592.72
895.957	624.11
896.131	623.14
896.306	582.84
896.48	576.06
896.655	601.63
896.829	500.11
897.004	567.73
897.178	527.04
897.353	545.45
897.527	563.27
897.701	539.05
897.876	489.45
898.05	594.66
898.224	568.89
898.399	596.6
898.573	563.66
898.747	433.07
898.921	528.2
899.096	415.06
899.27	425.32
899.444	417.19
899.618	442.37
899.792	518.13
899.967	452.45
900.141	516
900.315	424.35
900.489	456.71
900.663	493.14
900.837	486.94
901.011	435.01
901.185	514.25
901.359	462.52
901.533	485.97
901.707	456.32
901.881	481.32
902.055	419.32
902.229	466.01
902.403	531.69
902.576	459.04
902.75	465.24
902.924	593.5
903.098	532.47
903.272	540.41
903.446	574.9
903.619	561.72
903.793	598.34
903.967	567.34
904.14	596.79
904.314	616.94
904.488	619.65
904.661	625.66
904.835	606.09
905.009	597.37
905.182	655.3
905.356	607.45
905.529	591.95
905.703	552.42
905.876	549.13
906.05	539.83
906.223	537.12
906.397	486.94
906.57	482.48
906.744	476.47
906.917	476.86
907.09	461.94
907.264	461.17
907.437	423
907.61	404.01
907.784	439.66
907.957	446.25
908.13	428.23
908.304	452.25
908.477	411.37
908.65	454.19
908.823	378.05
908.996	477.25
909.17	420.29
909.343	393.36
909.516	403.62
909.689	413.31
909.862	399.75
910.035	423.77
910.208	363.32
910.381	373.21
910.554	461.36
910.727	395.68
910.9	381.34
911.073	404.01
911.246	468.53
911.419	459.81
911.592	449.74
911.765	389.48
911.938	366.42
912.11	412.15
912.283	393.74
912.456	478.99
912.629	395.1
912.802	396.84
912.974	377.66
913.147	325.74
913.32	278.66
913.493	312.76
913.665	347.44
913.838	349.96
914.01	382.51
914.183	381.54
914.356	370.49
914.528	387.74
914.701	414.67
914.873	398.39
915.046	342.59
915.218	310.63
915.391	273.23
915.563	282.92
915.736	344.14
915.908	384.44
916.081	339.11
916.253	347.44
916.425	371.66
916.598	361.58
916.77	355.19
916.942	341.04
917.115	263.93
917.287	333.49
917.459	342.21
917.632	302.68
917.804	269.36
917.976	319.73
918.148	327.48
918.32	312.18
918.493	397.81
918.665	432.1
918.837	359.45
919.009	397.04
919.181	398.39
919.353	372.43
919.525	361.77
919.697	348.02
919.869	370.49
920.041	412.15
920.213	449.15
920.385	408.08
920.557	377.08
920.729	386.77
920.901	408.86
921.073	360.03
921.244	363.13
921.416	401.11
921.588	355.19
921.76	374.76
921.932	446.44
922.103	367.59
922.275	361
922.447	367.01
922.619	322.06
922.79	368.56
922.962	341.04
923.134	396.65
923.305	310.04
923.477	333.29
923.648	319.73
923.82	321.67
923.991	297.64
924.163	262.38
924.335	319.93
924.506	305.39
924.677	339.49
924.849	293.77
925.02	313.53
925.192	329.42
925.363	318.38
925.535	322.83
925.706	295.32
925.877	352.28
926.049	286.21
926.22	331.74
926.391	306.36
926.562	371.07
926.734	287.57
926.905	322.25
927.076	250.37
927.247	307.33
927.419	255.21
927.59	291.44
927.761	258.89
927.932	251.14
928.103	281.18
928.274	239.91
928.445	213.17
928.616	260.64
928.787	229.06
928.958	261.22
929.129	243.98
929.3	212.4
929.471	210.85
929.642	171.9
929.813	102.93
929.984	182.95
930.155	121.92
930.326	172.87
930.496	130.25
930.667	81.42
930.838	147.1
931.009	91.88
931.18	122.88
931.35	126.37
931.521	138.77
931.692	83.94
931.863	30.08
932.033	120.56
932.204	98.08
932.374	92.66
932.545	58.17
932.716	128.7
932.886	103.9
933.057	43.45
933.227	41.9
933.398	131.8
933.568	42.87
933.739	-6.15
933.909	13.61
934.08	72.32
934.25	-7.7
934.421	-3.25
934.591	61.08
934.761	7.8
934.932	-26.69
935.102	64.95
935.272	27.56
935.443	19.23
935.613	17.29
935.783	55.85
935.953	7.22
936.123	164.54
936.294	-19.71
936.464	24.07
936.634	38.8
936.804	-18.16
936.974	-10.03
937.144	59.72
937.314	36.28
937.484	3.15
937.655	22.14
937.825	77.93
937.995	-9.25
938.165	65.34
938.334	20.2
938.504	32.99
938.674	12.25
938.844	32.6
939.014	100.8
939.184	61.08
939.354	126.76
939.524	106.22
939.694	60.89
939.863	53.14
940.033	108.55
940.203	111.45
940.373	90.53
940.542	86.46
940.712	57.4
940.882	115.91
941.051	89.37
941.221	94.21
941.391	134.9
941.56	49.07
941.73	14.77
941.899	165.31
942.069	42.67
942.238	103.51
942.408	58.56
942.577	109.71
942.747	51.97
942.916	20.97
943.086	36.47
943.255	96.15
943.425	77.35
943.594	46.16
943.763	-9.64
943.933	18.07
944.102	-2.08
944.271	49.26
944.441	72.7
944.61	43.25
944.779	44.8
944.948	144.58
945.117	26.4
945.287	27.56
945.456	-29.4
945.625	4.89
945.794	50.23
945.963	24.07
946.132	60.69
946.301	38.8
946.47	71.35
946.639	-8.09
946.808	23.3
946.977	56.62
947.146	105.64
947.315	4.7
947.484	63.21
947.653	50.42
947.822	22.72
947.991	12.06
948.16	152.33
948.329	84.13
948.498	42.09
948.666	52.17
948.835	65.34
949.004	2.57
949.173	8.19
949.341	49.84
949.51	76.58
949.679	71.35
949.847	74.45
950.016	136.64
950.185	99.63
950.353	38.22
950.522	37.64
950.69	94.21
950.859	34.73
951.028	88.78
951.196	59.72
951.365	25.04
951.533	32.02
951.701	73.28
951.87	65.92
952.038	16.52
952.207	44.42
952.375	127.34
952.543	43.25
952.712	55.07
952.88	18.07
953.048	101.18
953.217	50.81
953.385	48.87
953.553	83.55
953.721	-10.8
953.89	45
954.058	3.73
954.226	0.63
954.394	63.99
954.562	-5.38
954.73	36.47
954.898	37.64
955.067	78.71
955.235	28.53
955.403	98.47
955.571	134.32
955.739	67.08
955.907	17.29
956.075	29.3
956.243	14.77
956.41	64.18
956.578	21.75
956.746	14.58
956.914	59.72
957.082	86.65
957.25	63.79
957.418	20.97
957.585	54.69
957.753	80.26
957.921	11.09
958.089	32.99
958.256	48.68
958.424	89.37
958.592	76.77
958.759	46.55
958.927	73.09
959.095	27.17
959.262	40.54
959.43	42.48
959.597	-4.8
959.765	62.05
959.932	22.91
960.1	62.44
960.267	57.59
960.435	41.7
960.602	66.12
960.77	34.34
960.937	-4.99
961.104	79.48
961.272	7.99
961.439	44.03
961.606	55.65
961.774	108.16
961.941	49.45
962.108	65.15
962.275	65.54
962.443	95.18
962.61	69.41
962.777	105.83
962.944	72.32
963.111	95.37
963.278	82.78
963.446	51.39
963.613	87.82
963.78	67.28
963.947	87.82
964.114	49.45
964.281	126.95
964.448	51.2
964.615	57.98
964.782	41.32
964.949	99.63
965.116	70.38
965.282	104.09
965.449	49.07
965.616	19.04
965.783	90.92
965.95	63.6
966.117	34.92
966.283	60.11
966.45	56.24
966.617	88.78
966.784	113.58
966.95	95.95
967.117	101.18
967.284	38.99
967.45	32.21
967.617	97.31
967.784	91.11
967.95	138.77
968.117	69.22
968.283	130.25
968.45	157.76
968.616	86.46
968.783	100.8
968.949	82.97
969.116	110.29
969.282	88.59
969.449	102.35
969.615	72.32
969.781	40.35
969.948	57.59
970.114	23.3
970.28	112.81
970.447	57.01
970.613	117.65
970.779	72.51
970.945	103.32
971.112	93.24
971.278	96.53
971.444	80.45
971.61	114.36
971.776	48.29
971.942	68.63
972.108	106.61
972.275	73.87
972.441	77.55
972.607	157.76
972.773	44.8
972.939	110.68
973.105	65.92
973.271	52.75
973.437	44.8
973.602	43.25
973.768	76.97
973.934	71.35
974.1	71.15
974.266	-1.31
974.432	92.27
974.598	58.75
974.763	108.93
974.929	46.55
975.095	122.5
975.261	31.63
975.426	52.94
975.592	41.7
975.758	121.33
975.923	7.8
976.089	35.31
976.255	89.95
976.42	70.57
976.586	77.74
976.751	54.3
976.917	168.8
977.082	63.99
977.248	35.5
977.413	43.64
977.579	45.19
977.744	61.27
977.91	33.76
978.075	74.06
978.24	103.51
978.406	54.88
978.571	54.3
978.736	41.32
978.902	83.55
979.067	30.47
979.232	-4.02
979.397	46.35
979.563	93.63
979.728	41.7
979.893	75.22
980.058	38.41
980.223	66.12
980.388	50.42
980.554	80.84
980.719	52.55
980.884	59.14
981.049	89.95
981.214	60.69
981.379	104.48
981.544	39.77
981.709	36.67
981.874	69.41
982.039	75.42
982.204	92.66
982.368	65.34
982.533	31.05
982.698	98.67
982.863	101.57
983.028	57.01
983.193	81.81
983.357	87.62
983.522	59.92
983.687	42.09
983.852	41.12
984.016	45
984.181	64.57
984.346	62.82
984.51	74.64
984.675	61.47
984.839	79.1
985.004	65.92
985.168	81.23
985.333	67.86
985.498	61.08
985.662	89.17
985.827	74.64
985.991	80.84
986.155	45.19
986.32	81.62
986.484	100.6
986.649	113.58
986.813	17.68
986.977	64.76
987.142	70.77
987.306	25.82
987.47	48.49
987.634	18.07
987.799	76.77
987.963	79.1
988.127	73.87
988.291	126.76
988.455	96.15
988.62	51
988.784	87.23
988.948	78.71
989.112	46.74
989.276	78.13
989.44	82
989.604	37.25
989.768	31.63
989.932	107.38
990.096	21.36
990.26	20.39
990.424	39.57
990.588	85.1
990.752	121.92
990.915	85.68
991.079	50.42
991.243	18.65
991.407	97.89
991.571	45.77
991.734	105.06
991.898	69.41
992.062	169.38
992.226	59.34
992.389	19.81
992.553	22.14
992.717	14
992.88	49.45
993.044	56.43
993.207	45.19
993.371	86.46
993.535	53.72
993.698	45.39
993.862	73.67
994.025	115.91
994.189	53.72
994.352	45
994.515	68.63
994.679	96.73
994.842	34.34
995.006	74.25
995.169	19.04
995.332	16.71
995.496	95.18
995.659	11.67
995.822	67.86
995.985	41.9
996.149	86.46
996.312	36.86
996.475	116.88
996.638	23.88
996.801	110.29
996.964	77.35
997.128	53.14
997.291	36.28
997.454	57.01
997.617	32.79
997.78	76.58
997.943	46.94
998.106	75.22
998.269	20.2
998.432	37.44
998.595	39.38
998.758	-24.56
998.92	20.39
999.083	-5.76
999.246	35.7
999.409	19.81
999.572	-13.32
999.735	31.44
999.897	72.51
1000.06	14.97
1000.223	13.03
1000.386	75.42
1000.548	68.25
1000.711	63.02
1000.874	40.74
1001.036	-8.67
1001.199	97.12
1001.361	9.74
1001.524	46.94
1001.687	59.14
1001.849	30.47
1002.012	30.85
1002.174	61.85
1002.337	77.35
1002.499	42.67
1002.661	80.45
1002.824	-0.15
1002.986	21.94
1003.149	35.89
1003.311	25.62
1003.473	96.53
1003.636	7.41
1003.798	66.5
1003.96	66.12
1004.123	29.69
1004.285	22.52
1004.447	4.12
1004.609	15.74
1004.771	99.63
1004.933	-16.61
1005.096	-16.03
1005.258	14.39
1005.42	7.22
1005.582	76.19
1005.744	41.12
1005.906	-17.78
1006.068	38.6
1006.23	4.7
1006.392	-12.35
1006.554	18.45
1006.716	65.15
1006.878	33.18
1007.04	-2.08
1007.202	10.7
1007.363	45.19
1007.525	36.28
1007.687	60.69
1007.849	69.6
1008.011	-27.46
1008.172	1.99
1008.334	15.16
1008.496	53.72
1008.658	-35.21
1008.819	12.45
1008.981	-17.97
1009.143	3.15
1009.304	14.39
1009.466	37.44
1009.627	98.08
1009.789	118.23
1009.95	39.57
1010.112	8.57
1010.273	33.76
1010.435	10.7
1010.596	14
1010.758	7.6
1010.919	12.84
1011.081	-5.76
1011.242	-6.54
1011.403	62.82
1011.565	21.55
1011.726	35.5
1011.887	-37.73
1012.049	21.55
1012.21	58.95
1012.371	75.61
1012.532	-52.26
1012.693	14.39
1012.855	21.36
1013.016	14.77
1013.177	50.81
1013.338	5.47
1013.499	69.6
1013.66	62.82
1013.821	54.69
1013.982	17.68
1014.143	19.04
1014.304	-4.02
1014.465	31.63
1014.626	42.29
1014.787	23.88
1014.948	109.32
1015.109	-63.31
1015.27	78.13
1015.431	-13.71
1015.592	-13.9
1015.752	92.08
1015.913	40.93
1016.074	14.97
1016.235	18.65
1016.395	-3.05
1016.556	14.39
1016.717	14
1016.877	44.61
1017.038	8.38
1017.199	45
1017.359	22.14
1017.52	14
1017.681	-2.66
1017.841	11.48
1018.002	-19.33
1018.162	-19.33
1018.323	40.35
1018.483	22.33
1018.644	4.89
1018.804	-15.84
1018.964	-37.34
1019.125	2.57
1019.285	29.11
1019.446	-27.85
1019.606	-40.83
1019.766	-45.48
1019.926	33.18
1020.087	45.97
1020.247	-22.81
1020.407	13.61
1020.567	56.43
1020.728	25.24
1020.888	-32.89
1021.048	-10.61
1021.208	-19.33
1021.368	-7.9
1021.528	36.09
1021.688	59.34
1021.848	44.03
1022.008	28.92
1022.168	12.25
1022.328	18.65
1022.488	30.27
1022.648	-9.64
1022.808	4.7
1022.968	28.92
1023.128	15.55
1023.288	0.63
1023.448	5.67
1023.608	47.32
1023.767	24.65
1023.927	-11
1024.087	-36.76
1024.247	-35.99
1024.406	-13.13
1024.566	-6.93
1024.726	-11.96
1024.885	13.8
1025.045	57.59
1025.205	-12.35
1025.364	4.7
1025.524	18.84
1025.683	15.74
1025.843	11.09
1026.003	7.6
1026.162	81.23
1026.321	37.64
1026.481	8.38
1026.64	44.22
1026.8	31.24
1026.959	18.65
1027.119	-11.58
1027.278	26.79
1027.437	1.21
1027.597	21.75
1027.756	16.13
1027.915	21.17
1028.074	19.81
1028.234	-15.06
1028.393	9.54
1028.552	1.4
1028.711	-74.35
1028.87	41.7
1029.03	-28.63
1029.189	7.99
1029.348	-72.99
1029.507	11.67
1029.666	2.37
1029.825	-7.12
1029.984	-14.29
1030.143	4.5
1030.302	2.18
1030.461	-37.73
1030.62	26.01
1030.779	35.89
1030.938	-28.24
1031.097	-43.74
1031.255	35.12
1031.414	60.3
1031.573	49.26
1031.732	-49.36
1031.891	-10.41
1032.049	71.54
1032.208	41.51
1032.367	-4.6
1032.525	-9.06
1032.684	-9.06
1032.843	8.96
1033.001	-35.6
1033.16	153.69
1033.319	38.02
1033.477	31.05
1033.636	-7.12
1033.794	-27.46
1033.953	45.97
1034.111	24.27
1034.27	-15.06
1034.428	18.07
1034.587	-27.46
1034.745	26.01
1034.903	-16.42
1035.062	47.32
1035.22	-51.88
1035.378	36.28
1035.537	-12.93
1035.695	51
1035.853	-18.94
1036.011	27.95
1036.17	1.02
1036.328	-64.66
1036.486	10.32
1036.644	-3.05
1036.802	-64.28
1036.96	-15.84
1037.119	-1.5
1037.277	-13.13
1037.435	-45.09
1037.593	-11.19
1037.751	22.91
1037.909	39.96
1038.067	39.96
