Data from pine_FLMT105791__166__17-23-20-073.txt Node

Date: Mon Mar 20 17:23:20 GMT 2023
User: antho
Spectrometer: FLMT10579
Trigger mode: 0
Integration Time (sec): 1.000000E-1
Scans to average: 10
Electric dark correction enabled: true
Nonlinearity correction enabled: false
Boxcar width: 0
XAxis mode: Wavelengths
Number of Pixels in Spectrum: 3648
>>>>>Begin Spectral Data<<<<<
345.248	-132.36
345.464	-132.36
345.681	-132.36
345.898	-174.6
346.114	-132.94
346.331	-35.88
346.548	23.8
346.764	-13.98
346.981	9.85
347.197	-10.11
347.414	20.12
347.631	-14.76
347.847	51.7
348.064	23.6
348.28	10.62
348.497	-38.01
348.713	-26.96
348.93	44.34
349.146	57.9
349.363	-6.23
349.579	19.73
349.796	-2.94
350.012	8.11
350.229	8.3
350.445	7.33
350.661	7.72
350.878	-0.61
351.094	17.4
351.311	9.27
351.527	21.67
351.743	-1.58
351.96	54.02
352.176	29.03
352.392	42.01
352.609	34.26
352.825	-8.56
353.041	-0.61
353.257	19.54
353.474	17.21
353.69	10.82
353.906	36.2
354.122	15.66
354.339	59.45
354.555	13.53
354.771	-17.86
354.987	63.71
355.203	66.04
355.42	4.23
355.636	-10.88
355.852	-3.91
356.068	1.52
356.284	-19.6
356.5	43.37
356.716	11.79
356.932	27.48
357.148	41.24
357.364	-5.84
357.58	58.87
357.796	42.59
358.012	39.49
358.228	4.42
358.444	-42.85
358.66	41.82
358.876	32.9
359.092	-18.44
359.308	27.29
359.524	17.99
359.74	-8.17
359.956	-6.04
360.172	16.24
360.388	50.15
360.604	9.46
360.819	104.98
361.035	14.11
361.251	6.17
361.467	-40.14
361.683	59.06
361.898	24.19
362.114	42.01
362.33	13.53
362.546	46.27
362.762	26.7
362.977	13.72
363.193	-22.31
363.409	50.73
363.624	17.6
363.84	-22.51
364.056	-11.46
364.271	24.96
364.487	39.3
364.703	2.68
364.918	-9.53
365.134	24.57
365.35	11.59
365.565	96.07
365.781	32.9
365.996	31.55
366.212	61.77
366.427	33.68
366.643	32.32
366.858	-20.96
367.074	-11.08
367.289	64.68
367.505	78.82
367.72	-35.49
367.936	5.78
368.151	32.52
368.367	10.43
368.582	39.3
368.798	0.16
369.013	59.64
369.228	26.51
369.444	9.07
369.659	51.12
369.874	22.83
370.09	60.42
370.305	-68.43
370.52	-10.69
370.736	54.02
370.951	16.44
371.166	55.77
371.381	77.85
371.597	58.67
371.812	1.71
372.027	-32.39
372.242	11.79
372.458	60.03
372.673	6.56
372.888	-1.78
373.103	45.5
373.318	88.12
373.533	25.74
373.749	42.59
373.964	-27.93
374.179	63.52
374.394	-11.27
374.609	71.07
374.824	-10.3
375.039	78.05
375.254	-5.65
375.469	66.81
375.684	3.07
375.899	67.97
376.114	11.4
376.329	42.2
376.544	58.67
376.759	33.1
376.974	-11.27
377.189	16.44
377.404	28.06
377.619	48.02
377.834	-33.94
378.049	-13.4
378.264	-32.19
378.478	-2.55
378.693	-15.73
378.908	47.44
379.123	23.6
379.338	64.1
379.553	9.46
379.767	28.45
379.982	33.29
380.197	34.84
380.412	12.56
380.626	44.53
380.841	92.97
381.056	55.38
381.271	82.89
381.485	9.27
381.7	-16.69
381.915	26.7
382.129	9.27
382.344	33.68
382.559	29.03
382.773	76.69
382.988	-41.49
383.202	32.52
383.417	14.69
383.632	114.47
383.846	28.06
384.061	12.76
384.275	8.49
384.49	35.81
384.704	56.35
384.919	27.29
385.133	20.5
385.348	31.35
385.562	-18.63
385.777	59.45
385.991	15.08
386.206	22.05
386.42	4.62
386.634	66.62
386.849	30.97
387.063	33.68
387.277	-14.37
387.492	11.21
387.706	-15.14
387.92	-1.97
388.135	63.13
388.349	54.41
388.563	14.5
388.778	14.69
388.992	41.24
389.206	35.23
389.42	98.97
389.635	22.25
389.849	43.95
390.063	49.76
390.277	22.25
390.491	73.01
390.706	39.1
390.92	43.75
391.134	52.47
391.348	36.78
391.562	-16.31
391.776	13.53
391.99	-8.56
392.205	24.38
392.419	-9.33
392.633	41.82
392.847	100.72
393.061	-23.09
393.275	86.96
393.489	32.13
393.703	36.78
393.917	72.62
394.131	33.1
394.345	49.18
394.559	80.76
394.773	13.92
394.986	44.53
395.2	12.37
395.414	37.75
395.628	-7.2
395.842	23.22
396.056	-8.17
396.27	-23.67
396.484	47.05
396.697	33.68
396.911	55.38
397.125	75.14
397.339	81.73
397.553	43.37
397.766	92.77
397.98	59.06
398.194	78.63
398.408	35.81
398.621	65.07
398.835	40.85
399.049	45.3
399.262	80.57
399.476	42.79
399.69	32.9
399.903	107.5
400.117	30.39
400.331	59.45
400.544	-13.59
400.758	143.92
400.971	52.86
401.185	61.77
401.398	-15.92
401.612	70.1
401.826	52.09
402.039	40.65
402.253	17.79
402.466	53.64
402.68	39.3
402.893	44.92
403.106	32.52
403.32	11.01
403.533	48.6
403.747	40.07
403.96	38.33
404.174	63.52
404.387	-3.13
404.6	2.87
404.814	67
405.027	36.97
405.24	19.15
405.454	30.97
405.667	89.48
405.88	-11.46
406.094	22.64
406.307	35.81
406.52	34.84
406.733	-10.11
406.947	-8.17
407.16	85.6
407.373	61.39
407.586	-8.56
407.799	26.12
408.012	65.07
408.226	45.11
408.439	83.09
408.652	35.81
408.865	40.46
409.078	73.79
409.291	46.27
409.504	-10.88
409.717	21.86
409.93	53.05
410.143	26.7
410.357	-14.56
410.57	1.52
410.783	18.37
410.996	23.41
411.209	39.69
411.421	70.3
411.634	33.49
411.847	12.37
412.06	28.06
412.273	22.05
412.486	20.31
412.699	112.53
412.912	25.74
413.125	89.09
413.338	9.85
413.55	62.35
413.763	46.47
413.976	62.35
414.189	0.94
414.402	18.18
414.615	85.02
414.827	-7.39
415.04	75.53
415.253	25.54
415.466	71.07
415.678	83.67
415.891	41.62
416.104	18.57
416.316	20.12
416.529	5.59
416.742	57.32
416.954	78.82
417.167	48.6
417.38	37.94
417.592	69.14
417.805	-1.39
418.017	-0.42
418.23	37.75
418.442	41.82
418.655	27.29
418.868	39.3
419.08	78.63
419.293	61
419.505	53.64
419.718	52.28
419.93	65.65
420.142	14.11
420.355	72.04
420.567	97.04
420.78	55.57
420.992	49.18
421.205	101.88
421.417	1.52
421.629	29.22
421.842	9.27
422.054	-12.82
422.266	54.6
422.479	59.25
422.691	13.53
422.903	59.25
423.115	33.49
423.328	43.56
423.54	30.97
423.752	36
423.964	13.53
424.177	41.43
424.389	23.99
424.601	144.12
424.813	38.33
425.025	63.13
425.238	55.38
425.45	29.03
425.662	34.45
425.874	315.19
426.086	37.75
426.298	84.25
426.51	35.23
426.722	42.2
426.934	29.22
427.146	49.95
427.358	-9.72
427.57	89.09
427.782	43.17
427.994	42.4
428.206	34.45
428.418	-8.75
428.63	56.35
428.842	71.27
429.054	35.23
429.266	74.75
429.478	11.21
429.69	44.14
429.902	-12.43
430.114	72.04
430.325	73.59
430.537	20.7
430.749	54.8
430.961	-11.85
431.173	58.67
431.384	79.21
431.596	-25.99
431.808	32.52
432.02	39.49
432.231	67.97
432.443	79.21
432.655	45.89
432.867	14.31
433.078	68.94
433.29	112.73
433.502	72.04
433.713	112.15
433.925	65.26
434.136	70.1
434.348	-3.13
434.56	-1.58
434.771	135.59
434.983	-9.72
435.194	28.45
435.406	4.81
435.617	86.19
435.829	110.02
436.04	92.58
436.252	67.2
436.463	93.55
436.675	77.27
436.886	69.91
437.098	53.25
437.309	77.66
437.521	52.47
437.732	67.59
437.943	53.64
438.155	49.18
438.366	9.46
438.578	104.01
438.789	79.79
439	93.55
439.211	36.97
439.423	78.63
439.634	79.79
439.845	77.66
440.057	38.91
440.268	83.09
440.479	36.2
440.69	43.17
440.902	30.19
441.113	34.65
441.324	45.11
441.535	51.89
441.746	102.27
441.957	33.29
442.168	40.27
442.38	86.77
442.591	85.6
442.802	21.86
443.013	44.92
443.224	65.84
443.435	56.15
443.646	29.42
443.857	59.64
444.068	32.52
444.279	23.41
444.49	114.28
444.701	47.82
444.912	164.07
445.123	59.25
445.334	47.63
445.545	62.94
445.756	82.12
445.967	29.03
446.178	84.83
446.388	112.53
446.599	92
446.81	98
447.021	66.23
447.232	101.1
447.443	129.97
447.653	44.14
447.864	107.69
448.075	76.5
448.286	102.27
448.496	70.49
448.707	106.53
448.918	66.42
449.129	161.17
449.339	35.04
449.55	93.74
449.761	63.13
449.971	123
450.182	60.8
450.393	73.2
450.603	62.35
450.814	89.67
451.024	95.1
451.235	104.01
451.446	113.89
451.656	140.05
451.867	47.05
452.077	96.65
452.288	159.23
452.498	127.45
452.709	76.69
452.919	118.15
453.13	58.87
453.34	159.03
453.55	46.66
453.761	113.89
453.971	85.02
454.182	122.22
454.392	106.53
454.602	152.25
454.813	97.23
455.023	121.64
455.233	50.15
455.444	92.77
455.654	51.31
455.864	69.91
456.075	100.14
456.285	77.47
456.495	84.44
456.705	103.62
456.916	133.85
457.126	139.66
457.336	77.66
457.546	31.35
457.756	64.29
457.967	123.38
458.177	83.86
458.387	98.78
458.597	81.73
458.807	77.47
459.017	107.69
459.227	67.59
459.437	103.23
459.647	134.43
459.857	119.51
460.068	69.14
460.278	138.88
460.488	114.28
460.698	165.43
460.908	75.72
461.117	48.6
461.327	59.64
461.537	126.87
461.747	114.08
461.957	108.47
462.167	200.88
462.377	140.05
462.587	91.03
462.797	118.73
463.007	110.79
463.216	121.06
463.426	145.08
463.636	126.29
463.846	68.75
464.056	72.24
464.265	159.23
464.475	91.03
464.685	116.99
464.895	139.27
465.104	90.45
465.314	143.15
465.524	100.33
465.733	83.47
465.943	183.64
466.153	131.33
466.362	134.04
466.572	120.09
466.782	98.78
466.991	100.33
467.201	173.57
467.41	60.42
467.62	100.14
467.829	88.9
468.039	125.9
468.249	114.28
468.458	116.99
468.668	129.39
468.877	155.74
469.086	144.7
469.296	138.5
469.505	74.17
469.715	172.6
469.924	140.82
470.134	145.86
470.343	183.25
470.552	110.6
470.762	124.35
470.971	58.29
471.18	119.7
471.39	123.19
471.599	117.38
471.808	143.73
472.018	95.68
472.227	147.02
472.436	147.41
472.645	110.79
472.855	95.49
473.064	178.8
473.273	120.87
473.482	145.67
473.691	171.82
473.901	129.58
474.11	129.2
474.319	208.05
474.528	118.15
474.737	159.62
474.946	166.01
475.155	136.75
475.364	162.52
475.573	135.4
475.783	151.28
475.992	139.08
476.201	175.31
476.41	136.37
476.619	110.79
476.828	135.01
477.037	101.69
477.245	137.14
477.454	167.75
477.663	137.92
477.872	101.88
478.081	171.43
478.29	93.74
478.499	200.5
478.708	135.78
478.917	219.87
479.125	131.91
479.334	149.35
479.543	114.47
479.752	154.58
479.961	161.36
480.169	181.7
480.378	111.37
480.587	252.42
480.796	200.69
481.004	158.65
481.213	154.19
481.422	165.04
481.63	130.36
481.839	158.45
482.048	190.81
482.256	125.71
482.465	154.97
482.674	175.7
482.882	168.92
483.091	222.2
483.299	185.97
483.508	168.72
483.716	157.68
483.925	177.05
484.134	152.64
484.342	152.06
484.551	193.71
484.759	181.9
484.967	176.47
485.176	169.3
485.384	192.16
485.593	188.29
485.801	186.55
486.01	212.7
486.218	159.62
486.426	134.04
486.635	161.36
486.843	163.88
487.051	200.69
487.26	162.72
487.468	204.76
487.676	207.86
487.885	152.83
488.093	159.03
488.301	173.76
488.509	172.79
488.717	202.82
488.926	173.37
489.134	173.18
489.342	160.58
489.55	147.99
489.758	149.15
489.967	160.2
490.175	269.08
490.383	163.3
490.591	248.74
490.799	143.73
491.007	216
491.215	170.27
491.423	165.43
491.631	175.89
491.839	179.57
492.047	230.33
492.255	171.82
492.463	139.27
492.671	163.88
492.879	206.89
493.087	168.72
493.295	216.58
493.503	218.13
493.711	221.61
493.919	239.05
494.127	206.7
494.334	241.76
494.542	166.59
494.75	171.05
494.958	188.48
495.166	197.78
495.374	208.25
495.581	208.05
495.789	221.03
495.997	247.58
496.205	203.6
496.412	209.99
496.62	187.71
496.828	209.8
497.035	189.84
497.243	218.32
497.451	211.73
497.658	183.64
497.866	177.05
498.074	253
498.281	176.08
498.489	258.43
498.696	254.75
498.904	204.56
499.112	215.41
499.319	285.55
499.527	192.75
499.734	236.53
499.942	201.85
500.149	168.33
500.357	203.4
500.564	165.62
500.771	234.98
500.979	189.26
501.186	188.87
501.394	224.71
501.601	212.7
501.808	240.6
502.016	202.63
502.223	220.45
502.43	239.63
502.638	264.43
502.845	174.53
503.052	259.59
503.26	200.88
503.467	287.29
503.674	191.39
503.881	221.42
504.089	307.06
504.296	267.15
504.503	186.35
504.71	239.05
504.917	192.75
505.125	249.71
505.332	202.63
505.539	244.67
505.746	282.45
505.953	235.37
506.16	252.81
506.367	284.19
506.574	272.38
506.781	277.03
506.988	212.51
507.195	244.28
507.402	227.23
507.609	258.23
507.816	215.41
508.023	232.08
508.23	221.61
508.437	208.05
508.644	246.03
508.851	316.74
509.058	274.51
509.265	253.2
509.472	277.03
509.679	312.09
509.885	221.23
510.092	244.48
510.299	240.02
510.506	245.06
510.713	268.89
510.92	260.95
511.126	268.7
511.333	285.36
511.54	271.21
511.746	305.51
511.953	315.58
512.16	316.16
512.367	242.35
512.573	234.21
512.78	243.12
512.987	244.09
513.193	274.31
513.4	191.58
513.606	248.55
513.813	250.1
514.02	245.45
514.226	339.8
514.433	329.14
514.639	244.48
514.846	274.7
515.052	217.93
515.259	258.81
515.465	266.56
515.672	261.53
515.878	339.99
516.085	244.28
516.291	268.89
516.497	214.64
516.704	266.18
516.91	229.36
517.117	238.28
517.323	206.7
517.529	264.82
517.736	270.25
517.942	264.63
518.148	230.72
518.354	278.38
518.561	262.69
518.767	279.16
518.973	312.68
519.179	284.58
519.386	249.51
519.592	224.33
519.798	218.51
520.004	271.21
520.21	250.87
520.417	295.04
520.623	289.23
520.829	285.94
521.035	307.44
521.241	306.67
521.447	285.94
521.653	390.95
521.859	270.25
522.065	287.68
522.271	380.68
522.477	319.46
522.683	321.98
522.889	324.69
523.095	303.38
523.301	317.33
523.507	282.64
523.713	278.77
523.919	288.84
524.125	335.54
524.331	280.71
524.537	350.65
524.742	337.28
524.948	340.77
525.154	319.46
525.36	430.67
525.566	334.38
525.772	374.29
525.977	289.04
526.183	352.39
526.389	370.8
526.595	276.06
526.8	312.87
527.006	285.94
527.212	288.07
527.417	303.96
527.623	290.39
527.829	349.88
528.034	347.36
528.24	322.94
528.446	290.39
528.651	354.72
528.857	343.29
529.062	386.11
529.268	287.68
529.473	311.9
529.679	281.48
529.884	390.95
530.09	345.42
530.295	378.74
530.501	344.26
530.706	348.91
530.912	296.4
531.117	322.94
531.323	328.18
531.528	329.34
531.733	351.43
531.939	313.06
532.144	336.51
532.35	343.87
532.555	404.12
532.76	356.08
532.966	410.91
533.171	377.77
533.376	355.49
533.581	308.8
533.787	381.65
533.992	361.11
534.197	432.02
534.402	336.12
534.607	355.11
534.813	428.54
535.018	336.89
535.223	321.2
535.428	365.96
535.633	376.61
535.838	384.56
536.043	317.71
536.249	415.17
536.454	369.64
536.659	369.44
536.864	334.18
537.069	376.22
537.274	414.01
537.479	364.99
537.684	384.75
537.889	353.17
538.094	432.22
538.299	368.47
538.504	403.93
538.708	386.3
538.913	392.69
539.118	377.97
539.323	387.07
539.528	359.95
539.733	368.28
539.938	393.86
540.142	426.02
540.347	417.88
540.552	360.92
540.757	370.22
540.962	367.12
541.166	356.27
541.371	314.61
541.576	384.36
541.781	269.28
541.985	373.32
542.19	363.05
542.395	418.85
542.599	452.37
542.804	414.2
543.008	432.02
543.213	352.39
543.418	333.41
543.622	403.74
543.827	357.24
544.031	441.52
544.236	405.67
544.44	350.46
544.645	448.11
544.849	380.87
545.054	426.99
545.258	447.52
545.463	426.6
545.667	383.59
545.872	406.26
546.076	401.22
546.281	416.72
546.485	373.32
546.689	401.41
546.894	417.69
547.098	385.91
547.302	332.05
547.507	382.42
547.711	411.49
547.915	440.74
548.119	371.19
548.324	381.84
548.528	440.94
548.732	396.37
548.936	422.92
549.141	446.75
549.345	384.36
549.549	386.88
549.753	404.71
549.957	480.07
550.161	460.31
550.366	398.51
550.57	378.74
550.774	386.49
550.978	382.81
551.182	429.51
551.386	408.19
551.59	365.18
551.794	382.81
551.998	401.41
552.202	388.24
552.406	366.34
552.61	377.39
552.814	404.32
553.018	476.78
553.222	403.74
553.426	402.57
553.63	451.4
553.833	375.45
554.037	340.19
554.241	408.97
554.445	416.91
554.649	396.96
554.853	357.24
555.056	431.06
555.26	406.64
555.464	416.33
555.668	415.36
555.871	441.32
556.075	427.18
556.279	386.11
556.483	369.44
556.686	415.56
556.89	401.22
557.094	439.77
557.297	364.41
557.501	445.2
557.704	370.41
557.908	450.82
558.112	377.19
558.315	458.37
558.519	380.49
558.722	434.93
558.926	374.67
559.129	361.31
559.333	321.78
559.536	369.44
559.74	369.64
559.943	356.66
560.147	339.99
560.35	418.27
560.553	370.41
560.757	324.88
560.96	432.22
561.164	364.21
561.367	450.24
561.57	369.83
561.774	392.11
561.977	383.78
562.18	375.06
562.384	474.65
562.587	381.84
562.79	365.76
562.993	391.53
563.197	409.55
563.4	430.86
563.603	436.87
563.806	493.64
564.009	360.14
564.212	391.14
564.416	341.74
564.619	426.21
564.822	354.72
565.025	442.68
565.228	387.07
565.431	393.66
565.634	308.41
565.837	382.23
566.04	390.95
566.243	366.15
566.446	304.73
566.649	403.54
566.852	347.16
567.055	368.86
567.258	405.29
567.461	437.26
567.664	458.57
567.867	332.44
568.07	406.84
568.273	366.15
568.475	400.44
568.678	365.76
568.881	367.31
569.084	388.43
569.287	318.1
569.489	354.33
569.692	397.54
569.895	414.01
570.098	351.62
570.3	367.51
570.503	307.64
570.706	336.31
570.909	349.49
571.111	307.44
571.314	302.99
571.516	352.01
571.719	366.73
571.922	321.78
572.124	364.79
572.327	338.64
572.529	318.68
572.732	318.68
572.935	322.56
573.137	380.49
573.34	343.29
573.542	375.84
573.745	340.96
573.947	372.16
574.15	355.88
574.352	310.54
574.554	402.19
574.757	303.57
574.959	307.06
575.162	326.82
575.364	321.39
575.566	418.66
575.769	315.78
575.971	350.46
576.173	255.33
576.376	330.31
576.578	348.71
576.78	405.87
576.982	267.34
577.185	325.46
577.387	309.77
577.589	297.37
577.791	349.68
577.993	347.36
578.196	311.51
578.398	349.29
578.6	385.33
578.802	280.71
579.004	284.19
579.206	282.06
579.408	304.15
579.61	321.78
579.812	343.68
580.014	313.45
580.216	283.03
580.418	296.79
580.62	312.48
580.822	224.91
581.024	312.09
581.226	319.84
581.428	284.19
581.63	361.89
581.832	264.24
582.034	359.37
582.236	330.69
582.438	349.49
582.64	348.52
582.841	370.02
583.043	390.17
583.245	321.78
583.447	355.69
583.649	321.01
583.85	323.72
584.052	388.24
584.254	283.23
584.456	362.28
584.657	294.85
584.859	323.91
585.061	324.88
585.262	292.91
585.464	300.86
585.666	341.74
585.867	306.09
586.069	374.87
586.27	338.83
586.472	339.8
586.674	314.42
586.875	343.29
587.077	297.56
587.278	321.78
587.48	294.85
587.681	454.5
587.883	342.51
588.084	289.23
588.285	329.34
588.487	320.81
588.688	322.94
588.89	284.58
589.091	285.16
589.292	321.98
589.494	287.29
589.695	290.59
589.896	260.95
590.098	263.27
590.299	296.79
590.5	239.05
590.702	263.66
590.903	288.65
591.104	321.98
591.305	293.49
591.507	352.59
591.708	325.46
591.909	308.8
592.11	362.28
592.311	314.81
592.512	276.45
592.714	243.7
592.915	277.8
593.116	277.41
593.317	291.56
593.518	287.88
593.719	269.47
593.92	325.46
594.121	348.33
594.322	303.96
594.523	313.84
594.724	274.31
594.925	285.36
595.126	325.08
595.327	297.95
595.528	307.64
595.729	289.04
595.929	301.05
596.13	313.84
596.331	284.58
596.532	292.14
596.733	336.12
596.934	329.14
597.135	343.68
597.335	318.29
597.536	281.09
597.737	303.18
597.938	279.74
598.138	306.28
598.339	320.62
598.54	313.06
598.74	289.81
598.941	333.21
599.142	373.9
599.342	324.69
599.543	296.01
599.744	306.48
599.944	260.17
600.145	262.69
600.345	311.9
600.546	366.92
600.746	344.26
600.947	359.95
601.147	322.94
601.348	349.1
601.548	290.59
601.749	292.14
601.949	266.56
602.15	278.38
602.35	306.28
602.551	339.03
602.751	291.75
602.951	282.84
603.152	240.02
603.352	323.72
603.552	300.28
603.753	335.93
603.953	322.75
604.153	292.53
604.354	274.51
604.554	304.93
604.754	296.01
604.954	274.12
605.155	317.13
605.355	308.41
605.555	332.63
605.755	362.86
605.955	332.44
606.155	333.41
606.356	307.64
606.556	333.79
606.756	321.01
606.956	264.24
607.156	350.07
607.356	285.36
607.556	322.56
607.756	284.58
607.956	358.01
608.156	311.32
608.356	279.93
608.556	350.65
608.756	317.52
608.956	274.31
609.156	332.83
609.356	253.39
609.556	290.01
609.755	313.84
609.955	276.64
610.155	308.03
610.355	309.96
610.555	244.09
610.755	313.64
610.954	248.55
611.154	326.24
611.354	333.99
611.554	282.84
611.753	286.33
611.953	245.06
612.153	315.78
612.352	287.29
612.552	254.55
612.752	222
612.951	280.51
613.151	307.25
613.351	246.22
613.55	277.8
613.75	315.97
613.949	290.78
614.149	326.24
614.348	299.89
614.548	284.58
614.747	239.83
614.947	271.99
615.146	231.11
615.346	303.96
615.545	280.51
615.745	286.13
615.944	315.19
616.144	265.01
616.343	323.72
616.542	274.7
616.742	317.52
616.941	300.86
617.14	244.09
617.34	291.94
617.539	291.36
617.738	245.45
617.938	341.74
618.137	275.28
618.336	213.48
618.535	269.66
618.734	251.65
618.934	262.69
619.133	268.89
619.332	279.74
619.531	251.84
619.73	256.3
619.929	296.79
620.128	318.1
620.328	342.51
620.527	287.49
620.726	260.36
620.925	298.53
621.124	240.02
621.323	283.23
621.522	227.04
621.721	222.39
621.92	264.05
622.119	302.79
622.318	260.56
622.517	256.68
622.715	246.61
622.914	220.84
623.113	253
623.312	212.31
623.511	301.83
623.71	280.71
623.909	241.38
624.107	306.67
624.306	237.5
624.505	230.53
624.704	242.35
624.902	241.76
625.101	312.68
625.3	281.87
625.499	249.32
625.697	259.2
625.896	234.21
626.095	272.57
626.293	224.91
626.492	248.93
626.69	267.15
626.889	227.04
627.088	278.58
627.286	219.87
627.485	244.28
627.683	248.16
627.882	290.59
628.08	187.32
628.279	250.68
628.477	329.92
628.676	224.13
628.874	273.93
629.073	258.04
629.271	217.35
629.469	283.23
629.668	245.64
629.866	264.43
630.065	234.01
630.263	271.21
630.461	245.25
630.66	238.86
630.858	254.94
631.056	285.16
631.254	288.84
631.453	221.42
631.651	287.1
631.849	247.38
632.047	261.72
632.245	250.1
632.444	273.15
632.642	243.9
632.84	247.77
633.038	218.13
633.236	213.86
633.434	236.15
633.632	213.67
633.83	225.1
634.028	255.33
634.227	234.21
634.425	283.61
634.623	240.21
634.821	251.26
635.019	210.96
635.216	202.24
635.414	263.85
635.612	247.19
635.81	215.22
636.008	296.4
636.206	228.98
636.404	245.64
636.602	193.52
636.8	243.51
636.997	247.19
637.195	269.28
637.393	243.7
637.591	282.26
637.789	255.71
637.986	212.12
638.184	259.59
638.382	279.16
638.58	264.63
638.777	292.91
638.975	260.75
639.173	234.79
639.37	253.97
639.568	256.88
639.765	274.12
639.963	198.95
640.161	310.93
640.358	259.98
640.556	231.69
640.753	232.27
640.951	198.95
641.148	235.37
641.346	234.01
641.543	244.28
641.741	265.6
641.938	238.08
642.136	247.19
642.333	216.77
642.531	288.46
642.728	295.43
642.925	271.41
643.123	241.76
643.32	255.52
643.517	210.76
643.715	259.01
643.912	220.06
644.109	227.62
644.306	261.53
644.504	221.03
644.701	233.05
644.898	241.96
645.095	215.8
645.293	257.07
645.49	264.05
645.687	253.58
645.884	280.51
646.081	200.3
646.278	273.35
646.475	237.7
646.672	223.94
646.87	255.71
647.067	244.28
647.264	242.54
647.461	205.15
647.658	214.64
647.855	248.16
648.052	229.56
648.249	136.56
648.446	200.5
648.642	213.67
648.839	214.06
649.036	184.03
649.233	200.88
649.43	198.95
649.627	189.45
649.824	209.6
650.021	211.73
650.217	187.71
650.414	192.75
650.611	233.63
650.808	211.73
651.004	209.6
651.201	248.55
651.398	240.21
651.595	219.29
651.791	174.15
651.988	255.91
652.185	203.98
652.381	234.79
652.578	174.92
652.775	216.96
652.971	212.7
653.168	233.63
653.364	214.83
653.561	175.12
653.757	194.49
653.954	228.59
654.15	180.35
654.347	291.75
654.543	216.38
654.74	166.78
654.936	154.38
655.133	220.84
655.329	213.28
655.525	226.85
655.722	268.31
655.918	181.32
656.115	240.99
656.311	181.12
656.507	159.42
656.704	145.86
656.9	190.61
657.096	187.71
657.292	153.03
657.489	219.48
657.685	211.35
657.881	180.15
658.077	197.59
658.273	194.3
658.47	216.38
658.666	206.11
658.862	209.8
659.058	143.34
659.254	233.43
659.45	165.23
659.646	211.54
659.842	185.58
660.038	229.17
660.234	171.43
660.43	191.97
660.626	242.54
660.822	232.27
661.018	232.27
661.214	211.35
661.41	160
661.606	259.01
661.802	236.15
661.998	184.8
662.194	190.23
662.39	219.1
662.586	239.83
662.781	215.22
662.977	231.3
663.173	233.24
663.369	203.21
663.564	248.16
663.76	230.91
663.956	190.61
664.152	243.12
664.347	127.84
664.543	203.6
664.739	174.92
664.934	168.72
665.13	161.17
665.326	224.33
665.521	207.86
665.717	145.86
665.912	143.73
666.108	148.77
666.304	168.14
666.499	174.92
666.695	130.94
666.89	198.75
667.086	238.08
667.281	244.28
667.477	239.44
667.672	168.53
667.867	214.83
668.063	204.95
668.258	165.23
668.454	196.43
668.649	269.28
668.844	210.96
669.04	199.91
669.235	195.07
669.43	157.87
669.626	172.21
669.821	173.18
670.016	140.05
670.211	187.52
670.407	157.87
670.602	185.38
670.797	187.32
670.992	229.36
671.187	184.03
671.382	225.1
671.578	136.56
671.773	196.81
671.968	154.77
672.163	193.33
672.358	203.79
672.553	169.5
672.748	186.55
672.943	249.9
673.138	224.71
673.333	210.76
673.528	154.77
673.723	183.64
673.918	190.81
674.113	130.36
674.308	259.2
674.503	201.66
674.698	218.32
674.892	195.65
675.087	240.8
675.282	191.2
675.477	178.02
675.672	216.77
675.867	161.36
676.061	153.03
676.256	140.82
676.451	177.63
676.646	196.43
676.84	154.19
677.035	148.18
677.23	161.94
677.424	202.05
677.619	203.21
677.814	208.63
678.008	233.24
678.203	121.83
678.397	165.43
678.592	197.98
678.787	247.19
678.981	173.18
679.176	212.31
679.37	193.71
679.565	128.23
679.759	195.07
679.954	188.29
680.148	240.99
680.342	244.28
680.537	203.01
680.731	159.23
680.926	203.01
681.12	207.47
681.314	146.44
681.509	175.5
681.703	170.27
681.897	183.64
682.092	183.06
682.286	153.61
682.48	238.66
682.674	211.35
682.869	193.71
683.063	143.53
683.257	216.19
683.451	159.23
683.645	222
683.839	174.34
684.034	206.31
684.228	233.24
684.422	160
684.616	149.93
684.81	234.4
685.004	207.28
685.198	166.4
685.392	199.72
685.586	163.1
685.78	191.39
685.974	226.26
686.168	201.08
686.362	267.53
686.556	166.2
686.75	146.44
686.944	164.27
687.138	219.1
687.331	135.78
687.525	189.26
687.719	126.68
687.913	188.1
688.107	152.64
688.301	136.17
688.494	177.05
688.688	133.27
688.882	127.26
689.076	96.84
689.269	149.15
689.463	240.8
689.657	151.67
689.85	152.25
690.044	156.32
690.238	123.77
690.431	156.13
690.625	142.37
690.818	163.1
691.012	184.42
691.205	155.55
691.399	129.2
691.593	168.72
691.786	193.91
691.98	199.33
692.173	244.86
692.366	166.01
692.56	200.5
692.753	251.65
692.947	139.85
693.14	222
693.333	203.4
693.527	158.45
693.72	179.77
693.914	166.01
694.107	192.55
694.3	208.44
694.493	200.69
694.687	191.39
694.88	170.85
695.073	218.32
695.266	213.86
695.46	201.46
695.653	228.01
695.846	220.26
696.039	166.98
696.232	167.37
696.425	222.97
696.618	178.6
696.812	178.99
697.005	275.67
697.198	280.71
697.391	187.71
697.584	233.82
697.777	272.38
697.97	251.45
698.163	228.78
698.356	230.91
698.549	296.4
698.742	280.32
698.935	196.04
699.127	281.68
699.32	222.2
699.513	204.18
699.706	260.36
699.899	244.48
700.092	218.71
700.285	259.98
700.477	202.43
700.67	274.31
700.863	306.48
701.056	330.11
701.248	307.25
701.441	298.53
701.634	233.05
701.826	365.76
702.019	243.9
702.212	302.79
702.404	254.55
702.597	232.08
702.79	244.86
702.982	283.61
703.175	291.36
703.367	317.33
703.56	287.1
703.752	353.75
703.945	311.51
704.137	284.97
704.33	319.84
704.522	294.46
704.715	307.06
704.907	321.01
705.1	356.46
705.292	343.48
705.484	321.98
705.677	360.53
705.869	338.06
706.061	370.41
706.254	382.81
706.446	344.84
706.638	306.48
706.831	395.79
707.023	331.08
707.215	397.92
707.407	373.51
707.599	359.95
707.792	400.64
707.984	363.44
708.176	423.11
708.368	336.89
708.56	371.77
708.752	377.77
708.944	358.79
709.136	417.3
709.329	386.3
709.521	480.07
709.713	402.38
709.905	454.69
710.097	433.19
710.289	404.12
710.481	422.14
710.672	445.78
710.864	406.06
711.056	467.87
711.248	476.39
711.44	462.64
711.632	414.01
711.824	442.68
712.016	485.11
712.207	489.76
712.399	481.62
712.591	519.79
712.783	489.95
712.975	514.17
713.166	464.77
713.358	470.97
713.55	518.82
713.741	523.86
713.933	521.73
714.125	507.39
714.316	478.52
714.508	548.08
714.7	548.27
714.891	515.92
715.083	579.66
715.274	523.09
715.466	509.91
715.657	564.93
715.849	470.77
716.04	534.71
716.232	455.66
716.423	578.69
716.615	522.12
716.806	494.6
716.998	522.5
717.189	504.1
717.381	440.16
717.572	440.94
717.763	499.84
717.955	488.4
718.146	487.05
718.337	453.92
718.528	424.27
718.72	386.69
718.911	476
719.102	410.91
719.293	482.2
719.485	437.84
719.676	458.57
719.867	444.42
720.058	418.85
720.249	446.75
720.44	468.45
720.632	470.58
720.823	503.9
721.014	526.77
721.205	501
721.396	519.02
721.587	584.12
721.778	559.7
721.969	561.06
722.16	570.17
722.351	546.33
722.542	681.38
722.733	639.53
722.924	561.45
723.115	615.31
723.305	674.01
723.496	641.46
723.687	591.48
723.878	594
724.069	591.09
724.26	619.57
724.45	550.4
724.641	557.18
724.832	589.15
725.023	618.6
725.213	544.98
725.404	582.95
725.595	603.68
725.785	572.68
725.976	612.4
726.167	589.93
726.357	598.26
726.548	639.53
726.739	603.49
726.929	633.91
727.12	652.51
727.31	680.99
727.501	630.42
727.691	672.08
727.882	709.28
728.072	709.28
728.263	677.31
728.453	713.15
728.644	669.75
728.834	691.45
729.024	674.01
729.215	647.86
729.405	685.25
729.596	759.07
729.786	753.84
729.976	752.68
730.167	765.27
730.357	684.09
730.547	714.89
730.737	719.54
730.928	753.64
731.118	808.67
731.308	745.31
731.498	739.31
731.688	817.58
731.879	765.08
732.069	848.97
732.259	792.98
732.449	827.07
732.639	868.34
732.829	838.51
733.019	867.76
733.209	909.03
733.399	899.92
733.589	955.53
733.779	925.89
733.969	874.35
734.159	934.99
734.349	965.99
734.539	974.9
734.729	938.29
734.919	1025.28
735.109	1025.08
735.299	983.82
735.488	1012.68
735.678	1010.17
735.868	1035.74
736.058	1028.77
736.248	986.53
736.437	983.62
736.627	950.49
736.817	1054.73
737.007	1038.65
737.196	1069.84
737.386	997.38
737.576	998.73
737.765	1042.91
737.955	1002.61
738.144	1118.28
738.334	1097.74
738.524	1007.65
738.713	1041.75
738.903	1061.9
739.092	1090.76
739.282	1064.22
739.471	1096.38
739.661	1061.12
739.85	1106.07
740.04	1106.65
740.229	1116.15
740.419	1145.79
740.608	1135.91
740.797	1157.03
740.987	1198.1
741.176	1171.75
741.365	1101.23
741.555	1089.21
741.744	1184.54
741.933	1153.73
742.123	1164.97
742.312	1182.02
742.501	1209.14
742.69	1212.05
742.88	1149.47
743.069	1261.07
743.258	1133.2
743.447	1246.92
743.636	1181.05
743.825	1194.03
744.014	1191.9
744.204	1242.47
744.393	1188.03
744.582	1242.08
744.771	1273.08
744.96	1185.51
745.149	1237.63
745.338	1183.18
745.527	1244.21
745.716	1207.79
745.905	1208.18
746.094	1235.88
746.283	1225.03
746.471	1284.71
746.66	1296.91
746.849	1286.26
747.038	1319
747.227	1230.26
747.416	1278.89
747.604	1203.33
747.793	1286.64
747.982	1260.1
748.171	1265.91
748.359	1293.23
748.548	1271.14
748.737	1266.49
748.926	1242.27
749.114	1200.62
749.303	1244.79
749.491	1233.36
749.68	1209.14
749.869	1276.76
750.057	1271.92
750.246	1244.79
750.434	1234.72
750.623	1270.76
750.811	1270.37
751	1299.24
751.188	1238.98
751.377	1276.37
751.565	1250.02
751.754	1210.31
751.942	1223.09
752.131	1280.06
752.319	1234.33
752.507	1200.04
752.696	1249.44
752.884	1301.37
753.072	1238.98
753.261	1241.5
753.449	1222.51
753.637	1222.9
753.825	1307.37
754.014	1275.79
754.202	1219.99
754.39	1300.4
754.578	1248.28
754.766	1219.8
754.955	1250.8
755.143	1300.98
755.331	1249.25
755.519	1235.88
755.707	1247.7
755.895	1242.27
756.083	1233.17
756.271	1236.66
756.459	1225.61
756.647	1306.41
756.835	1216.7
757.023	1218.25
757.211	1240.92
757.399	1242.47
757.587	1237.82
757.775	1169.23
757.963	1220.58
758.151	1228.13
758.339	1173.88
758.526	1188.41
758.714	1233.36
758.902	1181.63
759.09	1141.53
759.278	1072.55
759.465	1029.93
759.653	860.79
759.841	831.34
760.028	663.36
760.216	597.1
760.404	657.74
760.591	464.19
760.779	413.81
760.967	375.64
761.154	271.6
761.342	350.26
761.529	334.57
761.717	351.62
761.905	287.1
762.092	358.59
762.28	298.73
762.467	340.19
762.655	296.79
762.842	331.86
763.029	332.83
763.217	318.1
763.404	342.51
763.592	373.71
763.779	289.62
763.966	313.26
764.154	335.54
764.341	384.17
764.528	376.22
764.716	413.42
764.903	425.82
765.09	404.9
765.277	462.64
765.465	534.71
765.652	548.66
765.839	553.12
766.026	606.4
766.213	605.62
766.4	682.93
766.588	773.79
766.775	730.98
766.962	776.31
767.149	760.62
767.336	872.22
767.523	811.19
767.71	875.9
767.897	954.95
768.084	1002.61
768.271	990.98
768.458	1019.85
768.645	1021.98
768.832	960.18
769.019	981.3
769.206	1006.68
769.392	1072.55
769.579	1159.74
769.766	1069.45
769.953	1078.56
770.14	1135.71
770.327	1094.64
770.513	1131.06
770.7	1167.1
770.887	1094.83
771.073	1159.35
771.26	1099.29
771.447	1087.86
771.634	1103.55
771.82	1175.04
772.007	1070.81
772.193	1095.03
772.38	1170.98
772.567	1114.21
772.753	1167.1
772.94	1170.39
773.126	1191.71
773.313	1157.99
773.499	1165.16
773.686	1164.97
773.872	1151.21
774.059	1155.28
774.245	1072.55
774.432	1127.58
774.618	1082.43
774.804	1157.8
774.991	1090.18
775.177	1167.49
775.363	1122.15
775.55	1146.56
775.736	1123.7
775.922	1073.13
776.109	1097.74
776.295	1128.74
776.481	1144.05
776.667	1184.54
776.853	1146.95
777.04	1070.42
777.226	1074.49
777.412	1171.94
777.598	1097.16
777.784	1096.96
777.97	1118.47
778.156	1144.05
778.342	1077.78
778.528	1105.88
778.715	1047.37
778.901	1093.09
779.087	1102.58
779.272	1062.67
779.458	1035.74
779.644	1118.86
779.83	1036.9
780.016	1171.56
780.202	1101.23
780.388	1062.09
780.574	1016.75
780.76	1066.35
780.946	1111.3
781.131	1091.93
781.317	1079.91
781.503	1027.8
781.689	1028.38
781.874	1134.55
782.06	1079.53
782.246	1040.39
782.432	1006.87
782.617	1063.06
782.803	1111.11
782.989	972.39
783.174	1012.68
783.36	991.37
783.545	1033.42
783.731	1037.68
783.916	992.92
784.102	1030.12
784.288	1016.95
784.473	1007.07
784.659	1034.77
784.844	1086.11
785.029	993.12
785.215	1018.69
785.4	999.32
785.586	1074.68
785.771	981.1
785.956	1020.63
786.142	1025.86
786.327	987.3
786.512	993.31
786.698	1005.32
786.883	937.9
787.068	988.85
787.254	948.17
787.439	992.73
787.624	1009.97
787.809	966.96
787.994	977.62
788.18	1029.73
788.365	964.25
788.55	977.81
788.735	928.79
788.92	970.84
789.105	972.97
789.29	999.9
789.475	931.5
789.66	954.56
789.845	927.24
790.03	924.92
790.215	981.1
790.4	994.28
790.585	1007.26
790.77	960.95
790.955	867.37
791.14	931.31
791.325	999.51
791.51	889.85
791.695	904.57
791.879	917.75
792.064	896.63
792.249	997.38
792.434	886.17
792.618	946.42
792.803	960.37
792.988	893.92
793.173	943.71
793.357	987.88
793.542	857.3
793.727	951.85
793.911	975.49
794.096	910.58
794.281	943.32
794.465	1005.52
794.65	915.42
794.834	932.67
795.019	993.31
795.203	989.24
795.388	970.06
795.572	998.54
795.757	951.65
795.941	950.88
796.126	961.54
796.31	915.04
796.494	949.14
796.679	923.17
796.863	941.39
797.048	969.87
797.232	932.67
797.416	932.28
797.601	939.06
797.785	1001.25
797.969	975.29
798.153	916.2
798.338	948.17
798.522	958.82
798.706	946.81
798.89	976.65
799.074	1047.56
799.258	955.72
799.443	932.47
799.627	951.85
799.811	967.54
799.995	961.54
800.179	961.15
800.363	951.07
800.547	947.97
800.731	961.34
800.915	915.23
801.099	927.82
801.283	929.37
801.467	962.31
801.651	913.1
801.835	993.12
802.019	958.63
802.202	991.95
802.386	902.05
802.57	930.54
802.754	968.32
802.938	935.57
803.121	934.99
803.305	1003.97
803.489	944.68
803.673	952.82
803.856	981.3
804.04	957.47
804.224	979.17
804.407	946.42
804.591	963.28
804.775	954.56
804.958	962.7
805.142	1018.3
805.326	961.92
805.509	972
805.693	1007.45
805.876	966.19
806.06	938.29
806.243	964.25
806.427	1005.9
806.61	994.08
806.794	932.28
806.977	981.68
807.16	948.36
807.344	962.89
807.527	1024.7
807.71	930.34
807.894	977.81
808.077	1007.45
808.26	939.25
808.444	947.39
808.627	987.3
808.81	942.16
808.993	916
809.177	923.75
809.36	948.55
809.543	964.05
809.726	877.26
809.909	905.54
810.092	862.92
810.276	873.57
810.459	944.1
810.642	894.3
810.825	884.81
811.008	886.75
811.191	848.58
811.374	828.04
811.557	869.89
811.74	928.6
811.923	818.94
812.106	837.54
812.289	788.91
812.472	834.05
812.654	873.38
812.837	818.55
813.02	786.19
813.203	795.11
813.386	733.69
813.569	725.74
813.751	719.93
813.934	756.74
814.117	752.09
814.3	752.68
814.482	711.21
814.665	695.91
814.848	685.45
815.03	654.45
815.213	649.41
815.396	653.09
815.578	644.18
815.761	630.23
815.943	720.9
816.126	629.84
816.309	614.34
816.491	597.48
816.674	570.17
816.856	588.77
817.039	556.6
817.221	648.63
817.403	600.58
817.586	607.95
817.768	657.16
817.951	578.3
818.133	556.41
818.315	582.95
818.498	606.98
818.68	665.68
818.862	668.59
819.045	633.33
819.227	633.13
819.409	604.65
819.591	626.74
819.774	587.6
819.956	587.41
820.138	642.82
820.32	629.65
820.502	629.84
820.684	674.6
820.866	650.18
821.048	680.99
821.231	696.88
821.413	698.43
821.595	680.21
821.777	681.96
821.959	663.55
822.141	738.53
822.323	633.71
822.505	637.4
822.686	643.98
822.868	613.76
823.05	563.77
823.232	564.93
823.414	505.65
823.596	564.55
823.778	529.09
823.96	524.83
824.141	568.23
824.323	527.93
824.505	587.99
824.687	604.85
824.868	587.02
825.05	678.47
825.232	668.2
825.413	739.11
825.595	676.15
825.777	620.54
825.958	701.72
826.14	640.69
826.321	684.09
826.503	654.25
826.685	668.01
826.866	701.14
827.048	675.76
827.229	625
827.411	623.83
827.592	599.03
827.773	638.75
827.955	573.27
828.136	612.4
828.318	554.47
828.499	633.52
828.68	551.57
828.862	595.35
829.043	620.54
829.224	623.64
829.406	572.49
829.587	599.81
829.768	572.3
829.949	636.81
830.131	584.12
830.312	664.13
830.493	604.65
830.674	613.18
830.855	579.66
831.036	600
831.218	661.42
831.399	636.04
831.58	610.66
831.761	627.9
831.942	626.74
832.123	633.33
832.304	560.09
832.485	598.84
832.666	572.3
832.847	615.5
833.028	610.47
833.209	639.33
833.389	604.07
833.57	528.32
833.751	567.07
833.932	612.98
834.113	604.65
834.294	576.56
834.475	637.01
834.655	644.76
834.836	633.91
835.017	609.88
835.198	558.93
835.378	611.24
835.559	621.32
835.74	588.38
835.92	564.55
836.101	582.95
836.281	603.3
836.462	630.42
836.643	637.2
836.823	663.75
837.004	637.01
837.184	686.61
837.365	649.21
837.545	674.6
837.726	631.78
837.906	681.18
838.087	623.83
838.267	615.12
838.448	579.66
838.628	663.55
838.808	630.03
838.989	691.26
839.169	584.89
839.349	641.08
839.53	646.89
839.71	642.43
839.89	610.47
840.07	693.2
840.251	600
840.431	669.95
840.611	638.17
840.791	614.15
840.971	623.06
841.151	574.82
841.332	574.82
841.512	647.47
841.692	589.54
841.872	648.83
842.052	624.61
842.232	629.65
842.412	576.56
842.592	639.53
842.772	650.38
842.952	626.16
843.132	609.11
843.312	603.49
843.492	588.38
843.672	612.79
843.851	550.98
844.031	606.2
844.211	597.29
844.391	587.22
844.571	618.8
844.751	600
844.93	630.81
845.11	618.22
845.29	620.93
845.47	623.45
845.649	596.71
845.829	607.56
846.009	571.91
846.188	605.04
846.368	602.72
846.547	594.58
846.727	632.55
846.907	558.73
847.086	612.4
847.266	639.33
847.445	595.35
847.625	581.02
847.804	596.13
847.984	612.98
848.163	564.93
848.343	557.77
848.522	592.64
848.701	608.72
848.881	549.24
849.06	586.44
849.239	615.31
849.419	639.72
849.598	562.03
849.777	552.73
849.957	589.73
850.136	544.59
850.315	518.24
850.494	529.09
850.674	529.29
850.853	591.87
851.032	577.33
851.211	603.49
851.39	541.49
851.569	514.56
851.748	513.98
851.927	582.95
852.107	570.55
852.286	525.02
852.465	517.08
852.644	541.3
852.823	571.13
853.002	568.42
853.181	594.77
853.359	568.23
853.538	499.84
853.717	596.13
853.896	503.32
854.075	518.44
854.254	477.75
854.433	470.19
854.611	530.25
854.79	465.74
854.969	518.63
855.148	507
855.327	469.22
855.505	492.86
855.684	504.1
855.863	493.64
856.041	443.84
856.22	502.35
856.399	475.04
856.577	544.59
856.756	530.45
856.934	611.24
857.113	643.21
857.291	548.85
857.47	501.77
857.648	524.05
857.827	534.52
858.005	540.13
858.184	485.3
858.362	587.99
858.541	515.14
858.719	516.89
858.898	538.97
859.076	507.59
859.254	589.35
859.433	517.85
859.611	509.33
859.789	490.54
859.967	569.39
860.146	574.04
860.324	499.06
860.502	507.97
860.68	448.49
860.859	488.79
861.037	521.34
861.215	522.5
861.393	479.88
861.571	492.67
861.749	471.94
861.927	509.91
862.105	496.35
862.283	487.05
862.461	454.3
862.639	463.22
862.817	493.05
862.995	477.17
863.173	473.87
863.351	495.38
863.529	496.15
863.707	536.26
863.885	527.35
864.063	451.4
864.241	472.71
864.418	520.95
864.596	494.8
864.774	440.74
864.952	479.49
865.129	508.36
865.307	473.1
865.485	460.7
865.663	510.88
865.84	451.21
866.018	489.95
866.196	385.14
866.373	430.28
866.551	415.94
866.728	377.97
866.906	408.39
867.084	422.14
867.261	413.81
867.439	450.62
867.616	478.91
867.794	445.78
867.971	430.28
868.149	457.21
868.326	485.3
868.503	473.87
868.681	465.93
868.858	446.75
869.035	446.36
869.213	491.5
869.39	427.57
869.567	520.18
869.745	438.81
869.922	431.44
870.099	455.08
870.276	487.05
870.454	489.37
870.631	472.52
870.808	443.84
870.985	472.71
871.162	501.19
871.339	458.76
871.517	411.29
871.694	430.67
871.871	454.3
872.048	453.34
872.225	458.76
872.402	452.37
872.579	424.86
872.756	454.3
872.933	410.32
873.11	421.17
873.287	472.13
873.463	436.09
873.64	399.86
873.817	456.44
873.994	430.86
874.171	417.49
874.348	448.49
874.524	364.6
874.701	409.36
874.878	370.8
875.055	463.41
875.231	437.64
875.408	467.48
875.585	370.02
875.762	419.43
875.938	427.18
876.115	432.22
876.291	421.56
876.468	418.66
876.645	358.21
876.821	416.33
876.998	389.21
877.174	440.16
877.351	408.97
877.527	397.54
877.704	436.48
877.88	398.51
878.057	395.41
878.233	450.82
878.409	406.45
878.586	423.5
878.762	401.22
878.938	400.25
879.115	339.41
879.291	407.42
879.467	380.1
879.644	384.36
879.82	413.42
879.996	384.17
880.172	336.12
880.349	366.54
880.525	411.1
880.701	354.72
880.877	351.04
881.053	387.66
881.229	394.82
881.405	416.33
881.581	341.93
881.757	391.72
881.933	365.18
882.109	415.75
882.285	370.99
882.461	349.68
882.637	397.54
882.813	336.7
882.989	365.37
883.165	433.19
883.341	365.76
883.517	394.05
883.693	405.09
883.869	384.94
884.044	369.44
884.22	393.27
884.396	434.54
884.572	378.16
884.747	414.97
884.923	408.97
885.099	398.12
885.275	412.84
885.45	344.84
885.626	379.71
885.801	356.46
885.977	338.83
886.153	320.23
886.328	389.01
886.504	348.33
886.679	411.29
886.855	375.64
887.03	382.04
887.206	397.15
887.381	385.14
887.557	393.47
887.732	393.08
887.908	414.78
888.083	419.04
888.258	358.4
888.434	390.37
888.609	418.46
888.784	413.42
888.96	339.61
889.135	352.01
889.31	324.88
889.485	350.84
889.661	329.53
889.836	420.59
890.011	407.42
890.186	327.01
890.361	329.92
890.537	406.45
890.712	372.93
890.887	402.57
891.062	359.76
891.237	430.28
891.412	353.94
891.587	394.63
891.762	400.44
891.937	429.31
892.112	343.87
892.287	376.61
892.462	312.09
892.637	326.63
892.812	322.75
892.987	338.83
893.161	344.64
893.336	368.09
893.511	364.21
893.686	351.43
893.861	323.91
894.035	335.34
894.21	332.44
894.385	306.28
894.56	325.27
894.734	310.93
894.909	327.21
895.084	320.43
895.258	312.48
895.433	332.83
895.608	337.86
895.782	291.17
895.957	325.46
896.131	310.93
896.306	279.16
896.48	303.18
896.655	291.36
896.829	241.38
897.004	256.68
897.178	243.31
897.353	240.8
897.527	298.53
897.701	266.18
897.876	217.55
898.05	281.68
898.224	250.48
898.399	307.64
898.573	281.09
898.747	197.98
898.921	272.57
899.096	180.15
899.27	216.77
899.444	201.08
899.618	201.85
899.792	204.18
899.967	221.81
900.141	257.26
900.315	177.25
900.489	219.87
900.663	243.12
900.837	242.15
901.011	193.71
901.185	294.27
901.359	243.7
901.533	233.24
901.707	254.94
901.881	195.07
902.055	189.26
902.229	243.9
902.403	253.2
902.576	228.78
902.75	234.21
902.924	305.51
903.098	238.86
903.272	286.13
903.446	284
903.619	256.68
903.793	285.74
903.967	257.65
904.14	297.76
904.314	291.75
904.488	278.77
904.661	303.57
904.835	288.84
905.009	330.5
905.182	346.78
905.356	283.23
905.529	288.84
905.703	236.53
905.876	304.34
906.05	267.92
906.223	258.43
906.397	230.14
906.57	232.08
906.744	184.03
906.917	214.25
907.09	221.23
907.264	241.18
907.437	225.1
907.61	194.49
907.784	213.09
907.957	205.34
908.13	181.9
908.304	272.96
908.477	186.74
908.65	240.8
908.823	195.07
908.996	255.91
909.17	212.9
909.343	204.76
909.516	217.55
909.689	217.55
909.862	166.98
910.035	216.38
910.208	188.87
910.381	167.56
910.554	257.65
910.727	204.95
910.9	201.08
911.073	172.6
911.246	261.14
911.419	246.8
911.592	204.37
911.765	170.47
911.938	164.46
912.11	204.76
912.283	197.98
912.456	245.64
912.629	187.9
912.802	171.43
912.974	162.72
913.147	157.68
913.32	129
913.493	174.73
913.665	182.28
913.838	182.87
914.01	144.89
914.183	167.95
914.356	147.02
914.528	188.48
914.701	231.11
914.873	205.53
915.046	186.35
915.218	173.95
915.391	119.32
915.563	167.37
915.736	207.08
915.908	199.53
916.081	172.4
916.253	129.2
916.425	167.95
916.598	180.73
916.77	193.71
916.942	142.57
917.115	137.72
917.287	203.01
917.459	160.97
917.632	175.5
917.804	92.19
917.976	189.84
918.148	140.05
918.32	191.2
918.493	177.44
918.665	206.89
918.837	145.47
919.009	176.47
919.181	219.1
919.353	167.37
919.525	159.81
919.697	170.47
919.869	164.65
920.041	217.74
920.213	260.56
920.385	176.47
920.557	152.45
920.729	166.4
920.901	180.93
921.073	182.09
921.244	198.17
921.416	228.78
921.588	167.37
921.76	168.33
921.932	264.43
922.103	188.1
922.275	187.13
922.447	170.27
922.619	100.33
922.79	162.52
922.962	150.51
923.134	196.62
923.305	128.62
923.477	128.42
923.648	151.09
923.82	169.88
923.991	143.53
924.163	112.92
924.335	142.37
924.506	132.1
924.677	176.08
924.849	155.93
925.02	171.24
925.192	145.47
925.363	130.17
925.535	165.82
925.706	126.68
925.877	183.83
926.049	135.78
926.22	142.18
926.391	166.78
926.562	182.67
926.734	127.07
926.905	165.23
927.076	108.66
927.247	135.59
927.419	106.72
927.59	135.4
927.761	172.4
927.932	120.67
928.103	142.95
928.274	110.6
928.445	105.37
928.616	130.17
928.787	119.32
928.958	166.2
929.129	146.25
929.3	129
929.471	85.8
929.642	60.61
929.813	44.72
929.984	135.59
930.155	66.23
930.326	104.2
930.496	89.87
930.667	3.84
930.838	63.9
931.009	41.82
931.18	75.14
931.35	85.6
931.521	86.38
931.692	45.69
931.863	8.3
932.033	76.89
932.204	69.14
932.374	79.02
932.545	24.96
932.716	68.94
932.886	100.14
933.057	6.17
933.227	24.57
933.398	104.59
933.568	32.32
933.739	-0.23
933.909	6.36
934.08	78.05
934.25	-22.89
934.421	0.36
934.591	53.05
934.761	10.04
934.932	-33.74
935.102	13.14
935.272	-5.46
935.443	11.21
935.613	6.36
935.783	20.31
935.953	7.14
936.123	153.61
936.294	0.74
936.464	16.44
936.634	1.32
936.804	-18.05
936.974	-25.8
937.144	31.94
937.314	39.69
937.484	18.95
937.655	0.16
937.825	48.4
937.995	-11.08
938.165	39.69
938.334	7.91
938.504	21.67
938.674	-1.58
938.844	-8.94
939.014	46.85
939.184	-3.52
939.354	56.74
939.524	45.5
939.694	14.11
939.863	15.85
940.033	83.47
940.203	60.03
940.373	48.4
940.542	95.1
940.712	25.93
940.882	83.28
941.051	73.2
941.221	25.74
941.391	101.88
941.56	4.42
941.73	19.15
941.899	107.69
942.069	48.21
942.238	69.14
942.408	-1.39
942.577	68.75
942.747	32.9
942.916	-23.28
943.086	-1.39
943.255	99.36
943.425	24.96
943.594	37.36
943.763	-30.64
943.933	-3.71
944.102	-6.62
944.271	14.69
944.441	54.22
944.61	-8.94
944.779	1.32
944.948	119.9
945.117	-17.86
945.287	27.67
945.456	-43.04
945.625	21.67
945.794	32.52
945.963	-5.07
946.132	16.05
946.301	7.72
946.47	19.54
946.639	-40.91
946.808	28.64
946.977	56.35
947.146	66.81
947.315	17.79
947.484	40.85
947.653	30.19
947.822	27.67
947.991	-6.62
948.16	115.25
948.329	44.14
948.498	15.27
948.666	3.65
948.835	39.1
949.004	-12.82
949.173	-9.14
949.341	56.54
949.51	39.69
949.679	57.7
949.847	73.79
950.016	104.59
950.185	96.26
950.353	2.68
950.522	33.29
950.69	58.48
950.859	-20.18
951.028	29.42
951.196	40.65
951.365	26.9
951.533	21.47
951.701	72.62
951.87	50.15
952.038	-13.79
952.207	36.2
952.375	98
952.543	33.68
952.712	27.29
952.88	8.11
953.048	76.69
953.217	15.66
953.385	14.5
953.553	47.44
953.721	11.01
953.89	15.27
954.058	-9.14
954.226	-10.88
954.394	26.51
954.562	-18.24
954.73	22.44
954.898	-6.62
955.067	69.52
955.235	23.8
955.403	56.35
955.571	93.74
955.739	42.59
955.907	23.6
956.075	0.55
956.243	-10.3
956.41	52.28
956.578	-14.37
956.746	-43.43
956.914	4.23
957.082	23.41
957.25	41.62
957.418	19.73
957.585	19.73
957.753	78.63
957.921	-6.04
958.089	15.85
958.256	30
958.424	39.49
958.592	39.69
958.759	42.4
958.927	60.61
959.095	3.26
959.262	40.07
959.43	43.56
959.597	-11.85
959.765	33.87
959.932	-22.31
960.1	42.2
960.267	12.17
960.435	29.22
960.602	51.5
960.77	14.5
960.937	-8.36
961.104	9.27
961.272	-43.63
961.439	-13.01
961.606	36.2
961.774	43.37
961.941	6.75
962.108	29.22
962.275	55.96
962.443	48.02
962.61	57.9
962.777	87.93
962.944	42.98
963.111	43.37
963.278	43.37
963.446	22.44
963.613	8.49
963.78	48.21
963.947	50.73
964.114	44.92
964.281	117.38
964.448	37.94
964.615	-3.91
964.782	69.72
964.949	71.27
965.116	44.92
965.282	44.34
965.449	33.49
965.616	9.66
965.783	56.15
965.95	36.97
966.117	3.65
966.283	45.69
966.45	53.25
966.617	53.44
966.784	88.51
966.95	42.59
967.117	68.17
967.284	-5.46
967.45	-5.65
967.617	60.03
967.784	66.23
967.95	102.46
968.117	3.84
968.283	78.63
968.45	121.25
968.616	35.23
968.783	96.45
968.949	31.16
969.116	88.51
969.282	37.17
969.449	40.85
969.615	24.77
969.781	-5.65
969.948	23.99
970.114	-17.86
970.28	108.27
970.447	36.59
970.613	96.26
970.779	12.37
970.945	29.22
971.112	42.4
971.278	29.8
971.444	37.17
971.61	77.08
971.776	25.54
971.942	62.35
972.108	77.27
972.275	36.78
972.441	28.64
972.607	93.55
972.773	0.55
972.939	79.4
973.105	38.72
973.271	-16.89
973.437	19.54
973.602	16.82
973.768	58.09
973.934	32.13
974.1	48.99
974.266	-26.96
974.432	29.22
974.598	16.63
974.763	62.35
974.929	18.57
975.095	90.45
975.261	2.87
975.426	0.74
975.592	41.04
975.758	136.95
975.923	-18.63
976.089	17.4
976.255	61.97
976.42	34.26
976.586	70.49
976.751	42.79
976.917	119.32
977.082	64.87
977.248	2.1
977.413	-9.91
977.579	9.07
977.744	41.82
977.91	-12.24
978.075	9.07
978.24	37.75
978.406	39.3
978.571	-1.78
978.736	19.54
978.902	61
979.067	-1.19
979.232	-33.16
979.397	17.02
979.563	65.07
979.728	5.01
979.893	20.7
980.058	7.52
980.223	71.65
980.388	44.34
980.554	23.8
980.719	31.94
980.884	16.63
981.049	68.36
981.214	15.85
981.379	56.74
981.544	22.83
981.709	26.32
981.874	2.49
982.039	46.08
982.204	75.53
982.368	25.15
982.533	-3.91
982.698	55.19
982.863	51.89
983.028	10.24
983.193	32.52
983.357	53.25
983.522	46.27
983.687	26.51
983.852	17.4
984.016	20.12
984.181	46.47
984.346	25.74
984.51	47.05
984.675	45.69
984.839	59.45
985.004	40.85
985.168	70.69
985.333	54.6
985.498	32.9
985.662	82.5
985.827	38.72
985.991	32.32
986.155	16.63
986.32	82.7
986.484	111.57
986.649	46.27
986.813	12.17
986.977	23.02
987.142	54.6
987.306	-18.44
987.47	8.69
987.634	22.64
987.799	50.15
987.963	36.97
988.127	45.11
988.291	102.27
988.455	33.29
988.62	29.8
988.784	64.49
988.948	51.31
989.112	15.27
989.276	42.79
989.44	29.03
989.604	26.9
989.768	18.95
989.932	93.16
990.096	2.1
990.26	-8.36
990.424	-0.81
990.588	0.94
990.752	98.2
990.915	56.15
991.079	2.68
991.243	40.46
991.407	67.39
991.571	17.02
991.734	62.74
991.898	48.99
992.062	129.2
992.226	48.99
992.389	-4.88
992.553	-8.75
992.717	-1
992.88	23.6
993.044	19.92
993.207	26.32
993.371	44.34
993.535	46.27
993.698	34.45
993.862	66.04
994.025	64.1
994.189	28.25
994.352	33.29
994.515	66.62
994.679	60.22
994.842	53.05
995.006	46.85
995.169	15.08
995.332	11.79
995.496	41.24
995.659	-21.54
995.822	35.42
995.985	16.63
996.149	87.54
996.312	22.44
996.475	91.22
996.638	16.63
996.801	69.14
996.964	89.67
997.128	53.05
997.291	9.66
997.454	39.88
997.617	-10.88
997.78	65.45
997.943	12.56
998.106	66.81
998.269	18.37
998.432	11.98
998.595	30.19
998.758	-40.14
998.92	-19.99
999.083	-8.36
999.246	23.02
999.409	-5.46
999.572	-18.44
999.735	13.72
999.897	22.64
1000.06	34.65
1000.223	-6.62
1000.386	49.76
1000.548	63.13
1000.711	30.19
1000.874	50.54
1001.036	-18.44
1001.199	91.8
1001.361	-16.31
1001.524	26.12
1001.687	64.87
1001.849	9.46
1002.012	33.1
1002.174	38.14
1002.337	54.22
1002.499	20.31
1002.661	67.97
1002.824	6.56
1002.986	-11.46
1003.149	15.85
1003.311	1.91
1003.473	70.3
1003.636	-16.31
1003.798	55.19
1003.96	49.57
1004.123	21.09
1004.285	28.25
1004.447	22.83
1004.609	21.47
1004.771	91.42
1004.933	-14.95
1005.096	15.08
1005.258	-21.93
1005.42	12.95
1005.582	75.92
1005.744	22.05
1005.906	-23.09
1006.068	46.85
1006.23	8.11
1006.392	-23.67
1006.554	-18.63
1006.716	45.5
1006.878	19.34
1007.04	-29.09
1007.202	3.84
1007.363	19.92
1007.525	37.36
1007.687	43.17
1007.849	50.54
1008.011	-19.79
1008.172	-7.01
1008.334	-3.91
1008.496	31.16
1008.658	-12.24
1008.819	-4.1
1008.981	5.39
1009.143	3.07
1009.304	19.15
1009.466	27.87
1009.627	57.7
1009.789	118.93
1009.95	56.74
1010.112	5.01
1010.273	13.34
1010.435	25.54
1010.596	19.34
1010.758	19.54
1010.919	-2.55
1011.081	-7.98
1011.242	-5.65
1011.403	49.18
1011.565	14.89
1011.726	34.26
1011.887	-40.91
1012.049	-2.94
1012.21	46.66
1012.371	63.32
1012.532	-61.06
1012.693	24.19
1012.855	2.68
1013.016	28.64
1013.177	56.93
1013.338	29.22
1013.499	78.44
1013.66	56.15
1013.821	47.44
1013.982	6.75
1014.143	22.83
1014.304	36.39
1014.465	42.79
1014.626	46.27
1014.787	1.52
1014.948	98.97
1015.109	-63.58
1015.27	70.49
1015.431	7.14
1015.592	-9.33
1015.752	66.62
1015.913	22.83
1016.074	42.98
1016.235	23.22
1016.395	24.96
1016.556	-0.61
1016.717	13.34
1016.877	50.54
1017.038	-4.88
1017.199	22.44
1017.359	30.58
1017.52	23.99
1017.681	-1.19
1017.841	24.19
1018.002	25.54
1018.162	24.19
1018.323	99.94
1018.483	32.13
1018.644	16.82
1018.804	-30.26
1018.964	-28.32
1019.125	-1.58
1019.285	15.47
1019.446	-14.18
1019.606	-4.29
1019.766	-29.48
1019.926	45.89
1020.087	2.49
1020.247	-35.88
1020.407	34.84
1020.567	67
1020.728	21.47
1020.888	-16.5
1021.048	0.94
1021.208	7.33
1021.368	-25.03
1021.528	64.29
1021.688	41.62
1021.848	28.06
1022.008	34.07
1022.168	-3.52
1022.328	19.34
1022.488	23.22
1022.648	-1.78
1022.808	31.74
1022.968	52.47
1023.128	-14.37
1023.288	-11.27
1023.448	-11.66
1023.608	45.89
1023.767	1.32
1023.927	-0.23
1024.087	-11.08
1024.247	-29.09
1024.406	11.01
1024.566	-8.36
1024.726	-2.55
1024.885	7.72
1025.045	57.12
1025.205	11.4
1025.364	-11.27
1025.524	30.58
1025.683	18.37
1025.843	8.69
1026.003	-10.88
1026.162	103.62
1026.321	65.07
1026.481	14.5
1026.64	-4.88
1026.8	34.07
1026.959	12.56
1027.119	16.44
1027.278	-0.61
1027.437	-17.28
1027.597	42.98
1027.756	7.14
1027.915	53.83
1028.074	30.19
1028.234	-22.7
1028.393	13.72
1028.552	3.46
1028.711	-44.21
1028.87	42.98
1029.03	-19.99
1029.189	20.89
1029.348	-70.75
1029.507	-15.92
1029.666	13.92
1029.825	-34.33
1029.984	-33.94
1030.143	18.95
1030.302	-26.38
1030.461	-42.27
1030.62	3.07
1030.779	35.42
1030.938	5.78
1031.097	-31.23
1031.255	56.93
1031.414	64.87
1031.573	56.15
1031.732	-27.93
1031.891	-12.63
1032.049	46.08
1032.208	25.74
1032.367	0.94
1032.525	-10.3
1032.684	5.78
1032.843	16.05
1033.001	-62.61
1033.16	153.03
1033.319	51.12
1033.477	38.52
1033.636	16.63
1033.794	-39.75
1033.953	38.14
1034.111	48.79
1034.27	0.94
1034.428	36.39
1034.587	-26.58
1034.745	9.46
1034.903	26.51
1035.062	13.72
1035.22	-22.12
1035.378	43.37
1035.537	-10.88
1035.695	43.56
1035.853	13.53
1036.011	1.71
1036.17	33.87
1036.328	-43.82
1036.486	19.73
1036.644	15.08
1036.802	-87.02
1036.96	-5.07
1037.119	-0.81
1037.277	10.62
1037.435	-56.99
1037.593	1.13
1037.751	19.73
1037.909	18.76
1038.067	18.76
