Data from pine_FLMT105791__154__17-23-08-074.txt Node

Date: Mon Mar 20 17:23:08 GMT 2023
User: antho
Spectrometer: FLMT10579
Trigger mode: 0
Integration Time (sec): 1.000000E-1
Scans to average: 10
Electric dark correction enabled: true
Nonlinearity correction enabled: false
Boxcar width: 0
XAxis mode: Wavelengths
Number of Pixels in Spectrum: 3648
>>>>>Begin Spectral Data<<<<<
345.248	-148.41
345.464	-148.41
345.681	-148.41
345.898	-188.13
346.114	-163.72
346.331	-5.81
346.548	33.91
346.764	-10.66
346.981	-27.9
347.197	-17.05
347.414	14.53
347.631	-21.31
347.847	59.67
348.064	-18.02
348.28	-6.97
348.497	-4.07
348.713	3.68
348.93	13.95
349.146	0.58
349.363	1.36
349.579	12.59
349.796	3.1
350.012	-14.53
350.229	27.71
350.445	8.52
350.661	-30.03
350.878	-11.04
351.094	23.64
351.311	17.44
351.527	0
351.743	0.39
351.96	18.41
352.176	48.44
352.392	20.54
352.609	46.11
352.825	-32.94
353.041	3.87
353.257	-3.29
353.474	6.59
353.69	30.22
353.906	13.56
354.122	-6.2
354.339	57.54
354.555	20.73
354.771	-3.49
354.987	77.5
355.203	60.06
355.42	6.2
355.636	3.87
355.852	-17.05
356.068	21.89
356.284	-26.54
356.5	78.66
356.716	26.54
356.932	-12.4
357.148	25.19
357.364	2.91
357.58	52.31
357.796	35.26
358.012	42.82
358.228	17.44
358.444	-44.56
358.66	22.67
358.876	15.5
359.092	-30.42
359.308	15.69
359.524	9.69
359.74	6.01
359.956	-6.39
360.172	-13.56
360.388	40.3
360.604	-8.52
360.819	84.67
361.035	8.72
361.251	22.47
361.467	-4.65
361.683	35.84
361.898	12.01
362.114	25.57
362.33	21.31
362.546	49.99
362.762	-20.15
362.977	8.52
363.193	0.77
363.409	56.96
363.624	7.36
363.84	-6.39
364.056	-15.89
364.271	38.75
364.487	15.5
364.703	-10.46
364.918	-17.82
365.134	-5.62
365.35	-10.27
365.565	109.47
365.781	32.74
365.996	2.32
366.212	71.11
366.427	42.62
366.643	6.97
366.858	5.81
367.074	-15.31
367.289	63.55
367.505	109.66
367.72	-48.44
367.936	5.42
368.151	50.76
368.367	34.1
368.582	8.33
368.798	9.3
369.013	35.65
369.228	7.17
369.444	11.62
369.659	75.17
369.874	20.34
370.09	52.51
370.305	-46.31
370.52	-8.52
370.736	46.31
370.951	-4.65
371.166	57.93
371.381	78.27
371.597	40.49
371.812	-7.17
372.027	-11.62
372.242	0
372.458	99
372.673	0.77
372.888	-9.3
373.103	24.41
373.318	107.53
373.533	45.34
373.749	30.61
373.964	-21.31
374.179	40.69
374.394	5.81
374.609	32.94
374.824	-21.12
375.039	74.21
375.254	4.07
375.469	71.69
375.684	29.64
375.899	36.23
376.114	43.98
376.329	18.41
376.544	55.02
376.759	36.04
376.974	-9.11
377.189	5.81
377.404	18.6
377.619	39.14
377.834	-36.23
378.049	-47.47
378.264	-17.44
378.478	34.49
378.693	-7.94
378.908	17.82
379.123	13.56
379.338	72.07
379.553	34.29
379.767	32.36
379.982	48.24
380.197	28.09
380.412	13.17
380.626	10.85
380.841	102.88
381.056	10.07
381.271	73.43
381.485	-6.78
381.7	-7.36
381.915	25.57
382.129	-15.5
382.344	25.77
382.559	30.81
382.773	71.11
382.988	-6.2
383.202	35.46
383.417	-14.34
383.632	108.5
383.846	12.01
384.061	55.61
384.275	6.01
384.49	28.87
384.704	40.49
384.919	13.95
385.133	36.62
385.348	33.13
385.562	-20.54
385.777	49.6
385.991	27.32
386.206	8.52
386.42	7.75
386.634	73.43
386.849	43.59
387.063	10.66
387.277	-14.92
387.492	7.17
387.706	-12.98
387.92	-18.99
388.135	62.19
388.349	37.97
388.563	43.98
388.778	27.32
388.992	64.52
389.206	46.69
389.42	109.27
389.635	3.29
389.849	35.65
390.063	73.62
390.277	24.02
390.491	90.09
390.706	45.34
390.92	50.76
391.134	21.7
391.348	53.47
391.562	-24.99
391.776	20.73
391.99	8.14
392.205	64.71
392.419	-1.55
392.633	25.38
392.847	65.87
393.061	-18.02
393.275	78.47
393.489	54.25
393.703	28.48
393.917	49.99
394.131	12.21
394.345	51.15
394.559	55.61
394.773	3.49
394.986	45.92
395.2	15.31
395.414	41.46
395.628	2.71
395.842	40.11
396.056	20.15
396.27	-54.83
396.484	21.51
396.697	25.19
396.911	76.92
397.125	54.06
397.339	74.59
397.553	24.8
397.766	90.48
397.98	62
398.194	53.09
398.408	22.47
398.621	30.81
398.835	55.99
399.049	23.83
399.262	65.68
399.476	73.82
399.69	54.83
399.903	109.66
400.117	22.09
400.331	64.91
400.544	10.46
400.758	142.99
400.971	64.91
401.185	77.89
401.398	-9.69
401.612	89.51
401.826	74.01
402.039	61.81
402.253	19.57
402.466	57.74
402.68	32.74
402.893	53.86
403.106	47.47
403.32	43.59
403.533	66.46
403.747	34.29
403.96	68.2
404.174	92.22
404.387	27.12
404.6	57.16
404.814	64.13
405.027	53.86
405.24	48.82
405.454	20.15
405.667	62
405.88	2.32
406.094	46.89
406.307	54.83
406.52	39.14
406.733	23.06
406.947	7.17
407.16	94.16
407.373	100.36
407.586	16.08
407.799	10.66
408.012	72.46
408.226	66.07
408.439	99.97
408.652	7.94
408.865	73.04
409.078	79.24
409.291	43.98
409.504	7.17
409.717	55.8
409.93	84.28
410.143	48.24
410.357	23.25
410.57	31
410.783	49.99
410.996	38.17
411.209	46.89
411.421	78.08
411.634	48.44
411.847	49.99
412.06	54.83
412.273	41.85
412.486	47.08
412.699	150.74
412.912	51.92
413.125	97.45
413.338	56.77
413.55	66.65
413.763	82.73
413.976	88.74
414.189	20.92
414.402	45.53
414.615	102.69
414.827	19.76
415.04	96.1
415.253	74.21
415.466	84.28
415.678	134.27
415.891	91.84
416.104	55.61
416.316	80.41
416.529	24.41
416.742	101.91
416.954	105.01
417.167	55.22
417.38	57.54
417.592	90.67
417.805	28.67
418.017	-3.29
418.23	95.32
418.442	39.52
418.655	51.34
418.868	45.34
419.08	93
419.293	110.05
419.505	73.62
419.718	65.68
419.93	104.04
420.142	42.82
420.355	111.4
420.567	96.68
420.78	101.52
420.992	53.09
421.205	130.59
421.417	17.63
421.629	74.21
421.842	20.73
422.054	39.33
422.266	89.12
422.479	117.99
422.691	44.17
422.903	75.56
423.115	45.34
423.328	64.32
423.54	95.71
423.752	74.79
423.964	49.79
424.177	63.94
424.389	24.61
424.601	172.63
424.813	106.37
425.025	75.17
425.238	68.2
425.45	66.07
425.662	80.79
425.874	383.04
426.086	71.49
426.298	104.82
426.51	92.03
426.722	91.06
426.934	74.98
427.146	105.79
427.358	52.51
427.57	109.27
427.782	66.84
427.994	101.52
428.206	65.49
428.418	49.21
428.63	122.64
428.842	95.32
429.054	83.51
429.266	115.47
429.478	64.13
429.69	110.63
429.902	47.08
430.114	135.62
430.325	102.88
430.537	68.01
430.749	68.59
430.961	22.09
431.173	48.05
431.384	113.73
431.596	0
431.808	57.54
432.02	66.07
432.231	89.7
432.443	134.27
432.655	98.62
432.867	61.22
433.078	128.45
433.29	176.89
433.502	129.04
433.713	127.29
433.925	98.23
434.136	152.09
434.348	52.7
434.56	38.94
434.771	202.08
434.983	60.06
435.194	68.2
435.406	79.82
435.617	140.85
435.829	157.13
436.04	148.22
436.252	139.11
436.463	147.44
436.675	165.85
436.886	130.78
437.098	135.24
437.309	180.18
437.521	133.88
437.732	155
437.943	142.99
438.155	122.06
438.366	57.35
438.578	181.35
438.789	133.88
439	155.19
439.211	136.01
439.423	144.92
439.634	135.24
439.845	167.98
440.057	135.04
440.268	196.65
440.479	99.78
440.69	143.18
440.902	124.58
441.113	142.6
441.324	106.75
441.535	169.14
441.746	198.59
441.957	121.67
442.168	120.51
442.38	167.01
442.591	193.36
442.802	133.88
443.013	122.45
443.224	172.44
443.435	162.17
443.646	164.88
443.857	146.86
444.068	142.02
444.279	131.17
444.49	201.69
444.701	149.77
444.912	271.83
445.123	184.45
445.334	222.03
445.545	182.51
445.756	177.28
445.967	144.92
446.178	181.73
446.388	205.18
446.599	193.94
446.81	226.1
447.021	169.53
447.232	232.5
447.443	235.02
447.653	166.62
447.864	252.26
448.075	182.51
448.286	229.98
448.496	213.9
448.707	239.47
448.918	163.14
449.129	275.31
449.339	178.63
449.55	223.97
449.761	197.04
449.971	262.53
450.182	191.23
450.393	220.68
450.603	203.82
450.814	265.43
451.024	219.71
451.235	266.79
451.446	278.41
451.656	257.68
451.867	183.87
452.077	239.08
452.288	279.96
452.498	280.55
452.709	204.4
452.919	222.23
453.13	196.46
453.34	258.07
453.55	184.64
453.761	268.73
453.971	233.27
454.182	254.97
454.392	247.22
454.602	302.05
454.813	206.73
455.023	273.18
455.233	197.82
455.444	250.9
455.654	171.85
455.864	190.45
456.075	212.93
456.285	191.42
456.495	235.6
456.705	271.83
456.916	303.6
457.126	314.84
457.336	245.09
457.546	203.82
457.756	222.03
457.967	286.55
458.177	211.96
458.387	248.19
458.597	198.4
458.807	222.23
459.017	236.18
459.227	237.73
459.437	238.89
459.647	270.86
459.857	302.63
460.068	226.68
460.278	292.36
460.488	282.1
460.698	318.52
460.908	253.23
461.117	217.19
461.327	204.6
461.537	283.45
461.747	289.65
461.957	253.42
462.167	364.44
462.377	308.25
462.587	261.95
462.797	318.91
463.007	296.63
463.216	290.43
463.426	348.16
463.636	306.9
463.846	240.44
464.056	237.92
464.265	350.88
464.475	235.02
464.685	289.65
464.895	304.38
465.104	285.2
465.314	297.6
465.524	268.15
465.733	260.98
465.943	368.51
466.153	347.2
466.362	295.66
466.572	322.78
466.782	298.37
466.991	328.98
467.201	342.16
467.41	254.78
467.62	308.45
467.829	288.49
468.039	311.74
468.249	315.61
468.458	305.73
468.668	347.78
468.877	357.08
469.086	366.96
469.296	347.78
469.505	301.86
469.715	390.01
469.924	350.88
470.134	376.45
470.343	372.58
470.552	328.21
470.762	320.46
470.971	307.48
471.18	311.93
471.39	339.06
471.599	315.42
471.808	363.86
472.018	309.41
472.227	366.57
472.436	375.68
472.645	351.07
472.855	318.71
473.064	378.39
473.273	346.03
473.482	384.01
473.691	418.88
473.901	393.69
474.11	365.21
474.319	438.06
474.528	383.23
474.737	435.35
474.946	375.87
475.155	390.01
475.364	431.86
475.573	387.11
475.783	394.86
475.992	401.06
476.201	464.8
476.41	403.38
476.619	365.21
476.828	413.84
477.037	387.3
477.245	430.31
477.454	440
477.663	366.57
477.872	400.28
478.081	469.45
478.29	402.03
478.499	486.69
478.708	431.48
478.917	503.16
479.125	456.86
479.334	439.81
479.543	425.28
479.752	469.84
479.961	434.38
480.169	495.61
480.378	445.42
480.587	539.97
480.796	514.4
481.004	459.96
481.213	517.89
481.422	492.7
481.63	467.12
481.839	494.44
482.048	536.87
482.256	496.96
482.465	501.22
482.674	514.59
482.882	515.56
483.091	564.58
483.299	518.47
483.508	541.33
483.716	493.28
483.925	544.24
484.134	505.68
484.342	505.49
484.551	585.89
484.759	529.9
484.967	533.58
485.176	542.69
485.384	556.25
485.593	574.07
485.801	531.25
486.01	534.74
486.218	489.6
486.426	428.38
486.635	467.32
486.843	475.07
487.051	496.57
487.26	489.99
487.468	532.8
487.676	556.25
487.885	489.79
488.093	540.36
488.301	558.77
488.509	546.95
488.717	568.45
488.926	558.96
489.134	559.74
489.342	602.75
489.55	545.79
489.758	567.1
489.967	560.7
490.175	666.68
490.383	573.3
490.591	653.9
490.799	558.38
491.007	636.07
491.215	615.73
491.423	616.31
491.631	633.94
491.839	594.22
492.047	657.58
492.255	543.27
492.463	560.9
492.671	595.39
492.879	635.68
493.087	618.25
493.295	626.38
493.503	679.47
493.711	671.14
493.919	692.65
494.127	677.34
494.334	677.34
494.542	613.21
494.75	601
494.958	607.59
495.166	708.15
495.374	669.4
495.581	656.03
495.789	638.78
495.997	698.46
496.205	682.57
496.412	677.15
496.62	644.98
496.828	704.46
497.035	677.34
497.243	696.13
497.451	684.9
497.658	685.48
497.866	712.21
498.074	751.35
498.281	624.06
498.489	736.63
498.696	674.43
498.904	666.1
499.112	674.24
499.319	751.35
499.527	668.43
499.734	754.45
499.942	692.65
500.149	645.57
500.357	723.84
500.564	657.19
500.771	677.53
500.979	664.55
501.186	685.87
501.394	689.16
501.601	686.45
501.808	746.31
502.016	691.87
502.223	673.85
502.43	698.07
502.638	688.77
502.845	637.62
503.052	753.68
503.26	679.08
503.467	791.07
503.674	695.94
503.881	732.56
504.089	782.74
504.296	738.95
504.503	666.68
504.71	706.01
504.917	656.03
505.125	728.3
505.332	747.28
505.539	694.39
505.746	806.76
505.953	790.88
506.16	794.94
506.367	819.94
506.574	810.25
506.781	822.46
506.988	755.42
507.195	768.79
507.402	775.96
507.609	786.81
507.816	760.65
508.023	760.65
508.23	745.54
508.437	747.48
508.644	813.16
508.851	828.46
509.058	812.19
509.265	792.04
509.472	812.58
509.679	869.54
509.885	799.21
510.092	824.59
510.299	779.06
510.506	801.14
510.713	805.41
510.92	778.09
511.126	804.83
511.333	857.14
511.54	837.57
511.746	861.4
511.953	873.03
512.16	888.91
512.367	816.06
512.573	841.83
512.78	836.79
512.987	833.5
513.193	841.44
513.4	770.34
513.606	818.78
513.813	839.89
514.02	837.38
514.226	901.31
514.433	896.86
514.639	802.89
514.846	855.78
515.052	814.51
515.259	855.39
515.465	842.99
515.672	836.02
515.878	926.31
516.085	841.83
516.291	925.72
516.497	827.3
516.704	849.97
516.91	786.61
517.117	755.03
517.323	732.56
517.529	778.09
517.736	783.13
517.942	820.91
518.148	802.89
518.354	824.98
518.561	813.74
518.767	857.91
518.973	874.57
519.179	867.99
519.386	827.88
519.592	806.57
519.798	860.04
520.004	926.89
520.21	889.49
520.417	905.19
520.623	944.32
520.829	912.74
521.035	962.34
521.241	935.8
521.447	928.05
521.653	1003.8
521.859	917.59
522.065	933.86
522.271	1030.15
522.477	984.62
522.683	1004.39
522.889	964.09
523.095	987.92
523.301	957.5
523.507	933.09
523.713	958.66
523.919	923.59
524.125	1053.02
524.331	977.07
524.537	1028.99
524.742	1033.84
524.948	1024.34
525.154	1015.24
525.36	1128.77
525.566	997.22
525.772	1069.48
525.977	990.63
526.183	1043.14
526.389	1083.43
526.595	1023.37
526.8	1018.34
527.006	952.85
527.212	939.67
527.417	920.11
527.623	923.59
527.829	1024.15
528.034	1032.29
528.24	997.99
528.446	1001.48
528.651	1064.25
528.857	1070.45
529.062	1084.98
529.268	1060.38
529.473	1058.25
529.679	1070.07
529.884	1106.68
530.09	1110.56
530.295	1100.1
530.501	1113.47
530.706	1092.15
530.912	1057.86
531.117	1082.47
531.323	1076.07
531.528	1145.43
531.733	1127.22
531.939	1092.54
532.144	1134.39
532.35	1132.65
532.555	1152.99
532.76	1151.63
532.966	1121.6
533.171	1132.45
533.376	1066
533.581	1056.5
533.787	1090.8
533.992	1113.47
534.197	1156.86
534.402	1091.38
534.607	1120.63
534.813	1210.73
535.018	1122.38
535.223	1128.58
535.428	1128
535.633	1169.46
535.838	1197.94
536.043	1171.01
536.249	1240.95
536.454	1149.89
536.659	1190.58
536.864	1142.72
537.069	1163.65
537.274	1159.19
537.479	1195.23
537.684	1215.18
537.889	1125.67
538.094	1227.58
538.299	1172.75
538.504	1209.18
538.708	1193.87
538.913	1208.79
539.118	1151.44
539.323	1203.95
539.528	1168.3
539.733	1194.45
539.938	1192.51
540.142	1218.86
540.347	1166.36
540.552	1151.63
540.757	1192.13
540.962	1142.72
541.166	1147.18
541.371	1123.93
541.576	1174.3
541.781	1079.95
541.985	1181.28
542.19	1188.45
542.395	1232.04
542.599	1251.03
542.804	1237.08
543.008	1261.88
543.213	1191.93
543.418	1179.15
543.622	1177.21
543.827	1136.52
544.031	1260.71
544.236	1279.51
544.44	1202.2
544.645	1270.4
544.849	1247.54
545.054	1267.3
545.258	1331.43
545.463	1272.92
545.667	1182.05
545.872	1241.14
546.076	1261.49
546.281	1276.21
546.485	1213.25
546.689	1265.75
546.894	1259.94
547.098	1228.36
547.302	1192.9
547.507	1219.06
547.711	1264.2
547.915	1272.73
548.119	1204.14
548.324	1216.35
548.528	1278.93
548.732	1239.21
548.936	1252.96
549.141	1255.87
549.345	1256.45
549.549	1249.67
549.753	1253.35
549.957	1328.52
550.161	1313.22
550.366	1236.88
550.57	1233.2
550.774	1227.97
550.978	1277.96
551.182	1254.71
551.386	1229.52
551.59	1224.09
551.794	1236.88
551.998	1245.6
552.202	1247.93
552.406	1219.06
552.61	1261.49
552.814	1259.94
553.018	1300.82
553.222	1230.88
553.426	1213.05
553.63	1325.04
553.833	1243.66
554.037	1197.16
554.241	1274.66
554.445	1291.52
554.649	1226.81
554.853	1261.1
555.056	1303.53
555.26	1319.03
555.464	1280.28
555.668	1273.11
555.871	1310.89
556.075	1313.61
556.279	1252.38
556.483	1220.03
556.686	1247.93
556.89	1220.22
557.094	1268.66
557.297	1174.88
557.501	1260.13
557.704	1174.5
557.908	1267.11
558.112	1190.96
558.315	1292.29
558.519	1222.55
558.722	1249.28
558.926	1217.7
559.129	1188.64
559.333	1165.97
559.536	1173.33
559.74	1160.16
559.943	1181.28
560.147	1144.85
560.35	1163.65
560.553	1155.51
560.757	1106.1
560.96	1230.1
561.164	1175.85
561.367	1265.17
561.57	1210.73
561.774	1189.41
561.977	1213.63
562.18	1158.61
562.384	1324.46
562.587	1195.23
562.79	1162.1
562.993	1175.27
563.197	1213.44
563.4	1266.14
563.603	1239.79
563.806	1274.86
564.009	1189.03
564.212	1223.13
564.416	1176.24
564.619	1211.89
564.822	1149.7
565.025	1224.68
565.228	1194.65
565.431	1172.75
565.634	1102.23
565.837	1155.7
566.04	1178.37
566.243	1151.25
566.446	1074.52
566.649	1213.44
566.852	1121.6
567.055	1127.8
567.258	1177.21
567.461	1220.22
567.664	1217.9
567.867	1092.15
568.07	1176.24
568.273	1113.47
568.475	1191.55
568.678	1144.66
568.881	1111.92
569.084	1126.06
569.287	1017.75
569.489	1028.02
569.692	1116.57
569.895	1118.12
570.098	1047.4
570.3	1034.03
570.503	985.98
570.706	1027.83
570.909	1022.79
571.111	1028.99
571.314	1033.25
571.516	1056.5
571.719	1096.42
571.922	1049.92
572.124	1042.17
572.327	1056.5
572.529	1023.18
572.732	1001.87
572.935	1068.9
573.137	1104.94
573.34	1028.8
573.542	1082.66
573.745	1063.09
573.947	1051.85
574.15	1079.37
574.352	1052.82
574.554	1118.7
574.757	1034.61
574.959	1000.51
575.162	1002.25
575.364	1010.59
575.566	1110.17
575.769	1006.32
575.971	1039.65
576.173	935.8
576.376	992.37
576.578	1036.16
576.78	1034.22
576.982	952.07
577.185	967.19
577.387	973
577.589	971.45
577.791	1033.64
577.993	985.98
578.196	985.4
578.398	1049.14
578.6	1030.15
578.802	965.05
579.004	973.58
579.206	961.57
579.408	1019.89
579.61	973.97
579.812	1053.6
580.014	946.26
580.216	948.01
580.418	978.81
580.62	972.61
580.822	952.46
581.024	954.01
581.226	1021.44
581.428	977.26
581.63	1062.9
581.832	944.71
582.034	1055.15
582.236	989.85
582.438	1010.78
582.64	1014.85
582.841	1051.27
583.043	1108.62
583.245	1028.99
583.447	1047.01
583.649	994.31
583.85	1014.65
584.052	1074.52
584.254	994.5
584.456	1056.31
584.657	938.12
584.859	1014.07
585.061	998.19
585.262	1019.3
585.464	976.49
585.666	1010.97
585.867	968.35
586.069	1035
586.27	975.32
586.472	997.02
586.674	969.7
586.875	963.5
587.077	930.37
587.278	982.49
587.48	961.95
587.681	1081.69
587.883	965.64
588.084	878.45
588.285	948.2
588.487	933.47
588.688	955.76
588.89	901.12
589.091	883.1
589.292	915.46
589.494	857.53
589.695	868.57
589.896	762.98
590.098	793.98
590.299	850.74
590.5	797.46
590.702	868.38
590.903	875.74
591.104	925.14
591.305	894.14
591.507	980.75
591.708	932.31
591.909	889.3
592.11	970.48
592.311	926.31
592.512	887.94
592.714	859.66
592.915	897.44
593.116	877.09
593.317	865.86
593.518	897.82
593.719	909.84
593.92	933.28
594.121	960.41
594.322	917.39
594.523	902.09
594.724	841.64
594.925	886.97
595.126	909.06
595.327	911.58
595.528	907.71
595.729	892.21
595.929	900.54
596.13	889.11
596.331	905.38
596.532	933.28
596.733	976.68
596.934	894.92
597.135	894.34
597.335	904.99
597.536	878.45
597.737	899.37
597.938	887.75
598.138	892.59
598.339	900.54
598.54	911.58
598.74	879.03
598.941	891.04
599.142	956.92
599.342	917.78
599.543	886.59
599.744	929.02
599.944	900.34
600.145	919.72
600.345	927.86
600.546	981.91
600.746	963.7
600.947	973.97
601.147	916.81
601.348	931.92
601.548	875.93
601.749	906.74
601.949	883.29
602.15	902.86
602.35	898.79
602.551	926.31
602.751	878.84
602.951	875.93
603.152	854.81
603.352	941.81
603.552	864.11
603.753	931.15
603.953	901.51
604.153	895.11
604.354	871.86
604.554	890.27
604.754	881.55
604.954	869.73
605.155	927.86
605.355	880.77
605.555	947.04
605.755	939.29
605.955	928.82
606.155	940.45
606.356	938.32
606.556	926.69
606.756	929.41
606.956	838.93
607.156	941.61
607.356	861.4
607.556	901.89
607.756	895.69
607.956	923.98
608.156	946.26
608.356	871.09
608.556	905.19
608.756	881.16
608.956	872.64
609.156	932.7
609.356	849.97
609.556	847.45
609.755	910.61
609.955	854.23
610.155	882.52
610.355	887.36
610.555	877.29
610.755	901.89
610.954	813.16
611.154	879.42
611.354	903.44
611.554	834.08
611.753	875.93
611.953	825.56
612.153	902.67
612.352	891.04
612.552	835.63
612.752	805.41
612.951	868.57
613.151	888.14
613.351	842.8
613.55	863.73
613.75	875.16
613.949	854.43
614.149	869.54
614.348	867.6
614.548	833.69
614.747	811.41
614.947	825.56
615.146	776.93
615.346	829.43
615.545	855.78
615.745	848.23
615.944	876.51
616.144	818.39
616.343	860.63
616.542	829.24
616.742	844.35
616.941	832.73
617.14	766.46
617.34	802.89
617.539	807.34
617.738	801.92
617.938	870.12
618.137	843.77
618.336	786.61
618.535	833.89
618.734	819.36
618.934	840.28
619.133	846.68
619.332	836.02
619.531	796.11
619.73	810.06
619.929	820.71
620.128	862.95
620.328	870.51
620.527	804.63
620.726	818
620.925	826.91
621.124	783.51
621.323	814.51
621.522	788.55
621.721	799.4
621.92	792.23
622.119	813.54
622.318	759.3
622.517	793.98
622.715	792.62
622.914	745.35
623.113	764.53
623.312	736.82
623.511	796.3
623.71	762.2
623.909	770.73
624.107	810.06
624.306	722.1
624.505	728.68
624.704	738.18
624.902	747.67
625.101	864.5
625.3	782.16
625.499	734.5
625.697	760.26
625.896	684.32
626.095	730.43
626.293	689.93
626.492	734.88
626.69	784.87
626.889	746.9
627.088	781.19
627.286	722.68
627.485	716.48
627.683	694
627.882	737.6
628.08	673.47
628.279	699.62
628.477	782.55
628.676	693.42
628.874	724.81
629.073	727.13
629.271	687.42
629.469	738.37
629.668	711.63
629.866	718.8
630.065	697.49
630.263	744.96
630.461	682.57
630.66	724.03
630.858	725.97
631.056	736.43
631.254	765.3
631.453	679.08
631.651	737.98
631.849	709.31
632.047	721.13
632.245	722.87
632.444	711.44
632.642	715.9
632.84	733.14
633.038	679.86
633.236	693.62
633.434	675.02
633.632	679.08
633.83	689.35
634.028	723.45
634.227	686.64
634.425	775.57
634.623	724.61
634.821	729.46
635.019	711.25
635.216	719.58
635.414	724.61
635.612	678.31
635.81	724.61
636.008	777.31
636.206	729.46
636.404	725.97
636.602	693.23
636.8	711.25
636.997	739.92
637.195	749.61
637.393	711.25
637.591	766.27
637.789	704.85
637.986	714.54
638.184	709.5
638.382	765.3
638.58	738.76
638.777	788.36
638.975	704.08
639.173	719.38
639.37	719.96
639.568	740.5
639.765	731.4
639.963	728.49
640.161	755.61
640.358	724.23
640.556	703.69
640.753	663.58
640.951	651.38
641.148	740.5
641.346	673.08
641.543	698.07
641.741	746.7
641.938	694.39
642.136	690.71
642.333	696.52
642.531	755.03
642.728	754.06
642.925	704.66
643.123	723.65
643.32	737.4
643.517	678.5
643.715	729.46
643.912	695.17
644.109	723.06
644.306	691.29
644.504	688.58
644.701	739.15
644.898	750.19
645.095	664.36
645.293	681.6
645.49	735.46
645.687	719.38
645.884	748.06
646.081	670.75
646.278	670.75
646.475	638.98
646.672	675.21
646.87	692.65
647.067	684.9
647.264	688.58
647.461	609.14
647.658	633.94
647.855	712.8
648.052	659.9
648.249	575.43
648.446	642.47
648.642	620.96
648.839	626.97
649.036	627.55
649.233	615.73
649.43	607.01
649.627	585.31
649.824	607.2
650.021	621.54
650.217	624.06
650.414	604.88
650.611	641.11
650.808	640.72
651.004	624.83
651.201	669.4
651.398	715.12
651.595	619.41
651.791	630.26
651.988	620.57
652.185	599.65
652.381	652.15
652.578	584.34
652.775	589.96
652.971	604.3
653.168	589.77
653.364	641.88
653.561	564.77
653.757	635.68
653.954	615.73
654.15	595.97
654.347	689.16
654.543	638.59
654.74	560.32
654.936	561.67
655.133	640.53
655.329	596.16
655.525	630.45
655.722	637.04
655.918	588.22
656.115	642.47
656.311	538.62
656.507	495.22
656.704	505.49
656.9	532.61
657.096	523.12
657.292	510.14
657.489	599.45
657.685	561.09
657.881	559.54
658.077	531.06
658.273	578.34
658.47	629.87
658.666	557.6
658.862	621.15
659.058	559.93
659.254	613.79
659.45	595.97
659.646	602.36
659.842	598.87
660.038	638.59
660.234	563.61
660.43	590.93
660.626	637.04
660.822	627.74
661.018	639.56
661.214	576.4
661.41	538.62
661.606	604.1
661.802	659.32
661.998	597.13
662.194	591.9
662.39	603.14
662.586	623.67
662.781	649.63
662.977	623.67
663.173	605.85
663.369	582.99
663.564	624.64
663.76	669.2
663.956	591.9
664.152	662.42
664.347	536.68
664.543	595.19
664.739	582.6
664.934	534.35
665.13	539.59
665.326	603.52
665.521	602.75
665.717	561.48
665.912	541.52
666.108	485.14
666.304	549.85
666.499	553.15
666.695	489.79
666.89	529.51
667.086	614.95
667.281	583.57
667.477	615.73
667.672	565.74
667.867	554.7
668.063	576.79
668.258	536.68
668.454	595
668.649	638.59
668.844	560.9
669.04	584.34
669.235	573.1
669.43	528.74
669.626	542.1
669.821	538.81
670.016	500.45
670.211	570
670.407	526.8
670.602	575.43
670.797	526.6
670.992	596.35
671.187	532.22
671.382	586.47
671.578	506.46
671.773	569.04
671.968	521.96
672.163	547.34
672.358	553.92
672.553	519.63
672.748	524.67
672.943	582.21
673.138	558.57
673.333	551.21
673.528	514.21
673.723	537.07
673.918	501.03
674.113	503.94
674.308	627.35
674.503	534.74
674.698	556.05
674.892	538.04
675.087	584.73
675.282	564.77
675.477	521.37
675.672	536.49
675.867	523.51
676.061	508.78
676.256	467.9
676.451	503.55
676.646	507.23
676.84	474.68
677.035	488.44
677.23	482.43
677.424	527.96
677.619	554.7
677.814	591.51
678.008	555.86
678.203	460.54
678.397	471.77
678.592	499.09
678.787	565.35
678.981	518.27
679.176	538.81
679.37	523.51
679.565	474.1
679.759	493.67
679.954	568.65
680.148	583.37
680.342	561.29
680.537	537.07
680.731	535.32
680.926	556.05
681.12	574.46
681.314	470.81
681.509	500.26
681.703	509.75
681.897	543.65
682.092	511.3
682.286	502.58
682.48	570.39
682.674	535.52
682.869	510.52
683.063	516.34
683.257	586.67
683.451	498.9
683.645	536.68
683.839	511.49
684.034	509.75
684.228	565.55
684.422	480.88
684.616	480.69
684.81	546.17
685.004	480.11
685.198	500.06
685.392	580.66
685.586	502.39
685.78	505.68
685.974	555.67
686.168	551.02
686.362	555.47
686.556	491.15
686.75	440.97
686.944	471.77
687.138	489.6
687.331	404.74
687.525	417.72
687.719	334.02
687.913	397.76
688.107	427.41
688.301	382.46
688.494	438.06
688.688	412.29
688.882	363.86
689.076	418.88
689.269	422.37
689.463	492.12
689.657	432.83
689.85	409
690.044	434.19
690.238	419.85
690.431	408.61
690.625	436.13
690.818	447.75
691.012	466.16
691.205	475.07
691.399	445.23
691.593	450.07
691.786	520.6
691.98	495.02
692.173	515.76
692.366	516.92
692.56	510.72
692.753	563.42
692.947	454.53
693.14	556.05
693.333	539.2
693.527	466.54
693.72	504.91
693.914	538.23
694.107	512.07
694.3	514.79
694.493	521.76
694.687	589.38
694.88	504.13
695.073	567.29
695.266	539.2
695.46	512.85
695.653	589.19
695.846	569.81
696.039	480.69
696.232	539.59
696.425	572.91
696.618	585.7
696.812	558.96
697.005	639.37
697.198	710.66
697.391	649.44
697.584	643.43
697.777	675.02
697.97	676.18
698.163	689.55
698.356	682.96
698.549	738.37
698.742	689.55
698.935	660.48
699.127	713.18
699.32	639.95
699.513	662.42
699.706	681.02
699.899	702.33
700.092	647.5
700.285	683.93
700.477	647.5
700.67	718.03
700.863	715.31
701.056	793.2
701.248	764.72
701.441	765.88
701.634	712.02
701.826	815.48
702.019	711.83
702.212	780.41
702.404	721.13
702.597	692.65
702.79	725.2
702.982	765.69
703.175	813.35
703.367	811.41
703.56	826.91
703.752	875.35
703.945	805.6
704.137	819.94
704.33	860.04
704.522	867.02
704.715	849.97
704.907	880.39
705.1	900.15
705.292	887.36
705.484	847.64
705.677	910.81
705.869	931.34
706.061	948.59
706.254	924.76
706.446	918.94
706.638	889.49
706.831	980.55
707.023	929.02
707.215	1046.62
707.407	1011.17
707.599	999.15
707.792	1007.1
707.984	1019.11
708.176	1045.07
708.368	985.01
708.56	1043.33
708.752	980.94
708.944	992.18
709.136	1056.89
709.329	1030.15
709.521	1150.66
709.713	1099.9
709.905	1101.84
710.097	1173.53
710.289	1054.57
710.481	1090.02
710.672	1106.68
710.864	1110.75
711.056	1174.11
711.248	1152.8
711.44	1159.96
711.632	1162.1
711.824	1176.05
712.016	1203.95
712.207	1199.1
712.399	1194.06
712.591	1258.58
712.783	1222.35
712.975	1264.2
713.166	1200.26
713.358	1224.87
713.55	1302.37
713.741	1269.82
713.933	1262.84
714.125	1231.46
714.316	1209.76
714.508	1326.01
714.7	1285.9
714.891	1284.74
715.083	1298.49
715.274	1262.07
715.466	1305.47
715.657	1308.18
715.849	1185.73
716.04	1277.57
716.232	1209.18
716.423	1293.65
716.615	1204.14
716.806	1217.51
716.998	1223.32
717.189	1177.6
717.381	1082.85
717.572	1096.42
717.763	1140.59
717.955	1090.22
718.146	1097.38
718.337	1057.86
718.528	1020.66
718.72	967.19
718.911	1023.95
719.102	997.22
719.293	1044.69
719.485	1001.09
719.676	1016.59
719.867	957.11
720.058	959.05
720.249	979.59
720.44	1008.07
720.632	1016.2
720.823	1034.42
721.014	1162.29
721.205	1101.84
721.396	1182.83
721.587	1255.68
721.778	1211.11
721.969	1282.03
722.16	1310.51
722.351	1266.91
722.542	1366.89
722.733	1415.71
722.924	1345.77
723.115	1353.32
723.305	1334.72
723.496	1359.72
723.687	1272.92
723.878	1310.51
724.069	1329.88
724.26	1331.24
724.45	1211.11
724.641	1233.59
724.832	1276.99
725.023	1282.03
725.213	1233.39
725.404	1236.11
725.595	1243.47
725.785	1198.13
725.976	1267.88
726.167	1236.88
726.357	1251.41
726.548	1334.92
726.739	1253.54
726.929	1267.3
727.12	1321.16
727.31	1288.42
727.501	1311.28
727.691	1355.07
727.882	1326.59
728.072	1363.79
728.263	1325.23
728.453	1347.12
728.644	1364.95
728.834	1358.75
729.024	1321.36
729.215	1316.71
729.405	1375.8
729.596	1459.89
729.786	1455.24
729.976	1446.13
730.167	1437.99
730.357	1397.69
730.547	1418.81
730.737	1474.03
730.928	1511.23
731.118	1494.18
731.308	1458.34
731.498	1445.35
731.688	1442.84
731.879	1508.32
732.069	1581.56
732.259	1575.36
732.449	1530.6
732.639	1614.69
732.829	1606.16
733.019	1590.86
733.209	1685.02
733.399	1621.47
733.589	1716.6
733.779	1696.64
733.969	1689.28
734.159	1759.81
734.349	1773.37
734.539	1797.39
734.729	1799.33
734.919	1850.67
735.109	1813.86
735.299	1776.47
735.488	1834.98
735.678	1846.02
735.868	1812.51
736.058	1838.27
736.248	1782.28
736.437	1770.46
736.627	1783.83
736.817	1897.75
737.007	1838.47
737.196	1910.54
737.386	1834.98
737.576	1805.14
737.765	1871.02
737.955	1809.6
738.144	1970.02
738.334	1905.89
738.524	1849.12
738.713	1876.64
738.903	1875.47
739.092	1898.53
739.282	1850.87
739.471	1911.9
739.661	1885.74
739.85	1938.25
740.04	1971.96
740.229	1952.39
740.419	1970.99
740.608	1977.58
740.797	1947.74
740.987	2040.55
741.176	2017.1
741.365	1947.55
741.555	1921.59
741.744	1976.22
741.933	1975.83
742.123	1978.74
742.312	2036.86
742.501	1998.31
742.69	2038.61
742.88	1983.97
743.069	2085.3
743.258	2007.42
743.447	2057.01
743.636	2092.08
743.825	2029.7
744.014	2065.93
744.204	2056.43
744.393	2050.62
744.582	2096.93
744.771	2109.71
744.96	2040.16
745.149	2065.15
745.338	2054.88
745.527	2107
745.716	2028.53
745.905	2025.63
746.094	2057.98
746.283	2054.3
746.471	2101.58
746.66	2123.86
746.849	2133.74
747.038	2134.51
747.227	2054.3
747.416	2080.26
747.604	2048.49
747.793	2091.5
747.982	2108.16
748.171	2114.17
748.359	2148.27
748.548	2116.88
748.737	2089.37
748.926	2077.16
749.114	1994.43
749.303	2088.21
749.491	2070.96
749.68	1982.62
749.869	2092.28
750.057	2051.2
750.246	2052.75
750.434	2051.59
750.623	2035.9
750.811	2047.52
751	2050.23
751.188	2068.83
751.377	2046.16
751.565	2061.08
751.754	2023.88
751.942	2025.43
752.131	2048.68
752.319	2005.87
752.507	1989.59
752.696	2051.59
752.884	2075.81
753.072	2036.48
753.261	2072.32
753.449	2030.86
753.637	2021.17
753.825	2087.63
754.014	2028.73
754.202	2034.35
754.39	2123.08
754.578	2076.97
754.766	2007.8
754.955	1986.88
755.143	2082.98
755.331	2007.22
755.519	2014.78
755.707	2025.43
755.895	2030.47
756.083	2016.71
756.271	1966.53
756.459	1958.59
756.647	2005.87
756.835	1974.48
757.023	1997.73
757.211	1956.46
757.399	1982.23
757.587	2010.32
757.775	1965.95
757.963	1969.05
758.151	1994.24
758.339	1907.25
758.526	1929.92
758.714	1976.03
758.902	1914.42
759.09	1838.85
759.278	1750.89
759.465	1634.65
759.653	1399.63
759.841	1328.52
760.028	1101.26
760.216	945.49
760.404	950.52
760.591	772.86
760.779	657.19
760.967	577.56
761.154	456.47
761.342	520.6
761.529	491.73
761.717	533
761.905	486.11
762.092	540.17
762.28	495.02
762.467	512.07
762.655	468.09
762.842	469.26
763.029	493.47
763.217	490.96
763.404	504.91
763.592	496.77
763.779	481.46
763.966	520.41
764.154	549.27
764.341	599.84
764.528	579.5
764.716	620.96
764.903	673.08
765.09	653.9
765.277	708.53
765.465	818.19
765.652	849.19
765.839	883.29
766.026	974.55
766.213	995.09
766.4	1041.97
766.588	1186.51
766.775	1150.47
766.962	1259.94
767.149	1270.98
767.336	1332.21
767.523	1298.11
767.71	1362.62
767.897	1471.12
768.084	1519.75
768.271	1519.17
768.458	1544.36
768.645	1623.8
768.832	1546.49
769.019	1561.22
769.206	1630.58
769.392	1661.96
769.579	1730.74
769.766	1715.83
769.953	1675.14
770.14	1740.43
770.327	1685.02
770.513	1736.56
770.7	1839.44
770.887	1713.11
771.073	1769.11
771.26	1729
771.447	1709.63
771.634	1696.64
771.82	1824.13
772.007	1729.19
772.193	1768.52
772.38	1804.17
772.567	1737.53
772.753	1774.92
772.94	1825.29
773.126	1788.09
773.313	1812.89
773.499	1754.96
773.686	1770.27
773.872	1755.74
774.059	1757.29
774.245	1736.75
774.432	1766.01
774.618	1660.99
774.804	1745.08
774.991	1670.29
775.177	1777.82
775.363	1725.51
775.55	1765.04
775.736	1699.94
775.922	1728.81
776.109	1793.52
776.295	1736.17
776.481	1748.96
776.667	1736.94
776.853	1725.32
777.04	1707.49
777.226	1692.77
777.412	1764.26
777.598	1679.59
777.784	1679.01
777.97	1696.64
778.156	1733.65
778.342	1717.96
778.528	1711.76
778.715	1652.86
778.901	1661.77
779.087	1688.31
779.272	1630
779.458	1677.66
779.644	1728.81
779.83	1633.68
780.016	1750.12
780.202	1667.97
780.388	1629.61
780.574	1618.18
780.76	1634.45
780.946	1694.51
781.131	1667
781.317	1682.5
781.503	1633.48
781.689	1653.44
781.874	1746.63
782.06	1601.32
782.246	1606.36
782.432	1613.72
782.617	1659.25
782.803	1709.43
782.989	1569.74
783.174	1638.91
783.36	1550.75
783.545	1598.8
783.731	1602.87
783.916	1528.08
784.102	1623.6
784.288	1579.43
784.473	1568.38
784.659	1546.68
784.844	1606.75
785.029	1531.57
785.215	1584.08
785.4	1534.48
785.586	1602.48
785.771	1515.49
785.956	1563.35
786.142	1547.65
786.327	1556.76
786.512	1559.67
786.698	1545.52
786.883	1505.03
787.068	1532.73
787.254	1542.03
787.439	1476.16
787.624	1487.59
787.809	1500.77
787.994	1467.64
788.18	1541.07
788.365	1470.74
788.55	1530.22
788.735	1515.68
788.92	1502.9
789.105	1481
789.29	1521.11
789.475	1454.07
789.66	1472.48
789.845	1436.44
790.03	1456.01
790.215	1478.49
790.4	1506.38
790.585	1506.77
790.77	1432.37
790.955	1401.76
791.14	1478.87
791.325	1518.59
791.51	1363.4
791.695	1435.86
791.879	1404.86
792.064	1382.58
792.249	1513.55
792.434	1424.62
792.618	1417.26
792.803	1457.17
792.988	1425.98
793.173	1416.29
793.357	1453.49
793.542	1391.88
793.727	1424.82
793.911	1452.91
794.096	1445.74
794.281	1479.26
794.465	1517.62
794.65	1438.38
794.834	1413.58
795.019	1450
795.203	1487.98
795.388	1488.95
795.572	1491.85
795.757	1483.33
795.941	1497.47
796.126	1525.37
796.31	1427.34
796.494	1477.13
796.679	1414.55
796.863	1397.11
797.048	1491.27
797.232	1486.23
797.416	1442.06
797.601	1413.97
797.785	1500.77
797.969	1478.49
798.153	1381.81
798.338	1443.61
798.522	1465.12
798.706	1484.88
798.89	1491.27
799.074	1599
799.258	1512.39
799.443	1475.77
799.627	1430.63
799.811	1494.57
799.995	1499.6
800.179	1462.21
800.363	1449.42
800.547	1499.8
800.731	1501.54
800.915	1431.4
801.099	1447.87
801.283	1458.53
801.467	1476.74
801.651	1479.26
801.835	1529.25
802.019	1463.95
802.202	1509.29
802.386	1437.02
802.57	1410.29
802.754	1432.57
802.938	1399.24
803.121	1418.42
803.305	1520.14
803.489	1460.85
803.673	1478.49
803.856	1516.27
804.04	1418.04
804.224	1481.97
804.407	1429.66
804.591	1442.06
804.775	1439.35
804.958	1457.56
805.142	1572.45
805.326	1448.07
805.509	1482.55
805.693	1483.72
805.876	1489.33
806.06	1467.44
806.243	1479.65
806.427	1543
806.61	1522.27
806.794	1439.15
806.977	1500.96
807.16	1475.58
807.344	1486.04
807.527	1488.75
807.71	1483.72
807.894	1493.79
808.077	1494.37
808.26	1455.04
808.444	1462.21
808.627	1494.57
808.81	1453.88
808.993	1401.95
809.177	1361.07
809.36	1429.66
809.543	1449.81
809.726	1382.97
809.909	1418.04
810.092	1356.23
810.276	1349.84
810.459	1390.14
810.642	1330.46
810.825	1330.85
811.008	1373.47
811.191	1251.8
811.374	1306.24
811.557	1330.85
811.74	1373.67
811.923	1277.18
812.106	1272.73
812.289	1254.71
812.472	1253.74
812.654	1305.28
812.837	1253.93
813.02	1203.75
813.203	1204.53
813.386	1108.04
813.569	1120.44
813.751	1053.79
813.934	1140.01
814.117	1155.7
814.3	1052.24
814.482	1047.79
814.665	1037.52
814.848	1032.29
815.03	1000.51
815.213	957.5
815.396	1016.59
815.578	973.77
815.761	962.34
815.943	1035
816.126	947.42
816.309	928.44
816.491	907.71
816.674	841.64
816.856	888.91
817.039	900.54
817.221	982.3
817.403	901.51
817.586	929.21
817.768	940.84
817.951	860.43
818.133	873.41
818.315	883.1
818.498	914.1
818.68	997.02
818.862	947.23
819.045	960.99
819.227	932.12
819.409	946.84
819.591	958.27
819.774	914.68
819.956	871.28
820.138	988.89
820.32	966.6
820.502	956.53
820.684	1069.48
820.866	1032.29
821.048	1067.35
821.231	1083.05
821.413	1054.57
821.595	1031.9
821.777	1026.86
821.959	1017.95
822.141	1090.41
822.323	967.96
822.505	944.52
822.686	952.07
822.868	910.42
823.05	831.56
823.232	841.83
823.414	793.59
823.596	825.36
823.778	808.31
823.96	858.69
824.141	837.38
824.323	850.16
824.505	896.27
824.687	910.22
824.868	902.67
825.05	1030.74
825.232	1028.8
825.413	1091.38
825.595	1042.94
825.777	978.04
825.958	1008.45
826.14	1027.25
826.321	1023.37
826.503	1018.92
826.685	1004
826.866	1032.87
827.048	1022.4
827.229	991.4
827.411	953.43
827.592	923.4
827.773	960.79
827.955	926.11
828.136	931.92
828.318	874.96
828.499	890.85
828.68	878.84
828.862	920.49
829.043	921.85
829.224	886.97
829.406	883.87
829.587	893.76
829.768	889.69
829.949	934.64
830.131	901.51
830.312	953.62
830.493	893.56
830.674	885.81
830.855	882.52
831.036	855.59
831.218	938.71
831.399	953.62
831.58	916.62
831.761	907.9
831.942	941.42
832.123	935.41
832.304	898.41
832.485	889.3
832.666	894.34
832.847	934.06
833.028	920.3
833.209	936.19
833.389	933.67
833.57	854.62
833.751	880.77
833.932	912.55
834.113	911.39
834.294	904.41
834.475	918.75
834.655	974.74
834.836	955.37
835.017	941.22
835.198	881.36
835.378	943.36
835.559	954.98
835.74	899.18
835.92	875.93
836.101	902.28
836.281	945.68
836.462	940.26
836.643	972.22
836.823	948.2
837.004	973.77
837.184	995.47
837.365	950.14
837.545	933.67
837.726	933.09
837.906	1000.32
838.087	969.32
838.267	933.86
838.448	875.74
838.628	907.71
838.808	976.29
838.989	984.62
839.169	895.5
839.349	962.92
839.53	964.28
839.71	955.17
839.89	888.91
840.07	961.76
840.251	914.49
840.431	966.8
840.611	958.47
840.791	930.57
840.971	975.52
841.151	952.85
841.332	893.17
841.512	980.17
841.692	897.82
841.872	941.42
842.052	933.09
842.232	960.99
842.412	852.29
842.592	933.86
842.772	953.43
842.952	932.7
843.132	935.22
843.312	946.84
843.492	911.97
843.672	952.46
843.851	875.74
844.031	904.99
844.211	952.85
844.391	881.16
844.571	944.13
844.751	958.08
844.93	950.33
845.11	915.07
845.29	923.21
845.47	960.21
845.649	916.04
845.829	984.43
846.009	899.57
846.188	917.97
846.368	913.71
846.547	905.19
846.727	976.29
846.907	911.19
847.086	935.99
847.266	969.51
847.445	901.51
847.625	872.83
847.804	914.68
847.984	904.8
848.163	899.76
848.343	890.46
848.522	922.62
848.701	926.31
848.881	866.24
849.06	922.24
849.239	907.51
849.419	910.42
849.598	863.14
849.777	857.14
849.957	866.63
850.136	815.29
850.315	822.07
850.494	806.18
850.674	804.24
850.853	860.43
851.032	853.07
851.211	900.34
851.39	831.18
851.569	816.84
851.748	822.84
851.927	852.68
852.107	825.17
852.286	814.32
852.465	804.05
852.644	851.91
852.823	846.48
853.002	821.88
853.181	849.97
853.359	866.44
853.538	783.71
853.717	902.86
853.896	751.35
854.075	725.58
854.254	759.3
854.433	680.44
854.611	748.45
854.79	695.94
854.969	743.99
855.148	789.33
855.327	734.5
855.505	756.97
855.684	756.78
855.863	748.45
856.041	729.07
856.22	771.89
856.399	731.78
856.577	795.53
856.756	784.68
856.934	902.09
857.113	929.21
857.291	828.66
857.47	755.81
857.648	797.66
857.827	828.08
858.005	852.49
858.184	789.52
858.362	872.25
858.541	809.86
858.719	777.12
858.898	785.45
859.076	778.67
859.254	837.57
859.433	797.27
859.611	780.41
859.789	758.33
859.967	814.9
860.146	871.09
860.324	743.21
860.502	754.65
860.68	750.96
860.859	754.65
861.037	770.34
861.215	786.42
861.393	770.15
861.571	768.6
861.749	744.96
861.927	759.3
862.105	757.55
862.283	737.01
862.461	742.05
862.639	728.88
862.817	724.61
862.995	738.37
863.173	706.4
863.351	751.16
863.529	780.22
863.707	803.86
863.885	736.82
864.063	690.52
864.241	752.51
864.418	805.41
864.596	674.63
864.774	706.21
864.952	733.72
865.129	756.2
865.307	690.52
865.485	686.83
865.663	762.98
865.84	693.23
866.018	719.38
866.196	617.08
866.373	660.48
866.551	603.33
866.728	561.87
866.906	608.95
867.084	631.62
867.261	685.28
867.439	658.35
867.616	675.6
867.794	630.84
867.971	679.08
868.149	694.2
868.326	730.43
868.503	699.04
868.681	698.46
868.858	666.88
869.035	652.73
869.213	682.96
869.39	685.09
869.567	759.3
869.745	647.5
869.922	694.39
870.099	703.11
870.276	701.56
870.454	673.66
870.631	715.12
870.808	688.58
870.985	746.7
871.162	725.2
871.339	705.82
871.517	622.9
871.694	627.55
871.871	691.1
872.048	668.82
872.225	622.7
872.402	679.86
872.579	587.05
872.756	694.39
872.933	639.95
873.11	645.95
873.287	670.37
873.463	653.32
873.64	601.59
873.817	679.67
873.994	639.75
874.171	605.07
874.348	676.37
874.524	596.74
874.701	655.06
874.878	598.1
875.055	647.5
875.231	635.68
875.408	624.06
875.585	551.79
875.762	638.59
875.938	612.43
876.115	601.97
876.291	601
876.468	650.99
876.645	587.44
876.821	597.9
876.998	592.48
877.174	622.7
877.351	624.83
877.527	570.59
877.704	624.64
877.88	633.94
878.057	593.64
878.233	661.65
878.409	587.44
878.586	620.38
878.762	606.04
878.938	620.38
879.115	559.54
879.291	596.74
879.467	528.54
879.644	559.35
879.82	594.8
879.996	565.16
880.172	544.82
880.349	605.07
880.525	612.05
880.701	543.65
880.877	579.3
881.053	609.14
881.229	584.54
881.405	610.89
881.581	541.33
881.757	540.75
881.933	577.56
882.109	617.08
882.285	583.95
882.461	503.74
882.637	590.35
882.813	545.98
882.989	532.03
883.165	629.29
883.341	570.39
883.517	622.12
883.693	594.8
883.869	586.09
884.044	515.56
884.22	584.92
884.396	628.13
884.572	576.59
884.747	600.04
884.923	570.59
885.099	626
885.275	616.31
885.45	545.59
885.626	559.93
885.801	541.33
885.977	536.1
886.153	510.91
886.328	560.51
886.504	565.35
886.679	595.19
886.855	561.87
887.03	558.57
887.206	613.02
887.381	581.82
887.557	559.54
887.732	555.86
887.908	622.32
888.083	613.6
888.258	541.14
888.434	563.61
888.609	567.29
888.784	577.95
888.96	528.35
889.135	530.87
889.31	539.97
889.485	572.52
889.661	574.85
889.836	606.24
890.011	569.81
890.186	521.37
890.361	513.24
890.537	566.32
890.712	539.59
890.887	593.84
891.062	565.35
891.237	619.8
891.412	524.09
891.587	558.19
891.762	627.93
891.937	627.16
892.112	530.87
892.287	547.34
892.462	484.56
892.637	525.83
892.812	498.71
892.987	526.6
893.161	499.87
893.336	526.6
893.511	499.67
893.686	506.46
893.861	502.97
894.035	496.38
894.21	504.52
894.385	479.33
894.56	478.17
894.734	465.77
894.909	469.45
895.084	456.86
895.258	457.24
895.433	469.84
895.608	419.27
895.782	410.36
895.957	425.28
896.131	434.38
896.306	392.14
896.48	413.07
896.655	390.79
896.829	359.4
897.004	357.66
897.178	373.16
897.353	353.2
897.527	430.12
897.701	376.64
897.876	322.98
898.05	420.04
898.224	367.34
898.399	408.42
898.573	377.03
898.747	309.41
898.921	374.32
899.096	270.47
899.27	300.7
899.444	282.1
899.618	296.05
899.792	337.51
899.967	299.15
900.141	354.56
900.315	305.15
900.489	297.01
900.663	337.31
900.837	334.41
901.011	288.49
901.185	392.92
901.359	379.74
901.533	330.53
901.707	357.66
901.881	305.73
902.055	259.62
902.229	316.39
902.403	383.23
902.576	328.4
902.75	334.02
902.924	437.48
903.098	379.94
903.272	408.42
903.446	423.14
903.619	377.42
903.793	395.63
903.967	398.34
904.14	425.66
904.314	411.33
904.488	369.86
904.661	421.01
904.835	401.83
905.009	434.19
905.182	463.44
905.356	469.45
905.529	403.77
905.703	374.32
905.876	394.86
906.05	370.25
906.223	347.2
906.397	310.58
906.57	341.58
906.744	281.32
906.917	309.61
907.09	330.15
907.264	358.04
907.437	276.09
907.61	296.43
907.784	306.12
907.957	333.44
908.13	293.91
908.304	333.83
908.477	270.08
908.65	303.21
908.823	260.01
908.996	362.11
909.17	291.98
909.343	288.88
909.516	296.82
909.689	302.05
909.862	263.3
910.035	270.86
910.208	259.82
910.381	255.75
910.554	368.51
910.727	284.23
910.9	282.68
911.073	264.66
911.246	330.34
911.419	338.28
911.592	308.45
911.765	268.15
911.938	275.31
912.11	262.14
912.283	271.83
912.456	326.66
912.629	274.54
912.802	271.83
912.974	240.25
913.147	253.23
913.32	188.9
913.493	198.4
913.665	237.92
913.838	269.7
914.01	213.12
914.183	262.53
914.356	225.91
914.528	263.11
914.701	308.25
914.873	294.5
915.046	241.41
915.218	235.79
915.391	180.18
915.563	207.5
915.736	252.84
915.908	264.46
916.081	208.28
916.253	244.32
916.425	231.72
916.598	251.1
916.77	235.6
916.942	206.92
917.115	147.25
917.287	250.71
917.459	240.44
917.632	188.9
917.804	157.32
917.976	250.52
918.148	229.78
918.32	209.63
918.493	262.33
918.665	271.63
918.837	242.96
919.009	286.75
919.181	279.77
919.353	259.04
919.525	267.37
919.697	238.12
919.869	250.32
920.041	300.7
920.213	347
920.385	262.53
920.557	247.8
920.729	301.86
920.901	291.4
921.073	245.28
921.244	243.54
921.416	292.75
921.588	283.65
921.76	206.15
921.932	317.16
922.103	258.07
922.275	266.79
922.447	249.55
922.619	191.81
922.79	249.16
922.962	213.51
923.134	282.68
923.305	202.66
923.477	208.67
923.648	223.39
923.82	217.38
923.991	172.05
924.163	186.97
924.335	217.97
924.506	193.55
924.677	232.69
924.849	190.84
925.02	198.98
925.192	238.5
925.363	204.98
925.535	190.84
925.706	200.33
925.877	248.38
926.049	192.78
926.22	235.02
926.391	226.68
926.562	267.56
926.734	199.95
926.905	231.92
927.076	143.76
927.247	204.4
927.419	186
927.59	174.37
927.761	180.38
927.932	169.34
928.103	197.04
928.274	133.49
928.445	145.7
928.616	174.37
928.787	154.22
928.958	179.8
929.129	172.63
929.3	146.09
929.471	119.15
929.642	98.04
929.813	48.05
929.984	136.2
930.155	58.51
930.326	128.65
930.496	86.99
930.667	47.86
930.838	99.78
931.009	65.29
931.18	88.54
931.35	63.94
931.521	93.77
931.692	34.1
931.863	14.92
932.033	80.6
932.204	85.64
932.374	71.49
932.545	34.68
932.716	82.15
932.886	124.97
933.057	1.94
933.227	50.18
933.398	115.67
933.568	46.11
933.739	-18.21
933.909	15.11
934.08	79.82
934.25	-34.87
934.421	0.58
934.591	35.84
934.761	0.39
934.932	-43.4
935.102	24.22
935.272	-7.17
935.443	15.69
935.613	23.83
935.783	12.4
935.953	-20.92
936.123	155.39
936.294	-15.31
936.464	18.6
936.634	13.56
936.804	-13.76
936.974	-15.69
937.144	17.82
937.314	22.86
937.484	-12.98
937.655	-27.71
937.825	53.47
937.995	-17.05
938.165	31.19
938.334	4.84
938.504	45.34
938.674	-4.07
938.844	5.04
939.014	53.28
939.184	26.16
939.354	85.25
939.524	70.72
939.694	31.97
939.863	24.22
940.033	107.92
940.203	98.04
940.373	64.71
940.542	63.16
940.712	23.44
940.882	86.02
941.051	86.22
941.221	87.57
941.391	91.25
941.56	29.06
941.73	14.14
941.899	147.64
942.069	39.33
942.238	49.99
942.408	22.86
942.577	77.31
942.747	56.38
942.916	-9.3
943.086	7.36
943.255	87.96
943.425	48.05
943.594	11.43
943.763	-45.34
943.933	27.32
944.102	-30.81
944.271	41.66
944.441	37.01
944.61	17.05
944.779	-2.91
944.948	92.03
945.117	-11.82
945.287	4.46
945.456	-16.86
945.625	4.84
945.794	42.04
945.963	-9.49
946.132	65.87
946.301	46.11
946.47	54.44
946.639	-40.69
946.808	-4.07
946.977	56.77
947.146	60.84
947.315	-11.04
947.484	36.04
947.653	-2.91
947.822	36.42
947.991	16.47
948.16	103.85
948.329	57.93
948.498	22.47
948.666	43.4
948.835	49.41
949.004	-12.79
949.173	-6.2
949.341	37.97
949.51	62.39
949.679	73.24
949.847	38.94
950.016	119.15
950.185	58.51
950.353	7.75
950.522	19.57
950.69	70.14
950.859	-5.04
951.028	72.85
951.196	31.58
951.365	18.41
951.533	4.07
951.701	66.07
951.87	57.54
952.038	12.59
952.207	17.24
952.375	92.22
952.543	24.41
952.712	38.75
952.88	0
953.048	61.42
953.217	21.7
953.385	30.61
953.553	52.12
953.721	4.84
953.89	26.35
954.058	-15.69
954.226	-25.19
954.394	23.64
954.562	-28.29
954.73	19.96
954.898	22.28
955.067	54.44
955.235	7.17
955.403	82.92
955.571	98.42
955.739	34.49
955.907	0.77
956.075	17.24
956.243	9.88
956.41	42.82
956.578	-14.72
956.746	-28.09
956.914	-0.39
957.082	44.17
957.25	27.12
957.418	-2.13
957.585	15.11
957.753	47.66
957.921	-24.22
958.089	1.55
958.256	31.97
958.424	50.96
958.592	48.24
958.759	11.82
958.927	66.65
959.095	-3.29
959.262	31.97
959.43	22.67
959.597	10.07
959.765	24.99
959.932	-4.46
960.1	62.58
960.267	11.82
960.435	25.57
960.602	66.07
960.77	22.09
960.937	4.07
961.104	36.23
961.272	-32.94
961.439	4.65
961.606	36.04
961.774	49.99
961.941	11.43
962.108	62.39
962.275	33.91
962.443	42.62
962.61	41.27
962.777	110.44
962.944	47.27
963.111	32.74
963.278	62.19
963.446	33.71
963.613	20.15
963.78	76.92
963.947	70.91
964.114	47.47
964.281	103.07
964.448	69.17
964.615	27.32
964.782	52.31
964.949	54.25
965.116	57.54
965.282	92.8
965.449	24.41
965.616	5.23
965.783	82.15
965.95	61.03
966.117	13.37
966.283	26.54
966.45	32.74
966.617	68.59
966.784	70.14
966.95	52.89
967.117	58.51
967.284	-3.68
967.45	12.4
967.617	70.91
967.784	68.78
967.95	95.52
968.117	24.61
968.283	79.82
968.45	139.5
968.616	59.87
968.783	84.86
968.949	57.54
969.116	87.19
969.282	32.16
969.449	55.22
969.615	47.86
969.781	-1.55
969.948	-7.56
970.114	-12.4
970.28	98.62
970.447	36.62
970.613	85.25
970.779	31.77
970.945	61.03
971.112	64.91
971.278	43.01
971.444	22.47
971.61	83.89
971.776	26.16
971.942	84.28
972.108	46.69
972.275	38.36
972.441	49.21
972.607	128.45
972.773	35.84
972.939	51.15
973.105	34.49
973.271	6.39
973.437	21.7
973.602	15.89
973.768	52.12
973.934	32.36
974.1	60.06
974.266	-24.8
974.432	57.54
974.598	23.64
974.763	74.59
974.929	39.14
975.095	123.42
975.261	34.87
975.426	-1.36
975.592	36.62
975.758	111.21
975.923	-5.62
976.089	24.99
976.255	70.91
976.42	57.54
976.586	49.99
976.751	49.41
976.917	120.12
977.082	74.01
977.248	-12.79
977.413	-14.72
977.579	9.11
977.744	46.5
977.91	-16.08
978.075	24.41
978.24	81.37
978.406	6.78
978.571	30.81
978.736	-2.13
978.902	67.23
979.067	6.01
979.232	-16.66
979.397	58.51
979.563	83.31
979.728	16.27
979.893	58.51
980.058	17.05
980.223	74.21
980.388	63.36
980.554	48.24
980.719	13.95
980.884	33.13
981.049	72.07
981.214	21.89
981.379	43.4
981.544	31.19
981.709	29.64
981.874	48.44
982.039	38.75
982.204	66.46
982.368	42.43
982.533	9.69
982.698	65.87
982.863	72.27
983.028	22.67
983.193	73.04
983.357	39.52
983.522	34.1
983.687	30.22
983.852	13.76
984.016	20.73
984.181	28.09
984.346	50.96
984.51	29.84
984.675	33.52
984.839	59.48
985.004	43.98
985.168	78.47
985.333	57.35
985.498	29.06
985.662	76.53
985.827	37.97
985.991	45.14
986.155	51.92
986.32	55.61
986.484	106.17
986.649	44.76
986.813	6.01
986.977	54.06
987.142	58.71
987.306	0.19
987.47	-2.91
987.634	18.79
987.799	39.33
987.963	44.95
988.127	67.23
988.291	96.49
988.455	33.71
988.62	37.01
988.784	49.6
988.948	82.73
989.112	2.52
989.276	67.42
989.44	36.42
989.604	11.04
989.768	54.83
989.932	117.6
990.096	-3.29
990.26	12.98
990.424	-9.69
990.588	25.38
990.752	108.5
990.915	50.76
991.079	24.41
991.243	24.41
991.407	64.32
991.571	42.43
991.734	71.3
991.898	61.42
992.062	120.51
992.226	36.04
992.389	25.96
992.553	-19.96
992.717	20.92
992.88	25.19
993.044	54.44
993.207	37.59
993.371	56.77
993.535	55.61
993.698	38.36
993.862	79.44
994.025	67.62
994.189	58.12
994.352	35.07
994.515	40.69
994.679	90.09
994.842	25.57
995.006	51.54
995.169	-18.02
995.332	29.06
995.496	67.23
995.659	9.49
995.822	17.82
995.985	44.37
996.149	74.98
996.312	21.31
996.475	85.64
996.638	31
996.801	79.05
996.964	116.44
997.128	35.26
997.291	29.45
997.454	58.32
997.617	-24.02
997.78	65.87
997.943	-4.46
998.106	48.24
998.269	5.23
998.432	37.78
998.595	39.52
998.758	-26.74
998.92	6.59
999.083	-38.17
999.246	33.71
999.409	-11.62
999.572	-46.11
999.735	-14.72
999.897	36.81
1000.06	10.27
1000.223	-2.13
1000.386	63.16
1000.548	46.31
1000.711	48.82
1000.874	53.09
1001.036	-28.67
1001.199	17.44
1001.361	-5.04
1001.524	44.17
1001.687	78.47
1001.849	15.31
1002.012	30.22
1002.174	24.99
1002.337	34.68
1002.499	46.69
1002.661	62.19
1002.824	-19.37
1002.986	19.76
1003.149	16.08
1003.311	-5.81
1003.473	77.89
1003.636	9.11
1003.798	50.96
1003.96	47.27
1004.123	35.26
1004.285	7.94
1004.447	10.07
1004.609	25.38
1004.771	72.46
1004.933	-25.57
1005.096	-5.04
1005.258	-33.91
1005.42	2.52
1005.582	72.85
1005.744	37.59
1005.906	-13.56
1006.068	32.74
1006.23	-12.4
1006.392	-42.43
1006.554	0.19
1006.716	50.37
1006.878	43.79
1007.04	-9.69
1007.202	-8.14
1007.363	2.91
1007.525	37.59
1007.687	43.21
1007.849	70.52
1008.011	-25.19
1008.172	-26.93
1008.334	6.78
1008.496	42.24
1008.658	-38.56
1008.819	-19.57
1008.981	-30.03
1009.143	-1.16
1009.304	6.01
1009.466	28.48
1009.627	66.07
1009.789	124
1009.95	16.86
1010.112	5.42
1010.273	13.95
1010.435	0.58
1010.596	-4.07
1010.758	-13.95
1010.919	9.88
1011.081	-11.62
1011.242	-9.49
1011.403	24.61
1011.565	5.81
1011.726	26.35
1011.887	6.01
1012.049	0.77
1012.21	34.49
1012.371	90.67
1012.532	-43.59
1012.693	45.14
1012.855	-18.99
1013.016	18.99
1013.177	48.63
1013.338	22.67
1013.499	80.6
1013.66	38.17
1013.821	60.84
1013.982	51.54
1014.143	7.94
1014.304	-4.65
1014.465	41.46
1014.626	54.83
1014.787	17.24
1014.948	82.15
1015.109	-42.62
1015.27	66.46
1015.431	0.39
1015.592	34.49
1015.752	72.46
1015.913	28.09
1016.074	30.03
1016.235	15.31
1016.395	9.69
1016.556	13.37
1016.717	9.69
1016.877	59.09
1017.038	-9.69
1017.199	8.91
1017.359	-6.01
1017.52	34.1
1017.681	17.82
1017.841	23.64
1018.002	13.56
1018.162	10.46
1018.323	42.82
1018.483	10.46
1018.644	-12.98
1018.804	-10.07
1018.964	-25.19
1019.125	-17.82
1019.285	40.11
1019.446	-4.07
1019.606	-16.47
1019.766	-32.74
1019.926	27.32
1020.087	28.29
1020.247	-43.59
1020.407	46.69
1020.567	29.26
1020.728	13.56
1020.888	-29.45
1021.048	-15.11
1021.208	-15.11
1021.368	-17.63
1021.528	50.76
1021.688	37.59
1021.848	18.79
1022.008	22.47
1022.168	-14.14
1022.328	14.92
1022.488	15.89
1022.648	-0.58
1022.808	-4.46
1022.968	18.79
1023.128	2.91
1023.288	-14.72
1023.448	13.95
1023.608	35.07
1023.767	30.22
1023.927	-0.77
1024.087	-23.83
1024.247	-15.31
1024.406	-9.49
1024.566	-9.11
1024.726	-28.67
1024.885	-6.78
1025.045	32.16
1025.205	17.82
1025.364	-5.04
1025.524	21.7
1025.683	-1.74
1025.843	18.6
1026.003	14.72
1026.162	54.64
1026.321	34.1
1026.481	-1.36
1026.64	-3.1
1026.8	20.73
1026.959	9.88
1027.119	18.21
1027.278	23.25
1027.437	-27.9
1027.597	10.07
1027.756	53.67
1027.915	3.68
1028.074	24.02
1028.234	-37.78
1028.393	25.96
1028.552	-20.73
1028.711	-63.94
1028.87	30.81
1029.03	-22.86
1029.189	11.04
1029.348	-57.74
1029.507	-23.64
1029.666	17.24
1029.825	-37.2
1029.984	-10.66
1030.143	-3.1
1030.302	7.17
1030.461	-44.56
1030.62	13.95
1030.779	30.42
1030.938	-7.56
1031.097	-20.15
1031.255	10.27
1031.414	64.91
1031.573	-6.59
1031.732	-41.46
1031.891	-10.66
1032.049	58.71
1032.208	15.69
1032.367	-30.81
1032.525	-8.33
1032.684	0.58
1032.843	8.72
1033.001	-24.8
1033.16	143.76
1033.319	30.61
1033.477	47.86
1033.636	-25.77
1033.794	-31.58
1033.953	34.68
1034.111	34.1
1034.27	9.69
1034.428	21.89
1034.587	-32.16
1034.745	15.11
1034.903	4.65
1035.062	21.7
1035.22	-35.07
1035.378	29.45
1035.537	-24.22
1035.695	9.88
1035.853	-9.3
1036.011	25.19
1036.17	38.75
1036.328	-58.12
1036.486	26.93
1036.644	-5.23
1036.802	-65.29
1036.96	-29.26
1037.119	19.18
1037.277	-6.39
1037.435	-38.36
1037.593	-23.83
1037.751	-7.17
1037.909	4.65
1038.067	4.65
