Data from pine_FLMT105791__48__17-20-22-079.txt Node

Date: Mon Mar 20 17:20:22 GMT 2023
User: antho
Spectrometer: FLMT10579
Trigger mode: 0
Integration Time (sec): 1.000000E-1
Scans to average: 10
Electric dark correction enabled: true
Nonlinearity correction enabled: false
Boxcar width: 0
XAxis mode: Wavelengths
Number of Pixels in Spectrum: 3648
>>>>>Begin Spectral Data<<<<<
345.248	-170.16
345.464	-170.16
345.681	-170.16
345.898	-158.92
346.114	-148.46
346.331	-51.97
346.548	22.62
346.764	-16.32
346.981	-15.55
347.197	-1.21
347.414	23.01
347.631	-11.09
347.847	49.74
348.064	-12.64
348.28	34.24
348.497	-51.97
348.713	31.14
348.93	11.19
349.146	23.2
349.363	9.45
349.579	12.93
349.796	-3.73
350.012	-7.02
350.229	41.41
350.445	-0.82
350.661	-28.72
350.878	-7.22
351.094	32.31
351.311	44.9
351.527	8.28
351.743	14.48
351.96	51.49
352.176	39.86
352.392	31.73
352.609	14.29
352.825	-8.77
353.041	-2.95
353.257	11.19
353.474	4.02
353.69	10.8
353.906	23.01
354.122	-35.12
354.339	55.36
354.555	2.66
354.771	8.86
354.987	37.54
355.203	54.98
355.42	-3.73
355.636	-16.71
355.852	-10.9
356.068	2.08
356.284	-35.89
356.5	52.84
356.716	12.93
356.932	1.5
357.148	20.1
357.364	0.15
357.58	45.29
357.796	57.69
358.012	66.02
358.228	28.43
358.444	-69.8
358.66	53.04
358.876	25.72
359.092	-3.73
359.308	32.5
359.524	40.64
359.74	6.73
359.956	-32.02
360.172	28.63
360.388	60.21
360.604	-14.97
360.819	95.47
361.035	19.33
361.251	50.33
361.467	-18.84
361.683	45.29
361.898	20.88
362.114	40.44
362.33	0.53
362.546	36.18
362.762	2.47
362.977	30.56
363.193	-23.88
363.409	60.4
363.624	-24.65
363.84	-12.84
364.056	-10.7
364.271	33.28
364.487	19.52
364.703	-20.59
364.918	-29.3
365.134	14.48
365.35	-16.13
365.565	109.22
365.781	-22.91
365.996	42.58
366.212	69.89
366.427	12.55
366.643	-11.48
366.858	12.93
367.074	-32.21
367.289	37.54
367.505	119.11
367.72	-26.4
367.936	-21.55
368.151	54.59
368.367	30.95
368.582	24.36
368.798	5.76
369.013	61.95
369.228	11.58
369.444	11.58
369.659	82.1
369.874	48.19
370.09	76.68
370.305	-41.12
370.52	-23.3
370.736	61.18
370.951	18.55
371.166	46.84
371.381	90.24
371.597	40.44
371.812	-20.59
372.027	1.11
372.242	-3.73
372.458	78.42
372.673	-1.99
372.888	-4.7
373.103	29.98
373.318	76.29
373.533	43.16
373.749	44.32
373.964	-60.3
374.179	51.68
374.394	-17.68
374.609	38.7
374.824	-21.94
375.039	48.97
375.254	-10.51
375.469	75.32
375.684	25.72
375.899	73.38
376.114	13.71
376.329	13.51
376.544	48.58
376.759	26.11
376.974	-20.39
377.189	-13.61
377.404	-7.22
377.619	35.6
377.834	-16.13
378.049	-22.33
378.264	-30.27
378.478	-2.57
378.693	-3.15
378.908	28.04
379.123	11.77
379.338	47.61
379.553	26.49
379.767	45.48
379.982	60.21
380.197	57.88
380.412	31.92
380.626	39.48
380.841	98.57
381.056	36.76
381.271	59.04
381.485	-8.38
381.7	-22.52
381.915	36.76
382.129	-12.64
382.344	54.59
382.559	22.81
382.773	39.28
382.988	-25.82
383.202	38.51
383.417	-28.72
383.632	100.31
383.846	10.22
384.061	24.56
384.275	16.42
384.49	26.88
384.704	39.09
384.919	26.11
385.133	33.08
385.348	47.23
385.562	-19.23
385.777	22.81
385.991	12.35
386.206	-8.77
386.42	17.97
386.634	72.8
386.849	50.91
387.063	22.23
387.277	-13.8
387.492	4.8
387.706	-9.74
387.92	-14.39
388.135	39.48
388.349	32.89
388.563	-5.67
388.778	4.21
388.992	37.54
389.206	43.16
389.42	100.7
389.635	6.73
389.849	48.58
390.063	40.06
390.277	8.67
390.491	77.45
390.706	56.72
390.92	52.84
391.134	17
391.348	64.08
391.562	-35.12
391.776	15.26
391.99	-4.31
392.205	35.02
392.419	-1.6
392.633	-5.09
392.847	62.34
393.061	8.28
393.275	98.38
393.489	13.71
393.703	31.53
393.917	54.78
394.131	-20
394.345	50.71
394.559	73.38
394.773	-23.3
394.986	28.82
395.2	20.88
395.414	48.97
395.628	-7.6
395.842	35.41
396.056	48.19
396.27	-25.43
396.484	40.25
396.697	48.39
396.911	75.71
397.125	30.95
397.339	62.53
397.553	43.74
397.766	84.04
397.98	43.93
398.194	80.94
398.408	31.53
398.621	35.6
398.835	67.57
399.049	11.19
399.262	93.92
399.476	44.13
399.69	35.21
399.903	133.25
400.117	22.04
400.331	45.09
400.544	9.64
400.758	159.02
400.971	71.06
401.185	77.06
401.398	12.35
401.612	95.47
401.826	51.68
402.039	60.79
402.253	8.86
402.466	48.97
402.68	25.72
402.893	60.98
403.106	48.39
403.32	42.19
403.533	67.38
403.747	40.64
403.96	54.2
404.174	55.36
404.387	4.41
404.6	30.95
404.814	71.44
405.027	66.99
405.24	30.76
405.454	40.25
405.667	97.02
405.88	-23.1
406.094	56.53
406.307	70.67
406.52	63.11
406.733	32.31
406.947	14.68
407.16	139.26
407.373	85.98
407.586	24.36
407.799	5.76
408.012	75.51
408.226	38.31
408.439	104.38
408.652	23.01
408.865	35.79
409.078	80.16
409.291	89.27
409.504	6.93
409.717	62.34
409.93	52.26
410.143	50.33
410.357	-12.84
410.57	39.28
410.783	26.11
410.996	46.64
411.209	61.95
411.421	69.31
411.634	37.54
411.847	51.49
412.06	26.69
412.273	19.91
412.486	49.16
412.699	104.77
412.912	20.68
413.125	93.34
413.338	49.55
413.55	51.1
413.763	42.96
413.976	68.73
414.189	33.66
414.402	45.48
414.615	111.55
414.827	27.27
415.04	69.89
415.253	57.3
415.466	65.44
415.678	107.68
415.891	42.96
416.104	55.36
416.316	36.76
416.529	11.38
416.742	81.91
416.954	101.48
417.167	41.22
417.38	30.18
417.592	67.18
417.805	36.96
418.017	-10.51
418.23	80.55
418.442	39.67
418.655	57.69
418.868	60.21
419.08	66.21
419.293	92.95
419.505	71.25
419.718	58.66
419.93	88.49
420.142	40.64
420.355	99.93
420.567	86.56
420.78	72.22
420.992	62.53
421.205	123.17
421.417	32.89
421.629	28.82
421.842	23.01
422.054	15.84
422.266	83.65
422.479	116.39
422.691	41.99
422.903	110.77
423.115	42.38
423.328	62.53
423.54	78.61
423.752	62.34
423.964	23.01
424.177	72.41
424.389	51.1
424.601	158.44
424.813	78.03
425.025	94.5
425.238	84.23
425.45	48
425.662	48.78
425.874	368.85
426.086	62.34
426.298	99.34
426.51	80.55
426.722	55.17
426.934	46.84
427.146	93.53
427.358	28.24
427.57	83.07
427.782	51.68
427.994	62.14
428.206	67.18
428.418	10.41
428.63	79.19
428.842	120.66
429.054	84.23
429.266	98.76
429.478	35.6
429.69	76.48
429.902	25.91
430.114	82.1
430.325	76.48
430.537	68.15
430.749	74.93
430.961	5.76
431.173	47.03
431.384	98.38
431.596	-12.84
431.808	44.13
432.02	77.06
432.231	123.95
432.443	114.07
432.655	103.03
432.867	30.76
433.078	106.13
433.29	140.81
433.502	112.91
433.713	98.76
433.925	95.66
434.136	124.72
434.348	54.78
434.56	22.62
434.771	188.86
434.983	38.51
435.194	75.32
435.406	79.78
435.617	113.1
435.829	135.96
436.04	113.49
436.252	122.59
436.463	146.42
436.675	124.92
436.886	92.37
437.098	110.77
437.309	156.31
437.521	86.36
437.732	128.99
437.943	110.77
438.155	94.31
438.366	47.81
438.578	166.96
438.789	122.01
439	110
439.211	104.96
439.423	129.37
439.634	139.26
439.845	116.78
440.057	121.24
440.268	138.29
440.479	72.8
440.69	104.38
440.902	109.22
441.113	95.08
441.324	123.17
441.535	129.57
441.746	158.63
441.957	97.79
442.168	108.84
442.38	131.89
442.591	141
442.802	105.74
443.013	115.42
443.224	131.51
443.435	101.09
443.646	104.58
443.857	106.71
444.068	86.94
444.279	113.87
444.49	192.54
444.701	127.24
444.912	218.5
445.123	156.11
445.334	136.35
445.545	129.96
445.756	116.97
445.967	107.29
446.178	162.7
446.388	171.03
446.599	188.27
446.81	161.54
447.021	115.62
447.232	186.72
447.443	177.62
447.653	103.8
447.864	153.01
448.075	151.66
448.286	185.37
448.496	155.14
448.707	186.34
448.918	152.04
449.129	234
449.339	123.37
449.55	167.16
449.761	145.07
449.971	211.91
450.182	117.36
450.393	193.51
450.603	120.27
450.814	157.66
451.024	176.65
451.235	159.79
451.446	207.45
451.656	210.55
451.867	126.08
452.077	156.89
452.288	206.1
452.498	205.13
452.709	191.18
452.919	171.22
453.13	141.39
453.34	204.16
453.55	149.33
453.761	163.47
453.971	190.99
454.182	204.74
454.392	205.32
454.602	227.41
454.813	180.52
455.023	227.6
455.233	155.72
455.444	171.81
455.654	122.79
455.864	170.26
456.075	178.59
456.285	127.05
456.495	166.38
456.705	213.07
456.916	196.02
457.126	248.53
457.336	170.84
457.546	101.67
457.756	156.11
457.967	207.26
458.177	167.35
458.387	181.49
458.597	158.24
458.807	178.78
459.017	161.73
459.227	176.84
459.437	172
459.647	220.05
459.857	201.64
460.068	189.44
460.278	232.84
460.488	182.46
460.698	273.91
460.908	201.25
461.117	157.47
461.327	124.53
461.537	181.49
461.747	199.32
461.957	189.24
462.167	297.16
462.377	221.99
462.587	183.04
462.797	194.86
463.007	216.56
463.216	190.6
463.426	233.22
463.636	224.12
463.846	145.84
464.056	172
464.265	226.64
464.475	149.72
464.685	202.42
464.895	239.62
465.104	201.45
465.314	210.94
465.524	175.87
465.733	188.27
465.943	285.53
466.153	275.27
466.362	245.04
466.572	199.32
466.782	200.67
466.991	228.57
467.201	264.42
467.41	176.07
467.62	211.33
467.829	220.82
468.039	206.68
468.249	227.02
468.458	208.81
468.668	256.28
468.877	237.1
469.086	292.7
469.296	267.32
469.505	192.54
469.715	301.03
469.924	241.55
470.134	273.14
470.343	295.8
470.552	223.15
470.762	236.32
470.971	198.35
471.18	240.2
471.39	237.1
471.599	201.06
471.808	269.07
472.018	213.46
472.227	269.26
472.436	273.52
472.645	246.98
472.855	238.65
473.064	297.74
473.273	271.39
473.482	270.62
473.691	318.86
473.901	296
474.11	262.48
474.319	343.27
474.528	284.37
474.737	314.79
474.946	296
475.155	276.62
475.364	307.43
475.573	290.18
475.783	285.34
475.992	296.19
476.201	333.39
476.41	268.49
476.619	277.98
476.828	297.35
477.037	263.84
477.245	275.46
477.454	320.99
477.663	272.36
477.872	288.44
478.081	328.55
478.29	258.02
478.499	380.08
478.708	310.53
478.917	380.66
479.125	299.68
479.334	337.65
479.543	314.4
479.752	310.92
479.961	296.58
480.169	351.22
480.378	313.82
480.587	421.74
480.796	350.25
481.004	306.46
481.213	339.2
481.422	342.69
481.63	321.77
481.839	376.21
482.048	404.69
482.256	342.3
482.465	353.35
482.674	342.11
482.882	371.37
483.091	406.82
483.299	361.87
483.508	360.71
483.716	388.22
483.925	345.79
484.134	362.07
484.342	347.34
484.551	382.99
484.759	366.72
484.967	380.86
485.176	389.96
485.384	380.86
485.593	407.01
485.801	400.81
486.01	354.9
486.218	351.02
486.426	303.75
486.635	336.1
486.843	357.42
487.051	375.63
487.26	362.65
487.468	378.73
487.676	409.73
487.885	334.94
488.093	406.05
488.301	359.74
488.509	399.46
488.717	438.98
488.926	384.35
489.134	400.43
489.342	421.35
489.55	379.7
489.758	387.25
489.967	401.78
490.175	487.42
490.383	388.8
490.591	480.25
490.799	373.88
491.007	450.61
491.215	425.42
491.423	404.88
491.631	414.18
491.839	422.71
492.047	472.89
492.255	396.94
492.463	356.45
492.671	411.08
492.879	460.49
493.087	448.28
493.295	445.38
493.503	441.7
493.711	462.23
493.919	492.84
494.127	485.68
494.334	513.58
494.542	405.66
494.75	479.09
494.958	435.69
495.166	488.97
495.374	455.06
495.581	475.02
495.789	465.72
495.997	519.39
496.205	462.81
496.412	452.35
496.62	439.76
496.828	504.86
497.035	456.61
497.243	505.24
497.451	470.95
497.658	492.26
497.866	449.06
498.074	517.64
498.281	458.94
498.489	558.72
498.696	502.53
498.904	459.52
499.112	486.84
499.319	535.28
499.527	481.03
499.734	531.01
499.942	478.7
500.149	468.04
500.357	498.85
500.564	450.41
500.771	496.72
500.979	461.46
501.186	465.72
501.394	530.43
501.601	495.75
501.808	496.53
502.016	491.68
502.223	481.41
502.43	497.3
502.638	499.43
502.845	476.38
503.052	569.76
503.26	479.09
503.467	562.98
503.674	498.27
503.881	550.58
504.089	608.32
504.296	532.56
504.503	470.56
504.71	499.82
504.917	470.95
505.125	525.2
505.332	531.79
505.539	533.14
505.746	588.56
505.953	562.4
506.16	534.69
506.367	584.29
506.574	598.82
506.781	597.66
506.988	522.88
507.195	563.56
507.402	517.06
507.609	558.52
507.816	490.52
508.023	535.47
508.23	552.91
508.437	529.66
508.644	583.71
508.851	631.18
509.058	576.54
509.265	562.01
509.472	575.19
509.679	652.69
509.885	556.39
510.092	553.68
510.299	566.08
510.506	554.26
510.713	598.82
510.92	567.44
511.126	586.81
511.333	610.64
511.54	589.72
511.746	647.26
511.953	642.22
512.16	654.62
512.367	568.02
512.573	595.53
512.78	602.51
512.987	606.96
513.193	609.48
513.4	531.79
513.606	574.41
513.813	637.19
514.02	601.73
514.226	688.53
514.433	658.3
514.639	580.42
514.846	604.83
515.052	610.64
515.259	606.77
515.465	619.17
515.672	635.25
515.878	736.58
516.085	607.54
516.291	663.15
516.497	566.86
516.704	618.39
516.91	597.86
517.117	567.24
517.323	522.68
517.529	604.06
517.736	560.07
517.942	587.78
518.148	569.76
518.354	610.26
518.561	601.34
518.767	622.66
518.973	627.31
519.179	671.67
519.386	593.4
519.592	587.97
519.798	600.37
520.004	670.9
520.21	654.82
520.417	667.8
520.623	692.99
520.829	701.9
521.035	705.77
521.241	698.8
521.447	714.49
521.653	826.28
521.859	704.61
522.065	723.98
522.271	843.14
522.477	739.87
522.683	781.14
522.889	762.93
523.095	736
523.301	719.53
523.507	732.51
523.713	741.62
523.919	694.73
524.125	748.59
524.331	720.89
524.537	804.58
524.742	773.39
524.948	766.22
525.154	783.66
525.36	879.18
525.566	798.77
525.772	814.66
525.977	724.95
526.183	813.11
526.389	833.26
526.595	759.44
526.8	791.6
527.006	705
527.212	717.2
527.417	690.27
527.623	697.25
527.829	773.58
528.034	781.92
528.24	777.27
528.446	738.32
528.651	804.39
528.857	816.79
529.062	849.34
529.268	809.62
529.473	807.68
529.679	821.25
529.884	859.61
530.09	875.5
530.295	884.41
530.501	889.06
530.706	854.18
530.912	828.61
531.117	861.16
531.323	821.05
531.528	866.58
531.733	865.42
531.939	847.4
532.144	885.57
532.35	854.38
532.555	931.88
532.76	880.34
532.966	863.87
533.171	848.76
533.376	836.36
533.581	835.39
533.787	899.33
533.992	902.43
534.197	904.36
534.402	890.22
534.607	893.32
534.813	937.11
535.018	894.1
535.223	869.68
535.428	907.66
535.633	938.66
535.838	910.56
536.043	921.22
536.249	966.56
536.454	907.27
536.659	914.63
536.864	859.41
537.069	875.11
537.274	913.66
537.479	887.7
537.684	939.24
537.889	858.64
538.094	972.56
538.299	914.83
538.504	921.41
538.708	915.41
538.913	942.73
539.118	899.33
539.323	942.34
539.528	901.46
539.733	943.69
539.938	966.94
540.142	949.12
540.347	926.06
540.552	915.79
540.757	918.51
540.962	898.16
541.166	870.85
541.371	870.65
541.576	927.03
541.781	804.78
541.985	951.44
542.19	927.23
542.395	1000.27
542.599	1011.51
542.804	914.63
543.008	1026.23
543.213	892.35
543.418	892.93
543.622	978.57
543.827	907.08
544.031	995.04
544.236	969.85
544.44	947.38
544.645	1014.22
544.849	956.68
545.054	964.62
545.258	1028.56
545.463	1045.22
545.667	940.59
545.872	962.88
546.076	974.89
546.281	983.02
546.485	942.34
546.689	984.19
546.894	994.26
547.098	976.63
547.302	931.88
547.507	961.52
547.711	978.38
547.915	1021.58
548.119	952.22
548.324	944.86
548.528	1056.65
548.732	976.83
548.936	998.33
549.141	1010.15
549.345	969.27
549.549	974.5
549.753	998.72
549.957	1084.94
550.161	1058.78
550.366	967.53
550.57	960.94
550.774	977.6
550.978	980.89
551.182	1013.83
551.386	976.63
551.59	974.89
551.794	958.42
551.998	1003.95
552.202	976.83
552.406	967.91
552.61	993.29
552.814	989.61
553.018	1082.22
553.222	984.96
553.426	975.47
553.63	1054.52
553.833	1000.07
554.037	944.66
554.241	986.9
554.445	1025.65
554.649	980.7
554.853	970.63
555.056	1022.74
555.26	1045.8
555.464	1014.8
555.668	999.3
555.871	1024.1
556.075	1048.51
556.279	1015.38
556.483	969.46
556.686	977.79
556.89	984.96
557.094	990.39
557.297	921.61
557.501	1014.61
557.704	911.34
557.908	1004.34
558.112	933.81
558.315	1018.48
558.519	983.02
558.722	962.88
558.926	952.22
559.129	917.73
559.333	896.42
559.536	918.7
559.74	870.46
559.943	930.13
560.147	910.18
560.35	922.77
560.553	929.74
560.757	861.74
560.96	1000.66
561.164	918.7
561.367	978.76
561.57	950.28
561.774	968.11
561.977	914.05
562.18	900.29
562.384	1011.31
562.587	975.66
562.79	892.74
562.993	918.51
563.197	976.63
563.4	1015.38
563.603	990.39
563.806	1023.32
564.009	937.3
564.212	968.49
564.416	887.9
564.619	945.24
564.822	880.15
565.025	968.88
565.228	919.28
565.431	938.66
565.634	854.76
565.837	902.62
566.04	897.97
566.243	881.89
566.446	828.61
566.649	897.19
566.852	856.7
567.055	850.31
567.258	892.74
567.461	938.85
567.664	945.44
567.867	847.01
568.07	900.1
568.273	888.09
568.475	914.44
568.678	879.95
568.881	876.46
569.084	852.05
569.287	784.05
569.489	834.81
569.692	897.58
569.895	877.05
570.098	806.33
570.3	813.5
570.503	779.01
570.706	808.85
570.909	799.55
571.111	767
571.314	784.82
571.516	799.55
571.719	823.38
571.922	808.85
572.124	790.44
572.327	801.48
572.529	752.66
572.732	768.16
572.935	827.45
573.137	859.22
573.34	772.81
573.542	825.51
573.745	818.73
573.947	819.5
574.15	804
574.352	770.48
574.554	857.86
574.757	767.77
574.959	768.16
575.162	766.42
575.364	777.46
575.566	885.57
575.769	761.57
575.971	781.33
576.173	707.52
576.376	746.07
576.578	806.33
576.78	819.5
576.982	738.32
577.185	774.94
577.387	719.72
577.589	727.47
577.791	766.22
577.993	804.58
578.196	763.32
578.398	762.15
578.6	792.38
578.802	709.45
579.004	736
579.206	723.79
579.408	765.83
579.61	738.32
579.812	789.47
580.014	736
580.216	726.89
580.418	725.53
580.62	710.23
580.822	722.82
581.024	731.93
581.226	761.96
581.428	730.96
581.63	832.1
581.832	710.62
582.034	782.5
582.236	730.38
582.438	772.81
582.64	807.1
582.841	837.33
583.043	831.51
583.245	756.15
583.447	814.08
583.649	762.35
583.85	747.43
584.052	838.68
584.254	726.89
584.456	791.02
584.657	715.65
584.859	756.92
585.061	737.35
585.262	703.64
585.464	695.12
585.666	756.34
585.867	737.55
586.069	819.89
586.27	775.72
586.472	763.9
586.674	725.73
586.875	731.93
587.077	706.35
587.278	734.83
587.48	709.84
587.681	857.48
587.883	759.25
588.084	659.47
588.285	702.48
588.487	690.08
588.688	780.75
588.89	686.59
589.091	667.22
589.292	667.6
589.494	663.73
589.695	648.42
589.896	622.27
590.098	586.81
590.299	668.38
590.5	605.41
590.702	634.47
590.903	645.71
591.104	726.7
591.305	673.61
591.507	728.83
591.708	681.17
591.909	683.69
592.11	758.47
592.311	701.9
592.512	663.92
592.714	587.2
592.915	626.92
593.116	651.52
593.317	696.86
593.518	674
593.719	670.9
593.92	696.86
594.121	715.65
594.322	698.8
594.523	699.38
594.724	653.27
594.925	668.38
595.126	692.21
595.327	673.8
595.528	678.26
595.729	687.95
595.929	652.49
596.13	650.17
596.331	653.85
596.532	670.7
596.733	736.97
596.934	706.94
597.135	705.77
597.335	701.32
597.536	643.77
597.737	690.66
597.938	657.53
598.138	725.92
598.339	676.32
598.54	686.98
598.74	653.46
598.941	655.2
599.142	706.16
599.342	692.02
599.543	641.25
599.744	668.57
599.944	645.13
600.145	651.14
600.345	692.99
600.546	740.45
600.746	727.86
600.947	739.87
601.147	705
601.348	743.36
601.548	665.28
601.749	668.57
601.949	646.1
602.15	668.19
602.35	663.54
602.551	727.47
602.751	627.89
602.951	670.51
603.152	616.65
603.352	684.27
603.552	659.47
603.753	697.05
603.953	686.79
604.153	667.8
604.354	659.66
604.554	638.54
604.754	674
604.954	636.41
605.155	677.1
605.355	630.6
605.555	697.05
605.755	749.17
605.955	669.93
606.155	724.76
606.356	674.77
606.556	695.5
606.756	702.67
606.956	599.99
607.156	754.98
607.356	655.4
607.556	689.11
607.756	630.79
607.956	687.37
608.156	657.92
608.356	665.28
608.556	692.79
608.756	683.1
608.956	621.11
609.156	691.44
609.356	611.22
609.556	640.87
609.755	662.37
609.955	628.86
610.155	662.76
610.355	641.25
610.555	629.63
610.755	658.11
610.954	570.54
611.154	678.26
611.354	683.3
611.554	626.53
611.753	624.4
611.953	570.15
612.153	665.28
612.352	660.24
612.552	592.43
612.752	606.57
612.951	634.09
613.151	619.36
613.351	580.22
613.55	610.26
613.75	628.08
613.949	590.3
614.149	668.19
614.348	640.87
614.548	611.42
614.747	543.99
614.947	572.86
615.146	541.86
615.346	630.02
615.545	643.97
615.745	608.9
615.944	643.58
616.144	608.51
616.343	649.97
616.542	605.02
616.742	590.88
616.941	608.32
617.14	538.57
617.34	615.29
617.539	600.57
617.738	564.34
617.938	652.1
618.137	590.88
618.336	567.82
618.535	610.26
618.734	587.59
618.934	628.86
619.133	571.89
619.332	624.59
619.531	568.02
619.73	587.2
619.929	650.17
620.128	617.42
620.328	679.42
620.527	565.31
620.726	576.35
620.925	611.81
621.124	578.87
621.323	606.38
621.522	550.97
621.721	586.04
621.92	526.75
622.119	628.47
622.318	527.14
622.517	558.52
622.715	582.55
622.914	539.93
623.113	585.46
623.312	526.56
623.511	591.46
623.71	563.76
623.909	558.52
624.107	586.62
624.306	507.76
624.505	535.47
624.704	549.61
624.902	548.84
625.101	608.9
625.3	587.78
625.499	546.51
625.697	537.02
625.896	526.36
626.095	564.92
626.293	521.52
626.492	542.64
626.69	530.24
626.889	512.8
627.088	578.09
627.286	532.56
627.485	529.27
627.683	510.67
627.882	577.9
628.08	478.7
628.279	517.64
628.477	614.52
628.676	495.94
628.874	539.34
629.073	524.23
629.271	468.24
629.469	548.26
629.668	513.77
629.866	551.16
630.065	526.94
630.263	568.02
630.461	501.37
630.66	536.83
630.858	534.11
631.056	565.69
631.254	574.61
631.453	494.78
631.651	529.46
631.849	513.77
632.047	535.66
632.245	495.75
632.444	549.81
632.642	542.25
632.84	551.74
633.038	491.68
633.236	499.63
633.434	510.48
633.632	485.09
633.83	499.24
634.028	539.15
634.227	493.43
634.425	582.16
634.623	528.3
634.821	516.09
635.019	523.46
635.216	490.13
635.414	555.42
635.612	528.88
635.81	521.52
636.008	585.07
636.206	532.18
636.404	554.46
636.602	474.05
636.8	523.65
636.997	566.27
637.195	561.82
637.393	519.78
637.591	594.56
637.789	519.97
637.986	508.54
638.184	516.29
638.382	568.99
638.58	555.23
638.777	574.41
638.975	536.05
639.173	512.99
639.37	537.79
639.568	565.69
639.765	566.86
639.963	535.28
640.161	558.91
640.358	552.91
640.556	520.36
640.753	480.25
640.951	476.57
641.148	529.46
641.346	488.58
641.543	494.78
641.741	534.5
641.938	491.49
642.136	510.86
642.333	493.04
642.531	572.47
642.728	543.22
642.925	513.77
643.123	519
643.32	512.8
643.517	519
643.715	523.07
643.912	507.96
644.109	540.31
644.306	493.62
644.504	493.23
644.701	515.9
644.898	538.96
645.095	472.5
645.293	508.15
645.49	537.41
645.687	511.83
645.884	544.19
646.081	431.04
646.278	491.68
646.475	485.09
646.672	494.98
646.87	504.66
647.067	512.61
647.264	492.07
647.461	477.54
647.658	446.73
647.855	498.27
648.052	479.28
648.249	406.05
648.446	470.18
648.642	462.81
648.839	433.75
649.036	464.75
649.233	400.81
649.43	423.1
649.627	408.18
649.824	448.09
650.021	431.23
650.217	438.79
650.414	440.15
650.611	469.01
650.808	462.23
651.004	478.31
651.201	467.27
651.398	503.89
651.595	461.84
651.791	415.54
651.988	443.44
652.185	413.21
652.381	491.29
652.578	419.03
652.775	442.08
652.971	424.26
653.168	468.43
653.364	492.65
653.561	369.82
653.757	460.29
653.954	460.88
654.15	418.64
654.347	494.98
654.543	437.24
654.74	375.43
654.936	416.9
655.133	458.36
655.329	427.36
655.525	436.66
655.722	452.55
655.918	374.66
656.115	471.53
656.311	370.98
656.507	353.73
656.704	356.45
656.9	379.11
657.096	361.87
657.292	401.98
657.489	428.91
657.685	406.82
657.881	398.3
658.077	430.65
658.273	410.5
658.47	455.45
658.666	407.21
658.862	439.56
659.058	417.67
659.254	456.42
659.45	392.87
659.646	427.55
659.842	428.71
660.038	475.21
660.234	389.96
660.43	416.31
660.626	471.53
660.822	458.94
661.018	453.9
661.214	442.28
661.41	398.88
661.606	438.98
661.802	458.74
661.998	433.36
662.194	407.21
662.39	433.56
662.586	448.67
662.781	463.78
662.977	463.39
663.173	486.84
663.369	457.2
663.564	451.19
663.76	496.72
663.956	410.31
664.152	481.61
664.347	373.5
664.543	428.33
664.739	392.68
664.934	388.22
665.13	379.11
665.326	451.96
665.521	430.85
665.717	388.41
665.912	386.28
666.108	347.92
666.304	401.59
666.499	414.76
666.695	337.65
666.89	405.66
667.086	443.83
667.281	448.86
667.477	471.92
667.672	405.85
667.867	406.43
668.063	419.22
668.258	382.21
668.454	419.22
668.649	497.69
668.844	413.02
669.04	425.03
669.235	398.88
669.43	400.43
669.626	359.35
669.821	383.38
670.016	350.05
670.211	388.22
670.407	374.46
670.602	429.1
670.797	397.13
670.992	415.73
671.187	371.56
671.382	448.86
671.578	408.18
671.773	423.68
671.968	376.4
672.163	406.82
672.358	419.8
672.553	403.53
672.748	371.37
672.943	469.21
673.138	384.35
673.333	423.68
673.528	378.73
673.723	450.22
673.918	393.65
674.113	353.93
674.308	493.81
674.503	437.05
674.698	433.36
674.892	426.78
675.087	442.66
675.282	429.68
675.477	368.46
675.672	411.08
675.867	375.05
676.061	363.03
676.256	353.54
676.451	389.77
676.646	390.74
676.84	370.59
677.035	374.27
677.23	373.11
677.424	434.72
677.619	434.91
677.814	419.22
678.008	464.75
678.203	348.7
678.397	364
678.592	401.4
678.787	468.63
678.981	397.33
679.176	407.4
679.37	404.5
679.565	367.3
679.759	395.58
679.954	446.73
680.148	457
680.342	470.95
680.537	467.27
680.731	406.24
680.926	419.22
681.12	420.19
681.314	393.84
681.509	399.85
681.703	399.07
681.897	471.53
682.092	415.15
682.286	420
682.48	478.12
682.674	470.76
682.869	424.65
683.063	438.98
683.257	500.01
683.451	408.37
683.645	447.9
683.839	396.75
684.034	425.42
684.228	495.75
684.422	374.27
684.616	401.78
684.81	434.14
685.004	435.3
685.198	442.47
685.392	479.28
685.586	389.96
685.78	425.23
685.974	452.16
686.168	429.68
686.362	491.68
686.556	425.23
686.75	360.52
686.944	385.51
687.138	400.43
687.331	323.7
687.525	350.25
687.719	307.43
687.913	345.02
688.107	368.07
688.301	342.3
688.494	389.38
688.688	336.1
688.882	277.98
689.076	317.89
689.269	324.67
689.463	439.56
689.657	360.32
689.85	375.63
690.044	368.07
690.238	362.84
690.431	373.88
690.625	372.72
690.818	420.77
691.012	408.76
691.205	426.39
691.399	410.11
691.593	414.76
691.786	472.89
691.98	470.56
692.173	488
692.366	442.66
692.56	471.34
692.753	522.29
692.947	405.27
693.14	496.91
693.333	501.37
693.527	455.26
693.72	488
693.914	461.84
694.107	468.82
694.3	483.16
694.493	464.17
694.687	516.48
694.88	484.51
695.073	572.67
695.266	543.41
695.46	506.02
695.653	535.08
695.846	562.98
696.039	478.31
696.232	485.29
696.425	570.54
696.618	555.81
696.812	567.05
697.005	616.46
697.198	687.75
697.391	627.89
697.584	637.96
697.777	694.92
697.97	643.77
698.163	671.67
698.356	622.07
698.549	716.82
698.742	697.25
698.935	641.06
699.127	661.79
699.32	667.41
699.513	642.03
699.706	676.13
699.899	677.1
700.092	635.05
700.285	715.65
700.477	612.19
700.67	707.9
700.863	712.75
701.056	817.37
701.248	749.75
701.441	763.32
701.634	696.86
701.826	840.81
702.019	701.7
702.212	767.77
702.404	748.4
702.597	717.01
702.79	740.45
702.982	768.55
703.175	793.35
703.367	830.55
703.56	834.81
703.752	911.73
703.945	813.88
704.137	860.38
704.33	888.28
704.522	889.45
704.715	876.08
704.907	906.11
705.1	921.8
705.292	928
705.484	915.79
705.677	941.18
705.869	957.64
706.061	982.44
706.254	998.72
706.446	966.94
706.638	966.75
706.831	1043.47
707.023	971.79
707.215	1087.84
707.407	1051.81
707.599	1039.6
707.792	1101.02
707.984	1062.07
708.176	1111.87
708.368	1068.47
708.56	1088.81
708.752	1043.67
708.944	1089.2
709.136	1130.08
709.329	1079.9
709.521	1230.44
709.713	1155.65
709.905	1156.43
710.097	1190.33
710.289	1116.13
710.481	1173.28
710.672	1204.87
710.864	1181.42
711.056	1233.35
711.248	1209.71
711.44	1240.71
711.632	1235.67
711.824	1275
712.016	1298.25
712.207	1262.41
712.399	1270.93
712.591	1350.56
712.783	1338.16
712.975	1334.29
713.166	1294.18
713.358	1292.25
713.55	1344.56
713.741	1380.59
713.933	1348.24
714.125	1336.42
714.316	1343.39
714.508	1420.7
714.7	1406.17
714.891	1411.21
715.083	1408.88
715.274	1406.36
715.466	1435.62
715.657	1438.52
715.849	1371.88
716.04	1413.53
716.232	1350.37
716.423	1419.93
716.615	1321.7
716.806	1316.08
716.998	1326.73
717.189	1289.92
717.381	1239.16
717.572	1199.63
717.763	1236.45
717.955	1196.73
718.146	1177.16
718.337	1162.24
718.528	1166.12
718.72	1053.74
718.911	1143.25
719.102	1095.59
719.293	1177.16
719.485	1154.69
719.676	1120.78
719.867	1103.15
720.058	1099.08
720.249	1091.72
720.44	1137.64
720.632	1160.3
720.823	1189.37
721.014	1256.98
721.205	1274.81
721.396	1348.24
721.587	1388.34
721.778	1427.29
721.969	1425.74
722.16	1482.89
722.351	1467.59
722.542	1581.7
722.733	1584.61
722.924	1456.16
723.115	1592.75
723.305	1535.79
723.496	1561.94
723.687	1451.89
723.878	1460.22
724.069	1489.67
724.26	1477.86
724.45	1431.55
724.641	1419.54
724.832	1463.32
725.023	1428.84
725.213	1466.04
725.404	1411.98
725.595	1457.51
725.785	1405.98
725.976	1444.14
726.167	1481.15
726.357	1473.79
726.548	1547.41
726.739	1465.46
726.929	1486.77
727.12	1555.74
727.31	1549.15
727.501	1533.85
727.691	1518.35
727.882	1532.88
728.072	1563.3
728.263	1585.97
728.453	1589.65
728.644	1610.57
728.834	1590.81
729.024	1567.75
729.215	1571.82
729.405	1592.75
729.596	1682.45
729.786	1679.55
729.976	1670.63
730.167	1670.63
730.357	1629.95
730.547	1634.6
730.737	1668.12
730.928	1694.08
731.118	1729.34
731.308	1696.79
731.498	1677.22
731.688	1778.94
731.879	1785.91
732.069	1821.76
732.259	1856.24
732.449	1821.56
732.639	1890.92
732.829	1912.04
733.019	1949.44
733.209	1976.56
733.399	1977.14
733.589	2022.87
733.779	2008.14
733.969	2015.89
734.159	2078.28
734.349	2116.45
734.539	2142.21
734.729	2092.62
734.919	2161.78
735.109	2167.98
735.299	2121.1
735.488	2141.05
735.678	2149.77
735.868	2154.23
736.058	2146.09
736.248	2101.92
736.437	2123.42
736.627	2068.2
736.817	2195.5
737.007	2135.24
737.196	2203.44
737.386	2191.04
737.576	2140.66
737.765	2224.56
737.955	2162.17
738.144	2267.76
738.334	2238.31
738.524	2199.37
738.713	2232.11
738.903	2268.54
739.092	2215.45
739.282	2234.63
739.471	2292.37
739.661	2243.93
739.85	2281.33
740.04	2269.12
740.229	2322.79
740.419	2293.14
740.608	2335.38
740.797	2311.94
740.987	2348.94
741.176	2349.72
741.365	2295.27
741.555	2266.02
741.744	2371.22
741.933	2334.61
742.123	2350.49
742.312	2384.4
742.501	2391.95
742.69	2438.26
742.88	2363.86
743.069	2449.5
743.258	2385.37
743.447	2456.28
743.636	2434.19
743.825	2347.39
744.014	2405.52
744.204	2395.25
744.393	2397.77
744.582	2467.52
744.771	2491.35
744.96	2423.54
745.149	2425.47
745.338	2398.35
745.527	2445.24
745.716	2451.82
745.905	2441.55
746.094	2472.55
746.283	2497.16
746.471	2429.74
746.66	2484.37
746.849	2493.87
747.038	2518.86
747.227	2450.85
747.416	2486.12
747.604	2432.25
747.793	2430.7
747.982	2451.05
748.171	2503.36
748.359	2473.33
748.548	2496.77
748.737	2450.66
748.926	2446.01
749.114	2407.45
749.303	2485.73
749.491	2446.4
749.68	2372
749.869	2492.12
750.057	2463.25
750.246	2428.77
750.434	2442.14
750.623	2431.48
750.811	2400.87
751	2449.69
751.188	2410.75
751.377	2421.79
751.565	2414.24
751.754	2375.68
751.942	2418.11
752.131	2434.97
752.319	2386.92
752.507	2354.95
752.696	2406.1
752.884	2456.86
753.072	2393.12
753.261	2369.09
753.449	2377.62
753.637	2353.01
753.825	2450.08
754.014	2403.97
754.202	2434.97
754.39	2421.4
754.578	2417.72
754.766	2387.5
754.955	2340.61
755.143	2458.22
755.331	2405.52
755.519	2380.52
755.707	2398.54
755.895	2364.83
756.083	2389.63
756.271	2332.28
756.459	2352.24
756.647	2374.71
756.835	2370.26
757.023	2315.62
757.211	2347.78
757.399	2353.59
757.587	2302.06
757.775	2284.62
757.963	2304.19
758.151	2337.51
758.339	2297.79
758.526	2283.26
758.714	2319.49
758.902	2222.23
759.09	2160.23
759.278	2039.72
759.465	1891.7
759.653	1637.31
759.841	1496.26
760.028	1250.98
760.216	1096.56
760.404	1073.5
760.591	856.31
760.779	719.92
760.967	639.9
761.154	506.41
761.342	554.84
761.529	543.41
761.717	599.99
761.905	561.62
762.092	657.14
762.28	578.09
762.467	599.99
762.655	520.16
762.842	562.59
763.029	570.15
763.217	573.83
763.404	605.02
763.592	624.4
763.779	550.97
763.966	614.91
764.154	661.4
764.341	695.89
764.528	686.79
764.716	728.44
764.903	804.2
765.09	815.05
765.277	821.25
765.465	961.52
765.652	1010.34
765.839	1047.74
766.026	1150.04
766.213	1152.36
766.4	1217.85
766.588	1411.79
766.775	1372.07
766.962	1455.96
767.149	1488.9
767.336	1636.34
767.523	1555.35
767.71	1658.62
767.897	1688.46
768.084	1809.16
768.271	1815.36
768.458	1838.03
768.645	1912.62
768.832	1845.78
769.019	1882.4
769.206	1939.17
769.392	2009.11
769.579	2084.09
769.766	1988.38
769.953	2004.85
770.14	2069.56
770.327	2053.67
770.513	2074.4
770.7	2096.3
770.887	2033.72
771.073	2119.93
771.26	2059.68
771.447	2021.7
771.634	2054.06
771.82	2147.25
772.007	2025.39
772.193	2089.13
772.38	2120.71
772.567	2082.15
772.753	2089.52
772.94	2108.31
773.126	2157.52
773.313	2133.88
773.499	2116.45
773.686	2119.16
773.872	2090.68
774.059	2087.97
774.245	2072.66
774.432	2080.8
774.618	2019.96
774.804	2099.59
774.991	1999.04
775.177	2106.76
775.363	2057.16
775.55	2101.14
775.736	2030.62
775.922	2030.23
776.109	2089.71
776.295	2059.1
776.481	2068.01
776.667	2122.26
776.853	2047.28
777.04	2006.98
777.226	2042.05
777.412	2138.15
777.598	2006.2
777.784	1985.28
777.97	2000.2
778.156	2045.92
778.342	2020.93
778.528	2011.44
778.715	1937.81
778.901	1964.94
779.087	1998.07
779.272	1984.12
779.458	1966.49
779.644	1983.92
779.83	1949.05
780.016	2037.78
780.202	1970.75
780.388	1963.39
780.574	1861.86
780.76	1920.57
780.946	2003.69
781.131	1970.36
781.317	1971.72
781.503	1894.02
781.689	1922.51
781.874	2032.36
782.06	1946.14
782.246	1952.54
782.432	1958.54
782.617	1950.79
782.803	1996.9
782.989	1851.4
783.174	1884.72
783.36	1852.18
783.545	1899.26
783.731	1907.59
783.916	1800.25
784.102	1912.04
784.288	1904.68
784.473	1886.86
784.659	1841.91
784.844	1883.17
785.029	1823.69
785.215	1838.03
785.4	1777.97
785.586	1899.26
785.771	1808.78
785.956	1866.9
786.142	1825.44
786.327	1794.83
786.512	1833.19
786.698	1812.84
786.883	1775.45
787.068	1788.63
787.254	1795.21
787.439	1767.31
787.624	1787.46
787.809	1797.34
787.994	1764.8
788.18	1797.34
788.365	1722.36
788.55	1744.06
788.735	1764.02
788.92	1749.88
789.105	1748.52
789.29	1753.95
789.475	1699.11
789.66	1703.18
789.845	1715
790.03	1706.09
790.215	1749.1
790.4	1791.53
790.585	1755.88
790.77	1708.8
790.955	1639.63
791.14	1707.83
791.325	1779.71
791.51	1621.81
791.695	1694.27
791.879	1674.32
792.064	1633.63
792.249	1706.09
792.434	1689.43
792.618	1677.8
792.803	1739.61
792.988	1662.5
793.173	1660.37
793.357	1749.68
793.542	1640.02
793.727	1727.21
793.911	1706.09
794.096	1696.98
794.281	1690.59
794.465	1768.48
794.65	1689.43
794.834	1718.3
795.019	1751.62
795.203	1745.81
795.388	1740
795.572	1783.39
795.757	1722.56
795.941	1712.48
796.126	1707.25
796.31	1648.35
796.494	1709.38
796.679	1694.27
796.863	1666.18
797.048	1727.79
797.232	1700.08
797.416	1711.32
797.601	1704.35
797.785	1766.93
797.969	1750.26
798.153	1683.03
798.338	1736.7
798.522	1753.17
798.706	1740.96
798.89	1744.84
799.074	1824.28
799.258	1764.21
799.443	1722.17
799.627	1732.63
799.811	1766.73
799.995	1743.1
800.179	1708.03
800.363	1709.58
800.547	1755.88
800.731	1729.34
800.915	1677.22
801.099	1697.18
801.283	1708.22
801.467	1694.85
801.651	1723.53
801.835	1760.34
802.019	1717.71
802.202	1735.73
802.386	1675.28
802.57	1687.88
802.754	1708.41
802.938	1684.2
803.121	1689.81
803.305	1743.48
803.489	1709.58
803.673	1702.21
803.856	1732.05
804.04	1685.75
804.224	1716.94
804.407	1739.41
804.591	1676.45
804.775	1697.37
804.958	1748.71
805.142	1783.59
805.326	1735.54
805.509	1738.25
805.693	1769.06
805.876	1740.96
806.06	1737.67
806.243	1780.88
806.427	1842.1
806.61	1783.78
806.794	1739.03
806.977	1758.6
807.16	1728.37
807.344	1746.39
807.527	1726.63
807.71	1691.17
807.894	1739.03
808.077	1759.95
808.26	1697.76
808.444	1691.95
808.627	1765.96
808.81	1707.25
808.993	1683.81
809.177	1652.62
809.36	1662.3
809.543	1691.56
809.726	1603.79
809.909	1626.07
810.092	1587.52
810.276	1596.43
810.459	1595.07
810.642	1616.38
810.825	1581.12
811.008	1593.72
811.191	1523
811.374	1554.77
811.557	1556.52
811.74	1618.71
811.923	1498.2
812.106	1530.36
812.289	1469.91
812.472	1490.26
812.654	1512.34
812.837	1446.86
813.02	1443.56
813.203	1432.91
813.386	1360.64
813.569	1361.03
813.751	1297.09
813.934	1331
814.117	1261.25
814.3	1301.35
814.482	1257.56
814.665	1221.33
814.848	1199.63
815.03	1162.82
815.213	1173.48
815.396	1157.2
815.578	1154.1
815.761	1144.03
815.943	1192.47
816.126	1108.96
816.309	1092.49
816.491	1042.31
816.674	1011.7
816.856	1065.56
817.039	1043.47
817.221	1123.49
817.403	1067.89
817.586	1109.54
817.768	1089.97
817.951	1022.55
818.133	1021.77
818.315	1065.37
818.498	1094.24
818.68	1165.73
818.862	1115.16
819.045	1134.92
819.227	1121.75
819.409	1088.42
819.591	1095.01
819.774	1106.05
819.956	1083.19
820.138	1126.79
820.32	1097.92
820.502	1131.82
820.684	1184.72
820.866	1207
821.048	1230.83
821.231	1220.17
821.413	1231.22
821.595	1191.88
821.777	1232.18
821.959	1183.94
822.141	1273.65
822.323	1104.7
822.505	1121.94
822.686	1079.12
822.868	1054.71
823.05	972.37
823.232	964.43
823.414	928.97
823.596	987.48
823.778	922.96
823.96	969.46
824.141	965.78
824.323	973.14
824.505	1007.05
824.687	1110.12
824.868	1082.22
825.05	1228.31
825.232	1217.07
825.413	1237.22
825.595	1183.75
825.777	1142.87
825.958	1183.94
826.14	1200.99
826.321	1197.89
826.503	1156.82
826.685	1180.84
826.866	1209.9
827.048	1241.68
827.229	1174.25
827.411	1101.99
827.592	1072.73
827.773	1118.84
827.955	1079.12
828.136	1079.7
828.318	1018.67
828.499	1071.18
828.68	1050.45
828.862	1100.82
829.043	1117.29
829.224	1077.77
829.406	1020.03
829.587	1042.12
829.768	1044.64
829.949	1095.79
830.131	1058.2
830.312	1146.74
830.493	1069.24
830.674	1083.58
830.855	1058.39
831.036	1067.69
831.218	1123.1
831.399	1112.06
831.58	1061.11
831.761	1075.44
831.942	1090.55
832.123	1083.19
832.304	1015.19
832.485	1055.87
832.666	1068.27
832.847	1084.74
833.028	1047.16
833.209	1066.34
833.389	1079.12
833.57	1014.61
833.751	1029.91
833.932	1081.06
834.113	1032.24
834.294	1045.02
834.475	1101.6
834.655	1112.84
834.836	1125.82
835.017	1089.39
835.198	1044.06
835.378	1084.16
835.559	1135.5
835.74	1066.14
835.92	1063.24
836.101	1052.58
836.281	1091.14
836.462	1099.66
836.643	1104.7
836.823	1116.32
837.004	1098.11
837.184	1174.64
837.365	1128.34
837.545	1152.94
837.726	1094.04
837.906	1156.82
838.087	1111.29
838.267	1108.38
838.448	1044.44
838.628	1136.28
838.808	1102.76
838.989	1163.6
839.169	1064.4
839.349	1129.89
839.53	1127.75
839.71	1135.12
839.89	1121.17
840.07	1163.79
840.251	1071.37
840.431	1132.02
840.611	1132.99
840.791	1063.43
840.971	1087.84
841.151	1085.32
841.332	1079.7
841.512	1117.1
841.692	1026.62
841.872	1080.67
842.052	1072.92
842.232	1114.58
842.412	1033.98
842.592	1105.09
842.772	1081.06
842.952	1102.76
843.132	1065.95
843.312	1061.11
843.492	1060.14
843.672	1084.94
843.851	1023.71
844.031	1073.12
844.211	1071.76
844.391	1039.41
844.571	1062.46
844.751	1092.3
844.93	1077.38
845.11	1061.11
845.29	1095.59
845.47	1120.59
845.649	1054.32
845.829	1091.14
846.009	1053.74
846.188	1095.98
846.368	1065.95
846.547	1060.72
846.727	1091.52
846.907	1013.64
847.086	1083.19
847.266	1095.79
847.445	1063.82
847.625	1045.22
847.804	1026.81
847.984	1030.3
848.163	1059.94
848.343	1027.97
848.522	1048.9
848.701	1034.37
848.881	990.19
849.06	1034.17
849.239	1014.41
849.419	1055.1
849.598	977.6
849.777	982.25
849.957	992.32
850.136	949.7
850.315	946.02
850.494	925.87
850.674	945.83
850.853	1021.19
851.032	975.08
851.211	1019.26
851.39	934.59
851.569	940.59
851.748	928.58
851.927	1024.49
852.107	963.46
852.286	943.69
852.465	899.13
852.644	970.43
852.823	950.09
853.002	965.01
853.181	965.59
853.359	940.4
853.538	903.39
853.717	1007.24
853.896	907.66
854.075	866.97
854.254	829.96
854.433	811.36
854.611	835.58
854.79	811.17
854.969	826.28
855.148	900.49
855.327	840.04
855.505	866.58
855.684	866.58
855.863	891.38
856.041	844.5
856.22	860
856.399	801.68
856.577	939.82
856.756	933.04
856.934	1025.84
857.113	1017.9
857.291	892.55
857.47	914.63
857.648	921.41
857.827	921.03
858.005	959.97
858.184	898.94
858.362	993.87
858.541	936.72
858.719	900.49
858.898	921.41
859.076	893.13
859.254	963.26
859.433	899.91
859.611	879.18
859.789	858.25
859.967	945.24
860.146	958.42
860.324	844.3
860.502	895.64
860.68	841.98
860.859	873.36
861.037	886.93
861.215	904.36
861.393	889.83
861.571	897.58
861.749	856.7
861.927	918.89
862.105	886.73
862.283	866.58
862.461	827.06
862.639	835.58
862.817	858.06
862.995	859.8
863.173	857.67
863.351	842.36
863.529	905.33
863.707	903.01
863.885	866.2
864.063	802.07
864.241	843.72
864.418	907.27
864.596	840.04
864.774	830.16
864.952	867.55
865.129	865.42
865.307	817.18
865.485	781.92
865.663	882.08
865.84	788.31
866.018	823.18
866.196	709.84
866.373	733.67
866.551	729.41
866.728	668.19
866.906	716.43
867.084	768.93
867.261	768.35
867.439	774.17
867.616	804.58
867.794	778.82
867.971	783.08
868.149	778.62
868.326	845.27
868.503	814.27
868.681	787.53
868.858	797.8
869.035	747.82
869.213	809.81
869.39	754.21
869.567	859.61
869.745	766.42
869.922	779.2
870.099	797.8
870.276	796.83
870.454	816.21
870.631	801.29
870.808	733.09
870.985	818.15
871.162	835.78
871.339	773.2
871.517	730.57
871.694	754.21
871.871	770.48
872.048	768.93
872.225	748.2
872.402	766.8
872.579	722.82
872.756	782.3
872.933	730.77
873.11	760.6
873.287	778.04
873.463	755.18
873.64	722.82
873.817	765.64
873.994	760.99
874.171	712.55
874.348	753.24
874.524	696.86
874.701	730.38
874.878	679.42
875.055	767
875.231	757.89
875.408	749.95
875.585	666.83
875.762	708.1
875.938	745.3
876.115	718.75
876.291	692.4
876.468	717.4
876.645	682.14
876.821	682.14
876.998	696.28
877.174	723.6
877.351	667.8
877.527	684.65
877.704	687.56
877.88	708.49
878.057	675.35
878.233	727.08
878.409	660.63
878.586	702.29
878.762	690.85
878.938	718.95
879.115	640.29
879.291	677.1
879.467	658.69
879.644	674.97
879.82	686.4
879.996	664.7
880.172	599.02
880.349	663.54
880.525	709.45
880.701	651.33
880.877	643.58
881.053	666.25
881.229	643.77
881.405	688.34
881.581	632.15
881.757	644.55
881.933	662.37
882.109	728.63
882.285	674.97
882.461	599.02
882.637	645.13
882.813	637.77
882.989	655.01
883.165	697.83
883.341	641.25
883.517	670.7
883.693	679.81
883.869	697.44
884.044	624.01
884.22	669.35
884.396	672.25
884.572	663.92
884.747	700.54
884.923	675.35
885.099	665.28
885.275	706.35
885.45	612.39
885.626	621.3
885.801	637.96
885.977	639.12
886.153	592.82
886.328	665.28
886.504	622.27
886.679	664.31
886.855	613.74
887.03	679.04
887.206	672.84
887.381	666.83
887.557	666.83
887.732	667.8
887.908	707.13
888.083	688.72
888.258	653.85
888.434	642.61
888.609	662.18
888.784	687.95
888.96	622.66
889.135	639.51
889.31	605.22
889.485	650.94
889.661	620.33
889.836	679.42
890.011	672.64
890.186	636.99
890.361	615.68
890.537	639.32
890.712	670.12
890.887	643.97
891.062	666.64
891.237	687.56
891.412	612.58
891.587	656.17
891.762	666.64
891.937	707.9
892.112	604.64
892.287	634.67
892.462	581.97
892.637	603.86
892.812	571.51
892.987	590.88
893.161	588.17
893.336	565.89
893.511	592.43
893.686	583.91
893.861	598.44
894.035	587.97
894.21	587.01
894.385	538.38
894.56	581.19
894.734	516.68
894.909	533.14
895.084	532.95
895.258	561.62
895.433	546.51
895.608	536.44
895.782	508.93
895.957	483.74
896.131	516.87
896.306	462.43
896.48	470.18
896.655	463.98
896.829	418.25
897.004	427.36
897.178	437.82
897.353	438.4
897.527	467.85
897.701	462.81
897.876	380.08
898.05	477.15
898.224	445.38
898.399	475.41
898.573	444.41
898.747	363.81
898.921	442.47
899.096	333.78
899.27	352.18
899.444	350.83
899.618	355.48
899.792	389.58
899.967	360.32
900.141	414.76
900.315	360.52
900.489	367.68
900.663	393.06
900.837	419.22
901.011	324.67
901.185	468.63
901.359	437.05
901.533	390.93
901.707	372.72
901.881	365.94
902.055	334.17
902.229	350.05
902.403	428.13
902.576	349.47
902.75	387.64
902.924	492.46
903.098	428.71
903.272	444.8
903.446	474.44
903.619	468.04
903.793	457.58
903.967	450.41
904.14	519
904.314	493.81
904.488	469.79
904.661	500.98
904.835	447.31
905.009	503.5
905.182	559.3
905.356	498.08
905.529	497.11
905.703	440.15
905.876	442.47
906.05	433.17
906.223	428.91
906.397	407.6
906.57	406.63
906.744	376.79
906.917	377.37
907.09	392.48
907.264	373.5
907.437	364.2
907.61	339.2
907.784	355.87
907.957	364.2
908.13	332.42
908.304	388.03
908.477	336.3
908.65	319.83
908.823	314.4
908.996	425.42
909.17	319.44
909.343	353.35
909.516	337.46
909.689	320.41
909.862	324.87
910.035	314.4
910.208	274.88
910.381	312.66
910.554	427.75
910.727	335.33
910.9	341.72
911.073	314.98
911.246	396.16
911.419	367.3
911.592	359.55
911.765	320.22
911.938	303.36
912.11	318.28
912.283	350.83
912.456	377.37
912.629	341.14
912.802	302
912.974	280.69
913.147	248.34
913.32	237.68
913.493	274.3
913.665	273.52
913.838	279.34
914.01	281.27
914.183	287.08
914.356	246.4
914.528	298.52
914.701	367.88
914.873	329.9
915.046	286.12
915.218	251.24
915.391	196.22
915.563	239.62
915.736	290.38
915.908	304.13
916.081	294.64
916.253	266.35
916.425	302.78
916.598	281.08
916.77	309.17
916.942	264.22
917.115	204.35
917.287	259.57
917.459	262.48
917.632	213.85
917.804	195.83
917.976	277.98
918.148	289.99
918.32	273.14
918.493	302.97
918.665	325.45
918.837	270.62
919.009	358.97
919.181	317.89
919.353	305.88
919.525	300.07
919.697	287.47
919.869	313.63
920.041	333.39
920.213	398.68
920.385	323.32
920.557	282.44
920.729	325.83
920.901	315.95
921.073	337.65
921.244	324.28
921.416	344.43
921.588	307.23
921.76	283.02
921.932	360.71
922.103	268.87
922.275	314.98
922.447	287.86
922.619	263.06
922.79	289.02
922.962	270.81
923.134	303.17
923.305	253.18
923.477	261.12
923.648	243.49
923.82	269.07
923.991	208.23
924.163	235.35
924.335	237.1
924.506	236.52
924.677	303.94
924.849	246.01
925.02	243.49
925.192	279.34
925.363	261.12
925.535	270.42
925.706	227.6
925.877	305.49
926.049	252.99
926.22	269.07
926.391	290.77
926.562	257.44
926.734	206.29
926.905	269.26
927.076	188.27
927.247	248.14
927.419	186.14
927.59	190.02
927.761	221.21
927.932	225.28
928.103	205.71
928.274	150.49
928.445	167.16
928.616	208.23
928.787	207.45
928.958	208.04
929.129	207.07
929.3	197.19
929.471	150.3
929.642	94.89
929.813	72.99
929.984	176.46
930.155	92.37
930.326	139.84
930.496	86.56
930.667	68.93
930.838	98.76
931.009	76.87
931.18	92.56
931.35	84.43
931.521	105.74
931.692	66.79
931.863	42.96
932.033	66.6
932.204	97.02
932.374	63.89
932.545	36.18
932.716	106.9
932.886	85.01
933.057	15.06
933.227	45.48
933.398	118.52
933.568	25.14
933.739	8.86
933.909	16.61
934.08	87.14
934.25	-33.57
934.421	-6.25
934.591	27.66
934.761	-16.9
934.932	-46.74
935.102	11.77
935.272	44.51
935.443	5.38
935.613	4.41
935.783	33.08
935.953	-12.25
936.123	159.79
936.294	-10.9
936.464	22.04
936.634	17
936.804	-20.2
936.974	-17.87
937.144	34.05
937.314	59.43
937.484	19.33
937.655	-3.34
937.825	67.57
937.995	2.28
938.165	53.23
938.334	19.71
938.504	10.61
938.674	9.64
938.844	-3.73
939.014	87.14
939.184	28.24
939.354	100.89
939.524	80.16
939.694	69.31
939.863	26.88
940.033	109.22
940.203	104.96
940.373	56.53
940.542	99.73
940.712	54.01
940.882	89.27
941.051	113.87
941.221	57.49
941.391	107.29
941.56	60.98
941.73	14.48
941.899	143.91
942.069	48.39
942.238	73.96
942.408	66.6
942.577	77.84
942.747	44.9
942.916	-0.24
943.086	15.65
943.255	76.87
943.425	41.61
943.594	26.88
943.763	-18.84
943.933	16.42
944.102	-34.92
944.271	48.39
944.441	39.09
944.61	34.44
944.779	23.2
944.948	103.22
945.117	-3.92
945.287	11.58
945.456	-22.72
945.625	8.86
945.794	17.39
945.963	1.11
946.132	62.73
946.301	39.67
946.47	59.43
946.639	-7.41
946.808	16.61
946.977	71.25
947.146	68.34
947.315	17.97
947.484	64.86
947.653	34.24
947.822	22.04
947.991	-5.09
948.16	117.75
948.329	75.32
948.498	21.84
948.666	39.48
948.835	81.52
949.004	19.91
949.173	5.96
949.341	38.89
949.51	44.32
949.679	56.14
949.847	90.43
950.016	107.68
950.185	94.11
950.353	-4.5
950.522	39.09
950.69	82.49
950.859	13.9
951.028	89.08
951.196	70.86
951.365	7.12
951.533	32.11
951.701	45.68
951.87	63.89
952.038	10.8
952.207	39.09
952.375	105.93
952.543	7.9
952.712	43.93
952.88	29.01
953.048	100.51
953.217	72.22
953.385	37.93
953.553	62.53
953.721	-10.9
953.89	41.99
954.058	-10.7
954.226	18.75
954.394	66.02
954.562	-7.02
954.73	15.65
954.898	29.59
955.067	80.94
955.235	17.97
955.403	65.63
955.571	110.77
955.739	89.66
955.907	34.24
956.075	14.68
956.243	25.91
956.41	61.95
956.578	-36.09
956.746	1.7
956.914	17.58
957.082	57.11
957.25	52.07
957.418	48
957.585	60.4
957.753	89.66
957.921	4.6
958.089	34.24
958.256	62.73
958.424	48.19
958.592	50.52
958.759	-9.93
958.927	59.04
959.095	13.71
959.262	19.91
959.43	55.94
959.597	18.36
959.765	36.57
959.932	-8.96
960.1	77.84
960.267	42.77
960.435	65.44
960.602	82.49
960.77	13.13
960.937	-28.14
961.104	24.36
961.272	5.76
961.439	21.07
961.606	46.26
961.774	79
961.941	27.46
962.108	44.9
962.275	45.48
962.443	67.76
962.61	82.29
962.777	94.31
962.944	60.21
963.111	57.11
963.278	46.26
963.446	45.48
963.613	49.16
963.78	54.2
963.947	52.46
964.114	52.46
964.281	134.99
964.448	82.1
964.615	31.73
964.782	47.03
964.949	88.11
965.116	71.83
965.282	97.21
965.449	33.08
965.616	23.98
965.783	61.18
965.95	60.79
966.117	23.78
966.283	30.18
966.45	60.98
966.617	96.83
966.784	62.53
966.95	65.63
967.117	101.28
967.284	32.11
967.45	23.98
967.617	120.27
967.784	63.89
967.95	119.69
968.117	53.04
968.283	126.27
968.45	158.63
968.616	79
968.783	104.96
968.949	87.91
969.116	90.04
969.282	70.48
969.449	69.89
969.615	62.73
969.781	8.86
969.948	57.49
970.114	1.5
970.28	104.96
970.447	62.34
970.613	98.96
970.779	28.63
970.945	76.29
971.112	90.63
971.278	63.31
971.444	54.78
971.61	76.87
971.776	44.9
971.942	92.37
972.108	90.63
972.275	78.03
972.441	59.43
972.607	123.95
972.773	53.43
972.939	62.92
973.105	53.81
973.271	25.14
973.437	27.27
973.602	50.52
973.768	66.41
973.934	54.39
974.1	85.2
974.266	-21.75
974.432	67.57
974.598	29.21
974.763	68.54
974.929	57.69
975.095	127.82
975.261	15.06
975.426	10.41
975.592	67.18
975.758	120.85
975.923	13.51
976.089	-4.89
976.255	75.32
976.42	40.64
976.586	74.54
976.751	73.77
976.917	141.58
977.082	65.63
977.248	-3.54
977.413	-18.65
977.579	25.33
977.744	56.53
977.91	-7.02
978.075	25.33
978.24	91.4
978.406	60.98
978.571	44.13
978.736	23.98
978.902	80.74
979.067	-4.12
979.232	-14
979.397	33.86
979.563	124.92
979.728	17.97
979.893	49.55
980.058	13.32
980.223	74.54
980.388	52.84
980.554	46.45
980.719	35.41
980.884	39.48
981.049	78.23
981.214	31.92
981.379	75.32
981.544	35.79
981.709	63.31
981.874	48.19
982.039	48.39
982.204	80.16
982.368	49.36
982.533	33.08
982.698	90.24
982.863	80.74
983.028	27.66
983.193	66.02
983.357	48.39
983.522	60.4
983.687	16.03
983.852	15.65
984.016	25.14
984.181	49.94
984.346	64.47
984.51	66.99
984.675	60.59
984.839	75.71
985.004	75.51
985.168	91.4
985.333	19.52
985.498	44.71
985.662	66.6
985.827	76.29
985.991	14.87
986.155	47.61
986.32	74.16
986.484	126.86
986.649	67.57
986.813	7.31
986.977	44.51
987.142	81.33
987.306	2.08
987.47	32.11
987.634	31.92
987.799	52.65
987.963	44.71
988.127	60.21
988.291	116.97
988.455	74.93
988.62	15.26
988.784	91.4
988.948	59.43
989.112	32.89
989.276	33.08
989.44	83.65
989.604	15.65
989.768	18.75
989.932	102.64
990.096	28.43
990.26	15.84
990.424	3.83
990.588	55.36
990.752	105.74
990.915	78.61
991.079	45.09
991.243	41.03
991.407	89.85
991.571	48.39
991.734	59.04
991.898	78.03
992.062	148.17
992.226	21.46
992.389	2.08
992.553	16.03
992.717	12.35
992.88	22.04
993.044	44.51
993.207	36.38
993.371	63.69
993.535	44.71
993.698	52.07
993.862	72.03
994.025	91.21
994.189	51.1
994.352	45.48
994.515	76.48
994.679	92.56
994.842	19.91
995.006	64.47
995.169	11.96
995.332	-3.54
995.496	78.23
995.659	6.15
995.822	45.09
995.985	41.99
996.149	86.17
996.312	49.94
996.475	119.3
996.638	30.56
996.801	117.94
996.964	114.26
997.128	37.54
997.291	44.51
997.454	53.43
997.617	-30.08
997.78	89.08
997.943	7.7
998.106	80.36
998.269	23.39
998.432	35.41
998.595	47.81
998.758	-6.44
998.92	22.04
999.083	3.44
999.246	29.21
999.409	-6.64
999.572	-36.47
999.735	18.55
999.897	64.28
1000.06	15.06
1000.223	5.38
1000.386	77.84
1000.548	67.96
1000.711	49.36
1000.874	54.98
1001.036	-38.22
1001.199	54.98
1001.361	-7.22
1001.524	33.86
1001.687	54.01
1001.849	2.66
1002.012	54.59
1002.174	33.08
1002.337	31.92
1002.499	17
1002.661	77.06
1002.824	-16.9
1002.986	13.71
1003.149	52.84
1003.311	26.69
1003.473	94.69
1003.636	22.23
1003.798	40.44
1003.96	41.61
1004.123	26.3
1004.285	-10.51
1004.447	23.01
1004.609	11.77
1004.771	115.42
1004.933	-10.12
1005.096	19.52
1005.258	-24.07
1005.42	11.96
1005.582	79.39
1005.744	55.94
1005.906	-17.87
1006.068	13.71
1006.23	-29.5
1006.392	-20.39
1006.554	5.76
1006.716	61.18
1006.878	47.61
1007.04	-1.02
1007.202	-7.99
1007.363	23.98
1007.525	37.73
1007.687	44.9
1007.849	57.69
1008.011	-7.22
1008.172	-5.47
1008.334	6.35
1008.496	55.36
1008.658	-28.14
1008.819	-3.34
1008.981	-24.65
1009.143	-17.87
1009.304	16.61
1009.466	21.07
1009.627	80.94
1009.789	88.3
1009.95	32.5
1010.112	-16.32
1010.273	48.58
1010.435	11.19
1010.596	12.35
1010.758	-12.45
1010.919	5.57
1011.081	-6.83
1011.242	12.35
1011.403	60.98
1011.565	-1.02
1011.726	27.27
1011.887	-18.26
1012.049	5.38
1012.21	36.38
1012.371	59.43
1012.532	-72.12
1012.693	18.16
1012.855	0.73
1013.016	6.35
1013.177	48.58
1013.338	9.45
1013.499	94.5
1013.66	56.33
1013.821	29.01
1013.982	48.97
1014.143	31.92
1014.304	-9.35
1014.465	49.16
1014.626	60.4
1014.787	7.51
1014.948	103.99
1015.109	-66.5
1015.27	56.53
1015.431	3.44
1015.592	-10.51
1015.752	59.24
1015.913	10.03
1016.074	40.44
1016.235	8.28
1016.395	34.83
1016.556	22.81
1016.717	10.03
1016.877	64.28
1017.038	2.28
1017.199	24.56
1017.359	15.45
1017.52	-0.44
1017.681	16.81
1017.841	18.36
1018.002	-3.92
1018.162	14.68
1018.323	53.43
1018.483	20.88
1018.644	10.8
1018.804	-8.57
1018.964	-27.95
1019.125	-10.51
1019.285	16.42
1019.446	-20.78
1019.606	-8.96
1019.766	-39.96
1019.926	45.48
1020.087	16.61
1020.247	-39.57
1020.407	22.23
1020.567	59.04
1020.728	6.15
1020.888	-44.42
1021.048	2.86
1021.208	-23.49
1021.368	-25.62
1021.528	28.04
1021.688	44.51
1021.848	25.14
1022.008	21.85
1022.168	10.61
1022.328	35.79
1022.488	43.16
1022.648	-4.12
1022.808	25.91
1022.968	35.99
1023.128	-38.99
1023.288	-11.29
1023.448	4.02
1023.608	20.3
1023.767	14.1
1023.927	-3.73
1024.087	-7.02
1024.247	-20
1024.406	-7.22
1024.566	-2.57
1024.726	-15.16
1024.885	16.61
1025.045	31.92
1025.205	-1.99
1025.364	11
1025.524	31.14
1025.683	0.73
1025.843	22.43
1026.003	14.48
1026.162	56.33
1026.321	42.96
1026.481	11.96
1026.64	1.7
1026.8	19.91
1026.959	23.59
1027.119	29.21
1027.278	13.13
1027.437	-13.03
1027.597	1.89
1027.756	23.39
1027.915	33.86
1028.074	18.16
1028.234	-7.8
1028.393	20.1
1028.552	11
1028.711	-59.53
1028.87	32.5
1029.03	-21.94
1029.189	-2.57
1029.348	-51.2
1029.507	-20.78
1029.666	-20.59
1029.825	-25.43
1029.984	-19.81
1030.143	4.02
1030.302	-3.92
1030.461	-44.42
1030.62	13.32
1030.779	41.03
1030.938	-21.75
1031.097	-41.9
1031.255	33.28
1031.414	59.04
1031.573	47.03
1031.732	-53.91
1031.891	3.05
1032.049	64.66
1032.208	18.55
1032.367	-16.52
1032.525	2.47
1032.684	7.9
1032.843	23.39
1033.001	-39.38
1033.16	158.44
1033.319	36.76
1033.477	23.59
1033.636	-1.99
1033.794	-36.47
1033.953	23.2
1034.111	19.13
1034.27	-45.58
1034.428	27.85
1034.587	-39.57
1034.745	1.31
1034.903	9.64
1035.062	52.26
1035.22	-47.52
1035.378	32.89
1035.537	-20.2
1035.695	53.23
1035.853	30.56
1036.011	18.16
1036.17	41.03
1036.328	-51.78
1036.486	24.17
1036.644	20.88
1036.802	-62.05
1036.96	-11.67
1037.119	27.66
1037.277	-44.42
1037.435	-18.45
1037.593	-34.54
1037.751	-20.2
1037.909	14.87
1038.067	14.87
