Data from pine_FLMT105791__24__17-19-58-070.txt Node

Date: Mon Mar 20 17:19:58 GMT 2023
User: antho
Spectrometer: FLMT10579
Trigger mode: 0
Integration Time (sec): 1.000000E-1
Scans to average: 10
Electric dark correction enabled: true
Nonlinearity correction enabled: false
Boxcar width: 0
XAxis mode: Wavelengths
Number of Pixels in Spectrum: 3648
>>>>>Begin Spectral Data<<<<<
345.248	-167.58
345.464	-167.58
345.681	-167.58
345.898	-178.04
346.114	-156.34
346.331	-46.48
346.548	42.64
346.764	-16.84
346.981	-20.52
347.197	-17.61
347.414	34.31
347.631	-35.25
347.847	74.61
348.064	-13.35
348.28	35.47
348.497	-19.55
348.713	-17.42
348.93	51.17
349.146	21.33
349.363	31.21
349.579	14.16
349.796	26.56
350.012	-15.29
350.229	30.24
350.445	0.6
350.661	-12.96
350.878	25.2
351.094	18.81
351.311	4.47
351.527	43.8
351.743	-11.22
351.96	31.6
352.176	36.83
352.392	24.43
352.609	42.64
352.825	-25.56
353.041	-7.54
353.257	8.15
353.474	18.03
353.69	18.03
353.906	21.52
354.122	6.02
354.339	56.01
354.555	18.81
354.771	-7.73
354.987	67.63
355.203	82.94
355.42	-29.05
355.636	1.18
355.852	-15.87
356.068	26.37
356.284	-52.68
356.5	57.17
356.716	27.53
356.932	9.32
357.148	48.45
357.364	18.81
357.58	25.2
357.796	36.25
358.012	24.82
358.228	35.86
358.444	-60.05
358.66	67.25
358.876	25.59
359.092	9.7
359.308	10.48
359.524	37.8
359.74	20.94
359.956	-6.77
360.172	-0.37
360.388	43.22
360.604	5.05
360.819	112.39
361.035	28.69
361.251	44
361.467	-19.75
361.683	50.39
361.898	42.06
362.114	44
362.33	22.49
362.546	62.98
362.762	7.96
362.977	16.1
363.193	-34.28
363.409	57.56
363.624	-23.43
363.84	-18.2
364.056	7.96
364.271	33.15
364.487	48.07
364.703	-11.41
364.918	6.41
365.134	-1.34
365.35	4.47
365.565	109.68
365.781	33.53
365.996	42.06
366.212	75.19
366.427	45.35
366.643	-13.16
366.858	27.33
367.074	-1.92
367.289	67.83
367.505	96.11
367.72	-32.34
367.936	23.65
368.151	94.56
368.367	64.73
368.582	44
368.798	10.09
369.013	65.12
369.228	42.64
369.444	20.94
369.659	68.99
369.874	47.87
370.09	60.47
370.305	-38.15
370.52	12.42
370.736	52.33
370.951	9.32
371.166	47.1
371.381	85.85
371.597	55.23
371.812	-8.9
372.027	-3.47
372.242	-4.05
372.458	78.87
372.673	14.35
372.888	18.23
373.103	43.22
373.318	113.36
373.533	29.08
373.749	34.5
373.964	-15.29
374.179	70.15
374.394	6.6
374.609	87.01
374.824	-30.21
375.039	38.18
375.254	9.51
375.469	61.24
375.684	19.2
375.899	55.62
376.114	16.87
376.329	54.46
376.544	70.73
376.759	59.5
376.974	7.77
377.189	26.95
377.404	2.34
377.619	70.73
377.834	-10.45
378.049	-45.13
378.264	-20.13
378.478	35.08
378.693	7.77
378.908	44.97
379.123	1.57
379.338	59.3
379.553	45.35
379.767	45.93
379.982	53.1
380.197	39.54
380.412	36.44
380.626	24.82
380.841	103.28
381.056	16.68
381.271	86.04
381.485	27.92
381.7	15.71
381.915	61.24
382.129	3.7
382.344	16.87
382.559	25.78
382.773	54.85
382.988	-33.89
383.202	37.8
383.417	10.67
383.632	114.33
383.846	52.91
384.061	39.15
384.275	16.68
384.49	47.87
384.704	52.72
384.919	27.53
385.133	36.25
385.348	39.15
385.562	-11.03
385.777	60.47
385.991	16.68
386.206	35.47
386.42	22.68
386.634	51.94
386.849	51.36
387.063	31.4
387.277	-11.8
387.492	12.03
387.706	-3.47
387.92	6.99
388.135	47.68
388.349	37.41
388.563	36.44
388.778	54.85
388.992	68.99
389.206	80.23
389.42	91.08
389.635	31.02
389.849	38.77
390.063	67.83
390.277	68.41
390.491	102.51
390.706	51.55
390.92	93.79
391.134	34.7
391.348	76.74
391.562	-32.53
391.776	56.01
391.99	12.22
392.205	49.42
392.419	-5.02
392.633	15.32
392.847	69.38
393.061	31.6
393.275	104.25
393.489	38.96
393.703	62.98
393.917	55.43
394.131	16.87
394.345	64.34
394.559	86.04
394.773	19.39
394.986	64.92
395.2	35.47
395.414	72.87
395.628	6.8
395.842	19
396.056	27.14
396.27	-12
396.484	55.04
396.697	26.56
396.911	99.8
397.125	47.1
397.339	63.18
397.553	87.4
397.766	111.03
397.98	43.22
398.194	116.07
398.408	24.82
398.621	51.17
398.835	70.54
399.049	76.93
399.262	98.44
399.476	95.53
399.69	83.52
399.903	145.91
400.117	43.42
400.331	86.04
400.544	20.36
400.758	153.46
400.971	107.16
401.185	96.5
401.398	28.5
401.612	106.77
401.826	70.35
402.039	68.8
402.253	47.68
402.466	65.5
402.68	71.9
402.893	99.99
403.106	55.62
403.32	52.52
403.533	73.06
403.747	65.7
403.96	96.5
404.174	90.5
404.387	34.12
404.6	57.17
404.814	119.17
405.027	62.98
405.24	67.83
405.454	56.59
405.667	108.71
405.88	10.28
406.094	71.12
406.307	90.69
406.52	97.47
406.733	55.04
406.947	5.63
407.16	131.57
407.373	97.66
407.586	49.62
407.799	35.47
408.012	111.61
408.226	66.47
408.439	112.39
408.652	21.91
408.865	89.53
409.078	102.9
409.291	132.73
409.504	37.99
409.717	116.07
409.93	104.45
410.143	73.83
410.357	13.58
410.57	39.35
410.783	55.62
410.996	80.03
411.209	54.65
411.421	134.67
411.634	70.73
411.847	61.24
412.06	69.77
412.273	61.82
412.486	55.43
412.699	161.99
412.912	64.92
413.125	128.08
413.338	95.53
413.55	101.73
413.763	75
413.976	108.51
414.189	29.85
414.402	56.59
414.615	143
414.827	53.68
415.04	92.43
415.253	89.14
415.466	109.68
415.678	128.47
415.891	75.77
416.104	69.38
416.316	58.14
416.529	75.58
416.742	86.62
416.954	118.59
417.167	88.36
417.38	72.48
417.592	124.01
417.805	47.1
418.017	27.72
418.23	104.25
418.442	50.39
418.655	66.08
418.868	131.57
419.08	124.21
419.293	121.3
419.505	94.76
419.718	98.25
419.93	129.44
420.142	78.48
420.355	130.99
420.567	124.6
420.78	120.91
420.992	100.96
421.205	149.4
421.417	70.35
421.629	91.08
421.842	91.46
422.054	43.61
422.266	127.89
422.479	130.02
422.691	75
422.903	138.74
423.115	105.61
423.328	75.19
423.54	124.6
423.752	97.08
423.964	71.9
424.177	131.38
424.389	99.21
424.601	213.14
424.813	98.05
425.025	148.62
425.238	150.95
425.45	92.43
425.662	88.56
425.874	399.91
426.086	121.88
426.298	151.33
426.51	126.92
426.722	117.04
426.934	112.78
427.146	153.27
427.358	93.01
427.57	141.06
427.782	103.86
427.994	114.52
428.206	114.52
428.418	81.39
428.63	137.77
428.842	160.25
429.054	125.37
429.266	145.91
429.478	106.19
429.69	129.25
429.902	88.95
430.114	157.15
430.325	133.7
430.537	91.27
430.749	138.35
430.961	71.32
431.173	92.05
431.384	124.6
431.596	42.45
431.808	108.51
432.02	140.68
432.231	184.46
432.443	176.13
432.655	162.18
432.867	98.25
433.078	137.96
433.29	235.61
433.502	181.36
433.713	173.42
433.925	158.89
434.136	192.41
434.348	119.75
434.56	94.95
434.771	238.52
434.983	110.65
435.194	143.39
435.406	137.38
435.617	205.78
435.829	219.34
436.04	181.17
436.252	209.84
436.463	231.93
436.675	182.72
436.886	169.54
437.098	199.38
437.309	202.87
437.521	160.63
437.732	201.32
437.943	203.64
438.155	164.12
438.366	118.01
438.578	233.29
438.789	183.88
439	200.93
439.211	160.44
439.423	206.16
439.634	213.33
439.845	210.04
440.057	192.99
440.268	238.13
440.479	177.1
440.69	195.31
440.902	184.66
441.113	200.93
441.324	198.41
441.535	206.16
441.746	256.92
441.957	182.53
442.168	187.95
442.38	225.93
442.591	253.44
442.802	184.85
443.013	184.85
443.224	228.06
443.435	190.66
443.646	193.38
443.857	206.16
444.068	194.73
444.279	201.13
444.49	288.7
444.701	227.09
444.912	317.37
445.123	277.85
445.334	225.15
445.545	285.6
445.756	249.37
445.967	199.96
446.178	243.94
446.388	267.97
446.599	242.59
446.81	279.79
447.021	217.01
447.232	280.56
447.443	296.84
447.653	228.64
447.864	285.02
448.075	261.96
448.286	274.36
448.496	254.02
448.707	279.59
448.918	244.14
449.129	331.32
449.339	238.13
449.55	251.89
449.761	272.42
449.971	315.82
450.182	249.95
450.393	270.29
450.603	243.36
450.814	324.16
451.024	282.89
451.235	282.89
451.446	347.4
451.656	337.33
451.867	264.29
452.077	284.82
452.288	303.04
452.498	340.82
452.709	278.62
452.919	296.84
453.13	267.39
453.34	316.79
453.55	237.94
453.761	318.73
453.971	306.14
454.182	319.31
454.392	313.89
454.602	360.19
454.813	308.46
455.023	333.07
455.233	253.05
455.444	294.71
455.654	235.42
455.864	300.71
456.075	279.79
456.285	287.73
456.495	300.32
456.705	311.37
456.916	375.69
457.126	359.42
457.336	305.75
457.546	236.39
457.756	290.83
457.967	346.24
458.177	299.94
458.387	316.02
458.597	278.04
458.807	296.06
459.017	291.61
459.227	302.07
459.437	286.76
459.647	336.94
459.857	321.06
460.068	299.74
460.278	353.8
460.488	320.09
460.698	372.98
460.908	309.24
461.117	275.14
461.327	287.34
461.537	348.37
461.747	329.97
461.957	331.13
462.167	443.5
462.377	377.44
462.587	318.73
462.797	361.94
463.007	362.71
463.216	361.55
463.426	360
463.636	353.8
463.846	293.35
464.056	353.8
464.265	380.15
464.475	309.62
464.685	345.85
464.895	374.53
465.104	333.46
465.314	371.62
465.524	332.49
465.733	336.75
465.943	437.11
466.153	368.91
466.362	402.82
466.572	356.9
466.782	341.59
466.991	346.24
467.201	402.62
467.41	286.96
467.62	366.97
467.829	371.82
468.039	357.67
468.249	348.37
468.458	390.61
468.668	414.25
468.877	416.57
469.086	421.22
469.296	402.82
469.505	372.59
469.715	441.95
469.924	390.03
470.134	435.37
470.343	426.07
470.552	405.34
470.762	393.71
470.971	352.44
471.18	387.51
471.39	390.03
471.599	368.91
471.808	432.07
472.018	377.44
472.227	448.15
472.436	450.87
472.645	402.43
472.855	397.59
473.064	442.73
473.273	417.74
473.482	462.3
473.691	445.25
473.901	438.85
474.11	418.32
474.319	494.27
474.528	440.21
474.737	504.15
474.946	486.32
475.155	439.24
475.364	489.23
475.573	482.06
475.783	463.07
475.992	484.97
476.201	515.58
476.41	465.01
476.619	448.15
476.828	476.83
477.037	464.43
477.245	481.48
477.454	467.14
477.663	485.93
477.872	464.82
478.081	554.91
478.29	464.04
478.499	529.91
478.708	502.02
478.917	573.31
479.125	498.92
479.334	527.59
479.543	521.78
479.752	537.66
479.961	535.73
480.169	571.18
480.378	496.98
480.587	637.83
480.796	579.9
481.004	549.48
481.213	571.57
481.422	529.33
481.63	558.59
481.839	587.07
482.048	613.42
482.256	589.2
482.465	596.76
482.674	596.95
482.882	619.04
483.091	652.17
483.299	590.36
483.508	614.19
483.716	586.68
483.925	630.86
484.134	584.36
484.342	591.33
484.551	623.88
484.759	606.25
484.967	671.93
485.176	668.25
485.384	630.66
485.593	634.15
485.801	638.22
486.01	592.69
486.218	545.8
486.426	523.52
486.635	541.73
486.843	532.82
487.051	550.26
487.26	562.08
487.468	595.21
487.676	669.99
487.885	585.91
488.093	624.08
488.301	626.21
488.509	657.01
488.717	702.16
488.926	663.02
489.134	632.02
489.342	655.08
489.55	632.41
489.758	667.86
489.967	642.09
490.175	770.94
490.383	674.84
490.591	743.62
490.799	636.67
491.007	731.99
491.215	714.36
491.423	676.39
491.631	701.38
491.839	731.41
492.047	713.01
492.255	649.46
492.463	639.96
492.671	701.19
492.879	738.58
493.087	692.66
493.295	731.02
493.503	737.03
493.711	760.86
493.919	770.55
494.127	780.43
494.334	790.7
494.542	720.56
494.75	715.91
494.958	731.99
495.166	763.38
495.374	756.6
495.581	772.1
495.789	729.47
495.997	794.19
496.205	746.33
496.412	730.44
496.62	775.97
496.828	749.43
497.035	750.21
497.243	808.52
497.451	771.13
497.658	771.52
497.866	769.97
498.074	826.93
498.281	762.99
498.489	849.79
498.696	787.4
498.904	784.3
499.112	772.68
499.319	851.54
499.527	791.09
499.734	846.11
499.942	727.34
500.149	775.59
500.357	813.17
500.564	763.38
500.771	827.12
500.979	750.79
501.186	749.82
501.394	788.57
501.601	792.05
501.808	802.13
502.016	782.37
502.223	780.82
502.43	824.02
502.638	790.12
502.845	760.67
503.052	858.32
503.26	807.94
503.467	897.84
503.674	820.73
503.881	851.92
504.089	897.26
504.296	858.51
504.503	775.59
504.71	837
504.917	772.68
505.125	823.83
505.332	838.94
505.539	857.54
505.746	926.13
505.953	875.56
506.16	863.55
506.367	925.35
506.574	948.6
506.781	918.77
506.988	865.1
507.195	876.53
507.402	892.42
507.609	932.52
507.816	858.32
508.023	901.72
508.23	831.58
508.437	839.14
508.644	917.8
508.851	946.47
509.058	926.9
509.265	887.57
509.472	922.83
509.679	1015.83
509.885	928.84
510.092	918.77
510.299	930
510.506	936.78
510.713	983.67
510.92	924.58
511.126	957.71
511.333	1004.21
511.54	973.6
511.746	1020.68
511.953	1019.13
512.16	987.74
512.367	948.6
512.573	979.6
512.78	956.16
512.987	991.81
513.193	977.47
513.4	905.78
513.606	956.16
513.813	979.99
514.02	980.76
514.226	1045.67
514.433	1022.81
514.639	945.31
514.846	968.95
515.052	960.03
515.259	984.06
515.465	988.9
515.672	998.98
515.878	1080.35
516.085	971.66
516.291	1042.96
516.497	976.31
516.704	989.48
516.91	948.99
517.117	916.05
517.323	870.91
517.529	939.5
517.736	904.62
517.942	931.94
518.148	928.07
518.354	963.91
518.561	967.4
518.767	1013.7
518.973	1008.08
519.179	1009.63
519.386	990.84
519.592	969.14
519.798	1005.95
520.004	1078.22
520.21	1041.41
520.417	1079.77
520.623	1106.89
520.829	1131.31
521.035	1102.63
521.241	1110.96
521.447	1149.91
521.653	1217.33
521.859	1074.93
522.065	1120.84
522.271	1248.72
522.477	1128.59
522.683	1191.76
522.889	1142.74
523.095	1146.03
523.301	1122.2
523.507	1134.21
523.713	1143.9
523.919	1111.35
524.125	1185.56
524.331	1160.76
524.537	1241.74
524.742	1266.54
524.948	1217.72
525.154	1260.92
525.36	1321.37
525.566	1201.25
525.772	1256.08
525.977	1188.85
526.183	1231.86
526.389	1250.07
526.595	1180.32
526.8	1184.97
527.006	1158.04
527.212	1093.91
527.417	1106.12
527.623	1121.81
527.829	1200.28
528.034	1174.9
528.24	1222.37
528.446	1190.4
528.651	1266.93
528.857	1253.37
529.062	1298.7
529.268	1273.71
529.473	1290.76
529.679	1247.94
529.884	1352.95
530.09	1313.43
530.295	1371.55
530.501	1360.12
530.706	1348.11
530.912	1263.83
531.117	1337.26
531.323	1334.55
531.528	1365.35
531.733	1370.2
531.939	1302.97
532.144	1352.95
532.35	1315.37
532.555	1347.92
532.76	1340.94
532.966	1367.29
533.171	1327.77
533.376	1303.93
533.581	1293.67
533.787	1328.15
533.992	1345.98
534.197	1394.61
534.402	1340.94
534.607	1308.39
534.813	1439.56
535.018	1349.85
535.223	1345.59
535.428	1355.08
535.633	1420.57
535.838	1431.42
536.043	1415.15
536.249	1491.09
536.454	1361.48
536.659	1420.57
536.864	1374.65
537.069	1369.03
537.274	1418.25
537.479	1427.16
537.684	1432.2
537.889	1360.7
538.094	1501.94
538.299	1412.05
538.504	1449.05
538.708	1449.05
538.913	1452.73
539.118	1398.87
539.323	1454.67
539.528	1419.41
539.733	1408.56
539.938	1399.26
540.142	1416.5
540.347	1396.74
540.552	1387.63
540.757	1390.73
540.962	1357.22
541.166	1343.46
541.371	1371.55
541.576	1378.53
541.781	1319.82
541.985	1402.16
542.19	1433.75
542.395	1484.7
542.599	1463.58
542.804	1451.18
543.008	1493.81
543.213	1418.05
543.418	1393.06
543.622	1456.03
543.827	1400.61
544.031	1450.8
544.236	1463.2
544.44	1476.37
544.645	1538.95
544.849	1452.15
545.054	1489.16
545.258	1566.46
545.463	1541.86
545.667	1448.86
545.872	1475.79
546.076	1464.36
546.281	1503.11
546.485	1440.72
546.689	1504.08
546.894	1509.89
547.098	1478.89
547.302	1437.62
547.507	1498.65
547.711	1528.1
547.915	1560.07
548.119	1487.8
548.324	1475.6
548.528	1553.87
548.732	1519.96
548.936	1510.66
549.141	1552.51
549.345	1508.34
549.549	1519.77
549.753	1517.06
549.957	1586.61
550.161	1574.79
550.366	1522.87
550.57	1511.63
550.774	1500.78
550.978	1513.38
551.182	1543.21
551.386	1511.44
551.59	1514.15
551.794	1502.53
551.998	1519.38
552.202	1509.69
552.406	1489.93
552.61	1529.84
552.814	1526.55
553.018	1567.43
553.222	1513.57
553.426	1507.95
553.63	1621.1
553.833	1525.19
554.037	1432.39
554.241	1525
554.445	1530.62
554.649	1508.14
554.853	1487.99
555.056	1519.19
555.26	1552.71
555.464	1535.85
555.668	1545.15
555.871	1540.11
556.075	1578.67
556.279	1493.03
556.483	1481.21
556.686	1482.76
556.89	1501.36
557.094	1524.42
557.297	1456.8
557.501	1562.78
557.704	1429.87
557.908	1524.42
558.112	1473.85
558.315	1539.53
558.519	1498.84
558.722	1473.27
558.926	1477.92
559.129	1426.96
559.333	1398.68
559.536	1416.11
559.74	1387.63
559.943	1453.31
560.147	1401.2
560.35	1415.73
560.553	1442.85
560.757	1397.9
560.96	1505.04
561.164	1450.6
561.367	1494.78
561.57	1453.31
561.774	1475.21
561.977	1422.7
562.18	1370.58
562.384	1492.45
562.587	1430.06
562.79	1412.05
562.993	1413.6
563.197	1456.8
563.4	1533.33
563.603	1455.64
563.806	1516.48
564.009	1406.04
564.212	1445.18
564.416	1379.88
564.619	1445.56
564.822	1364.19
565.025	1458.16
565.228	1389.38
565.431	1449.05
565.634	1310.52
565.837	1369.03
566.04	1352.18
566.243	1361.48
566.446	1293.09
566.649	1407.59
566.852	1335.13
567.055	1343.07
567.258	1368.65
567.461	1451.38
567.664	1393.45
567.867	1341.91
568.07	1362.25
568.273	1383.37
568.475	1406.81
568.678	1358.96
568.881	1343.27
569.084	1373.3
569.287	1243.49
569.489	1294.64
569.692	1351.6
569.895	1373.68
570.098	1274.87
570.3	1254.14
570.503	1221.79
570.706	1242.52
570.909	1243.49
571.111	1253.95
571.314	1241.55
571.516	1280.69
571.719	1280.49
571.922	1232.64
572.124	1241.94
572.327	1240.77
572.529	1208.22
572.732	1234.19
572.935	1307.62
573.137	1313.43
573.34	1252.59
573.542	1295.99
573.745	1290.37
573.947	1260.34
574.15	1244.65
574.352	1221.4
574.554	1307.03
574.757	1197.18
574.959	1199.31
575.162	1222.75
575.364	1196.02
575.566	1327.96
575.769	1215.39
575.971	1255.11
576.173	1134.02
576.376	1219.07
576.578	1272.94
576.78	1277
576.982	1140.8
577.185	1228.76
577.387	1163.08
577.589	1130.53
577.791	1229.73
577.993	1207.84
578.196	1186.72
578.398	1195.82
578.6	1228.18
578.802	1116.39
579.004	1159.21
579.206	1154.17
579.408	1210.16
579.61	1122.01
579.812	1206.67
580.014	1144.29
580.216	1129.56
580.418	1173.16
580.62	1151.84
580.822	1134.41
581.024	1171.41
581.226	1214.04
581.428	1186.14
581.63	1236.51
581.832	1131.89
582.034	1216.55
582.236	1165.41
582.438	1201.44
582.64	1229.92
582.841	1256.85
583.043	1292.12
583.245	1191.76
583.447	1215.78
583.649	1207.45
583.85	1237.67
584.052	1252.79
584.254	1176.26
584.456	1227.21
584.657	1162.31
584.859	1174.32
585.061	1191.76
585.262	1169.28
585.464	1147.58
585.666	1181.29
585.867	1134.79
586.069	1216.36
586.27	1167.15
586.472	1180.91
586.674	1159.98
586.875	1172.77
587.077	1160.37
587.278	1195.05
587.48	1134.21
587.681	1285.14
587.883	1196.21
588.084	1108.44
588.285	1138.67
588.487	1120.07
588.688	1136.34
588.89	1052.84
589.091	1068.92
589.292	1063.69
589.494	1048.38
589.695	1014.48
589.896	963.71
590.098	959.45
590.299	1042.38
590.5	971.27
590.702	994.91
590.903	1028.43
591.104	1087.91
591.305	1078.99
591.507	1124.91
591.708	1098.37
591.909	1062.33
592.11	1132.66
592.311	1128.79
592.512	1035.21
592.714	1030.75
592.915	1025.91
593.116	1031.53
593.317	1054.19
593.518	1085
593.719	1064.27
593.92	1107.67
594.121	1117.74
594.322	1074.54
594.523	1061.56
594.724	1000.53
594.925	1068.14
595.126	1081.71
595.327	1091.59
595.528	1076.48
595.729	1082.29
595.929	1063.3
596.13	1065.63
596.331	1043.93
596.532	1117.55
596.733	1154.56
596.934	1104.38
597.135	1077.25
597.335	1097.98
597.536	1015.45
597.737	1060.39
597.938	1029.4
598.138	1075.12
598.339	1070.28
598.54	1070.86
598.74	1063.88
598.941	1074.54
599.142	1146.03
599.342	1077.06
599.543	1037.34
599.744	1068.34
599.944	1053.03
600.145	1033.66
600.345	1062.14
600.546	1132.66
600.746	1124.91
600.947	1165.21
601.147	1077.06
601.348	1093.53
601.548	1074.54
601.749	1081.9
601.949	1038.7
602.15	1035.21
602.35	1053.23
602.551	1085
602.751	1023.58
602.951	1043.15
603.152	995.88
603.352	1081.9
603.552	1076.09
603.753	1094.69
603.953	1069.5
604.153	1056.91
604.354	1082.68
604.554	1087.91
604.754	1073.76
604.954	982.12
605.155	1085.58
605.355	1030.75
605.555	1084.81
605.755	1134.6
605.955	1063.69
606.155	1109.99
606.356	1074.73
606.556	1140.99
606.756	1064.08
606.956	1018.16
607.156	1097.4
607.356	1025.33
607.556	1069.5
607.756	1079.38
607.956	1079.58
608.156	1095.85
608.356	1018.35
608.556	1071.63
608.756	1046.64
608.956	969.33
609.156	1035.21
609.356	1000.72
609.556	990.45
609.755	1036.56
609.955	976.89
610.155	1037.15
610.355	1036.18
610.555	985.8
610.755	1030.17
610.954	948.8
611.154	996.07
611.354	1049.35
611.554	1002.27
611.753	1012.54
611.953	939.5
612.153	1056.91
612.352	1048.58
612.552	957.9
612.752	923.61
612.951	963.91
613.151	999.75
613.351	974.37
613.55	949.77
613.75	983.28
613.949	959.65
614.149	1001.88
614.348	948.8
614.548	952.67
614.747	915.28
614.947	957.51
615.146	922.64
615.346	1008.08
615.545	1008.08
615.745	993.75
615.944	1021.45
616.144	960.42
616.343	1007.7
616.542	952.87
616.742	983.09
616.941	968.56
617.14	887.38
617.34	953.06
617.539	924.19
617.738	902.1
617.938	989.48
618.137	940.27
618.336	900.94
618.535	968.17
618.734	948.99
618.934	950.54
619.133	948.41
619.332	967.78
619.531	906.17
619.73	958.1
619.929	998.78
620.128	942.21
620.328	993.75
620.527	899.39
620.726	944.34
620.925	950.15
621.124	891.83
621.323	926.9
621.522	927.29
621.721	902.3
621.92	905.01
622.119	963.71
622.318	921.87
622.517	909.66
622.715	900.94
622.914	859.48
623.113	892.22
623.312	883.12
623.511	948.99
623.71	884.08
623.909	883.7
624.107	961
624.306	862.97
624.505	868.78
624.704	909.08
624.902	868.97
625.101	964.3
625.3	913.92
625.499	861.61
625.697	877.69
625.896	863.35
626.095	908.3
626.293	841.46
626.492	864.9
626.69	885.25
626.889	833.13
627.088	886.22
627.286	828.48
627.485	852.12
627.683	863.35
627.882	869.55
628.08	827.32
628.279	805.42
628.477	909.08
628.676	827.51
628.874	870.13
629.073	828.09
629.271	791.47
629.469	836.81
629.668	824.41
629.866	833.52
630.065	812.4
630.263	824.8
630.461	805.42
630.66	824.8
630.858	866.07
631.056	862.39
631.254	876.72
631.453	833.52
631.651	849.21
631.849	872.65
632.047	843.98
632.245	853.67
632.444	870.72
632.642	865.49
632.84	859.48
633.038	856.19
633.236	778.88
633.434	817.63
633.632	773.07
633.83	813.75
634.028	871.3
634.227	824.02
634.425	919.54
634.623	837.39
634.821	857.35
635.019	866.45
635.216	811.62
635.414	896.29
635.612	850.18
635.81	834.68
636.008	928.84
636.206	813.56
636.404	887.77
636.602	814.34
636.8	824.99
636.997	871.68
637.195	872.27
637.393	849.99
637.591	887.96
637.789	854.05
637.986	825.96
638.184	852.12
638.382	886.41
638.58	888.35
638.777	912.18
638.975	842.24
639.173	823.05
639.37	853.28
639.568	838.75
639.765	870.91
639.963	849.79
640.161	873.62
640.358	863.74
640.556	814.72
640.753	801.74
640.951	802.71
641.148	833.32
641.346	799.22
641.543	845.72
641.741	868.97
641.938	821.5
642.136	835.84
642.333	783.14
642.531	868.97
642.728	838.36
642.925	803.68
643.123	806.39
643.32	837
643.517	812.79
643.715	803.29
643.912	768.42
644.109	803.1
644.306	818.02
644.504	786.63
644.701	803.49
644.898	810.46
645.095	779.07
645.293	808.91
645.49	823.05
645.687	812.4
645.884	840.1
646.081	756.41
646.278	781.79
646.475	776.36
646.672	766.29
646.87	817.82
647.067	813.95
647.264	797.09
647.461	733.74
647.658	717.07
647.855	797.67
648.052	754.47
648.249	667.67
648.446	718.43
648.642	721.14
648.839	711.46
649.036	703.71
649.233	719.79
649.43	696.92
649.627	663.79
649.824	722.11
650.021	699.44
650.217	693.05
650.414	706.03
650.611	739.36
650.808	763.96
651.004	762.41
651.201	729.28
651.398	798.64
651.595	733.35
651.791	738.97
651.988	744.39
652.185	709.71
652.381	722.89
652.578	659.34
652.775	734.9
652.971	725.79
653.168	721.53
653.364	725.79
653.561	678.33
653.757	687.63
653.954	709.13
654.15	686.66
654.347	786.82
654.543	697.31
654.74	665.15
654.936	672.71
655.133	678.52
655.329	709.71
655.525	707.58
655.722	744.97
655.918	670.77
656.115	695.18
656.311	645.97
656.507	576.61
656.704	581.84
656.9	604.7
657.096	614.97
657.292	597.73
657.489	667.48
657.685	663.6
657.881	646.16
658.077	670.19
658.273	666.89
658.47	712.81
658.666	668.06
658.862	697.7
659.058	642.29
659.254	695.37
659.45	648.49
659.646	657.98
659.842	678.13
660.038	719.01
660.234	635.31
660.43	681.62
660.626	756.21
660.822	700.99
661.018	725.99
661.214	684.91
661.41	669.22
661.606	727.73
661.802	732.38
661.998	690.73
662.194	656.43
662.39	708.36
662.586	719.79
662.781	698.67
662.977	698.47
663.173	710.87
663.369	713.39
663.564	683.75
663.76	682.78
663.956	674.84
664.152	707
664.347	612.26
664.543	665.93
664.739	671.93
664.934	630.86
665.13	615.16
665.326	698.86
665.521	683.94
665.717	633.18
665.912	632.6
666.108	591.91
666.304	662.44
666.499	661.86
666.695	573.12
666.89	635.89
667.086	713.01
667.281	662.05
667.477	695.96
667.672	652.56
667.867	632.41
668.063	673.68
668.258	607.8
668.454	634.34
668.649	718.82
668.844	645.58
669.04	659.73
669.235	623.88
669.43	630.47
669.626	614
669.821	633.18
670.016	600.44
670.211	633.96
670.407	612.45
670.602	638.8
670.797	617.1
670.992	647.33
671.187	616.33
671.382	677.74
671.578	607.41
671.773	650.62
671.968	582.42
672.163	612.84
672.358	630.28
672.553	604.31
672.748	597.53
672.943	685.69
673.138	631.44
673.333	653.91
673.528	566.15
673.723	642.09
673.918	638.99
674.113	574.28
674.308	704.67
674.503	657.79
674.698	644.61
674.892	631.63
675.087	681.43
675.282	659.92
675.477	598.7
675.672	643.06
675.867	635.12
676.061	581.45
676.256	599.86
676.451	580.87
676.646	624.46
676.84	596.56
677.035	557.04
677.23	591.72
677.424	613.42
677.619	643.45
677.814	624.08
678.008	659.73
678.203	543.09
678.397	586.3
678.592	599.66
678.787	663.6
678.981	598.89
679.176	612.45
679.37	621.94
679.565	584.16
679.759	596.76
679.954	618.07
680.148	651.39
680.342	622.53
680.537	619.04
680.731	620.78
680.926	646.36
681.12	613.23
681.314	616.71
681.509	608.96
681.703	599.28
681.897	623.49
682.092	589.98
682.286	606.64
682.48	704.48
682.674	655.46
682.869	607.99
683.063	600.25
683.257	680.26
683.451	599.86
683.645	631.05
683.839	614.58
684.034	626.4
684.228	651.01
684.422	579.51
684.616	580.29
684.81	653.14
685.004	582.81
685.198	602.76
685.392	663.41
685.586	579.51
685.78	610.9
685.974	619.62
686.168	637.64
686.362	683.56
686.556	583.97
686.75	575.83
686.944	550.26
687.138	588.04
687.331	476.25
687.525	482.06
687.719	442.15
687.913	475.28
688.107	490.39
688.301	468.69
688.494	510.15
688.688	486.13
688.882	459.2
689.076	469.47
689.269	481.09
689.463	583.97
689.657	504.34
689.85	518.68
690.044	520.42
690.238	519.65
690.431	522.75
690.625	509.38
690.818	559.95
691.012	557.43
691.205	565.76
691.399	540.76
691.593	599.08
691.786	640.16
691.98	631.05
692.173	673.29
692.366	617.88
692.56	655.46
692.753	665.34
692.947	606.44
693.14	669.8
693.333	651.39
693.527	611.09
693.72	645.97
693.914	642.87
694.107	649.84
694.3	636.67
694.493	628.34
694.687	698.47
694.88	645.39
695.073	688.59
695.266	705.84
695.46	675.61
695.653	739.55
695.846	733.74
696.039	660.69
696.232	712.62
696.425	728.7
696.618	747.3
696.812	738.58
697.005	807.36
697.198	881.76
697.391	746.33
697.584	774.23
697.777	831.19
697.97	821.7
698.163	832.74
698.356	800.97
698.549	896.68
698.742	849.99
698.935	819.37
699.127	893.77
699.32	822.86
699.513	837
699.706	864.13
699.899	900.36
700.092	838.94
700.285	884.86
700.477	801.55
700.67	863.74
700.863	913.15
701.056	986.19
701.248	928.45
701.441	924.19
701.634	919.54
701.826	1025.91
702.019	892.61
702.212	963.13
702.404	920.32
702.597	910.63
702.79	910.82
702.982	953.83
703.175	1004.98
703.367	1035.98
703.56	1023
703.752	1108.44
703.945	1092.56
704.137	1069.11
704.33	1093.91
704.522	1095.27
704.715	1079.58
704.907	1107.09
705.1	1150.87
705.292	1148.36
705.484	1105.15
705.677	1165.02
705.869	1178.39
706.061	1213.07
706.254	1231.28
706.446	1159.21
706.638	1169.67
706.831	1247.94
707.023	1195.44
707.215	1299.09
707.407	1290.18
707.599	1250.07
707.792	1326.99
707.984	1295.02
708.176	1315.17
708.368	1265.57
708.56	1358.77
708.752	1303.93
708.944	1323.31
709.136	1366.71
709.329	1296.77
709.521	1438.59
709.713	1370.2
709.905	1404.1
710.097	1447.5
710.289	1418.05
710.481	1421.73
710.672	1430.84
710.864	1434.13
711.056	1489.93
711.248	1449.83
711.44	1467.07
711.632	1475.6
711.824	1524.81
712.016	1527.52
712.207	1537.01
712.399	1538.76
712.591	1564.53
712.783	1547.48
712.975	1580.22
713.166	1511.63
713.358	1549.41
713.55	1609.09
713.741	1619.94
713.933	1587.58
714.125	1611.99
714.316	1603.86
714.508	1627.69
714.7	1650.94
714.891	1655
715.083	1682.32
715.274	1660.82
715.466	1655.39
715.657	1700.34
715.849	1616.64
716.04	1669.15
716.232	1598.43
716.423	1678.84
716.615	1585.26
716.806	1560.26
716.998	1522.87
717.189	1479.08
717.381	1461.45
717.572	1407.4
717.763	1419.6
717.955	1430.84
718.146	1409.14
718.337	1357.6
718.528	1355.28
718.72	1277
718.911	1339.78
719.102	1302.77
719.293	1369.03
719.485	1332.03
719.676	1319.43
719.867	1271.19
720.058	1302.77
720.249	1289.02
720.44	1339.97
720.632	1354.89
720.823	1373.1
721.014	1514.54
721.205	1498.26
721.396	1560.46
721.587	1636.41
721.778	1647.64
721.969	1667.99
722.16	1737.54
722.351	1734.64
722.542	1838.29
722.733	1837.51
722.924	1722.82
723.115	1785.98
723.305	1801.28
723.496	1798.57
723.687	1719.33
723.878	1674.38
724.069	1712.94
724.26	1712.94
724.45	1632.34
724.641	1651.32
724.832	1691.24
725.023	1673.99
725.213	1645.9
725.404	1641.44
725.595	1695.11
725.785	1624.59
725.976	1699.76
726.167	1687.75
726.357	1696.08
726.548	1768.35
726.739	1680.77
726.929	1764.28
727.12	1807.1
727.31	1813.1
727.501	1749.75
727.691	1768.73
727.882	1801.87
728.072	1785.4
728.263	1829.76
728.453	1883.05
728.644	1839.65
728.834	1866.58
729.024	1810
729.215	1796.63
729.405	1839.06
729.596	1906.3
729.786	1932.26
729.976	1928.58
730.167	1955.51
730.357	1888.28
730.547	1909.01
730.737	1944.08
730.928	1982.05
731.118	2008.79
731.308	1917.34
731.498	1969.84
731.688	2045.02
731.879	2043.66
732.069	2114.19
732.259	2090.94
732.449	2096.55
732.639	2173.67
732.829	2200.6
733.019	2216.87
733.209	2286.04
733.399	2259.11
733.589	2308.32
733.779	2363.15
733.969	2335.45
734.159	2408.29
734.349	2401.32
734.539	2465.06
734.729	2417.01
734.919	2451.89
735.109	2534.23
735.299	2463.9
735.488	2507.49
735.678	2467.39
735.868	2469.71
736.058	2474.94
736.248	2454.99
736.437	2429.8
736.627	2445.69
736.817	2541.4
737.007	2504.39
737.196	2535.97
737.386	2495.09
737.576	2518.73
737.765	2566.78
737.955	2525.32
738.144	2603.2
738.334	2553.99
738.524	2518.15
738.713	2587.51
738.903	2559.22
739.092	2615.02
739.282	2598.36
739.471	2596.23
739.661	2548.76
739.85	2623.16
740.04	2640.02
740.229	2617.93
740.419	2675.28
740.608	2662.49
740.797	2719.65
740.987	2727.59
741.176	2698.33
741.365	2679.93
741.555	2622.77
741.744	2711.31
741.933	2677.02
742.123	2712.48
742.312	2714.03
742.501	2737.28
742.69	2727.78
742.88	2661.91
743.069	2779.32
743.258	2703.56
743.447	2741.15
743.636	2745.61
743.825	2726.43
744.014	2748.51
744.204	2799.28
744.393	2699.88
744.582	2796.37
744.771	2788.43
744.96	2725.85
745.149	2778.74
745.338	2762.27
745.527	2786.3
745.716	2722.75
745.905	2751.42
746.094	2801.02
746.283	2803.73
746.471	2829.5
746.66	2847.91
746.849	2833.57
747.038	2836.28
747.227	2796.37
747.416	2841.32
747.604	2756.07
747.793	2775.64
747.982	2788.43
748.171	2769.05
748.359	2851.01
748.548	2792.88
748.737	2807.99
748.926	2794.63
749.114	2711.7
749.303	2796.76
749.491	2788.23
749.68	2677.22
749.869	2830.86
750.057	2758.59
750.246	2720.23
750.434	2772.54
750.623	2742.51
750.811	2741.54
751	2799.66
751.188	2774.67
751.377	2764.79
751.565	2762.85
751.754	2720.61
751.942	2691.36
752.131	2742.51
752.319	2749.87
752.507	2695.23
752.696	2747.16
752.884	2781.26
753.072	2718.87
753.261	2732.82
753.449	2752.78
753.637	2721.97
753.825	2858.56
754.014	2685.74
754.202	2713.45
754.39	2787.26
754.578	2772.35
754.766	2710.35
754.955	2700.47
755.143	2800.05
755.331	2721.78
755.519	2706.66
755.707	2698.92
755.895	2667.72
756.083	2694.85
756.271	2632.85
756.459	2673.92
756.647	2715.58
756.835	2685.74
757.023	2665.98
757.211	2653.97
757.399	2639.24
757.587	2656.1
757.775	2606.69
757.963	2631.68
758.151	2652.03
758.339	2583.83
758.526	2574.14
758.714	2619.67
758.902	2502.07
759.09	2421.47
759.278	2296.5
759.465	2133.37
759.653	1856.89
759.841	1713.9
760.028	1450.6
760.216	1246
760.404	1190.21
760.591	989.68
760.779	826.35
760.967	726.76
761.154	610.9
761.342	626.59
761.529	623.49
761.717	660.5
761.905	677.74
762.092	733.74
762.28	671.35
762.467	702.93
762.655	619.04
762.842	652.75
763.029	680.07
763.217	691.69
763.404	688.21
763.592	724.44
763.779	663.41
763.966	714.36
764.154	737.42
764.341	782.95
764.528	768.22
764.716	839.91
764.903	883.89
765.09	932.33
765.277	944.53
765.465	1094.88
765.652	1155.72
765.839	1226.05
766.026	1317.11
766.213	1324.67
766.4	1416.31
766.588	1581.77
766.775	1583.71
766.962	1661.2
767.149	1687.55
767.336	1831.12
767.523	1757.88
767.71	1859.41
767.897	1997.94
768.084	2039.21
768.271	2072.92
768.458	2128.33
768.645	2151.39
768.832	2118.64
769.019	2122.13
769.206	2176.77
769.392	2214.55
769.579	2348.43
769.766	2274.03
769.953	2266.66
770.14	2352.69
770.327	2302.9
770.513	2338.55
770.7	2438.52
770.887	2289.91
771.073	2376.52
771.26	2335.45
771.447	2315.49
771.634	2295.73
771.82	2395.7
772.007	2320.53
772.193	2374.97
772.38	2375.36
772.567	2355.79
772.753	2334.09
772.94	2399.38
773.126	2405.58
773.313	2391.83
773.499	2378.26
773.686	2420.69
773.872	2345.52
774.059	2386.4
774.245	2327.31
774.432	2326.73
774.618	2317.04
774.804	2326.34
774.991	2241.48
775.177	2359.86
775.363	2316.07
775.55	2362.57
775.736	2287.98
775.922	2270.93
776.109	2343.97
776.295	2344.94
776.481	2351.91
776.667	2352.11
776.853	2299.99
777.04	2263.37
777.226	2321.69
777.412	2362.96
777.598	2256.98
777.784	2266.08
777.97	2263.18
778.156	2310.65
778.342	2285.46
778.528	2243.03
778.715	2194.4
778.901	2231.4
779.087	2247.87
779.272	2251.55
779.458	2207.77
779.644	2222.49
779.83	2193.43
780.016	2277.9
780.202	2225.78
780.388	2233.53
780.574	2164.56
780.76	2199.82
780.946	2245.55
781.131	2222.1
781.317	2231.79
781.503	2143.44
781.689	2210.09
781.874	2296.11
782.06	2198.85
782.246	2196.53
782.432	2136.27
782.617	2186.65
782.803	2257.17
782.989	2118.25
783.174	2210.87
783.36	2090.74
783.545	2162.24
783.731	2158.17
783.916	2091.32
784.102	2156.04
784.288	2108.18
784.473	2119.8
784.659	2127.94
784.844	2165.34
785.029	2079.31
785.215	2083.38
785.4	2080.28
785.586	2148.09
785.771	2051.8
785.956	2087.06
786.142	2051.41
786.327	2067.69
786.512	2048.89
786.698	2015.57
786.883	1978.76
787.068	2038.82
787.254	2038.04
787.439	1990.38
787.624	2016.73
787.809	1995.61
787.994	2000.07
788.18	2079.31
788.365	1951.83
788.55	2004.72
788.735	1978.37
788.92	1967.13
789.105	1972.94
789.29	1992.9
789.475	1913.66
789.66	1968.29
789.845	1894.28
790.03	1869.1
790.215	1971.39
790.4	1954.54
790.585	1984.18
790.77	1912.11
790.955	1835
791.14	1891.38
791.325	1965.39
791.51	1839.45
791.695	1916.18
791.879	1898.93
792.064	1860.38
792.249	1956.28
792.434	1904.94
792.618	1875.88
792.803	1959.77
792.988	1838.1
793.173	1896.03
793.357	1925.67
793.542	1845.26
793.727	1894.48
793.911	1914.43
794.096	1916.95
794.281	1928.58
794.465	2019.83
794.65	1929.74
794.834	1956.48
795.019	1980.69
795.203	1977.59
795.388	1942.72
795.572	1997.36
795.757	1906.49
795.941	1936.13
796.126	1951.44
796.31	1876.07
796.494	1887.31
796.679	1913.08
796.863	1903.78
797.048	1972.17
797.232	1958.41
797.416	1932.84
797.601	1920.63
797.785	1980.11
797.969	1968.88
798.153	1887.89
798.338	1939.04
798.522	1975.08
798.706	1968.88
798.89	1976.63
799.074	2052.19
799.258	1999.68
799.443	1992.32
799.627	1956.09
799.811	1999.68
799.995	1960.74
800.179	1913.27
800.363	1938.07
800.547	1965
800.731	1958.41
800.915	1879.17
801.099	1940.98
801.283	1921.99
801.467	1949.89
801.651	1897.19
801.835	1996.39
802.019	1916.95
802.202	1942.33
802.386	1902.61
802.57	1899.13
802.754	1894.09
802.938	1882.46
803.121	1936.71
803.305	1999.68
803.489	1890.41
803.673	1951.05
803.856	1938.65
804.04	1940.39
804.224	1955.12
804.407	1920.05
804.591	1882.08
804.775	1900.1
804.958	1890.21
805.142	2041.72
805.326	1920.44
805.509	1996.58
805.693	1945.63
805.876	1983.21
806.06	1928.58
806.243	1956.28
806.427	1964.61
806.61	1973.91
806.794	1922.96
806.977	2002.2
807.16	1961.9
807.344	1963.64
807.527	1939.62
807.71	1940.98
807.894	1952.41
808.077	1994.45
808.26	1918.31
808.444	1916.95
808.627	1951.24
808.81	1931.68
808.993	1875.88
809.177	1847.98
809.36	1878.78
809.543	1922.57
809.726	1804.97
809.909	1806.52
810.092	1813.68
810.276	1799.73
810.459	1812.72
810.642	1794.12
810.825	1799.93
811.008	1811.17
811.191	1722.04
811.374	1730.95
811.557	1736.57
811.74	1833.64
811.923	1707.7
812.106	1723.79
812.289	1655.59
812.472	1712.16
812.654	1750.52
812.837	1666.05
813.02	1658.49
813.203	1611.41
813.386	1508.73
813.569	1530.04
813.751	1506.59
813.934	1497.49
814.117	1510.08
814.3	1418.83
814.482	1419.8
814.665	1374.65
814.848	1377.75
815.03	1326.41
815.213	1378.72
815.396	1351.98
815.578	1339
815.761	1309.75
815.943	1343.46
816.126	1267.51
816.309	1232.83
816.491	1204.54
816.674	1154.75
816.856	1184.59
817.039	1166.18
817.221	1283.01
817.403	1227.21
817.586	1225.85
817.768	1219.65
817.951	1164.82
818.133	1156.88
818.315	1188.66
818.498	1206.09
818.68	1298.32
818.862	1240.77
819.045	1268.67
819.227	1229.73
819.409	1217.72
819.591	1233.6
819.774	1221.4
819.956	1205.12
820.138	1268.09
820.32	1240.97
820.502	1273.9
820.684	1364
820.866	1355.67
821.048	1389.18
821.231	1389.96
821.413	1349.66
821.595	1369.42
821.777	1373.1
821.959	1360.9
822.141	1396.55
822.323	1318.27
822.505	1259.57
822.686	1231.47
822.868	1192.92
823.05	1084.03
823.232	1087.33
823.414	1000.33
823.596	1113.87
823.778	1078.22
823.96	1108.83
824.141	1090.04
824.323	1173.16
824.505	1158.82
824.687	1223.92
824.868	1261.7
825.05	1353.34
825.232	1339.58
825.413	1405.26
825.595	1350.05
825.777	1274.29
825.958	1338.42
826.14	1319.43
826.321	1388.6
826.503	1320.02
826.685	1354.31
826.866	1353.73
827.048	1379.88
827.229	1334.93
827.411	1313.23
827.592	1250.46
827.773	1251.82
827.955	1211.71
828.136	1217.33
828.318	1175.67
828.499	1227.21
828.68	1157.27
828.862	1212.68
829.043	1244.26
829.224	1221.98
829.406	1198.34
829.587	1232.44
829.768	1195.24
829.949	1237.09
830.131	1206.29
830.312	1273.32
830.493	1180.13
830.674	1224.89
830.855	1202.8
831.036	1181.68
831.218	1227.6
831.399	1295.6
831.58	1236.9
831.761	1229.34
831.942	1264.8
832.123	1228.18
832.304	1176.26
832.485	1166.37
832.666	1215.97
832.847	1211.52
833.028	1197.37
833.209	1220.62
833.389	1221.79
833.57	1161.14
833.751	1154.36
833.932	1223.72
834.113	1213.07
834.294	1202.99
834.475	1228.37
834.655	1253.17
834.836	1273.71
835.017	1237.67
835.198	1213.26
835.378	1201.06
835.559	1253.75
835.74	1230.12
835.92	1208.42
836.101	1180.52
836.281	1266.74
836.462	1243.87
836.643	1273.52
836.823	1277.97
837.004	1251.62
837.184	1343.85
837.365	1297.93
837.545	1328.93
837.726	1267.51
837.906	1296.96
838.087	1251.62
838.267	1249.88
838.448	1207.84
838.628	1270.8
838.808	1236.32
838.989	1323.31
839.169	1221.01
839.349	1277.39
839.53	1299.09
839.71	1313.82
839.89	1260.92
840.07	1315.56
840.251	1235.54
840.431	1271.19
840.611	1275.26
840.791	1264.41
840.971	1250.46
841.151	1256.85
841.332	1238.25
841.512	1278.94
841.692	1195.82
841.872	1266.54
842.052	1246.78
842.232	1242.13
842.412	1204.35
842.592	1268.09
842.772	1300.84
842.952	1271.77
843.132	1219.27
843.312	1235.35
843.492	1221.2
843.672	1271.58
843.851	1174.71
844.031	1221.98
844.211	1203.57
844.391	1194.86
844.571	1224.11
844.751	1233.6
844.93	1225.85
845.11	1192.53
845.29	1216.55
845.47	1211.52
845.649	1232.44
845.829	1210.94
846.009	1176.45
846.188	1233.22
846.368	1211.91
846.547	1195.82
846.727	1273.52
846.907	1173.35
847.086	1236.12
847.266	1250.46
847.445	1199.51
847.625	1202.41
847.804	1178.19
847.984	1222.95
848.163	1170.06
848.343	1159.4
848.522	1170.44
848.701	1238.25
848.881	1163.27
849.06	1184.01
849.239	1167.92
849.419	1206.29
849.598	1127.63
849.777	1137.89
849.957	1136.73
850.136	1052.84
850.315	1087.91
850.494	1097.01
850.674	1068.34
850.853	1115.81
851.032	1097.01
851.211	1156.88
851.39	1116.58
851.569	1054.78
851.748	1076.28
851.927	1133.24
852.107	1093.72
852.286	1069.69
852.465	1041.79
852.644	1137.31
852.823	1086.94
853.002	1098.18
853.181	1053.03
853.359	1097.01
853.538	1053.42
853.717	1130.14
853.896	1008.47
854.075	972.63
854.254	968.36
854.433	899.97
854.611	951.32
854.79	923.03
854.969	967.59
855.148	997.23
855.327	926.52
855.505	992.39
855.684	979.99
855.863	1005.18
856.041	945.7
856.22	1033.08
856.399	994.71
856.577	1051.87
856.756	1026.68
856.934	1149.52
857.113	1154.56
857.291	1064.85
857.47	1039.86
857.648	1027.26
857.827	1035.98
858.005	1080.16
858.184	1032.11
858.362	1125.3
858.541	1044.31
858.719	1021.06
858.898	1034.82
859.076	1051.48
859.254	1094.3
859.433	1037.34
859.611	1012.35
859.789	997.81
859.967	1051.09
860.146	1054.78
860.324	974.95
860.502	1019.51
860.68	998.4
860.859	998.01
861.037	1003.24
861.215	1029.01
861.393	1014.48
861.571	1008.86
861.749	965.07
861.927	1027.26
862.105	1041.02
862.283	972.82
862.461	956.93
862.639	950.35
862.817	961.58
862.995	984.83
863.173	956.74
863.351	986.77
863.529	1010.99
863.707	1048.19
863.885	995.3
864.063	926.32
864.241	964.88
864.418	1023.97
864.596	997.23
864.774	888.73
864.952	944.73
865.129	966.43
865.307	909.27
865.485	893.77
865.663	955.58
865.84	891.25
866.018	909.85
866.196	788.18
866.373	872.07
866.551	828.87
866.728	765.71
866.906	838.55
867.084	858.51
867.261	858.7
867.439	864.71
867.616	891.25
867.794	889.7
867.971	893.38
868.149	895.9
868.326	911.79
868.503	906.37
868.681	880.21
868.858	874.01
869.035	860.06
869.213	951.32
869.39	829.06
869.567	984.25
869.745	905.01
869.922	877.11
870.099	888.93
870.276	886.8
870.454	890.48
870.631	940.47
870.808	910.82
870.985	927.87
871.162	964.88
871.339	944.53
871.517	849.6
871.694	827.32
871.871	862.19
872.048	857.93
872.225	867.23
872.402	904.23
872.579	831.77
872.756	906.17
872.933	824.02
873.11	868.2
873.287	859.87
873.463	879.05
873.64	834.1
873.817	890.87
873.994	845.14
874.171	819.57
874.348	829.84
874.524	815.69
874.701	831.97
874.878	776.75
875.055	826.15
875.231	839.33
875.408	834.29
875.585	770.36
875.762	831.39
875.938	797.67
876.115	819.18
876.291	802.32
876.468	814.72
876.645	762.02
876.821	777.33
876.998	781.98
877.174	803.1
877.351	797.09
877.527	764.93
877.704	798.25
877.88	802.32
878.057	782.17
878.233	830.61
878.409	781.59
878.586	767.26
878.762	779.27
878.938	776.94
879.115	728.89
879.291	772.87
879.467	716.88
879.644	767.06
879.82	805.42
879.996	740.52
880.172	716.49
880.349	777.72
880.525	774.04
880.701	725.21
880.877	708.16
881.053	745.17
881.229	739.36
881.405	799.8
881.581	731.8
881.757	769.39
881.933	764.35
882.109	798.06
882.285	762.41
882.461	694.21
882.637	738
882.813	721.53
882.989	727.34
883.165	825.19
883.341	698.28
883.517	779.46
883.693	728.12
883.869	761.44
884.044	734.9
884.22	759.7
884.396	789.92
884.572	760.09
884.747	800
884.923	784.89
885.099	789.54
885.275	786.05
885.45	731.8
885.626	763.57
885.801	708.94
885.977	704.09
886.153	669.61
886.328	742.46
886.504	719.98
886.679	750.79
886.855	721.72
887.03	766.09
887.206	750.59
887.381	738
887.557	781.79
887.732	760.28
887.908	777.72
888.083	793.41
888.258	727.15
888.434	727.34
888.609	736.26
888.784	785.85
888.96	704.09
889.135	713.01
889.31	728.12
889.485	740.91
889.661	721.53
889.836	781.4
890.011	743.81
890.186	735.29
890.361	713.78
890.537	778.3
890.712	715.52
890.887	760.28
891.062	737.61
891.237	806.78
891.412	687.24
891.587	747.88
891.762	763.57
891.937	781.2
892.112	715.91
892.287	726.96
892.462	666.31
892.637	687.63
892.812	661.08
892.987	675.03
893.161	664.57
893.336	658.76
893.511	676.58
893.686	680.65
893.861	675.61
894.035	661.66
894.21	650.04
894.385	651.78
894.56	654.49
894.734	610.71
894.909	635.89
895.084	628.73
895.258	607.41
895.433	607.8
895.608	590.75
895.782	557.43
895.957	601.21
896.131	546.58
896.306	525.65
896.48	544.06
896.655	530.88
896.829	499.69
897.004	473.34
897.178	526.23
897.353	533.6
897.527	550.06
897.701	518.29
897.876	468.3
898.05	539.02
898.224	519.45
898.399	553.16
898.573	491.55
898.747	401.07
898.921	476.83
899.096	424.9
899.27	402.82
899.444	381.31
899.618	424.71
899.792	458.03
899.967	432.46
900.141	497.56
900.315	382.28
900.489	417.15
900.663	444.47
900.837	446.6
901.011	403.4
901.185	483.03
901.359	425.49
901.533	467.53
901.707	426.45
901.881	425.29
902.055	413.47
902.229	426.26
902.403	484.19
902.576	445.05
902.75	458.42
902.924	562.27
903.098	478.77
903.272	515.97
903.446	546.58
903.619	509.77
903.793	536.31
903.967	512.67
904.14	563.63
904.314	558.59
904.488	545.22
904.661	566.53
904.835	551.23
905.009	583
905.182	615.94
905.356	586.1
905.529	524.68
905.703	544.64
905.876	525.26
906.05	511.7
906.223	460.36
906.397	447.38
906.57	431.68
906.744	424.13
906.917	453.38
907.09	440.79
907.264	436.14
907.437	397.2
907.61	398.17
907.784	426.07
907.957	425.49
908.13	388.48
908.304	435.95
908.477	364.45
908.65	397.59
908.823	357.48
908.996	440.79
909.17	395.65
909.343	375.3
909.516	394.1
909.689	385.96
909.862	338.88
910.035	394.68
910.208	360.77
910.381	380.34
910.554	474.5
910.727	388.09
910.9	385.38
911.073	387.12
911.246	423.55
911.419	411.15
911.592	396.04
911.765	373.95
911.938	370.85
912.11	403.2
912.283	399.33
912.456	402.43
912.629	379.95
912.802	354.19
912.974	324.35
913.147	315.44
913.32	248.98
913.493	302.65
913.665	320.47
913.838	335.78
914.01	323.57
914.183	324.35
914.356	321.64
914.528	370.65
914.701	411.54
914.873	362.13
915.046	322.22
915.218	314.47
915.391	254.99
915.563	270.87
915.736	335.2
915.908	363.68
916.081	354.77
916.253	321.44
916.425	324.35
916.598	342.37
916.77	318.73
916.942	287.34
917.115	280.37
917.287	329.39
917.459	289.86
917.632	289.47
917.804	248.79
917.976	336.36
918.148	314.08
918.32	314.08
918.493	353.41
918.665	391.97
918.837	328.61
919.009	420.64
919.181	365.62
919.353	353.6
919.525	357.09
919.697	330.74
919.869	333.46
920.041	420.25
920.213	468.69
920.385	382.47
920.557	337.91
920.729	382.28
920.901	362.71
921.073	347.4
921.244	312.53
921.416	385.38
921.588	354.19
921.76	339.07
921.932	386.54
922.103	338.49
922.275	355.35
922.447	365.81
922.619	292.77
922.79	365.62
922.962	324.74
923.134	360.58
923.305	291.41
923.477	275.52
923.648	277.85
923.82	316.21
923.991	272.81
924.163	276.11
924.335	306.33
924.506	266.22
924.677	357.29
924.849	274.17
925.02	296.45
925.192	316.41
925.363	300.13
925.535	315.24
925.706	278.62
925.877	344.3
926.049	261.57
926.22	284.24
926.391	306.91
926.562	306.72
926.734	284.44
926.905	306.52
927.076	223.02
927.247	264.67
927.419	214.88
927.59	246.46
927.761	252.28
927.932	243.17
928.103	267.19
928.274	232.13
928.445	211.39
928.616	218.56
928.787	195.7
928.958	264.48
929.129	244.91
929.3	229.22
929.471	158.31
929.642	143.78
929.813	85.46
929.984	212.56
930.155	136.61
930.326	176.13
930.496	133.51
930.667	99.21
930.838	155.79
931.009	99.6
931.18	151.72
931.35	114.91
931.521	145.71
931.692	81.78
931.863	54.85
932.033	118.59
932.204	125.95
932.374	112.2
932.545	62.4
932.716	140.68
932.886	111.23
933.057	12.22
933.227	48.07
933.398	130.21
933.568	50.78
933.739	7.38
933.909	44.77
934.08	97.28
934.25	24.43
934.421	8.73
934.591	49.81
934.761	18.81
934.932	-3.67
935.102	28.88
935.272	35.67
935.443	58.72
935.613	56.59
935.783	41.09
935.953	19.78
936.123	186.01
936.294	9.32
936.464	6.22
936.634	16.48
936.804	12.22
936.974	9.32
937.144	56.98
937.314	34.31
937.484	20.17
937.655	5.63
937.825	64.73
937.995	10.09
938.165	83.71
938.334	36.63
938.504	61.82
938.674	23.27
938.844	31.79
939.014	61.43
939.184	71.32
939.354	98.25
939.524	125.56
939.694	61.05
939.863	58.14
940.033	113.16
940.203	122.08
940.373	101.35
940.542	95.53
940.712	48.84
940.882	103.28
941.051	113.55
941.221	126.73
941.391	118.4
941.56	73.45
941.73	58.53
941.899	180.78
942.069	54.46
942.238	76.55
942.408	51.55
942.577	101.35
942.747	67.44
942.916	6.22
943.086	48.65
943.255	100.96
943.425	60.66
943.594	30.82
943.763	-1.15
943.933	19.2
944.102	-22.26
944.271	40.51
944.441	96.11
944.61	51.17
944.779	36.25
944.948	149.2
945.117	27.53
945.287	29.66
945.456	13.58
945.625	30.24
945.794	78.68
945.963	13.77
946.132	90.88
946.301	35.28
946.47	67.25
946.639	-12.38
946.808	40.7
946.977	66.86
947.146	114.13
947.315	32.95
947.484	73.45
947.653	39.15
947.822	53.88
947.991	31.6
948.16	162.96
948.329	96.7
948.498	44.58
948.666	39.54
948.835	71.32
949.004	1.95
949.173	25.59
949.341	50.39
949.51	62.6
949.679	90.11
949.847	66.86
950.016	143.78
950.185	115.88
950.353	35.47
950.522	43.03
950.69	108.51
950.859	28.88
951.028	96.11
951.196	92.63
951.365	54.46
951.533	40.7
951.701	86.04
951.87	81.2
952.038	33.53
952.207	59.88
952.375	100.57
952.543	18.03
952.712	41.87
952.88	21.72
953.048	120.91
953.217	58.72
953.385	56.01
953.553	96.7
953.721	19.58
953.89	69.18
954.058	19
954.226	25.98
954.394	47.68
954.562	12.42
954.73	62.79
954.898	63.95
955.067	111.61
955.235	42.25
955.403	73.25
955.571	109.29
955.739	61.82
955.907	17.65
956.075	29.08
956.243	15.9
956.41	75.77
956.578	5.25
956.746	13
956.914	45.55
957.082	73.83
957.25	93.21
957.418	29.47
957.585	58.14
957.753	107.93
957.921	16.48
958.089	47.87
958.256	67.05
958.424	67.83
958.592	46.9
958.759	61.63
958.927	79.84
959.095	13.97
959.262	55.82
959.43	66.47
959.597	25.01
959.765	51.94
959.932	-0.95
960.1	53.1
960.267	49.42
960.435	59.5
960.602	93.79
960.77	52.33
960.937	12.8
961.104	65.7
961.272	26.95
961.439	26.75
961.606	79.26
961.774	90.11
961.941	45.16
962.108	81.97
962.275	65.7
962.443	96.5
962.61	68.22
962.777	130.21
962.944	92.24
963.111	47.87
963.278	69.96
963.446	70.15
963.613	86.81
963.78	91.27
963.947	87.4
964.114	74.03
964.281	142.23
964.448	76.55
964.615	47.87
964.782	89.33
964.949	88.56
965.116	72.48
965.282	120.14
965.449	67.05
965.616	26.56
965.783	87.59
965.95	65.12
966.117	16.48
966.283	78.48
966.45	102.12
966.617	70.15
966.784	102.9
966.95	130.02
967.117	103.48
967.284	64.92
967.45	53.88
967.617	109.1
967.784	87.2
967.95	115.68
968.117	66.28
968.283	123.05
968.45	176.52
968.616	67.05
968.783	140.48
968.949	90.5
969.116	113.36
969.282	62.6
969.449	65.5
969.615	82.55
969.781	44.58
969.948	51.75
970.114	41.28
970.28	105.61
970.447	77.9
970.613	122.08
970.779	90.69
970.945	114.33
971.112	93.6
971.278	77.32
971.444	61.82
971.61	117.23
971.776	59.11
971.942	107.55
972.108	105.41
972.275	65.12
972.441	72.87
972.607	134.09
972.773	75
972.939	86.43
973.105	69.18
973.271	32.37
973.437	63.37
973.602	69.57
973.768	104.45
973.934	72.67
974.1	101.73
974.266	31.98
974.432	91.27
974.598	54.65
974.763	111.42
974.929	47.48
975.095	122.27
975.261	53.1
975.426	35.67
975.592	93.01
975.758	135.06
975.923	11.83
976.089	61.43
976.255	89.14
976.42	82.75
976.586	101.93
976.751	85.46
976.917	180.98
977.082	79.65
977.248	15.13
977.413	38.38
977.579	35.28
977.744	89.14
977.91	17.07
978.075	40.32
978.24	75
978.406	61.63
978.571	44.19
978.736	55.23
978.902	108.32
979.067	33.53
979.232	4.86
979.397	71.51
979.563	116.85
979.728	36.63
979.893	68.8
980.058	44.58
980.223	84.3
980.388	82.36
980.554	77.71
980.719	45.55
980.884	73.45
981.049	91.85
981.214	43.22
981.379	77.13
981.544	25.59
981.709	61.63
981.874	52.91
982.039	86.04
982.204	109.68
982.368	68.22
982.533	31.98
982.698	98.63
982.863	126.34
983.028	46.9
983.193	103.48
983.357	45.74
983.522	75.58
983.687	73.45
983.852	43.8
984.016	45.74
984.181	86.62
984.346	41.87
984.51	50.39
984.675	61.05
984.839	84.1
985.004	52.91
985.168	108.13
985.333	75
985.498	40.9
985.662	87.98
985.827	74.03
985.991	55.23
986.155	41.28
986.32	77.71
986.484	136.03
986.649	78.87
986.813	19.97
986.977	71.32
987.142	87.59
987.306	58.33
987.47	25.59
987.634	39.54
987.799	65.12
987.963	65.12
988.127	81.39
988.291	122.46
988.455	65.89
988.62	53.68
988.784	83.52
988.948	91.66
989.112	37.99
989.276	67.83
989.44	73.45
989.604	45.74
989.768	68.02
989.932	140.48
990.096	56.78
990.26	16.29
990.424	25.2
990.588	61.63
990.752	142.42
990.915	87.98
991.079	47.29
991.243	56.2
991.407	86.23
991.571	44.97
991.734	115.1
991.898	75.58
992.062	146.1
992.226	48.26
992.389	19.2
992.553	4.08
992.717	40.51
992.88	62.6
993.044	65.89
993.207	63.18
993.371	90.88
993.535	93.79
993.698	52.13
993.862	79.65
994.025	124.6
994.189	78.1
994.352	70.35
994.515	51.17
994.679	82.55
994.842	62.21
995.006	81.58
995.169	29.08
995.332	24.82
995.496	74.61
995.659	5.05
995.822	63.76
995.985	54.46
996.149	92.82
996.312	91.46
996.475	110.84
996.638	26.17
996.801	109.87
996.964	97.66
997.128	70.54
997.291	32.76
997.454	97.28
997.617	17.26
997.78	79.45
997.943	3.5
998.106	79.65
998.269	41.67
998.432	47.68
998.595	68.41
998.758	26.37
998.92	34.7
999.083	-13.55
999.246	58.53
999.409	-13.74
999.572	-4.25
999.735	45.93
999.897	66.86
1000.06	53.3
1000.223	37.6
1000.386	59.5
1000.548	72.48
1000.711	57.17
1000.874	64.34
1001.036	-29.43
1001.199	95.15
1001.361	47.1
1001.524	55.43
1001.687	82.55
1001.849	16.1
1002.012	45.35
1002.174	59.3
1002.337	60.66
1002.499	45.55
1002.661	66.47
1002.824	-2.7
1002.986	19.39
1003.149	52.72
1003.311	26.56
1003.473	113.16
1003.636	8.73
1003.798	54.07
1003.96	52.72
1004.123	14.55
1004.285	44.77
1004.447	43.61
1004.609	31.4
1004.771	79.84
1004.933	19.58
1005.096	38.38
1005.258	-0.18
1005.42	19.78
1005.582	77.13
1005.744	60.85
1005.906	21.72
1006.068	64.15
1006.23	8.73
1006.392	-24.2
1006.554	-0.95
1006.716	62.98
1006.878	53.68
1007.04	3.89
1007.202	1.76
1007.363	22.49
1007.525	27.53
1007.687	58.53
1007.849	108.9
1008.011	-15.68
1008.172	-2.5
1008.334	22.3
1008.496	55.43
1008.658	-20.91
1008.819	16.87
1008.981	-6.77
1009.143	18.62
1009.304	13
1009.466	39.93
1009.627	80.81
1009.789	129.63
1009.95	38.18
1010.112	10.48
1010.273	49.62
1010.435	-10.45
1010.596	16.48
1010.758	28.3
1010.919	-6.77
1011.081	0.79
1011.242	30.43
1011.403	80.23
1011.565	52.91
1011.726	33.15
1011.887	-4.05
1012.049	49.03
1012.21	69.57
1012.371	81
1012.532	-49.39
1012.693	27.53
1012.855	-0.37
1013.016	14.55
1013.177	79.65
1013.338	29.47
1013.499	100.57
1013.66	79.65
1013.821	45.55
1013.982	59.5
1014.143	24.23
1014.304	6.22
1014.465	37.02
1014.626	62.98
1014.787	17.26
1014.948	126.53
1015.109	-35.44
1015.27	51.17
1015.431	11.06
1015.592	-20.13
1015.752	93.01
1015.913	33.53
1016.074	38.77
1016.235	22.3
1016.395	-4.63
1016.556	36.44
1016.717	46.71
1016.877	75.97
1017.038	20.94
1017.199	32.95
1017.359	34.7
1017.52	30.24
1017.681	33.34
1017.841	37.02
1018.002	36.05
1018.162	8.54
1018.323	55.62
1018.483	19
1018.644	9.7
1018.804	-26.14
1018.964	3.12
1019.125	11.06
1019.285	33.73
1019.446	-0.76
1019.606	-15.1
1019.766	-26.53
1019.926	40.51
1020.087	17.45
1020.247	-8.9
1020.407	51.55
1020.567	40.7
1020.728	20.75
1020.888	7.18
1021.048	-12
1021.208	19.78
1021.368	-11.22
1021.528	57.75
1021.688	45.35
1021.848	39.93
1022.008	27.14
1022.168	-11.61
1022.328	26.75
1022.488	61.24
1022.648	-6.38
1022.808	13
1022.968	26.75
1023.128	-3.67
1023.288	-9.48
1023.448	26.95
1023.608	32.18
1023.767	29.66
1023.927	-0.57
1024.087	-21.3
1024.247	-3.28
1024.406	19.2
1024.566	-18.2
1024.726	-2.12
1024.885	13.38
1025.045	44.58
1025.205	12.03
1025.364	15.52
1025.524	52.72
1025.683	-12
1025.843	31.4
1026.003	45.35
1026.162	82.75
1026.321	56.78
1026.481	10.09
1026.64	-17.03
1026.8	41.09
1026.959	11.06
1027.119	19.58
1027.278	4.67
1027.437	10.48
1027.597	-3.08
1027.756	23.65
1027.915	35.67
1028.074	49.23
1028.234	-15.48
1028.393	12.8
1028.552	6.22
1028.711	-43.96
1028.87	74.22
1029.03	-44.93
1029.189	19.78
1029.348	-41.45
1029.507	-22.46
1029.666	-11.03
1029.825	-21.88
1029.984	-0.76
1030.143	16.1
1030.302	-3.28
1030.461	-62.56
1030.62	22.68
1030.779	56.2
1030.938	-18.39
1031.097	-43.19
1031.255	58.92
1031.414	62.4
1031.573	65.89
1031.732	-31.76
1031.891	-8.51
1032.049	50.78
1032.208	38.96
1032.367	17.26
1032.525	25.59
1032.684	-3.67
1032.843	15.71
1033.001	-38.35
1033.16	166.06
1033.319	72.67
1033.477	36.83
1033.636	-29.82
1033.794	-25.17
1033.953	22.68
1034.111	25.2
1034.27	-12.96
1034.428	10.87
1034.587	5.05
1034.745	32.57
1034.903	31.6
1035.062	17.26
1035.22	-40.67
1035.378	23.65
1035.537	-12
1035.695	38.96
1035.853	31.6
1036.011	42.64
1036.17	55.43
1036.328	-51.52
1036.486	14.74
1036.644	7.38
1036.802	-58.88
1036.96	-18.58
1037.119	30.82
1037.277	-21.1
1037.435	-25.75
1037.593	-7.73
1037.751	-14.51
1037.909	31.6
1038.067	31.6
