Data from pine_FLMT105791__82__17-21-22-077.txt Node

Date: Mon Mar 20 17:21:22 GMT 2023
User: antho
Spectrometer: FLMT10579
Trigger mode: 0
Integration Time (sec): 1.000000E-1
Scans to average: 10
Electric dark correction enabled: true
Nonlinearity correction enabled: false
Boxcar width: 0
XAxis mode: Wavelengths
Number of Pixels in Spectrum: 3648
>>>>>Begin Spectral Data<<<<<
345.248	-147.67
345.464	-147.67
345.681	-147.67
345.898	-185.06
346.114	-145.92
346.331	-55.25
346.548	44.34
346.764	1.32
346.981	-6.23
347.197	-14.37
347.414	15.27
347.631	-19.41
347.847	59.84
348.064	11.21
348.28	29.22
348.497	-35.1
348.713	-30.84
348.93	32.32
349.146	22.83
349.363	-6.81
349.579	23.22
349.796	-17.47
350.012	22.05
350.229	8.11
350.445	-3.71
350.661	-28.51
350.878	17.4
351.094	12.17
351.311	15.47
351.527	17.79
351.743	12.56
351.96	54.8
352.176	44.53
352.392	27.87
352.609	30
352.825	10.62
353.041	-1.78
353.257	5.01
353.474	-1.78
353.69	38.72
353.906	5.59
354.122	-24.44
354.339	51.7
354.555	11.98
354.771	-26.19
354.987	46.47
355.203	66.81
355.42	-39.36
355.636	11.98
355.852	2.68
356.068	-7.59
356.284	-25.99
356.5	49.18
356.716	24.19
356.932	-3.91
357.148	37.36
357.364	-7.01
357.58	46.66
357.796	62.94
358.012	67.2
358.228	36.78
358.444	-63.39
358.66	51.31
358.876	26.51
359.092	-6.43
359.308	0.55
359.524	5.97
359.74	5.59
359.956	-8.36
360.172	-13.59
360.388	40.65
360.604	2.87
360.819	72.04
361.035	6.17
361.251	40.27
361.467	-13.98
361.683	34.45
361.898	28.06
362.114	48.6
362.33	7.91
362.546	30.97
362.762	-4.1
362.977	14.11
363.193	-15.14
363.409	46.08
363.624	-36.26
363.84	-18.63
364.056	-13.98
364.271	34.07
364.487	21.67
364.703	4.62
364.918	-11.85
365.134	-19.99
365.35	26.32
365.565	103.04
365.781	12.76
365.996	23.8
366.212	52.28
366.427	23.6
366.643	-15.34
366.858	-4.1
367.074	-3.71
367.289	55.57
367.505	89.87
367.72	-16.69
367.936	-36.46
368.151	22.25
368.367	12.76
368.582	15.08
368.798	-20.18
369.013	46.27
369.228	20.5
369.444	6.56
369.659	64.49
369.874	0.94
370.09	75.92
370.305	-27.74
370.52	-5.65
370.736	39.69
370.951	5.01
371.166	53.83
371.381	71.27
371.597	50.54
371.812	-5.26
372.027	-15.92
372.242	24.19
372.458	90.06
372.673	-15.34
372.888	2.1
373.103	25.54
373.318	78.63
373.533	44.34
373.749	31.16
373.964	-35.68
374.179	54.6
374.394	-14.37
374.609	74.17
374.824	-6.23
375.039	62.35
375.254	3.84
375.469	41.24
375.684	25.35
375.899	60.61
376.114	21.09
376.329	28.45
376.544	35.81
376.759	45.3
376.974	-27.16
377.189	13.14
377.404	-4.49
377.619	62.35
377.834	-45.56
378.049	-28.51
378.264	-21.73
378.478	28.06
378.693	-3.13
378.908	25.35
379.123	-9.14
379.338	58.67
379.553	30.58
379.767	41.82
379.982	25.74
380.197	46.27
380.412	-6.81
380.626	51.31
380.841	104.98
381.056	23.22
381.271	84.44
381.485	-5.65
381.7	-44.4
381.915	23.02
382.129	-19.21
382.344	24.77
382.559	20.7
382.773	40.65
382.988	-11.27
383.202	16.24
383.417	-4.1
383.632	116.41
383.846	2.29
384.061	27.29
384.275	24.96
384.49	23.8
384.704	42.2
384.919	28.45
385.133	5.97
385.348	34.84
385.562	-31.61
385.777	40.07
385.991	32.71
386.206	11.4
386.42	5.59
386.634	61.77
386.849	32.52
387.063	28.06
387.277	-25.22
387.492	16.82
387.706	-29.87
387.92	7.14
388.135	17.99
388.349	30.39
388.563	24.38
388.778	28.25
388.992	51.5
389.206	26.12
389.42	98.2
389.635	16.63
389.849	49.95
390.063	51.89
390.277	30.58
390.491	71.65
390.706	53.25
390.92	39.1
391.134	13.53
391.348	27.48
391.562	-14.56
391.776	10.82
391.99	-0.61
392.205	67.97
392.419	-15.73
392.633	16.05
392.847	92.19
393.061	-18.05
393.275	103.62
393.489	0.16
393.703	52.47
393.917	74.17
394.131	6.36
394.345	63.9
394.559	47.44
394.773	9.46
394.986	26.32
395.2	-5.07
395.414	64.49
395.628	-17.86
395.842	31.74
396.056	5.97
396.27	-25.8
396.484	10.82
396.697	24.57
396.911	81.34
397.125	30
397.339	67
397.553	43.95
397.766	88.7
397.98	48.4
398.194	73.01
398.408	17.79
398.621	38.72
398.835	61.19
399.049	51.7
399.262	74.37
399.476	55.77
399.69	64.29
399.903	102.07
400.117	15.08
400.331	27.09
400.544	1.91
400.758	126.29
400.971	44.72
401.185	73.59
401.398	10.82
401.612	62.16
401.826	84.64
402.039	63.32
402.253	16.05
402.466	59.84
402.68	30.97
402.893	70.1
403.106	23.99
403.32	37.55
403.533	47.44
403.747	51.7
403.96	43.37
404.174	57.32
404.387	20.7
404.6	45.11
404.814	39.88
405.027	26.32
405.24	48.21
405.454	67.39
405.667	81.92
405.88	-22.51
406.094	41.43
406.307	58.87
406.52	48.99
406.733	-0.23
406.947	-18.63
407.16	88.7
407.373	89.67
407.586	21.47
407.799	3.26
408.012	58.87
408.226	38.91
408.439	70.69
408.652	-31.81
408.865	38.52
409.078	89.87
409.291	51.7
409.504	-8.94
409.717	64.49
409.93	44.53
410.143	79.4
410.357	0.55
410.57	24.57
410.783	29.8
410.996	61.39
411.209	31.94
411.421	74.95
411.634	34.84
411.847	12.17
412.06	50.34
412.273	41.24
412.486	36.2
412.699	136.17
412.912	28.64
413.125	46.47
413.338	44.53
413.55	82.12
413.763	70.3
413.976	62.55
414.189	24.19
414.402	21.09
414.615	69.91
414.827	3.84
415.04	67.78
415.253	45.5
415.466	65.84
415.678	111.18
415.891	40.65
416.104	40.07
416.316	49.76
416.529	12.76
416.742	86.96
416.954	66.81
417.167	29.03
417.38	36.97
417.592	76.11
417.805	26.12
418.017	19.54
418.23	74.75
418.442	27.29
418.655	52.47
418.868	77.27
419.08	76.3
419.293	81.73
419.505	75.72
419.718	50.54
419.93	99.55
420.142	36.39
420.355	80.57
420.567	83.86
420.78	47.05
420.992	40.85
421.205	110.79
421.417	33.29
421.629	35.23
421.842	32.13
422.054	3.46
422.266	48.4
422.479	92.77
422.691	33.29
422.903	82.7
423.115	60.42
423.328	60.8
423.54	66.04
423.752	60.22
423.964	40.07
424.177	40.65
424.389	50.54
424.601	155.35
424.813	68.36
425.025	80.76
425.238	105.17
425.45	53.64
425.662	69.52
425.874	331.47
426.086	66.42
426.298	101.69
426.51	77.47
426.722	82.12
426.934	71.27
427.146	86.96
427.358	13.53
427.57	85.8
427.782	76.5
427.994	63.9
428.206	56.54
428.418	3.26
428.63	86.57
428.842	90.84
429.054	96.07
429.266	94.32
429.478	53.64
429.69	84.05
429.902	33.49
430.114	99.55
430.325	86.38
430.537	36.78
430.749	63.52
430.961	33.68
431.173	69.14
431.384	96.65
431.596	-13.4
431.808	73.4
432.02	73.59
432.231	100.91
432.443	92.97
432.655	77.85
432.867	58.29
433.078	92.19
433.29	154
433.502	124.16
433.713	113.31
433.925	101.1
434.136	112.73
434.348	61.97
434.56	14.69
434.771	194.3
434.983	54.6
435.194	42.4
435.406	85.6
435.617	118.15
435.829	165.23
436.04	107.5
436.252	106.72
436.463	133.27
436.675	133.85
436.886	96.84
437.098	116.41
437.309	157.29
437.521	89.48
437.732	144.12
437.943	96.65
438.155	84.05
438.366	69.14
438.578	158.65
438.789	127.65
439	146.25
439.211	91.03
439.423	130.75
439.634	139.47
439.845	138.88
440.057	126.87
440.268	131.33
440.479	115.44
440.69	108.27
440.902	128.03
441.113	107.88
441.324	134.43
441.535	132.68
441.746	176.47
441.957	109.82
442.168	82.89
442.38	131.13
442.591	177.25
442.802	107.69
443.013	114.08
443.224	144.89
443.435	87.74
443.646	110.4
443.857	128.03
444.068	108.85
444.279	124.16
444.49	187.71
444.701	131.72
444.912	222.39
445.123	169.5
445.334	147.6
445.545	167.56
445.756	151.28
445.967	137.72
446.178	145.28
446.388	166.59
446.599	191.58
446.81	182.28
447.021	146.05
447.232	184.42
447.443	220.84
447.653	129
447.864	177.25
448.075	166.4
448.286	210.18
448.496	158.65
448.707	187.32
448.918	149.73
449.129	270.44
449.339	154.97
449.55	183.45
449.761	153.8
449.971	226.26
450.182	163.68
450.393	204.56
450.603	178.02
450.814	199.33
451.024	187.71
451.235	209.6
451.446	228.78
451.656	235.18
451.867	149.35
452.077	197.01
452.288	254.16
452.498	246.22
452.709	167.95
452.919	203.21
453.13	178.22
453.34	218.13
453.55	146.83
453.761	210.57
453.971	212.12
454.182	217.35
454.392	191.78
454.602	242.54
454.813	199.53
455.023	257.26
455.233	160.2
455.444	210.38
455.654	143.15
455.864	216
456.075	193.71
456.285	181.51
456.495	185.77
456.705	197.59
456.916	238.28
457.126	253
457.336	192.55
457.546	144.31
457.756	212.9
457.967	258.23
458.177	197.4
458.387	222.97
458.597	179.96
458.807	224.33
459.017	217.55
459.227	207.08
459.437	224.33
459.647	249.9
459.857	249.32
460.068	203.4
460.278	248.16
460.488	235.95
460.698	305.31
460.908	241.76
461.117	185.97
461.327	185.58
461.537	242.73
461.747	223.75
461.957	236.34
462.167	303.57
462.377	255.91
462.587	226.85
462.797	250.29
463.007	237.89
463.216	271.6
463.426	282.26
463.636	256.49
463.846	220.84
464.056	241.76
464.265	277.99
464.475	211.54
464.685	261.91
464.895	254.36
465.104	225.3
465.314	270.44
465.524	223.36
465.733	219.68
465.943	325.85
466.153	283.03
466.362	300.47
466.572	248.74
466.782	254.16
466.991	240.6
467.201	305.12
467.41	208.25
467.62	280.32
467.829	255.52
468.039	269.47
468.249	256.88
468.458	261.91
468.668	255.13
468.877	292.72
469.086	307.25
469.296	310.35
469.505	246.41
469.715	334.18
469.924	296.01
470.134	321.98
470.343	317.13
470.552	281.29
470.762	289.81
470.971	259.78
471.18	284.78
471.39	289.62
471.599	226.46
471.808	327.59
472.018	272.57
472.227	314.81
472.436	330.5
472.645	296.01
472.855	262.11
473.064	352.01
473.273	320.04
473.482	336.89
473.691	340.58
473.901	329.53
474.11	295.04
474.319	397.34
474.528	315.78
474.737	388.24
474.946	335.54
475.155	322.75
475.364	338.25
475.573	335.15
475.783	345.61
475.992	357.43
476.201	382.42
476.41	338.44
476.619	306.48
476.828	317.71
477.037	324.88
477.245	349.68
477.454	382.04
477.663	329.53
477.872	321.59
478.081	414.59
478.29	330.31
478.499	454.3
478.708	361.5
478.917	437.26
479.125	379.52
479.334	359.37
479.543	337.28
479.752	381.26
479.961	362.28
480.169	429.31
480.378	370.02
480.587	515.92
480.796	427.37
481.004	396.57
481.213	451.98
481.422	437.45
481.63	389.79
481.839	427.18
482.048	483.17
482.256	428.15
482.465	413.62
482.674	437.45
482.882	471.16
483.091	498.09
483.299	456.82
483.508	476.97
483.716	437.45
483.925	447.72
484.134	418.46
484.342	419.43
484.551	480.27
484.759	475.62
484.967	482.01
485.176	469.03
485.384	481.24
485.593	496.54
485.801	477.75
486.01	464.19
486.218	440.36
486.426	359.95
486.635	397.92
486.843	416.52
487.051	410.71
487.26	443.26
487.468	448.69
487.676	462.64
487.885	414.97
488.093	442.1
488.301	485.3
488.509	464.38
488.717	525.02
488.926	502.35
489.134	469.22
489.342	492.28
489.55	462.44
489.758	525.41
489.967	464.77
490.175	582.95
490.383	495.38
490.591	572.68
490.799	460.7
491.007	567.26
491.215	498.67
491.423	512.43
491.631	502.94
491.839	538.59
492.047	558.35
492.255	490.15
492.463	461.47
492.671	516.5
492.879	582.57
493.087	532.97
493.295	532
493.503	560.67
493.711	558.93
493.919	581.02
494.127	565.32
494.334	599.81
494.542	491.7
494.75	545.95
494.958	552.34
495.166	624.8
495.374	587.99
495.581	582.18
495.789	593.22
495.997	636.43
496.205	550.98
496.412	567.26
496.62	606.98
496.828	612.98
497.035	569.2
497.243	603.68
497.451	574.82
497.658	600
497.866	574.23
498.074	646.89
498.281	568.03
498.489	676.73
498.696	610.66
498.904	575.59
499.112	587.99
499.319	673.43
499.527	594.97
499.734	659.29
499.942	585.67
500.149	597.48
500.357	624.03
500.564	575.4
500.771	596.52
500.979	607.56
501.186	574.23
501.394	628.1
501.601	625.38
501.808	626.35
502.016	634.1
502.223	606.2
502.43	578.5
502.638	602.52
502.845	589.54
503.052	672.08
503.26	591.09
503.467	698.81
503.674	642.43
503.881	652.9
504.089	704.05
504.296	698.23
504.503	609.69
504.71	650.38
504.917	600.58
505.125	663.16
505.332	660.45
505.539	670.91
505.746	709.86
505.953	686.8
506.16	683.12
506.367	748.41
506.574	744.93
506.781	732.91
506.988	648.44
507.195	717.8
507.402	697.46
507.609	716.64
507.816	670.91
508.023	666.46
508.23	695.71
508.437	652.31
508.644	717.03
508.851	747.06
509.058	732.14
509.265	715.86
509.472	758.68
509.679	805.96
509.885	723.03
510.092	721.29
510.299	718.19
510.506	742.41
510.713	763.91
510.92	734.85
511.126	747.44
511.333	799.56
511.54	755.19
511.746	802.08
511.953	801.5
512.16	808.67
512.367	748.22
512.573	743.18
512.78	766.43
512.987	741.63
513.193	753.45
513.4	652.7
513.606	752.09
513.813	793.56
514.02	731.56
514.226	824.36
514.433	811.96
514.639	756.16
514.846	759.65
515.052	749.77
515.259	770.31
515.465	782.32
515.672	774.96
515.878	860.98
516.085	786
516.291	839.28
516.497	783.48
516.704	785.42
516.91	747.83
517.117	742.21
517.323	681.96
517.529	748.61
517.736	712.76
517.942	755.78
518.148	762.94
518.354	771.28
518.561	774.38
518.767	790.26
518.973	813.9
519.179	774.38
519.386	778.83
519.592	775.15
519.798	770.89
520.004	855.75
520.21	825.33
520.417	890.82
520.623	909.61
520.829	871.83
521.035	880.36
521.241	860.01
521.447	883.46
521.653	1021.98
521.859	891.59
522.065	912.52
522.271	979.94
522.477	928.21
522.683	984.2
522.889	947.78
523.095	954.75
523.301	961.54
523.507	894.69
523.713	921.04
523.919	904.96
524.125	989.24
524.331	917.55
524.537	1022.76
524.742	999.12
524.948	998.35
525.154	1024.12
525.36	1099.68
525.566	993.5
525.772	1044.65
525.977	999.32
526.183	1065.38
526.389	1017.72
526.595	981.88
526.8	976.65
527.006	929.76
527.212	919.1
527.417	892.37
527.623	884.81
527.829	1021.21
528.034	961.34
528.24	1005.9
528.446	960.57
528.651	1022.95
528.857	1018.3
529.062	1095.8
529.268	1041.36
529.473	1074.3
529.679	1074.68
529.884	1136.3
530.09	1098.32
530.295	1114.01
530.501	1102
530.706	1129.71
530.912	1044.07
531.117	1042.72
531.323	1111.3
531.528	1103.16
531.733	1133.39
531.939	1062.67
532.144	1133
532.35	1120.8
532.555	1155.09
532.76	1116.92
532.966	1161.48
533.171	1129.13
533.376	1087.66
533.581	1065.19
533.787	1075.07
533.992	1142.11
534.197	1165.36
534.402	1102
534.607	1122.15
534.813	1235.49
535.018	1119.63
535.223	1118.28
535.428	1139.78
535.633	1204.3
535.838	1179.69
536.043	1163.81
536.249	1219.8
536.454	1156.83
536.659	1212.83
536.864	1159.16
537.069	1159.93
537.274	1156.44
537.479	1169.81
537.684	1184.15
537.889	1158.38
538.094	1255.26
538.299	1185.51
538.504	1214.57
538.708	1192.48
538.913	1225.42
539.118	1175.43
539.323	1227.94
539.528	1161.09
539.733	1167.49
539.938	1202.75
540.142	1212.24
540.347	1170.78
540.552	1152.76
540.757	1203.91
540.962	1150.44
541.166	1116.53
541.371	1149.08
541.576	1170.2
541.781	1098.71
541.985	1183.96
542.19	1209.92
542.395	1262.04
542.599	1269.98
542.804	1225.81
543.008	1237.24
543.213	1180.66
543.418	1177.95
543.622	1206.24
543.827	1152.18
544.031	1269.79
544.236	1246.73
544.44	1228.33
544.645	1318.61
544.849	1228.52
545.054	1238.4
545.258	1316.48
545.463	1299.04
545.667	1224.64
545.872	1266.11
546.076	1263.59
546.281	1254.29
546.485	1187.25
546.689	1270.76
546.894	1318.42
547.098	1232.2
547.302	1199.26
547.507	1262.81
547.711	1257.19
547.915	1282.77
548.119	1194.61
548.324	1226.19
548.528	1317.45
548.732	1257.58
548.936	1290.91
549.141	1309.31
549.345	1252.35
549.549	1272.89
549.753	1260.29
549.957	1339.92
550.161	1359.49
550.366	1287.61
550.57	1284.71
550.774	1289.74
550.978	1294.78
551.182	1263.78
551.386	1286.26
551.59	1274.44
551.794	1259.13
551.998	1280.83
552.202	1265.33
552.406	1263.39
552.61	1257.77
552.814	1290.71
553.018	1364.92
553.222	1292.84
553.426	1299.24
553.63	1345.74
553.833	1287.81
554.037	1244.02
554.241	1306.02
554.445	1306.99
554.649	1276.18
554.853	1256.03
555.056	1328.88
555.26	1319
555.464	1304.86
555.668	1320.16
555.871	1362.01
556.075	1296.33
556.279	1282.19
556.483	1221.35
556.686	1303.69
556.89	1301.17
557.094	1264.94
557.297	1245.57
557.501	1348.84
557.704	1219.99
557.908	1320.55
558.112	1261.46
558.315	1358.14
558.519	1261.84
558.722	1260.29
558.926	1244.41
559.129	1190.35
559.333	1200.43
559.536	1229.68
559.74	1206.43
559.943	1187.64
560.147	1194.42
560.35	1215.15
560.553	1223.68
560.757	1162.45
560.96	1239.17
561.164	1188.41
561.367	1300.79
561.57	1209.53
561.774	1232.98
561.977	1193.84
562.18	1207.4
562.384	1330.82
562.587	1213.79
562.79	1173.11
562.993	1197.91
563.197	1244.99
563.4	1295.56
563.603	1269.21
563.806	1325.01
564.009	1218.64
564.212	1224.64
564.416	1167.88
564.619	1232.98
564.822	1180.47
565.025	1229.1
565.228	1190.93
565.431	1183.38
565.634	1138.04
565.837	1192.29
566.04	1166.91
566.243	1177.56
566.446	1093.48
566.649	1203.33
566.852	1128.93
567.055	1175.43
567.258	1218.44
567.461	1218.25
567.664	1219.99
567.867	1121.38
568.07	1202.36
568.273	1185.51
568.475	1240.53
568.678	1150.44
568.881	1144.05
569.084	1148.89
569.287	1074.88
569.489	1132.23
569.692	1170.78
569.895	1168.07
570.098	1068.68
570.3	1072.75
570.503	1053.37
570.706	1058.22
570.909	1102.39
571.111	1050.85
571.314	1046.78
571.516	1057.63
571.719	1100.06
571.922	1053.76
572.124	1038.84
572.327	1077.4
572.529	999.7
572.732	1056.67
572.935	1101.42
573.137	1119.05
573.34	1052.79
573.542	1083.6
573.745	1101.61
573.947	1092.9
574.15	1014.23
574.352	1043.68
574.554	1117.89
574.757	1007.45
574.959	1035.35
575.162	1013.65
575.364	1034.38
575.566	1131.26
575.769	996.8
575.971	1046.4
576.173	947.39
576.376	1027.6
576.578	1051.43
576.78	1113.05
576.982	950.69
577.185	1027.22
577.387	966.77
577.589	1006.29
577.791	1038.07
577.993	1030.7
578.196	1002.42
578.398	1043.3
578.6	1067.9
578.802	965.41
579.004	981.68
579.206	952.24
579.408	1018.88
579.61	999.7
579.812	1034.77
580.014	1001.45
580.216	978.58
580.418	994.28
580.62	963.47
580.822	943.71
581.024	968.7
581.226	1015.01
581.428	977.81
581.63	1071.2
581.832	967.74
582.034	1012.68
582.236	1028.77
582.438	1028.38
582.64	1085.34
582.841	1085.53
583.043	1073.71
583.245	1027.8
583.447	1014.43
583.649	1032.83
583.85	1045.82
584.052	1090.57
584.254	961.34
584.456	1060.93
584.657	982.46
584.859	1012.3
585.061	997.77
585.262	1001.25
585.464	969.48
585.666	1029.15
585.867	987.3
586.069	1067.32
586.27	1012.1
586.472	1029.93
586.674	978.58
586.875	996.02
587.077	980.13
587.278	1003
587.48	972.19
587.681	1089.41
587.883	988.66
588.084	899.92
588.285	924.34
588.487	947.2
588.688	948.75
588.89	913.68
589.091	878.42
589.292	891.79
589.494	871.44
589.695	885.59
589.896	803.44
590.098	813.32
590.299	878.03
590.5	824.75
590.702	856.72
590.903	848.97
591.104	934.6
591.305	953.01
591.507	958.05
591.708	937.7
591.909	915.04
592.11	986.92
592.311	931.12
592.512	903.02
592.714	862.92
592.915	877.64
593.116	884.62
593.317	919.3
593.518	908.06
593.719	903.22
593.92	963.67
594.121	984.01
594.322	899.34
594.523	895.85
594.724	848
594.925	908.64
595.126	907.87
595.327	912.13
595.528	904.96
595.729	919.3
595.929	900.7
596.13	878.03
596.331	900.5
596.532	931.31
596.733	942.74
596.934	930.73
597.135	947.78
597.335	917.17
597.536	853.04
597.737	905.35
597.938	901.86
598.138	903.6
598.339	910
598.54	908.64
598.74	906.7
598.941	930.34
599.142	962.5
599.342	916.39
599.543	876.09
599.744	885.2
599.944	901.47
600.145	920.07
600.345	899.54
600.546	977.42
600.746	972
600.947	984.2
601.147	920.65
601.348	996.22
601.548	859.62
601.749	914.45
601.949	896.05
602.15	886.36
602.35	893.34
602.551	941.77
602.751	860.98
602.951	887.91
603.152	852.84
603.352	925.11
603.552	907.87
603.753	959.79
603.953	937.7
604.153	930.54
604.354	915.81
604.554	936.35
604.754	922.59
604.954	859.04
605.155	938.48
605.355	887.91
605.555	930.54
605.755	957.66
605.955	881.32
606.155	949.33
606.356	885.97
606.556	958.63
606.756	894.11
606.956	871.44
607.156	928.6
607.356	862.92
607.556	903.41
607.756	891.01
607.956	949.14
608.156	901.28
608.356	866.6
608.556	921.62
608.756	884.42
608.956	850.32
609.156	897.21
609.356	878.22
609.556	870.86
609.755	877.84
609.955	867.76
610.155	894.89
610.355	866.02
610.555	859.62
610.755	873.38
610.954	826.3
611.154	869.31
611.354	911.94
611.554	835.6
611.753	857.3
611.953	778.25
612.153	860.21
612.352	859.24
612.552	821.65
612.752	782.71
612.951	848.58
613.151	846.84
613.351	836.96
613.55	842.38
613.75	830.37
613.949	837.73
614.149	853.23
614.348	850.52
614.548	818.74
614.747	753.06
614.947	802.86
615.146	758.1
615.346	886.75
615.545	833.08
615.745	819.71
615.944	827.27
616.144	819.13
616.343	861.37
616.542	798.4
616.742	807.12
616.941	790.84
617.14	717.22
617.34	795.3
617.539	790.46
617.738	770.31
617.938	854.39
618.137	761.98
618.336	768.37
618.535	809.83
618.734	801.31
618.934	822.62
619.133	815.06
619.332	828.43
619.531	754.23
619.73	821.84
619.929	822.62
620.128	818.74
620.328	845.67
620.527	782.32
620.726	786.78
620.925	808.86
621.124	803.24
621.323	787.36
621.522	732.14
621.721	740.66
621.92	732.72
622.119	816.81
622.318	762.75
622.517	775.15
622.715	771.08
622.914	708.31
623.113	767.01
623.312	706.76
623.511	795.69
623.71	760.23
623.909	754.61
624.107	806.15
624.306	716.06
624.505	732.91
624.704	755
624.902	757.91
625.101	804.21
625.3	743.96
625.499	730.01
625.697	713.15
625.896	726.13
626.095	769.73
626.293	707.92
626.492	737.95
626.69	765.66
626.889	722.06
627.088	785.81
627.286	719.35
627.485	701.33
627.683	687
627.882	727.88
628.08	663.16
628.279	684.09
628.477	797.04
628.676	682.73
628.874	711.41
629.073	709.47
629.271	667.23
629.469	733.88
629.668	667.43
629.866	699.78
630.065	671.5
630.263	726.52
630.461	653.09
630.66	677.11
630.858	726.33
631.056	747.25
631.254	783.68
631.453	671.3
631.651	734.46
631.849	715.09
632.047	731.17
632.245	698.62
632.444	746.09
632.642	710.83
632.84	713.15
633.038	712.38
633.236	681.38
633.434	693.97
633.632	671.88
633.83	704.82
634.028	747.64
634.227	714.12
634.425	761.39
634.623	700.75
634.821	715.48
635.019	715.48
635.216	699.59
635.414	714.89
635.612	713.73
635.81	712.18
636.008	747.83
636.206	681.18
636.404	740.66
636.602	685.64
636.8	717.22
636.997	699.59
637.195	737.56
637.393	719.93
637.591	772.63
637.789	715.09
637.986	713.54
638.184	683.31
638.382	765.08
638.58	728.46
638.777	789.68
638.975	716.83
639.173	740.28
639.37	736.01
639.568	725.74
639.765	745.31
639.963	710.83
640.161	741.05
640.358	769.14
640.556	678.08
640.753	665.88
640.951	654.25
641.148	694.36
641.346	698.23
641.543	700.17
641.741	693.2
641.938	663.16
642.136	694.36
642.333	637.2
642.531	758.49
642.728	772.24
642.925	691.45
643.123	697.26
643.32	682.15
643.517	674.01
643.715	709.66
643.912	686.61
644.109	683.9
644.306	675.37
644.504	637.2
644.701	708.5
644.898	725.94
645.095	654.06
645.293	682.54
645.49	698.62
645.687	681.38
645.884	727.49
646.081	629.65
646.278	649.21
646.475	671.88
646.672	675.18
646.87	670.72
647.067	673.82
647.264	648.63
647.461	606.78
647.658	579.08
647.855	644.37
648.052	626.16
648.249	535.29
648.446	619.38
648.642	592.25
648.839	603.49
649.036	585.67
649.233	554.28
649.43	577.53
649.627	576.95
649.824	600.78
650.021	610.08
650.217	592.06
650.414	580.43
650.611	618.8
650.808	600.39
651.004	593.8
651.201	633.33
651.398	673.82
651.595	615.12
651.791	611.82
651.988	642.24
652.185	578.5
652.381	638.56
652.578	551.76
652.775	604.27
652.971	617.44
653.168	585.47
653.364	632.36
653.561	565.71
653.757	596.32
653.954	596.52
654.15	573.46
654.347	652.12
654.543	587.8
654.74	543.04
654.936	548.85
655.133	565.9
655.329	576.75
655.525	597.68
655.722	622.87
655.918	542.07
656.115	588.38
656.311	500.03
656.507	471.35
656.704	453.34
656.9	486.85
657.096	492.28
657.292	470.58
657.489	547.11
657.685	526.77
657.881	511.27
658.077	534.32
658.273	528.7
658.47	606.4
658.666	535.1
658.862	567.07
659.058	556.22
659.254	596.52
659.45	529.48
659.646	573.46
659.842	557.57
660.038	592.45
660.234	518.63
660.43	578.11
660.626	626.16
660.822	600.78
661.018	613.57
661.214	571.13
661.41	552.92
661.606	611.63
661.802	562.42
661.998	549.43
662.194	514.17
662.39	568.81
662.586	568.03
662.781	582.18
662.977	601.75
663.173	593.22
663.369	548.85
663.564	588.38
663.76	582.76
663.956	546.14
664.152	575.98
664.347	515.14
664.543	570.94
664.739	552.53
664.934	513.79
665.13	495.19
665.326	567.45
665.521	560.67
665.717	481.82
665.912	479.3
666.108	449.66
666.304	542.85
666.499	507
666.695	468.64
666.89	508.75
667.086	546.53
667.281	569.97
667.477	587.02
667.672	553.7
667.867	550.4
668.063	516.11
668.258	506.42
668.454	518.82
668.649	582.95
668.844	492.09
669.04	529.48
669.235	522.5
669.43	493.83
669.626	462.44
669.821	515.34
670.016	466.7
670.211	522.89
670.407	468.64
670.602	514.75
670.797	512.04
670.992	548.66
671.187	475.81
671.382	536.26
671.578	510.1
671.773	557.18
671.968	461.67
672.163	536.84
672.358	538.59
672.553	480.07
672.748	489.95
672.943	596.52
673.138	511.07
673.333	530.25
673.528	475.04
673.723	536.45
673.918	496.74
674.113	482.2
674.308	566.87
674.503	515.72
674.698	514.37
674.892	526.57
675.087	551.37
675.282	507
675.477	505.84
675.672	525.22
675.867	479.88
676.061	479.3
676.256	462.44
676.451	487.44
676.646	491.7
676.84	459.73
677.035	452.17
677.23	474.07
677.424	506.42
677.619	549.05
677.814	511.65
678.008	521.34
678.203	479.88
678.397	463.99
678.592	514.75
678.787	530.84
678.981	453.72
679.176	510.3
679.37	493.25
679.565	482.01
679.759	491.89
679.954	511.65
680.148	537.81
680.342	538.39
680.537	516.5
680.731	494.6
680.926	497.12
681.12	502.94
681.314	476.97
681.509	475.23
681.703	481.82
681.897	514.17
682.092	474.65
682.286	440.36
682.48	548.08
682.674	519.99
682.869	459.54
683.063	475.23
683.257	547.69
683.451	458.18
683.645	499.45
683.839	476.2
684.034	485.3
684.228	534.13
684.422	440.16
684.616	445.97
684.81	509.33
685.004	503.9
685.198	487.63
685.392	515.72
685.586	450.82
685.78	511.27
685.974	499.64
686.168	505.26
686.362	545.37
686.556	451.79
686.75	427.57
686.944	440.55
687.138	454.3
687.331	350.65
687.525	391.14
687.719	334.96
687.913	405.09
688.107	407.03
688.301	369.25
688.494	426.41
688.688	358.01
688.882	347.36
689.076	350.26
689.269	382.62
689.463	449.27
689.657	378.36
689.85	388.24
690.044	430.47
690.238	378.36
690.431	418.27
690.625	426.6
690.818	437.26
691.012	435.32
691.205	470.19
691.399	425.63
691.593	475.62
691.786	502.74
691.98	516.5
692.173	496.15
692.366	502.94
692.56	508.55
692.753	563.38
692.947	476.78
693.14	525.6
693.333	539.55
693.527	498.48
693.72	530.84
693.914	501.58
694.107	506.23
694.3	486.47
694.493	530.84
694.687	545.37
694.88	535.1
695.073	585.47
695.266	576.95
695.46	538.39
695.653	596.71
695.846	588.18
696.039	490.54
696.232	550.79
696.425	611.43
696.618	598.84
696.812	584.89
697.005	672.08
697.198	700.36
697.391	628.87
697.584	644.95
697.777	710.25
697.97	671.3
698.163	678.86
698.356	673.82
698.549	744.93
698.742	700.75
698.935	650.18
699.127	707.73
699.32	685.06
699.513	682.93
699.706	693.39
699.899	734.27
700.092	674.6
700.285	723.61
700.477	670.53
700.67	719.93
700.863	753.45
701.056	817.58
701.248	778.25
701.441	773.02
701.634	775.15
701.826	852.07
702.019	731.36
702.212	828.24
702.404	756.16
702.597	748.61
702.79	794.72
702.982	785.61
703.175	848.97
703.367	828.43
703.56	832.89
703.752	939.84
703.945	893.92
704.137	890.04
704.33	906.51
704.522	930.73
704.715	931.31
704.907	930.34
705.1	981.88
705.292	977.81
705.484	953.01
705.677	973.94
705.869	1002.22
706.061	1001.83
706.254	1032.45
706.446	1015.2
706.638	968.9
706.831	1052.21
707.023	1038.65
707.215	1106.65
707.407	1045.43
707.599	1067.51
707.792	1124.86
707.984	1063.06
708.176	1114.4
708.368	1096.77
708.56	1105.49
708.752	1105.49
708.944	1083.98
709.136	1166.91
709.329	1138.43
709.521	1252.35
709.713	1210.69
709.905	1195.19
710.097	1215.54
710.289	1155.48
710.481	1217.48
710.672	1197.52
710.864	1212.83
711.056	1274.82
711.248	1247.12
711.44	1261.46
711.632	1251.38
711.824	1248.67
712.016	1336.05
712.207	1328.1
712.399	1288.77
712.591	1399.4
712.783	1330.82
712.975	1378.29
713.166	1270.56
713.358	1356.39
713.55	1413.93
713.741	1420.72
713.933	1408.9
714.125	1390.1
714.316	1342.25
714.508	1436.6
714.7	1432.34
714.891	1402.89
715.083	1461.21
715.274	1452.3
715.466	1436.02
715.657	1483.49
715.849	1388.55
716.04	1462.37
716.232	1374.22
716.423	1454.62
716.615	1371.5
716.806	1356.39
716.998	1327.52
717.189	1293.42
717.381	1225.81
717.572	1187.25
717.763	1245.37
717.955	1225.81
718.146	1228.91
718.337	1193.64
718.528	1160.71
718.72	1081.66
718.911	1157.03
719.102	1139.01
719.293	1182.02
719.485	1149.86
719.676	1133.97
719.867	1101.42
720.058	1111.11
720.249	1115.18
720.44	1133
720.632	1185.89
720.823	1213.79
721.014	1287.22
721.205	1285.67
721.396	1359.1
721.587	1418.97
721.778	1437.57
721.969	1468.96
722.16	1505.38
722.351	1530.76
722.542	1604.39
722.733	1593.73
722.924	1519.72
723.115	1578.43
723.305	1567
723.496	1582.11
723.687	1474.58
723.878	1506.55
724.069	1496.86
724.26	1515.07
724.45	1469.15
724.641	1447.07
724.832	1468.96
725.023	1465.67
725.213	1452.68
725.404	1449
725.595	1479.03
725.785	1429.82
725.976	1512.36
726.167	1521.46
726.357	1474
726.548	1616.79
726.739	1497.44
726.929	1517.78
727.12	1575.71
727.31	1593.73
727.501	1506.93
727.691	1594.12
727.882	1563.9
728.072	1639.07
728.263	1655.73
728.453	1665.23
728.644	1633.06
728.834	1614.08
729.024	1580.17
729.215	1620.86
729.405	1657.86
729.596	1695.84
729.786	1726.84
729.976	1682.47
730.167	1724.51
730.357	1670.65
730.547	1693.32
730.737	1710.56
730.928	1789.8
731.118	1793.68
731.308	1733.23
731.498	1736.52
731.688	1827.39
731.879	1805.5
732.069	1856.45
732.259	1891.72
732.449	1874.28
732.639	1968.63
732.829	2002.35
733.019	1966.31
733.209	2065.51
733.399	2021.72
733.589	2066.48
733.779	2122.08
733.969	2060.86
734.159	2153.47
734.349	2208.69
734.539	2213.72
734.729	2235.04
734.919	2260.22
735.109	2274.75
735.299	2230.77
735.488	2291.8
735.678	2260.42
735.868	2246.66
736.058	2246.85
736.248	2235.62
736.437	2186.99
736.627	2151.14
736.817	2291.8
737.007	2276.3
737.196	2325.9
737.386	2276.89
737.576	2293.55
737.765	2303.43
737.955	2301.68
738.144	2389.65
738.334	2337.92
738.524	2324.35
738.713	2366.98
738.903	2360
739.092	2370.27
739.282	2341.4
739.471	2365.23
739.661	2373.57
739.85	2369.88
740.04	2392.36
740.229	2428.01
740.419	2436.92
740.608	2460.17
740.797	2403.6
740.987	2453.97
741.176	2482.84
741.365	2440.02
741.555	2398.75
741.744	2477.03
741.933	2465.21
742.123	2441.96
742.312	2452.03
742.501	2478.77
742.69	2552.2
742.88	2458.43
743.069	2591.14
743.258	2509.58
743.447	2559.37
743.636	2534.76
743.825	2522.75
744.014	2500.66
744.204	2553.56
744.393	2464.63
744.582	2586.49
744.771	2608.19
744.96	2526.43
745.149	2606.26
745.338	2521.98
745.527	2577.58
745.716	2526.63
745.905	2524.88
746.094	2579.13
746.283	2567.31
746.471	2576.61
746.66	2650.04
746.849	2591.72
747.038	2609.16
747.227	2585.72
747.416	2655.08
747.604	2531.66
747.793	2607.22
747.982	2578.36
748.171	2597.92
748.359	2577.77
748.548	2607.42
748.737	2618.85
748.926	2587.66
749.114	2503.76
749.303	2576.03
749.491	2602.19
749.68	2526.82
749.869	2580.87
750.057	2545.61
750.246	2561.69
750.434	2566.73
750.623	2589.4
750.811	2569.44
751	2558.59
751.188	2544.26
751.377	2597.73
751.565	2571.96
751.754	2534.57
751.942	2506.09
752.131	2570.99
752.319	2515.97
752.507	2471.02
752.696	2565.96
752.884	2626.41
753.072	2568.09
753.261	2578.16
753.449	2538.25
753.637	2514.23
753.825	2632.41
754.014	2539.8
754.202	2536.51
754.39	2604.71
754.578	2585.52
754.766	2509.77
754.955	2488.46
755.143	2614.01
755.331	2513.84
755.519	2518.68
755.707	2481.29
755.895	2516.36
756.083	2572.35
756.271	2474.31
756.459	2494.66
756.647	2528.56
756.835	2519.07
757.023	2490.78
757.211	2522.75
757.399	2444.86
757.587	2468.11
757.775	2451.26
757.963	2433.43
758.151	2421.03
758.339	2403.79
758.526	2416.19
758.714	2446.22
758.902	2362.52
759.09	2337.72
759.278	2166.64
759.465	2013.58
759.653	1719.67
759.841	1591.6
760.028	1322.29
760.216	1180.86
760.404	1088.44
760.591	917.55
760.779	755.97
760.967	660.84
761.154	511.07
761.342	592.45
761.529	576.75
761.717	618.6
761.905	621.32
762.092	660.84
762.28	598.07
762.467	629.84
762.655	585.67
762.842	584.7
763.029	622.87
763.217	620.93
763.404	587.22
763.592	631.39
763.779	598.65
763.966	675.76
764.154	677.31
764.341	737.95
764.528	734.46
764.716	750.35
764.903	796.85
765.09	850.32
765.277	888.11
765.465	1002.42
765.652	1021.79
765.839	1094.45
766.026	1182.41
766.213	1232.2
766.4	1307.37
766.588	1457.33
766.775	1452.68
766.962	1545.88
767.149	1577.46
767.336	1707.66
767.523	1681.5
767.71	1733.23
767.897	1831.85
768.084	1896.95
768.271	1924.85
768.458	1994.6
768.645	2031.41
768.832	1985.68
769.019	1997.89
769.206	2031.99
769.392	2099.99
769.579	2146.11
769.766	2099.22
769.953	2089.53
770.14	2193.38
770.327	2145.91
770.513	2192.61
770.7	2223.22
770.887	2180.4
771.073	2238.72
771.26	2195.51
771.447	2186.99
771.634	2178.85
771.82	2304.78
772.007	2208.88
772.193	2214.5
772.38	2285.99
772.567	2192.41
772.753	2206.75
772.94	2279.6
773.126	2268.94
773.313	2237.94
773.499	2259.84
773.686	2247.63
773.872	2203.84
774.059	2251.31
774.245	2204.04
774.432	2207.33
774.618	2118.01
774.804	2191.64
774.991	2192.41
775.177	2182.72
775.363	2187.57
775.55	2195.9
775.736	2164.32
775.922	2154.82
776.109	2211.98
776.295	2175.36
776.481	2207.33
776.667	2206.17
776.853	2164.9
777.04	2145.33
777.226	2161.99
777.412	2222.83
777.598	2120.34
777.784	2123.44
777.97	2108.71
778.156	2190.86
778.342	2132.54
778.528	2109.88
778.715	2079.65
778.901	2129.25
779.087	2130.22
779.272	2125.37
779.458	2088.37
779.644	2101.35
779.83	2083.72
780.016	2176.72
780.202	2116.66
780.388	2074.81
780.574	2032.18
780.76	2017.65
780.946	2087.01
781.131	2052.14
781.317	2067.25
781.503	2022.11
781.689	2035.28
781.874	2184.86
782.06	2036.44
782.246	2052.53
782.432	2030.63
782.617	2055.24
782.803	2102.13
782.989	1991.88
783.174	2007.77
783.36	1972.31
783.545	2031.02
783.731	2024.82
783.916	1929.11
784.102	1999.44
784.288	1974.45
784.473	2005.25
784.659	1974.64
784.844	2016.68
785.029	1936.47
785.215	1941.9
785.4	1934.34
785.586	1997.7
785.771	1932.98
785.956	1993.82
786.142	1932.02
786.327	1917.1
786.512	1963.01
786.698	1907.8
786.883	1852.97
787.068	1897.14
787.254	1913.61
787.439	1845.6
787.624	1906.05
787.809	1899.47
787.994	1891.52
788.18	1957.01
788.365	1854.13
788.55	1853.55
788.735	1884.74
788.92	1847.54
789.105	1850.06
789.29	1912.45
789.475	1815.96
789.66	1837.85
789.845	1774.69
790.03	1766.75
790.215	1841.15
790.4	1844.83
790.585	1855.1
790.77	1824.1
790.955	1743.89
791.14	1797.17
791.325	1849.87
791.51	1722.77
791.695	1787.87
791.879	1752.8
792.064	1751.25
792.249	1845.41
792.434	1790.97
792.618	1788.64
792.803	1819.06
792.988	1792.9
793.173	1816.54
793.357	1850.06
793.542	1769.46
793.727	1745.05
793.911	1817.51
794.096	1781.67
794.281	1807.82
794.465	1885.52
794.65	1789.8
794.834	1815.77
795.019	1853.16
795.203	1841.15
795.388	1848.12
795.572	1852.77
795.757	1818.48
795.941	1787.67
796.126	1823.32
796.31	1792.32
796.494	1780.7
796.679	1782.25
796.863	1773.14
797.048	1835.92
797.232	1813.44
797.416	1794.45
797.601	1831.07
797.785	1869.05
797.969	1866.53
798.153	1834.56
798.338	1827.78
798.522	1845.02
798.706	1832.82
798.89	1875.25
799.074	1910.9
799.258	1893.46
799.443	1843.09
799.627	1859.55
799.811	1893.07
799.995	1856.45
800.179	1826.23
800.363	1831.46
800.547	1827.39
800.731	1854.13
800.915	1778.37
801.099	1790.77
801.283	1802.4
801.467	1815.77
801.651	1826.81
801.835	1860.91
802.019	1843.67
802.202	1830.49
802.386	1774.5
802.57	1786.12
802.754	1755.9
802.938	1773.72
803.121	1801.04
803.305	1882.61
803.489	1816.54
803.673	1870.98
803.856	1858.78
804.04	1820.61
804.224	1834.37
804.407	1806.08
804.591	1794.07
804.775	1799.49
804.958	1808.79
805.142	1903.92
805.326	1807.44
805.509	1852.77
805.693	1859.94
805.876	1880.87
806.06	1843.28
806.243	1831.07
806.427	1851.8
806.61	1871.76
806.794	1845.02
806.977	1889.39
807.16	1833.01
807.344	1864.98
807.527	1847.35
807.71	1786.51
807.894	1881.83
808.077	1873.31
808.26	1802.4
808.444	1804.92
808.627	1817.9
808.81	1801.04
808.993	1786.32
809.177	1745.44
809.36	1802.4
809.543	1803.17
809.726	1702.42
809.909	1739.62
810.092	1714.44
810.276	1741.17
810.459	1719.67
810.642	1713.27
810.825	1697.97
811.008	1689.83
811.191	1615.43
811.374	1616.01
811.557	1672.2
811.74	1746.41
811.923	1616.4
812.106	1603.81
812.289	1577.07
812.472	1582.3
812.654	1596.83
812.837	1550.91
813.02	1506.16
813.203	1554.21
813.386	1446.29
813.569	1453.65
813.751	1388.75
813.934	1431.76
814.117	1406.57
814.3	1377.12
814.482	1338.95
814.665	1334.11
814.848	1278.51
815.03	1271.34
815.213	1262.62
815.396	1239.76
815.578	1241.31
815.761	1215.54
815.943	1318.22
816.126	1213.79
816.309	1170.98
816.491	1112.08
816.674	1046.59
816.856	1111.11
817.039	1117.7
817.221	1202.36
817.403	1136.1
817.586	1155.67
817.768	1139.59
817.951	1052.21
818.133	1069.26
818.315	1138.43
818.498	1144.05
818.68	1220.19
818.862	1142.5
819.045	1184.73
819.227	1166.91
819.409	1129.51
819.591	1166.13
819.774	1159.93
819.956	1130.87
820.138	1210.89
820.32	1182.21
820.502	1215.93
820.684	1273.08
820.866	1252.54
821.048	1314.93
821.231	1311.64
821.413	1310.28
821.595	1268.62
821.777	1281.41
821.959	1301.76
822.141	1367.82
822.323	1226.78
822.505	1177.18
822.686	1166.13
822.868	1094.45
823.05	1021.4
823.232	1025.08
823.414	960.76
823.596	1027.6
823.778	1021.79
823.96	1046.78
824.141	1033.61
824.323	1076.23
824.505	1139.4
824.687	1165.74
824.868	1184.34
825.05	1266.49
825.232	1259.13
825.413	1329.46
825.595	1276.18
825.777	1191.51
825.958	1262.81
826.14	1260.49
826.321	1257.77
826.503	1233.94
826.685	1275.41
826.866	1294.39
827.048	1278.7
827.229	1257.39
827.411	1203.91
827.592	1192.68
827.773	1182.79
827.955	1159.74
828.136	1156.83
828.318	1128.16
828.499	1152.38
828.68	1100.84
828.862	1149.28
829.043	1177.95
829.224	1115.56
829.406	1080.5
829.587	1133.39
829.768	1125.45
829.949	1154.31
830.131	1120.8
830.312	1240.72
830.493	1127.77
830.674	1168.07
830.855	1162.64
831.036	1160.71
831.218	1183.57
831.399	1180.08
831.58	1159.35
831.761	1144.05
831.942	1151.6
832.123	1156.06
832.304	1095.03
832.485	1116.73
832.666	1148.7
832.847	1185.12
833.028	1131.45
833.209	1124.09
833.389	1139.01
833.57	1086.11
833.751	1119.63
833.932	1177.37
834.113	1133.58
834.294	1130.87
834.475	1157.99
834.655	1167.49
834.836	1197.52
835.017	1165.16
835.198	1112.08
835.378	1154.31
835.559	1197.52
835.74	1148.11
835.92	1171.94
836.101	1121.57
836.281	1154.89
836.462	1164.78
836.643	1203.91
836.823	1206.04
837.004	1197.33
837.184	1258.36
837.365	1188.03
837.545	1204.69
837.726	1181.63
837.906	1244.21
838.087	1183.96
838.267	1166.33
838.448	1153.93
838.628	1204.49
838.808	1203.14
838.989	1240.53
839.169	1124.09
839.349	1209.14
839.53	1204.49
839.71	1227.55
839.89	1153.34
840.07	1248.09
840.251	1174.66
840.431	1198.29
840.611	1190.16
840.791	1160.51
840.971	1203.53
841.151	1173.49
841.332	1167.68
841.512	1207.79
841.692	1135.33
841.872	1170.59
842.052	1177.76
842.232	1214.96
842.412	1140.75
842.592	1186.09
842.772	1205.46
842.952	1179.69
843.132	1126.22
843.312	1132.03
843.492	1117.89
843.672	1223.29
843.851	1096.58
844.031	1171.56
844.211	1142.88
844.391	1125.64
844.571	1159.93
844.751	1172.72
844.93	1129.32
845.11	1132.23
845.29	1127.77
845.47	1181.44
845.649	1148.7
845.829	1190.93
846.009	1122.73
846.188	1156.06
846.368	1117.89
846.547	1181.24
846.727	1169.62
846.907	1068.48
847.086	1151.02
847.266	1138.23
847.445	1128.93
847.625	1122.73
847.804	1095.61
847.984	1133.2
848.163	1101.81
848.343	1133.39
848.522	1135.71
848.701	1096.19
848.881	1090.96
849.06	1106.46
849.239	1131.84
849.419	1120.8
849.598	1045.23
849.777	1076.43
849.957	1064.22
850.136	1014.04
850.315	985.56
850.494	999.7
850.674	994.28
850.853	1063.83
851.032	1043.88
851.211	1102.39
851.39	1038.07
851.569	1007.07
851.748	1002.03
851.927	1046.2
852.107	1000.87
852.286	1000.28
852.465	1006.48
852.644	1035.93
852.823	1058.8
853.002	1038.26
853.181	1052.02
853.359	1054.34
853.538	962.12
853.717	1095.41
853.896	953.98
854.075	935.57
854.254	921.62
854.433	864.27
854.611	917.17
854.79	838.51
854.969	922.59
855.148	923.75
855.327	893.72
855.505	924.92
855.684	894.69
855.863	943.13
856.041	916
856.22	960.76
856.399	919.69
856.577	1009.97
856.756	979.55
856.934	1112.08
857.113	1104.52
857.291	996.02
857.47	961.92
857.648	1008.23
857.827	998.54
858.005	1031.28
858.184	970.84
858.362	1044.07
858.541	1000.67
858.719	1004.93
858.898	984.78
859.076	959.79
859.254	1039.03
859.433	945.84
859.611	921.04
859.789	912.32
859.967	1007.45
860.146	1015.01
860.324	920.85
860.502	962.7
860.68	915.04
860.859	929.37
861.037	944.68
861.215	968.9
861.393	1005.32
861.571	952.62
861.749	937.12
861.927	954.75
862.105	946.04
862.283	932.09
862.461	920.65
862.639	904.38
862.817	907.48
862.995	928.99
863.173	924.53
863.351	902.64
863.529	942.74
863.707	980.33
863.885	934.6
864.063	889.07
864.241	873.77
864.418	984.01
864.596	920.27
864.774	883.07
864.952	921.24
865.129	921.82
865.307	881.52
865.485	865.44
865.663	942.35
865.84	809.25
866.018	885.39
866.196	758.29
866.373	821.07
866.551	762.75
866.728	720.51
866.906	747.64
867.084	774.57
867.261	799.95
867.439	813.12
867.616	833.08
867.794	829.79
867.971	857.3
868.149	832.31
868.326	884.81
868.503	869.7
868.681	854.78
868.858	819.52
869.035	792.78
869.213	826.11
869.39	814.87
869.567	948.94
869.745	806.15
869.922	820.1
870.099	873.38
870.276	862.72
870.454	868.92
870.631	845.67
870.808	825.52
870.985	865.82
871.162	900.12
871.339	855.17
871.517	791.62
871.694	836.96
871.871	821.07
872.048	800.14
872.225	816.81
872.402	824.94
872.579	793.17
872.756	849.55
872.933	806.54
873.11	836.96
873.287	835.79
873.463	807.89
873.64	769.73
873.817	808.47
873.994	761.01
874.171	810.22
874.348	832.69
874.524	742.6
874.701	799.76
874.878	743.57
875.055	797.24
875.231	799.18
875.408	818.55
875.585	722.26
875.762	749.77
875.938	764.11
876.115	715.28
876.291	796.66
876.468	757.91
876.645	714.31
876.821	742.99
876.998	764.88
877.174	762.75
877.351	744.93
877.527	734.85
877.704	782.13
877.88	743.57
878.057	744.54
878.233	762.36
878.409	707.73
878.586	772.24
878.762	733.11
878.938	735.43
879.115	692.23
879.291	741.44
879.467	685.64
879.644	700.36
879.82	764.69
879.996	694.75
880.172	664.91
880.349	697.07
880.525	710.05
880.701	694.16
880.877	674.6
881.053	736.98
881.229	726.52
881.405	768.18
881.581	669.56
881.757	704.63
881.933	731.94
882.109	741.24
882.285	721.68
882.461	685.64
882.637	714.31
882.813	698.43
882.989	710.83
883.165	777.48
883.341	667.81
883.517	733.11
883.693	716.44
883.869	720.9
884.044	672.08
884.22	738.34
884.396	753.45
884.572	745.31
884.747	745.51
884.923	736.01
885.099	753.84
885.275	758.49
885.45	702.88
885.626	677.89
885.801	680.6
885.977	695.13
886.153	660.65
886.328	696.49
886.504	683.31
886.679	759.46
886.855	631.97
887.03	691.26
887.206	735.82
887.381	706.56
887.557	717.8
887.732	716.06
887.908	719.74
888.083	698.04
888.258	680.8
888.434	656.38
888.609	686.41
888.784	715.28
888.96	695.91
889.135	658.51
889.31	651.54
889.485	707.92
889.661	670.72
889.836	741.24
890.011	707.73
890.186	696.68
890.361	699.98
890.537	709.08
890.712	687.96
890.887	682.93
891.062	700.56
891.237	723.23
891.412	666.26
891.587	697.07
891.762	720.71
891.937	731.17
892.112	667.62
892.287	697.26
892.462	672.27
892.637	637.01
892.812	639.72
892.987	625.77
893.161	607.37
893.336	644.76
893.511	630.23
893.686	656.19
893.861	613.18
894.035	659.1
894.21	624.42
894.385	572.49
894.56	623.25
894.734	567.26
894.909	591.67
895.084	571.13
895.258	556.8
895.433	599.03
895.608	534.9
895.782	547.69
895.957	521.92
896.131	544.98
896.306	478.91
896.48	494.41
896.655	481.43
896.829	471.55
897.004	431.83
897.178	450.24
897.353	463.6
897.527	533.16
897.701	489.95
897.876	464.38
898.05	526.96
898.224	458.76
898.399	510.1
898.573	461.28
898.747	419.43
898.921	461.67
899.096	362.66
899.27	399.86
899.444	382.62
899.618	391.92
899.792	409.16
899.967	404.12
900.141	432.61
900.315	392.11
900.489	377.39
900.663	439.39
900.837	448.88
901.011	371.38
901.185	460.12
901.359	407.42
901.533	402.38
901.707	449.46
901.881	408.39
902.055	359.37
902.229	364.6
902.403	443.46
902.576	389.98
902.75	421.56
902.924	529.87
903.098	455.85
903.272	532.77
903.446	511.65
903.619	485.11
903.793	470.58
903.967	494.02
904.14	525.02
904.314	534.32
904.488	534.52
904.661	544.2
904.835	527.15
905.009	546.53
905.182	563
905.356	535.49
905.529	520.18
905.703	487.24
905.876	506.81
906.05	465.35
906.223	458.57
906.397	418.46
906.57	423.89
906.744	378.16
906.917	402.19
907.09	426.21
907.264	404.9
907.437	380.29
907.61	364.41
907.784	362.47
907.957	409.16
908.13	374.48
908.304	423.31
908.477	367.89
908.65	374.09
908.823	340.19
908.996	426.02
909.17	369.44
909.343	378.55
909.516	368.28
909.689	341.35
909.862	331.86
910.035	384.36
910.208	306.48
910.381	337.09
910.554	434.54
910.727	368.47
910.9	348.33
911.073	338.64
911.246	407.42
911.419	378.74
911.592	385.33
911.765	355.49
911.938	355.3
912.11	344.45
912.283	355.11
912.456	398.31
912.629	372.54
912.802	322.36
912.974	316.16
913.147	289.81
913.32	247.58
913.493	303.18
913.665	285.74
913.838	315.97
914.01	278.96
914.183	328.37
914.356	305.12
914.528	332.83
914.701	376.22
914.873	352.39
915.046	296.59
915.218	269.47
915.391	232.27
915.563	268.89
915.736	308.99
915.908	348.13
916.081	292.53
916.253	295.63
916.425	309.38
916.598	337.28
916.77	302.21
916.942	281.87
917.115	238.28
917.287	283.42
917.459	288.07
917.632	266.76
917.804	207.47
917.976	292.91
918.148	277.03
918.32	273.93
918.493	329.92
918.665	350.65
918.837	306.28
919.009	368.67
919.181	335.15
919.353	338.44
919.525	294.46
919.697	311.9
919.869	297.95
920.041	356.27
920.213	433.19
920.385	348.52
920.557	327.4
920.729	331.28
920.901	345.42
921.073	312.09
921.244	314.23
921.416	362.08
921.588	330.5
921.76	289.23
921.932	392.69
922.103	323.33
922.275	299.31
922.447	333.6
922.619	246.22
922.79	321.59
922.962	299.5
923.134	352.2
923.305	269.86
923.477	229.36
923.648	252.81
923.82	284.19
923.991	227.81
924.163	255.52
924.335	290.39
924.506	264.24
924.677	302.99
924.849	247.38
925.02	271.99
925.192	317.33
925.363	288.84
925.535	284.97
925.706	254.16
925.877	312.48
926.049	225.88
926.22	265.21
926.391	285.16
926.562	298.92
926.734	236.73
926.905	281.87
927.076	240.02
927.247	259.2
927.419	206.7
927.59	203.4
927.761	254.94
927.932	192.94
928.103	252.61
928.274	185.97
928.445	183.83
928.616	203.79
928.787	184.03
928.958	232.08
929.129	200.3
929.3	181.12
929.471	154.58
929.642	120.87
929.813	88.9
929.984	168.33
930.155	123.38
930.326	163.3
930.496	131.13
930.667	87.74
930.838	129.78
931.009	84.05
931.18	120.09
931.35	128.42
931.521	119.32
931.692	96.26
931.863	44.92
932.033	113.89
932.204	105.95
932.374	99.17
932.545	41.04
932.716	105.17
932.886	94.9
933.057	23.41
933.227	54.6
933.398	126.29
933.568	55.38
933.739	21.09
933.909	30.77
934.08	80.95
934.25	-17.47
934.421	8.88
934.591	51.7
934.761	17.6
934.932	-16.89
935.102	32.71
935.272	26.7
935.443	24.96
935.613	22.64
935.783	34.84
935.953	-6.62
936.123	168.53
936.294	30.19
936.464	14.69
936.634	23.99
936.804	-14.56
936.974	-9.14
937.144	42.2
937.314	45.11
937.484	3.65
937.655	-6.04
937.825	56.54
937.995	-6.04
938.165	66.81
938.334	24.57
938.504	48.6
938.674	14.5
938.844	20.5
939.014	81.92
939.184	83.67
939.354	86.38
939.524	99.55
939.694	38.91
939.863	45.11
940.033	125.13
940.203	99.94
940.373	68.17
940.542	97.42
940.712	66.04
940.882	79.02
941.051	106.53
941.221	81.73
941.391	100.91
941.56	50.15
941.73	30.97
941.899	157.68
942.069	35.42
942.238	79.02
942.408	41.43
942.577	77.66
942.747	40.65
942.916	23.02
943.086	29.8
943.255	71.85
943.425	84.64
943.594	5.59
943.763	-8.56
943.933	24.19
944.102	-21.54
944.271	44.72
944.441	66.42
944.61	19.73
944.779	30
944.948	134.23
945.117	-1
945.287	21.86
945.456	-3.91
945.625	25.35
945.794	66.23
945.963	18.57
946.132	64.68
946.301	36
946.47	82.89
946.639	-20.76
946.808	33.87
946.977	55.96
947.146	96.07
947.315	30.77
947.484	56.74
947.653	32.9
947.822	33.29
947.991	7.14
948.16	128.23
948.329	104.4
948.498	24.38
948.666	58.09
948.835	45.5
949.004	20.12
949.173	-22.7
949.341	52.28
949.51	65.26
949.679	92.58
949.847	69.52
950.016	108.47
950.185	94.9
950.353	12.56
950.522	42.79
950.69	90.84
950.859	30.77
951.028	69.72
951.196	77.47
951.365	36.39
951.533	71.07
951.701	67.78
951.87	61.19
952.038	31.16
952.207	17.6
952.375	93.35
952.543	13.92
952.712	36.39
952.88	35.42
953.048	101.3
953.217	62.16
953.385	59.45
953.553	79.6
953.721	12.17
953.89	30.97
954.058	3.07
954.226	25.35
954.394	52.47
954.562	0.36
954.73	42.79
954.898	25.35
955.067	71.85
955.235	37.75
955.403	81.34
955.571	120.09
955.739	54.99
955.907	17.21
956.075	13.92
956.243	26.9
956.41	75.34
956.578	0.16
956.746	10.62
956.914	33.49
957.082	71.65
957.25	61.58
957.418	22.83
957.585	55.57
957.753	99.36
957.921	9.66
958.089	37.36
958.256	82.89
958.424	86.77
958.592	52.28
958.759	32.71
958.927	71.65
959.095	27.29
959.262	46.27
959.43	43.95
959.597	16.05
959.765	53.83
959.932	-0.23
960.1	77.47
960.267	41.24
960.435	56.54
960.602	62.35
960.77	26.12
960.937	16.44
961.104	68.75
961.272	-0.23
961.439	45.11
961.606	43.37
961.774	58.87
961.941	16.82
962.108	64.68
962.275	48.99
962.443	66.42
962.61	59.64
962.777	113.7
962.944	60.03
963.111	57.9
963.278	39.88
963.446	73.4
963.613	67
963.78	66.81
963.947	86.19
964.114	54.02
964.281	134.82
964.448	70.49
964.615	40.46
964.782	60.61
964.949	69.33
965.116	100.33
965.282	98.97
965.449	58.67
965.616	32.52
965.783	99.94
965.95	74.95
966.117	25.93
966.283	46.47
966.45	68.55
966.617	79.21
966.784	97.42
966.95	104.4
967.117	111.76
967.284	47.82
967.45	33.87
967.617	113.5
967.784	78.05
967.95	129.2
968.117	47.44
968.283	142.95
968.45	163.68
968.616	65.45
968.783	117.18
968.949	79.4
969.116	114.47
969.282	49.57
969.449	67.59
969.615	60.42
969.781	13.92
969.948	43.37
970.114	22.25
970.28	124.16
970.447	48.99
970.613	95.87
970.779	61.97
970.945	82.5
971.112	61.97
971.278	57.9
971.444	60.8
971.61	94.9
971.776	61.39
971.942	113.31
972.108	100.72
972.275	54.02
972.441	88.51
972.607	139.27
972.773	47.05
972.939	88.51
973.105	77.27
973.271	39.3
973.437	52.67
973.602	37.36
973.768	82.7
973.934	47.82
974.1	69.91
974.266	-23.28
974.432	76.89
974.598	26.12
974.763	93.94
974.929	46.27
975.095	141.4
975.261	33.68
975.426	46.47
975.592	72.62
975.758	136.75
975.923	3.07
976.089	53.44
976.255	86.57
976.42	75.53
976.586	61.97
976.751	85.6
976.917	163.49
977.082	77.66
977.248	26.7
977.413	-3.13
977.579	59.45
977.744	86.38
977.91	7.91
978.075	54.22
978.24	72.43
978.406	38.91
978.571	41.82
978.736	25.74
978.902	48.99
979.067	22.64
979.232	18.37
979.397	59.25
979.563	108.85
979.728	15.27
979.893	34.65
980.058	12.76
980.223	106.53
980.388	67.59
980.554	57.7
980.719	31.55
980.884	48.4
981.049	88.32
981.214	30.97
981.379	64.68
981.544	34.26
981.709	74.56
981.874	52.67
982.039	49.57
982.204	74.75
982.368	33.87
982.533	46.47
982.698	81.92
982.863	87.54
983.028	40.46
983.193	74.17
983.357	51.12
983.522	83.47
983.687	49.57
983.852	45.5
984.016	40.65
984.181	79.79
984.346	59.84
984.51	68.75
984.675	51.5
984.839	71.46
985.004	52.67
985.168	90.84
985.333	72.62
985.498	34.07
985.662	79.21
985.827	49.76
985.991	55.96
986.155	39.88
986.32	103.62
986.484	83.86
986.649	81.54
986.813	13.92
986.977	60.8
987.142	72.04
987.306	8.69
987.47	50.15
987.634	67.59
987.799	77.47
987.963	61.97
988.127	75.72
988.291	129.39
988.455	61.97
988.62	35.81
988.784	95.49
988.948	76.69
989.112	35.62
989.276	49.57
989.44	69.33
989.604	48.21
989.768	48.21
989.932	124.35
990.096	10.04
990.26	2.1
990.424	20.7
990.588	48.6
990.752	104.4
990.915	44.34
991.079	21.86
991.243	43.17
991.407	73.4
991.571	47.05
991.734	67.78
991.898	79.02
992.062	146.44
992.226	11.59
992.389	36.97
992.553	-18.24
992.717	43.17
992.88	48.6
993.044	46.47
993.207	55.96
993.371	68.36
993.535	56.93
993.698	48.21
993.862	81.34
994.025	90.45
994.189	74.95
994.352	54.99
994.515	74.75
994.679	80.57
994.842	40.27
995.006	82.5
995.169	36
995.332	25.74
995.496	77.27
995.659	-6.43
995.822	56.93
995.985	47.05
996.149	77.08
996.312	40.85
996.475	100.72
996.638	17.79
996.801	100.33
996.964	113.12
997.128	54.22
997.291	39.49
997.454	59.06
997.617	6.75
997.78	81.34
997.943	23.6
998.106	42.79
998.269	16.82
998.432	48.79
998.595	58.48
998.758	15.85
998.92	23.41
999.083	-6.43
999.246	30.77
999.409	7.91
999.572	-18.24
999.735	31.16
999.897	49.37
1000.06	33.49
1000.223	27.09
1000.386	57.51
1000.548	61.97
1000.711	56.54
1000.874	75.14
1001.036	18.37
1001.199	85.41
1001.361	27.87
1001.524	43.95
1001.687	93.35
1001.849	27.29
1002.012	49.95
1002.174	54.8
1002.337	64.87
1002.499	17.21
1002.661	81.92
1002.824	10.24
1002.986	26.7
1003.149	38.52
1003.311	16.63
1003.473	78.63
1003.636	-16.11
1003.798	43.17
1003.96	70.1
1004.123	50.54
1004.285	19.34
1004.447	26.12
1004.609	34.65
1004.771	73.4
1004.933	-14.37
1005.096	12.37
1005.258	-2.55
1005.42	7.14
1005.582	49.76
1005.744	43.56
1005.906	-26.77
1006.068	58.67
1006.23	-16.69
1006.392	-12.82
1006.554	-4.49
1006.716	81.73
1006.878	43.95
1007.04	-1.97
1007.202	23.99
1007.363	54.41
1007.525	26.32
1007.687	50.34
1007.849	86.96
1008.011	-10.3
1008.172	-14.37
1008.334	23.8
1008.496	38.14
1008.658	-21.54
1008.819	16.63
1008.981	-18.44
1009.143	17.99
1009.304	10.82
1009.466	45.89
1009.627	76.3
1009.789	96.65
1009.95	29.03
1010.112	9.66
1010.273	22.44
1010.435	1.32
1010.596	11.4
1010.758	28.64
1010.919	22.83
1011.081	-13.59
1011.242	32.52
1011.403	41.04
1011.565	18.37
1011.726	49.18
1011.887	-24.44
1012.049	25.93
1012.21	52.86
1012.371	81.92
1012.532	-45.37
1012.693	27.48
1012.855	9.27
1013.016	15.85
1013.177	42.01
1013.338	12.95
1013.499	83.86
1013.66	14.31
1013.821	47.44
1013.982	33.87
1014.143	11.01
1014.304	24.38
1014.465	60.61
1014.626	64.1
1014.787	13.92
1014.948	122.03
1015.109	-44.79
1015.27	56.54
1015.431	8.11
1015.592	0.16
1015.752	71.07
1015.913	29.22
1016.074	39.88
1016.235	-1
1016.395	19.15
1016.556	-1.19
1016.717	32.32
1016.877	55.96
1017.038	4.81
1017.199	32.71
1017.359	46.85
1017.52	30.97
1017.681	22.64
1017.841	11.01
1018.002	31.74
1018.162	15.85
1018.323	73.59
1018.483	26.51
1018.644	-0.03
1018.804	-29.09
1018.964	-15.53
1019.125	-4.68
1019.285	16.05
1019.446	-12.24
1019.606	-35.88
1019.766	-43.43
1019.926	24.38
1020.087	14.69
1020.247	-22.12
1020.407	25.93
1020.567	48.6
1020.728	5.01
1020.888	-23.09
1021.048	-27.35
1021.208	-12.82
1021.368	-1.78
1021.528	61.97
1021.688	51.7
1021.848	31.16
1022.008	32.71
1022.168	4.23
1022.328	18.95
1022.488	48.21
1022.648	-5.84
1022.808	7.91
1022.968	31.94
1023.128	-9.53
1023.288	13.72
1023.448	37.36
1023.608	22.64
1023.767	47.24
1023.927	6.94
1024.087	-31.23
1024.247	-28.32
1024.406	-16.5
1024.566	-19.79
1024.726	-21.34
1024.885	49.18
1025.045	41.24
1025.205	6.75
1025.364	5.01
1025.524	18.37
1025.683	28.06
1025.843	10.62
1026.003	6.56
1026.162	65.84
1026.321	45.5
1026.481	41.43
1026.64	9.07
1026.8	18.95
1026.959	44.92
1027.119	41.04
1027.278	15.27
1027.437	-36.26
1027.597	5.01
1027.756	15.47
1027.915	34.26
1028.074	43.56
1028.234	-7.01
1028.393	33.1
1028.552	-2.16
1028.711	-64.16
1028.87	37.94
1029.03	-36.46
1029.189	-23.67
1029.348	-56.41
1029.507	3.65
1029.666	2.49
1029.825	2.68
1029.984	-11.66
1030.143	7.91
1030.302	-9.53
1030.461	-53.89
1030.62	18.37
1030.779	12.56
1030.938	-14.95
1031.097	-13.98
1031.255	-9.53
1031.414	76.3
1031.573	30
1031.732	-52.34
1031.891	27.87
1032.049	29.42
1032.208	27.29
1032.367	-22.7
1032.525	-6.04
1032.684	-4.1
1032.843	12.17
1033.001	-23.86
1033.16	165.62
1033.319	53.64
1033.477	13.72
1033.636	-6.23
1033.794	-60.29
1033.953	62.74
1034.111	26.32
1034.27	-24.83
1034.428	19.54
1034.587	-22.31
1034.745	20.12
1034.903	26.51
1035.062	21.47
1035.22	-27.35
1035.378	34.45
1035.537	-26.19
1035.695	40.46
1035.853	9.07
1036.011	57.12
1036.17	27.48
1036.328	-62.81
1036.486	11.21
1036.644	33.29
1036.802	-81.41
1036.96	-3.91
1037.119	9.46
1037.277	-3.91
1037.435	-26.58
1037.593	-10.11
1037.751	-17.28
1037.909	28.84
1038.067	28.84
