Data from pine_FLMT105791__15__17-19-49-080.txt Node

Date: Mon Mar 20 17:19:49 GMT 2023
User: antho
Spectrometer: FLMT10579
Trigger mode: 0
Integration Time (sec): 1.000000E-1
Scans to average: 10
Electric dark correction enabled: true
Nonlinearity correction enabled: false
Boxcar width: 0
XAxis mode: Wavelengths
Number of Pixels in Spectrum: 3648
>>>>>Begin Spectral Data<<<<<
345.248	-166.12
345.464	-166.12
345.681	-166.12
345.898	-187.43
346.114	-185.3
346.331	-25.46
346.548	43.9
346.764	3.6
346.981	-19.65
347.197	-22.17
347.414	23.94
347.631	-28.37
347.847	66.76
348.064	32.28
348.28	1.66
348.497	-68.47
348.713	-8.02
348.93	34.02
349.146	29.18
349.363	-7.64
349.579	23.56
349.796	6.7
350.012	-1.63
350.229	23.75
350.445	-5.7
350.661	-32.82
350.878	30.73
351.094	18.33
351.311	21.04
351.527	28.98
351.743	-23.91
351.96	42.93
352.176	17.74
352.392	28.59
352.609	20.46
352.825	-16.36
353.041	27.43
353.257	-9.57
353.474	7.48
353.69	21.23
353.906	20.65
354.122	-24.69
354.339	57.46
354.555	-8.8
354.771	4.57
354.987	68.12
355.203	55.14
355.42	-26.43
355.636	-9.57
355.852	9.03
356.068	33.05
356.284	-46.97
356.5	63.66
356.716	0.69
356.932	7.09
357.148	37.89
357.364	-15.77
357.58	50.87
357.796	59.79
358.012	56.11
358.228	22.78
358.444	-63.82
358.66	48.94
358.876	26.85
359.092	-14.03
359.308	28.79
359.524	19.29
359.74	11.16
359.956	-23.14
360.172	3.6
360.388	35.18
360.604	0.11
360.819	83.23
361.035	34.41
361.251	48.16
361.467	-17.52
361.683	14.64
361.898	19.68
362.114	55.33
362.33	20.65
362.546	65.41
362.762	20.84
362.977	47.97
363.193	-7.64
363.409	61.53
363.624	-7.06
363.84	0.69
364.056	-4.54
364.271	33.24
364.487	19.1
364.703	19.88
364.918	-28.76
365.134	-9.57
365.35	3.21
365.565	102.61
365.781	18.71
365.996	44.67
366.212	73.74
366.427	27.63
366.643	1.47
366.858	7.48
367.074	-24.49
367.289	91.56
367.505	99.7
367.72	-45.03
367.936	2.63
368.151	47.77
368.367	52.81
368.582	9.99
368.798	9.22
369.013	48.94
369.228	3.02
369.444	5.54
369.659	85.36
369.874	49.71
370.09	74.9
370.305	-30.11
370.52	-2.99
370.736	56.69
370.951	1.86
371.166	60.56
371.381	96.02
371.597	26.08
371.812	-10.93
372.027	-20.62
372.242	3.6
372.458	84.97
372.673	11.54
372.888	20.65
373.103	28.59
373.318	101.64
373.533	90.59
373.749	43.9
373.964	-46.39
374.179	78.19
374.394	-2.21
374.609	76.26
374.824	-21.59
375.039	53.2
375.254	6.7
375.469	69.09
375.684	22.01
375.899	64.82
376.114	15.03
376.329	34.02
376.544	53.39
376.759	80.32
376.974	0.5
377.189	9.61
377.404	10.58
377.619	64.82
377.834	-30.31
378.049	-11.32
378.264	-5.12
378.478	1.08
378.693	-3.76
378.908	61.34
379.123	-9.57
379.338	65.79
379.553	22.39
379.767	37.7
379.982	49.52
380.197	56.69
380.412	33.24
380.626	25.3
380.841	98.73
381.056	39.64
381.271	84.78
381.485	10.77
381.7	1.08
381.915	26.46
382.129	9.8
382.344	26.08
382.559	33.44
382.773	50.29
382.988	-33.02
383.202	21.43
383.417	-13.64
383.632	109.19
383.846	48.36
384.061	43.32
384.275	14.26
384.49	30.34
384.704	42.35
384.919	24.72
385.133	28.21
385.348	32.08
385.562	-25.27
385.777	49.13
385.991	22.39
386.206	8.64
386.42	13.09
386.634	85.56
386.849	47.19
387.063	54.94
387.277	7.09
387.492	6.12
387.706	11.54
387.92	24.91
388.135	57.46
388.349	47
388.563	48.36
388.778	36.15
388.992	62.5
389.206	56.11
389.42	111.52
389.635	22.2
389.849	46.81
390.063	66.96
390.277	71.8
390.491	69.47
390.706	56.3
390.92	58.43
391.134	37.7
391.348	68.31
391.562	-41.93
391.776	21.04
391.99	20.07
392.205	58.24
392.419	-0.27
392.633	47.39
392.847	67.34
393.061	3.79
393.275	84.39
393.489	16.39
393.703	50.49
393.917	72.19
394.131	6.12
394.345	55.14
394.559	78
394.773	29.18
394.986	52.42
395.2	20.07
395.414	71.61
395.628	-0.08
395.842	19.1
396.056	21.81
396.27	-29.72
396.484	35.76
396.697	36.34
396.911	49.91
397.125	59.79
397.339	66.18
397.553	44.87
397.766	96.02
397.98	54.56
398.194	70.44
398.408	44.87
398.621	33.24
398.835	89.43
399.049	30.34
399.262	68.7
399.476	80.52
399.69	89.24
399.903	127.79
400.117	73.16
400.331	58.82
400.544	25.88
400.758	180.1
400.971	24.72
401.185	115.59
401.398	46.81
401.612	112.29
401.826	87.3
402.039	79.55
402.253	28.79
402.466	61.92
402.68	41.96
402.893	62.89
403.106	84.59
403.32	68.31
403.533	73.74
403.747	72.77
403.96	78.97
404.174	79.94
404.387	31.11
404.6	50.29
404.814	100.47
405.027	48.74
405.24	66.76
405.454	43.51
405.667	97.76
405.88	-3.96
406.094	76.06
406.307	99.7
406.52	47.77
406.733	34.41
406.947	-4.73
407.16	124.3
407.373	103.57
407.586	37.31
407.799	30.14
408.012	112.87
408.226	74.51
408.439	126.63
408.652	35.96
408.865	80.71
409.078	108.42
409.291	84.59
409.504	48.16
409.717	71.22
409.93	71.99
410.143	57.85
410.357	21.23
410.57	6.12
410.783	53.2
410.996	88.85
411.209	90.21
411.421	99.12
411.634	71.61
411.847	70.06
412.06	60.76
412.273	111.91
412.486	81.87
412.699	164.02
412.912	87.69
413.125	116.75
413.338	57.66
413.55	83.81
413.763	103.57
413.976	107.26
414.189	69.09
414.402	67.92
414.615	111.91
414.827	47.39
415.04	123.34
415.253	76.45
415.466	119.07
415.678	151.04
415.891	115.2
416.104	79.36
416.316	101.83
416.529	41.57
416.742	126.82
416.954	138.45
417.167	116.56
417.38	81.68
417.592	110.74
417.805	79.94
418.017	75.48
418.23	130.7
418.442	86.91
418.655	87.3
418.868	110.55
419.08	115.97
419.293	143.1
419.505	95.05
419.718	122.56
419.93	127.02
420.142	78.77
420.355	130.12
420.567	138.84
420.78	104.54
420.992	101.64
421.205	164.41
421.417	60.37
421.629	96.41
421.842	81.29
422.054	53.78
422.266	136.32
422.479	139.42
422.691	102.41
422.903	142.13
423.115	105.12
423.328	113.84
423.54	121.79
423.752	123.34
423.964	78.39
424.177	128.37
424.389	114.04
424.601	231.25
424.813	129.54
425.025	124.69
425.238	149.88
425.45	109.19
425.662	107.26
425.874	413.18
426.086	93.89
426.298	142.9
426.51	154.53
426.722	107.06
426.934	112.87
427.146	153.17
427.358	85.94
427.57	173.71
427.782	129.34
427.994	132.83
428.206	111.52
428.418	84.97
428.63	139.03
428.842	148.91
429.054	143.49
429.266	139.8
429.478	91.56
429.69	146
429.902	85.75
430.114	154.92
430.325	138.84
430.537	106.09
430.749	137.87
430.961	59.01
431.173	122.76
431.384	129.15
431.596	53.78
431.808	128.57
432.02	142.9
432.231	176.04
432.443	200.25
432.655	147.75
432.867	112.29
433.078	161.89
433.29	220.98
433.502	195.22
433.713	188.82
433.925	174.87
434.136	192.31
434.348	136.32
434.56	110.36
434.771	261.48
434.983	111.91
435.194	126.24
435.406	149.3
435.617	216.72
435.829	216.72
436.04	183.2
436.252	214.98
436.463	245.01
436.675	204.52
436.886	197.54
437.098	226.41
437.309	240.55
437.521	225.05
437.732	193.09
437.943	191.15
438.155	200.45
438.366	148.33
438.578	265.93
438.789	225.44
439	238.23
439.211	184.37
439.423	215.75
439.634	223.31
439.845	238.42
440.057	226.99
440.268	251.4
440.479	199.48
440.69	206.45
440.902	218.47
441.113	198.12
441.324	188.44
441.535	260.51
441.746	276.4
441.957	188.82
442.168	201.22
442.38	250.43
442.591	261.87
442.802	238.23
443.013	243.65
443.224	234.55
443.435	249.47
443.646	199.29
443.857	237.45
444.068	227.18
444.279	228.93
444.49	337.04
444.701	232.61
444.912	375.4
445.123	279.3
445.334	275.23
445.545	274.46
445.756	269.62
445.967	226.6
446.178	271.17
446.388	288.41
446.599	276.78
446.81	311.66
447.021	257.02
447.232	323.09
447.443	331.61
447.653	256.44
447.864	310.69
448.075	281.43
448.286	315.73
448.496	308.36
448.707	299.84
448.918	267.29
449.129	368.62
449.339	257.41
449.55	285.7
449.761	285.31
449.971	315.15
450.182	275.43
450.393	344.6
450.603	293.64
450.814	330.84
451.024	331.61
451.235	356.41
451.446	383.93
451.656	355.45
451.867	278.53
452.077	323.09
452.288	358.35
452.498	357
452.709	266.13
452.919	350.41
453.13	291.51
453.34	337.04
453.55	261.67
453.761	329.68
453.971	343.63
454.182	347.89
454.392	332.2
454.602	381.8
454.813	330.45
455.023	362.42
455.233	286.67
455.444	334.91
455.654	257.22
455.864	324.83
456.075	316.31
456.285	312.63
456.495	315.53
456.705	352.73
456.916	413.76
457.126	407.18
457.336	358.16
457.546	257.22
457.756	329.1
457.967	393.03
458.177	351.96
458.387	359.9
458.597	306.23
458.807	351.76
459.017	338.2
459.227	329.68
459.437	357.38
459.647	382.18
459.857	366.49
460.068	333.55
460.278	364.16
460.488	371.14
460.698	426.74
460.908	348.08
461.117	314.37
461.327	314.76
461.537	383.35
461.747	383.15
461.957	398.46
462.167	453.48
462.377	411.05
462.587	358.16
462.797	404.46
463.007	396.71
463.216	403.88
463.426	449.8
463.636	428.29
463.846	352.93
464.056	378.5
464.265	407.56
464.475	345.76
464.685	398.65
464.895	408.34
465.104	400.39
465.314	439.73
465.524	408.73
465.733	368.81
465.943	482.93
466.153	452.71
466.362	454.45
466.572	413.57
466.782	409.31
466.991	402.33
467.201	452.71
467.41	378.5
467.62	440.69
467.829	406.59
468.039	439.53
468.249	407.56
468.458	410.66
468.668	442.24
468.877	449.41
469.086	491.26
469.296	484.48
469.505	444.96
469.715	493.39
469.924	447.28
470.134	484.87
470.343	509.86
470.552	422.29
470.762	455.23
470.971	423.64
471.18	452.32
471.39	447.28
471.599	424.61
471.808	469.76
472.018	459.49
472.227	497.66
472.436	514.32
472.645	471.5
472.855	447.09
473.064	540.86
473.273	500.76
473.482	510.06
473.691	517.81
473.901	551.52
474.11	483.12
474.319	566.05
474.528	493.39
474.737	573.6
474.946	550.55
475.155	559.07
475.364	571.09
475.573	542.8
475.783	531.17
475.992	549.39
476.201	568.37
476.41	511.22
476.619	485.06
476.828	516.45
477.037	517.42
477.245	528.27
477.454	572.25
477.663	544.35
477.872	564.89
478.081	629.99
478.29	551.32
478.499	632.12
478.708	580.77
478.917	636.57
479.125	568.57
479.334	590.85
479.543	573.99
479.752	598.99
479.961	604.8
480.169	663.5
480.378	606.54
480.587	720.47
480.796	654.98
481.004	618.36
481.213	637.54
481.422	662.34
481.63	640.64
481.839	657.5
482.048	693.73
482.256	661.37
482.465	707.48
482.674	669.32
482.882	703.8
483.091	724.92
483.299	680.17
483.508	702.64
483.716	679.78
483.925	697.99
484.134	661.37
484.342	673.38
484.551	703.03
484.759	719.69
484.967	716.78
485.176	754.76
485.384	731.32
485.593	755.53
485.801	706.52
486.01	677.07
486.218	642.77
486.426	590.85
486.635	609.25
486.843	628.05
487.051	656.92
487.26	672.8
487.468	697.41
487.676	701.09
487.885	687.53
488.093	698.38
488.301	746.23
488.509	742.94
488.717	783.05
488.926	736.55
489.134	735.58
489.342	752.82
489.55	718.53
489.758	741.97
489.967	738.29
490.175	863.45
490.383	754.76
490.591	840.59
490.799	754.56
491.007	850.47
491.215	803.39
491.423	789.05
491.631	829.54
491.839	792.54
492.047	830.9
492.255	773.55
492.463	717.75
492.671	772.58
492.879	846.59
493.087	815.4
493.295	837.29
493.503	851.44
493.711	859.19
493.919	873.14
494.127	885.73
494.334	869.46
494.542	798.93
494.75	865
494.958	849.11
495.166	900.26
495.374	892.9
495.581	898.33
495.789	902.59
495.997	929.32
496.205	849.11
496.412	885.15
496.62	863.84
496.828	880.31
497.035	913.05
497.243	945.79
497.451	897.74
497.658	905.3
497.866	891.74
498.074	962.84
498.281	880.5
498.489	973.69
498.696	894.64
498.904	893.09
499.112	904.33
499.319	953.16
499.527	914.79
499.734	970.98
499.942	892.9
500.149	904.91
500.357	924.29
500.564	890.96
500.771	914.21
500.979	891.74
501.186	869.65
501.394	884.96
501.601	882.44
501.808	955.48
502.016	897.94
502.223	883.21
502.43	904.72
502.638	891.35
502.845	888.64
503.052	993.46
503.26	931.65
503.467	997.33
503.674	948.7
503.881	964.59
504.089	1012.64
504.296	970.4
504.503	903.94
504.71	962.84
504.917	912.08
505.125	975.82
505.332	950.25
505.539	981.64
505.746	1041.7
505.953	1039.18
506.16	1014.19
506.367	1015.93
506.574	1065.53
506.781	1073.86
506.988	1016.12
507.195	1028.52
507.402	1033.95
507.609	1057.59
507.816	987.84
508.023	1010.5
508.23	979.89
508.437	975.44
508.644	1020.19
508.851	1062.62
509.058	1038.02
509.265	1039.57
509.472	1063.98
509.679	1137.99
509.885	1065.14
510.092	1034.53
510.299	1058.36
510.506	1062.43
510.713	1043.64
510.92	1044.6
511.126	1078.51
511.333	1102.92
511.54	1113.97
511.746	1128.69
511.953	1136.25
512.16	1148.26
512.367	1133.15
512.573	1102.73
512.78	1095.37
512.987	1082.39
513.193	1104.08
513.4	1051.58
513.606	1092.65
513.813	1126.56
514.02	1096.14
514.226	1161.82
514.433	1159.88
514.639	1066.5
514.846	1090.33
515.052	1100.21
515.259	1121.33
515.465	1117.07
515.672	1122.88
515.878	1223.43
516.085	1144.38
516.291	1178.68
516.497	1130.43
516.704	1105.05
516.91	1089.17
517.117	1031.82
517.323	989.58
517.529	1025.81
517.736	1074.83
517.942	1071.92
518.148	1050.8
518.354	1102.92
518.561	1113.38
518.767	1093.43
518.973	1160.66
519.179	1140.7
519.386	1137.99
519.592	1123.46
519.798	1123.65
520.004	1238.55
520.21	1161.63
520.417	1220.91
520.623	1235.64
520.829	1236.61
521.035	1232.35
521.241	1259.66
521.447	1273.81
521.653	1387.15
521.859	1271.09
522.065	1260.83
522.271	1370.29
522.477	1317.01
522.683	1341.81
522.889	1313.53
523.095	1282.33
523.301	1269.16
523.507	1279.23
523.713	1323.21
523.919	1272.26
524.125	1359.44
524.331	1324.57
524.537	1402.26
524.742	1386.76
524.948	1391.99
525.154	1405.36
525.36	1488.29
525.566	1374.75
525.772	1398.58
525.977	1326.12
526.183	1427.45
526.389	1442.56
526.595	1379.4
526.8	1341.81
527.006	1296.86
527.212	1253.66
527.417	1248.43
527.623	1260.83
527.829	1338.33
528.034	1370.87
528.24	1369.32
528.446	1348.59
528.651	1428.42
528.857	1425.9
529.062	1458.06
529.268	1455.35
529.473	1480.34
529.679	1480.73
529.884	1535.75
530.09	1497.59
530.295	1515.41
530.501	1483.25
530.706	1491.19
530.912	1463.87
531.117	1499.52
531.323	1466.39
531.528	1536.53
531.733	1534.78
531.939	1499.72
532.144	1561.72
532.35	1459.22
532.555	1525.29
532.76	1516.77
532.966	1521.61
533.171	1465.04
533.376	1431.52
533.581	1452.64
533.787	1492.94
533.992	1533.23
534.197	1542.53
534.402	1497.59
534.607	1524.71
534.813	1617.32
535.018	1502.62
535.223	1525.87
535.428	1540.79
535.633	1576.83
535.838	1621.39
536.043	1567.72
536.249	1677.58
536.454	1563.27
536.659	1611.31
536.864	1569.85
537.069	1546.22
537.274	1577.22
537.479	1554.74
537.684	1592.13
537.889	1547.77
538.094	1658.98
538.299	1598.92
538.504	1627.01
538.708	1613.25
538.913	1648.13
539.118	1589.62
539.323	1618.29
539.528	1569.85
539.733	1586.9
539.938	1613.06
540.142	1616.16
540.347	1617.32
540.552	1520.45
540.757	1560.55
540.962	1530.72
541.166	1508.44
541.371	1522.58
541.576	1559
541.781	1488.09
541.985	1608.22
542.19	1549.51
542.395	1665.95
542.599	1639.21
542.804	1633.21
543.008	1618.1
543.213	1574.12
543.418	1564.43
543.622	1627.4
543.827	1539.24
544.031	1655.49
544.236	1698.11
544.44	1602.21
544.645	1693.27
544.849	1585.93
545.054	1676.41
545.258	1703.73
545.463	1745.19
545.667	1614.8
545.872	1650.06
546.076	1647.74
546.281	1656.07
546.485	1643.48
546.689	1676.22
546.894	1668.28
547.098	1620.23
547.302	1599.3
547.507	1674.67
547.711	1678.35
547.915	1718.46
548.119	1659.36
548.324	1650.45
548.528	1749.26
548.732	1648.71
548.936	1738.61
549.141	1737.83
549.345	1677
549.549	1714.19
549.753	1678.74
549.957	1792.27
550.161	1787.24
550.366	1713.42
550.57	1664.98
550.774	1704.89
550.978	1689.98
551.182	1721.56
551.386	1652.97
551.59	1653.94
551.794	1706.06
551.998	1714.19
552.202	1665.18
552.406	1682.42
552.61	1730.86
552.814	1720.98
553.018	1760.69
553.222	1665.76
553.426	1688.23
553.63	1786.66
553.833	1701.99
554.037	1633.79
554.241	1742.48
554.445	1695.21
554.649	1713.81
554.853	1677.38
555.056	1745.97
555.26	1758.76
555.464	1727.76
555.668	1717.1
555.871	1785.3
556.075	1765.93
556.279	1686.1
556.483	1605.12
556.686	1708.58
556.89	1702.38
557.094	1708.58
557.297	1636.5
557.501	1718.26
557.704	1617.13
557.908	1705.67
558.112	1622.55
558.315	1725.82
558.519	1618.48
558.722	1623.33
558.926	1634.76
559.129	1570.82
559.333	1548.54
559.536	1570.24
559.74	1550.87
559.943	1579.15
560.147	1573.15
560.35	1540.98
560.553	1562.3
560.757	1559.39
560.96	1666.34
561.164	1584.19
561.367	1664.4
561.57	1599.69
561.774	1640.38
561.977	1614.8
562.18	1584.58
562.384	1696.37
562.587	1574.5
562.79	1594.85
562.993	1593.88
563.197	1655.49
563.4	1672.15
563.603	1652.39
563.806	1727.18
564.009	1585.93
564.212	1601.43
564.416	1560.17
564.619	1592.13
564.822	1523.93
565.025	1631.66
565.228	1565.4
565.431	1607.25
565.634	1493.32
565.837	1517.54
566.04	1529.94
566.243	1520.64
566.446	1462.13
566.649	1549.7
566.852	1495.65
567.055	1538.08
567.258	1563.07
567.461	1609.96
567.664	1603.95
567.867	1467.75
568.07	1564.43
568.273	1531.49
568.475	1575.47
568.678	1516.19
568.881	1500.1
569.084	1490.03
569.287	1420.67
569.489	1445.27
569.692	1489.25
569.895	1497
570.098	1395.87
570.3	1431.71
570.503	1404.2
570.706	1416.6
570.909	1428.81
571.111	1394.71
571.314	1372.42
571.516	1417.18
571.719	1439.85
571.922	1438.49
572.124	1410.59
572.327	1429.19
572.529	1360.8
572.732	1367.58
572.935	1409.04
573.137	1474.34
573.34	1419.51
573.542	1468.91
573.745	1438.3
573.947	1434.04
574.15	1381.14
574.352	1410.98
574.554	1462.71
574.757	1398
574.959	1356.54
575.162	1346.85
575.364	1380.56
575.566	1437.91
575.769	1350.92
575.971	1382.69
576.173	1274
576.376	1326.7
576.578	1364.48
576.78	1442.95
576.982	1306.94
577.185	1378.43
577.387	1340.46
577.589	1323.41
577.791	1357.89
577.993	1360.41
578.196	1307.52
578.398	1335.61
578.6	1358.09
578.802	1284.85
579.004	1285.04
579.206	1289.11
579.408	1353.05
579.61	1282.72
579.812	1333.09
580.014	1313.72
580.216	1294.54
580.418	1311.59
580.62	1311.78
580.822	1255.4
581.024	1337.36
581.226	1366.42
581.428	1334.64
581.63	1374.56
581.832	1286.4
582.034	1361.96
582.236	1322.24
582.438	1342.98
582.64	1383.47
582.841	1396.45
583.043	1448.18
583.245	1341.43
583.447	1356.92
583.649	1358.28
583.85	1382.69
584.052	1368.36
584.254	1330.96
584.456	1385.6
584.657	1345.3
584.859	1359.64
585.061	1324.18
585.262	1292.41
585.464	1299.19
585.666	1377.27
585.867	1287.95
586.069	1379.59
586.27	1312.36
586.472	1318.56
586.674	1311.78
586.875	1311.01
587.077	1312.75
587.278	1334.84
587.48	1282.14
587.681	1394.51
587.883	1317.59
588.084	1242.81
588.285	1285.24
588.487	1264.31
588.688	1305.39
588.89	1224.01
589.091	1149.62
589.292	1204.45
589.494	1184.49
589.695	1126.75
589.896	1094.01
590.098	1087.81
590.299	1141.48
590.5	1104.28
590.702	1163.57
590.903	1183.91
591.104	1241.65
591.305	1218.98
591.507	1274.19
591.708	1231.76
591.909	1203.48
592.11	1243.2
592.311	1263.15
592.512	1214.33
592.714	1180.42
592.915	1187.2
593.116	1177.13
593.317	1162.21
593.518	1194.37
593.719	1178.29
593.92	1247.07
594.121	1271.09
594.322	1206.77
594.523	1209.68
594.724	1149.42
594.925	1182.55
595.126	1206.58
595.327	1209.68
595.528	1194.95
595.729	1174.61
595.929	1160.66
596.13	1198.83
596.331	1222.27
596.532	1211.42
596.733	1267.22
596.934	1214.13
597.135	1205.22
597.335	1187.78
597.536	1188.56
597.737	1193.21
597.938	1175.19
598.138	1206
598.339	1176.93
598.54	1200.18
598.74	1189.91
598.941	1174.41
599.142	1241.26
599.342	1182.94
599.543	1176.93
599.744	1183.33
599.944	1213.36
600.145	1173.64
600.345	1226.34
600.546	1301.32
600.746	1244.36
600.947	1285.04
601.147	1217.43
601.348	1239.71
601.548	1168.41
601.749	1213.75
601.949	1152.52
602.15	1143.61
602.35	1183.71
602.551	1200.18
602.751	1154.07
602.951	1169.77
603.152	1121.72
603.352	1248.04
603.552	1204.83
603.753	1187.4
603.953	1210.84
604.153	1216.26
604.354	1187.2
604.554	1218.2
604.754	1214.52
604.954	1159.88
605.155	1189.53
605.355	1194.95
605.555	1243
605.755	1223.05
605.955	1216.46
606.155	1249.98
606.356	1221.5
606.556	1221.5
606.756	1183.33
606.956	1112.61
607.156	1236.61
607.356	1182.36
607.556	1199.99
607.756	1170.93
607.956	1227.89
608.156	1210.06
608.356	1159.11
608.556	1223.24
608.756	1201.15
608.956	1144
609.156	1157.75
609.356	1152.33
609.556	1147.48
609.755	1160.08
609.955	1145.35
610.155	1170.93
610.355	1170.15
610.555	1144.77
610.755	1176.93
610.954	1092.07
611.154	1152.91
611.354	1168.41
611.554	1125.01
611.753	1146.13
611.953	1117.07
612.153	1169.38
612.352	1153.1
612.552	1101.76
612.752	1091.88
612.951	1116.87
613.151	1124.62
613.351	1111.83
613.55	1098.66
613.75	1119.58
613.949	1087.03
614.149	1125.4
614.348	1107.57
614.548	1058.17
614.747	1035.5
614.947	1069.79
615.146	1039.95
615.346	1146.13
615.545	1134.31
615.745	1108.35
615.944	1121.91
616.144	1106.6
616.343	1126.75
616.542	1073.67
616.742	1064.17
616.941	1046.15
617.14	1024.26
617.34	1070.18
617.539	1051
617.738	1048.48
617.938	1143.22
618.137	1057.97
618.336	1036.27
618.535	1116.1
618.734	1078.9
618.934	1095.75
619.133	1076.57
619.332	1083.74
619.531	1037.82
619.73	1074.44
619.929	1098.08
620.128	1060.88
620.328	1150.39
620.527	1063.98
620.726	1075.22
620.925	1087.62
621.124	1063.59
621.323	1087.81
621.522	997.72
621.721	1043.83
621.92	1020.58
622.119	1074.83
622.318	1064.75
622.517	1040.15
622.715	1058.55
622.914	997.91
623.113	1022.32
623.312	998.88
623.511	1074.25
623.71	1019.03
623.909	1012.05
624.107	1091.49
624.306	986.29
624.505	978.34
624.704	1006.44
624.902	1012.64
625.101	1061.07
625.3	1017.67
625.499	959.55
625.697	988.42
625.896	987.06
626.095	1004.89
626.293	988.03
626.492	1005.66
626.69	1027.36
626.889	939.98
627.088	1033.17
627.286	995.01
627.485	973.11
627.683	963.04
627.882	990.16
628.08	907.04
628.279	918.47
628.477	1017.87
628.676	945.02
628.874	949.86
629.073	934.56
629.271	897.16
629.469	941.92
629.668	954.51
629.866	961.87
630.065	939.59
630.263	961.49
630.461	937.46
630.66	938.24
630.858	968.85
631.056	1001.4
631.254	1001.4
631.453	909.56
631.651	1017.87
631.849	957.81
632.047	930.87
632.245	929.52
632.444	943.08
632.642	982.8
632.84	1010.5
633.038	933.97
633.236	911.11
633.434	929.71
633.632	899.29
633.83	940.76
634.028	981.44
634.227	940.56
634.425	1031.24
634.623	976.6
634.821	990.55
635.019	984.93
635.216	939.79
635.414	982.02
635.612	960.71
635.81	962.26
636.008	1008.57
636.206	946.96
636.404	974.27
636.602	933.97
636.8	953.35
636.997	1007.99
637.195	999.07
637.393	972.53
637.591	1038.21
637.789	991.91
637.986	979.51
638.184	932.62
638.382	1001.59
638.58	962.84
638.777	1036.47
638.975	954.32
639.173	975.82
639.37	966.33
639.568	982.02
639.765	1011.09
639.963	954.71
640.161	987.84
640.358	1005.85
640.556	923.32
640.753	914.6
640.951	927.58
641.148	966.72
641.346	940.56
641.543	943.27
641.741	980.28
641.938	899.1
642.136	939.21
642.333	897.16
642.531	971.37
642.728	989
642.925	973.5
643.123	920.41
643.32	917.31
643.517	951.61
643.715	909.95
643.912	933.39
644.109	941.72
644.306	936.3
644.504	888.64
644.701	926.81
644.898	935.91
645.095	897.16
645.293	918.86
645.49	944.05
645.687	927.77
645.884	990.74
646.081	844.08
646.278	886.7
646.475	860.93
646.672	857.44
646.87	931.07
647.067	858.99
647.264	909.18
647.461	845.04
647.658	816.95
647.855	903.94
648.052	815.01
648.249	790.02
648.446	835.36
648.642	840.98
648.839	817.92
649.036	812.5
649.233	803
649.43	787.5
649.627	820.63
649.824	816.95
650.021	804.16
650.217	767.55
650.414	808.81
650.611	830.9
650.808	847.18
651.004	843.88
651.201	855.89
651.398	885.54
651.595	842.33
651.791	804.16
651.988	855.12
652.185	807.07
652.381	848.92
652.578	795.06
652.775	837.49
652.971	824.7
653.168	801.45
653.364	863.45
653.561	768.9
653.757	793.9
653.954	802.61
654.15	792.93
654.347	848.34
654.543	809.59
654.74	763.86
654.936	748.75
655.133	807.46
655.329	807.85
655.525	796.61
655.722	800.68
655.918	748.75
656.115	791.18
656.311	709.81
656.507	658.47
656.704	632.7
656.9	686.75
657.096	662.15
657.292	682.68
657.489	759.41
657.685	749.14
657.881	744.88
658.077	746.23
658.273	759.21
658.47	802.61
658.666	761.73
658.862	788.28
659.058	769.29
659.254	812.69
659.45	742.36
659.646	786.15
659.842	795.83
660.038	808.23
660.234	771.81
660.43	812.69
660.626	851.63
660.822	849.89
661.018	833.61
661.214	783.82
661.41	755.92
661.606	840.98
661.802	826.06
661.998	766.38
662.194	793.12
662.39	786.73
662.586	815.01
662.781	817.73
662.977	839.04
663.173	810.36
663.369	789.05
663.564	800.87
663.76	811.72
663.956	779.56
664.152	847.76
664.347	725.89
664.543	764.64
664.739	755.53
664.934	725.12
665.13	740.42
665.326	812.3
665.521	803.39
665.717	735
665.912	720.47
666.108	686.37
666.304	746.04
666.499	736.16
666.695	667.18
666.89	734.61
667.086	782.27
667.281	746.04
667.477	805.33
667.672	756.89
667.867	731.51
668.063	755.15
668.258	721.05
668.454	713.1
668.649	822.57
668.844	781.88
669.04	742.55
669.235	732.09
669.43	711.75
669.626	689.27
669.821	763.09
670.016	689.47
670.211	747.59
670.407	693.34
670.602	710.2
670.797	709.03
670.992	775.68
671.187	692.37
671.382	756.11
671.578	667.57
671.773	729.57
671.968	678.03
672.163	716.01
672.358	731.51
672.553	680.36
672.748	698.96
672.943	766.96
673.138	718.92
673.333	751.08
673.528	659.43
673.723	716.59
673.918	726.08
674.113	685.98
674.308	779.95
674.503	758.63
674.698	756.5
674.892	710.58
675.087	732.28
675.282	730.73
675.477	709.23
675.672	723.37
675.867	685.59
676.061	682.1
676.256	667.18
676.451	684.82
676.646	736.74
676.84	716.59
677.035	684.04
677.23	663.31
677.424	717.56
677.619	730.73
677.814	745.46
678.008	765.03
678.203	663.31
678.397	662.15
678.592	719.11
678.787	787.5
678.981	715.43
679.176	729.77
679.37	683.27
679.565	692.76
679.759	699.35
679.954	770.84
680.148	770.26
680.342	747.59
680.537	733.25
680.731	722.02
680.926	740.61
681.12	768.71
681.314	666.99
681.509	721.43
681.703	706.71
681.897	736.55
682.092	706.9
682.286	723.37
682.48	775.1
682.674	752.24
682.869	724.92
683.063	723.37
683.257	771.03
683.451	696.63
683.645	777.43
683.839	714.46
684.034	712.91
684.228	757.28
684.422	692.57
684.616	703.22
684.81	731.7
685.004	737.71
685.198	725.12
685.392	758.63
685.586	716.2
685.78	738.1
685.974	723.95
686.168	741.58
686.362	790.02
686.556	688.69
686.75	629.6
686.944	627.85
687.138	636.38
687.331	515.29
687.525	561.79
687.719	477.51
687.913	566.44
688.107	570.89
688.301	574.77
688.494	630.18
688.688	528.07
688.882	568.18
689.076	527.88
689.269	561.4
689.463	654.01
689.657	608.29
689.85	631.54
690.044	631.92
690.238	596.27
690.431	630.37
690.625	606.15
690.818	651.1
691.012	656.14
691.205	706.32
691.399	645.29
691.593	685.98
691.786	700.51
691.98	734.03
692.173	765.41
692.366	724.92
692.56	768.13
692.753	815.6
692.947	704
693.14	812.3
693.333	774.71
693.527	705.35
693.72	782.66
693.914	779.17
694.107	748.75
694.3	791.38
694.493	737.13
694.687	809.2
694.88	763.67
695.073	829.16
695.266	806.68
695.46	795.06
695.653	868.1
695.846	869.26
696.039	793.7
696.232	839.04
696.425	881.28
696.618	893.68
696.812	868.88
697.005	909.76
697.198	1038.21
697.391	952.19
697.584	958.97
697.777	987.64
697.97	958.97
698.163	984.16
698.356	985.12
698.549	1063.59
698.742	1032.59
698.935	994.81
699.127	1008.57
699.32	957.42
699.513	980.28
699.706	987.84
699.899	1039.95
700.092	1015.93
700.285	1054.29
700.477	966.14
700.67	1014.19
700.863	1059.91
701.056	1131.98
701.248	1091.1
701.441	1099.05
701.634	1099.43
701.826	1158.33
702.019	1044.22
702.212	1146.52
702.404	1079.29
702.597	1125.59
702.79	1102.15
702.982	1162.21
703.175	1187.4
703.367	1164.92
703.56	1195.53
703.752	1259.66
703.945	1221.3
704.137	1248.62
704.33	1276.91
704.522	1274.39
704.715	1266.25
704.907	1310.81
705.1	1344.14
705.292	1331.16
705.484	1313.91
705.677	1364.87
705.869	1352.08
706.061	1344.91
706.254	1403.81
706.446	1386.37
706.638	1339.68
706.831	1450.5
707.023	1386.76
707.215	1454.38
707.407	1486.35
707.599	1442.37
707.792	1474.92
707.984	1462.32
708.176	1506.89
708.368	1482.67
708.56	1517.35
708.752	1524.52
708.944	1509.99
709.136	1539.82
709.329	1511.73
709.521	1661.11
709.713	1580.7
709.905	1573.15
710.097	1652.78
710.289	1594.27
710.481	1633.21
710.672	1627.4
710.864	1637.86
711.056	1691.72
711.248	1662.46
711.44	1691.91
711.632	1667.7
711.824	1721.17
712.016	1782.59
712.207	1748.1
712.399	1729.31
712.591	1780.26
712.783	1772.9
712.975	1813.01
713.166	1755.27
713.358	1739.19
713.55	1822.5
713.741	1829.09
713.933	1819.98
714.125	1828.12
714.316	1790.53
714.508	1903.87
714.7	1900.77
714.891	1874.62
715.083	1932.74
715.274	1863.96
715.466	1868.81
715.657	1927.32
715.849	1838.77
716.04	1916.47
716.232	1827.15
716.423	1872.29
716.615	1794.6
716.806	1776.78
716.998	1715.94
717.189	1669.05
717.381	1613.45
717.572	1561.72
717.763	1616.93
717.955	1589.42
718.146	1555.32
718.337	1537.5
718.528	1447.99
718.72	1428.22
718.911	1513.47
719.102	1426.09
719.293	1505.34
719.485	1492.35
719.676	1486.15
719.867	1425.71
720.058	1411.76
720.249	1453.22
720.44	1459.61
720.632	1492.16
720.823	1564.62
721.014	1663.24
721.205	1678.55
721.396	1715.94
721.587	1854.47
721.778	1872.49
721.969	1887.02
722.16	1960.45
722.351	1944.37
722.542	2056.16
722.733	2063.13
722.924	1965.48
723.115	2010.82
723.305	1993.97
723.496	2025.16
723.687	1899.42
723.878	1915.89
724.069	1896.32
724.26	1949.6
724.45	1850.4
724.641	1839.36
724.832	1916.47
725.023	1880.04
725.213	1892.44
725.404	1834.9
725.595	1858.34
725.785	1810.68
725.976	1916.85
726.167	1896.7
726.357	1904.07
726.548	2013.73
726.739	1902.52
726.929	1987.18
727.12	2003.65
727.31	2027.87
727.501	1945.53
727.691	1950.76
727.882	2003.27
728.072	2023.42
728.263	2014.12
728.453	2057.13
728.644	2117.77
728.834	2018.57
729.024	2018.38
729.215	2030.39
729.405	2036.01
729.596	2146.25
729.786	2137.53
729.976	2154.97
730.167	2174.15
730.357	2102.66
730.547	2083.67
730.737	2139.47
730.928	2179.77
731.118	2207.86
731.308	2145.67
731.498	2196.63
731.688	2293.89
731.879	2276.84
732.069	2308.22
732.259	2311.52
732.449	2331.47
732.639	2500.61
732.829	2438.81
733.019	2483.37
733.209	2543.63
733.399	2513.21
733.589	2589.35
733.779	2600.2
733.969	2568.62
734.159	2638.95
734.349	2683.51
734.539	2714.12
734.729	2669.56
734.919	2736.41
735.109	2802.47
735.299	2702.31
735.488	2764.89
735.678	2758.1
735.868	2723.04
736.058	2749.97
736.248	2691.26
736.437	2682.16
736.627	2645.15
736.817	2787.55
737.007	2757.33
737.196	2811
737.386	2762.56
737.576	2749.77
737.765	2846.45
737.955	2790.85
738.144	2906.71
738.334	2855.56
738.524	2765.66
738.713	2877.84
738.903	2849.75
739.092	2863.5
739.282	2839.28
739.471	2891.02
739.661	2888.3
739.85	2926.28
740.04	2887.14
740.229	2879
740.419	2946.43
740.608	2942.16
740.797	2968.51
740.987	3030.13
741.176	2994.28
741.365	2896.63
741.555	2912.33
741.744	2988.66
741.933	2948.36
742.123	2990.41
742.312	3011.33
742.501	3086.31
742.69	3023.73
742.88	2935.58
743.069	3042.72
743.258	2973.16
743.447	3055.7
743.636	3041.75
743.825	3036.91
744.014	3053.76
744.204	3064.81
744.393	2993.51
744.582	3079.92
744.771	3152.38
744.96	3027.99
745.149	3052.02
745.338	2984.79
745.527	3073.14
745.716	3033.81
745.905	3015.4
746.094	3078.56
746.283	3087.48
746.471	3080.5
746.66	3153.93
746.849	3081.47
747.038	3165.75
747.227	3106.46
747.416	3175.44
747.604	3085.73
747.793	3125.06
747.982	3097.16
748.171	3089.61
748.359	3102.2
748.548	3121.77
748.737	3094.84
748.926	3078.76
749.114	2972.58
749.303	3102.01
749.491	3085.54
749.68	3026.25
749.869	3114.79
750.057	3058.99
750.246	3069.46
750.434	3047.95
750.623	3079.53
750.811	3008.04
751	3072.36
751.188	3026.06
751.377	3079.73
751.565	3016.95
751.754	3008.43
751.942	3050.47
752.131	3096.97
752.319	2981.88
752.507	2949.72
752.696	3003.39
752.884	3044.46
753.072	3009.2
753.261	3042.33
753.449	3008.81
753.637	2977.04
753.825	3116.92
754.014	3027.99
754.202	2986.34
754.39	3082.83
754.578	3058.03
754.766	3024.51
754.955	2991.76
755.143	3122.16
755.331	2973.75
755.519	3015.21
755.707	3002.81
755.895	2953.79
756.083	2991.38
756.271	2947.2
756.459	2965.03
756.647	3010.17
756.835	2908.45
757.023	2933.64
757.211	2942.94
757.399	2956.5
757.587	2934.61
757.775	2876.87
757.963	2894.89
758.151	2906.52
758.339	2892.76
758.526	2865.63
758.714	2872.42
758.902	2768.57
759.09	2704.82
759.278	2567.46
759.465	2364.22
759.653	2057.51
759.841	1876.75
760.028	1576.63
760.216	1350.72
760.404	1276.71
760.591	1041.7
760.779	884.18
760.967	780.91
761.154	617.39
761.342	697.02
761.529	713.49
761.717	789.63
761.905	753.98
762.092	812.69
762.28	766.38
762.467	773.16
762.655	709.42
762.842	730.93
763.029	709.03
763.217	762.31
763.404	761.15
763.592	746.23
763.779	739.26
763.966	783.05
764.154	795.83
764.341	836.71
764.528	846.98
764.716	912.86
764.903	982.41
765.09	1032.2
765.277	1085.87
765.465	1233.51
765.652	1288.53
765.839	1349.17
766.026	1469.1
766.213	1486.15
766.4	1570.24
766.588	1771.54
766.775	1732.02
766.962	1844.39
767.149	1919.18
767.336	2042.02
767.523	1945.34
767.71	2097.62
767.897	2189.26
768.084	2281.49
768.271	2315
768.458	2314.42
768.645	2386.69
768.832	2329.34
769.019	2353.37
769.206	2406.07
769.392	2505.46
769.579	2581.21
769.766	2506.23
769.953	2498.87
770.14	2550.99
770.327	2576.95
770.513	2593.03
770.7	2682.16
770.887	2580.24
771.073	2610.47
771.26	2630.81
771.447	2585.09
771.634	2588.77
771.82	2722.84
772.007	2578.5
772.193	2627.13
772.38	2640.11
772.567	2607.95
772.753	2615.89
772.94	2608.73
773.126	2647.28
773.313	2650.58
773.499	2649.99
773.686	2637.4
773.872	2585.28
774.059	2594.78
774.245	2624.61
774.432	2594.19
774.618	2536.26
774.804	2653.48
774.991	2572.49
775.177	2607.18
775.363	2569.4
775.55	2630.23
775.736	2529.68
775.922	2562.03
776.109	2566.49
776.295	2576.95
776.481	2584.89
776.667	2590.13
776.853	2522.7
777.04	2497.9
777.226	2519.02
777.412	2610.08
777.598	2494.22
777.784	2522.51
777.97	2527.16
778.156	2558.93
778.342	2468.07
778.528	2497.51
778.715	2433.19
778.901	2451.98
779.087	2511.46
779.272	2452.18
779.458	2422.73
779.644	2484.73
779.83	2454.89
780.016	2529.68
780.202	2480.66
780.388	2475.82
780.574	2420.02
780.76	2429.32
780.946	2499.06
781.131	2457.8
781.317	2436.1
781.503	2374.87
781.689	2424.86
781.874	2504.1
782.06	2397.54
782.246	2448.3
782.432	2425.25
782.617	2401.61
782.803	2466.32
782.989	2344.26
783.174	2379.33
783.36	2331.28
783.545	2372.16
783.731	2338.25
783.916	2273.16
784.102	2390.57
784.288	2341.55
784.473	2332.44
784.659	2318.88
784.844	2371.77
785.029	2303.77
785.215	2312.49
785.4	2280.71
785.586	2359.76
785.771	2245.64
785.956	2329.54
786.142	2304.74
786.327	2254.75
786.512	2274.51
786.698	2262.89
786.883	2206.31
787.068	2253.39
787.254	2235.37
787.439	2255.91
787.624	2208.06
787.809	2253.01
787.994	2158.07
788.18	2252.04
788.365	2187.33
788.55	2199.92
788.735	2148.38
788.92	2186.74
789.105	2161.17
789.29	2206.31
789.475	2104.98
789.66	2154.39
789.845	2127.65
790.03	2117
790.215	2161.94
790.4	2183.84
790.585	2194.49
790.77	2102.66
790.955	2030.2
791.14	2120.29
791.325	2170.47
791.51	2028.26
791.695	2109.25
791.879	2110.6
792.064	2038.14
792.249	2150.51
792.434	2095.49
792.618	2067.01
792.803	2135.79
792.988	2107.89
793.173	2089.1
793.357	2117.19
793.542	2065.07
793.727	2078.05
793.911	2095.68
794.096	2110.41
794.281	2132.69
794.465	2213.48
794.65	2087.16
794.834	2149.16
795.019	2142.76
795.203	2126.88
795.388	2182.48
795.572	2206.12
795.757	2150.51
795.941	2174.15
796.126	2146.64
796.31	2083.09
796.494	2138.69
796.679	2095.1
796.863	2070.11
797.048	2152.64
797.232	2130.56
797.416	2115.45
797.601	2098.98
797.785	2189.26
797.969	2195.46
798.153	2045.7
798.338	2147.61
798.522	2180.54
798.706	2159.23
798.89	2154.39
799.074	2248.55
799.258	2226.07
799.443	2137.53
799.627	2176.86
799.811	2203.41
799.995	2121.06
800.179	2109.83
800.363	2126.68
800.547	2145.09
800.731	2163.49
800.915	2117.19
801.099	2119.32
801.283	2104.4
801.467	2147.22
801.651	2128.43
801.835	2193.91
802.019	2152.45
802.202	2122.23
802.386	2091.23
802.57	2083.86
802.754	2097.62
802.938	2086.58
803.121	2075.34
803.305	2186.16
803.489	2126.1
803.673	2146.83
803.856	2183.84
804.04	2129.2
804.224	2147.99
804.407	2139.08
804.591	2113.51
804.775	2119.13
804.958	2087.35
805.142	2242.35
805.326	2126.49
805.509	2166.01
805.693	2170.66
805.876	2201.47
806.06	2136.18
806.243	2180.54
806.427	2182.09
806.61	2188.29
806.794	2145.86
806.977	2164.27
807.16	2146.44
807.344	2178.41
807.527	2166.98
807.71	2148.58
807.894	2155.36
808.077	2196.82
808.26	2134.04
808.444	2108.28
808.627	2160.59
808.81	2109.44
808.993	2092.78
809.177	2081.93
809.36	2123.58
809.543	2089.1
809.726	2032.13
809.909	2012.18
810.092	1996.48
810.276	2032.72
810.459	2024.38
810.642	2004.04
810.825	2009.47
811.008	1996.87
811.191	1899.61
811.374	1921.7
811.557	1942.24
811.74	1999.78
811.923	1885.08
812.106	1880.24
812.289	1858.73
812.472	1860.28
812.654	1903.68
812.837	1872.29
813.02	1776.39
813.203	1800.8
813.386	1693.66
813.569	1647.93
813.751	1647.55
813.934	1696.76
814.117	1643.48
814.3	1619.65
814.482	1646
814.665	1565.4
814.848	1536.92
815.03	1456.7
815.213	1452.25
815.396	1476.27
815.578	1447.79
815.761	1432.49
815.943	1499.91
816.126	1432.68
816.309	1374.17
816.491	1328.83
816.674	1239.9
816.856	1312.17
817.039	1314.3
817.221	1369.71
817.403	1313.72
817.586	1325.15
817.768	1351.89
817.951	1271.87
818.133	1250.36
818.315	1311.78
818.498	1347.82
818.68	1404.97
818.862	1387.54
819.045	1412.34
819.227	1377.27
819.409	1379.4
819.591	1381.53
819.774	1343.56
819.956	1328.83
820.138	1398.58
820.32	1442.95
820.502	1441.79
820.684	1471.62
820.866	1530.33
821.048	1542.15
821.231	1551.25
821.413	1496.62
821.595	1520.25
821.777	1535.75
821.959	1513.67
822.141	1557.45
822.323	1451.09
822.505	1389.28
822.686	1366.42
822.868	1306.55
823.05	1213.55
823.232	1173.25
823.414	1125.4
823.596	1179.06
823.778	1189.33
823.96	1232.93
824.141	1230.02
824.323	1238.35
824.505	1314.69
824.687	1339.49
824.868	1375.91
825.05	1460.97
825.232	1504.95
825.413	1568.3
825.595	1496.42
825.777	1448.95
825.958	1469.1
826.14	1454.38
826.321	1473.17
826.503	1447.4
826.685	1475.3
826.866	1504.75
827.048	1474.72
827.229	1454.19
827.411	1408.07
827.592	1386.57
827.773	1394.9
827.955	1347.24
828.136	1343.75
828.318	1303.45
828.499	1344.72
828.68	1318.95
828.862	1331.54
829.043	1371.65
829.224	1305.97
829.406	1292.6
829.587	1355.76
829.768	1311.2
829.949	1351.31
830.131	1341.81
830.312	1387.92
830.493	1349.76
830.674	1346.66
830.855	1331.35
831.036	1336
831.218	1368.94
831.399	1412.72
831.58	1323.21
831.761	1344.33
831.942	1354.02
832.123	1336.39
832.304	1286.59
832.485	1300.35
832.666	1326.89
832.847	1337.16
833.028	1361.96
833.209	1330.96
833.389	1313.53
833.57	1282.72
833.751	1330.58
833.932	1362.74
834.113	1341.62
834.294	1332.71
834.475	1391.61
834.655	1376.69
834.836	1378.04
835.017	1374.36
835.198	1306.55
835.378	1344.33
835.559	1397.03
835.74	1366.22
835.92	1356.92
836.101	1274.97
836.281	1397.81
836.462	1369.32
836.643	1385.21
836.823	1393.74
837.004	1363.32
837.184	1475.11
837.365	1432.68
837.545	1418.54
837.726	1360.61
837.906	1427.26
838.087	1407.11
838.267	1384.05
838.448	1344.53
838.628	1392.57
838.808	1402.46
838.989	1463.1
839.169	1304.03
839.349	1408.66
839.53	1446.05
839.71	1405.94
839.89	1351.89
840.07	1427.64
840.251	1385.99
840.431	1422.99
840.611	1412.34
840.791	1359.25
840.971	1395.29
841.151	1338.52
841.332	1361.96
841.512	1391.41
841.692	1318.18
841.872	1398.19
842.052	1403.42
842.232	1402.26
842.412	1339.88
842.592	1356.15
842.772	1411.17
842.952	1370.29
843.132	1347.62
843.312	1311.78
843.492	1343.56
843.672	1381.92
843.851	1311.59
844.031	1350.72
844.211	1308.1
844.391	1297.64
844.571	1368.16
844.751	1368.36
844.93	1342.2
845.11	1287.18
845.29	1328.44
845.47	1371.84
845.649	1317.79
845.829	1367.39
846.009	1321.47
846.188	1362.93
846.368	1328.25
846.547	1329.22
846.727	1379.59
846.907	1293.38
847.086	1334.64
847.266	1346.46
847.445	1283.88
847.625	1282.91
847.804	1258.89
847.984	1320.89
848.163	1268.19
848.343	1304.03
848.522	1322.24
848.701	1279.81
848.881	1250.56
849.06	1294.34
849.239	1311.39
849.419	1292.6
849.598	1231.18
849.777	1216.65
849.957	1259.08
850.136	1200.76
850.315	1169.18
850.494	1161.43
850.674	1181.97
850.853	1244.75
851.032	1187.01
851.211	1253.08
851.39	1222.08
851.569	1164.73
851.748	1192.82
851.927	1237.96
852.107	1214.52
852.286	1193.79
852.465	1147.68
852.644	1227.31
852.823	1219.17
853.002	1216.85
853.181	1200.76
853.359	1220.53
853.538	1175.38
853.717	1228.66
853.896	1126.37
854.075	1083.74
854.254	1057.39
854.433	1020.77
854.611	1077.54
854.79	988.61
854.969	1068.05
855.148	1085.29
855.327	1036.85
855.505	1076.77
855.684	1072.5
855.863	1103.7
856.041	1071.73
856.22	1100.79
856.399	1092.07
856.577	1169.18
856.756	1165.5
856.934	1249.59
857.113	1248.04
857.291	1130.63
857.47	1151.36
857.648	1154.85
857.827	1194.37
858.005	1195.73
858.184	1131.21
858.362	1220.91
858.541	1158.33
858.719	1159.3
858.898	1149.03
859.076	1122.3
859.254	1177.51
859.433	1125.98
859.611	1134.7
859.789	1060.49
859.967	1159.5
860.146	1180.03
860.324	1121.13
860.502	1101.18
860.68	1063.01
860.859	1081.8
861.037	1108.15
861.215	1113.77
861.393	1084.9
861.571	1101.18
861.749	1081.42
861.927	1131.79
862.105	1099.05
862.283	1090.72
862.461	1052.74
862.639	1046.54
862.817	1072.5
862.995	1084.71
863.173	1051
863.351	1056.62
863.529	1090.91
863.707	1112.61
863.885	1065.92
864.063	989
864.241	1029.1
864.418	1122.49
864.596	1043.25
864.774	1008.95
864.952	1054.1
865.129	1049.06
865.307	1025.42
865.485	958.39
865.663	1072.89
865.84	1003.34
866.018	1022.9
866.196	905.3
866.373	940.95
866.551	915.96
866.728	846.79
866.906	908.59
867.084	920.22
867.261	968.46
867.439	951.41
867.616	997.14
867.794	981.64
867.971	959.94
868.149	972.92
868.326	1002.56
868.503	980.86
868.681	990.16
868.858	986.09
869.035	959.94
869.213	1025.23
869.39	959.55
869.567	1041.5
869.745	947.54
869.922	958.58
870.099	983.38
870.276	1028.52
870.454	994.42
870.631	1024.65
870.808	981.44
870.985	997.14
871.162	1037.05
871.339	992.29
871.517	922.54
871.694	921.96
871.871	994.42
872.048	956.26
872.225	942.11
872.402	973.89
872.579	905.49
872.756	962.46
872.933	906.85
873.11	919.06
873.287	967.11
873.463	949.67
873.64	936.11
873.817	982.22
873.994	978.15
874.171	906.46
874.348	928.36
874.524	903.17
874.701	896.19
874.878	832.06
875.055	941.72
875.231	916.15
875.408	916.34
875.585	849.11
875.762	916.34
875.938	899.88
876.115	888.25
876.291	931.26
876.468	887.48
876.645	844.66
876.821	895.23
876.998	880.89
877.174	916.54
877.351	897.74
877.527	871.98
877.704	889.41
877.88	902.01
878.057	853.96
878.233	942.5
878.409	852.41
878.586	862.48
878.762	862.87
878.938	847.37
879.115	786.15
879.291	870.62
879.467	809.2
879.644	864.03
879.82	894.26
879.996	849.11
880.172	799.71
880.349	852.21
880.525	860.93
880.701	774.71
880.877	794.09
881.053	832.64
881.229	823.34
881.405	838.65
881.581	818.11
881.757	846.79
881.933	848.53
882.109	880.89
882.285	844.08
882.461	788.28
882.637	815.6
882.813	799.13
882.989	812.3
883.165	840.2
883.341	809.01
883.517	866.55
883.693	851.44
883.869	853.38
884.044	790.6
884.22	845.04
884.396	860.54
884.572	818.7
884.747	882.05
884.923	849.5
885.099	874.88
885.275	876.63
885.45	817.92
885.626	810.95
885.801	812.11
885.977	810.36
886.153	770.84
886.328	840.01
886.504	807.85
886.679	833.23
886.855	804.16
887.03	860.54
887.206	842.33
887.381	825.48
887.557	830.13
887.732	824.12
887.908	844.08
888.083	834.58
888.258	819.47
888.434	823.73
888.609	836.91
888.784	853.57
888.96	814.24
889.135	820.05
889.31	772.58
889.485	816.95
889.661	798.93
889.836	828.77
890.011	837.68
890.186	812.3
890.361	795.06
890.537	846.79
890.712	812.11
890.887	819.66
891.062	816.37
891.237	851.44
891.412	807.07
891.587	814.24
891.762	861.51
891.937	849.69
892.112	780.14
892.287	799.71
892.462	784.01
892.637	768.9
892.812	702.83
892.987	769.48
893.161	715.04
893.336	754.18
893.511	733.06
893.686	774.33
893.861	762.12
894.035	731.51
894.21	769.29
894.385	711.75
894.56	726.08
894.734	685.4
894.909	686.95
895.084	690.05
895.258	652.46
895.433	668.35
895.608	654.2
895.782	630.95
895.957	626.69
896.131	631.54
896.306	559.85
896.48	602.28
896.655	606.93
896.829	523.81
897.004	556.17
897.178	557.52
897.353	541.44
897.527	584.84
897.701	554.42
897.876	548.03
898.05	599.18
898.224	567.4
898.399	605.38
898.573	564.5
898.747	466.66
898.921	513.16
899.096	437.21
899.27	462.01
899.444	445.54
899.618	477.7
899.792	497.46
899.967	456.78
900.141	537.76
900.315	459.68
900.489	468.79
900.663	480.99
900.837	493.78
901.011	434.3
901.185	540.86
901.359	482.93
901.533	494.56
901.707	501.14
901.881	488.36
902.055	422.29
902.229	451.54
902.403	546.67
902.576	490.68
902.75	523.23
902.924	597.05
903.098	521.68
903.272	569.15
903.446	598.6
903.619	577.29
903.793	619.33
903.967	589.49
904.14	636.57
904.314	618.94
904.488	606.74
904.661	626.69
904.835	599.95
905.009	630.37
905.182	678.23
905.356	612.16
905.529	609.84
905.703	587.17
905.876	581.94
906.05	570.5
906.223	532.72
906.397	479.64
906.57	488.74
906.744	468.98
906.917	481.77
907.09	467.63
907.264	465.49
907.437	430.04
907.61	437.01
907.784	448.64
907.957	493.39
908.13	432.56
908.304	474.6
908.477	426.16
908.65	456.58
908.823	395.36
908.996	481.77
909.17	445.54
909.343	415.89
909.516	419.38
909.689	451.54
909.862	416.86
910.035	437.01
910.208	373.66
910.381	388.77
910.554	485.06
910.727	430.04
910.9	404.08
911.073	391.87
911.246	445.93
911.419	480.22
911.592	427.33
911.765	416.86
911.938	411.44
912.11	424.42
912.283	407.95
912.456	449.99
912.629	445.54
912.802	412.6
912.974	356.03
913.147	338.78
913.32	337.62
913.493	327.74
913.665	350.99
913.838	372.3
914.01	362.42
914.183	371.91
914.356	361.65
914.528	404.85
914.701	426.16
914.873	406.79
915.046	370.56
915.218	358.35
915.391	303.33
915.563	308.95
915.736	362.61
915.908	386.25
916.081	325.22
916.253	349.44
916.425	373.85
916.598	369.78
916.77	377.73
916.942	348.28
917.115	271.55
917.287	369.78
917.459	314.18
917.632	306.81
917.804	258.77
917.976	340.33
918.148	362.23
918.32	350.99
918.493	366.68
918.665	380.83
918.837	345.18
919.009	433.33
919.181	406.98
919.353	390.71
919.525	382.57
919.697	367.07
919.869	365.91
920.041	432.94
920.213	479.06
920.385	414.34
920.557	370.56
920.729	386.44
920.901	397.49
921.073	399.43
921.244	369.4
921.416	431.78
921.588	395.16
921.76	362.23
921.932	447.67
922.103	407.37
922.275	369.4
922.447	395.36
922.619	313.21
922.79	367.85
922.962	346.34
923.134	396.33
923.305	331.03
923.477	334.13
923.648	316.7
923.82	363.97
923.991	278.72
924.163	282.6
924.335	293.83
924.506	299.65
924.677	381.6
924.849	290.54
925.02	325.22
925.192	347.89
925.363	338.78
925.535	345.95
925.706	284.53
925.877	363
926.049	297.13
926.22	335.68
926.391	341.11
926.562	357.77
926.734	292.87
926.905	356.41
927.076	266.32
927.247	294.03
927.419	245.2
927.59	265.16
927.761	277.17
927.932	269.81
928.103	244.23
928.274	246.56
928.445	244.43
928.616	252.18
928.787	252.37
928.958	262.45
929.129	256.44
929.3	243.65
929.471	195.6
929.642	167.32
929.813	106.29
929.984	221.37
930.155	131.67
930.326	172.35
930.496	163.44
930.667	78.58
930.838	150.85
931.009	98.54
931.18	127.99
931.35	127.6
931.521	132.44
931.692	80.91
931.863	35.76
932.033	100.09
932.204	122.76
932.374	106.09
932.545	57.85
932.716	129.34
932.886	90.4
933.057	24.33
933.227	49.91
933.398	126.44
933.568	35.18
933.739	21.23
933.909	41.19
934.08	96.79
934.25	-0.08
934.421	4.76
934.591	71.99
934.761	21.23
934.932	10.38
935.102	47.77
935.272	1.86
935.443	28.98
935.613	40.41
935.783	38.67
935.953	-11.12
936.123	171.19
936.294	11.35
936.464	43.51
936.634	50.68
936.804	-11.32
936.974	-28.56
937.144	47.39
937.314	59.01
937.484	12.51
937.655	0.11
937.825	77.22
937.995	20.65
938.165	93.5
938.334	6.31
938.504	45.06
938.674	39.44
938.844	41.77
939.014	82.65
939.184	83.42
939.354	132.64
939.524	121.4
939.694	70.83
939.863	52.23
940.033	114.23
940.203	120.62
940.373	100.47
940.542	88.66
940.712	58.62
940.882	99.51
941.051	107.26
941.221	98.92
941.391	126.44
941.56	60.56
941.73	38.86
941.899	157.05
942.069	79.55
942.238	106.67
942.408	73.93
942.577	98.34
942.747	88.85
942.916	15.03
943.086	23.56
943.255	87.69
943.425	90.98
943.594	54.94
943.763	-30.31
943.933	19.68
944.102	-14.42
944.271	61.72
944.441	74.51
944.61	36.73
944.779	74.51
944.948	127.6
945.117	13.48
945.287	43.32
945.456	-6.86
945.625	33.05
945.794	95.82
945.963	32.28
946.132	58.43
946.301	28.21
946.47	79.94
946.639	15.61
946.808	21.43
946.977	77.61
947.146	129.54
947.315	39.25
947.484	86.72
947.653	45.84
947.822	30.34
947.991	32.47
948.16	122.37
948.329	81.87
948.498	23.36
948.666	73.74
948.835	69.47
949.004	11.93
949.173	32.66
949.341	53.01
949.51	64.24
949.679	125.66
949.847	97.18
950.016	139.8
950.185	101.64
950.353	13.48
950.522	48.36
950.69	91.95
950.859	25.69
951.028	114.81
951.196	61.14
951.365	28.79
951.533	47
951.701	76.45
951.87	87.11
952.038	34.6
952.207	44.87
952.375	105.71
952.543	55.14
952.712	27.43
952.88	37.31
953.048	114.23
953.217	52.81
953.385	54.36
953.553	109.77
953.721	41.19
953.89	33.44
954.058	38.86
954.226	35.76
954.394	74.51
954.562	0.31
954.73	71.99
954.898	25.49
955.067	75.29
955.235	32.66
955.403	72.77
955.571	103.77
955.739	92.72
955.907	30.14
956.075	55.14
956.243	45.84
956.41	87.3
956.578	2.63
956.746	34.79
956.914	35.96
957.082	102.41
957.25	52.62
957.418	44.29
957.585	71.02
957.753	109
957.921	11.74
958.089	65.6
958.256	48.74
958.424	84.01
958.592	65.02
958.759	54.56
958.927	90.21
959.095	38.86
959.262	50.29
959.43	61.34
959.597	27.63
959.765	70.06
959.932	17.16
960.1	69.28
960.267	57.66
960.435	51.46
960.602	76.64
960.77	39.44
960.937	34.21
961.104	41.38
961.272	-2.6
961.439	40.99
961.606	63.66
961.774	106.29
961.941	75.87
962.108	66.96
962.275	65.02
962.443	86.91
962.61	108.22
962.777	125.85
962.944	98.54
963.111	87.11
963.278	89.62
963.446	63.66
963.613	78.77
963.78	72.38
963.947	76.84
964.114	72.77
964.281	135.74
964.448	69.47
964.615	34.02
964.782	67.15
964.949	89.04
965.116	101.06
965.282	132.44
965.449	61.72
965.616	44.29
965.783	98.73
965.95	70.44
966.117	46.81
966.283	75.87
966.45	59.79
966.617	60.95
966.784	115.39
966.95	127.02
967.117	93.89
967.284	41.77
967.45	54.56
967.617	118.3
967.784	80.52
967.95	116.56
968.117	81.1
968.283	100.86
968.45	186.5
968.616	81.29
968.783	124.89
968.949	83.23
969.116	101.83
969.282	70.83
969.449	107.84
969.615	92.14
969.781	46.81
969.948	67.15
970.114	46.42
970.28	132.05
970.447	74.9
970.613	111.91
970.779	86.14
970.945	84.59
971.112	71.02
971.278	56.3
971.444	90.79
971.61	136.12
971.776	59.4
971.942	97.57
972.108	78.97
972.275	84.39
972.441	95.82
972.607	146.39
972.773	76.06
972.939	60.76
973.105	88.27
973.271	39.25
973.437	59.01
973.602	75.29
973.768	88.46
973.934	82.26
974.1	124.5
974.266	3.99
974.432	90.59
974.598	68.31
974.763	89.82
974.929	76.84
975.095	124.11
975.261	44.67
975.426	59.01
975.592	71.99
975.758	145.23
975.923	16.19
976.089	30.53
976.255	86.14
976.42	80.91
976.586	85.56
976.751	93.11
976.917	153.95
977.082	84.39
977.248	26.27
977.413	-14.61
977.579	64.82
977.744	100.86
977.91	29.95
978.075	43.71
978.24	104.35
978.406	48.74
978.571	58.43
978.736	46.22
978.902	77.03
979.067	35.38
979.232	-12.09
979.397	97.18
979.563	114.23
979.728	27.63
979.893	51.07
980.058	38.09
980.223	99.7
980.388	71.8
980.554	88.66
980.719	42.74
980.884	56.88
981.049	103.19
981.214	50.68
981.379	84.39
981.544	56.69
981.709	60.37
981.874	43.9
982.039	59.59
982.204	89.24
982.368	69.86
982.533	63.66
982.698	124.69
982.863	82.46
983.028	42.74
983.193	95.63
983.357	90.59
983.522	73.35
983.687	56.49
983.852	45.06
984.016	59.98
984.181	97.57
984.346	69.86
984.51	89.82
984.675	55.72
984.839	98.73
985.004	72.96
985.168	126.05
985.333	75.67
985.498	51.07
985.662	141.74
985.827	106.09
985.991	55.91
986.155	37.12
986.32	86.72
986.484	137.09
986.649	81.1
986.813	21.43
986.977	41.96
987.142	97.37
987.306	30.73
987.47	24.33
987.634	56.49
987.799	74.51
987.963	58.62
988.127	81.87
988.291	139.61
988.455	64.63
988.62	89.04
988.784	89.04
988.948	86.33
989.112	46.03
989.276	85.56
989.44	80.52
989.604	51.84
989.768	41.19
989.932	125.66
990.096	33.24
990.26	33.63
990.424	9.99
990.588	49.13
990.752	137.29
990.915	82.65
991.079	52.23
991.243	31.69
991.407	73.35
991.571	66.18
991.734	80.52
991.898	54.75
992.062	142.9
992.226	57.27
992.389	40.61
992.553	6.7
992.717	23.75
992.88	58.62
993.044	61.72
993.207	60.17
993.371	73.16
993.535	43.71
993.698	41.19
993.862	71.22
994.025	111.91
994.189	59.79
994.352	58.04
994.515	54.56
994.679	100.09
994.842	31.31
995.006	81.49
995.169	41.19
995.332	33.44
995.496	88.46
995.659	-4.15
995.822	78.77
995.985	68.12
996.149	93.69
996.312	50.29
996.475	111.13
996.638	23.75
996.801	98.92
996.964	132.44
997.128	47.58
997.291	41.57
997.454	54.36
997.617	8.64
997.78	78
997.943	46.22
998.106	99.7
998.269	41.96
998.432	44.29
998.595	52.23
998.758	3.21
998.92	15.03
999.083	1.28
999.246	16.78
999.409	9.8
999.572	-7.44
999.735	39.83
999.897	62.69
1000.06	9.41
1000.223	23.56
1000.386	84.78
1000.548	77.61
1000.711	62.69
1000.874	63.66
1001.036	-1.63
1001.199	80.52
1001.361	35.76
1001.524	48.55
1001.687	55.52
1001.849	27.24
1002.012	50.49
1002.174	56.11
1002.337	64.05
1002.499	46.81
1002.661	70.83
1002.824	5.54
1002.986	27.04
1003.149	63.08
1003.311	16.19
1003.473	85.56
1003.636	10.38
1003.798	57.46
1003.96	62.5
1004.123	52.42
1004.285	14.06
1004.447	42.16
1004.609	34.02
1004.771	88.07
1004.933	-11.51
1005.096	30.92
1005.258	10.38
1005.42	21.04
1005.582	78
1005.744	28.21
1005.906	3.21
1006.068	40.99
1006.23	-17.32
1006.392	-6.09
1006.554	7.86
1006.716	73.35
1006.878	67.73
1007.04	0.5
1007.202	41.57
1007.363	41.38
1007.525	34.79
1007.687	51.46
1007.849	57.07
1008.011	-22.56
1008.172	8.83
1008.334	39.64
1008.496	44.09
1008.658	-8.41
1008.819	5.34
1008.981	-9.19
1009.143	8.06
1009.304	29.18
1009.466	45.45
1009.627	98.34
1009.789	115.78
1009.95	42.35
1010.112	-7.83
1010.273	45.84
1010.435	5.73
1010.596	24.53
1010.758	14.84
1010.919	9.8
1011.081	3.79
1011.242	-5.51
1011.403	37.89
1011.565	26.46
1011.726	56.3
1011.887	-7.25
1012.049	6.31
1012.21	81.29
1012.371	82.84
1012.532	-32.63
1012.693	18.91
1012.855	-10.54
1013.016	27.63
1013.177	56.69
1013.338	30.53
1013.499	86.91
1013.66	55.52
1013.821	71.99
1013.982	58.43
1014.143	11.16
1014.304	-2.21
1014.465	54.94
1014.626	52.23
1014.787	31.69
1014.948	101.06
1015.109	-28.76
1015.27	49.52
1015.431	-1.24
1015.592	-16.55
1015.752	82.46
1015.913	14.64
1016.074	22.01
1016.235	26.08
1016.395	17.16
1016.556	0.69
1016.717	1.08
1016.877	53.59
1017.038	11.35
1017.199	19.1
1017.359	34.6
1017.52	18.91
1017.681	2.63
1017.841	13.48
1018.002	15.23
1018.162	21.04
1018.323	57.27
1018.483	10.96
1018.644	-0.27
1018.804	6.7
1018.964	-16.16
1019.125	15.03
1019.285	12.13
1019.446	10.19
1019.606	-15.19
1019.766	-19.07
1019.926	15.81
1020.087	28.4
1020.247	6.51
1020.407	41.19
1020.567	51.07
1020.728	27.04
1020.888	-25.07
1021.048	16.19
1021.208	4.57
1021.368	2.63
1021.528	42.54
1021.688	61.92
1021.848	45.45
1022.008	28.01
1022.168	17.55
1022.328	18.91
1022.488	38.47
1022.648	-14.03
1022.808	25.69
1022.968	11.35
1023.128	-4.15
1023.288	3.79
1023.448	27.82
1023.608	55.72
1023.767	26.85
1023.927	14.64
1024.087	-5.12
1024.247	-17.71
1024.406	-7.64
1024.566	-45.22
1024.726	-20.42
1024.885	17.74
1025.045	28.79
1025.205	20.65
1025.364	11.54
1025.524	40.61
1025.683	-0.47
1025.843	25.88
1026.003	41.96
1026.162	75.09
1026.321	44.87
1026.481	29.56
1026.64	2.24
1026.8	16.19
1026.959	16.58
1027.119	32.86
1027.278	-9.77
1027.437	-9.57
1027.597	35.76
1027.756	31.89
1027.915	13.48
1028.074	30.92
1028.234	-6.86
1028.393	9.61
1028.552	12.51
1028.711	-61.11
1028.87	52.42
1029.03	-8.61
1029.189	8.06
1029.348	-77.39
1029.507	9.61
1029.666	-12.67
1029.825	-23.52
1029.984	-14.61
1030.143	-0.66
1030.302	-11.51
1030.461	-37.28
1030.62	8.25
1030.779	33.44
1030.938	-3.18
1031.097	-20.23
1031.255	26.66
1031.414	44.87
1031.573	47.58
1031.732	-39.41
1031.891	0.5
1032.049	57.66
1032.208	18.33
1032.367	-29.53
1032.525	-7.44
1032.684	10.38
1032.843	-4.54
1033.001	-9.57
1033.16	132.44
1033.319	44.67
1033.477	30.14
1033.636	-20.04
1033.794	-17.32
1033.953	54.94
1034.111	65.99
1034.27	5.15
1034.428	33.44
1034.587	-42.32
1034.745	24.33
1034.903	-9.19
1035.062	13.68
1035.22	-20.23
1035.378	30.53
1035.537	-15.77
1035.695	29.18
1035.853	-5.51
1036.011	22.2
1036.17	33.24
1036.328	-41.54
1036.486	34.41
1036.644	17.55
1036.802	-81.65
1036.96	-7.44
1037.119	11.54
1037.277	-2.99
1037.435	-8.41
1037.593	-16.94
1037.751	6.31
1037.909	26.66
1038.067	26.66
