Data from pine_FLMT105791__11__17-19-45-080.txt Node

Date: Mon Mar 20 17:19:45 GMT 2023
User: antho
Spectrometer: FLMT10579
Trigger mode: 0
Integration Time (sec): 1.000000E-1
Scans to average: 10
Electric dark correction enabled: true
Nonlinearity correction enabled: false
Boxcar width: 0
XAxis mode: Wavelengths
Number of Pixels in Spectrum: 3648
>>>>>Begin Spectral Data<<<<<
345.248	-174.37
345.464	-174.37
345.681	-174.37
345.898	-160.62
346.114	-184.25
346.331	-42.62
346.548	24.02
346.764	-9.3
346.981	-12.79
347.197	-0
347.414	18.41
347.631	-26.35
347.847	66.46
348.064	3.49
348.28	7.36
348.497	-17.24
348.713	-11.43
348.93	41.46
349.146	-4.65
349.363	5.23
349.579	1.74
349.796	-4.26
350.012	-25.19
350.229	15.5
350.445	9.69
350.661	-23.06
350.878	18.79
351.094	38.56
351.311	-17.44
351.527	28.29
351.743	0.19
351.96	20.34
352.176	44.56
352.392	22.28
352.609	53.47
352.825	-14.34
353.041	12.59
353.257	7.56
353.474	8.14
353.69	2.91
353.906	23.25
354.122	-29.64
354.339	60.45
354.555	-4.84
354.771	-10.85
354.987	53.47
355.203	70.72
355.42	-9.3
355.636	11.62
355.852	-22.47
356.068	29.06
356.284	-20.54
356.5	31.97
356.716	24.02
356.932	-12.59
357.148	9.11
357.364	4.65
357.58	49.41
357.796	40.11
358.012	35.26
358.228	25.77
358.444	-71.11
358.66	62.77
358.876	23.64
359.092	-37.2
359.308	-3.87
359.524	26.74
359.74	-9.11
359.956	6.01
360.172	-7.56
360.388	18.02
360.604	-6.2
360.819	85.06
361.035	30.03
361.251	27.9
361.467	-5.23
361.683	37.97
361.898	23.44
362.114	38.56
362.33	10.66
362.546	38.94
362.762	30.03
362.977	-5.62
363.193	-15.69
363.409	40.11
363.624	-32.94
363.84	-34.49
364.056	-15.69
364.271	19.96
364.487	-0.77
364.703	-7.75
364.918	-4.26
365.134	5.62
365.35	-27.12
365.565	101.33
365.781	-1.74
365.996	21.12
366.212	46.31
366.427	37.59
366.643	-18.99
366.858	-15.31
367.074	-37.97
367.289	39.72
367.505	93.97
367.72	-19.57
367.936	4.84
368.151	39.72
368.367	34.49
368.582	6.2
368.798	-0.97
369.013	66.26
369.228	25.77
369.444	13.95
369.659	92.22
369.874	30.22
370.09	52.89
370.305	-48.82
370.52	-9.88
370.736	57.74
370.951	-8.72
371.166	29.84
371.381	42.24
371.597	35.07
371.812	-22.28
372.027	-0.39
372.242	10.27
372.458	77.89
372.673	-19.96
372.888	7.56
373.103	18.99
373.318	96.87
373.533	35.46
373.749	29.26
373.964	-60.45
374.179	49.99
374.394	-24.61
374.609	63.16
374.824	-18.99
375.039	43.21
375.254	-20.54
375.469	82.54
375.684	5.42
375.899	49.21
376.114	7.17
376.329	20.34
376.544	43.4
376.759	25.38
376.974	-11.82
377.189	-10.07
377.404	-12.4
377.619	36.62
377.834	-49.02
378.049	-40.69
378.264	-11.43
378.478	1.94
378.693	-4.84
378.908	29.84
379.123	-1.36
379.338	55.22
379.553	10.27
379.767	2.13
379.982	31.58
380.197	26.93
380.412	6.2
380.626	37.78
380.841	109.27
381.056	24.8
381.271	84.28
381.485	-24.61
381.7	-24.22
381.915	41.66
382.129	20.54
382.344	7.17
382.559	15.11
382.773	58.71
382.988	-7.17
383.202	26.74
383.417	-6.97
383.632	61.61
383.846	31.77
384.061	27.71
384.275	9.3
384.49	29.26
384.704	31.97
384.919	17.24
385.133	-0.39
385.348	15.69
385.562	-37.59
385.777	65.29
385.991	2.91
386.206	1.16
386.42	-3.1
386.634	79.63
386.849	22.47
387.063	30.42
387.277	-3.49
387.492	-12.4
387.706	-40.49
387.92	12.59
388.135	69.36
388.349	30.61
388.563	2.91
388.778	36.04
388.992	50.57
389.206	58.12
389.42	110.24
389.635	13.17
389.849	21.7
390.063	57.93
390.277	44.17
390.491	53.09
390.706	33.52
390.92	34.68
391.134	10.46
391.348	48.63
391.562	-38.94
391.776	-6.2
391.99	-8.14
392.205	59.48
392.419	2.13
392.633	31.77
392.847	57.93
393.061	2.71
393.275	78.08
393.489	34.68
393.703	20.92
393.917	71.69
394.131	9.3
394.345	62.39
394.559	44.76
394.773	18.02
394.986	33.13
395.2	1.36
395.414	50.96
395.628	-25.19
395.842	38.56
396.056	-4.07
396.27	-17.63
396.484	28.09
396.697	33.71
396.911	56.77
397.125	47.27
397.339	27.71
397.553	27.32
397.766	93.77
397.98	66.26
398.194	74.21
398.408	-4.46
398.621	14.34
398.835	53.09
399.049	28.48
399.262	68.59
399.476	41.07
399.69	34.1
399.903	82.34
400.117	5.62
400.331	56.57
400.544	-27.32
400.758	126.52
400.971	35.26
401.185	55.61
401.398	-10.85
401.612	76.53
401.826	34.87
402.039	25.96
402.253	15.31
402.466	51.34
402.68	8.52
402.893	46.31
403.106	36.42
403.32	30.03
403.533	37.2
403.747	63.74
403.96	59.48
404.174	54.06
404.387	5.04
404.6	37.2
404.814	67.42
405.027	1.74
405.24	21.89
405.454	18.79
405.667	68.39
405.88	-26.16
406.094	37.97
406.307	44.56
406.52	62.77
406.733	-12.59
406.947	-37.01
407.16	82.92
407.373	101.72
407.586	14.53
407.799	8.91
408.012	56.96
408.226	52.31
408.439	84.86
408.652	-35.46
408.865	48.44
409.078	68.2
409.291	47.27
409.504	-13.17
409.717	53.86
409.93	56.19
410.143	51.54
410.357	-15.31
410.57	-39.72
410.783	18.99
410.996	36.04
411.209	36.04
411.421	60.84
411.634	28.67
411.847	2.91
412.06	31.58
412.273	30.03
412.486	21.51
412.699	120.12
412.912	55.41
413.125	59.48
413.338	43.79
413.55	75.76
413.763	62.58
413.976	55.02
414.189	4.84
414.402	4.46
414.615	80.41
414.827	20.73
415.04	55.41
415.253	55.8
415.466	50.57
415.678	87.96
415.891	41.46
416.104	33.91
416.316	21.51
416.529	10.46
416.742	35.65
416.954	79.05
417.167	19.57
417.38	23.25
417.592	91.84
417.805	-3.29
418.017	-26.54
418.23	82.92
418.442	17.24
418.655	37.78
418.868	45.14
419.08	58.32
419.293	86.02
419.505	47.08
419.718	48.82
419.93	82.54
420.142	3.68
420.355	92.42
420.567	99.39
420.78	56.77
420.992	43.4
421.205	105.98
421.417	3.49
421.629	18.99
421.842	-1.55
422.054	-7.56
422.266	66.84
422.479	43.21
422.691	39.14
422.903	64.52
423.115	16.08
423.328	22.28
423.54	68.2
423.752	10.66
423.964	12.01
424.177	49.79
424.389	20.92
424.601	135.04
424.813	76.53
425.025	73.62
425.238	73.24
425.45	33.13
425.662	17.44
425.874	348.94
426.086	53.09
426.298	72.27
426.51	49.99
426.722	18.99
426.934	-3.49
427.146	82.54
427.358	-10.85
427.57	105.98
427.782	58.71
427.994	57.74
428.206	20.15
428.418	2.52
428.63	43.4
428.842	65.49
429.054	48.05
429.266	77.5
429.478	22.67
429.69	48.63
429.902	4.26
430.114	86.61
430.325	56.77
430.537	40.69
430.749	48.05
430.961	18.99
431.173	52.31
431.384	80.79
431.596	-29.45
431.808	30.03
432.02	95.13
432.231	66.26
432.443	96.87
432.655	62.19
432.867	16.66
433.078	71.11
433.29	128.45
433.502	95.13
433.713	96.87
433.925	73.43
434.136	122.06
434.348	31.39
434.56	6.39
434.771	155.58
434.983	28.87
435.194	12.21
435.406	75.95
435.617	92.61
435.829	119.15
436.04	78.27
436.252	101.33
436.463	104.24
436.675	90.09
436.886	74.59
437.098	58.9
437.309	109.85
437.521	59.09
437.732	87.57
437.943	82.73
438.155	96.49
438.366	25.57
438.578	140.47
438.789	85.64
439	81.57
439.211	80.02
439.423	104.24
439.634	90.67
439.845	80.02
440.057	86.02
440.268	121.29
440.479	49.02
440.69	84.67
440.902	105.01
441.113	51.92
441.324	68.97
441.535	69.56
441.746	147.83
441.957	49.41
442.168	50.96
442.38	113.73
442.591	120.7
442.802	59.67
443.013	54.44
443.224	107.14
443.435	66.46
443.646	104.62
443.857	91.64
444.068	35.84
444.279	81.37
444.49	168.37
444.701	91.25
444.912	178.83
445.123	115.28
445.334	134.46
445.545	80.02
445.756	96.1
445.967	58.9
446.178	110.82
446.388	124.39
446.599	131.36
446.81	132.33
447.021	101.33
447.232	135.04
447.443	155.77
447.653	99.39
447.864	124.97
448.075	89.9
448.286	151.9
448.496	116.83
448.707	173.79
448.918	100.94
449.129	223.78
449.339	51.34
449.55	110.82
449.761	104.82
449.971	161.2
450.182	113.73
450.393	128.65
450.603	101.72
450.814	159.26
451.024	120.7
451.235	138.14
451.446	189.1
451.656	172.82
451.867	105.01
452.077	152.29
452.288	181.93
452.498	185.03
452.709	127.29
452.919	155.39
453.13	134.27
453.34	171.27
453.55	83.31
453.761	166.04
453.971	120.7
454.182	151.12
454.392	166.43
454.602	218.16
454.813	148.8
455.023	207.31
455.233	103.46
455.444	145.7
455.654	106.95
455.864	128.84
456.075	106.75
456.285	109.27
456.495	163.14
456.705	170.3
456.916	184.45
457.126	194.13
457.336	147.64
457.546	118.57
457.756	128.45
457.967	160.81
458.177	137.75
458.387	135.82
458.597	115.09
458.807	116.05
459.017	135.43
459.227	126.32
459.437	151.32
459.647	187.93
459.857	159.45
460.068	115.67
460.278	179.99
460.488	177.47
460.698	218.55
460.908	155.19
461.117	91.45
461.327	116.44
461.537	142.02
461.747	145.89
461.957	172.44
462.167	242.38
462.377	203.05
462.587	176.5
462.797	163.91
463.007	183.09
463.216	187.74
463.426	189.29
463.636	205.18
463.846	108.69
464.056	169.53
464.265	187.93
464.475	133.3
464.685	187.74
464.895	198.78
465.104	157.71
465.314	200.72
465.524	147.05
465.733	130.78
465.943	237.53
466.153	206.34
466.362	208.86
466.572	178.63
466.782	161.78
466.991	165.07
467.201	199.17
467.41	120.12
467.62	197.62
467.829	154.42
468.039	173.21
468.249	178.44
468.458	168.75
468.668	209.05
468.877	203.82
469.086	227.46
469.296	226.88
469.505	145.5
469.715	237.34
469.924	214.67
470.134	237.15
470.343	230.56
470.552	206.73
470.762	167.98
470.971	177.86
471.18	219.52
471.39	174.95
471.599	169.92
471.808	198.59
472.018	160.04
472.227	216.42
472.436	232.11
472.645	182.32
472.855	158.1
473.064	228.43
473.273	202.27
473.482	215.45
473.691	258.07
473.901	243.54
474.11	218.93
474.319	267.37
474.528	185.61
474.737	267.76
474.946	219.32
475.155	202.27
475.364	273.57
475.573	232.3
475.783	243.54
475.992	240.44
476.201	252.26
476.41	215.64
476.619	195.3
476.828	234.24
477.037	227.07
477.245	218.55
477.454	306.51
477.663	213.12
477.872	212.35
478.081	283.84
478.29	200.33
478.499	324.33
478.708	246.64
478.917	316.39
479.125	240.63
479.334	253.23
479.543	229.98
479.752	251.29
479.961	274.93
480.169	264.66
480.378	246.06
480.587	328.98
480.796	280.93
481.004	270.28
481.213	279.38
481.422	261.17
481.63	259.62
481.839	288.49
482.048	332.86
482.256	261.37
482.465	279.19
482.674	306.12
482.882	290.43
483.091	360.95
483.299	298.56
483.508	304.96
483.716	301.28
483.925	291.59
484.134	285
484.342	284.81
484.551	322.59
484.759	316.58
484.967	336.35
485.176	330.53
485.384	319.49
485.593	344.87
485.801	320.65
486.01	311.35
486.218	290.62
486.426	236.37
486.635	301.66
486.843	284.81
487.051	289.26
487.26	278.41
487.468	333.83
487.676	335.76
487.885	278.22
488.093	319.3
488.301	333.05
488.509	321.04
488.717	338.28
488.926	320.46
489.134	306.7
489.342	344.48
489.55	288.88
489.758	323.17
489.967	332.47
490.175	440.77
490.383	288.3
490.591	390.01
490.799	287.71
491.007	376.26
491.215	330.73
491.423	327.24
491.631	351.07
491.839	363.66
492.047	374.32
492.255	306.31
492.463	286.75
492.671	337.51
492.879	371.41
493.087	334.41
493.295	388.85
493.503	385.56
493.711	356.3
493.919	386.91
494.127	384.78
494.334	406.87
494.542	307.09
494.75	341.96
494.958	362.11
495.166	413.07
495.374	393.5
495.581	378.78
495.789	366.76
495.997	409.78
496.205	365.21
496.412	367.15
496.62	376.64
496.828	396.02
497.035	368.51
497.243	400.86
497.451	359.01
497.658	419.08
497.866	392.14
498.074	445.62
498.281	375.48
498.489	488.44
498.696	400.09
498.904	381.68
499.112	401.25
499.319	477.39
499.527	385.17
499.734	454.92
499.942	343.51
500.149	365.6
500.357	387.11
500.564	352.04
500.771	400.09
500.979	368.31
501.186	354.94
501.394	429.73
501.601	412.68
501.808	437.48
502.016	408.81
502.223	392.53
502.43	420.82
502.638	408.81
502.845	360.37
503.052	470.81
503.26	390.21
503.467	464.41
503.674	417.91
503.881	436.71
504.089	476.42
504.296	478.17
504.503	397.96
504.71	423.14
504.917	408.23
505.125	431.86
505.332	419.85
505.539	464.99
505.746	526.22
505.953	449.11
506.16	433.22
506.367	510.91
506.574	482.62
506.781	503.16
506.988	393.11
507.195	448.91
507.402	436.13
507.609	484.56
507.816	469.45
508.023	428.96
508.23	429.73
508.437	402.8
508.644	473.32
508.851	509.56
509.058	517.5
509.265	469.64
509.472	494.83
509.679	563.42
509.885	451.04
510.092	494.44
510.299	468.87
510.506	498.71
510.713	490.37
510.92	464.22
511.126	499.87
511.333	532.03
511.54	515.95
511.746	532.22
511.953	543.85
512.16	524.47
512.367	452.79
512.573	472.36
512.78	511.49
512.987	502
513.193	529.7
513.4	440
513.606	515.56
513.813	521.96
514.02	513.62
514.226	604.88
514.433	555.86
514.639	500.45
514.846	511.3
515.052	498.9
515.259	482.82
515.465	520.21
515.672	528.74
515.878	620.38
516.085	499.09
516.291	566.9
516.497	506.84
516.704	508.97
516.91	486.11
517.117	478.94
517.323	442.91
517.529	501.22
517.736	497.35
517.942	507.23
518.148	489.6
518.354	515.95
518.561	506.26
518.767	536.29
518.973	545.98
519.179	560.51
519.386	482.82
519.592	516.34
519.798	523.12
520.004	585.31
520.21	517.11
520.417	575.24
520.623	600.62
520.829	617.28
521.035	568.26
521.241	583.95
521.447	587.05
521.653	677.92
521.859	561.48
522.065	602.36
522.271	681.22
522.477	603.14
522.683	667.46
522.889	644.98
523.095	654.48
523.301	604.1
523.507	580.08
523.713	626
523.919	586.86
524.125	666.1
524.331	603.33
524.537	666.1
524.742	651.18
524.948	667.27
525.154	652.54
525.36	743.99
525.566	663.58
525.772	699.23
525.977	605.85
526.183	707.76
526.389	691.87
526.595	607.2
526.8	654.48
527.006	597.13
527.212	614.37
527.417	616.89
527.623	606.82
527.829	648.28
528.034	664.17
528.24	647.12
528.446	607.2
528.651	678.31
528.857	660.68
529.062	755.23
529.268	651.77
529.473	679.86
529.679	662.03
529.884	754.06
530.09	742.44
530.295	770.73
530.501	728.1
530.706	750.38
530.912	657
531.117	697.49
531.323	695.94
531.528	705.63
531.733	734.69
531.939	691.1
532.144	722.87
532.35	707.56
532.555	778.67
532.76	750
532.966	751.16
533.171	733.53
533.376	715.12
533.581	678.7
533.787	735.46
533.992	743.99
534.197	798.24
534.402	715.9
534.607	725
534.813	828.46
535.018	738.37
535.223	697.88
535.428	750.96
535.633	799.21
535.838	777.7
536.043	752.9
536.249	824.39
536.454	735.08
536.659	747.48
536.864	729.46
537.069	724.81
537.274	786.81
537.479	799.79
537.684	772.66
537.889	717.45
538.094	824.78
538.299	790.68
538.504	790.88
538.708	791.65
538.913	785.84
539.118	762.01
539.323	777.12
539.528	751.16
539.733	810.06
539.938	801.14
540.142	802.69
540.347	779.45
540.552	767.43
540.757	775.57
540.962	739.92
541.166	737.21
541.371	719.38
541.576	756
541.781	654.09
541.985	757.55
542.19	774.99
542.395	825.17
542.599	874.19
542.804	816.45
543.008	859.85
543.213	757.94
543.418	750.58
543.622	821.49
543.827	759.49
544.031	824.59
544.236	822.84
544.44	781
544.645	896.08
544.849	791.84
545.054	811.99
545.258	904.22
545.463	879.42
545.667	771.31
545.872	823.23
546.076	832.34
546.281	829.63
546.485	776.15
546.689	811.99
546.894	849
547.098	805.41
547.302	756.58
547.507	819.55
547.711	860.43
547.915	884.07
548.119	763.17
548.324	817.81
548.528	897.24
548.732	815.68
548.936	862.56
549.141	876.12
549.345	817.03
549.549	827.49
549.753	798.82
549.957	913.13
550.161	932.51
550.366	846.09
550.57	814.13
550.774	815.68
550.978	796.69
551.182	853.26
551.386	812.38
551.59	823.81
551.794	822.84
551.998	863.92
552.202	830.21
552.406	778.28
552.61	827.69
552.814	852.68
553.018	876.32
553.222	826.53
553.426	840.48
553.63	928.44
553.833	827.3
554.037	813.74
554.241	877.67
554.445	830.98
554.649	830.21
554.853	814.32
555.056	889.69
555.26	861.79
555.464	866.05
555.668	839.89
555.871	885.81
556.075	857.33
556.279	822.65
556.483	789.52
556.686	844.74
556.89	824.78
557.094	841.64
557.297	805.02
557.501	897.24
557.704	778.67
557.908	876.9
558.112	813.35
558.315	903.44
558.519	838.73
558.722	813.16
558.926	834.28
559.129	774.21
559.333	777.31
559.536	776.15
559.74	741.28
559.943	754.84
560.147	759.1
560.35	796.88
560.553	766.46
560.757	740.89
560.96	856.75
561.164	768.79
561.367	857.14
561.57	814.13
561.774	824.59
561.977	790.68
562.18	792.81
562.384	877.29
562.587	808.31
562.79	776.73
562.993	805.21
563.197	831.18
563.4	871.86
563.603	866.83
563.806	893.56
564.009	784.1
564.212	829.43
564.416	749.22
564.619	815.87
564.822	745.93
565.025	867.02
565.228	789.13
565.431	781.96
565.634	734.5
565.837	756.2
566.04	741.47
566.243	755.81
566.446	664.17
566.649	794.17
566.852	703.5
567.055	723.84
567.258	764.14
567.461	819.36
567.664	805.02
567.867	739.73
568.07	777.51
568.273	746.9
568.475	807.15
568.678	758.33
568.881	704.08
569.084	791.84
569.287	671.92
569.489	692.65
569.692	762.4
569.895	746.9
570.098	699.62
570.3	706.6
570.503	674.24
570.706	665.52
570.909	677.34
571.111	674.05
571.314	647.7
571.516	684.9
571.719	728.49
571.922	689.16
572.124	688.97
572.327	708.92
572.529	642.66
572.732	682.57
572.935	686.06
573.137	757.16
573.34	705.63
573.542	711.05
573.745	725.97
573.947	729.65
574.15	695.36
574.352	664.17
574.554	714.73
574.757	669.4
574.959	690.13
575.162	669.78
575.364	657.97
575.566	784.29
575.769	667.46
575.971	680.83
576.173	612.63
576.376	632.2
576.578	690.9
576.78	737.01
576.982	589.96
577.185	656.8
577.387	631.81
577.589	628.13
577.791	682.38
577.993	663.78
578.196	678.89
578.398	693.81
578.6	714.93
578.802	601
579.004	663
579.206	625.22
579.408	657.38
579.61	647.7
579.812	688.97
580.014	629.48
580.216	658.16
580.418	633.75
580.62	613.98
580.822	585.7
581.024	662.42
581.226	679.08
581.428	636.85
581.63	732.56
581.832	621.54
582.034	711.44
582.236	666.3
582.438	685.48
582.64	707.76
582.841	712.6
583.043	726.36
583.245	679.47
583.447	681.99
583.649	637.43
583.85	679.28
584.052	680.44
584.254	651.77
584.456	694.58
584.657	649.63
584.859	655.25
585.061	645.76
585.262	660.48
585.464	623.28
585.666	690.71
585.867	642.66
586.069	730.62
586.27	694.39
586.472	657.19
586.674	629.1
586.875	679.47
587.077	625.03
587.278	654.48
587.48	618.83
587.681	763.17
587.883	677.53
588.084	578.14
588.285	614.57
588.487	613.21
588.688	676.37
588.89	595.19
589.091	571.94
589.292	629.48
589.494	579.89
589.695	570.59
589.896	533.58
590.098	516.72
590.299	608.95
590.5	551.99
590.702	543.65
590.903	585.12
591.104	649.25
591.305	586.28
591.507	648.08
591.708	604.49
591.909	580.08
592.11	668.43
592.311	630.84
592.512	567.87
592.714	556.44
592.915	539.97
593.116	576.2
593.317	593.06
593.518	597.9
593.719	573.69
593.92	608.75
594.121	664.17
594.322	603.72
594.523	601.2
594.724	550.82
594.925	618.44
595.126	640.53
595.327	645.95
595.528	591.12
595.729	606.62
595.929	579.69
596.13	601.39
596.331	612.82
596.532	597.52
596.733	673.27
596.934	645.57
597.135	632.58
597.335	621.54
597.536	578.53
597.737	611.85
597.938	595.58
598.138	618.05
598.339	597.9
598.54	627.16
598.74	577.37
598.941	593.64
599.142	650.22
599.342	625.22
599.543	569.62
599.744	582.4
599.944	602.17
600.145	575.82
600.345	633.36
600.546	698.65
600.746	648.47
600.947	688.38
601.147	613.02
601.348	649.05
601.548	577.75
601.749	613.4
601.949	583.76
602.15	564.19
602.35	607.4
602.551	659.71
602.751	582.99
602.951	573.49
603.152	533.77
603.352	608.17
603.552	624.25
603.753	623.48
603.953	609.72
604.153	615.92
604.354	593.64
604.554	624.45
604.754	599.45
604.954	586.47
605.155	625.8
605.355	572.52
605.555	620.96
605.755	662.23
605.955	603.72
606.155	621.73
606.356	591.7
606.556	623.28
606.756	600.23
606.956	548.5
607.156	652.93
607.356	602.17
607.556	600.81
607.756	591.12
607.956	612.43
608.156	621.93
608.356	603.91
608.556	604.88
608.756	617.47
608.956	570.2
609.156	607.98
609.356	574.65
609.556	579.69
609.755	614.18
609.955	565.16
610.155	611.66
610.355	583.18
610.555	543.07
610.755	602.75
610.954	543.65
611.154	587.83
611.354	610.3
611.554	546.37
611.753	557.8
611.953	514.79
612.153	591.7
612.352	603.33
612.552	524.67
612.752	499.67
612.951	574.27
613.151	569.62
613.351	532.61
613.55	558.57
613.75	605.65
613.949	584.73
614.149	599.65
614.348	577.37
614.548	560.32
614.747	499.29
614.947	534.94
615.146	520.6
615.346	546.17
615.545	577.37
615.745	547.14
615.944	600.04
616.144	552.57
616.343	585.89
616.542	533
616.742	570
616.941	562.25
617.14	482.82
617.34	543.85
617.539	533.77
617.738	500.06
617.938	611.08
618.137	526.8
618.336	502.19
618.535	571.36
618.734	509.36
618.934	560.12
619.133	537.26
619.332	556.83
619.531	505.68
619.73	539.59
619.929	575.43
620.128	576.59
620.328	588.02
620.527	510.14
620.726	539.59
620.925	565.55
621.124	515.56
621.323	570.59
621.522	511.49
621.721	489.02
621.92	499.48
622.119	569.62
622.318	518.08
622.517	524.09
622.715	526.6
622.914	484.37
623.113	519.05
623.312	478.94
623.511	522.92
623.71	521.57
623.909	505.29
624.107	581.82
624.306	476.42
624.505	489.6
624.704	504.32
624.902	516.14
625.101	554.5
625.3	543.85
625.499	482.24
625.697	491.92
625.896	486.31
626.095	531.25
626.293	454.92
626.492	480.3
626.69	528.74
626.889	490.96
627.088	502
627.286	429.93
627.485	459.37
627.683	478.36
627.882	519.63
628.08	431.67
628.279	471.39
628.477	542.3
628.676	482.04
628.874	497.16
629.073	449.3
629.271	460.73
629.469	492.51
629.668	459.76
629.866	498.71
630.065	462.67
630.263	485.53
630.461	461.89
630.66	478.17
630.858	496.38
631.056	531.64
631.254	520.6
631.453	453.95
631.651	510.52
631.849	505.68
632.047	514.4
632.245	483.98
632.444	501.81
632.642	507.04
632.84	519.24
633.038	483.4
633.236	443.68
633.434	462.09
633.632	434.58
633.83	443.49
634.028	496.96
634.227	461.31
634.425	541.91
634.623	460.34
634.821	497.35
635.019	499.29
635.216	459.37
635.414	493.86
635.612	490.96
635.81	458.41
636.008	546.75
636.206	466.16
636.404	513.24
636.602	436.32
636.8	497.35
636.997	500.06
637.195	507.42
637.393	469.64
637.591	511.49
637.789	493.67
637.986	472.16
638.184	489.41
638.382	526.02
638.58	508.97
638.777	567.49
638.975	496.77
639.173	488.05
639.37	483.4
639.568	488.63
639.765	518.66
639.963	492.12
640.161	512.27
640.358	534.35
640.556	467.12
640.753	449.49
640.951	420.63
641.148	485.53
641.346	489.6
641.543	476.62
641.741	475.84
641.938	462.28
642.136	471.58
642.333	451.82
642.531	504.71
642.728	525.83
642.925	474.49
643.123	453.37
643.32	504.52
643.517	455.89
643.715	465.96
643.912	449.3
644.109	465.19
644.306	473.52
644.504	445.42
644.701	485.92
644.898	492.89
645.095	469.06
645.293	469.64
645.49	513.43
645.687	460.73
645.884	514.21
646.081	389.63
646.278	459.18
646.475	445.81
646.672	441.94
646.87	447.17
647.067	480.69
647.264	472.36
647.461	411.52
647.658	423.34
647.855	462.47
648.052	438.26
648.249	368.12
648.446	441.94
648.642	408.81
648.839	407.06
649.036	390.59
649.233	371.03
649.43	382.65
649.627	361.34
649.824	398.93
650.021	415.39
650.217	352.81
650.414	388.27
650.611	429.93
650.808	448.33
651.004	417.53
651.201	447.36
651.398	438.45
651.595	432.83
651.791	385.36
651.988	427.99
652.185	396.41
652.381	429.54
652.578	360.76
652.775	436.51
652.971	410.94
653.168	404.93
653.364	419.27
653.561	366.57
653.757	395.05
653.954	398.73
654.15	366.38
654.347	464.61
654.543	386.91
654.74	353.78
654.936	356.49
655.133	424.69
655.329	427.79
655.525	394.28
655.722	428.57
655.918	380.13
656.115	411.71
656.311	350.49
656.507	321.04
656.704	306.31
656.9	340.61
657.096	341.38
657.292	339.25
657.489	393.5
657.685	374.32
657.881	354.56
658.077	334.41
658.273	369.86
658.47	441.36
658.666	355.33
658.862	389.43
659.058	377.81
659.254	393.5
659.45	372.77
659.646	409.78
659.842	397.18
660.038	442.32
660.234	356.69
660.43	396.6
660.626	455.69
660.822	412.68
661.018	419.46
661.214	416.17
661.41	371.22
661.606	403.58
661.802	454.92
661.998	369.09
662.194	368.12
662.39	406.48
662.586	406.48
662.781	428.76
662.977	408.61
663.173	409.19
663.369	370.64
663.564	382.07
663.76	410.16
663.956	362.69
664.152	444.46
664.347	351.07
664.543	383.04
664.739	391.37
664.934	335.57
665.13	335.57
665.326	381.88
665.521	399.7
665.717	358.63
665.912	352.81
666.108	301.28
666.304	352.62
666.499	386.33
666.695	305.54
666.89	366.57
667.086	416.56
667.281	390.98
667.477	427.6
667.672	362.11
667.867	389.43
668.063	412.68
668.258	346.42
668.454	368.7
668.649	447.56
668.844	371.22
669.04	401.64
669.235	372.96
669.43	363.08
669.626	330.15
669.821	353.78
670.016	340.61
670.211	365.99
670.407	333.83
670.602	394.86
670.797	351.84
670.992	389.63
671.187	329.18
671.382	401.64
671.578	354.56
671.773	378.97
671.968	323.56
672.163	346.23
672.358	370.83
672.553	335.96
672.748	339.06
672.943	412.88
673.138	337.7
673.333	375.29
673.528	318.52
673.723	340.41
673.918	348.75
674.113	323.17
674.308	423.34
674.503	356.11
674.698	367.73
674.892	344.29
675.087	379.74
675.282	369.09
675.477	343.32
675.672	373.16
675.867	343.32
676.061	307.28
676.256	311.93
676.451	318.91
676.646	365.99
676.84	299.34
677.035	299.53
677.23	301.86
677.424	367.34
677.619	394.86
677.814	361.92
678.008	386.91
678.203	296.82
678.397	298.95
678.592	360.95
678.787	422.18
678.981	324.53
679.176	347
679.37	339.64
679.565	308.83
679.759	325.5
679.954	352.04
680.148	383.23
680.342	403.58
680.537	360.18
680.731	315.61
680.926	368.51
681.12	366.18
681.314	324.53
681.509	338.67
681.703	340.22
681.897	395.44
682.092	305.54
682.286	334.41
682.48	410.55
682.674	364.24
682.869	352.81
683.063	338.28
683.257	390.79
683.451	298.18
683.645	356.69
683.839	356.88
684.034	338.67
684.228	385.75
684.422	301.66
684.616	310.77
684.81	354.36
685.004	343.32
685.198	325.88
685.392	392.53
685.586	320.26
685.78	337.7
685.974	342.35
686.168	372.96
686.362	406.09
686.556	316.39
686.75	297.4
686.944	334.02
687.138	348.36
687.331	279
687.525	297.6
687.719	231.53
687.913	292.17
688.107	288.3
688.301	279.77
688.494	301.28
688.688	260.01
688.882	259.43
689.076	257.88
689.269	289.46
689.463	356.3
689.657	294.88
689.85	283.26
690.044	313.48
690.238	277.45
690.431	296.63
690.625	311.93
690.818	279.19
691.012	291.98
691.205	334.99
691.399	279.38
691.593	341.77
691.786	365.6
691.98	346.81
692.173	380.33
692.366	345.84
692.56	342.16
692.753	405.32
692.947	303.6
693.14	402.61
693.333	409
693.527	327.63
693.72	345.45
693.914	344.1
694.107	328.01
694.3	361.53
694.493	360.56
694.687	403.77
694.88	350.88
695.073	424.69
695.266	395.83
695.46	391.37
695.653	414.23
695.846	415.39
696.039	350.88
696.232	370.25
696.425	420.82
696.618	438.06
696.812	388.85
697.005	420.82
697.198	518.66
697.391	460.92
697.584	452.21
697.777	524.47
697.97	489.41
698.163	495.61
698.356	457.82
698.549	558.38
698.742	509.56
698.935	463.44
699.127	497.16
699.32	463.83
699.513	469.26
699.706	490.18
699.899	513.24
700.092	466.16
700.285	525.83
700.477	445.23
700.67	522.54
700.863	560.51
701.056	616.7
701.248	580.66
701.441	577.95
701.634	534.16
701.826	610.5
702.019	543.46
702.212	575.04
702.404	556.25
702.597	550.44
702.79	522.92
702.982	588.41
703.175	590.15
703.367	612.43
703.56	589.96
703.752	686.83
703.945	592.67
704.137	638.2
704.33	632.58
704.522	656.22
704.715	640.14
704.907	659.9
705.1	684.7
705.292	707.95
705.484	677.92
705.677	681.41
705.869	720.16
706.061	749.22
706.254	736.05
706.446	691.29
706.638	682.96
706.831	765.88
707.023	741.28
707.215	824.39
707.407	770.34
707.599	784.48
707.792	822.84
707.984	771.5
708.176	828.66
708.368	761.04
708.56	812.38
708.752	798.04
708.944	793.39
709.136	846.29
709.329	809.86
709.521	937.54
709.713	887.36
709.905	872.64
710.097	909.45
710.289	838.73
710.481	891.43
710.672	890.46
710.864	893.37
711.056	918.94
711.248	932.51
711.44	897.63
711.632	912.16
711.824	909.84
712.016	994.89
712.207	992.57
712.399	934.06
712.591	1050.88
712.783	970.67
712.975	1024.73
713.166	972.22
713.358	978.42
713.55	1072.2
713.741	1006.9
713.933	1039.45
714.125	1064.25
714.316	1000.9
714.508	1059.8
714.7	1116.37
714.891	1071.23
715.083	1094.09
715.274	1078.59
715.466	1075.3
715.657	1116.95
715.849	1031.51
716.04	1104.36
716.232	1010
716.423	1104.36
716.615	1060.18
716.806	1015.62
716.998	1038.1
717.189	1004.58
717.381	929.79
717.572	930.96
717.763	984.62
717.955	951.3
718.146	917.2
718.337	888.91
718.528	869.15
718.72	855.2
718.911	903.64
719.102	871.48
719.293	906.74
719.485	887.75
719.676	872.25
719.867	880.19
720.058	850.16
720.249	866.63
720.44	902.28
720.632	939.48
720.823	942.58
721.014	1022.21
721.205	1032.48
721.396	1057.08
721.587	1141.56
721.778	1143.88
721.969	1165.97
722.16	1176.82
722.351	1123.73
722.542	1231.26
722.733	1274.66
722.924	1179.73
723.115	1262.65
723.305	1245.99
723.496	1277.38
723.687	1166.94
723.878	1186.31
724.069	1184.18
724.26	1169.26
724.45	1142.72
724.641	1163.06
724.832	1186.9
725.023	1180.5
725.213	1147.76
725.404	1163.45
725.595	1155.51
725.785	1162.68
725.976	1189.22
726.167	1181.66
726.357	1202.59
726.548	1284.35
726.739	1195.81
726.929	1259.36
727.12	1262.84
727.31	1277.38
727.501	1229.33
727.691	1266.53
727.882	1301.01
728.072	1326.59
728.263	1287.26
728.453	1339.76
728.644	1355.07
728.834	1330.27
729.024	1316.71
729.215	1335.69
729.405	1329.49
729.596	1394.59
729.786	1388.39
729.976	1379.87
730.167	1398.47
730.357	1359.33
730.547	1371.54
730.737	1392.66
730.928	1424.04
731.118	1496.12
731.308	1413.97
731.498	1432.95
731.688	1495.73
731.879	1492.63
732.069	1545.13
732.259	1544.36
732.449	1501.54
732.639	1602.48
732.829	1610.43
733.019	1618.76
733.209	1687.93
733.399	1652.47
733.589	1763.29
733.779	1698.97
733.969	1729.19
734.159	1736.94
734.349	1780.34
734.539	1830.33
734.729	1772.4
734.919	1844.67
735.109	1864.82
735.299	1807.66
735.488	1826.07
735.678	1837.69
735.868	1837.3
736.058	1834.98
736.248	1848.35
736.437	1795.65
736.627	1772.21
736.817	1899.69
737.007	1853.77
737.196	1906.47
737.386	1865.4
737.576	1845.64
737.765	1909.77
737.955	1858.81
738.144	2002.38
738.334	1934.57
738.524	1897.75
738.713	1933.79
738.903	1935.92
739.092	1964.4
739.282	1972.15
739.471	1977.97
739.661	1942.32
739.85	1984.17
740.04	2007.22
740.229	2010.9
740.419	2035.9
740.608	2033.96
740.797	2048.1
740.987	2126.57
741.176	2081.43
741.365	2016.52
741.555	1989.01
741.744	2034.15
741.933	2052.95
742.123	2094.99
742.312	2091.31
742.501	2105.45
742.69	2085.11
742.88	2030.28
743.069	2135.87
743.258	2059.34
743.447	2101.58
743.636	2128.12
743.825	2113.2
744.014	2134.51
744.204	2102.54
744.393	2063.21
744.582	2128.51
744.771	2185.27
744.96	2114.75
745.149	2113.98
745.338	2089.76
745.527	2131.61
745.716	2137.23
745.905	2093.05
746.094	2160.86
746.283	2156.41
746.471	2178.88
746.66	2232.74
746.849	2192.44
747.038	2198.64
747.227	2147.88
747.416	2175.01
747.604	2132.58
747.793	2170.55
747.982	2158.93
748.171	2205.42
748.359	2190.31
748.548	2176.75
748.737	2178.88
748.926	2200.97
749.114	2057.79
749.303	2175.01
749.491	2177.72
749.68	2097.51
749.869	2194.57
750.057	2080.07
750.246	2142.07
750.434	2117.27
750.623	2154.08
750.811	2100.99
751	2160.48
751.188	2168.61
751.377	2142.26
751.565	2119.4
751.754	2090.15
751.942	2113.01
752.131	2171.13
752.319	2079.88
752.507	2082.59
752.696	2139.16
752.884	2182.37
753.072	2124.24
753.261	2143.81
753.449	2150.4
753.637	2120.95
753.825	2178.11
754.014	2130.83
754.202	2118.63
754.39	2210.85
754.578	2161.06
754.766	2117.85
754.955	2097.31
755.143	2186.63
755.331	2103.32
755.519	2087.82
755.707	2101.58
755.895	2108.36
756.083	2138.19
756.271	2066.12
756.459	2073.87
756.647	2111.07
756.835	2096.35
757.023	2063.41
757.211	2098.67
757.399	2089.56
757.587	2056.43
757.775	2025.05
757.963	2038.61
758.151	2080.46
758.339	2066.31
758.526	2030.86
758.714	2062.83
758.902	1966.34
759.09	1922.94
759.278	1817.93
759.465	1696.45
759.653	1475.97
759.841	1347.32
760.028	1167.71
760.216	996.44
760.404	984.24
760.591	790.29
760.779	658.55
760.967	591.51
761.154	452.4
761.342	512.85
761.529	522.73
761.717	530.67
761.905	543.85
762.092	574.27
762.28	521.76
762.467	526.22
762.655	484.56
762.842	518.08
763.029	540.36
763.217	521.57
763.404	520.21
763.592	556.44
763.779	497.54
763.966	568.84
764.154	578.53
764.341	623.87
764.528	590.35
764.716	651.57
764.903	700.78
765.09	740.11
765.277	745.35
765.465	908.48
765.652	888.91
765.839	939.48
766.026	1004.19
766.213	1026.28
766.4	1125.48
766.588	1228.36
766.775	1204.33
766.962	1304.69
767.149	1314.77
767.336	1447.68
767.523	1386.84
767.71	1459.3
767.897	1531.18
768.084	1620.11
768.271	1599
768.458	1660.61
768.645	1711.56
768.832	1665.06
769.019	1658.48
769.206	1716.99
769.392	1763.29
769.579	1853.97
769.766	1801.27
769.953	1779.18
770.14	1859
770.327	1825.87
770.513	1831.49
770.7	1897.17
770.887	1806.11
771.073	1860.36
771.26	1864.43
771.447	1801.66
771.634	1817.54
771.82	1905.5
772.007	1796.81
772.193	1878.77
772.38	1866.95
772.567	1865.59
772.753	1882.25
772.94	1866.95
773.126	1895.24
773.313	1871.79
773.499	1904.54
773.686	1903.37
773.872	1856.1
774.059	1919.84
774.245	1824.91
774.432	1853
774.618	1778.02
774.804	1863.85
774.991	1812.89
775.177	1880.51
775.363	1839.82
775.55	1849.9
775.736	1825.1
775.922	1791.97
776.109	1856.1
776.295	1826.84
776.481	1834.01
776.667	1871.21
776.853	1804.37
777.04	1801.66
777.226	1821.22
777.412	1870.24
777.598	1784.61
777.784	1786.16
777.97	1804.95
778.156	1861.52
778.342	1790.61
778.528	1795.46
778.715	1752.06
778.901	1786.35
779.087	1800.69
779.272	1744.89
779.458	1720.67
779.644	1788.67
779.83	1715.63
780.016	1891.36
780.202	1777.63
780.388	1733.65
780.574	1718.15
780.76	1702.46
780.946	1783.83
781.131	1753.02
781.317	1734.23
781.503	1688.51
781.689	1722.61
781.874	1834.79
782.06	1734.04
782.246	1713.89
782.432	1761.16
782.617	1713.89
782.803	1770.85
782.989	1622.25
783.174	1696.06
783.36	1655.38
783.545	1722.03
783.731	1697.03
783.916	1618.56
784.102	1706.91
784.288	1668.55
784.473	1667
784.659	1693.54
784.844	1696.64
785.029	1671.26
785.215	1650.15
785.4	1632.32
785.586	1688.51
785.771	1583.3
785.956	1636.78
786.142	1648.79
786.327	1636.39
786.512	1634.65
786.698	1607.91
786.883	1560.25
787.068	1566.25
787.254	1599.77
787.439	1554.82
787.624	1616.63
787.809	1608.49
787.994	1619.92
788.18	1611.01
788.365	1570.13
788.55	1559.08
788.735	1549.59
788.92	1573.61
789.105	1539.32
789.29	1604.81
789.475	1549.01
789.66	1571.68
789.845	1509.68
790.03	1486.04
790.215	1571.29
790.4	1553.27
790.585	1625.54
790.77	1512.78
790.955	1457.75
791.14	1548.43
791.325	1557.92
791.51	1421.91
791.695	1490.88
791.879	1512.78
792.064	1454.46
792.249	1570.9
792.434	1461.05
792.618	1527.31
792.803	1518.98
792.988	1470.35
793.173	1493.98
793.357	1517.43
793.542	1462.4
793.727	1530.99
793.911	1513.17
794.096	1493.4
794.281	1503.67
794.465	1587.95
794.65	1493.6
794.834	1526.15
795.019	1591.44
795.203	1586.98
795.388	1555.4
795.572	1560.83
795.757	1545.33
795.941	1553.85
796.126	1530.02
796.31	1494.57
796.494	1503.87
796.679	1532.73
796.863	1497.47
797.048	1577.3
797.232	1562.96
797.416	1537.38
797.601	1520.14
797.785	1605
797.969	1559.08
798.153	1507.16
798.338	1534.48
798.522	1549.01
798.706	1570.9
798.89	1573.03
799.074	1639.68
799.258	1572.65
799.443	1562.38
799.627	1525.76
799.811	1599.19
799.995	1527.7
800.179	1536.42
800.363	1559.86
800.547	1552.88
800.731	1598.22
800.915	1487.59
801.099	1522.85
801.283	1542.03
801.467	1524.6
801.651	1524.02
801.835	1583.3
802.019	1550.17
802.202	1546.88
802.386	1481.59
802.57	1497.08
802.754	1512.39
802.938	1517.43
803.121	1511.81
803.305	1565.87
803.489	1540.29
803.673	1569.16
803.856	1542.62
804.04	1542.62
804.224	1511.62
804.407	1530.6
804.591	1514.13
804.775	1530.6
804.958	1561.6
805.142	1631.35
805.326	1539.71
805.509	1553.08
805.693	1554.05
805.876	1594.54
806.06	1545.91
806.243	1574.2
806.427	1607.33
806.61	1601.32
806.794	1552.88
806.977	1604.23
807.16	1538.93
807.344	1586.98
807.527	1553.27
807.71	1542.81
807.894	1549.4
808.077	1584.66
808.26	1523.63
808.444	1543.58
808.627	1573.23
808.81	1507.55
808.993	1475.77
809.177	1464.34
809.36	1478.68
809.543	1533.51
809.726	1462.79
809.909	1414.74
810.092	1424.82
810.276	1428.89
810.459	1454.85
810.642	1432.37
810.825	1447.49
811.008	1425.4
811.191	1393.62
811.374	1369.21
811.557	1401.95
811.74	1450.2
811.923	1358.75
812.106	1348.29
812.289	1316.71
812.472	1362.62
812.654	1370.57
812.837	1329.11
813.02	1273.5
813.203	1279.7
813.386	1224.09
813.569	1204.14
813.751	1187.86
813.934	1219.64
814.117	1194.65
814.3	1150.08
814.482	1129.55
814.665	1115.21
814.848	1101.45
815.03	1035.19
815.213	1054.18
815.396	1106.88
815.578	1017.17
815.761	1011.55
815.943	1068.13
816.126	1005.94
816.309	977.65
816.491	955.76
816.674	924.95
816.856	932.51
817.039	923.21
817.221	990.82
817.403	947.62
817.586	993.73
817.768	958.08
817.951	929.6
818.133	911.39
818.315	924.17
818.498	976.87
818.68	1054.95
818.862	971.84
819.045	1028.02
819.227	1017.56
819.409	942.58
819.591	1005.16
819.774	982.49
819.956	935.99
820.138	1044.88
820.32	983.46
820.502	1037.9
820.684	1090.22
820.866	1069.1
821.048	1085.95
821.231	1125.87
821.413	1087.89
821.595	1068.52
821.777	1090.8
821.959	1102.81
822.141	1135.36
822.323	1041.2
822.505	1011.17
822.686	990.44
822.868	947.23
823.05	878.26
823.232	886.2
823.414	815.29
823.596	877.48
823.778	852.88
823.96	859.27
824.141	873.03
824.323	888.52
824.505	948.78
824.687	966.22
824.868	983.65
825.05	1053.02
825.232	1077.04
825.413	1133.42
825.595	1068.52
825.777	1005.16
825.958	1105.13
826.14	1062.9
826.321	1116.57
826.503	1067.16
826.685	1096.8
826.866	1089.63
827.048	1076.27
827.229	1028.22
827.411	1043.52
827.592	990.63
827.773	1035.19
827.955	988.11
828.136	981.91
828.318	953.04
828.499	962.73
828.68	929.99
828.862	957.89
829.043	982.1
829.224	952.27
829.406	955.56
829.587	947.23
829.768	960.99
829.949	979.78
830.131	947.81
830.312	1000.9
830.493	962.34
830.674	986.56
830.855	959.44
831.036	965.64
831.218	1022.4
831.399	1012.72
831.58	942.97
831.761	981.33
831.942	993.73
832.123	939.29
832.304	925.14
832.485	921.46
832.666	949.56
832.847	966.02
833.028	956.92
833.209	985.4
833.389	931.73
833.57	917.01
833.751	947.04
833.932	985.79
834.113	964.09
834.294	932.12
834.475	974.74
834.655	979
834.836	1000.32
835.017	952.46
835.198	923.4
835.378	970.29
835.559	1024.54
835.74	964.28
835.92	941.81
836.101	910.61
836.281	991.79
836.462	963.7
836.643	1042.36
836.823	1016.01
837.004	975.32
837.184	1066.77
837.365	1014.85
837.545	1044.88
837.726	987.14
837.906	1052.05
838.087	1022.6
838.267	1029.96
838.448	957.5
838.628	1021.82
838.808	968.93
838.989	1028.02
839.169	930.37
839.349	1028.41
839.53	1030.15
839.71	1025.7
839.89	998.57
840.07	1052.24
840.251	994.12
840.431	1040.42
840.611	1014.27
840.791	920.3
840.971	1023.57
841.151	990.24
841.332	941.03
841.512	1006.71
841.692	919.91
841.872	1027.44
842.052	993.54
842.232	1016.01
842.412	953.43
842.592	990.24
842.772	1012.52
842.952	967.77
843.132	951.11
843.312	939.29
843.492	932.7
843.672	1037.9
843.851	932.51
844.031	946.07
844.211	957.5
844.391	953.04
844.571	984.82
844.751	1001.67
844.93	984.24
845.11	909.26
845.29	1012.14
845.47	997.02
845.649	943.94
845.829	981.72
846.009	937.16
846.188	982.88
846.368	973.97
846.547	967.57
846.727	977.84
846.907	901.89
847.086	972.8
847.266	965.83
847.445	972.61
847.625	928.63
847.804	942
847.984	964.47
848.163	904.41
848.343	931.73
848.522	937.93
848.701	947.23
848.881	914.87
849.06	928.63
849.239	946.07
849.419	946.84
849.598	905.57
849.777	888.14
849.957	866.44
850.136	850.55
850.315	834.86
850.494	830.79
850.674	824.39
850.853	922.43
851.032	883.49
851.211	943.74
851.39	904.02
851.569	870.51
851.748	859.85
851.927	911.58
852.107	871.09
852.286	833.11
852.465	841.64
852.644	907.51
852.823	893.56
853.002	857.72
853.181	866.24
853.359	871.48
853.538	831.95
853.717	883.87
853.896	812.19
854.075	757.36
854.254	773.44
854.433	734.5
854.611	787.78
854.79	706.98
854.969	780.61
855.148	789.91
855.327	727.33
855.505	786.61
855.684	772.66
855.863	815.29
856.041	783.9
856.22	791.46
856.399	740.89
856.577	834.86
856.756	839.51
856.934	948.97
857.113	894.34
857.291	831.37
857.47	795.14
857.648	858.3
857.827	830.98
858.005	868.76
858.184	833.31
858.362	902.47
858.541	848.61
858.719	836.99
858.898	778.67
859.076	822.26
859.254	902.47
859.433	817.61
859.611	824.98
859.789	798.43
859.967	872.06
860.146	881.55
860.324	783.71
860.502	781.19
860.68	765.11
860.859	784.87
861.037	779.25
861.215	802.31
861.393	806.18
861.571	794.94
861.749	790.29
861.927	812.77
862.105	808.31
862.283	776.93
862.461	764.33
862.639	750.19
862.817	758.33
862.995	789.91
863.173	774.8
863.351	791.65
863.529	785.26
863.707	816.84
863.885	782.74
864.063	716.28
864.241	762.01
864.418	790.49
864.596	763.75
864.774	715.9
864.952	783.32
865.129	775.57
865.307	732.56
865.485	702.91
865.663	795.33
865.84	709.7
866.018	729.26
866.196	617.67
866.373	656.61
866.551	670.17
866.728	619.41
866.906	683.73
867.084	648.67
867.261	672.11
867.439	708.53
867.616	749.8
867.794	720.16
867.971	716.28
868.149	721.13
868.326	760.46
868.503	752.9
868.681	742.25
868.858	716.48
869.035	705.24
869.213	736.05
869.39	704.85
869.567	750
869.745	704.66
869.922	698.07
870.099	739.34
870.276	708.92
870.454	726.94
870.631	742.05
870.808	704.27
870.985	730.43
871.162	768.98
871.339	726.36
871.517	646.92
871.694	670.17
871.871	708.92
872.048	693.42
872.225	667.46
872.402	703.69
872.579	652.93
872.756	709.5
872.933	662.42
873.11	692.65
873.287	670.95
873.463	661.07
873.64	634.52
873.817	721.9
873.994	657.97
874.171	659.71
874.348	671.53
874.524	600.42
874.701	676.37
874.878	626.77
875.055	685.87
875.231	670.17
875.408	648.67
875.585	628.32
875.762	686.83
875.938	661.26
876.115	637.62
876.291	667.65
876.468	649.83
876.645	607.98
876.821	647.89
876.998	623.87
877.174	663.39
877.351	669.59
877.527	605.46
877.704	663
877.88	633.36
878.057	638.4
878.233	678.31
878.409	611.47
878.586	653.9
878.762	647.89
878.938	621.15
879.115	539.97
879.291	631.23
879.467	593.64
879.644	561.29
879.82	647.5
879.996	611.27
880.172	556.44
880.349	590.54
880.525	641.69
880.701	569.42
880.877	562.06
881.053	587.25
881.229	619.41
881.405	610.3
881.581	573.3
881.757	578.14
881.933	577.95
882.109	620.77
882.285	616.12
882.461	531.45
882.637	586.67
882.813	562.06
882.989	589.96
883.165	636.07
883.341	570.2
883.517	615.53
883.693	599.65
883.869	616.5
884.044	551.02
884.22	582.6
884.396	642.85
884.572	614.18
884.747	618.44
884.923	627.74
885.099	597.71
885.275	623.48
885.45	578.34
885.626	609.92
885.801	566.13
885.977	574.27
886.153	526.02
886.328	613.98
886.504	599.65
886.679	610.69
886.855	576.4
887.03	590.54
887.206	627.93
887.381	603.52
887.557	601.97
887.732	589.38
887.908	592.87
888.083	642.66
888.258	569.04
888.434	582.21
888.609	587.83
888.784	651.57
888.96	564.58
889.135	581.44
889.31	552.95
889.485	601
889.661	567.1
889.836	627.74
890.011	573.1
890.186	588.99
890.361	556.83
890.537	607.98
890.712	580.66
890.887	570
891.062	600.23
891.237	623.28
891.412	576.98
891.587	576.2
891.762	638.98
891.937	624.06
892.112	562.25
892.287	571.94
892.462	567.29
892.637	518.27
892.812	521.18
892.987	549.85
893.161	521.18
893.336	533
893.511	531.84
893.686	563.22
893.861	556.25
894.035	534.35
894.21	544.62
894.385	470.22
894.56	544.82
894.734	471.77
894.909	486.5
895.084	491.15
895.258	485.34
895.433	505.1
895.608	491.73
895.782	411.91
895.957	481.85
896.131	473.71
896.306	425.86
896.48	416.56
896.655	433.41
896.829	371.03
897.004	394.86
897.178	361.92
897.353	387.88
897.527	439.42
897.701	375.68
897.876	357.66
898.05	445.04
898.224	404.74
898.399	455.11
898.573	403.58
898.747	322.59
898.921	380.52
899.096	339.64
899.27	346.61
899.444	331.31
899.618	344.87
899.792	359.01
899.967	341.77
900.141	375.68
900.315	324.72
900.489	333.05
900.663	349.13
900.837	374.51
901.011	294.11
901.185	423.14
901.359	361.73
901.533	367.73
901.707	359.79
901.881	370.83
902.055	315.23
902.229	352.23
902.403	396.99
902.576	363.66
902.75	340.22
902.924	449.3
903.098	393.11
903.272	436.13
903.446	422.76
903.619	403.58
903.793	452.79
903.967	415.01
904.14	453.76
904.314	446.39
904.488	433.99
904.661	466.93
904.835	438.26
905.009	448.52
905.182	508.2
905.356	469.84
905.529	454.92
905.703	399.51
905.876	424.31
906.05	392.53
906.223	419.66
906.397	369.86
906.57	355.91
906.744	328.79
906.917	369.86
907.09	351.46
907.264	358.43
907.437	339.64
907.61	312.13
907.784	342.74
907.957	325.5
908.13	307.28
908.304	363.28
908.477	309.8
908.65	348.94
908.823	292.95
908.996	388.27
909.17	320.46
909.343	305.73
909.516	318.13
909.689	321.62
909.862	312.9
910.035	301.66
910.208	270.08
910.381	281.71
910.554	397.18
910.727	318.71
910.9	289.46
911.073	280.16
911.246	367.15
911.419	334.41
911.592	324.72
911.765	303.8
911.938	283.26
912.11	314.45
912.283	309.61
912.456	347.97
912.629	330.53
912.802	290.23
912.974	263.5
913.147	257.49
913.32	223.39
913.493	273.76
913.665	270.08
913.838	274.73
914.01	252.84
914.183	272.41
914.356	250.71
914.528	279
914.701	358.24
914.873	299.73
915.046	254.78
915.218	239.28
915.391	218.35
915.563	231.72
915.736	278.8
915.908	285.2
916.081	240.05
916.253	251.68
916.425	237.53
916.598	239.28
916.77	254
916.942	248.77
917.115	199.95
917.287	258.07
917.459	258.07
917.632	244.12
917.804	188.13
917.976	237.73
918.148	225.72
918.32	221.65
918.493	272.41
918.665	280.55
918.837	264.27
919.009	329.56
919.181	327.63
919.353	274.73
919.525	283.06
919.697	253.03
919.869	265.43
920.041	299.34
920.213	362.89
920.385	284.61
920.557	286.55
920.729	280.35
920.901	276.28
921.073	279
921.244	266.79
921.416	330.34
921.588	270.08
921.76	248
921.932	317.75
922.103	270.47
922.275	259.62
922.447	265.05
922.619	196.65
922.79	263.5
922.962	249.16
923.134	287.33
923.305	224.94
923.477	211.18
923.648	252.45
923.82	245.09
923.991	182.51
924.163	197.62
924.335	198.59
924.506	219.9
924.677	278.61
924.849	194.91
925.02	211.77
925.192	242.96
925.363	239.67
925.535	245.67
925.706	199.95
925.877	276.86
926.049	224.94
926.22	250.9
926.391	237.53
926.562	245.48
926.734	216.8
926.905	259.04
927.076	173.21
927.247	211.38
927.419	191.62
927.59	195.1
927.761	210.99
927.932	173.99
928.103	230.75
928.274	158.1
928.445	169.92
928.616	158.1
928.787	188.52
928.958	216.03
929.129	177.08
929.3	186
929.471	163.33
929.642	124.19
929.813	91.06
929.984	144.54
930.155	101.91
930.326	164.1
930.496	88.54
930.667	59.67
930.838	123.61
931.009	71.49
931.18	107.53
931.35	90.29
931.521	100.55
931.692	70.52
931.863	6.78
932.033	79.44
932.204	102.69
932.374	96.1
932.545	50.37
932.716	84.28
932.886	112.57
933.057	-1.16
933.227	30.81
933.398	130.2
933.568	47.86
933.739	3.49
933.909	3.87
934.08	72.46
934.25	-5.81
934.421	-7.17
934.591	69.36
934.761	30.81
934.932	-36.42
935.102	9.49
935.272	16.47
935.443	18.6
935.613	11.24
935.783	39.14
935.953	-7.94
936.123	160.81
936.294	4.07
936.464	1.55
936.634	20.92
936.804	-18.02
936.974	-17.24
937.144	45.72
937.314	5.42
937.484	14.34
937.655	-3.29
937.825	73.24
937.995	-8.72
938.165	58.12
938.334	3.68
938.504	25.57
938.674	-9.3
938.844	-18.6
939.014	38.17
939.184	41.27
939.354	129.42
939.524	73.24
939.694	34.87
939.863	57.93
940.033	119.74
940.203	93.39
940.373	97.07
940.542	86.22
940.712	44.56
940.882	87.38
941.051	101.14
941.221	58.12
941.391	96.87
941.56	29.26
941.73	38.75
941.899	158.1
942.069	62.39
942.238	84.47
942.408	38.17
942.577	106.17
942.747	53.86
942.916	-19.76
943.086	26.93
943.255	103.07
943.425	47.66
943.594	12.79
943.763	-18.02
943.933	-1.74
944.102	-14.92
944.271	37.97
944.441	56.38
944.61	25.77
944.779	29.84
944.948	115.67
945.117	13.56
945.287	48.44
945.456	-2.91
945.625	20.73
945.794	17.82
945.963	15.69
946.132	70.91
946.301	33.13
946.47	77.69
946.639	-20.15
946.808	12.01
946.977	66.84
947.146	95.13
947.315	-6.97
947.484	53.09
947.653	34.87
947.822	27.51
947.991	-2.32
948.16	107.53
948.329	74.21
948.498	49.41
948.666	40.49
948.835	59.29
949.004	-16.47
949.173	8.72
949.341	18.21
949.51	49.79
949.679	90.87
949.847	56.96
950.016	124.39
950.185	75.37
950.353	28.87
950.522	17.82
950.69	88.15
950.859	25.19
951.028	91.25
951.196	50.76
951.365	22.09
951.533	35.46
951.701	70.33
951.87	72.46
952.038	-2.32
952.207	53.86
952.375	88.15
952.543	25.57
952.712	24.61
952.88	14.92
953.048	87.38
953.217	40.11
953.385	34.29
953.553	91.25
953.721	2.32
953.89	35.07
954.058	1.94
954.226	11.82
954.394	53.67
954.562	13.17
954.73	25.96
954.898	14.72
955.067	51.73
955.235	17.24
955.403	74.01
955.571	95.52
955.739	43.4
955.907	10.85
956.075	17.05
956.243	19.57
956.41	60.84
956.578	6.01
956.746	-10.85
956.914	22.28
957.082	62.97
957.25	49.41
957.418	15.11
957.585	32.74
957.753	101.91
957.921	-3.87
958.089	30.81
958.256	33.13
958.424	45.34
958.592	38.36
958.759	28.29
958.927	82.54
959.095	5.23
959.262	17.24
959.43	45.34
959.597	9.88
959.765	38.75
959.932	-4.26
960.1	32.36
960.267	32.16
960.435	46.11
960.602	73.24
960.77	42.82
960.937	-0.77
961.104	22.86
961.272	-39.33
961.439	12.79
961.606	54.44
961.774	66.46
961.941	26.74
962.108	62.19
962.275	28.29
962.443	75.17
962.61	43.21
962.777	134.46
962.944	48.82
963.111	74.21
963.278	66.07
963.446	44.56
963.613	49.02
963.78	56.77
963.947	69.17
964.114	37.78
964.281	146.47
964.448	90.67
964.615	29.64
964.782	59.09
964.949	95.52
965.116	62.97
965.282	104.24
965.449	30.81
965.616	26.54
965.783	69.94
965.95	57.35
966.117	21.12
966.283	43.21
966.45	65.68
966.617	54.83
966.784	73.04
966.95	76.34
967.117	90.87
967.284	6.01
967.45	21.89
967.617	91.06
967.784	47.47
967.95	90.67
968.117	62.39
968.283	65.68
968.45	163.14
968.616	63.55
968.783	101.33
968.949	49.21
969.116	81.96
969.282	46.31
969.449	71.69
969.615	39.52
969.781	48.24
969.948	44.76
970.114	-17.05
970.28	109.08
970.447	31.58
970.613	86.02
970.779	51.34
970.945	61.42
971.112	80.99
971.278	43.01
971.444	47.86
971.61	96.87
971.776	40.49
971.942	75.37
972.108	53.28
972.275	66.46
972.441	69.94
972.607	117.6
972.773	39.91
972.939	74.98
973.105	58.32
973.271	41.07
973.437	53.67
973.602	25.96
973.768	64.91
973.934	46.31
974.1	55.61
974.266	-30.03
974.432	73.82
974.598	56.77
974.763	77.31
974.929	20.54
975.095	130.39
975.261	15.69
975.426	42.24
975.592	44.37
975.758	109.66
975.923	18.41
976.089	50.57
976.255	80.79
976.42	55.8
976.586	52.51
976.751	55.61
976.917	110.63
977.082	75.76
977.248	-3.87
977.413	19.76
977.579	23.06
977.744	75.95
977.91	19.57
978.075	17.24
978.24	58.71
978.406	59.48
978.571	57.74
978.736	20.73
978.902	52.89
979.067	4.84
979.232	-10.27
979.397	60.45
979.563	100.75
979.728	-7.17
979.893	43.79
980.058	21.31
980.223	108.69
980.388	27.32
980.554	15.89
980.719	41.27
980.884	51.54
981.049	84.86
981.214	19.18
981.379	45.14
981.544	35.65
981.709	52.89
981.874	46.11
982.039	74.98
982.204	86.8
982.368	48.63
982.533	17.63
982.698	75.95
982.863	61.81
983.028	21.7
983.193	66.65
983.357	58.32
983.522	28.87
983.687	24.61
983.852	34.29
984.016	41.85
984.181	33.52
984.346	65.29
984.51	60.84
984.675	28.48
984.839	66.84
985.004	48.44
985.168	71.11
985.333	64.52
985.498	48.44
985.662	74.79
985.827	59.67
985.991	6.2
986.155	29.26
986.32	69.17
986.484	102.1
986.649	58.9
986.813	6.78
986.977	57.16
987.142	73.24
987.306	17.05
987.47	48.24
987.634	29.45
987.799	41.27
987.963	38.56
988.127	54.44
988.291	108.3
988.455	66.07
988.62	4.46
988.784	81.57
988.948	69.94
989.112	14.14
989.276	76.34
989.44	60.45
989.604	21.51
989.768	43.79
989.932	128.65
990.096	-0
990.26	-8.52
990.424	2.91
990.588	38.94
990.752	111.02
990.915	88.35
991.079	34.68
991.243	9.88
991.407	72.85
991.571	16.08
991.734	80.6
991.898	54.83
992.062	109.47
992.226	49.02
992.389	23.44
992.553	-5.62
992.717	20.34
992.88	7.36
993.044	45.34
993.207	36.23
993.371	69.94
993.535	59.09
993.698	53.09
993.862	81.96
994.025	99.2
994.189	40.3
994.352	70.52
994.515	51.54
994.679	83.89
994.842	17.24
995.006	63.36
995.169	34.29
995.332	3.1
995.496	73.24
995.659	-21.12
995.822	29.45
995.985	21.12
996.149	92.03
996.312	33.52
996.475	85.25
996.638	18.99
996.801	75.37
996.964	68.2
997.128	25.57
997.291	52.31
997.454	51.73
997.617	-25.96
997.78	88.54
997.943	23.25
998.106	52.12
998.269	23.25
998.432	31.77
998.595	39.91
998.758	5.62
998.92	8.91
999.083	-38.36
999.246	31.19
999.409	-10.27
999.572	-47.27
999.735	-21.51
999.897	61.61
1000.06	-0.39
1000.223	27.9
1000.386	43.59
1000.548	38.56
1000.711	54.06
1000.874	41.85
1001.036	-13.95
1001.199	62.58
1001.361	-2.71
1001.524	46.5
1001.687	62.39
1001.849	3.87
1002.012	57.16
1002.174	39.52
1002.337	25.57
1002.499	31.97
1002.661	57.93
1002.824	2.13
1002.986	-5.04
1003.149	43.59
1003.311	-20.34
1003.473	105.79
1003.636	-14.92
1003.798	44.56
1003.96	29.45
1004.123	38.75
1004.285	0.39
1004.447	39.91
1004.609	43.01
1004.771	88.15
1004.933	-3.29
1005.096	-8.33
1005.258	-5.42
1005.42	21.12
1005.582	69.75
1005.744	21.51
1005.906	8.72
1006.068	40.49
1006.23	-18.99
1006.392	-43.01
1006.554	-4.65
1006.716	81.18
1006.878	26.93
1007.04	-28.87
1007.202	21.51
1007.363	29.06
1007.525	46.69
1007.687	37.2
1007.849	50.96
1008.011	-16.86
1008.172	-14.92
1008.334	3.87
1008.496	47.27
1008.658	-29.84
1008.819	-18.6
1008.981	-20.34
1009.143	-10.07
1009.304	8.14
1009.466	70.33
1009.627	63.55
1009.789	106.95
1009.95	62
1010.112	-28.67
1010.273	23.25
1010.435	5.04
1010.596	0.39
1010.758	-4.46
1010.919	20.15
1011.081	-7.17
1011.242	7.75
1011.403	39.91
1011.565	6.39
1011.726	41.46
1011.887	-21.31
1012.049	28.67
1012.21	77.89
1012.371	71.11
1012.532	-51.92
1012.693	11.43
1012.855	-13.37
1013.016	7.94
1013.177	69.17
1013.338	20.34
1013.499	89.9
1013.66	45.92
1013.821	31.19
1013.982	30.81
1014.143	47.86
1014.304	-7.36
1014.465	55.22
1014.626	77.5
1014.787	-8.52
1014.948	111.02
1015.109	-25.77
1015.27	43.21
1015.431	-9.88
1015.592	10.85
1015.752	66.07
1015.913	41.46
1016.074	59.09
1016.235	-13.17
1016.395	18.79
1016.556	-2.32
1016.717	7.94
1016.877	57.16
1017.038	-12.01
1017.199	39.72
1017.359	-10.27
1017.52	41.85
1017.681	-11.43
1017.841	11.24
1018.002	6.01
1018.162	-15.5
1018.323	66.84
1018.483	7.56
1018.644	4.26
1018.804	-29.84
1018.964	-12.21
1019.125	-20.15
1019.285	9.11
1019.446	-9.3
1019.606	-6.59
1019.766	-36.42
1019.926	44.95
1020.087	20.54
1020.247	-24.41
1020.407	15.31
1020.567	52.51
1020.728	14.53
1020.888	-23.44
1021.048	-1.74
1021.208	-1.74
1021.368	5.04
1021.528	49.99
1021.688	10.46
1021.848	46.5
1022.008	20.34
1022.168	-7.56
1022.328	43.4
1022.488	34.29
1022.648	6.01
1022.808	12.79
1022.968	54.25
1023.128	-5.62
1023.288	-16.27
1023.448	-7.17
1023.608	1.36
1023.767	44.76
1023.927	-12.01
1024.087	-10.07
1024.247	-41.85
1024.406	10.27
1024.566	-26.54
1024.726	-26.54
1024.885	1.16
1025.045	27.12
1025.205	-3.1
1025.364	0.97
1025.524	8.52
1025.683	12.4
1025.843	20.73
1026.003	28.48
1026.162	60.26
1026.321	41.66
1026.481	23.25
1026.64	3.68
1026.8	21.89
1026.959	-1.94
1027.119	16.47
1027.278	1.94
1027.437	-10.46
1027.597	24.02
1027.756	18.99
1027.915	-3.87
1028.074	61.22
1028.234	-13.17
1028.393	17.82
1028.552	1.16
1028.711	-71.3
1028.87	43.01
1029.03	-40.11
1029.189	7.94
1029.348	-29.26
1029.507	-2.71
1029.666	-14.34
1029.825	-26.54
1029.984	-19.76
1030.143	28.09
1030.302	-7.94
1030.461	-40.88
1030.62	0.19
1030.779	13.17
1030.938	-1.74
1031.097	-32.16
1031.255	10.27
1031.414	56.77
1031.573	69.17
1031.732	-51.34
1031.891	-32.74
1032.049	58.71
1032.208	3.68
1032.367	-27.32
1032.525	-17.05
1032.684	22.47
1032.843	26.35
1033.001	-37.97
1033.16	145.7
1033.319	49.79
1033.477	22.67
1033.636	-2.32
1033.794	-34.68
1033.953	24.41
1034.111	40.88
1034.27	-14.34
1034.428	-0.58
1034.587	-21.31
1034.745	-5.04
1034.903	15.31
1035.062	10.07
1035.22	-22.28
1035.378	32.74
1035.537	0.19
1035.695	38.56
1035.853	-12.59
1036.011	36.42
1036.17	12.4
1036.328	-44.56
1036.486	4.07
1036.644	1.74
1036.802	-73.24
1036.96	-1.16
1037.119	-14.14
1037.277	-17.63
1037.435	-32.94
1037.593	-41.46
1037.751	16.66
1037.909	28.29
1038.067	28.29
