Data from pine_FLMT105791__81__17-21-21-077.txt Node

Date: Mon Mar 20 17:21:21 GMT 2023
User: antho
Spectrometer: FLMT10579
Trigger mode: 0
Integration Time (sec): 1.000000E-1
Scans to average: 10
Electric dark correction enabled: true
Nonlinearity correction enabled: false
Boxcar width: 0
XAxis mode: Wavelengths
Number of Pixels in Spectrum: 3648
>>>>>Begin Spectral Data<<<<<
345.248	-158.57
345.464	-158.57
345.681	-158.57
345.898	-152.17
346.114	-151.59
346.331	-10.54
346.548	3.41
346.764	7.09
346.981	-11.9
347.197	-3.57
347.414	2.44
347.631	-8.02
347.847	62.89
348.064	1.86
348.28	18.52
348.497	-36.51
348.713	-25.66
348.93	60.56
349.146	2.83
349.363	0.89
349.579	29.56
349.796	-32.44
350.012	1.08
350.229	41.77
350.445	40.22
350.661	14.84
350.878	25.69
351.094	33.05
351.311	32.08
351.527	37.51
351.743	-1.63
351.96	41.96
352.176	39.64
352.392	31.5
352.609	53.78
352.825	-4.73
353.041	2.63
353.257	23.94
353.474	16
353.69	-5.12
353.906	3.41
354.122	-19.84
354.339	65.99
354.555	9.03
354.771	15.42
354.987	57.66
355.203	62.69
355.42	19.29
355.636	11.54
355.852	-0.08
356.068	-9.77
356.284	-31.86
356.5	61.53
356.716	22.01
356.932	20.84
357.148	36.34
357.364	25.49
357.58	51.46
357.796	78.19
358.012	35.38
358.228	40.22
358.444	-70.02
358.66	66.76
358.876	37.89
359.092	-8.22
359.308	42.54
359.524	36.15
359.74	-3.57
359.956	25.88
360.172	25.3
360.388	53.59
360.604	-11.12
360.819	62.89
361.035	32.66
361.251	65.6
361.467	-18.49
361.683	65.6
361.898	28.79
362.114	26.85
362.33	27.63
362.546	24.14
362.762	4.18
362.977	14.45
363.193	-3.57
363.409	43.9
363.624	7.86
363.84	11.16
364.056	-29.53
364.271	25.11
364.487	22.98
364.703	-10.74
364.918	-32.05
365.134	8.83
365.35	19.29
365.565	126.82
365.781	23.75
365.996	18.33
366.212	103.96
366.427	34.99
366.643	-2.21
366.858	-5.31
367.074	-15.77
367.289	76.45
367.505	89.82
367.72	-32.82
367.936	8.06
368.151	32.86
368.367	53.97
368.582	22.98
368.798	-4.34
369.013	59.98
369.228	36.73
369.444	-7.83
369.659	71.99
369.874	22.78
370.09	59.98
370.305	-47.94
370.52	8.83
370.736	54.17
370.951	5.93
371.166	62.5
371.381	67.92
371.597	70.25
371.812	-14.22
372.027	-2.6
372.242	-0.86
372.458	77.61
372.673	29.37
372.888	-3.76
373.103	39.25
373.318	125.85
373.533	19.1
373.749	45.26
373.964	-22.56
374.179	49.71
374.394	-20.42
374.609	76.84
374.824	-5.31
375.039	70.44
375.254	5.15
375.469	73.35
375.684	52.42
375.899	71.22
376.114	33.24
376.329	-4.54
376.544	72.19
376.759	51.26
376.974	-16.36
377.189	33.83
377.404	9.61
377.619	70.83
377.834	-28.56
378.049	-28.95
378.264	-14.22
378.478	9.61
378.693	4.38
378.908	39.25
379.123	19.68
379.338	69.67
379.553	4.38
379.767	15.42
379.982	48.16
380.197	43.9
380.412	-2.79
380.626	34.41
380.841	118.11
381.056	43.12
381.271	93.69
381.485	-0.08
381.7	10.38
381.915	49.71
382.129	11.54
382.344	33.05
382.559	48.94
382.773	42.93
382.988	-13.64
383.202	27.43
383.417	-21.97
383.632	140.39
383.846	41.19
384.061	22.78
384.275	23.75
384.49	47.77
384.704	42.54
384.919	28.79
385.133	10.96
385.348	20.84
385.562	-10.16
385.777	59.98
385.991	36.54
386.206	16
386.42	29.76
386.634	81.68
386.849	38.86
387.063	34.02
387.277	-9.57
387.492	-6.47
387.706	-16.74
387.92	22.78
388.135	70.44
388.349	40.22
388.563	11.16
388.778	23.94
388.992	34.6
389.206	59.79
389.42	70.64
389.635	28.01
389.849	41.19
390.063	74.12
390.277	43.32
390.491	79.36
390.706	58.82
390.92	67.34
391.134	34.99
391.348	57.27
391.562	-27.79
391.776	29.95
391.99	-6.67
392.205	53.2
392.419	-14.61
392.633	27.82
392.847	70.83
393.061	-10.74
393.275	100.47
393.489	43.9
393.703	49.13
393.917	53.78
394.131	-21.78
394.345	70.64
394.559	70.64
394.773	3.6
394.986	40.99
395.2	23.17
395.414	54.17
395.628	-19.26
395.842	51.07
396.056	4.76
396.27	-12.87
396.484	43.51
396.697	55.14
396.911	70.64
397.125	67.92
397.339	84.2
397.553	36.73
397.766	99.7
397.98	58.82
398.194	82.46
398.408	39.44
398.621	51.07
398.835	52.23
399.049	28.98
399.262	61.92
399.476	45.26
399.69	68.12
399.903	96.41
400.117	25.49
400.331	60.37
400.544	-1.44
400.758	127.79
400.971	68.12
401.185	78.58
401.398	11.35
401.612	62.69
401.826	79.16
402.039	92.72
402.253	20.46
402.466	59.01
402.68	54.17
402.893	59.4
403.106	37.12
403.32	30.34
403.533	47.77
403.747	64.05
403.96	62.11
404.174	72.19
404.387	-4.54
404.6	68.31
404.814	87.69
405.027	52.42
405.24	34.41
405.454	34.99
405.667	76.45
405.88	9.61
406.094	51.84
406.307	77.61
406.52	67.34
406.733	35.76
406.947	-5.7
407.16	98.54
407.373	84.78
407.586	-3.57
407.799	6.12
408.012	66.18
408.226	60.95
408.439	85.56
408.652	9.03
408.865	68.7
409.078	94.66
409.291	93.11
409.504	10.19
409.717	38.47
409.93	91.37
410.143	51.26
410.357	-20.81
410.57	5.54
410.783	49.52
410.996	59.79
411.209	41.19
411.421	77.03
411.634	45.45
411.847	20.84
412.06	45.64
412.273	55.72
412.486	58.82
412.699	153.56
412.912	51.46
413.125	60.95
413.338	53.78
413.55	105.51
413.763	59.59
413.976	63.27
414.189	35.38
414.402	40.02
414.615	118.11
414.827	29.18
415.04	109
415.253	63.86
415.466	91.76
415.678	118.69
415.891	62.5
416.104	56.3
416.316	58.62
416.529	48.74
416.742	71.41
416.954	92.14
417.167	67.15
417.38	54.17
417.592	101.64
417.805	28.98
418.017	-3.57
418.23	50.29
418.442	35.96
418.655	68.89
418.868	84.59
419.08	93.31
419.293	103.38
419.505	80.32
419.718	46.22
419.93	112.87
420.142	47.19
420.355	93.89
420.567	86.72
420.78	104.54
420.992	49.32
421.205	140.19
421.417	15.23
421.629	45.64
421.842	13.09
422.054	22.39
422.266	101.44
422.479	116.17
422.691	62.11
422.903	104.16
423.115	57.07
423.328	70.64
423.54	90.59
423.752	65.99
423.964	60.56
424.177	72.57
424.389	72.38
424.601	159.95
424.813	90.59
425.025	111.32
425.238	109.58
425.45	77.61
425.662	62.5
425.874	373.66
426.086	96.79
426.298	99.12
426.51	102.8
426.722	82.84
426.934	67.54
427.146	109.39
427.358	41.38
427.57	118.3
427.782	91.37
427.994	76.84
428.206	65.99
428.418	33.05
428.63	104.35
428.842	138.25
429.054	106.48
429.266	113.84
429.478	71.61
429.69	84.78
429.902	41.19
430.114	117.33
430.325	105.9
430.537	61.14
430.749	84.01
430.961	29.37
431.173	84.2
431.384	123.72
431.596	29.37
431.808	73.74
432.02	94.27
432.231	127.6
432.443	137.48
432.655	92.53
432.867	63.66
433.078	96.41
433.29	176.04
433.502	125.47
433.713	137.87
433.925	105.32
434.136	166.74
434.348	55.14
434.56	21.23
434.771	216.33
434.983	45.64
435.194	87.11
435.406	94.27
435.617	148.72
435.829	162.28
436.04	133.99
436.252	140.77
436.463	155.5
436.675	131.86
436.886	134.77
437.098	134.77
437.309	179.33
437.521	119.46
437.732	122.17
437.943	140.19
438.155	128.95
438.366	87.3
438.578	197.15
438.789	147.55
439	149.1
439.211	156.66
439.423	191.15
439.634	170.42
439.845	154.34
440.057	158.99
440.268	185.34
440.479	140.39
440.69	171.58
440.902	133.6
441.113	131.28
441.324	133.99
441.535	168.09
441.746	198.7
441.957	136.7
442.168	151.04
442.38	161.5
442.591	161.7
442.802	132.44
443.013	153.56
443.224	164.8
443.435	152.79
443.646	170.8
443.857	131.28
444.068	134.38
444.279	140.39
444.49	239.97
444.701	133.8
444.912	266.13
445.123	215.56
445.334	211.49
445.545	206.45
445.756	148.33
445.967	163.25
446.178	171.39
446.388	195.41
446.599	201.22
446.81	176.04
447.021	177.97
447.232	210.33
447.443	218.27
447.653	149.1
447.864	237.26
448.075	177.39
448.286	222.73
448.496	200.25
448.707	237.07
448.918	187.85
449.129	272.72
449.339	178.17
449.55	212.27
449.761	188.05
449.971	244.82
450.182	195.8
450.393	233.19
450.603	178.94
450.814	241.72
451.024	242.88
451.235	261.67
451.446	260.51
451.656	279.5
451.867	208.39
452.077	214.4
452.288	262.64
452.498	265.74
452.709	193.67
452.919	221.37
453.13	225.83
453.34	252.76
453.55	158.21
453.761	251.6
453.971	235.32
454.182	274.07
454.392	269.23
454.602	287.25
454.813	256.05
455.023	256.83
455.233	213.62
455.444	238.62
455.654	192.7
455.864	211.1
456.075	242.88
456.285	209.94
456.495	252.57
456.705	270.2
456.916	306.43
457.126	292.67
457.336	238.23
457.546	193.28
457.756	208.97
457.967	261.48
458.177	236.1
458.387	220.4
458.597	226.8
458.807	235.71
459.017	254.12
459.227	276.01
459.437	204.52
459.647	290.73
459.857	276.01
460.068	224.08
460.278	271.17
460.488	267.68
460.698	296.93
460.908	248.3
461.117	210.14
461.327	221.18
461.537	251.6
461.747	256.05
461.957	268.45
462.167	377.92
462.377	288.8
462.587	262.06
462.797	323.48
463.007	288.99
463.216	276.98
463.426	306.23
463.636	304.68
463.846	242.68
464.056	250.63
464.265	306.04
464.475	261.67
464.685	274.65
464.895	299.45
465.104	275.04
465.314	302.36
465.524	250.82
465.733	280.85
465.943	344.01
466.153	333.94
466.362	324.64
466.572	302.75
466.782	287.25
466.991	265.35
467.201	328.13
467.41	247.92
467.62	299.84
467.829	267.29
468.039	302.16
468.249	307.59
468.458	306.43
468.668	318.05
468.877	322.31
469.086	322.12
469.296	317.86
469.505	284.15
469.715	366.1
469.924	336.65
470.134	359.13
470.343	358.93
470.552	302.94
470.762	298.68
470.971	286.08
471.18	321.15
471.39	327.35
471.599	281.43
471.808	335.1
472.018	294.42
472.227	368.62
472.436	351.18
472.645	322.9
472.855	315.53
473.064	371.72
473.273	351.57
473.482	365.13
473.691	388.19
473.901	399.43
474.11	361.84
474.319	414.93
474.528	361.45
474.737	422.68
474.946	374.63
475.155	386.83
475.364	401.17
475.573	394.97
475.783	380.25
475.992	423.64
476.201	434.49
476.41	347.31
476.619	331.03
476.828	399.23
477.037	348.66
477.245	371.91
477.454	419.77
477.663	360.87
477.872	386.06
478.081	470.92
478.29	349.83
478.499	481.19
478.708	421.51
478.917	464.72
479.125	406.59
479.334	437.59
479.543	396.52
479.752	417.25
479.961	400.59
480.169	460.26
480.378	410.08
480.587	536.02
480.796	431.01
481.004	417.83
481.213	462.78
481.422	462.39
481.63	457.94
481.839	489.71
482.048	502.69
482.256	445.15
482.465	469.56
482.674	489.91
482.882	501.72
483.091	524.59
483.299	484.29
483.508	479.25
483.716	474.99
483.925	492.04
484.134	453.09
484.342	471.5
484.551	502.5
484.759	496.69
484.967	529.24
485.176	548.22
485.384	543.19
485.593	517.42
485.801	517.81
486.01	504.24
486.218	495.14
486.426	413.76
486.635	453.48
486.843	459.68
487.051	456.58
487.26	463.94
487.468	470.14
487.676	499.98
487.885	476.92
488.093	511.22
488.301	510.83
488.509	504.24
488.717	564.89
488.926	539.12
489.134	500.37
489.342	522.65
489.55	522.84
489.758	531.76
489.967	500.37
490.175	613.71
490.383	519.94
490.591	578.45
490.799	526.52
491.007	597.05
491.215	547.64
491.423	566.05
491.631	561.79
491.839	561.2
492.047	584.07
492.255	522.46
492.463	505.99
492.671	551.91
492.879	611.58
493.087	566.82
493.295	559.85
493.503	600.34
493.711	595.3
493.919	617.78
494.127	624.75
494.334	626.3
494.542	576.9
494.75	589.3
494.958	590.85
495.166	631.54
495.374	629.02
495.581	611.58
495.789	619.14
495.997	680.55
496.205	606.15
496.412	608.09
496.62	592.79
496.828	646.65
497.035	604.41
497.243	623.2
497.451	637.93
497.658	612.35
497.866	646.26
498.074	692.18
498.281	636.96
498.489	731.51
498.696	656.14
498.904	621.27
499.112	643.94
499.319	690.05
499.527	598.21
499.734	687.14
499.942	627.27
500.149	635.41
500.357	643.74
500.564	626.3
500.771	671.64
500.979	633.47
501.186	614.1
501.394	673
501.601	654.4
501.808	688.88
502.016	661.76
502.223	664.47
502.43	661.37
502.638	622.04
502.845	641.22
503.052	718.92
503.26	647.62
503.467	757.86
503.674	704.97
503.881	698.96
504.089	754.76
504.296	712.52
504.503	671.25
504.71	658.08
504.917	650.33
505.125	698.96
505.332	696.25
505.539	711.75
505.746	780.72
505.953	739.65
506.16	739.06
506.367	785.18
506.574	777.43
506.781	772
506.988	704.19
507.195	708.65
507.402	725.12
507.609	763.28
507.816	720.08
508.023	716.59
508.23	736.35
508.437	679.97
508.644	741.39
508.851	802.03
509.058	790.41
509.265	750.5
509.472	768.71
509.679	855.51
509.885	762.9
510.092	757.08
510.299	764.25
510.506	792.54
510.713	788.86
510.92	803.58
511.126	750.5
511.333	781.3
511.54	815.79
511.746	847.76
511.953	832.84
512.16	865.97
512.367	806.68
512.573	809.59
512.78	818.31
512.987	771.03
513.193	796.03
513.4	747.4
513.606	782.46
513.813	813.66
514.02	808.81
514.226	849.89
514.433	839.04
514.639	759.99
514.846	808.23
515.052	827.61
515.259	811.14
515.465	853.96
515.672	823.34
515.878	934.56
516.085	816.37
516.291	875.85
516.497	827.41
516.704	854.34
516.91	805.33
517.117	752.24
517.323	711.55
517.529	774.33
517.736	761.54
517.942	805.71
518.148	773.36
518.354	819.47
518.561	813.66
518.767	816.18
518.973	860.93
519.179	869.65
519.386	856.67
519.592	795.83
519.798	828.58
520.004	928.94
520.21	892.13
520.417	940.76
520.623	914.21
520.829	946.57
521.035	924.87
521.241	927.39
521.447	951.02
521.653	1077.35
521.859	934.94
522.065	982.8
522.271	1007.99
522.477	1004.11
522.683	1024.84
522.889	1024.07
523.095	983.38
523.301	966.33
523.507	967.69
523.713	998.49
523.919	981.06
524.125	1042.09
524.331	1018.06
524.537	1067.85
524.742	1027.94
524.948	1058.55
525.154	1054.1
525.36	1158.14
525.566	1058.36
525.772	1139.35
525.977	1010.5
526.183	1054.68
526.389	1086.45
526.595	1012.25
526.8	1026.97
527.006	998.88
527.212	965.56
527.417	950.06
527.623	976.79
527.829	975.05
528.034	1040.34
528.24	1030.85
528.446	1042.09
528.651	1081.22
528.857	1080.64
529.062	1127.72
529.268	1105.44
529.473	1105.05
529.679	1086.45
529.884	1194.37
530.09	1184.88
530.295	1183.13
530.501	1162.21
530.706	1144.58
530.912	1102.34
531.117	1144.97
531.323	1126.37
531.528	1180.42
531.733	1172.86
531.939	1138.77
532.144	1147.87
532.35	1145.35
532.555	1154.07
532.76	1164.73
532.966	1202.12
533.171	1167.83
533.376	1109.7
533.581	1100.21
533.787	1144.97
533.992	1163.37
534.197	1188.36
534.402	1167.05
534.607	1163.37
534.813	1249.98
535.018	1162.98
535.223	1181.97
535.428	1218.2
535.633	1244.55
535.838	1216.46
536.043	1233.31
536.249	1294.34
536.454	1234.67
536.659	1257.92
536.864	1180.81
537.069	1202.7
537.274	1217.81
537.479	1209.29
537.684	1199.99
537.889	1155.62
538.094	1300.54
538.299	1238.16
538.504	1237.58
538.708	1222.08
538.913	1241.26
539.118	1253.27
539.323	1253.27
539.528	1184.88
539.733	1225.76
539.938	1249.4
540.142	1258.5
540.347	1228.47
540.552	1186.23
540.757	1238.35
540.962	1210.65
541.166	1168.6
541.371	1181.97
541.576	1208.13
541.781	1130.24
541.985	1216.65
542.19	1240.87
542.395	1284.08
542.599	1323.6
542.804	1277.49
543.008	1315.08
543.213	1235.25
543.418	1214.52
543.622	1280.2
543.827	1191.08
544.031	1311.2
544.236	1349.76
544.44	1265.28
544.645	1345.88
544.849	1247.07
545.054	1302.87
545.258	1364.09
545.463	1352.47
545.667	1247.65
545.872	1327.48
546.076	1288.73
546.281	1310.62
546.485	1253.85
546.689	1323.21
546.894	1355.96
547.098	1332.71
547.302	1244.55
547.507	1293.96
547.711	1309.84
547.915	1390.64
548.119	1284.66
548.324	1284.27
548.528	1349.56
548.732	1312.36
548.936	1387.54
549.141	1355.37
549.345	1325.34
549.549	1343.56
549.753	1346.27
549.957	1408.66
550.161	1408.85
550.366	1337.55
550.57	1283.3
550.774	1325.54
550.978	1311.01
551.182	1347.04
551.386	1317.98
551.59	1327.86
551.794	1326.89
551.998	1357.89
552.202	1302.09
552.406	1304.81
552.61	1315.27
552.814	1378.04
553.018	1397.03
553.222	1322.05
553.426	1311.98
553.63	1379.21
553.833	1327.09
554.037	1294.54
554.241	1348.79
554.445	1345.11
554.649	1322.83
554.853	1333.68
555.056	1393.35
555.26	1379.98
555.464	1365.84
555.668	1341.81
555.871	1375.91
556.075	1370.87
556.279	1316.04
556.483	1266.83
556.686	1299.58
556.89	1312.94
557.094	1316.43
557.297	1290.08
557.501	1359.06
557.704	1280.98
557.908	1365.45
558.112	1281.94
558.315	1385.41
558.519	1298.22
558.722	1295.7
558.926	1302.68
559.129	1245.52
559.333	1219.95
559.536	1248.43
559.74	1232.93
559.943	1224.98
560.147	1227.31
560.35	1261.99
560.553	1246.3
560.757	1208.13
560.96	1333.68
561.164	1248.62
561.367	1325.34
561.57	1267.22
561.774	1288.73
561.977	1257.53
562.18	1262.38
562.384	1346.08
562.587	1263.34
562.79	1263.93
562.993	1251.14
563.197	1295.31
563.4	1334.06
563.603	1299.38
563.806	1325.54
564.009	1245.91
564.212	1255.4
564.416	1207.16
564.619	1292.99
564.822	1198.25
565.025	1331.54
565.228	1292.99
565.431	1267.61
565.634	1201.35
565.837	1217.04
566.04	1198.44
566.243	1213.16
566.446	1112.61
566.649	1230.21
566.852	1156.01
567.055	1200.57
567.258	1227.31
567.461	1261.79
567.664	1279.81
567.867	1154.85
568.07	1237.58
568.273	1195.53
568.475	1283.3
568.678	1180.61
568.881	1196.11
569.084	1184.1
569.287	1100.79
569.489	1126.17
569.692	1183.13
569.895	1211.42
570.098	1110.28
570.3	1158.33
570.503	1086.84
570.706	1115.13
570.909	1102.34
571.111	1084.71
571.314	1066.69
571.516	1121.91
571.719	1109.32
571.922	1095.56
572.124	1111.25
572.327	1148.65
572.529	1072.12
572.732	1063.59
572.935	1125.59
573.137	1161.05
573.34	1106.99
573.542	1150.97
573.745	1142.45
573.947	1118.23
574.15	1085.68
574.352	1078.7
574.554	1163.76
574.757	1076.96
574.959	1079.48
575.162	1037.24
575.364	1060.1
575.566	1187.2
575.769	1063.01
575.971	1084.52
576.173	999.65
576.376	1039.95
576.578	1096.53
576.78	1136.44
576.982	1013.22
577.185	1072.7
577.387	1050.8
577.589	1038.4
577.791	1082
577.993	1085.68
578.196	1036.66
578.398	1061.85
578.6	1097.3
578.802	1015.15
579.004	1000.04
579.206	1017.48
579.408	1061.46
579.61	1019.03
579.812	1057.39
580.014	1035.11
580.216	1015.93
580.418	1045.19
580.62	1009.15
580.822	965.94
581.024	994.04
581.226	1048.67
581.428	1048.67
581.63	1080.64
581.832	1002.56
582.034	1085.87
582.236	1033.95
582.438	1083.55
582.64	1088
582.841	1090.13
583.043	1150.97
583.245	1095.37
583.447	1096.14
583.649	1045.57
583.85	1060.1
584.052	1087.03
584.254	1037.82
584.456	1066.89
584.657	1006.05
584.859	1062.82
585.061	1056.81
585.262	1006.82
585.464	1011.47
585.666	1046.35
585.867	1050.42
586.069	1077.54
586.27	1066.11
586.472	1018.06
586.674	1008.18
586.875	1022.32
587.077	999.27
587.278	1051.39
587.48	1037.05
587.681	1138.57
587.883	1062.82
588.084	978.15
588.285	1004.89
588.487	998.49
588.688	1025.81
588.89	928.36
589.091	945.99
589.292	956.64
589.494	930.87
589.695	892.51
589.896	841.94
590.098	825.09
590.299	895.81
590.5	872.94
590.702	904.91
590.903	933.39
591.104	987.45
591.305	959.94
591.507	1000.04
591.708	955.87
591.909	944.44
592.11	1019.42
592.311	979.51
592.512	933.97
592.714	906.46
592.915	910.34
593.116	938.62
593.317	952.77
593.518	945.02
593.719	936.11
593.92	967.49
594.121	987.84
594.322	956.45
594.523	932.04
594.724	910.92
594.925	926.61
595.126	959.55
595.327	987.45
595.528	951.61
595.729	952.96
595.929	945.6
596.13	966.33
596.331	968.07
596.532	970.79
596.733	1024.65
596.934	985.9
597.135	999.27
597.335	987.64
597.536	894.45
597.737	948.89
597.938	931.46
598.138	959.36
598.339	942.89
598.54	941.14
598.74	948.89
598.941	935.33
599.142	979.12
599.342	980.86
599.543	912.27
599.744	929.91
599.944	935.72
600.145	924.29
600.345	963.42
600.546	1016.12
600.746	994.04
600.947	1035.5
601.147	984.16
601.348	987.84
601.548	950.44
601.749	965.94
601.949	913.05
602.15	925.06
602.35	935.91
602.551	1011.28
602.751	934.56
602.951	946.37
603.152	878.95
603.352	972.14
603.552	952.19
603.753	960.52
603.953	978.34
604.153	935.91
604.354	937.27
604.554	929.32
604.754	948.89
604.954	903.94
605.155	957.22
605.355	903.75
605.555	990.36
605.755	966.91
605.955	943.86
606.155	958.39
606.356	939.79
606.556	984.16
606.756	949.28
606.956	902.78
607.156	991.91
607.356	906.46
607.556	953.93
607.756	940.17
607.956	978.92
608.156	933.39
608.356	900.26
608.556	959.55
608.756	900.26
608.956	882.63
609.156	927.58
609.356	911.11
609.556	910.72
609.755	933.39
609.955	895.23
610.155	907.24
610.355	924.09
610.555	889.22
610.755	911.11
610.954	816.95
611.154	900.84
611.354	985.32
611.554	859.58
611.753	882.63
611.953	840.98
612.153	937.66
612.352	894.45
612.552	850.28
612.752	806.49
612.951	908.79
613.151	883.02
613.351	855.51
613.55	877.98
613.75	937.85
613.949	865.58
614.149	887.86
614.348	870.81
614.548	790.6
614.747	804.16
614.947	844.66
615.146	811.91
615.346	900.07
615.545	892.13
615.745	868.29
615.944	861.51
616.144	861.13
616.343	888.44
616.542	825.67
616.742	856.67
616.941	815.01
617.14	789.25
617.34	801.45
617.539	872.56
617.738	818.7
617.938	886.51
618.137	833.03
618.336	825.86
618.535	865.58
618.734	831.68
618.934	836.91
619.133	822.76
619.332	852.41
619.531	812.3
619.73	836.52
619.929	864.42
620.128	849.69
620.328	890.38
620.527	815.79
620.726	834.39
620.925	847.76
621.124	805.13
621.323	842.33
621.522	784.4
621.721	802.81
621.92	765.22
622.119	810.36
622.318	789.63
622.517	813.85
622.715	826.44
622.914	760.38
623.113	809.01
623.312	772.97
623.511	809.01
623.71	776.85
623.909	780.33
624.107	837.29
624.306	754.95
624.505	769.87
624.704	787.89
624.902	776.46
625.101	864.81
625.3	803.39
625.499	788.08
625.697	757.86
625.896	760.57
626.095	784.01
626.293	749.14
626.492	746.04
626.69	809.98
626.889	745.46
627.088	799.71
627.286	753.6
627.485	788.47
627.683	753.79
627.882	793.51
628.08	687.53
628.279	740.23
628.477	806.49
628.676	736.16
628.874	755.73
629.073	725.7
629.271	709.42
629.469	772.78
629.668	703.03
629.866	763.86
630.065	738.68
630.263	748.17
630.461	716.01
630.66	748.17
630.858	784.21
631.056	784.4
631.254	760.96
631.453	712.52
631.651	745.07
631.849	751.46
632.047	772.97
632.245	732.48
632.444	736.93
632.642	783.63
632.84	731.51
633.038	734.61
633.236	718.92
633.434	709.03
633.632	704.97
633.83	710.39
634.028	764.83
634.227	762.12
634.425	810.36
634.623	760.96
634.821	750.5
635.019	759.02
635.216	725.5
635.414	789.25
635.612	730.93
635.81	720.08
636.008	791.57
636.206	719.11
636.404	763.86
636.602	722.21
636.8	774.52
636.997	793.12
637.195	786.53
637.393	746.04
637.591	813.85
637.789	737.51
637.986	753.6
638.184	772
638.382	800.29
638.58	796.61
638.777	790.21
638.975	751.46
639.173	765.03
639.37	756.7
639.568	747.78
639.765	770.45
639.963	710.2
640.161	798.35
640.358	744.1
640.556	721.43
640.753	736.74
640.951	699.93
641.148	740.23
641.346	712.13
641.543	749.53
641.741	739.65
641.938	712.13
642.136	697.02
642.333	697.8
642.531	752.24
642.728	778.59
642.925	727.44
643.123	722.79
643.32	723.57
643.517	705.93
643.715	723.76
643.912	695.47
644.109	713.1
644.306	705.74
644.504	671.83
644.701	715.43
644.898	750.69
645.095	690.63
645.293	704.97
645.49	764.83
645.687	709.42
645.884	736.35
646.081	679.2
646.278	676.29
646.475	689.66
646.672	666.22
646.87	708.26
647.067	702.83
647.264	704
647.461	661.95
647.658	639.87
647.855	739.65
648.052	677.65
648.249	602.47
648.446	652.07
648.642	643.55
648.839	639.87
649.036	639.87
649.233	616.62
649.43	642.39
649.627	601.12
649.824	644.32
650.021	618.75
650.217	609.64
650.414	586.39
650.611	654.78
650.808	642.39
651.004	657.5
651.201	652.85
651.398	713.88
651.595	653.62
651.791	622.62
651.988	649.36
652.185	620.88
652.381	692.37
652.578	585.04
652.775	660.79
652.971	624.37
653.168	629.21
653.364	672.61
653.561	581.55
653.757	626.89
653.954	657.69
654.15	598.6
654.347	682.88
654.543	641.8
654.74	597.05
654.936	606.15
655.133	655.56
655.329	635.02
655.525	629.4
655.722	632.31
655.918	598.4
656.115	622.82
656.311	530.4
656.507	554.81
656.704	495.33
656.9	537.57
657.096	530.59
657.292	506.76
657.489	577.48
657.685	583.49
657.881	537.37
658.077	548.03
658.273	566.05
658.47	640.25
658.666	576.12
658.862	617.39
659.058	576.7
659.254	630.57
659.45	570.7
659.646	594.92
659.842	584.45
660.038	634.05
660.234	564.11
660.43	592.2
660.626	680.55
660.822	630.37
661.018	638.32
661.214	611.39
661.41	540.86
661.606	645.49
661.802	649.17
661.998	592.79
662.194	571.28
662.39	608.48
662.586	596.47
662.781	618.36
662.977	614.49
663.173	636.19
663.369	596.85
663.564	607.51
663.76	624.95
663.956	592.59
664.152	664.67
664.347	540.09
664.543	592.4
664.739	565.85
664.934	548.81
665.13	518.19
665.326	596.08
665.521	587.75
665.717	577.09
665.912	535.44
666.108	502.89
666.304	548.42
666.499	598.6
666.695	488.36
666.89	570.7
667.086	624.17
667.281	589.3
667.477	651.68
667.672	593.56
667.867	568.18
668.063	572.44
668.258	535.63
668.454	558.69
668.649	613.9
668.844	581.94
669.04	583.29
669.235	542.8
669.43	545.12
669.626	510.83
669.821	571.09
670.016	512.77
670.211	535.44
670.407	526.72
670.602	554.62
670.797	532.92
670.992	573.02
671.187	520.71
671.382	579.42
671.578	521.1
671.773	570.12
671.968	522.07
672.163	543.19
672.358	548.22
672.553	520.32
672.748	509.47
672.943	603.44
673.138	564.5
673.333	579.61
673.528	504.44
673.723	579.42
673.918	536.41
674.113	476.73
674.308	599.76
674.503	545.12
674.698	556.75
674.892	549.58
675.087	580.39
675.282	536.6
675.477	510.25
675.672	560.43
675.867	547.64
676.061	530.4
676.256	491.07
676.451	510.06
676.646	535.44
676.84	505.6
677.035	489.52
677.23	507.92
677.424	550.36
677.619	568.95
677.814	532.72
678.008	578.84
678.203	475.76
678.397	480.41
678.592	554.81
678.787	581.94
678.981	510.25
679.176	557.14
679.37	553.07
679.565	492.23
679.759	494.36
679.954	538.54
680.148	574.96
680.342	559.27
680.537	532.53
680.731	507.34
680.926	564.69
681.12	561.4
681.314	484.87
681.509	505.79
681.703	524.59
681.897	556.17
682.092	533.31
682.286	488.55
682.48	611
682.674	565.47
682.869	522.07
683.063	506.18
683.257	591.43
683.451	501.14
683.645	545.51
683.839	540.09
684.034	531.76
684.228	558.3
684.422	504.82
684.616	496.3
684.81	528.46
685.004	525.75
685.198	524.01
685.392	578.45
685.586	513.93
685.78	534.86
685.974	574.77
686.168	547.64
686.362	566.63
686.556	482.54
686.75	449.03
686.944	494.17
687.138	511.8
687.331	377.34
687.525	436.43
687.719	365.13
687.913	433.14
688.107	426.16
688.301	376.76
688.494	440.69
688.688	415.12
688.882	396.33
689.076	405.82
689.269	453.87
689.463	514.51
689.657	427.13
689.85	441.66
690.044	418.99
690.238	455.23
690.431	455.81
690.625	459.29
690.818	450.77
691.012	496.69
691.205	506.18
691.399	458.33
691.593	480.61
691.786	528.66
691.98	545.9
692.173	594.92
692.366	519.94
692.56	555.39
692.753	576.12
692.947	506.37
693.14	590.46
693.333	567.4
693.527	518.58
693.72	578.64
693.914	540.67
694.107	540.86
694.3	580.39
694.493	549.77
694.687	593.95
694.88	565.85
695.073	623.79
695.266	633.09
695.46	572.44
695.653	632.31
695.846	643.94
696.039	530.98
696.232	603.05
696.425	627.85
696.618	676.48
696.812	650.13
697.005	696.25
697.198	758.05
697.391	690.43
697.584	689.27
697.777	746.23
697.97	719.88
698.163	725.89
698.356	706.32
698.549	781.11
698.742	728.8
698.935	702.64
699.127	721.05
699.32	692.18
699.513	683.65
699.706	752.63
699.899	757.28
700.092	713.1
700.285	765.41
700.477	710.2
700.67	744.68
700.863	781.11
701.056	853.18
701.248	803.2
701.441	854.34
701.634	786.73
701.826	874.3
702.019	782.66
702.212	846.4
702.404	795.06
702.597	787.5
702.79	847.95
702.982	836.91
703.175	870.23
703.367	907.24
703.56	888.44
703.752	968.07
703.945	923.71
704.137	940.95
704.33	932.81
704.522	970.79
704.715	945.79
704.907	983.77
705.1	1006.24
705.292	1007.99
705.484	982.8
705.677	1022.71
705.869	1021.35
706.061	1038.79
706.254	1077.74
706.446	1064.17
706.638	1027.17
706.831	1097.3
707.023	1062.24
707.215	1140.9
707.407	1117.45
707.599	1095.17
707.792	1133.53
707.984	1164.34
708.176	1154.27
708.368	1148.45
708.56	1141.28
708.752	1151.55
708.944	1141.87
709.136	1178.68
709.329	1163.18
709.521	1275.16
709.713	1227.89
709.905	1248.04
710.097	1286.79
710.289	1202.7
710.481	1249.01
710.672	1241.84
710.864	1274.58
711.056	1359.64
711.248	1295.89
711.44	1328.25
711.632	1290.08
711.824	1299.77
712.016	1375.33
712.207	1350.92
712.399	1353.82
712.591	1415.44
712.783	1364.29
712.975	1397.42
713.166	1333.87
713.358	1341.81
713.55	1459.8
713.741	1435
713.933	1393.93
714.125	1411.37
714.316	1390.44
714.508	1482.67
714.7	1479.76
714.891	1461.74
715.083	1555.71
715.274	1450.31
715.466	1475.11
715.657	1509.99
715.849	1451.47
716.04	1479.18
716.232	1411.95
716.423	1501.27
716.615	1424.35
716.806	1395.29
716.998	1376.3
717.189	1341.43
717.381	1274.39
717.572	1256.76
717.763	1277.68
717.955	1288.92
718.146	1239.51
718.337	1219.56
718.528	1187.01
718.72	1126.56
718.911	1184.1
719.102	1170.35
719.293	1202.31
719.485	1173.83
719.676	1144.58
719.867	1136.63
720.058	1147.48
720.249	1165.5
720.44	1212.58
720.632	1196.11
720.823	1233.7
721.014	1323.79
721.205	1328.25
721.396	1357.89
721.587	1447.02
721.778	1468.52
721.969	1495.65
722.16	1517.74
722.351	1506.5
722.542	1640.76
722.733	1639.6
722.924	1541.37
723.115	1579.73
723.305	1617.13
723.496	1645.61
723.687	1526.26
723.878	1531.3
724.069	1531.68
724.26	1526.45
724.45	1493.9
724.641	1464.84
724.832	1528.58
725.023	1534.2
725.213	1476.47
725.404	1478.02
725.595	1540.21
725.785	1472.59
725.976	1529.55
726.167	1522.38
726.357	1551.83
726.548	1609.38
726.739	1540.21
726.929	1594.46
727.12	1639.21
727.31	1609.18
727.501	1594.27
727.691	1581.48
727.882	1625.65
728.072	1662.27
728.263	1630.3
728.453	1657.23
728.644	1717.68
728.834	1661.88
729.024	1654.13
729.215	1626.43
729.405	1676.03
729.596	1728.92
729.786	1756.04
729.976	1767.48
730.167	1762.44
730.357	1674.09
730.547	1740.93
730.737	1746.55
730.928	1801.19
731.118	1852.72
731.308	1767.48
731.498	1804.29
731.688	1890.5
731.879	1866.67
732.069	1878.88
732.259	1871.52
732.449	1907.75
732.639	1962.19
732.829	2029.81
733.019	2025.74
733.209	2041.43
733.399	2085.41
733.589	2124.94
733.779	2139.86
733.969	2151.68
734.159	2157.29
734.349	2233.44
734.539	2269.47
734.729	2233.82
734.919	2292.14
735.109	2304.16
735.299	2233.82
735.488	2278.58
735.678	2291.37
735.868	2295.05
736.058	2300.67
736.248	2279.16
736.437	2226.27
736.627	2241.77
736.817	2301.83
737.007	2265.6
737.196	2320.24
737.386	2300.09
737.576	2300.47
737.765	2352.59
737.955	2305.32
738.144	2398.7
738.334	2376.04
738.524	2356.66
738.713	2381.65
738.903	2359.37
739.092	2407.81
739.282	2406.26
739.471	2414.98
739.661	2386.69
739.85	2412.65
740.04	2432.03
740.229	2427.77
740.419	2478.33
740.608	2463.61
740.797	2490.15
740.987	2540.33
741.176	2515.15
741.365	2459.73
741.555	2466.32
741.744	2535.1
741.933	2462.83
742.123	2526
742.312	2500.81
742.501	2572.11
742.69	2580.63
742.88	2502.16
743.069	2614.15
743.258	2554.86
743.447	2589.93
743.636	2620.16
743.825	2579.08
744.014	2550.8
744.204	2547.5
744.393	2528.13
744.582	2594.97
744.771	2596.52
744.96	2542.46
745.149	2577.73
745.338	2567.26
745.527	2625.19
745.716	2563.39
745.905	2553.12
746.094	2594.39
746.283	2609.11
746.471	2615.89
746.66	2660.26
746.849	2633.53
747.038	2682.54
747.227	2581.79
747.416	2674.41
747.604	2643.02
747.793	2626.74
747.982	2596.91
748.171	2634.69
748.359	2674.41
748.548	2605.04
748.737	2642.05
748.926	2593.42
749.114	2548.66
749.303	2594.97
749.491	2609.69
749.68	2589.16
749.869	2643.99
750.057	2584.12
750.246	2592.64
750.434	2575.4
750.623	2618.8
750.811	2545.18
751	2646.7
751.188	2556.03
751.377	2610.86
751.565	2596.91
751.754	2547.89
751.942	2531.61
752.131	2638.56
752.319	2564.36
752.507	2534.33
752.696	2579.66
752.884	2611.83
753.072	2569.2
753.261	2587.99
753.449	2606.21
753.637	2568.43
753.825	2644.57
754.014	2554.28
754.202	2585.48
754.39	2657.55
754.578	2610.66
754.766	2540.72
754.955	2549.63
755.143	2607.18
755.331	2514.95
755.519	2558.93
755.707	2551.96
755.895	2538.59
756.083	2537.62
756.271	2518.25
756.459	2525.61
756.647	2568.81
756.835	2514.56
757.023	2520.57
757.211	2511.46
757.399	2485.31
757.587	2472.13
757.775	2433.97
757.963	2481.24
758.151	2492.48
758.339	2451.4
758.526	2443.85
758.714	2447.72
758.902	2392.31
759.09	2292.34
759.278	2187.52
759.465	2008.3
759.653	1741.51
759.841	1604.15
760.028	1344.72
760.216	1158.33
760.404	1138.18
760.591	931.84
760.779	797
760.967	690.82
761.154	577.87
761.342	601.12
761.529	621.46
761.717	661.18
761.905	646.45
762.092	692.37
762.28	640.06
762.467	659.63
762.655	587.36
762.842	611
763.029	613.71
763.217	656.14
763.404	642.39
763.592	661.18
763.779	607.51
763.966	669.12
764.154	682.68
764.341	783.24
764.528	750.11
764.716	792.73
764.903	836.13
765.09	876.43
765.277	926.42
765.465	1054.29
765.652	1092.85
765.839	1147.48
766.026	1245.91
766.213	1265.28
766.4	1341.04
766.588	1468.72
766.775	1466.39
766.962	1584.97
767.149	1617.71
767.336	1739.38
767.523	1679.51
767.71	1783.17
767.897	1856.79
768.084	1927.9
768.271	1957.93
768.458	1992.8
768.645	2005.01
768.832	1996.87
769.019	2014.5
769.206	2062.36
769.392	2099.17
769.579	2210.77
769.766	2138.5
769.953	2157.88
770.14	2211.74
770.327	2184.42
770.513	2272.19
770.7	2315
770.887	2232.47
771.073	2237.31
771.26	2233.44
771.447	2202.05
771.634	2234.79
771.82	2313.84
772.007	2220.07
772.193	2207.67
772.38	2312.68
772.567	2244.48
772.753	2247.97
772.94	2313.26
773.126	2302.61
773.313	2279.74
773.499	2255.72
773.686	2270.25
773.872	2243.51
774.059	2263.66
774.245	2191.98
774.432	2242.35
774.618	2152.64
774.804	2218.33
774.991	2188.29
775.177	2240.61
775.363	2190.81
775.55	2233.82
775.736	2182.68
775.922	2220.65
776.109	2240.02
776.295	2215.81
776.481	2204.96
776.667	2237.12
776.853	2177.06
777.04	2169.89
777.226	2203.41
777.412	2255.72
777.598	2157.88
777.784	2148.58
777.97	2136.95
778.156	2214.84
778.342	2142.96
778.528	2138.31
778.715	2100.14
778.901	2118.16
779.087	2180.74
779.272	2115.06
779.458	2131.33
779.644	2136.95
779.83	2131.14
780.016	2223.94
780.202	2165.43
780.388	2107.5
780.574	2056.35
780.76	2097.04
780.946	2163.49
781.131	2072.24
781.317	2102.66
781.503	2072.43
781.689	2086.77
781.874	2209.03
782.06	2103.24
782.246	2065.46
782.432	2081.54
782.617	2090.45
782.803	2140.63
782.989	1992.61
783.174	2064.1
783.36	1999.78
783.545	2010.43
783.731	2047.25
783.916	1947.85
784.102	2059.26
784.288	2000.94
784.473	2029.42
784.659	1977.69
784.844	2070.3
785.029	1975.75
785.215	2011.6
785.4	1959.09
785.586	2041.43
785.771	1965.29
785.956	1995.52
786.142	1949.4
786.327	1956.96
786.512	1943.4
786.698	1950.76
786.883	1892.25
787.068	1940.88
787.254	1949.99
787.439	1903.29
787.624	1921.7
787.809	1901.35
787.994	1901.55
788.18	1926.74
788.365	1849.43
788.55	1875
788.735	1872.29
788.92	1861.25
789.105	1840.91
789.29	1910.65
789.475	1820.95
789.66	1851.37
789.845	1831.22
790.03	1814.36
790.215	1854.86
790.4	1865.32
790.585	1904.84
790.77	1800.99
790.955	1762.44
791.14	1834.71
791.325	1872.49
791.51	1737.83
791.695	1816.11
791.879	1818.43
792.064	1745.97
792.249	1852.34
792.434	1793.05
792.618	1829.67
792.803	1835.09
792.988	1824.63
793.173	1807.77
793.357	1819.79
793.542	1726.79
793.727	1782.2
793.911	1824.44
794.096	1817.46
794.281	1856.21
794.465	1894.96
794.65	1784.33
794.834	1800.41
795.019	1863.38
795.203	1862.8
795.388	1833.93
795.572	1876.94
795.757	1858.54
795.941	1866.48
796.126	1826.37
796.31	1806.42
796.494	1830.44
796.679	1834.12
796.863	1841.68
797.048	1913.37
797.232	1868.03
797.416	1839.74
797.601	1820.76
797.785	1875.59
797.969	1891.86
798.153	1828.31
798.338	1846.52
798.522	1898.45
798.706	1873.45
798.89	1849.24
799.074	1957.93
799.258	1917.24
799.443	1853.69
799.627	1868.22
799.811	1890.31
799.995	1857.76
800.179	1814.17
800.363	1849.04
800.547	1882.56
800.731	1915.11
800.915	1755.85
801.099	1806.61
801.283	1874.23
801.467	1868.22
801.651	1825.6
801.835	1918.79
802.019	1828.12
802.202	1882.75
802.386	1804.67
802.57	1795.76
802.754	1806.42
802.938	1789.95
803.121	1785.11
803.305	1852.72
803.489	1858.34
803.673	1847.11
803.856	1890.12
804.04	1842.84
804.224	1899.8
804.407	1885.08
804.591	1821.72
804.775	1823.08
804.958	1870.36
805.142	1931
805.326	1820.37
805.509	1825.99
805.693	1910.85
805.876	1894.57
806.06	1888.18
806.243	1876.17
806.427	1898.64
806.61	1900.58
806.794	1863.57
806.977	1891.86
807.16	1877.33
807.344	1888.18
807.527	1889.34
807.71	1877.91
807.894	1889.34
808.077	1890.31
808.26	1861.64
808.444	1829.86
808.627	1855.63
808.81	1808.94
808.993	1804.67
809.177	1771.74
809.36	1824.44
809.543	1842.84
809.726	1767.09
809.909	1741.32
810.092	1735.89
810.276	1743.26
810.459	1780.07
810.642	1726.79
810.825	1674.28
811.008	1754.88
811.191	1638.05
811.374	1620.42
811.557	1687.07
811.74	1749.07
811.923	1666.73
812.106	1652.58
812.289	1612.48
812.472	1615.38
812.654	1668.86
812.837	1646.58
813.02	1541.57
813.203	1572.37
813.386	1444.3
813.569	1452.64
813.751	1422.99
813.934	1493.32
814.117	1446.63
814.3	1406.91
814.482	1369.52
814.665	1353.05
814.848	1324.96
815.03	1286.98
815.213	1294.73
815.396	1266.06
815.578	1249.01
815.761	1209.68
815.943	1320.11
816.126	1206.77
816.309	1201.54
816.491	1119.78
816.674	1102.92
816.856	1154.85
817.039	1119
817.221	1194.76
817.403	1155.23
817.586	1177.51
817.768	1168.22
817.951	1138.77
818.133	1094.59
818.315	1145.35
818.498	1177.9
818.68	1237.96
818.862	1168.22
819.045	1215.3
819.227	1188.36
819.409	1165.7
819.591	1190.11
819.774	1170.54
819.956	1154.65
820.138	1228.47
820.32	1203.67
820.502	1223.82
820.684	1314.11
820.866	1292.6
821.048	1340.07
821.231	1326.12
821.413	1327.67
821.595	1334.64
821.777	1315.46
821.959	1324.38
822.141	1389.28
822.323	1269.54
822.505	1226.53
822.686	1206.38
822.868	1142.83
823.05	1079.09
823.232	1051.77
823.414	981.83
823.596	1069.6
823.778	1029.3
823.96	1090.72
824.141	1061.07
824.323	1050.42
824.505	1117.84
824.687	1176.93
824.868	1203.09
825.05	1297.06
825.232	1283.88
825.413	1362.35
825.595	1301.71
825.777	1231.76
825.958	1295.31
826.14	1291.63
826.321	1315.08
826.503	1289.89
826.685	1293.96
826.866	1327.28
827.048	1332.13
827.229	1278.46
827.411	1240.68
827.592	1220.91
827.773	1188.56
827.955	1150.2
828.136	1206.77
828.318	1143.03
828.499	1196.7
828.68	1123.85
828.862	1169.57
829.043	1198.05
829.224	1158.33
829.406	1155.23
829.587	1128.88
829.768	1152.33
829.949	1173.45
830.131	1164.53
830.312	1218.4
830.493	1171.12
830.674	1200.18
830.855	1160.47
831.036	1143.61
831.218	1186.23
831.399	1220.53
831.58	1164.53
831.761	1183.52
831.942	1195.73
832.123	1161.63
832.304	1118.23
832.485	1143.61
832.666	1161.05
832.847	1156.2
833.028	1164.73
833.209	1151.75
833.389	1154.07
833.57	1093.43
833.751	1130.63
833.932	1209.1
834.113	1159.11
834.294	1142.25
834.475	1189.72
834.655	1181.2
834.836	1194.18
835.017	1224.98
835.198	1121.91
835.378	1156.4
835.559	1195.92
835.74	1164.92
835.92	1154.85
836.101	1186.04
836.281	1213.94
836.462	1161.63
836.643	1239.9
836.823	1229.25
837.004	1242.61
837.184	1259.47
837.365	1224.01
837.545	1253.66
837.726	1234.09
837.906	1274.97
838.087	1202.7
838.267	1194.37
838.448	1188.95
838.628	1237
838.808	1211.03
838.989	1265.67
839.169	1177.32
839.349	1253.46
839.53	1250.56
839.71	1208.71
839.89	1191.27
840.07	1242.23
840.251	1171.32
840.431	1247.65
840.611	1190.88
840.791	1191.46
840.971	1179.26
841.151	1193.01
841.332	1197.28
841.512	1241.84
841.692	1146.13
841.872	1206.96
842.052	1208.13
842.232	1196.89
842.412	1155.62
842.592	1205.8
842.772	1199.02
842.952	1193.21
843.132	1149.81
843.312	1174.41
843.492	1157.17
843.672	1238.16
843.851	1149.62
844.031	1166.67
844.211	1175.58
844.391	1123.27
844.571	1181.39
844.751	1212.97
844.93	1179.84
845.11	1146.9
845.29	1173.45
845.47	1179.45
845.649	1167.63
845.829	1212.2
846.009	1144.38
846.188	1191.66
846.368	1162.79
846.547	1152.91
846.727	1175.19
846.907	1125.01
847.086	1178.68
847.266	1172.09
847.445	1185.46
847.625	1131.6
847.804	1125.01
847.984	1145.35
848.163	1122.88
848.343	1132.76
848.522	1146.32
848.701	1174.03
848.881	1079.29
849.06	1117.65
849.239	1174.61
849.419	1108.73
849.598	1093.43
849.777	1083.94
849.957	1082.19
850.136	1037.44
850.315	1024.84
850.494	1066.5
850.674	1041.89
850.853	1069.79
851.032	1055.45
851.211	1112.22
851.39	1064.56
851.569	1025.62
851.748	1031.04
851.927	1077.54
852.107	1078.7
852.286	1018.45
852.465	992.29
852.644	1069.6
852.823	1077.35
853.002	1031.62
853.181	1046.93
853.359	1055.65
853.538	1002.37
853.717	1107.96
853.896	966.33
854.075	921.77
854.254	943.08
854.433	881.08
854.611	928.36
854.79	867.33
854.969	930.68
855.148	940.76
855.327	932.62
855.505	940.56
855.684	929.13
855.863	937.27
856.041	921.96
856.22	984.54
856.399	930.1
856.577	1032.98
856.756	1011.09
856.934	1115.52
857.113	1115.52
857.291	995.59
857.47	994.23
857.648	1027.17
857.827	1023.68
858.005	1059.91
858.184	966.72
858.362	1093.62
858.541	997.91
858.719	1005.47
858.898	985.9
859.076	1018.84
859.254	1059.72
859.433	988.81
859.611	984.35
859.789	948.7
859.967	1059.14
860.146	1090.13
860.324	963.62
860.502	963.62
860.68	926.81
860.859	976.79
861.037	965.36
861.215	971.17
861.393	995.2
861.571	959.16
861.749	935.72
861.927	974.86
862.105	999.85
862.283	945.41
862.461	931.65
862.639	885.54
862.817	925.45
862.995	977.76
863.173	910.34
863.351	959.74
863.529	956.45
863.707	977.96
863.885	943.47
864.063	918.86
864.241	902.39
864.418	984.93
864.596	926.42
864.774	889.41
864.952	939.59
865.129	926.42
865.307	914.41
865.485	846.4
865.663	941.53
865.84	862.48
866.018	895.61
866.196	789.05
866.373	829.16
866.551	812.3
866.728	748.95
866.906	789.05
867.084	778.59
867.261	843.11
867.439	846.79
867.616	880.31
867.794	835.55
867.971	848.34
868.149	859.96
868.326	937.85
868.503	867.13
868.681	846.98
868.858	868.49
869.035	843.69
869.213	865.19
869.39	853.96
869.567	920.41
869.745	854.15
869.922	886.31
870.099	908.21
870.276	882.83
870.454	902.59
870.631	879.92
870.808	844.66
870.985	875.85
871.162	941.34
871.339	884.38
871.517	816.76
871.694	829.16
871.871	847.95
872.048	822.96
872.225	833.61
872.402	848.14
872.579	805.13
872.756	880.89
872.933	794.28
873.11	806.1
873.287	836.91
873.463	815.79
873.64	803.58
873.817	855.89
873.994	811.72
874.171	813.08
874.348	820.83
874.524	752.24
874.701	813.27
874.878	753.4
875.055	836.13
875.231	824.12
875.408	828.38
875.585	753.21
875.762	817.73
875.938	808.81
876.115	788.08
876.291	791.96
876.468	806.49
876.645	736.74
876.821	784.4
876.998	758.25
877.174	833.81
877.351	773.75
877.527	757.86
877.704	774.33
877.88	763.67
878.057	766.77
878.233	830.32
878.409	757.86
878.586	814.82
878.762	782.85
878.938	757.47
879.115	715.82
879.291	777.23
879.467	706.13
879.644	731.12
879.82	758.25
879.996	742.55
880.172	660.6
880.349	750.3
880.525	750.88
880.701	711.75
880.877	697.02
881.053	745.85
881.229	742.75
881.405	783.63
881.581	692.76
881.757	709.23
881.933	722.4
882.109	753.6
882.285	713.49
882.461	693.34
882.637	740.03
882.813	678.62
882.989	713.68
883.165	778.01
883.341	690.43
883.517	753.6
883.693	768.9
883.869	756.11
884.044	700.32
884.22	746.23
884.396	784.98
884.572	745.26
884.747	775.68
884.923	717.75
885.099	780.91
885.275	773.75
885.45	699.54
885.626	707.87
885.801	696.83
885.977	701.87
886.153	685.59
886.328	746.81
886.504	713.88
886.679	750.69
886.855	688.88
887.03	722.79
887.206	775.3
887.381	728.22
887.557	736.16
887.732	717.56
887.908	761.73
888.083	791.18
888.258	710.58
888.434	722.02
888.609	735.19
888.784	759.41
888.96	694.5
889.135	705.35
889.31	701.48
889.485	762.12
889.661	702.45
889.836	751.85
890.011	734.61
890.186	685.59
890.361	683.65
890.537	723.95
890.712	721.05
890.887	728.6
891.062	715.23
891.237	779.56
891.412	707.48
891.587	720.85
891.762	760.18
891.937	751.46
892.112	686.37
892.287	726.47
892.462	685.4
892.637	641.42
892.812	663.5
892.987	656.14
893.161	644.32
893.336	689.27
893.511	664.86
893.686	670.87
893.861	659.24
894.035	665.25
894.21	659.24
894.385	616.81
894.56	633.86
894.734	591.82
894.909	610.22
895.084	603.44
895.258	608.67
895.433	621.07
895.608	592.98
895.782	520.71
895.957	584.84
896.131	548.03
896.306	511.8
896.48	518.58
896.655	572.25
896.829	498.62
897.004	467.63
897.178	502.5
897.353	480.41
897.527	528.07
897.701	507.54
897.876	462.78
898.05	513.93
898.224	498.24
898.399	556.94
898.573	500.76
898.747	420.16
898.921	481.19
899.096	374.24
899.27	377.15
899.444	415.51
899.618	399.62
899.792	427.33
899.967	415.89
900.141	475.96
900.315	403.11
900.489	451.35
900.663	444.57
900.837	426.16
901.011	378.31
901.185	471.31
901.359	446.89
901.533	434.11
901.707	415.7
901.881	468.79
902.055	399.23
902.229	411.24
902.403	472.47
902.576	423.84
902.75	465.69
902.924	541.64
903.098	485.64
903.272	498.24
903.446	522.65
903.619	491.65
903.793	540.28
903.967	500.76
904.14	547.84
904.314	530.4
904.488	539.12
904.661	543.96
904.835	528.46
905.009	582.13
905.182	609.06
905.356	553.46
905.529	550.16
905.703	495.91
905.876	504.24
906.05	497.85
906.223	481.57
906.397	435.46
906.57	437.4
906.744	429.26
906.917	426.94
907.09	432.94
907.264	429.84
907.437	420.35
907.61	382.38
907.784	410.66
907.957	413.96
908.13	356.8
908.304	436.43
908.477	362.81
908.65	393.81
908.823	348.86
908.996	432.56
909.17	385.48
909.343	391.29
909.516	404.27
909.689	372.88
909.862	384.12
910.035	385.67
910.208	374.63
910.381	353.51
910.554	449.99
910.727	389.93
910.9	359.9
911.073	376.95
911.246	424.03
911.419	415.7
911.592	423.06
911.765	373.85
911.938	353.51
912.11	368.04
912.283	372.11
912.456	387.8
912.629	408.53
912.802	338.4
912.974	326.96
913.147	304.49
913.32	283.76
913.493	325.41
913.665	349.83
913.838	338.4
914.01	322.31
914.183	315.15
914.356	320.96
914.528	367.65
914.701	397.88
914.873	368.04
915.046	333.75
915.218	277.17
915.391	244.62
915.563	301.78
915.736	326.19
915.908	348.47
916.081	332
916.253	326.96
916.425	324.64
916.598	348.47
916.77	358.55
916.942	283.57
917.115	243.07
917.287	323.28
917.459	296.55
917.632	292.67
917.804	274.46
917.976	278.14
918.148	299.26
918.32	290.35
918.493	357.96
918.665	368.81
918.837	345.56
919.009	391.29
919.181	404.85
919.353	355.25
919.525	342.08
919.697	332.58
919.869	332.58
920.041	418.61
920.213	422.29
920.385	384.31
920.557	343.63
920.729	356.22
920.901	348.47
921.073	369.78
921.244	337.81
921.416	351.57
921.588	343.05
921.76	329.29
921.932	410.86
922.103	364.75
922.275	350.02
922.447	357.96
922.619	266.13
922.79	319.8
922.962	297.32
923.134	370.17
923.305	255.47
923.477	264.58
923.648	304.1
923.82	301
923.991	263.03
924.163	271.94
924.335	290.93
924.506	276.2
924.677	331.23
924.849	273.88
925.02	289.38
925.192	306.23
925.363	291.12
925.535	321.35
925.706	275.62
925.877	358.93
926.049	263.42
926.22	292.87
926.391	309.53
926.562	291.9
926.734	291.32
926.905	301.39
927.076	228.35
927.247	288.6
927.419	227.77
927.59	214.2
927.761	276.4
927.932	239.58
928.103	249.66
928.274	203.16
928.445	208.2
928.616	205.1
928.787	233.77
928.958	253.34
929.129	245.2
929.3	204.13
929.471	193.47
929.642	146.97
929.813	110.36
929.984	199.87
930.155	97.18
930.326	192.5
930.496	145.81
930.667	85.36
930.838	145.04
931.009	94.27
931.18	94.27
931.35	137.09
931.521	166.93
931.692	80.52
931.863	68.12
932.033	84.97
932.204	109.39
932.374	105.9
932.545	84.59
932.716	125.47
932.886	108.03
933.057	49.91
933.227	35.96
933.398	137.87
933.568	43.9
933.739	-3.57
933.909	29.76
934.08	86.91
934.25	-7.06
934.421	23.17
934.591	59.21
934.761	12.51
934.932	-37.09
935.102	62.69
935.272	28.98
935.443	30.92
935.613	2.44
935.783	55.33
935.953	6.89
936.123	165.77
936.294	3.6
936.464	27.82
936.634	25.49
936.804	21.62
936.974	-11.9
937.144	51.26
937.314	34.41
937.484	19.1
937.655	16.39
937.825	44.67
937.995	5.93
938.165	74.9
938.334	31.31
938.504	51.46
938.674	37.89
938.844	30.34
939.014	95.24
939.184	83.62
939.354	129.73
939.524	115.97
939.694	39.25
939.863	49.13
940.033	147.17
940.203	112.49
940.373	105.51
940.542	81.68
940.712	85.56
940.882	118.49
941.051	89.62
941.221	85.75
941.391	116.36
941.56	73.54
941.73	48.16
941.899	169.84
942.069	80.91
942.238	106.48
942.408	81.29
942.577	93.31
942.747	60.56
942.916	-0.66
943.086	35.18
943.255	108.81
943.425	63.47
943.594	30.34
943.763	-4.73
943.933	35.38
944.102	-2.02
944.271	69.09
944.441	67.34
944.61	33.63
944.779	38.67
944.948	145.62
945.117	18.52
945.287	44.48
945.456	5.93
945.625	42.35
945.794	92.72
945.963	34.02
946.132	63.47
946.301	44.29
946.47	98.73
946.639	-18.29
946.808	62.5
946.977	98.34
947.146	96.79
947.315	41.38
947.484	85.36
947.653	63.47
947.822	54.56
947.991	28.21
948.16	121.21
948.329	119.07
948.498	44.48
948.666	52.04
948.835	83.04
949.004	41.57
949.173	26.27
949.341	75.48
949.51	85.56
949.679	91.37
949.847	54.56
950.016	128.76
950.185	110.55
950.353	22.98
950.522	69.09
950.69	97.37
950.859	41.96
951.028	83.23
951.196	89.82
951.365	46.22
951.533	59.4
951.701	91.37
951.87	83.81
952.038	19.68
952.207	64.05
952.375	127.4
952.543	65.21
952.712	58.04
952.88	15.03
953.048	139.42
953.217	63.47
953.385	55.91
953.553	125.66
953.721	20.46
953.89	59.59
954.058	22.39
954.226	12.51
954.394	65.99
954.562	-25.07
954.73	49.52
954.898	52.62
955.067	79.55
955.235	44.09
955.403	105.9
955.571	114.42
955.739	78.97
955.907	-3.96
956.075	34.02
956.243	19.29
956.41	49.13
956.578	0.5
956.746	28.59
956.914	25.69
957.082	74.32
957.25	51.84
957.418	28.01
957.585	72.77
957.753	102.61
957.921	37.51
958.089	35.18
958.256	43.71
958.424	68.12
958.592	58.43
958.759	33.83
958.927	96.21
959.095	8.83
959.262	40.8
959.43	61.72
959.597	16.97
959.765	24.33
959.932	-5.7
960.1	88.46
960.267	44.87
960.435	42.74
960.602	84.01
960.77	66.57
960.937	21.43
961.104	63.66
961.272	17.94
961.439	55.14
961.606	66.18
961.774	103.57
961.941	52.04
962.108	81.49
962.275	59.01
962.443	113.07
962.61	61.53
962.777	142.71
962.944	86.52
963.111	57.07
963.278	76.84
963.446	61.92
963.613	52.81
963.78	80.52
963.947	94.27
964.114	57.07
964.281	150.27
964.448	90.01
964.615	55.14
964.782	64.24
964.949	85.56
965.116	104.74
965.282	122.76
965.449	69.09
965.616	2.83
965.783	104.93
965.95	78
966.117	22.01
966.283	55.33
966.45	95.82
966.617	61.14
966.784	118.49
966.95	87.69
967.117	112.68
967.284	19.88
967.45	71.61
967.617	122.76
967.784	82.26
967.95	126.82
968.117	70.25
968.283	115.59
968.45	181.07
968.616	89.43
968.783	103.19
968.949	76.84
969.116	137.87
969.282	76.84
969.449	87.3
969.615	75.67
969.781	25.88
969.948	36.54
970.114	25.69
970.28	119.85
970.447	59.4
970.613	133.41
970.779	70.64
970.945	89.82
971.112	98.73
971.278	84.2
971.444	93.5
971.61	102.99
971.776	67.73
971.942	100.47
972.108	77.22
972.275	61.53
972.441	84.2
972.607	133.8
972.773	71.8
972.939	100.47
973.105	65.6
973.271	38.67
973.437	67.73
973.602	55.52
973.768	96.99
973.934	74.71
974.1	107.06
974.266	3.21
974.432	91.17
974.598	72.38
974.763	77.42
974.929	63.27
975.095	135.54
975.261	32.66
975.426	52.23
975.592	81.1
975.758	149.88
975.923	48.94
976.089	48.55
976.255	121.4
976.42	80.52
976.586	76.06
976.751	62.89
976.917	156.85
977.082	94.08
977.248	22.2
977.413	4.96
977.579	62.5
977.744	73.74
977.91	22.98
978.075	61.92
978.24	97.57
978.406	65.41
978.571	59.79
978.736	42.35
978.902	85.56
979.067	47.19
979.232	15.81
979.397	79.36
979.563	117.33
979.728	29.56
979.893	77.42
980.058	53.01
980.223	97.76
980.388	89.62
980.554	68.31
980.719	61.14
980.884	69.47
981.049	84.2
981.214	39.06
981.379	79.16
981.544	42.54
981.709	75.48
981.874	54.94
982.039	76.64
982.204	92.53
982.368	95.24
982.533	32.28
982.698	115.39
982.863	108.03
983.028	78.39
983.193	84.2
983.357	77.81
983.522	88.85
983.687	51.26
983.852	52.42
984.016	48.74
984.181	55.33
984.346	70.83
984.51	122.95
984.675	55.91
984.839	75.67
985.004	62.5
985.168	114.23
985.333	91.95
985.498	67.73
985.662	108.22
985.827	87.3
985.991	43.9
986.155	65.41
986.32	79.55
986.484	140
986.649	93.89
986.813	39.44
986.977	74.51
987.142	129.54
987.306	25.3
987.47	50.29
987.634	77.03
987.799	73.93
987.963	85.56
988.127	85.17
988.291	124.69
988.455	83.23
988.62	66.76
988.784	97.57
988.948	95.05
989.112	41.77
989.276	56.11
989.44	62.5
989.604	29.76
989.768	47.58
989.932	140.39
990.096	64.44
990.26	21.62
990.424	12.32
990.588	56.3
990.752	125.27
990.915	98.34
991.079	56.11
991.243	76.26
991.407	90.21
991.571	48.94
991.734	94.66
991.898	64.05
992.062	137.67
992.226	67.73
992.389	69.47
992.553	23.17
992.717	15.81
992.88	48.94
993.044	64.05
993.207	84.2
993.371	91.56
993.535	73.35
993.698	57.66
993.862	100.09
994.025	111.52
994.189	64.82
994.352	87.49
994.515	87.3
994.679	75.48
994.842	27.43
995.006	83.42
995.169	24.33
995.332	43.71
995.496	102.99
995.659	7.09
995.822	37.12
995.985	58.62
996.149	114.23
996.312	74.12
996.475	123.34
996.638	23.94
996.801	102.99
996.964	113.26
997.128	59.79
997.291	53.01
997.454	62.11
997.617	23.94
997.78	96.41
997.943	39.44
998.106	85.94
998.269	21.23
998.432	22.59
998.595	62.89
998.758	-0.66
998.92	19.1
999.083	-3.18
999.246	51.46
999.409	13.29
999.572	5.73
999.735	26.66
999.897	62.31
1000.06	49.71
1000.223	41.19
1000.386	66.96
1000.548	85.36
1000.711	83.62
1000.874	52.81
1001.036	26.46
1001.199	111.52
1001.361	29.56
1001.524	63.86
1001.687	78
1001.849	41.19
1002.012	67.34
1002.174	66.18
1002.337	104.16
1002.499	52.04
1002.661	91.76
1002.824	14.26
1002.986	11.74
1003.149	42.74
1003.311	8.64
1003.473	86.33
1003.636	23.17
1003.798	84.39
1003.96	53.59
1004.123	36.54
1004.285	37.51
1004.447	32.86
1004.609	27.63
1004.771	86.91
1004.933	-16.55
1005.096	4.57
1005.258	-19.46
1005.42	13.29
1005.582	73.35
1005.744	71.99
1005.906	-14.81
1006.068	47.19
1006.23	-11.51
1006.392	-8.41
1006.554	18.33
1006.716	89.82
1006.878	62.69
1007.04	10.77
1007.202	39.83
1007.363	57.66
1007.525	68.12
1007.687	53.78
1007.849	103.96
1008.011	8.44
1008.172	16.39
1008.334	6.12
1008.496	72.38
1008.658	-2.79
1008.819	17.36
1008.981	22.98
1009.143	7.67
1009.304	0.11
1009.466	63.08
1009.627	97.57
1009.789	129.73
1009.95	45.26
1010.112	38.28
1010.273	60.76
1010.435	9.99
1010.596	28.21
1010.758	31.89
1010.919	21.43
1011.081	12.13
1011.242	33.83
1011.403	70.83
1011.565	24.53
1011.726	31.31
1011.887	0.31
1012.049	31.89
1012.21	60.37
1012.371	84.2
1012.532	-52
1012.693	32.66
1012.855	31.31
1013.016	48.36
1013.177	59.79
1013.338	41.77
1013.499	100.09
1013.66	71.8
1013.821	65.21
1013.982	60.17
1014.143	12.13
1014.304	20.46
1014.465	37.51
1014.626	71.99
1014.787	9.41
1014.948	118.49
1015.109	-37.86
1015.27	65.02
1015.431	15.23
1015.592	-6.47
1015.752	69.09
1015.913	35.57
1016.074	39.83
1016.235	18.13
1016.395	23.94
1016.556	9.41
1016.717	15.23
1016.877	99.7
1017.038	8.44
1017.199	53.59
1017.359	23.56
1017.52	30.34
1017.681	7.86
1017.841	14.64
1018.002	13.87
1018.162	-11.71
1018.323	77.81
1018.483	37.31
1018.644	21.23
1018.804	-14.03
1018.964	10.77
1019.125	32.66
1019.285	13.87
1019.446	-0.47
1019.606	11.16
1019.766	-29.53
1019.926	40.8
1020.087	40.61
1020.247	4.57
1020.407	33.24
1020.567	69.28
1020.728	3.6
1020.888	-11.71
1021.048	23.17
1021.208	-31.66
1021.368	18.33
1021.528	82.46
1021.688	31.69
1021.848	66.76
1022.008	25.88
1022.168	14.06
1022.328	35.76
1022.488	43.32
1022.648	15.42
1022.808	26.85
1022.968	17.16
1023.128	15.81
1023.288	9.41
1023.448	14.64
1023.608	47.39
1023.767	32.66
1023.927	6.51
1024.087	-11.12
1024.247	-26.82
1024.406	-13.84
1024.566	-46.77
1024.726	1.66
1024.885	19.29
1025.045	54.75
1025.205	31.31
1025.364	13.29
1025.524	50.87
1025.683	11.16
1025.843	21.04
1026.003	33.44
1026.162	68.89
1026.321	65.99
1026.481	28.98
1026.64	-4.54
1026.8	31.89
1026.959	30.14
1027.119	35.57
1027.278	14.06
1027.437	-12.29
1027.597	33.44
1027.756	30.53
1027.915	32.47
1028.074	51.65
1028.234	-18.68
1028.393	6.51
1028.552	2.05
1028.711	-31.86
1028.87	49.91
1029.03	-18.1
1029.189	29.18
1029.348	-39.02
1029.507	15.23
1029.666	19.88
1029.825	12.51
1029.984	8.83
1030.143	30.92
1030.302	4.76
1030.461	-27.01
1030.62	27.04
1030.779	43.12
1030.938	24.33
1031.097	-12.87
1031.255	55.72
1031.414	57.66
1031.573	57.46
1031.732	-58.01
1031.891	17.55
1032.049	45.45
1032.208	31.11
1032.367	-6.47
1032.525	11.74
1032.684	-2.02
1032.843	12.71
1033.001	-23.14
1033.16	152.01
1033.319	64.44
1033.477	25.88
1033.636	-14.03
1033.794	-35.15
1033.953	34.02
1034.111	41.57
1034.27	5.93
1034.428	37.51
1034.587	-41.35
1034.745	12.71
1034.903	25.69
1035.062	34.79
1035.22	-14.81
1035.378	34.02
1035.537	-28.17
1035.695	38.47
1035.853	-5.7
1036.011	72.19
1036.17	22.01
1036.328	-26.43
1036.486	-11.12
1036.644	9.61
1036.802	-72.93
1036.96	-6.28
1037.119	16.97
1037.277	-0.66
1037.435	-21.97
1037.593	-20.23
1037.751	34.99
1037.909	38.86
1038.067	38.86
