Data from pine_FLMT105791__193__17-23-47-072.txt Node

Date: Mon Mar 20 17:23:47 GMT 2023
User: antho
Spectrometer: FLMT10579
Trigger mode: 0
Integration Time (sec): 1.000000E-1
Scans to average: 10
Electric dark correction enabled: true
Nonlinearity correction enabled: false
Boxcar width: 0
XAxis mode: Wavelengths
Number of Pixels in Spectrum: 3648
>>>>>Begin Spectral Data<<<<<
345.248	-170.93
345.464	-170.93
345.681	-170.93
345.898	-168.03
346.114	-170.55
346.331	-54.88
346.548	0.73
346.764	-3.54
346.981	5.57
347.197	-6.83
347.414	14.1
347.631	-18.07
347.847	59.63
348.064	13.9
348.28	4.41
348.497	-25.43
348.713	10.41
348.93	18.16
349.146	29.79
349.363	-6.44
349.579	5.76
349.796	0.15
350.012	-19.42
350.229	27.85
350.445	-8.77
350.661	-32.21
350.878	13.32
351.094	-12.06
351.311	0.34
351.527	24.17
351.743	-22.72
351.96	52.26
352.176	19.71
352.392	36.57
352.609	41.8
352.825	-19.81
353.041	5.18
353.257	-24.46
353.474	-14.19
353.69	27.46
353.906	-0.05
354.122	-22.52
354.339	70.67
354.555	7.7
354.771	-14
354.987	46.64
355.203	55.56
355.42	-17.29
355.636	-25.24
355.852	-24.07
356.068	1.7
356.284	-44.42
356.5	41.8
356.716	9.45
356.932	13.51
357.148	12.16
357.364	7.9
357.58	61.76
357.796	52.07
358.012	51.29
358.228	24.75
358.444	-68.63
358.66	70.67
358.876	9.64
359.092	-22.14
359.308	31.92
359.524	26.11
359.74	-16.9
359.956	-12.45
360.172	3.83
360.388	32.5
360.604	-17.1
360.819	76.48
361.035	-6.64
361.251	17.58
361.467	-11.48
361.683	26.3
361.898	-5.09
362.114	11
362.33	-2.76
362.546	61.37
362.762	-23.88
362.977	-0.82
363.193	-27.56
363.409	43.16
363.624	-49.45
363.84	-7.22
364.056	-32.79
364.271	1.89
364.487	6.93
364.703	-8.57
364.918	-18.65
365.134	-17.1
365.35	-2.95
365.565	99.93
365.781	30.37
365.996	4.21
366.212	52.46
366.427	22.23
366.643	-16.32
366.858	-51.78
367.074	-42.09
367.289	66.6
367.505	105.93
367.72	-35.5
367.936	1.5
368.151	26.49
368.367	32.89
368.582	31.34
368.798	-21.55
369.013	48
369.228	11.58
369.444	41.41
369.659	72.22
369.874	16.81
370.09	33.66
370.305	-66.12
370.52	-15.55
370.736	44.51
370.951	-1.6
371.166	43.16
371.381	71.83
371.597	27.27
371.812	-7.22
372.027	-40.54
372.242	-10.7
372.458	73.77
372.673	4.41
372.888	10.61
373.103	25.53
373.318	91.21
373.533	28.82
373.749	26.11
373.964	-27.75
374.179	63.5
374.394	-31.82
374.609	63.5
374.824	-37.44
375.039	68.34
375.254	-43.06
375.469	39.28
375.684	13.9
375.899	37.15
376.114	35.6
376.329	25.14
376.544	27.27
376.759	57.11
376.974	-13.8
377.189	20.68
377.404	2.47
377.619	35.79
377.834	-50.42
378.049	-58.37
378.264	-20.78
378.478	8.86
378.693	-15.35
378.908	34.44
379.123	-1.6
379.338	43.74
379.553	19.71
379.767	-4.31
379.982	26.49
380.197	58.66
380.412	9.64
380.626	41.22
380.841	95.28
381.056	-2.57
381.271	57.3
381.485	-17.49
381.7	-8.96
381.915	10.61
382.129	12.55
382.344	19.52
382.559	15.84
382.773	29.98
382.988	-31.63
383.202	14.87
383.417	-20.78
383.632	98.38
383.846	-12.25
384.061	20.49
384.275	20.68
384.49	3.25
384.704	30.56
384.919	9.64
385.133	19.52
385.348	27.66
385.562	-37.25
385.777	25.14
385.991	-8.96
386.206	1.7
386.42	-25.24
386.634	41.03
386.849	22.81
387.063	-17.87
387.277	-21.36
387.492	-16.9
387.706	-23.1
387.92	-17.49
388.135	45.09
388.349	20.88
388.563	23.78
388.778	23.2
388.992	27.85
389.206	43.93
389.42	81.91
389.635	23.98
389.849	28.04
390.063	38.31
390.277	43.16
390.491	75.13
390.706	39.86
390.92	27.08
391.134	10.22
391.348	25.33
391.562	-27.95
391.776	3.25
391.99	-45.58
392.205	33.28
392.419	-43.06
392.633	14.87
392.847	49.36
393.061	-4.7
393.275	67.38
393.489	4.21
393.703	34.24
393.917	61.76
394.131	19.71
394.345	40.83
394.559	41.99
394.773	-7.02
394.986	34.83
395.2	7.31
395.414	37.34
395.628	-11.67
395.842	19.71
396.056	-14.39
396.27	-51.78
396.484	36.57
396.697	26.49
396.911	44.32
397.125	29.4
397.339	50.52
397.553	27.08
397.766	76.48
397.98	38.7
398.194	54.2
398.408	0.73
398.621	32.5
398.835	29.59
399.049	30.37
399.262	40.44
399.476	21.46
399.69	33.28
399.903	97.6
400.117	-1.6
400.331	30.76
400.544	-9.54
400.758	141.39
400.971	32.5
401.185	62.34
401.398	-18.26
401.612	45.48
401.826	31.34
402.039	24.94
402.253	4.6
402.466	46.84
402.68	6.15
402.893	20.3
403.106	5.38
403.32	26.88
403.533	42.58
403.747	13.51
403.96	40.25
404.174	21.46
404.387	-9.74
404.6	23.59
404.814	22.04
405.027	18.55
405.24	34.83
405.454	8.28
405.667	56.91
405.88	-32.6
406.094	40.44
406.307	51.88
406.52	7.12
406.733	-11.29
406.947	-34.54
407.16	71.83
407.373	42.96
407.586	-7.8
407.799	-27.75
408.012	57.3
408.226	22.43
408.439	54.39
408.652	-43.45
408.865	25.91
409.078	35.41
409.291	1.31
409.504	-29.89
409.717	19.91
409.93	43.16
410.143	15.06
410.357	-8.38
410.57	-29.3
410.783	23.01
410.996	40.83
411.209	13.9
411.421	63.5
411.634	-5.67
411.847	-11.48
412.06	36.57
412.273	13.71
412.486	5.57
412.699	77.26
412.912	-2.18
413.125	44.71
413.338	23.01
413.55	70.28
413.763	18.75
413.976	55.36
414.189	-2.95
414.402	-4.89
414.615	48.19
414.827	-14.58
415.04	37.73
415.253	52.07
415.466	46.84
415.678	67.57
415.891	16.61
416.104	17.78
416.316	-1.02
416.529	-3.54
416.742	34.44
416.954	69.89
417.167	2.08
417.38	32.31
417.592	64.08
417.805	-5.28
418.017	-38.6
418.23	42.38
418.442	-35.5
418.655	9.64
418.868	21.07
419.08	59.82
419.293	47.23
419.505	45.48
419.718	37.34
419.93	43.54
420.142	8.48
420.355	45.09
420.567	75.51
420.78	29.98
420.992	4.41
421.205	72.99
421.417	-24.65
421.629	-12.64
421.842	-13.22
422.054	-23.69
422.266	25.33
422.479	62.14
422.691	-1.79
422.903	50.13
423.115	-0.63
423.328	8.86
423.54	25.72
423.752	28.82
423.964	-8.77
424.177	27.27
424.389	12.55
424.601	104.19
424.813	30.95
425.025	42.77
425.238	65.05
425.45	29.79
425.662	9.83
425.874	308.4
426.086	15.65
426.298	60.59
426.51	41.03
426.722	22.81
426.934	25.72
427.146	37.15
427.358	3.44
427.57	57.88
427.782	14.87
427.994	33.28
428.206	-4.89
428.418	-59.14
428.63	41.03
428.842	51.29
429.054	26.11
429.266	60.79
429.478	-0.82
429.69	40.44
429.902	-9.93
430.114	41.61
430.325	45.48
430.537	19.91
430.749	3.83
430.961	-9.54
431.173	30.76
431.384	51.49
431.596	-33.18
431.808	-7.6
432.02	36.96
432.231	57.11
432.443	46.45
432.655	46.64
432.867	-1.02
433.078	31.14
433.29	90.04
433.502	48.58
433.713	60.21
433.925	2.08
434.136	59.24
434.348	-20.39
434.56	-27.17
434.771	108.06
434.983	-26.59
435.194	9.06
435.406	-16.32
435.617	64.86
435.829	83.84
436.04	37.34
436.252	55.17
436.463	100.12
436.675	32.11
436.886	42.38
437.098	40.25
437.309	62.14
437.521	40.44
437.732	42.96
437.943	40.06
438.155	19.91
438.366	-32.02
438.578	71.83
438.789	24.36
439	66.79
439.211	18.55
439.423	31.53
439.634	51.68
439.845	63.11
440.057	19.13
440.268	66.79
440.479	13.71
440.69	41.03
440.902	36.57
441.113	28.04
441.324	3.83
441.535	26.49
441.746	69.31
441.957	3.44
442.168	-5.67
442.38	48.19
442.591	63.31
442.802	9.45
443.013	9.25
443.224	50.91
443.435	8.48
443.646	10.61
443.857	-1.21
444.068	-13.61
444.279	10.61
444.49	82.29
444.701	20.68
444.912	119.49
445.123	61.95
445.334	46.06
445.545	45.48
445.756	24.17
445.967	19.13
446.178	47.42
446.388	72.03
446.599	57.11
446.81	66.41
447.021	23.98
447.232	73.96
447.443	90.43
447.653	-7.8
447.864	63.69
448.075	35.21
448.286	71.25
448.496	55.75
448.707	65.63
448.918	31.14
449.129	118.91
449.339	30.56
449.55	55.94
449.761	38.31
449.971	90.24
450.182	24.94
450.393	54.2
450.603	21.26
450.814	73.77
451.024	20.88
451.235	69.51
451.446	99.73
451.656	114.07
451.867	3.83
452.077	54.78
452.288	106.32
452.498	117.36
452.709	46.06
452.919	83.07
453.13	34.44
453.34	99.15
453.55	10.41
453.761	73.38
453.971	79
454.182	92.76
454.392	86.56
454.602	116.01
454.813	77.64
455.023	88.88
455.233	26.88
455.444	69.51
455.654	-3.73
455.864	48.39
456.075	31.53
456.285	24.36
456.495	36.76
456.705	62.92
456.916	112.13
457.126	118.33
457.336	62.34
457.546	-30.08
457.756	42.77
457.967	90.43
458.177	32.89
458.387	48.39
458.597	51.68
458.807	33.28
459.017	46.26
459.227	47.61
459.437	65.24
459.647	95.47
459.857	74.93
460.068	38.89
460.278	92.76
460.488	88.69
460.698	105.93
460.908	35.21
461.117	19.52
461.327	23.01
461.537	65.05
461.747	57.69
461.957	35.21
462.167	141.19
462.377	81.13
462.587	64.28
462.797	97.21
463.007	68.93
463.216	94.31
463.426	80.74
463.636	77.06
463.846	31.73
464.056	38.31
464.265	110.58
464.475	32.89
464.685	54.78
464.895	71.83
465.104	65.83
465.314	87.33
465.524	67.76
465.733	40.25
465.943	153.98
466.153	101.28
466.362	89.46
466.572	71.25
466.782	85.2
466.991	40.64
467.201	110.97
467.41	28.63
467.62	94.11
467.829	42.58
468.039	77.84
468.249	76.87
468.458	33.66
468.668	108.45
468.877	72.8
469.086	130.73
469.296	96.05
469.505	26.11
469.715	114.84
469.924	102.83
470.134	114.65
470.343	111.36
470.552	40.44
470.762	77.84
470.971	58.66
471.18	73.19
471.39	60.01
471.599	38.12
471.808	98.38
472.018	34.63
472.227	107.48
472.436	92.95
472.645	62.14
472.855	51.49
473.064	91.59
473.273	76.48
473.482	76.29
473.691	114.26
473.901	108.26
474.11	76.68
474.319	172.58
474.528	56.14
474.737	105.74
474.946	96.63
475.155	99.34
475.364	125.69
475.573	60.98
475.783	63.5
475.992	93.92
476.201	130.73
476.41	79.19
476.619	34.05
476.828	84.62
477.037	48.58
477.245	74.16
477.454	117.75
477.663	63.11
477.872	58.66
478.081	112.13
478.29	45.68
478.499	156.69
478.708	102.83
478.917	150.69
479.125	98.38
479.334	113.68
479.543	48.19
479.752	95.28
479.961	84.43
480.169	103.22
480.378	82.1
480.587	206.29
480.796	102.44
481.004	92.18
481.213	114.65
481.422	98.96
481.63	51.68
481.839	109.22
482.048	156.89
482.256	95.66
482.465	107.87
482.674	133.64
482.882	103.61
483.091	144.68
483.299	150.11
483.508	116.78
483.716	85.98
483.925	98.57
484.134	120.46
484.342	69.51
484.551	147.97
484.759	133.83
484.967	131.12
485.176	167.74
485.384	102.83
485.593	151.66
485.801	134.8
486.01	98.96
486.218	130.15
486.426	47.03
486.635	117.75
486.843	128.99
487.051	125.89
487.26	82.68
487.468	128.99
487.676	127.24
487.885	88.69
488.093	107.09
488.301	117.36
488.509	130.34
488.717	160.76
488.926	99.15
489.134	120.46
489.342	103.03
489.55	92.76
489.758	114.84
489.967	80.74
490.175	201.64
490.383	81.52
490.591	146.23
490.799	65.05
491.007	164.25
491.215	123.95
491.423	111.36
491.631	149.52
491.839	107.29
492.047	148.56
492.255	91.79
492.463	87.14
492.671	131.31
492.879	177.42
493.087	122.4
493.295	127.44
493.503	141.19
493.711	112.71
493.919	152.43
494.127	149.91
494.334	159.21
494.542	85.2
494.75	122.21
494.958	123.37
495.166	177.62
495.374	139.45
495.581	133.64
495.789	132.86
495.997	189.44
496.205	144.29
496.412	123.37
496.62	101.28
496.828	163.67
497.035	128.41
497.243	139.84
497.451	150.11
497.658	140.03
497.866	121.82
498.074	176.26
498.281	111.74
498.489	199.12
498.696	156.5
498.904	131.12
499.112	133.25
499.319	221.21
499.527	125.89
499.734	170.45
499.942	92.56
500.149	121.62
500.357	148.36
500.564	132.28
500.771	174.32
500.979	113.1
501.186	154.17
501.394	164.83
501.601	150.49
501.808	197.19
502.016	144.68
502.223	141.19
502.43	146.04
502.638	136.35
502.845	109.03
503.052	205.71
503.26	140.81
503.467	208.23
503.674	131.51
503.881	133.83
504.089	238.65
504.296	188.47
504.503	132.28
504.71	150.49
504.917	113.68
505.125	159.99
505.332	150.49
505.539	172.97
505.746	211.52
505.953	166.57
506.16	161.54
506.367	211.33
506.574	190.79
506.781	216.37
506.988	139.64
507.195	171.61
507.402	148.94
507.609	194.28
507.816	178.97
508.023	131.12
508.23	158.44
508.437	116.39
508.644	192.54
508.851	224.5
509.058	193.12
509.265	144.1
509.472	195.06
509.679	241.75
509.885	154.37
510.092	168.32
510.299	138.87
510.506	173.16
510.713	196.41
510.92	173.94
511.126	191.37
511.333	202.22
511.54	196.99
511.746	244.46
511.953	206.29
512.16	210.17
512.367	154.37
512.573	175.29
512.78	186.72
512.987	180.52
513.193	202.61
513.4	128.6
513.606	180.72
513.813	179.17
514.02	188.08
514.226	266.16
514.433	257.64
514.639	133.06
514.846	179.36
515.052	168.12
515.259	199.51
515.465	187.11
515.672	208.62
515.878	262.09
516.085	170.06
516.291	229.93
516.497	155.72
516.704	164.06
516.91	154.56
517.117	159.79
517.323	150.3
517.529	209.59
517.736	180.14
517.942	205.52
518.148	160.76
518.354	185.17
518.561	182.46
518.767	193.7
518.973	223.15
519.179	205.9
519.386	145.84
519.592	186.92
519.798	133.25
520.004	209
520.21	173.55
520.417	197.57
520.623	222.18
520.829	226.44
521.035	192.15
521.241	230.12
521.447	230.51
521.653	280.11
521.859	201.06
522.065	202.03
522.271	264.61
522.477	216.17
522.683	248.53
522.889	225.28
523.095	220.44
523.301	197.77
523.507	205.13
523.713	247.56
523.919	195.25
524.125	251.05
524.331	195.25
524.537	270.23
524.742	248.72
524.948	220.63
525.154	224.89
525.36	324.67
525.566	241.55
525.772	280.5
525.977	200.67
526.183	262.09
526.389	270.23
526.595	219.27
526.8	224.5
527.006	203.58
527.212	224.89
527.417	189.82
527.623	197.38
527.829	260.15
528.034	240
528.24	258.99
528.446	224.7
528.651	283.21
528.857	258.6
529.062	289.41
529.268	240.39
529.473	214.24
529.679	208.23
529.884	287.67
530.09	257.83
530.295	314.21
530.501	274.1
530.706	270.62
530.912	213.07
531.117	228.38
531.323	242.33
531.528	245.43
531.733	253.76
531.939	238.26
532.144	279.92
532.35	251.63
532.555	293.67
532.76	296.97
532.966	283.6
533.171	295.22
533.376	253.18
533.581	248.92
533.787	282.44
533.992	283.21
534.197	324.67
534.402	233.42
534.607	241.36
534.813	374.27
535.018	255.89
535.223	230.7
535.428	251.63
535.633	293.09
535.838	281.85
536.043	261.12
536.249	351.8
536.454	221.21
536.659	276.04
536.864	242.52
537.069	256.28
537.274	275.65
537.479	284.37
537.684	287.67
537.889	219.08
538.094	351.8
538.299	280.69
538.504	268.87
538.708	289.41
538.913	294.06
539.118	264.03
539.323	280.3
539.528	258.6
539.733	265.39
539.938	316.15
540.142	328.74
540.347	279.14
540.552	278.95
540.757	308.01
540.962	284.37
541.166	237.1
541.371	223.73
541.576	267.32
541.781	172.58
541.985	264.8
542.19	282.63
542.395	324.87
542.599	348.5
542.804	322.54
543.008	349.86
543.213	259.77
543.418	227.41
543.622	296.38
543.827	258.8
544.031	327
544.236	334.36
544.44	284.37
544.645	368.65
544.849	296
545.054	308.98
545.258	382.02
545.463	358
545.667	272.55
545.872	321.57
546.076	310.14
546.281	285.15
546.485	283.02
546.689	353.73
546.894	315.95
547.098	307.43
547.302	238.84
547.507	296.77
547.711	305.49
547.915	340.17
548.119	268.68
548.324	309.17
548.528	337.65
548.732	329.52
548.936	320.22
549.141	320.41
549.345	280.69
549.549	308.4
549.753	278.56
549.957	391.51
550.161	351.22
550.366	287.28
550.57	267.32
550.774	315.76
550.978	263.84
551.182	290.57
551.386	310.33
551.59	274.49
551.794	275.07
551.998	300.26
552.202	284.18
552.406	239.42
552.61	281.66
552.814	302.97
553.018	375.82
553.222	304.72
553.426	303.75
553.63	378.15
553.833	288.05
554.037	256.86
554.241	332.62
554.445	302
554.649	276.24
554.853	294.45
555.056	311.11
555.26	317.7
555.464	309.17
555.668	320.99
555.871	363.23
556.075	356.06
556.279	298.13
556.483	248.14
556.686	314.02
556.89	278.75
557.094	338.82
557.297	282.44
557.501	378.73
557.704	253.37
557.908	341.53
558.112	295.42
558.315	353.93
558.519	298.9
558.722	341.33
558.926	295.03
559.129	296.58
559.333	271.2
559.536	269.26
559.74	283.79
559.943	296.19
560.147	257.64
560.35	304.91
560.553	266.74
560.757	225.67
560.96	353.15
561.164	241.36
561.367	316.73
561.57	276.43
561.774	292.9
561.977	298.13
562.18	252.6
562.384	357.22
562.587	284.18
562.79	276.24
562.993	303.94
563.197	307.62
563.4	339.59
563.603	340.37
563.806	386.48
564.009	246.4
564.212	303.17
564.416	273.14
564.619	332.62
564.822	279.34
565.025	335.33
565.228	294.45
565.431	312.27
565.634	228.19
565.837	275.65
566.04	289.99
566.243	276.82
566.446	212.88
566.649	336.3
566.852	245.04
567.055	287.67
567.258	303.94
567.461	373.5
567.664	362.65
567.867	223.54
568.07	316.73
568.273	302.58
568.475	314.21
568.678	298.9
568.881	282.44
569.084	321.18
569.287	224.7
569.489	286.31
569.692	310.72
569.895	299.29
570.098	256.09
570.3	223.54
570.503	221.21
570.706	232.06
570.909	229.15
571.111	208.81
571.314	240.78
571.516	234.97
571.719	258.41
571.922	249.11
572.124	247.17
572.327	252.99
572.529	201.45
572.732	224.12
572.935	235.35
573.137	288.83
573.34	234.19
573.542	275.27
573.745	277.01
573.947	269.07
574.15	241.94
574.352	224.7
574.554	301.23
574.757	224.89
574.959	224.7
575.162	206.68
575.364	226.25
575.566	317.89
575.769	254.54
575.971	266.74
576.173	189.63
576.376	247.17
576.578	284.37
576.78	311.3
576.982	186.53
577.185	255.7
577.387	191.37
577.589	212.69
577.791	239.23
577.993	265.97
578.196	241.75
578.398	271
578.6	282.63
578.802	199.32
579.004	203.19
579.206	218.69
579.408	264.03
579.61	233.8
579.812	266.16
580.014	206.49
580.216	218.89
580.418	209.97
580.62	203.58
580.822	155.53
581.024	228.19
581.226	264.03
581.428	197.57
581.63	274.88
581.832	223.15
582.034	277.79
582.236	246.01
582.438	266.94
582.64	294.64
582.841	281.47
583.043	299.29
583.245	228.19
583.447	260.15
583.649	240.78
583.85	262.09
584.052	290.77
584.254	189.82
584.456	262.29
584.657	189.82
584.859	245.04
585.061	233.61
585.262	201.45
585.464	193.12
585.666	274.88
585.867	226.25
586.069	301.03
586.27	235.55
586.472	255.89
586.674	207.65
586.875	209.39
587.077	219.66
587.278	249.11
587.48	207.26
587.681	328.93
587.883	245.43
588.084	183.82
588.285	204.16
588.487	233.42
588.688	235.94
588.89	227.8
589.091	198.35
589.292	219.27
589.494	226.83
589.695	225.67
589.896	202.03
590.098	165.02
590.299	240.39
590.5	172.77
590.702	203.39
590.903	234.77
591.104	251.63
591.305	211.52
591.507	246.79
591.708	223.34
591.909	198.74
592.11	286.5
592.311	233.61
592.512	211.14
592.714	181.49
592.915	193.12
593.116	211.91
593.317	210.94
593.518	195.64
593.719	198.54
593.92	261.12
594.121	256.47
594.322	239.04
594.523	210.75
594.724	181.11
594.925	215.01
595.126	246.59
595.327	242.14
595.528	242.14
595.729	240.78
595.929	221.4
596.13	209.39
596.331	202.42
596.532	227.02
596.733	268.87
596.934	239.23
597.135	266.74
597.335	234.77
597.536	198.54
597.737	217.92
597.938	215.79
598.138	237.49
598.339	205.32
598.54	255.12
598.74	223.54
598.941	228.77
599.142	278.95
599.342	212.88
599.543	184.79
599.744	207.65
599.944	198.93
600.145	213.27
600.345	227.8
600.546	269.26
600.746	271.39
600.947	296
601.147	237.1
601.348	261.32
601.548	213.46
601.749	232.25
601.949	186.92
602.15	195.44
602.35	221.02
602.551	267.71
602.751	206.49
602.951	198.74
603.152	161.34
603.352	230.9
603.552	213.46
603.753	255.31
603.953	230.9
604.153	221.02
604.354	217.92
604.554	199.51
604.754	212.88
604.954	175.87
605.155	245.82
605.355	217.14
605.555	254.34
605.755	265.19
605.955	220.63
606.155	243.3
606.356	201.64
606.556	256.86
606.756	233.03
606.956	165.02
607.156	283.21
607.356	206.49
607.556	256.47
607.756	236.9
607.956	275.65
608.156	253.37
608.356	216.37
608.556	244.46
608.756	218.11
608.956	174.52
609.156	216.75
609.356	189.05
609.556	184.4
609.755	212.49
609.955	205.71
610.155	232.25
610.355	249.69
610.555	194.09
610.755	241.17
610.954	159.6
611.154	210.75
611.354	258.02
611.554	195.06
611.753	175.49
611.953	166.38
612.153	264.61
612.352	218.89
612.552	200.48
612.752	165.99
612.951	201.84
613.151	207.45
613.351	174.91
613.55	201.06
613.75	241.17
613.949	215.01
614.149	232.25
614.348	224.5
614.548	199.51
614.747	141.97
614.947	190.41
615.146	140.03
615.346	221.99
615.545	205.9
615.745	207.65
615.944	232.45
616.144	178.01
616.343	233.22
616.542	207.65
616.742	224.5
616.941	229.15
617.14	179.75
617.34	196.6
617.539	220.24
617.738	191.18
617.938	262.09
618.137	192.34
618.336	153.01
618.535	242.52
618.734	208.62
618.934	211.72
619.133	224.12
619.332	191.18
619.531	186.72
619.73	173.16
619.929	248.92
620.128	199.51
620.328	262.48
620.527	198.15
620.726	172.58
620.925	211.33
621.124	176.46
621.323	203.77
621.522	174.91
621.721	156.31
621.92	168.32
622.119	214.24
622.318	188.47
622.517	176.46
622.715	190.21
622.914	146.42
623.113	194.28
623.312	149.91
623.511	220.44
623.71	169.87
623.909	159.6
624.107	246.01
624.306	164.44
624.505	156.69
624.704	175.49
624.902	174.13
625.101	225.09
625.3	190.02
625.499	179.17
625.697	155.72
625.896	167.16
626.095	209.39
626.293	139.84
626.492	168.51
626.69	229.54
626.889	146.23
627.088	207.45
627.286	111.55
627.485	174.52
627.683	159.79
627.882	216.75
628.08	155.92
628.279	174.52
628.477	226.44
628.676	172.19
628.874	187.89
629.073	164.06
629.271	128.41
629.469	190.99
629.668	161.92
629.866	176.84
630.065	158.24
630.263	197.38
630.461	160.57
630.66	186.14
630.858	178.2
631.056	204.35
631.254	218.5
631.453	137.51
631.651	222.76
631.849	190.02
632.047	186.14
632.245	192.15
632.444	207.45
632.642	180.72
632.84	195.06
633.038	156.31
633.236	146.81
633.434	155.14
633.632	111.74
633.83	150.49
634.028	196.8
634.227	141.19
634.425	224.7
634.623	173.16
634.821	161.34
635.019	158.63
635.216	151.85
635.414	179.17
635.612	168.12
635.81	158.24
636.008	238.26
636.206	156.89
636.404	185.56
636.602	135.77
636.8	180.33
636.997	172.58
637.195	190.6
637.393	181.11
637.591	221.6
637.789	159.41
637.986	148.56
638.184	176.65
638.382	187.11
638.58	213.27
638.777	230.51
638.975	182.66
639.173	193.51
639.37	192.54
639.568	172.97
639.765	191.96
639.963	160.37
640.161	237.49
640.358	184.79
640.556	175.29
640.753	139.84
640.951	137.51
641.148	165.02
641.346	160.76
641.543	181.3
641.741	202.8
641.938	153.01
642.136	165.8
642.333	145.46
642.531	195.44
642.728	198.74
642.925	181.88
643.123	196.99
643.32	166.57
643.517	167.54
643.715	176.07
643.912	164.83
644.109	166.38
644.306	171.81
644.504	143.32
644.701	186.34
644.898	213.07
645.095	139.26
645.293	171.42
645.49	202.22
645.687	190.79
645.884	237.68
646.081	125.11
646.278	150.11
646.475	151.66
646.672	145.07
646.87	196.02
647.067	206.29
647.264	174.13
647.461	142.36
647.658	134.61
647.855	186.92
648.052	178.39
648.249	87.91
648.446	180.72
648.642	123.76
648.839	168.9
649.036	138.29
649.233	105.74
649.43	134.02
649.627	136.74
649.824	141.97
650.021	151.66
650.217	116.01
650.414	141.58
650.611	156.69
650.808	153.98
651.004	158.44
651.201	170.06
651.398	214.43
651.595	142.36
651.791	130.54
651.988	202.8
652.185	152.43
652.381	176.84
652.578	122.01
652.775	150.88
652.971	136.16
653.168	156.31
653.364	155.34
653.561	87.91
653.757	129.57
653.954	147.39
654.15	141.39
654.347	188.27
654.543	143.71
654.74	122.21
654.936	101.28
655.133	123.76
655.329	141.77
655.525	152.24
655.722	188.47
655.918	113.1
656.115	200.87
656.311	144.68
656.507	130.73
656.704	96.05
656.9	134.02
657.096	128.41
657.292	92.37
657.489	176.26
657.685	144.87
657.881	119.69
658.077	126.47
658.273	128.21
658.47	174.52
658.666	128.99
658.862	126.66
659.058	121.62
659.254	165.8
659.45	100.31
659.646	163.86
659.842	143.71
660.038	178.39
660.234	112.91
660.43	122.4
660.626	201.64
660.822	179.75
661.018	185.95
661.214	131.7
661.41	120.66
661.606	153.01
661.802	160.18
661.998	132.86
662.194	93.34
662.39	159.99
662.586	159.79
662.781	175.49
662.977	150.69
663.173	186.14
663.369	117.75
663.564	164.44
663.76	166.77
663.956	113.68
664.152	202.03
664.347	111.55
664.543	147.2
664.739	135.38
664.934	93.14
665.13	84.81
665.326	162.89
665.521	155.72
665.717	120.46
665.912	82.68
666.108	75.13
666.304	129.76
666.499	133.44
666.695	94.89
666.89	138.67
667.086	173.36
667.281	172.97
667.477	191.96
667.672	136.93
667.867	141.39
668.063	155.53
668.258	111.55
668.454	149.33
668.649	191.37
668.844	116.59
669.04	150.11
669.235	122.79
669.43	124.14
669.626	98.18
669.821	148.75
670.016	89.66
670.211	134.61
670.407	100.89
670.602	130.73
670.797	115.62
670.992	183.43
671.187	84.23
671.382	172.58
671.578	100.7
671.773	151.85
671.968	86.94
672.163	147.59
672.358	124.92
672.553	99.93
672.748	122.4
672.943	204.55
673.138	146.23
673.333	176.46
673.528	115.23
673.723	130.92
673.918	133.06
674.113	80.36
674.308	203.19
674.503	152.82
674.698	163.47
674.892	153.59
675.087	168.32
675.282	150.49
675.477	100.89
675.672	129.57
675.867	143.71
676.061	93.73
676.256	94.69
676.451	81.91
676.646	135.96
676.84	94.5
677.035	88.88
677.23	87.53
677.424	149.52
677.619	175.49
677.814	166.96
678.008	123.56
678.203	59.04
678.397	108.26
678.592	122.79
678.787	167.54
678.981	131.31
679.176	128.41
679.37	106.71
679.565	90.24
679.759	107.87
679.954	152.43
680.148	180.91
680.342	185.17
680.537	148.17
680.731	131.31
680.926	165.99
681.12	148.75
681.314	94.31
681.509	120.27
681.703	121.04
681.897	137.51
682.092	118.33
682.286	129.57
682.48	186.34
682.674	167.74
682.869	107.87
683.063	135.38
683.257	200.67
683.451	94.5
683.645	143.13
683.839	128.02
684.034	114.46
684.228	147.01
684.422	111.74
684.616	114.65
684.81	154.37
685.004	103.99
685.198	131.7
685.392	147.2
685.586	92.56
685.78	106.71
685.974	133.25
686.168	147.59
686.362	179.56
686.556	123.37
686.75	83.84
686.944	158.82
687.138	159.79
687.331	84.04
687.525	134.99
687.719	66.6
687.913	121.43
688.107	121.24
688.301	95.28
688.494	125.69
688.688	81.52
688.882	56.53
689.076	70.28
689.269	98.57
689.463	172.97
689.657	100.31
689.85	118.91
690.044	122.79
690.238	110.97
690.431	98.18
690.625	97.02
690.818	112.71
691.012	109.61
691.205	115.42
691.399	69.51
691.593	117.75
691.786	167.35
691.98	158.05
692.173	151.07
692.366	156.89
692.56	136.54
692.753	153.59
692.947	66.6
693.14	183.04
693.333	152.43
693.527	88.49
693.72	154.56
693.914	127.44
694.107	105.74
694.3	124.72
694.493	135.19
694.687	164.25
694.88	103.03
695.073	162.7
695.266	139.45
695.46	130.15
695.653	178.59
695.846	181.11
696.039	80.74
696.232	138.29
696.425	151.66
696.618	127.24
696.812	123.95
697.005	190.99
697.198	232.25
697.391	186.53
697.584	153.59
697.777	222.76
697.97	190.99
698.163	185.56
698.356	173.16
698.549	249.69
698.742	195.44
698.935	168.32
699.127	196.99
699.32	133.83
699.513	171.03
699.706	218.69
699.899	188.47
700.092	173.55
700.285	211.91
700.477	149.72
700.67	206.29
700.863	214.43
701.056	294.64
701.248	252.21
701.441	237.29
701.634	219.66
701.826	291.73
702.019	192.15
702.212	239.04
702.404	173.94
702.597	172.19
702.79	184.01
702.982	211.91
703.175	246.4
703.367	233.03
703.56	219.47
703.752	293.48
703.945	249.69
704.137	264.42
704.33	249.5
704.522	260.35
704.715	248.53
704.907	239.42
705.1	255.7
705.292	257.05
705.484	223.15
705.677	290.77
705.869	265.39
706.061	291.15
706.254	317.31
706.446	283.02
706.638	263.64
706.831	335.52
707.023	247.37
707.215	371.75
707.407	297.55
707.599	316.92
707.792	371.56
707.984	294.45
708.176	326.42
708.368	277.59
708.56	341.33
708.752	298.32
708.944	297.74
709.136	329.13
709.329	277.2
709.521	415.93
709.713	358.19
709.905	369.62
710.097	360.32
710.289	343.27
710.481	338.23
710.672	374.66
710.864	316.34
711.056	393.84
711.248	376.01
711.44	373.3
711.632	367.49
711.824	386.67
712.016	418.83
712.207	408.95
712.399	383.57
712.591	437.43
712.783	372.91
712.975	459.91
713.166	365.17
713.358	391.32
713.55	460.68
713.741	434.91
713.933	438.01
714.125	449.06
714.316	407.21
714.508	472.69
714.7	471.34
714.891	466.69
715.083	512.22
715.274	444.02
715.466	426.97
715.657	480.64
715.849	401.59
716.04	484.71
716.232	373.11
716.423	485.29
716.615	431.81
716.806	442.66
716.998	452.35
717.189	429.1
717.381	378.92
717.572	380.47
717.763	427.94
717.955	428.71
718.146	437.82
718.337	382.21
718.528	379.7
718.72	362.65
718.911	417.67
719.102	369.23
719.293	437.63
719.485	426.97
719.676	409.92
719.867	388.61
720.058	359.55
720.249	373.3
720.44	407.21
720.632	400.81
720.823	406.82
721.014	484.71
721.205	453.9
721.396	436.46
721.587	526.56
721.778	508.34
721.969	503.89
722.16	523.84
722.351	494.98
722.542	591.85
722.733	588.94
722.924	528.3
723.115	559.49
723.305	608.12
723.496	552.13
723.687	529.85
723.878	534.11
724.069	550.19
724.26	573.25
724.45	529.66
724.641	524.43
724.832	533.53
725.023	560.27
725.213	531.79
725.404	525.2
725.595	544.77
725.785	526.75
725.976	590.88
726.167	555.42
726.357	536.83
726.548	642.8
726.739	557.75
726.929	614.71
727.12	597.27
727.31	647.07
727.501	622.66
727.691	613.74
727.882	628.86
728.072	657.72
728.263	615.87
728.453	631.76
728.644	651.72
728.834	643.58
729.024	609.09
729.215	626.72
729.405	646.1
729.596	712.17
729.786	697.25
729.976	664.7
730.167	757.5
730.357	661.4
730.547	656.56
730.737	706.55
730.928	737.16
731.118	755.76
731.308	705.97
731.498	712.94
731.688	759.83
731.879	755.95
732.069	780.17
732.259	766.03
732.449	755.18
732.639	826.48
732.829	836.16
733.019	822.6
733.209	875.69
733.399	877.24
733.589	866.78
733.779	873.95
733.969	881.7
734.159	872.01
734.349	916.18
734.539	939.63
734.729	939.82
734.919	971.4
735.109	964.04
735.299	937.49
735.488	964.81
735.678	974.5
735.868	952.41
736.058	990.97
736.248	968.3
736.437	914.24
736.627	943.69
736.817	1066.34
737.007	1001.82
737.196	1025.46
737.386	974.31
737.576	975.08
737.765	990.97
737.955	995.81
738.144	1066.72
738.334	1005.11
738.524	994.07
738.713	1038.82
738.903	1034.37
739.092	1074.09
739.282	1056.84
739.471	1044.06
739.661	1015.38
739.85	1096.37
740.04	1107.02
740.229	1112.84
740.419	1118.07
740.608	1121.75
740.797	1119.62
740.987	1168.44
741.176	1148.29
741.365	1112.25
741.555	1069.82
741.744	1116.13
741.933	1140.93
742.123	1141.9
742.312	1197.7
742.501	1157.78
742.69	1180.26
742.88	1133.57
743.069	1234.12
743.258	1152.36
743.447	1193.05
743.636	1204.48
743.825	1150.81
744.014	1171.54
744.204	1181.81
744.393	1140.74
744.582	1217.27
744.771	1226.95
744.96	1184.52
745.149	1212.23
745.338	1199.63
745.527	1212.23
745.716	1199.25
745.905	1170.77
746.094	1205.25
746.283	1227.73
746.471	1243.03
746.66	1295.73
746.849	1266.09
747.038	1296.9
747.227	1210.68
747.416	1242.84
747.604	1196.15
747.793	1250.01
747.982	1263.38
748.171	1250.01
748.359	1296.9
748.548	1265.7
748.737	1239.74
748.926	1234.9
749.114	1162.63
749.303	1254.08
749.491	1221.33
749.68	1197.31
749.869	1279.46
750.057	1228.7
750.246	1186.65
750.434	1225.21
750.623	1222.5
750.811	1263.96
751	1302.13
751.188	1225.02
751.377	1275.58
751.565	1217.65
751.754	1203.32
751.942	1218.62
752.131	1266.48
752.319	1235.09
752.507	1190.92
752.696	1259.11
752.884	1278.3
753.072	1227.34
753.261	1249.81
753.449	1228.5
753.637	1240.13
753.825	1311.62
754.014	1221.33
754.202	1253.69
754.39	1277.13
754.578	1283.91
754.766	1237.03
754.955	1240.32
755.143	1311.62
755.331	1244.97
755.519	1236.25
755.707	1238.19
755.895	1238.19
756.083	1256.79
756.271	1203.32
756.459	1223.08
756.647	1303.48
756.835	1215.33
757.023	1200.41
757.211	1263.38
757.399	1221.92
757.587	1216.68
757.775	1202.54
757.963	1217.46
758.151	1227.53
758.339	1170.77
758.526	1210.29
758.714	1216.68
758.902	1191.3
759.09	1168.83
759.278	1053.55
759.465	1039.21
759.653	834.23
759.841	802.45
760.028	652.88
760.216	563.95
760.404	579.84
760.591	450.41
760.779	368.46
760.967	340.37
761.154	246.4
761.342	322.35
761.529	327.19
761.717	325.25
761.905	283.02
762.092	325.06
762.28	271
762.467	301.23
762.655	277.01
762.842	289.99
763.029	280.3
763.217	301.62
763.404	282.24
763.592	332.03
763.779	273.52
763.966	300.84
764.154	357.42
764.341	375.43
764.528	362.26
764.716	399.85
764.903	409.53
765.09	387.25
765.277	445.18
765.465	546.12
765.652	536.05
765.839	570.73
766.026	619.56
766.213	611.03
766.4	691.82
766.588	801.48
766.775	729.8
766.962	818.15
767.149	750.33
767.336	850.89
767.523	829.38
767.71	851.28
767.897	942.34
768.084	983.61
768.271	958.23
768.458	1045.22
768.645	1014.02
768.832	988.06
769.019	1019.64
769.206	1028.36
769.392	1053.74
769.579	1174.45
769.766	1047.16
769.953	1092.1
770.14	1106.64
770.327	1098.11
770.513	1134.15
770.7	1188.78
770.887	1107.02
771.073	1171.54
771.26	1135.12
771.447	1084.16
771.634	1113.8
771.82	1172.9
772.007	1149.84
772.193	1089
772.38	1168.83
772.567	1160.11
772.753	1166.31
772.94	1178.52
773.126	1192.08
773.313	1192.47
773.499	1179.87
773.686	1153.91
773.872	1146.55
774.059	1150.62
774.245	1121.94
774.432	1140.35
774.618	1073.7
774.804	1156.43
774.991	1063.04
775.177	1172.12
775.363	1139.96
775.55	1133.95
775.736	1088.62
775.922	1100.44
776.109	1146.16
776.295	1145.97
776.481	1118.65
776.667	1158.95
776.853	1122.14
777.04	1097.92
777.226	1125.62
777.412	1214.75
777.598	1067.5
777.784	1097.34
777.97	1112.06
778.156	1114
778.342	1111.67
778.528	1098.3
778.715	1067.89
778.901	1080.09
779.087	1108.96
779.272	1078.93
779.458	1044.64
779.644	1128.53
779.83	1091.52
780.016	1206.8
780.202	1096.17
780.388	1060.72
780.574	1011.51
780.76	1063.82
780.946	1098.11
781.131	1095.01
781.317	1059.56
781.503	1042.89
781.689	1048.9
781.874	1160.69
782.06	1065.37
782.246	1036.69
782.432	1035.92
782.617	1093.07
782.803	1133.18
782.989	1016.35
783.174	1058.97
783.36	1012.47
783.545	1058.59
783.731	1056.26
783.916	989.61
784.102	1053.94
784.288	1012.86
784.473	992.71
784.659	1031.66
784.844	1054.32
785.029	1001.62
785.215	1003.95
785.4	954.54
785.586	1077.19
785.771	987.48
785.956	1043.67
786.142	1002.21
786.327	974.11
786.512	1032.82
786.698	1017.12
786.883	958.81
787.068	988.84
787.254	1002.21
787.439	981.09
787.624	987.48
787.809	991.36
787.994	965.39
788.18	1043.67
788.365	930.13
788.55	968.11
788.735	949.31
788.92	980.12
789.105	975.08
789.29	1010.92
789.475	969.85
789.66	949.12
789.845	948.93
790.03	922.77
790.215	981.86
790.4	993.1
790.585	1025.46
790.77	950.48
790.955	875.3
791.14	915.6
791.325	986.9
791.51	859.8
791.695	947.38
791.879	902.62
792.064	882.28
792.249	975.86
792.434	900.68
792.618	935.94
792.803	978.38
792.988	921.22
793.173	917.73
793.357	971.98
793.542	897
793.727	931.68
793.911	964.62
794.096	917.15
794.281	950.48
794.465	1017.32
794.65	953.77
794.834	934.78
795.019	998.33
795.203	984.57
795.388	968.11
795.572	1004.92
795.757	974.69
795.941	959.78
796.126	997.17
796.31	923.74
796.494	921.22
796.679	949.7
796.863	934.2
797.048	977.02
797.232	970.82
797.416	948.54
797.601	926.84
797.785	1007.63
797.969	954.16
798.153	927.81
798.338	915.99
798.522	985.54
798.706	971.79
798.89	973.73
799.074	1042.12
799.258	1000.85
799.443	952.61
799.627	955.71
799.811	1012.86
799.995	953.58
800.179	921.99
800.363	928
800.547	990.77
800.731	984.57
800.915	929.74
801.099	942.53
801.283	969.08
801.467	961.52
801.651	923.35
801.835	992.52
802.019	964.04
802.202	982.25
802.386	902.81
802.57	950.67
802.754	915.6
802.938	947.18
803.121	927.81
803.305	987.48
803.489	969.85
803.673	998.33
803.856	935.56
804.04	962.49
804.224	973.92
804.407	976.63
804.591	949.89
804.775	945.05
804.958	988.84
805.142	1053.16
805.326	954.93
805.509	963.07
805.693	983.02
805.876	1015.96
806.06	965.98
806.243	982.83
806.427	1014.41
806.61	1026.81
806.794	945.63
806.977	1023.71
807.16	979.73
807.344	958.61
807.527	979.15
807.71	972.37
807.894	980.89
808.077	1023.13
808.26	963.46
808.444	977.41
808.627	996.59
808.81	945.83
808.993	902.43
809.177	928.78
809.36	944.66
809.543	1002.79
809.726	902.23
809.909	938.46
810.092	889.25
810.276	888.48
810.459	932.07
810.642	877.82
810.825	921.99
811.008	927.03
811.191	821.05
811.374	850.11
811.557	866.97
811.74	928.58
811.923	812.91
812.106	845.46
812.289	799.16
812.472	870.07
812.654	892.74
812.837	834.23
813.02	806.33
813.203	820.47
813.386	764.67
813.569	755.37
813.751	732.7
813.934	768.93
814.117	732.9
814.3	724.18
814.482	714.88
814.665	693.57
814.848	680
815.03	637.19
815.213	659.47
815.396	670.7
815.578	644.55
815.761	622.66
815.943	698.02
816.126	607.16
816.309	640.67
816.491	605.22
816.674	547.67
816.856	592.82
817.039	571.89
817.221	628.86
817.403	607.93
817.586	594.76
817.768	621.88
817.951	556.97
818.133	554.26
818.315	589.14
818.498	622.66
818.68	653.65
818.862	632.15
819.045	637.38
819.227	650.75
819.409	621.69
819.591	621.69
819.774	628.27
819.956	572.28
820.138	668.38
820.32	613.74
820.502	650.94
820.684	691.63
820.866	687.37
821.048	721.66
821.231	700.54
821.413	686.01
821.595	681.75
821.777	674.77
821.959	681.94
822.141	734.25
822.323	628.86
822.505	606.38
822.686	620.72
822.868	633.7
823.05	544.96
823.232	552.13
823.414	479.09
823.596	564.14
823.778	530.63
823.96	554.46
824.141	543.99
824.323	527.72
824.505	588.75
824.687	603.86
824.868	603.86
825.05	691.63
825.232	660.44
825.413	769.13
825.595	689.89
825.777	597.86
825.958	665.28
826.14	638.93
826.321	679.23
826.503	643
826.685	670.51
826.866	724.95
827.048	689.69
827.229	623.24
827.411	630.21
827.592	618.39
827.773	627.69
827.955	577.71
828.136	601.92
828.318	551.74
828.499	621.11
828.68	550.58
828.862	611.03
829.043	630.79
829.224	617.04
829.406	612.58
829.587	566.08
829.768	569.96
829.949	643.39
830.131	618.78
830.312	674.77
830.493	592.04
830.674	630.41
830.855	613.16
831.036	579.26
831.218	639.51
831.399	660.24
831.58	605.8
831.761	662.18
831.942	640.09
832.123	605.22
832.304	562.79
832.485	574.41
832.666	591.27
832.847	614.32
833.028	597.66
833.209	607.54
833.389	597.27
833.57	582.16
833.751	592.43
833.932	630.79
834.113	583.71
834.294	570.73
834.475	645.13
834.655	667.02
834.836	641.06
835.017	612.39
835.198	558.33
835.378	608.32
835.559	607.54
835.74	613.36
835.92	561.24
836.101	549.81
836.281	619.94
836.462	615.29
836.643	657.72
836.823	643.39
837.004	619.36
837.184	691.82
837.365	658.5
837.545	683.3
837.726	613.16
837.906	689.3
838.087	612
838.267	621.3
838.448	607.74
838.628	618.59
838.808	620.33
838.989	691.24
839.169	589.72
839.349	647.84
839.53	631.96
839.71	663.54
839.89	591.66
840.07	681.36
840.251	628.66
840.431	642.42
840.611	640.87
840.791	592.04
840.971	629.24
841.151	590.69
841.332	594.56
841.512	667.8
841.692	570.92
841.872	642.03
842.052	629.82
842.232	624.01
842.412	578.87
842.592	632.15
842.772	610.26
842.952	624.59
843.132	596.69
843.312	610.06
843.492	576.74
843.672	618.01
843.851	568.6
844.031	622.66
844.211	606.19
844.391	601.15
844.571	629.63
844.751	635.05
844.93	627.11
845.11	611.03
845.29	595.53
845.47	630.79
845.649	645.71
845.829	625.76
846.009	581.39
846.188	607.74
846.368	610.06
846.547	621.69
846.727	645.9
846.907	567.82
847.086	614.13
847.266	603.67
847.445	615.68
847.625	587.97
847.804	611.22
847.984	562.98
848.163	576.54
848.343	579.45
848.522	632.15
848.701	596.69
848.881	587.59
849.06	607.74
849.239	618.2
849.419	593.21
849.598	578.09
849.777	544.58
849.957	611.42
850.136	555.81
850.315	531.59
850.494	531.4
850.674	542.06
850.853	593.01
851.032	553.68
851.211	627.89
851.39	568.02
851.569	500.59
851.748	543.61
851.927	578.29
852.107	561.04
852.286	503.11
852.465	516.48
852.644	570.15
852.823	568.6
853.002	557.36
853.181	556.78
853.359	556.78
853.538	521.91
853.717	599.21
853.896	518.23
854.075	493.62
854.254	499.82
854.433	456.42
854.611	513.77
854.79	459.91
854.969	521.52
855.148	538.57
855.327	466.49
855.505	516.29
855.684	484.32
855.863	497.11
856.041	458.94
856.22	483.16
856.399	468.04
856.577	549.81
856.756	515.51
856.934	628.86
857.113	640.48
857.291	533.14
857.47	511.83
857.648	525.01
857.827	525.78
858.005	560.46
858.184	513.77
858.362	581.19
858.541	515.13
858.719	505.83
858.898	515.9
859.076	538.38
859.254	587.97
859.433	516.87
859.611	496.14
859.789	477.15
859.967	587.2
860.146	574.41
860.324	480.25
860.502	508.34
860.68	467.66
860.859	498.85
861.037	516.68
861.215	521.91
861.393	514.35
861.571	519
861.749	500.79
861.927	502.53
862.105	513.58
862.283	508.93
862.461	482.96
862.639	478.51
862.817	468.04
862.995	499.24
863.173	505.44
863.351	492.84
863.529	492.26
863.707	546.51
863.885	513.77
864.063	438.79
864.241	496.14
864.418	544.38
864.596	466.49
864.774	459.71
864.952	472.69
865.129	508.93
865.307	483.35
865.485	434.53
865.663	528.88
865.84	449.45
866.018	480.64
866.196	374.85
866.373	441.7
866.551	444.8
866.728	346.76
866.906	419.03
867.084	424.26
867.261	466.69
867.439	465.91
867.616	474.05
867.794	457.78
867.971	467.85
868.149	448.48
868.326	492.65
868.503	491.68
868.681	444.6
868.858	434.53
869.035	410.7
869.213	507.76
869.39	425.42
869.567	512.61
869.745	438.21
869.922	476.76
870.099	466.49
870.276	486.84
870.454	473.47
870.631	463.78
870.808	428.13
870.985	479.48
871.162	487.81
871.339	472.11
871.517	421.93
871.694	422.51
871.871	430.26
872.048	441.11
872.225	425.23
872.402	471.92
872.579	396.94
872.756	441.89
872.933	403.14
873.11	430.65
873.287	454.87
873.463	445.38
873.64	418.83
873.817	494.39
873.994	447.7
874.171	424.26
874.348	449.83
874.524	377.56
874.701	411.08
874.878	363.42
875.055	447.31
875.231	430.85
875.408	439.76
875.585	376.98
875.762	410.5
875.938	428.52
876.115	432.59
876.291	423.48
876.468	415.54
876.645	364.39
876.821	408.37
876.998	401.98
877.174	380.08
877.351	377.95
877.527	368.07
877.704	424.84
877.88	425.23
878.057	403.91
878.233	450.8
878.409	386.86
878.586	417.48
878.762	389.58
878.938	375.24
879.115	365.17
879.291	386.09
879.467	342.88
879.644	369.23
879.82	420.19
879.996	367.3
880.172	344.05
880.349	387.06
880.525	418.25
880.701	367.88
880.877	372.14
881.053	412.63
881.229	384.73
881.405	428.52
881.581	384.35
881.757	380.66
881.933	399.07
882.109	425.23
882.285	376.01
882.461	340.75
882.637	354.32
882.813	342.3
882.989	362.45
883.165	419.8
883.341	355.28
883.517	431.23
883.693	377.56
883.869	410.89
884.044	349.67
884.22	415.35
884.396	426.97
884.572	378.15
884.747	428.13
884.923	397.13
885.099	400.23
885.275	430.07
885.45	346.95
885.626	375.43
885.801	367.1
885.977	346.37
886.153	328.35
886.328	404.88
886.504	381.05
886.679	396.94
886.855	359.35
887.03	391.51
887.206	407.6
887.381	409.53
887.557	379.5
887.732	401.4
887.908	406.82
888.083	409.15
888.258	381.63
888.434	365.36
888.609	388.03
888.784	426.78
888.96	360.9
889.135	338.82
889.31	343.66
889.485	375.63
889.661	367.68
889.836	391.32
890.011	387.83
890.186	363.81
890.361	349.47
890.537	349.28
890.712	370.01
890.887	352.77
891.062	367.3
891.237	439.37
891.412	354.7
891.587	370.2
891.762	385.7
891.937	426.97
892.112	338.04
892.287	366.33
892.462	341.72
892.637	309.95
892.812	322.35
892.987	323.32
893.161	336.3
893.336	328.35
893.511	359.55
893.686	330.68
893.861	331.26
894.035	330.29
894.21	352.38
894.385	300.26
894.56	367.88
894.734	287.47
894.909	296
895.084	338.04
895.258	305.1
895.433	323.12
895.608	339.4
895.782	281.66
895.957	302.39
896.131	313.63
896.306	253.95
896.48	252.99
896.655	266.55
896.829	249.89
897.004	248.14
897.178	249.5
897.353	235.16
897.527	271.97
897.701	239.04
897.876	217.72
898.05	283.4
898.224	268.68
898.399	284.57
898.573	267.32
898.747	188.08
898.921	258.6
899.096	196.02
899.27	180.33
899.444	191.76
899.618	222.76
899.792	220.05
899.967	183.24
900.141	242.52
900.315	182.07
900.489	182.85
900.663	251.05
900.837	220.44
901.011	173.36
901.185	286.5
901.359	251.82
901.533	249.3
901.707	237.68
901.881	225.86
902.055	182.85
902.229	216.56
902.403	256.86
902.576	226.44
902.75	213.27
902.924	326.8
903.098	233.8
903.272	265.77
903.446	267.52
903.619	239.42
903.793	264.03
903.967	227.99
904.14	305.49
904.314	289.6
904.488	284.95
904.661	312.08
904.835	252.6
905.009	301.42
905.182	365.55
905.356	310.92
905.529	263.25
905.703	249.69
905.876	258.41
906.05	211.91
906.223	235.35
906.397	214.62
906.57	217.72
906.744	209.59
906.917	214.82
907.09	227.02
907.264	244.27
907.437	205.71
907.61	174.71
907.784	203.58
907.957	213.07
908.13	196.6
908.304	238.07
908.477	190.79
908.65	192.92
908.823	176.26
908.996	256.67
909.17	205.71
909.343	190.99
909.516	205.13
909.689	203.39
909.862	177.81
910.035	221.4
910.208	191.96
910.381	186.53
910.554	286.7
910.727	179.75
910.9	180.33
911.073	177.42
911.246	227.41
911.419	229.93
911.592	212.88
911.765	178.01
911.938	169.67
912.11	196.6
912.283	180.14
912.456	214.24
912.629	197.19
912.802	183.04
912.974	159.02
913.147	148.17
913.32	109.81
913.493	116.39
913.665	165.22
913.838	170.64
914.01	155.34
914.183	174.32
914.356	137.9
914.528	196.41
914.701	227.22
914.873	227.22
915.046	159.02
915.218	160.18
915.391	105.35
915.563	138.29
915.736	187.89
915.908	201.64
916.081	155.34
916.253	172.19
916.425	164.25
916.598	173.94
916.77	152.24
916.942	135.19
917.115	74.16
917.287	179.94
917.459	165.61
917.632	121.04
917.804	118.14
917.976	153.79
918.148	133.25
918.32	157.86
918.493	171.61
918.665	222.76
918.837	150.3
919.009	200.87
919.181	221.21
919.353	199.9
919.525	171.61
919.697	161.15
919.869	146.23
920.041	194.86
920.213	232.06
920.385	178.39
920.557	165.02
920.729	196.99
920.901	149.52
921.073	146.81
921.244	170.06
921.416	217.14
921.588	174.32
921.76	183.62
921.932	210.36
922.103	179.75
922.275	174.52
922.447	167.93
922.619	112.32
922.79	170.06
922.962	149.72
923.134	183.82
923.305	122.01
923.477	133.06
923.648	127.44
923.82	165.99
923.991	109.03
924.163	104.77
924.335	147.78
924.506	130.54
924.677	190.99
924.849	128.02
925.02	107.29
925.192	157.27
925.363	147.78
925.535	147.78
925.706	151.07
925.877	188.47
926.049	124.72
926.22	161.92
926.391	157.08
926.562	180.91
926.734	119.88
926.905	161.92
927.076	91.98
927.247	134.22
927.419	93.34
927.59	92.56
927.761	124.53
927.932	114.65
928.103	142.74
928.274	96.44
928.445	86.75
928.616	130.73
928.787	108.26
928.958	134.61
929.129	133.83
929.3	110
929.471	104.38
929.642	45.48
929.813	44.13
929.984	114.84
930.155	24.56
930.326	124.92
930.496	41.03
930.667	5.38
930.838	55.75
931.009	36.96
931.18	58.66
931.35	64.28
931.521	89.27
931.692	30.37
931.863	13.51
932.033	45.68
932.204	68.73
932.374	74.54
932.545	25.53
932.716	76.68
932.886	72.61
933.057	10.8
933.227	6.73
933.398	116.39
933.568	15.65
933.739	-21.55
933.909	4.8
934.08	65.05
934.25	-26.01
934.421	4.6
934.591	17.39
934.761	21.65
934.932	-57.01
935.102	10.22
935.272	3.25
935.443	7.12
935.613	3.25
935.783	-1.21
935.953	-20.78
936.123	151.07
936.294	-3.34
936.464	-7.02
936.634	21.46
936.804	-16.9
936.974	-6.25
937.144	27.27
937.314	12.74
937.484	-12.64
937.655	-10.7
937.825	49.16
937.995	-17.49
938.165	41.41
938.334	-6.05
938.504	0.53
938.674	-15.35
938.844	-20.59
939.014	59.24
939.184	-4.31
939.354	59.04
939.524	63.89
939.694	11.38
939.863	-8.96
940.033	79
940.203	64.28
940.373	49.55
940.542	55.94
940.712	-16.9
940.882	55.94
941.051	36.76
941.221	49.55
941.391	78.03
941.56	6.73
941.73	-7.02
941.899	125.11
942.069	5.38
942.238	57.69
942.408	23.2
942.577	77.84
942.747	14.68
942.916	-26.4
943.086	10.8
943.255	43.93
943.425	44.13
943.594	-5.86
943.763	-52.55
943.933	-27.56
944.102	-25.43
944.271	42.58
944.441	18.16
944.61	10.8
944.779	20.1
944.948	109.22
945.117	-18.45
945.287	12.74
945.456	-42.48
945.625	-3.15
945.794	41.8
945.963	10.22
946.132	43.16
946.301	10.22
946.47	42.38
946.639	-31.63
946.808	13.32
946.977	31.34
947.146	81.52
947.315	-4.12
947.484	48.97
947.653	-10.7
947.822	11.96
947.991	-14.77
948.16	83.84
948.329	55.75
948.498	0.15
948.666	-15.35
948.835	30.18
949.004	-47.9
949.173	-36.86
949.341	22.81
949.51	52.84
949.679	71.44
949.847	54.98
950.016	75.13
950.185	55.17
950.353	-9.93
950.522	4.41
950.69	48.39
950.859	-4.5
951.028	60.21
951.196	10.8
951.365	5.96
951.533	-2.76
951.701	58.08
951.87	69.89
952.038	-41.7
952.207	6.93
952.375	76.87
952.543	9.45
952.712	22.23
952.88	-9.74
953.048	54.01
953.217	19.52
953.385	-19.04
953.553	67.96
953.721	-9.35
953.89	20.68
954.058	-7.8
954.226	-4.7
954.394	17.78
954.562	-32.02
954.73	6.73
954.898	3.25
955.067	70.28
955.235	21.65
955.403	53.23
955.571	65.63
955.739	17.39
955.907	-21.17
956.075	0.15
956.243	-9.54
956.41	14.29
956.578	-27.17
956.746	-59.53
956.914	4.41
957.082	26.11
957.25	12.16
957.418	-14.77
957.585	25.91
957.753	58.46
957.921	-20.78
958.089	-10.12
958.256	29.79
958.424	18.94
958.592	19.33
958.759	-13.42
958.927	57.3
959.095	5.96
959.262	25.72
959.43	19.91
959.597	-7.6
959.765	29.98
959.932	-26.4
960.1	48.39
960.267	-0.05
960.435	-6.05
960.602	72.03
960.77	11.19
960.937	-45.19
961.104	11.19
961.272	-34.15
961.439	-25.24
961.606	34.05
961.774	55.94
961.941	24.94
962.108	49.55
962.275	23.39
962.443	58.08
962.61	58.66
962.777	70.48
962.944	43.93
963.111	36.38
963.278	31.14
963.446	21.84
963.613	24.36
963.78	48.78
963.947	49.55
964.114	37.15
964.281	90.04
964.448	50.52
964.615	1.7
964.782	43.93
964.949	63.69
965.116	60.4
965.282	65.24
965.449	32.11
965.616	3.83
965.783	63.31
965.95	21.46
966.117	-24.46
966.283	18.55
966.45	34.05
966.617	32.11
966.784	53.04
966.95	38.7
967.117	58.66
967.284	-8.38
967.45	5.38
967.617	58.08
967.784	45.48
967.95	97.21
968.117	7.31
968.283	68.54
968.45	114.46
968.616	42.77
968.783	73.96
968.949	52.07
969.116	56.91
969.282	20.3
969.449	36.18
969.615	30.18
969.781	-35.89
969.948	33.28
970.114	-10.9
970.28	60.59
970.447	30.76
970.613	35.41
970.779	35.21
970.945	37.93
971.112	48.19
971.278	30.56
971.444	16.81
971.61	66.02
971.776	10.61
971.942	66.21
972.108	39.86
972.275	17.78
972.441	39.28
972.607	97.02
972.773	-3.54
972.939	15.06
973.105	41.61
973.271	5.96
973.437	16.42
973.602	13.51
973.768	74.93
973.934	50.13
974.1	37.15
974.266	-31.05
974.432	14.29
974.598	25.14
974.763	65.63
974.929	13.71
975.095	84.81
975.261	7.51
975.426	-0.82
975.592	0.73
975.758	89.85
975.923	0.34
976.089	11.58
976.255	60.4
976.42	22.23
976.586	35.21
976.751	32.31
976.917	108.45
977.082	70.48
977.248	-20.2
977.413	-13.03
977.579	4.8
977.744	29.59
977.91	-8.19
978.075	0.34
978.24	55.94
978.406	30.56
978.571	-34.15
978.736	6.35
978.902	69.51
979.067	7.7
979.232	-44.03
979.397	28.24
979.563	74.93
979.728	-18.84
979.893	32.31
980.058	10.41
980.223	65.63
980.388	7.7
980.554	38.7
980.719	0.92
980.884	28.63
981.049	57.3
981.214	7.31
981.379	20.49
981.544	-1.6
981.709	3.44
981.874	14.87
982.039	23.39
982.204	46.26
982.368	7.51
982.533	-5.86
982.698	40.06
982.863	31.14
983.028	13.51
983.193	38.31
983.357	18.75
983.522	25.53
983.687	16.23
983.852	-1.02
984.016	13.51
984.181	31.14
984.346	29.59
984.51	44.32
984.675	26.11
984.839	40.25
985.004	20.68
985.168	60.59
985.333	37.73
985.498	35.21
985.662	40.25
985.827	33.28
985.991	0.53
986.155	20.88
986.32	50.91
986.484	90.82
986.649	28.82
986.813	-31.82
986.977	14.48
987.142	54.01
987.306	-30.08
987.47	-2.95
987.634	12.16
987.799	45.68
987.963	26.11
988.127	47.23
988.291	84.23
988.455	49.16
988.62	36.18
988.784	43.16
988.948	49.94
989.112	-23.69
989.276	18.55
989.44	4.21
989.604	-5.86
989.768	-1.4
989.932	96.05
990.096	3.63
990.26	2.28
990.424	-14.77
990.588	17.58
990.752	72.99
990.915	51.49
991.079	5.57
991.243	-6.44
991.407	32.89
991.571	24.56
991.734	41.41
991.898	61.95
992.062	103.41
992.226	37.15
992.389	9.45
992.553	-40.15
992.717	8.86
992.88	30.95
993.044	19.52
993.207	5.96
993.371	40.64
993.535	54.78
993.698	27.08
993.862	61.56
994.025	66.79
994.189	14.1
994.352	30.56
994.515	33.47
994.679	64.08
994.842	8.28
995.006	55.56
995.169	-9.93
995.332	-28.34
995.496	55.17
995.659	-14.39
995.822	24.94
995.985	21.26
996.149	68.54
996.312	29.21
996.475	85.98
996.638	-11.48
996.801	58.85
996.964	88.49
997.128	33.08
997.291	19.33
997.454	31.53
997.617	-23.88
997.78	48.78
997.943	-2.57
998.106	62.53
998.269	-4.89
998.432	20.1
998.595	51.29
998.758	-9.15
998.92	1.89
999.083	-10.7
999.246	9.25
999.409	-23.3
999.572	-30.27
999.735	15.65
999.897	29.59
1000.06	-4.12
1000.223	7.31
1000.386	67.38
1000.548	49.16
1000.711	33.86
1000.874	35.02
1001.036	-10.32
1001.199	76.48
1001.361	-11.09
1001.524	33.08
1001.687	50.52
1001.849	-23.3
1002.012	23.2
1002.174	28.04
1002.337	36.18
1002.499	9.83
1002.661	56.33
1002.824	-10.12
1002.986	6.35
1003.149	-5.47
1003.311	-21.75
1003.473	81.71
1003.636	8.09
1003.798	36.38
1003.96	45.68
1004.123	3.83
1004.285	3.44
1004.447	8.09
1004.609	8.86
1004.771	64.47
1004.933	-45.58
1005.096	-22.72
1005.258	-31.24
1005.42	18.16
1005.582	36.38
1005.744	21.46
1005.906	-22.52
1006.068	6.15
1006.23	-26.2
1006.392	-28.72
1006.554	-4.12
1006.716	32.89
1006.878	29.59
1007.04	-29.89
1007.202	-14.97
1007.363	23.39
1007.525	-2.18
1007.687	12.93
1007.849	65.63
1008.011	-41.32
1008.172	-4.12
1008.334	-14.77
1008.496	24.75
1008.658	-32.6
1008.819	-13.42
1008.981	-59.72
1009.143	-8.57
1009.304	17.97
1009.466	41.61
1009.627	46.64
1009.789	95.08
1009.95	27.66
1010.112	8.48
1010.273	38.7
1010.435	-13.22
1010.596	10.03
1010.758	-20.2
1010.919	17.58
1011.081	-10.51
1011.242	15.26
1011.403	30.76
1011.565	6.73
1011.726	40.44
1011.887	-34.15
1012.049	27.46
1012.21	37.93
1012.371	88.3
1012.532	-37.83
1012.693	-6.05
1012.855	-14.19
1013.016	13.51
1013.177	40.25
1013.338	-6.83
1013.499	71.44
1013.66	25.91
1013.821	41.41
1013.982	34.05
1014.143	7.9
1014.304	4.41
1014.465	23.98
1014.626	27.66
1014.787	-15.55
1014.948	105.16
1015.109	-49.65
1015.27	36.57
1015.431	15.06
1015.592	20.88
1015.752	27.85
1015.913	2.47
1016.074	16.23
1016.235	-2.37
1016.395	3.05
1016.556	-0.82
1016.717	20.88
1016.877	17.2
1017.038	-24.46
1017.199	20.3
1017.359	8.86
1017.52	5.76
1017.681	9.64
1017.841	-0.44
1018.002	-2.18
1018.162	-30.47
1018.323	30.95
1018.483	1.5
1018.644	-3.15
1018.804	-38.8
1018.964	-32.21
1019.125	-15.74
1019.285	15.84
1019.446	-31.05
1019.606	-28.53
1019.766	-48.29
1019.926	6.15
1020.087	23.39
1020.247	-45.58
1020.407	33.66
1020.567	27.27
1020.728	-9.74
1020.888	-45.39
1021.048	-3.34
1021.208	-36.09
1021.368	-33.95
1021.528	62.73
1021.688	45.29
1021.848	46.26
1022.008	1.11
1022.168	4.6
1022.328	14.1
1022.488	34.63
1022.648	-26.4
1022.808	28.43
1022.968	16.03
1023.128	-28.14
1023.288	1.11
1023.448	18.75
1023.608	38.12
1023.767	13.71
1023.927	-14.97
1024.087	-6.83
1024.247	-13.22
1024.406	-0.24
1024.566	-19.62
1024.726	-20
1024.885	11.58
1025.045	32.5
1025.205	-1.02
1025.364	12.93
1025.524	9.45
1025.683	-10.32
1025.843	6.35
1026.003	7.31
1026.162	47.42
1026.321	25.72
1026.481	-4.12
1026.64	-0.05
1026.8	28.24
1026.959	5.57
1027.119	16.42
1027.278	-7.8
1027.437	-27.37
1027.597	7.12
1027.756	31.73
1027.915	12.16
1028.074	19.91
1028.234	-25.24
1028.393	-13.22
1028.552	3.05
1028.711	-62.24
1028.87	40.25
1029.03	-41.12
1029.189	4.8
1029.348	-53.72
1029.507	-48.49
1029.666	-32.4
1029.825	-53.72
1029.984	-25.24
1030.143	18.94
1030.302	7.7
1030.461	-51
1030.62	-16.32
1030.779	26.88
1030.938	-21.55
1031.097	-15.74
1031.255	27.27
1031.414	55.17
1031.573	49.74
1031.732	-57.2
1031.891	-15.16
1032.049	51.49
1032.208	24.36
1032.367	-24.65
1032.525	-6.44
1032.684	13.71
1032.843	-2.76
1033.001	-58.75
1033.16	143.13
1033.319	48.19
1033.477	13.71
1033.636	-15.55
1033.794	-33.76
1033.953	27.08
1034.111	36.57
1034.27	9.25
1034.428	18.75
1034.587	-31.05
1034.745	8.67
1034.903	29.98
1035.062	0.92
1035.22	-54.49
1035.378	31.34
1035.537	-31.82
1035.695	27.46
1035.853	23.2
1036.011	24.75
1036.17	29.01
1036.328	-37.64
1036.486	43.16
1036.644	2.86
1036.802	-62.44
1036.96	-31.24
1037.119	-24.46
1037.277	8.86
1037.435	-36.09
1037.593	-34.54
1037.751	2.08
1037.909	5.38
1038.067	5.38
