Data from pine_FLMT105791__112__17-22-11-075.txt Node

Date: Mon Mar 20 17:22:11 GMT 2023
User: antho
Spectrometer: FLMT10579
Trigger mode: 0
Integration Time (sec): 1.000000E-1
Scans to average: 10
Electric dark correction enabled: true
Nonlinearity correction enabled: false
Boxcar width: 0
XAxis mode: Wavelengths
Number of Pixels in Spectrum: 3648
>>>>>Begin Spectral Data<<<<<
345.248	-170.55
345.464	-170.55
345.681	-170.55
345.898	-148.27
346.114	-182.56
346.331	-17.87
346.548	49.74
346.764	-2.18
346.981	-22.91
347.197	-18.84
347.414	29.4
347.631	-12.84
347.847	45.29
348.064	-15.94
348.28	22.62
348.497	-47.9
348.713	-8.57
348.93	34.24
349.146	28.63
349.363	-4.12
349.579	23.01
349.796	-0.44
350.012	-32.79
350.229	26.3
350.445	9.45
350.661	8.86
350.878	-17.87
351.094	19.33
351.311	12.74
351.527	35.02
351.743	4.21
351.96	37.93
352.176	36.18
352.392	7.31
352.609	19.52
352.825	-6.25
353.041	30.37
353.257	-17.29
353.474	9.25
353.69	9.25
353.906	46.26
354.122	-11.87
354.339	37.54
354.555	23.2
354.771	-18.26
354.987	43.16
355.203	61.37
355.42	-27.37
355.636	21.26
355.852	-8.77
356.068	34.83
356.284	-35.5
356.5	56.14
356.716	4.99
356.932	-4.31
357.148	36.76
357.364	11.38
357.58	42.38
357.796	39.67
358.012	31.73
358.228	25.91
358.444	-28.92
358.66	65.05
358.876	35.41
359.092	-1.6
359.308	28.43
359.524	25.33
359.74	33.47
359.956	-14.97
360.172	40.06
360.388	19.52
360.604	8.86
360.819	102.83
361.035	27.66
361.251	48.58
361.467	-15.16
361.683	35.02
361.898	11.19
362.114	24.94
362.33	0.53
362.546	43.54
362.762	19.13
362.977	21.07
363.193	-27.56
363.409	38.31
363.624	-33.95
363.84	-10.32
364.056	-26.59
364.271	28.63
364.487	7.9
364.703	-10.51
364.918	-36.09
365.134	14.29
365.35	-5.28
365.565	84.43
365.781	8.48
365.996	31.53
366.212	63.31
366.427	15.84
366.643	-10.7
366.858	10.61
367.074	-22.52
367.289	75.32
367.505	99.54
367.72	-48.87
367.936	-21.17
368.151	53.23
368.367	31.34
368.582	21.85
368.798	0.15
369.013	42.38
369.228	18.55
369.444	-7.99
369.659	63.11
369.874	41.22
370.09	54.39
370.305	-55.46
370.52	-9.74
370.736	50.33
370.951	20.68
371.166	60.4
371.381	67.38
371.597	44.13
371.812	-16.71
372.027	-29.5
372.242	18.36
372.458	84.81
372.673	1.5
372.888	-10.7
373.103	22.81
373.318	100.7
373.533	41.41
373.749	6.73
373.964	-42.87
374.179	65.44
374.394	-21.17
374.609	49.36
374.824	-14.39
375.039	38.7
375.254	-21.55
375.469	75.32
375.684	61.76
375.899	74.35
376.114	10.41
376.329	26.11
376.544	18.55
376.759	57.69
376.974	-20
377.189	9.64
377.404	1.89
377.619	28.63
377.834	-33.37
378.049	-24.07
378.264	-27.37
378.478	14.1
378.693	-10.32
378.908	25.53
379.123	-1.99
379.338	49.94
379.553	19.71
379.767	12.55
379.982	37.15
380.197	36.18
380.412	9.06
380.626	40.83
380.841	119.11
381.056	37.93
381.271	61.95
381.485	18.55
381.7	-12.84
381.915	25.91
382.129	0.34
382.344	36.18
382.559	-7.02
382.773	59.24
382.988	-25.43
383.202	19.13
383.417	-13.8
383.632	122.59
383.846	10.61
384.061	20.68
384.275	11.19
384.49	33.86
384.704	50.33
384.919	34.24
385.133	21.26
385.348	59.82
385.562	3.44
385.777	29.98
385.991	45.48
386.206	-3.73
386.42	-20.97
386.634	57.69
386.849	50.33
387.063	23.39
387.277	13.13
387.492	15.06
387.706	8.09
387.92	-15.35
388.135	47.81
388.349	39.48
388.563	-0.82
388.778	31.73
388.992	38.89
389.206	37.15
389.42	105.93
389.635	28.43
389.849	60.21
390.063	56.33
390.277	58.66
390.491	76.87
390.706	58.08
390.92	32.31
391.134	13.32
391.348	34.24
391.562	-7.99
391.776	8.67
391.99	1.11
392.205	53.04
392.419	22.23
392.633	25.72
392.847	72.61
393.061	-0.44
393.275	100.51
393.489	28.43
393.703	35.41
393.917	33.28
394.131	19.91
394.345	55.36
394.559	51.29
394.773	-3.15
394.986	30.56
395.2	33.28
395.414	54.78
395.628	22.81
395.842	33.66
396.056	3.63
396.27	-24.07
396.484	20.1
396.697	46.64
396.911	87.72
397.125	51.1
397.339	60.21
397.553	63.69
397.766	90.82
397.98	57.69
398.194	91.01
398.408	16.81
398.621	67.57
398.835	51.1
399.049	67.96
399.262	67.57
399.476	71.06
399.69	42.96
399.903	123.37
400.117	36.18
400.331	52.65
400.544	29.01
400.758	141.39
400.971	66.21
401.185	58.46
401.398	-7.41
401.612	87.72
401.826	46.45
402.039	86.75
402.253	46.06
402.466	78.03
402.68	35.41
402.893	60.21
403.106	58.46
403.32	38.89
403.533	60.01
403.747	63.5
403.96	36.38
404.174	73.77
404.387	-13.03
404.6	52.65
404.814	80.16
405.027	53.43
405.24	24.56
405.454	24.94
405.667	93.34
405.88	2.66
406.094	30.95
406.307	105.54
406.52	47.23
406.733	15.84
406.947	0.53
407.16	107.48
407.373	80.36
407.586	13.71
407.799	23.78
408.012	105.74
408.226	72.61
408.439	90.24
408.652	12.55
408.865	73.38
409.078	79.19
409.291	62.34
409.504	16.42
409.717	56.72
409.93	32.69
410.143	69.12
410.357	-5.47
410.57	-1.79
410.783	27.66
410.996	51.68
411.209	56.53
411.421	109.22
411.634	35.6
411.847	45.48
412.06	57.11
412.273	47.23
412.486	46.84
412.699	154.76
412.912	58.46
413.125	82.29
413.338	22.23
413.55	94.5
413.763	56.33
413.976	69.51
414.189	29.01
414.402	38.31
414.615	92.37
414.827	35.99
415.04	79.97
415.253	74.74
415.466	97.6
415.678	112.13
415.891	26.49
416.104	81.13
416.316	37.73
416.529	38.51
416.742	103.99
416.954	104.58
417.167	67.18
417.38	63.11
417.592	93.34
417.805	41.22
418.017	35.21
418.23	90.63
418.442	66.99
418.655	49.16
418.868	49.16
419.08	101.67
419.293	134.41
419.505	93.73
419.718	85.78
419.93	122.21
420.142	52.26
420.355	128.6
420.567	111.36
420.78	86.56
420.992	86.75
421.205	157.66
421.417	30.18
421.629	62.53
421.842	46.06
422.054	23.01
422.266	122.01
422.479	124.34
422.691	53.81
422.903	115.81
423.115	55.56
423.328	56.14
423.54	121.24
423.752	74.93
423.964	77.84
424.177	92.95
424.389	74.35
424.601	186.92
424.813	89.46
425.025	121.43
425.238	111.94
425.45	78.42
425.662	90.24
425.874	403.53
426.086	76.87
426.298	123.37
426.51	132.09
426.722	109.42
426.934	86.94
427.146	132.47
427.358	69.89
427.57	139.84
427.782	110.58
427.994	101.48
428.206	80.55
428.418	69.7
428.63	130.15
428.842	128.21
429.054	95.86
429.266	141.97
429.478	99.93
429.69	119.88
429.902	55.56
430.114	122.59
430.325	107.09
430.537	91.21
430.749	110
430.961	42.77
431.173	88.49
431.384	130.15
431.596	25.91
431.808	92.56
432.02	131.31
432.231	132.67
432.443	154.37
432.655	117.17
432.867	97.6
433.078	134.22
433.29	177.42
433.502	155.34
433.713	161.73
433.925	153.98
434.136	170.45
434.348	110.39
434.56	65.44
434.771	222.57
434.983	95.28
435.194	114.65
435.406	110.58
435.617	185.95
435.829	208.81
436.04	164.25
436.252	171.42
436.463	196.61
436.675	184.4
436.886	155.53
437.098	163.67
437.309	199.7
437.521	186.14
437.732	196.41
437.943	161.73
438.155	163.86
438.366	134.41
438.578	228.77
438.789	151.07
439	203.97
439.211	140.42
439.423	207.07
439.634	182.85
439.845	191.76
440.057	182.85
440.268	205.71
440.479	169.29
440.69	190.79
440.902	159.79
441.113	180.72
441.324	186.34
441.535	235.55
441.746	247.17
441.957	142.74
442.168	192.92
442.38	203.58
442.591	210.75
442.802	177.62
443.013	185.56
443.224	223.92
443.435	200.29
443.646	190.02
443.857	210.75
444.068	164.44
444.279	176.84
444.49	267.13
444.701	229.15
444.912	325.83
445.123	251.82
445.334	236.9
445.545	208.23
445.756	209
445.967	184.21
446.178	232.25
446.388	264.8
446.599	256.28
446.81	244.46
447.021	204.35
447.232	272.17
447.443	272.94
447.653	212.88
447.864	276.24
448.075	249.69
448.286	277.59
448.496	262.29
448.707	277.98
448.918	217.34
449.129	327.58
449.339	210.75
449.55	293.09
449.761	240.78
449.971	300.65
450.182	215.98
450.393	257.83
450.603	250.27
450.814	283.98
451.024	262.29
451.235	308.4
451.446	341.53
451.656	326.61
451.867	242.91
452.077	285.73
452.288	327.38
452.498	329.13
452.709	283.98
452.919	292.9
453.13	265.39
453.34	320.02
453.55	236.13
453.761	307.04
453.971	269.07
454.182	284.18
454.392	301.81
454.602	364.58
454.813	305.68
455.023	328.93
455.233	242.14
455.444	283.4
455.654	230.32
455.864	277.01
456.075	268.68
456.285	296.77
456.495	277.79
456.705	300.26
456.916	338.62
457.126	358.19
457.336	308.2
457.546	240.97
457.756	255.5
457.967	337.07
458.177	272.55
458.387	307.82
458.597	299.29
458.807	299.87
459.017	306.27
459.227	277.2
459.437	307.82
459.647	337.46
459.857	310.33
460.068	305.49
460.278	361.29
460.488	320.41
460.698	363.42
460.908	307.04
461.117	256.09
461.327	301.23
461.537	308.78
461.747	325.25
461.957	358.97
462.167	436.27
462.377	363.03
462.587	357.03
462.797	346.18
463.007	354.51
463.216	369.04
463.426	384.93
463.636	357.61
463.846	319.63
464.056	338.82
464.265	371.36
464.475	315.18
464.685	344.05
464.895	376.4
465.104	339.4
465.314	384.15
465.524	337.46
465.733	306.07
465.943	412.83
466.153	417.86
466.362	408.95
466.572	353.35
466.782	362.65
466.991	376.01
467.201	383.18
467.41	308.59
467.62	393.26
467.829	366.52
468.039	406.43
468.249	345.6
468.458	384.54
468.668	416.51
468.877	405.08
469.086	432.59
469.296	427.55
469.505	377.76
469.715	482.58
469.924	388.8
470.134	452.74
470.343	431.62
470.552	401.4
470.762	380.66
470.971	370.98
471.18	388.8
471.39	424.84
471.599	394.42
471.808	449.45
472.018	413.21
472.227	456.61
472.436	426.2
472.645	423.68
472.855	398.3
473.064	492.65
473.273	453.32
473.482	474.44
473.691	471.14
473.901	500.4
474.11	415.93
474.319	564.14
474.528	494.78
474.737	527.91
474.946	481.8
475.155	459.33
475.364	525.39
475.573	493.81
475.783	498.85
475.992	492.46
476.201	563.56
476.41	493.43
476.619	458.74
476.828	515.13
477.037	464.56
477.245	491.29
477.454	513.58
477.663	494.2
477.872	491.1
478.081	580.22
478.29	477.54
478.499	608.51
478.708	570.73
478.917	597.08
479.125	527.14
479.334	551.74
479.543	545.74
479.752	578.29
479.961	556.59
480.169	587.39
480.378	531.59
480.587	678.45
480.796	578.87
481.004	599.41
481.213	638.93
481.422	607.16
481.63	581.39
481.839	639.7
482.048	655.98
482.256	611.61
482.465	649.2
482.674	672.25
482.882	670.32
483.091	685.43
483.299	600.37
483.508	682.91
483.716	613.36
483.925	666.05
484.134	622.07
484.342	623.82
484.551	682.91
484.759	670.51
484.967	677.1
485.176	695.7
485.384	660.63
485.593	716.82
485.801	651.72
486.01	635.44
486.218	629.44
486.426	527.72
486.635	576.16
486.843	572.67
487.051	604.64
487.26	601.73
487.468	643
487.676	682.91
487.885	647.26
488.093	671.29
488.301	710.23
488.509	676.32
488.717	716.82
488.926	696.28
489.134	683.69
489.342	727.67
489.55	678.65
489.758	735.42
489.967	708.49
490.175	825.12
490.383	704.61
490.591	808.26
490.799	721.27
491.007	810.2
491.215	755.57
491.423	763.12
491.631	778.23
491.839	774.94
492.047	786.37
492.255	718.75
492.463	699.96
492.671	766.03
492.879	803.81
493.087	777.27
493.295	802.65
493.503	809.81
493.711	810.2
493.919	848.18
494.127	822.41
494.334	831.32
494.542	764.28
494.75	783.85
494.958	803.42
495.166	866.2
495.374	876.08
495.581	880.92
495.789	852.44
495.997	873.75
496.205	835.58
496.412	841.59
496.62	829.19
496.828	862.32
497.035	853.8
497.243	857.28
497.451	877.43
497.658	880.92
497.866	822.8
498.074	921.61
498.281	845.46
498.489	934.01
498.696	861.93
498.904	812.33
499.112	845.27
499.319	913.08
499.527	883.44
499.734	931.88
499.942	819.89
500.149	877.24
500.357	897.58
500.564	871.81
500.771	871.04
500.979	847.4
501.186	862.9
501.394	895.84
501.601	871.23
501.808	907.27
502.016	873.75
502.223	927.61
502.43	876.85
502.638	892.74
502.845	849.92
503.052	992.32
503.26	867.94
503.467	1004.53
503.674	936.91
503.881	963.65
504.089	995.23
504.296	924.32
504.503	894.48
504.71	908.24
504.917	882.47
505.125	922.19
505.332	941.95
505.539	984.77
505.746	1007.05
505.953	1011.7
506.16	974.69
506.367	1033.98
506.574	1012.09
506.781	1025.84
506.988	969.27
507.195	996.97
507.402	980.12
507.609	1040.76
507.816	969.08
508.023	969.85
508.23	977.21
508.437	967.53
508.644	1001.24
508.851	1058.01
509.058	1037.08
509.265	1064.98
509.472	1072.54
509.679	1116.9
509.885	1052
510.092	1034.17
510.299	1043.47
510.506	1051.22
510.713	1101.6
510.92	1060.72
511.126	1091.52
511.333	1117.87
511.54	1099.66
511.746	1126.01
511.953	1145
512.16	1153.33
512.367	1103.15
512.573	1149.07
512.78	1096.17
512.987	1118.26
513.193	1134.15
513.4	1032.04
513.606	1070.79
513.813	1132.79
514.02	1109.15
514.226	1212.42
514.433	1184.33
514.639	1124.46
514.846	1120
515.052	1103.54
515.259	1120.59
515.465	1149.45
515.672	1200.02
515.878	1237.22
516.085	1151.78
516.291	1220.17
516.497	1130.27
516.704	1156.04
516.91	1126.79
517.117	1056.84
517.323	1025.07
517.529	1069.05
517.736	1056.07
517.942	1082.42
518.148	1102.57
518.354	1128.53
518.561	1124.85
518.767	1153.33
518.973	1163.98
519.179	1190.14
519.386	1173.09
519.592	1166.5
519.798	1190.72
520.004	1250.4
520.21	1200.41
520.417	1268.61
520.623	1318.98
520.829	1294.96
521.035	1256.98
521.241	1314.72
521.447	1301.93
521.653	1404.43
521.859	1331.77
522.065	1332.16
522.271	1436.39
522.477	1416.24
522.683	1383.5
522.889	1363.93
523.095	1389.7
523.301	1356.18
523.507	1309.88
523.713	1365.68
523.919	1364.71
524.125	1409.85
524.331	1424.96
524.537	1507.5
524.742	1473.79
524.948	1497.62
525.154	1499.17
525.36	1547.22
525.566	1468.94
525.772	1541.4
525.977	1465.84
526.183	1493.16
526.389	1528.62
526.595	1466.23
526.8	1460.22
527.006	1373.62
527.212	1365.29
527.417	1360.06
527.623	1370.33
527.829	1425.35
528.034	1471.46
528.24	1480.18
528.446	1453.06
528.651	1523.58
528.857	1549.93
529.062	1625.68
529.268	1544.5
529.473	1576.09
529.679	1572.99
529.884	1632.66
530.09	1598.75
530.295	1609.6
530.501	1644.48
530.706	1600.11
530.912	1586.35
531.117	1599.53
531.323	1602.24
531.528	1661.53
531.733	1681.48
531.939	1633.05
532.144	1676.83
532.35	1653.39
532.555	1674.9
532.76	1649.71
532.966	1620.65
533.171	1605.92
533.376	1614.25
533.581	1575.31
533.787	1604.18
533.992	1637.7
534.197	1661.92
534.402	1680.32
534.607	1661.33
534.813	1727.98
535.018	1641.18
535.223	1670.25
535.428	1701.83
535.633	1767.31
535.838	1717.13
536.043	1742.9
536.249	1843.84
536.454	1745.42
536.659	1777.19
536.864	1727.6
537.069	1720.04
537.274	1727.01
537.479	1735.35
537.684	1741.74
537.889	1707.06
538.094	1814.2
538.299	1760.15
538.504	1772.93
538.708	1782.23
538.913	1778.36
539.118	1777
539.323	1772.54
539.528	1738.25
539.733	1741.35
539.938	1763.63
540.142	1758.6
540.347	1704.54
540.552	1702.99
540.757	1708.61
540.962	1748.71
541.166	1686.13
541.371	1684
541.576	1719.85
541.781	1642.35
541.985	1786.69
542.19	1752.2
542.395	1822.14
542.599	1877.56
542.804	1794.63
543.008	1826.21
543.213	1728.76
543.418	1729.73
543.622	1823.69
543.827	1738.64
544.031	1841.91
544.236	1838.23
544.44	1797.93
544.645	1920.18
544.849	1804.13
545.054	1855.47
545.258	1914.56
545.463	1901.39
545.667	1768.67
545.872	1853.92
546.076	1864.38
546.281	1831.25
546.485	1823.89
546.689	1860.51
546.894	1878.52
547.098	1872.91
547.302	1822.92
547.507	1846.17
547.711	1869.22
547.915	1903.52
548.119	1807.03
548.324	1843.07
548.528	1865.16
548.732	1841.13
548.936	1890.54
549.141	1892.86
549.345	1846.36
549.549	1850.43
549.753	1899.64
549.957	1949.05
550.161	1959.12
550.366	1867.87
550.57	1862.83
550.774	1875.62
550.978	1896.93
551.182	1901
551.386	1874.26
551.59	1849.66
551.794	1810.33
551.998	1896.16
552.202	1854.69
552.406	1850.63
552.61	1910.69
552.814	1922.51
553.018	1942.07
553.222	1886.66
553.426	1859.34
553.63	1951.18
553.833	1872.52
554.037	1862.44
554.241	1926.38
554.445	1876.2
554.649	1910.49
554.853	1849.08
555.056	1921.34
555.26	1970.17
555.464	1889.76
555.668	1883.37
555.871	1915.92
556.075	1912.62
556.279	1864.19
556.483	1873.68
556.686	1861.86
556.89	1884.34
557.094	1891.51
557.297	1804.13
557.501	1891.31
557.704	1780.1
557.908	1893.64
558.112	1814.78
558.315	1909.33
558.519	1830.48
558.722	1804.13
558.926	1812.07
559.129	1769.64
559.333	1772.16
559.536	1796.57
559.74	1737.09
559.943	1735.54
560.147	1769.25
560.35	1758.4
560.553	1764.99
560.757	1733.02
560.96	1865.35
561.164	1756.08
561.367	1847.91
561.57	1733.99
561.774	1808
561.977	1777
562.18	1728.37
562.384	1852.18
562.587	1771.38
562.79	1771.38
562.993	1739.8
563.197	1789.59
563.4	1816.91
563.603	1806.06
563.806	1868.26
564.009	1737.86
564.212	1779.33
564.416	1700.08
564.619	1776.03
564.822	1694.08
565.025	1773.9
565.228	1734.96
565.431	1712.68
565.634	1646.8
565.837	1695.05
566.04	1692.14
566.243	1650.68
566.446	1585.97
566.649	1679.55
566.852	1625.1
567.055	1687.3
567.258	1672.77
567.461	1740.96
567.664	1752.98
567.867	1648.93
568.07	1676.25
568.273	1671.6
568.475	1716.16
568.678	1660.75
568.881	1647.19
569.084	1636.15
569.287	1532.88
569.489	1555.16
569.692	1608.83
569.895	1624.33
570.098	1551.09
570.3	1578.6
570.503	1490.64
570.706	1519.7
570.909	1516.41
571.111	1514.09
571.314	1472.82
571.516	1500.14
571.719	1535.4
571.922	1493.36
572.124	1506.34
572.327	1507.89
572.529	1474.76
572.732	1469.33
572.935	1554.39
573.137	1570.47
573.34	1494.13
573.542	1531.91
573.745	1549.15
573.947	1543.15
574.15	1521.84
574.352	1459.64
574.554	1560.59
574.757	1464.29
574.959	1451.51
575.162	1453.06
575.364	1462.55
575.566	1557.87
575.769	1427.48
575.971	1455.77
576.173	1343.78
576.376	1434.46
576.578	1484.44
576.78	1511.18
576.982	1366.26
577.185	1445.89
577.387	1376.72
577.589	1424.77
577.791	1465.46
577.993	1448.79
578.196	1401.52
578.398	1428.45
578.6	1475.53
578.802	1382.53
579.004	1362.38
579.206	1396.29
579.408	1417.79
579.61	1376.53
579.812	1458.67
580.014	1396.68
580.216	1389.89
580.418	1401.71
580.62	1361.03
580.822	1344.17
581.024	1382.53
581.226	1436.78
581.428	1396.48
581.63	1482.31
581.832	1362.38
582.034	1419.34
582.236	1393.96
582.438	1484.83
582.64	1462.36
582.841	1448.6
583.043	1525.9
583.245	1450.73
583.447	1440.46
583.649	1391.64
583.85	1441.43
584.052	1467.2
584.254	1357.73
584.456	1450.54
584.657	1355.6
584.859	1417.79
585.061	1428.26
585.262	1402.68
585.464	1364.13
585.666	1413.34
585.867	1331
586.069	1443.95
586.27	1388.34
586.472	1394.54
586.674	1349.21
586.875	1345.33
587.077	1358.51
587.278	1377.49
587.48	1325.57
587.681	1486.77
587.883	1353.08
588.084	1303.68
588.285	1303.87
588.487	1297.67
588.688	1309.49
588.89	1238.97
589.091	1222.5
589.292	1259.31
589.494	1204.09
589.695	1206.03
589.896	1122.72
590.098	1136.28
590.299	1151.2
590.5	1127.17
590.702	1230.05
590.903	1222.11
591.104	1286.63
591.305	1258.92
591.507	1275.2
591.708	1276.36
591.909	1243.42
592.11	1300
592.311	1287.98
592.512	1280.04
592.714	1212.42
592.915	1243.03
593.116	1245.75
593.317	1265.7
593.518	1255.43
593.719	1260.66
593.92	1258.15
594.121	1271.13
594.322	1275.39
594.523	1287.6
594.724	1236.64
594.925	1250.59
595.126	1239.55
595.327	1265.9
595.528	1244.78
595.729	1226.95
595.929	1246.13
596.13	1267.64
596.331	1253.5
596.532	1259.31
596.733	1292.25
596.934	1283.91
597.135	1281.78
597.335	1266.67
597.536	1207.58
597.737	1274.61
597.938	1195.37
598.138	1253.69
598.339	1230.05
598.54	1254.85
598.74	1261.63
598.941	1233.35
599.142	1283.72
599.342	1247.68
599.543	1188.4
599.744	1241.29
599.944	1241.87
600.145	1220.37
600.345	1236.45
600.546	1325.96
600.746	1302.51
600.947	1326.73
601.147	1259.11
601.348	1295.93
601.548	1209.32
601.749	1256.6
601.949	1215.91
602.15	1216.1
602.35	1229.08
602.551	1272.87
602.751	1205.06
602.951	1171.93
603.152	1130.85
603.352	1268.8
603.552	1235.87
603.753	1292.63
603.953	1284.88
604.153	1254.08
604.354	1236.06
604.554	1216.1
604.754	1222.3
604.954	1204.28
605.155	1247.68
605.355	1203.12
605.555	1248.26
605.755	1297.67
605.955	1242.65
606.155	1254.85
606.356	1240.52
606.556	1242.07
606.756	1242.26
606.956	1215.52
607.156	1275
607.356	1190.53
607.556	1238.58
607.756	1247.88
607.956	1247.3
608.156	1223.47
608.356	1194.79
608.556	1251.56
608.756	1198.86
608.956	1190.53
609.156	1224.43
609.356	1186.85
609.556	1145.19
609.755	1208.35
609.955	1155.27
610.155	1220.17
610.355	1203.51
610.555	1142.29
610.755	1201.38
610.954	1106.83
611.154	1178.52
611.354	1207.19
611.554	1142.29
611.753	1168.05
611.953	1139.38
612.153	1220.95
612.352	1182
612.552	1116.71
612.752	1116.32
612.951	1156.62
613.151	1164.95
613.351	1135.31
613.55	1099.27
613.75	1155.46
613.949	1109.35
614.149	1147.9
614.348	1116.9
614.548	1109.54
614.747	1071.57
614.947	1104.12
615.146	1061.49
615.346	1178.52
615.545	1125.43
615.745	1128.72
615.944	1144.42
616.144	1124.07
616.343	1126.4
616.542	1117.1
616.742	1111.67
616.941	1087.84
617.14	1045.02
617.34	1082.8
617.539	1078.15
617.738	1065.17
617.938	1134.54
618.137	1070.79
618.336	1074.47
618.535	1111.48
618.734	1086.29
618.934	1128.92
619.133	1096.56
619.332	1128.34
619.531	1075.64
619.73	1079.9
619.929	1141.9
620.128	1104.5
620.328	1136.86
620.527	1061.49
620.726	1081.06
620.925	1129.3
621.124	1046.19
621.323	1122.72
621.522	1031.07
621.721	1063.82
621.92	1015.19
622.119	1103.54
622.318	1059.94
622.517	1063.24
622.715	1021.39
622.914	1013.83
623.113	1025.26
623.312	1015.77
623.511	1101.79
623.71	1051.81
623.909	981.28
624.107	1131.44
624.306	1008.21
624.505	997.56
624.704	1015.96
624.902	1005.69
625.101	1077.77
625.3	1018.48
625.499	1008.41
625.697	977.02
625.896	964.23
626.095	1014.22
626.293	985.54
626.492	987.29
626.69	1009.37
626.889	1001.24
627.088	1019.45
627.286	988.06
627.485	988.84
627.683	959.97
627.882	990.77
628.08	883.63
628.279	952.8
628.477	1021.19
628.676	913.08
628.874	978.38
629.073	930.33
629.271	914.24
629.469	943.11
629.668	946.41
629.866	929.55
630.065	924.51
630.263	969.08
630.461	917.15
630.66	957.45
630.858	977.41
631.056	995.62
631.254	990.58
631.453	910.18
631.651	977.21
631.849	966.75
632.047	965.01
632.245	967.91
632.444	930.52
632.642	959.58
632.84	976.63
633.038	939.24
633.236	925.68
633.434	934.39
633.632	915.21
633.83	940.79
634.028	1018.09
634.227	961.52
634.425	1007.44
634.623	935.56
634.821	973.73
635.019	991.16
635.216	930.91
635.414	1011.89
635.612	978.96
635.81	956.09
636.008	1021.58
636.206	932.46
636.404	974.69
636.602	910.18
636.8	935.17
636.997	988.06
637.195	972.37
637.393	944.08
637.591	1004.14
637.789	1003.56
637.986	921.8
638.184	940.01
638.382	989.61
638.58	978.57
638.777	1007.82
638.975	937.3
639.173	944.47
639.37	935.75
639.568	995.04
639.765	973.53
639.963	939.43
640.161	978.38
640.358	985.74
640.556	900.49
640.753	912.5
640.951	904.56
641.148	934.98
641.346	934.01
641.543	962.29
641.741	949.31
641.938	897.58
642.136	947.18
642.333	898.74
642.531	961.52
642.728	973.34
642.925	913.08
643.123	907.85
643.32	924.9
643.517	931.1
643.715	929.16
643.912	922.96
644.109	889.64
644.306	907.27
644.504	886.54
644.701	891.77
644.898	901.84
645.095	876.08
645.293	925.48
645.49	902.81
645.687	877.82
645.884	907.08
646.081	824.54
646.278	881.5
646.475	863.29
646.672	866.2
646.87	884.6
647.067	882.86
647.264	846.63
647.461	830.55
647.658	810.59
647.855	839.46
648.052	823.76
648.249	764.48
648.446	823.76
648.642	803.81
648.839	769.52
649.036	790.63
649.233	767.19
649.43	776.49
649.627	743.17
649.824	784.43
650.021	782.5
650.217	785.21
650.414	783.85
650.611	785.6
650.808	830.35
651.004	815.05
651.201	807.88
651.398	852.25
651.595	784.82
651.791	767.77
651.988	850.31
652.185	794.51
652.381	832.1
652.578	757.5
652.775	779.78
652.971	768.16
653.168	797.8
653.364	830.93
653.561	743.36
653.757	774.94
653.954	812.72
654.15	777.46
654.347	822.41
654.543	763.51
654.74	733.67
654.936	759.44
655.133	773.58
655.329	791.02
655.525	763.51
655.722	799.55
655.918	702.87
656.115	747.62
656.311	661.79
656.507	664.12
656.704	613.74
656.9	650.36
657.096	661.79
657.292	668.38
657.489	724.18
657.685	724.18
657.881	685.82
658.077	711
658.273	709.07
658.47	793.54
658.666	701.51
658.862	747.43
659.058	725.73
659.254	779.78
659.45	708.29
659.646	743.17
659.842	741.42
660.038	831.9
660.234	706.16
660.43	723.02
660.626	815.82
660.822	804.78
661.018	764.28
661.214	739.48
661.41	713.33
661.606	770.68
661.802	790.63
661.998	725.73
662.194	725.73
662.39	742
662.586	765.64
662.781	769.13
662.977	777.46
663.173	794.32
663.369	733.48
663.564	749.37
663.76	801.29
663.956	723.4
664.152	730.77
664.347	673.8
664.543	724.37
664.739	694.54
664.934	681.75
665.13	650.36
665.326	730.57
665.521	718.75
665.717	674.97
665.912	680.97
666.108	660.63
666.304	689.3
666.499	699.38
666.695	633.7
666.89	690.85
667.086	737.74
667.281	716.24
667.477	803.62
667.672	712.55
667.867	707.32
668.063	669.15
668.258	668.38
668.454	697.44
668.649	750.92
668.844	694.54
669.04	747.62
669.235	701.51
669.43	688.92
669.626	619.17
669.821	677.49
670.016	650.36
670.211	693.95
670.407	636.6
670.602	689.3
670.797	691.05
670.992	742.2
671.187	666.83
671.382	725.34
671.578	661.79
671.773	691.24
671.968	624.98
672.163	674.97
672.358	691.24
672.553	641.64
672.748	678.26
672.943	716.82
673.138	643
673.333	667.02
673.528	642.22
673.723	689.11
673.918	641.45
674.113	621.11
674.308	739.1
674.503	655.59
674.698	683.69
674.892	686.79
675.087	688.34
675.282	676.71
675.477	646.29
675.672	679.04
675.867	645.71
676.061	614.13
676.256	593.21
676.451	624.21
676.646	646.68
676.84	620.72
677.035	606.57
677.23	633.89
677.424	671.67
677.619	692.79
677.814	654.62
678.008	704.03
678.203	595.14
678.397	587.59
678.592	645.13
678.787	722.05
678.981	623.24
679.176	666.83
679.37	627.11
679.565	614.52
679.759	627.11
679.954	669.54
680.148	703.25
680.342	702.09
680.537	661.99
680.731	664.31
680.926	662.18
681.12	692.4
681.314	624.4
681.509	624.98
681.703	661.6
681.897	687.56
682.092	646.1
682.286	618.59
682.48	709.45
682.674	697.44
682.869	642.03
683.063	636.8
683.257	708.68
683.451	639.7
683.645	647.07
683.839	643
684.034	641.06
684.228	706.16
684.422	620.72
684.616	612.77
684.81	634.86
685.004	652.3
685.198	635.44
685.392	687.95
685.586	624.59
685.78	678.45
685.974	661.21
686.168	643.58
686.362	687.17
686.556	602.12
686.75	556.2
686.944	579.06
687.138	588.75
687.331	481.8
687.525	514.16
687.719	457.97
687.913	518.61
688.107	500.79
688.301	489.16
688.494	540.7
688.688	479.86
688.882	464.94
689.076	455.26
689.269	499.63
689.463	604.25
689.657	529.27
689.85	530.63
690.044	532.37
690.238	534.69
690.431	554.84
690.625	559.69
690.818	586.42
691.012	574.41
691.205	633.89
691.399	588.36
691.593	630.79
691.786	637.19
691.98	635.25
692.173	695.12
692.366	672.84
692.56	675.94
692.753	735.42
692.947	626.14
693.14	711.59
693.333	711.59
693.527	663.73
693.72	707.32
693.914	697.83
694.107	664.12
694.3	693.76
694.493	696.67
694.687	754.21
694.88	679.42
695.073	774.75
695.266	773.2
695.46	743.36
695.653	802.07
695.846	779.01
696.039	724.76
696.232	775.72
696.425	763.7
696.618	809.04
696.812	830.35
697.005	902.04
697.198	954.54
697.391	894.29
697.584	890.22
697.777	947.76
697.97	928.39
698.163	965.01
698.356	923.35
698.549	1028.36
698.742	996.59
698.935	966.94
699.127	962.88
699.32	933.62
699.513	959.78
699.706	1000.46
699.899	1013.44
700.092	982.25
700.285	1002.79
700.477	967.53
700.67	1028.17
700.863	1049.09
701.056	1136.09
701.248	1119.04
701.441	1107.22
701.634	1079.9
701.826	1164.95
702.019	1044.83
702.212	1105.09
702.404	1109.74
702.597	1077.96
702.79	1142.67
702.982	1154.1
703.175	1222.3
703.367	1197.31
703.56	1211.84
703.752	1305.61
703.945	1255.82
704.137	1290.7
704.33	1297.67
704.522	1310.46
704.715	1327.7
704.907	1316.85
705.1	1382.34
705.292	1416.63
705.484	1359.48
705.677	1412.37
705.869	1438.72
706.061	1452.09
706.254	1499.56
706.446	1393.77
706.638	1450.15
706.831	1524.55
707.023	1485.99
707.215	1545.47
707.407	1586.55
707.599	1537.53
707.792	1603.02
707.984	1570.85
708.176	1621.23
708.368	1576.86
708.56	1619.1
708.752	1619.68
708.944	1617.93
709.136	1662.5
709.329	1662.11
709.521	1774.48
709.713	1729.34
709.905	1699.7
710.097	1794.44
710.289	1697.95
710.481	1721.2
710.672	1747.55
710.864	1809.16
711.056	1842.68
711.248	1824.66
711.44	1837.84
711.632	1815.36
711.824	1875.81
712.016	1935.68
712.207	1915.14
712.399	1900.22
712.591	1992.25
712.783	1951.95
712.975	1969.59
713.166	1929.29
713.358	1953.7
713.55	2000
713.741	2005.24
713.933	2006.98
714.125	2034.3
714.316	1987.6
714.508	2114.12
714.7	2077.5
714.891	2054.06
715.083	2120.32
715.274	2060.45
715.466	2076.15
715.657	2107.92
715.849	2041.08
716.04	2100.95
716.232	1994.58
716.423	2073.63
716.615	2000.59
716.806	1947.89
716.998	1907.59
717.189	1852.56
717.381	1808.97
717.572	1751.23
717.763	1764.02
717.955	1744.84
718.146	1696.98
718.337	1661.33
718.528	1684.97
718.72	1550.51
718.911	1635.76
719.102	1593.91
719.293	1635.57
719.485	1628.59
719.676	1592.94
719.867	1568.92
720.058	1592.17
720.249	1609.22
720.44	1631.11
720.632	1641.38
720.823	1699.11
721.014	1830.67
721.205	1840.74
721.396	1936.26
721.587	2015.89
721.778	2037.2
721.969	2074.4
722.16	2140.28
722.351	2116.45
722.542	2223.01
722.733	2249.94
722.924	2175.35
723.115	2242.38
723.305	2157.13
723.496	2203.05
723.687	2056.58
723.878	2109.28
724.069	2088.93
724.26	2118
724.45	2006.4
724.641	2032.17
724.832	2061.03
725.023	2074.6
725.213	2020.74
725.404	2018.6
725.595	2011.05
725.785	2014.15
725.976	2085.06
726.167	2061.62
726.357	2068.01
726.548	2190.26
726.739	2073.63
726.929	2167.98
727.12	2152.1
727.31	2186.2
727.501	2140.28
727.691	2167.79
727.882	2172.83
728.072	2209.25
728.263	2186.39
728.453	2267.38
728.644	2244.13
728.834	2244.13
729.024	2196.66
729.215	2197.82
729.405	2261.18
729.596	2289.08
729.786	2309.81
729.976	2281.91
730.167	2329.37
730.357	2286.75
730.547	2331.51
730.737	2315.81
730.928	2362.51
731.118	2417.53
731.308	2343.71
731.498	2353.4
731.688	2437.49
731.879	2462.67
732.069	2497.16
732.259	2518.28
732.449	2538.43
732.639	2620.96
732.829	2651.58
733.019	2670.18
733.209	2763.76
733.399	2743.99
733.589	2824.4
733.779	2878.45
733.969	2823.62
734.159	2911.39
734.349	2929.8
734.539	2936.19
734.729	2892.6
734.919	2956.15
735.109	3027.64
735.299	2950.72
735.488	2987.92
735.678	3004.78
735.868	3007.88
736.058	2984.82
736.248	2946.07
736.437	2928.05
736.627	2931.15
736.817	3090.41
737.007	3009.23
737.196	3070.85
737.386	3013.3
737.576	2983.08
737.765	3092.54
737.955	3001.87
738.144	3177.99
738.334	3117.54
738.524	3055.54
738.713	3116.38
738.903	3065.23
739.092	3147.18
739.282	3115.02
739.471	3120.44
739.661	3082.86
739.85	3159.19
740.04	3124.9
740.229	3158.03
740.419	3183.41
740.608	3214.99
740.797	3196.2
740.987	3246.57
741.176	3248.9
741.365	3157.84
741.555	3134.01
741.744	3284.55
741.933	3208.02
742.123	3184.96
742.312	3211.89
742.501	3295.4
742.69	3272.15
742.88	3227.39
743.069	3365.73
743.258	3233.79
743.447	3337.25
743.636	3316.71
743.825	3230.88
744.014	3295.59
744.204	3307.02
744.393	3252.58
744.582	3326.79
744.771	3348.1
744.96	3330.66
745.149	3368.05
745.338	3283
745.527	3352.94
745.716	3304.31
745.905	3318.45
746.094	3378.71
746.283	3355.07
746.471	3385.3
746.66	3412.42
746.849	3407.19
747.038	3400.99
747.227	3317.49
747.416	3383.55
747.604	3332.21
747.793	3349.65
747.982	3386.07
748.171	3374.45
748.359	3374.64
748.548	3359.14
748.737	3367.86
748.926	3370.38
749.114	3275.25
749.303	3354.3
749.491	3350.23
749.68	3272.92
749.869	3355.85
750.057	3321.75
750.246	3273.7
750.434	3306.05
750.623	3309.74
750.811	3295.59
751	3334.15
751.188	3303.92
751.377	3289
751.565	3252.58
751.754	3226.42
751.942	3281.64
752.131	3333.37
752.319	3259.94
752.507	3200.46
752.696	3267.89
752.884	3287.07
753.072	3233.98
753.261	3277.96
753.449	3237.08
753.637	3235.92
753.825	3320.78
754.014	3194.46
754.202	3222.94
754.39	3317.68
754.578	3300.82
754.766	3213.83
754.955	3195.04
755.143	3268.66
755.331	3225.07
755.519	3220.03
755.707	3204.72
755.895	3199.88
756.083	3175.08
756.271	3180.31
756.459	3222.55
756.647	3218.67
756.835	3125.87
757.023	3139.82
757.211	3131.49
757.399	3151.06
757.587	3176.63
757.775	3091.77
757.963	3101.65
758.151	3115.02
758.339	3088.48
758.526	3108.04
758.714	3105.91
758.902	3021.05
759.09	2939.29
759.278	2726.36
759.465	2522.54
759.653	2203.05
759.841	1990.9
760.028	1687.49
760.216	1456.16
760.404	1387.57
760.591	1121.94
760.779	936.33
760.967	807.3
761.154	685.24
761.342	742
761.529	737.35
761.717	787.34
761.905	775.91
762.092	834.03
762.28	789.28
762.467	760.8
762.655	728.25
762.842	754.6
763.029	803.23
763.217	791.41
763.404	769.32
763.592	828.61
763.779	779.2
763.966	833.84
764.154	844.3
764.341	893.71
764.528	907.46
764.716	969.66
764.903	993.29
765.09	1097.14
765.277	1120.59
765.465	1283.53
765.652	1316.46
765.839	1382.73
766.026	1493.55
766.213	1572.6
766.4	1646.42
766.588	1825.05
766.775	1833.19
766.962	1943.04
767.149	2005.43
767.336	2150.93
767.523	2119.55
767.71	2234.44
767.897	2323.95
768.084	2413.07
768.271	2428.96
768.458	2501.42
768.645	2558.58
768.832	2505.3
769.019	2538.82
769.206	2571.56
769.392	2682.38
769.579	2768.99
769.766	2680.64
769.953	2713.77
770.14	2753.87
770.327	2747.67
770.513	2771.12
770.7	2857.14
770.887	2750.97
771.073	2773.83
771.26	2799.41
771.447	2775.19
771.634	2734.31
771.82	2830.21
772.007	2739.73
772.193	2792.04
772.38	2829.82
772.567	2834.09
772.753	2809.87
772.94	2868.57
773.126	2825.37
773.313	2851.72
773.499	2815.1
773.686	2831.37
773.872	2757.94
774.059	2805.8
774.245	2780.22
774.432	2756.59
774.618	2688.39
774.804	2756.78
774.991	2720.74
775.177	2789.14
775.363	2724.43
775.55	2801.34
775.736	2693.04
775.922	2759.11
776.109	2768.79
776.295	2736.05
776.481	2767.82
776.667	2744.38
776.853	2747.67
777.04	2709.31
777.226	2693.23
777.412	2769.76
777.598	2695.75
777.784	2704.86
777.97	2673.28
778.156	2769.76
778.342	2713.58
778.528	2674.63
778.715	2635.3
778.901	2652.93
779.087	2664.56
779.272	2643.05
779.458	2656.81
779.644	2657.78
779.83	2605.85
780.016	2722.29
780.202	2649.64
780.388	2619.41
780.574	2520.41
780.76	2623.68
780.946	2642.28
781.131	2599.26
781.317	2643.83
781.503	2603.53
781.689	2590.74
781.874	2714.35
782.06	2552.77
782.246	2601.59
782.432	2577.37
782.617	2561.1
782.803	2639.18
782.989	2491.73
783.174	2537.65
783.36	2472.17
783.545	2559.35
783.731	2595.97
783.916	2485.34
784.102	2559.74
784.288	2517.12
784.473	2531.07
784.659	2493.87
784.844	2544.24
785.029	2493.87
785.215	2432.45
785.4	2417.92
785.586	2498.52
785.771	2408.62
785.956	2472.17
786.142	2427.22
786.327	2460.93
786.512	2466.94
786.698	2427.02
786.883	2360.96
787.068	2398.54
787.254	2383.24
787.439	2359.79
787.624	2384.4
787.809	2341.39
787.994	2337.32
788.18	2422.18
788.365	2314.26
788.55	2347.78
788.735	2359.02
788.92	2360.96
789.105	2314.84
789.29	2341.39
789.475	2269.89
789.66	2277.64
789.845	2264.28
790.03	2301.28
790.215	2305.93
790.4	2333.06
790.585	2300.31
790.77	2268.54
790.955	2174.57
791.14	2251.1
791.325	2325.31
791.51	2207.89
791.695	2249.16
791.879	2223.39
792.064	2161.78
792.249	2289.85
792.434	2200.92
792.618	2258.66
792.803	2262.14
792.988	2220.49
793.173	2262.14
793.357	2217.78
793.542	2218.36
793.727	2251.68
793.911	2274.16
794.096	2211.38
794.281	2276.09
794.465	2342.16
794.65	2312.71
794.834	2301.47
795.019	2320.27
795.203	2304.38
795.388	2322.79
795.572	2340.81
795.757	2293.92
795.941	2318.72
796.126	2255.56
796.31	2241.61
796.494	2270.67
796.679	2254.01
796.863	2206.93
797.048	2334.02
797.232	2310.58
797.416	2291.79
797.601	2252.65
797.785	2337.32
797.969	2336.74
798.153	2259.04
798.338	2334.61
798.522	2348.36
798.706	2367.74
798.89	2350.69
799.074	2444.46
799.258	2337.51
799.443	2327.63
799.627	2297.41
799.811	2365.22
799.995	2330.54
800.179	2274.16
800.363	2300.51
800.547	2309.03
800.731	2349.72
800.915	2264.28
801.099	2283.26
801.283	2300.89
801.467	2309.03
801.651	2271.83
801.835	2323.76
802.019	2338.48
802.202	2321.24
802.386	2245.87
802.57	2226.88
802.754	2236.38
802.938	2241.03
803.121	2210.99
803.305	2337.71
803.489	2275.13
803.673	2322.79
803.856	2319.69
804.04	2264.28
804.224	2305.93
804.407	2270.67
804.591	2227.85
804.775	2265.63
804.958	2297.21
805.142	2373.16
805.326	2297.02
805.509	2277.45
805.693	2334.8
805.876	2320.27
806.06	2303.61
806.243	2291.79
806.427	2345.46
806.61	2350.49
806.794	2288.88
806.977	2346.81
807.16	2314.84
807.344	2299.92
807.527	2324.92
807.71	2295.66
807.894	2290.24
808.077	2338.48
808.26	2269.31
808.444	2266.99
808.627	2302.83
808.81	2277.26
808.993	2187.94
809.177	2207.89
809.36	2251.29
809.543	2247.03
809.726	2184.26
809.909	2159.46
810.092	2139.89
810.276	2168.37
810.459	2159.07
810.642	2161.4
810.825	2104.63
811.008	2141.05
811.191	2045.15
811.374	2055.8
811.557	2069.75
811.74	2118.96
811.923	2021.51
812.106	2001.36
812.289	1952.54
812.472	2007.95
812.654	2008.72
812.837	1953.89
813.02	1944.01
813.203	1908.75
813.386	1775.45
813.569	1798.89
813.751	1723.91
813.934	1763.83
814.117	1770.22
814.3	1697.56
814.482	1653.39
814.665	1622.2
814.848	1633.82
815.03	1598.17
815.213	1587.52
815.396	1578.99
815.578	1529.39
815.761	1506.72
815.943	1562.52
816.126	1485.02
816.309	1458.67
816.491	1393.77
816.674	1350.37
816.856	1405.98
817.039	1375.94
817.221	1483.28
817.403	1421.47
817.586	1445.11
817.768	1452.67
817.951	1380.21
818.133	1341.07
818.315	1408.11
818.498	1439.49
818.68	1499.17
818.862	1444.34
819.045	1476.5
819.227	1459.84
819.409	1458.67
819.591	1476.89
819.774	1419.93
819.956	1419.15
820.138	1468.75
820.32	1460.03
820.502	1526.87
820.684	1603.6
820.866	1597.59
821.048	1626.27
821.231	1662.3
821.413	1635.95
821.595	1615.61
821.777	1639.83
821.959	1609.8
822.141	1678.38
822.323	1536.75
822.505	1511.57
822.686	1446.08
822.868	1393.19
823.05	1296.31
823.232	1273.84
823.414	1203.12
823.596	1293.02
823.778	1278.68
823.96	1311.62
824.141	1293.8
824.323	1304.84
824.505	1386.79
824.687	1428.26
824.868	1463.91
825.05	1595.85
825.232	1603.21
825.413	1656.1
825.595	1594.3
825.777	1554.19
825.958	1601.66
826.14	1565.82
826.321	1611.15
826.503	1525.71
826.685	1576.86
826.866	1615.61
827.048	1608.63
827.229	1561.36
827.411	1514.09
827.592	1461.77
827.773	1465.65
827.955	1406.94
828.136	1457.71
828.318	1378.85
828.499	1427.87
828.68	1365.09
828.862	1403.65
829.043	1419.54
829.224	1411.79
829.406	1395.32
829.587	1401.52
829.768	1368.39
829.949	1431.55
830.131	1415.28
830.312	1456.54
830.493	1423.22
830.674	1431.55
830.855	1410.24
831.036	1407.72
831.218	1473.98
831.399	1457.32
831.58	1430.58
831.761	1441.04
831.942	1436.59
832.123	1431.55
832.304	1394.93
832.485	1370.13
832.666	1405.01
832.847	1467.01
833.028	1442.4
833.209	1427.29
833.389	1417.99
833.57	1380.01
833.751	1347.27
833.932	1434.65
834.113	1417.6
834.294	1381.56
834.475	1416.05
834.655	1466.23
834.836	1459.06
835.017	1423.99
835.198	1386.21
835.378	1424.96
835.559	1473.59
835.74	1437.94
835.92	1453.25
836.101	1405.2
836.281	1471.66
836.462	1448.99
836.643	1478.05
836.823	1496.07
837.004	1471.07
837.184	1509.44
837.365	1478.44
837.545	1474.76
837.726	1459.84
837.906	1530.55
838.087	1488.32
838.267	1488.9
838.448	1462.36
838.628	1464.87
838.808	1465.84
838.989	1540.82
839.169	1423.8
839.349	1460.03
839.53	1523.19
839.71	1481.15
839.89	1444.92
840.07	1505.95
840.251	1467.01
840.431	1532.1
840.611	1510.4
840.791	1453.83
840.971	1483.28
841.151	1467.01
841.332	1437.36
841.512	1483.47
841.692	1407.72
841.872	1475.34
842.052	1421.28
842.232	1466.62
842.412	1406.17
842.592	1440.07
842.772	1449.37
842.952	1450.92
843.132	1470.88
843.312	1453.44
843.492	1398.61
843.672	1479.41
843.851	1398.81
844.031	1407.14
844.211	1395.9
844.391	1405.78
844.571	1418.76
844.751	1470.88
844.93	1418.57
845.11	1395.32
845.29	1441.62
845.47	1461
845.649	1450.34
845.829	1423.99
846.009	1378.46
846.188	1465.07
846.368	1431.94
846.547	1413.34
846.727	1459.45
846.907	1379.63
847.086	1414.11
847.266	1486.96
847.445	1401.13
847.625	1422.06
847.804	1365.87
847.984	1398.03
848.163	1338.55
848.343	1391.44
848.522	1386.79
848.701	1421.09
848.881	1358.51
849.06	1394.35
849.239	1406.36
849.419	1354.83
849.598	1304.65
849.777	1361.41
849.957	1311.23
850.136	1277.13
850.315	1233.54
850.494	1258.92
850.674	1242.07
850.853	1317.43
851.032	1278.3
851.211	1313.95
851.39	1304.84
851.569	1245.94
851.748	1276.55
851.927	1285.66
852.107	1283.14
852.286	1276.75
852.465	1259.7
852.644	1322.47
852.823	1301.16
853.002	1232.77
853.181	1293.41
853.359	1304.06
853.538	1268.03
853.717	1315.88
853.896	1207.97
854.075	1166.31
854.254	1132.6
854.433	1037.27
854.611	1079.32
854.79	1060.33
854.969	1148.87
855.148	1131.24
855.327	1073.89
855.505	1163.02
855.684	1128.53
855.863	1170.38
856.041	1146.55
856.22	1175.8
856.399	1146.16
856.577	1238.58
856.756	1231.02
856.934	1327.31
857.113	1331.38
857.291	1242.07
857.47	1210.1
857.648	1243.03
857.827	1244.2
858.005	1246.71
858.184	1198.47
858.362	1307.94
858.541	1220.75
858.719	1226.95
858.898	1188.78
859.076	1206.61
859.254	1260.08
859.433	1204.48
859.611	1197.7
859.789	1153.52
859.967	1261.05
860.146	1253.11
860.324	1150.62
860.502	1204.87
860.68	1163.4
860.859	1160.69
861.037	1174.64
861.215	1199.05
861.393	1174.64
861.571	1207.77
861.749	1143.64
861.927	1209.13
862.105	1177.55
862.283	1185.1
862.461	1119.42
862.639	1153.33
862.817	1138.99
862.995	1156.04
863.173	1161.85
863.351	1132.4
863.529	1179.48
863.707	1202.35
863.885	1150.81
864.063	1100.44
864.241	1129.3
864.418	1199.63
864.596	1130.47
864.774	1083
864.952	1109.74
865.129	1153.91
865.307	1123.69
865.485	1069.63
865.663	1160.88
865.84	1041.54
866.018	1095.01
866.196	948.15
866.373	982.06
866.551	971.21
866.728	921.41
866.906	957.64
867.084	1004.34
867.261	1040.76
867.439	1017.32
867.616	1032.82
867.794	1027.78
867.971	1047.74
868.149	1066.14
868.326	1091.52
868.503	1085.13
868.681	1045.99
868.858	1082.61
869.035	1013.44
869.213	1074.86
869.39	1025.84
869.567	1131.82
869.745	1058.59
869.922	1098.3
870.099	1043.47
870.276	1073.89
870.454	1045.99
870.631	1057.42
870.808	1011.31
870.985	1057.23
871.162	1082.61
871.339	1077.96
871.517	988.64
871.694	1006.47
871.871	1030.49
872.048	1019.45
872.225	1001.04
872.402	1058.01
872.579	1000.46
872.756	1033.4
872.933	951.64
873.11	974.69
873.287	1014.22
873.463	988.26
873.64	945.83
873.817	1023.71
873.994	1025.65
874.171	988.26
874.348	993.1
874.524	936.91
874.701	962.68
874.878	944.66
875.055	985.35
875.231	986.12
875.408	984.57
875.585	922.38
875.762	969.27
875.938	949.51
876.115	957.45
876.291	936.14
876.468	952.03
876.645	901.07
876.821	955.32
876.998	949.89
877.174	948.34
877.351	949.51
877.527	934.39
877.704	944.86
877.88	923.16
878.057	933.62
878.233	950.86
878.409	900.49
878.586	928.39
878.762	901.65
878.938	916.76
879.115	879.37
879.291	923.74
879.467	859.61
879.644	882.86
879.82	945.24
879.996	897.19
880.172	813.88
880.349	908.04
880.525	918.12
880.701	856.51
880.877	882.08
881.053	894.68
881.229	851.28
881.405	899.71
881.581	852.05
881.757	850.5
881.933	895.06
882.109	908.04
882.285	902.23
882.461	836.75
882.637	911.34
882.813	815.63
882.989	860.77
883.165	903.59
883.341	847.6
883.517	889.25
883.693	887.51
883.869	884.21
884.044	865.23
884.22	897.78
884.396	938.85
884.572	905.53
884.747	905.53
884.923	882.86
885.099	897.19
885.275	932.46
885.45	854.76
885.626	864.84
885.801	882.66
885.977	856.12
886.153	792.96
886.328	889.45
886.504	846.05
886.679	897.19
886.855	834.23
887.03	876.46
887.206	893.71
887.381	866.97
887.557	876.27
887.732	891.38
887.908	862.13
888.083	894.1
888.258	855.15
888.434	858.64
888.609	880.34
888.784	896.81
888.96	859.22
889.135	833.65
889.31	833.26
889.485	866.97
889.661	846.43
889.836	894.48
890.011	875.5
890.186	849.53
890.361	827.25
890.537	855.93
890.712	843.33
890.887	863.48
891.062	853.99
891.237	927.03
891.412	821.25
891.587	871.04
891.762	906.49
891.937	925.68
892.112	843.33
892.287	858.25
892.462	812.33
892.637	786.37
892.812	799.16
892.987	800.71
893.161	760.22
893.336	788.12
893.511	797.03
893.686	812.53
893.861	783.85
894.035	792.77
894.21	791.41
894.385	728.63
894.56	766.8
894.734	714.69
894.909	715.65
895.084	734.25
895.258	697.83
895.433	700.15
895.608	729.6
895.782	670.9
895.957	670.9
896.131	662.37
896.306	598.82
896.48	623.43
896.655	611.22
896.829	558.33
897.004	562.4
897.178	608.9
897.353	562.01
897.527	618.78
897.701	580.81
897.876	560.27
898.05	630.21
898.224	584.1
898.399	625.37
898.573	603.67
898.747	484.13
898.921	554.07
899.096	448.48
899.27	479.67
899.444	444.41
899.618	503.5
899.792	498.08
899.967	490.33
900.141	541.67
900.315	466.3
900.489	520.36
900.663	497.69
900.837	498.46
901.011	471.53
901.185	579.45
901.359	508.15
901.533	488.78
901.707	507.76
901.881	503.11
902.055	435.69
902.229	505.63
902.403	563.95
902.576	511.06
902.75	540.51
902.924	605.8
903.098	561.62
903.272	599.79
903.446	631.96
903.619	593.4
903.793	629.44
903.967	624.4
904.14	673.42
904.314	658.5
904.488	612.77
904.661	649.78
904.835	642.8
905.009	653.65
905.182	688.14
905.356	648.42
905.529	640.48
905.703	638.93
905.876	619.56
906.05	576.35
906.223	550.19
906.397	524.81
906.57	513.77
906.744	491.68
906.917	499.24
907.09	511.44
907.264	495.75
907.437	442.08
907.61	465.91
907.784	483.35
907.957	469.01
908.13	435.88
908.304	480.06
908.477	449.83
908.65	457.78
908.823	398.88
908.996	510.28
909.17	447.31
909.343	459.91
909.516	425.81
909.689	443.05
909.862	404.69
910.035	432.78
910.208	410.11
910.381	413.6
910.554	508.73
910.727	440.15
910.9	412.63
911.073	413.6
911.246	511.64
911.419	497.3
911.592	478.12
911.765	426.39
911.938	437.63
912.11	432.2
912.283	443.44
912.456	491.88
912.629	435.69
912.802	409.92
912.974	373.11
913.147	358.97
913.32	302.97
913.493	356.83
913.665	396.16
913.838	378.92
914.01	350.25
914.183	373.88
914.356	360.71
914.528	428.33
914.701	445.76
914.873	413.6
915.046	339.98
915.218	309.37
915.391	261.32
915.563	304.13
915.736	378.92
915.908	368.27
916.081	368.07
916.253	367.3
916.425	364.97
916.598	403.91
916.77	371.75
916.942	359.55
917.115	307.62
917.287	375.82
917.459	338.62
917.632	306.85
917.804	301.42
917.976	324.87
918.148	346.37
918.32	326.8
918.493	373.69
918.665	406.24
918.837	387.45
919.009	437.82
919.181	421.93
919.353	390.35
919.525	388.03
919.697	383.57
919.869	364.2
920.041	439.37
920.213	489.16
920.385	428.71
920.557	384.15
920.729	414.57
920.901	391.13
921.073	411.28
921.244	378.15
921.416	446.73
921.588	425.03
921.76	393.45
921.932	448.28
922.103	393.06
922.275	377.37
922.447	393.84
922.619	323.7
922.79	370.98
922.962	367.49
923.134	400.43
923.305	335.33
923.477	325.83
923.648	341.53
923.82	364
923.991	303.94
924.163	317.12
924.335	319.83
924.506	316.34
924.677	372.72
924.849	302.58
925.02	345.6
925.192	351.99
925.363	322.54
925.535	335.72
925.706	322.73
925.877	366.33
926.049	302.39
926.22	331.84
926.391	339.01
926.562	370.2
926.734	309.56
926.905	395.2
927.076	287.08
927.247	327.58
927.419	268.1
927.59	252.6
927.761	278.75
927.932	265.39
928.103	275.85
928.274	218.89
928.445	227.22
928.616	250.08
928.787	233.03
928.958	263.64
929.129	229.93
929.3	233.42
929.471	181.88
929.642	153.01
929.813	130.54
929.984	229.15
930.155	143.13
930.326	195.25
930.496	122.21
930.667	76.68
930.838	132.67
931.009	95.47
931.18	169.67
931.35	116.97
931.521	143.71
931.692	80.16
931.863	29.01
932.033	117.94
932.204	107.48
932.374	118.33
932.545	73.77
932.716	154.56
932.886	117.75
933.057	24.75
933.227	56.53
933.398	143.13
933.568	25.33
933.739	-6.25
933.909	20.68
934.08	71.25
934.25	-3.92
934.421	10.22
934.591	31.92
934.761	14.29
934.932	30.56
935.102	27.66
935.272	54.39
935.443	14.29
935.613	20.49
935.783	58.66
935.953	11
936.123	177.23
936.294	-0.44
936.464	18.36
936.634	44.71
936.804	-4.12
936.974	4.6
937.144	60.59
937.314	42.77
937.484	3.44
937.655	5.38
937.825	48.58
937.995	20.88
938.165	52.65
938.334	28.04
938.504	49.16
938.674	37.34
938.844	46.84
939.014	70.28
939.184	60.4
939.354	107.09
939.524	110.77
939.694	54.39
939.863	39.67
940.033	136.54
940.203	91.79
940.373	73.58
940.542	105.93
940.712	80.36
940.882	91.79
941.051	107.68
941.221	92.95
941.391	127.63
941.56	53.04
941.73	37.54
941.899	155.34
942.069	57.69
942.238	67.38
942.408	98.96
942.577	72.61
942.747	77.26
942.916	5.18
943.086	27.27
943.255	97.41
943.425	62.14
943.594	35.21
943.763	-37.44
943.933	20.3
944.102	-23.88
944.271	21.65
944.441	26.11
944.61	30.18
944.779	45.09
944.948	119.88
945.117	25.72
945.287	10.03
945.456	3.44
945.625	2.08
945.794	87.14
945.963	30.56
946.132	45.48
946.301	24.94
946.47	69.51
946.639	-3.54
946.808	41.03
946.977	41.03
947.146	112.71
947.315	42.38
947.484	70.09
947.653	32.5
947.822	54.39
947.991	23.78
948.16	107.29
948.329	40.83
948.498	20.3
948.666	48.39
948.835	43.16
949.004	26.49
949.173	9.06
949.341	71.64
949.51	65.83
949.679	89.08
949.847	43.35
950.016	103.22
950.185	121.82
950.353	28.04
950.522	45.09
950.69	96.63
950.859	49.16
951.028	75.32
951.196	65.83
951.365	26.69
951.533	79.39
951.701	73.77
951.87	71.64
952.038	26.69
952.207	51.88
952.375	100.7
952.543	37.93
952.712	35.21
952.88	36.57
953.048	113.29
953.217	63.69
953.385	20.3
953.553	85.2
953.721	19.91
953.89	57.11
954.058	36.57
954.226	30.95
954.394	54.2
954.562	2.47
954.73	54.59
954.898	41.99
955.067	77.84
955.235	36.57
955.403	70.28
955.571	102.25
955.739	76.68
955.907	46.26
956.075	30.18
956.243	13.51
956.41	83.65
956.578	9.45
956.746	0.53
956.914	32.69
957.082	56.53
957.25	57.49
957.418	0.73
957.585	48.39
957.753	88.88
957.921	14.48
958.089	47.03
958.256	35.99
958.424	63.11
958.592	78.03
958.759	8.67
958.927	77.64
959.095	48.78
959.262	41.03
959.43	66.02
959.597	26.69
959.765	66.21
959.932	13.51
960.1	64.47
960.267	42.38
960.435	50.91
960.602	85.01
960.77	35.41
960.937	9.25
961.104	66.41
961.272	12.35
961.439	27.85
961.606	76.09
961.774	79.97
961.941	43.16
962.108	67.57
962.275	79.78
962.443	123.76
962.61	95.47
962.777	134.61
962.944	99.34
963.111	58.08
963.278	74.74
963.446	51.88
963.613	62.53
963.78	63.31
963.947	96.24
964.114	61.76
964.281	132.86
964.448	101.09
964.615	35.79
964.782	85.59
964.949	85.39
965.116	92.18
965.282	107.29
965.449	43.93
965.616	11.38
965.783	99.93
965.95	67.57
966.117	47.61
966.283	58.08
966.45	68.34
966.617	48.78
966.784	85.01
966.95	97.79
967.117	109.81
967.284	13.71
967.45	46.26
967.617	118.33
967.784	97.99
967.95	126.86
968.117	49.36
968.283	112.32
968.45	163.09
968.616	90.82
968.783	107.09
968.949	98.76
969.116	103.8
969.282	96.63
969.449	98.38
969.615	72.8
969.781	24.94
969.948	80.16
970.114	30.18
970.28	141.39
970.447	63.69
970.613	103.03
970.779	72.61
970.945	105.35
971.112	79.78
971.278	64.66
971.444	63.31
971.61	123.95
971.776	45.29
971.942	92.56
972.108	78.42
972.275	66.21
972.441	93.14
972.607	146.81
972.773	59.43
972.939	82.1
973.105	73.58
973.271	54.2
973.437	52.26
973.602	37.93
973.768	100.31
973.934	55.56
974.1	105.93
974.266	4.99
974.432	89.27
974.598	43.16
974.763	82.88
974.929	62.53
975.095	141.97
975.261	45.68
975.426	42.58
975.592	65.24
975.758	154.76
975.923	25.91
976.089	57.49
976.255	98.96
976.42	83.07
976.586	91.21
976.751	70.09
976.917	122.98
977.082	123.95
977.248	38.7
977.413	12.35
977.579	29.59
977.744	83.07
977.91	41.41
978.075	57.3
978.24	107.29
978.406	75.9
978.571	63.11
978.736	41.03
978.902	78.61
979.067	25.72
979.232	-0.05
979.397	86.17
979.563	118.52
979.728	58.08
979.893	68.54
980.058	27.66
980.223	62.73
980.388	51.68
980.554	70.09
980.719	35.02
980.884	59.24
981.049	107.09
981.214	41.22
981.379	76.87
981.544	65.83
981.709	84.23
981.874	72.61
982.039	46.06
982.204	94.5
982.368	76.29
982.533	15.84
982.698	90.04
982.863	77.84
983.028	41.61
983.193	51.68
983.357	55.36
983.522	83.84
983.687	37.34
983.852	66.6
984.016	55.56
984.181	79.19
984.346	87.72
984.51	79.97
984.675	71.83
984.839	49.55
985.004	80.74
985.168	99.73
985.333	84.43
985.498	71.25
985.662	66.6
985.827	72.99
985.991	72.61
986.155	60.01
986.32	104.77
986.484	149.14
986.649	78.81
986.813	18.55
986.977	70.09
987.142	88.3
987.306	29.4
987.47	35.99
987.634	54.2
987.799	81.71
987.963	61.76
988.127	76.68
988.291	128.6
988.455	72.61
988.62	47.23
988.784	90.63
988.948	102.64
989.112	23.01
989.276	59.04
989.44	78.03
989.604	41.99
989.768	17
989.932	108.45
990.096	14.87
990.26	35.79
990.424	11.77
990.588	50.71
990.752	111.36
990.915	68.54
991.079	37.15
991.243	39.86
991.407	78.23
991.571	74.54
991.734	89.85
991.898	91.01
992.062	149.14
992.226	68.54
992.389	15.45
992.553	7.9
992.717	41.61
992.88	41.99
993.044	67.96
993.207	67.38
993.371	82.29
993.535	74.16
993.698	72.8
993.862	98.96
994.025	97.79
994.189	64.47
994.352	74.35
994.515	51.68
994.679	95.66
994.842	45.48
995.006	87.14
995.169	33.08
995.332	21.65
995.496	80.16
995.659	-13.03
995.822	54.59
995.985	61.18
996.149	111.36
996.312	79.19
996.475	112.52
996.638	16.61
996.801	100.12
996.964	132.47
997.128	52.65
997.291	33.28
997.454	53.43
997.617	7.31
997.78	110.19
997.943	31.92
998.106	71.25
998.269	29.59
998.432	51.68
998.595	72.99
998.758	33.47
998.92	19.52
999.083	4.21
999.246	42.96
999.409	15.06
999.572	-19.04
999.735	32.11
999.897	40.06
1000.06	31.53
1000.223	2.08
1000.386	74.35
1000.548	70.67
1000.711	44.13
1000.874	53.23
1001.036	2.28
1001.199	71.25
1001.361	32.31
1001.524	35.79
1001.687	71.25
1001.849	-4.7
1002.012	42.96
1002.174	62.53
1002.337	65.83
1002.499	28.24
1002.661	100.51
1002.824	-16.52
1002.986	-1.79
1003.149	49.55
1003.311	8.86
1003.473	92.76
1003.636	37.34
1003.798	57.88
1003.96	59.82
1004.123	16.61
1004.285	40.06
1004.447	47.42
1004.609	23.01
1004.771	99.93
1004.933	-18.26
1005.096	-4.5
1005.258	-3.92
1005.42	13.32
1005.582	61.37
1005.744	29.59
1005.906	10.03
1006.068	25.14
1006.23	-12.06
1006.392	-13.03
1006.554	17.97
1006.716	55.94
1006.878	37.34
1007.04	-22.52
1007.202	24.94
1007.363	35.41
1007.525	41.41
1007.687	28.43
1007.849	104.19
1008.011	-17.1
1008.172	2.86
1008.334	31.53
1008.496	50.13
1008.658	-5.47
1008.819	3.44
1008.981	-21.94
1009.143	-9.35
1009.304	12.55
1009.466	42.38
1009.627	103.22
1009.789	107.48
1009.95	43.16
1010.112	12.16
1010.273	40.44
1010.435	35.99
1010.596	12.16
1010.758	24.75
1010.919	-2.37
1011.081	-7.41
1011.242	15.84
1011.403	51.29
1011.565	39.86
1011.726	58.08
1011.887	-17.68
1012.049	15.65
1012.21	50.91
1012.371	114.46
1012.532	-24.85
1012.693	35.6
1012.855	11.38
1013.016	34.05
1013.177	56.33
1013.338	14.29
1013.499	73.19
1013.66	41.8
1013.821	52.26
1013.982	26.11
1014.143	49.16
1014.304	20.68
1014.465	48
1014.626	48.97
1014.787	25.53
1014.948	105.54
1015.109	-42.67
1015.27	86.36
1015.431	0.73
1015.592	11
1015.752	66.41
1015.913	17
1016.074	62.14
1016.235	0.15
1016.395	17.78
1016.556	12.35
1016.717	17.58
1016.877	81.52
1017.038	-10.9
1017.199	48.19
1017.359	35.99
1017.52	31.14
1017.681	3.05
1017.841	17.2
1018.002	15.65
1018.162	-11.48
1018.323	78.81
1018.483	31.53
1018.644	-6.83
1018.804	-14.39
1018.964	-26.59
1019.125	17.58
1019.285	23.78
1019.446	-18.65
1019.606	-7.02
1019.766	-50.42
1019.926	37.15
1020.087	34.24
1020.247	-14
1020.407	35.02
1020.567	54.59
1020.728	24.75
1020.888	-29.3
1021.048	-13.8
1021.208	-7.22
1021.368	3.63
1021.528	80.55
1021.688	38.51
1021.848	40.64
1022.008	9.25
1022.168	20.1
1022.328	16.42
1022.488	22.04
1022.648	-26.4
1022.808	19.52
1022.968	19.13
1023.128	-6.83
1023.288	-26.59
1023.448	13.13
1023.608	30.76
1023.767	14.68
1023.927	-9.54
1024.087	-1.02
1024.247	-3.92
1024.406	12.35
1024.566	-19.62
1024.726	8.28
1024.885	10.41
1025.045	40.83
1025.205	32.89
1025.364	-9.54
1025.524	-1.6
1025.683	-16.9
1025.843	31.14
1026.003	41.41
1026.162	67.76
1026.321	35.6
1026.481	34.63
1026.64	6.73
1026.8	30.18
1026.959	19.52
1027.119	15.45
1027.278	-14.97
1027.437	-11.48
1027.597	22.43
1027.756	-1.6
1027.915	24.94
1028.074	35.6
1028.234	-4.12
1028.393	-1.99
1028.552	-2.37
1028.711	-66.5
1028.87	62.92
1029.03	-21.17
1029.189	22.23
1029.348	-47.32
1029.507	-0.82
1029.666	-1.4
1029.825	-38.22
1029.984	-13.42
1030.143	-2.18
1030.302	-5.09
1030.461	-53.52
1030.62	-10.7
1030.779	23.39
1030.938	-8.96
1031.097	-18.26
1031.255	41.99
1031.414	50.71
1031.573	59.63
1031.732	-49.07
1031.891	-14.97
1032.049	74.35
1032.208	29.4
1032.367	-25.43
1032.525	16.81
1032.684	-3.92
1032.843	-1.02
1033.001	-47.52
1033.16	151.07
1033.319	79.97
1033.477	30.76
1033.636	-26.01
1033.794	-43.25
1033.953	54.78
1034.111	44.9
1034.27	-13.42
1034.428	10.8
1034.587	-13.42
1034.745	32.5
1034.903	6.15
1035.062	12.35
1035.22	-46.16
1035.378	32.31
1035.537	2.28
1035.695	36.57
1035.853	24.36
1036.011	30.76
1036.17	18.55
1036.328	-28.34
1036.486	23.59
1036.644	17.78
1036.802	-77.55
1036.96	-9.74
1037.119	-7.02
1037.277	-7.02
1037.435	-37.25
1037.593	-29.89
1037.751	4.6
1037.909	19.13
1038.067	19.13
