Data from pine_FLMT105791__179__17-23-33-073.txt Node

Date: Mon Mar 20 17:23:33 GMT 2023
User: antho
Spectrometer: FLMT10579
Trigger mode: 0
Integration Time (sec): 1.000000E-1
Scans to average: 10
Electric dark correction enabled: true
Nonlinearity correction enabled: false
Boxcar width: 0
XAxis mode: Wavelengths
Number of Pixels in Spectrum: 3648
>>>>>Begin Spectral Data<<<<<
345.248	-161.89
345.464	-161.89
345.681	-161.89
345.898	-149.49
346.114	-164.99
346.331	-43.51
346.548	40.96
346.764	7.06
346.981	-0.89
347.197	-15.23
347.414	16.16
347.631	-29.37
347.847	66.15
348.064	-31.11
348.28	36.12
348.497	-41.96
348.713	-4.38
348.93	42.71
349.146	19.26
349.363	-9.99
349.579	11.9
349.796	-8.83
350.012	-16.58
350.229	65.95
350.445	0.86
350.661	-12.51
350.878	2.21
351.094	23.14
351.311	30.11
351.527	17.52
351.743	-18.91
351.96	62.47
352.176	47.16
352.392	16.55
352.609	46.97
352.825	-19.29
353.041	29.14
353.257	-15.03
353.474	24.88
353.69	4.34
353.906	3.57
354.122	-31.5
354.339	45.22
354.555	-3.21
354.771	-9.99
354.987	82.81
355.203	63.63
355.42	-18.33
355.636	-13.29
355.852	-18.71
356.068	12.48
356.284	-37.31
356.5	51.04
356.716	19.26
356.932	15.39
357.148	52.2
357.364	13.64
357.58	50.65
357.796	67.31
358.012	49.29
358.228	31.08
358.444	-32.47
358.66	62.85
358.876	12.67
359.092	-23.36
359.308	13.45
359.524	35.15
359.74	1.63
359.956	-11.35
360.172	30.5
360.388	36.89
360.604	-2.83
360.819	82.81
361.035	45.42
361.251	46.58
361.467	-0.89
361.683	59.75
361.898	2.79
362.114	22.36
362.33	2.79
362.546	58.2
362.762	-2.24
362.977	19.65
363.193	-26.46
363.409	21.01
363.624	-13.29
363.84	-6.31
364.056	-7.48
364.271	52.39
364.487	13.45
364.703	-3.02
364.918	6.67
365.134	-15.03
365.35	-9.61
365.565	111.29
365.781	27.21
365.996	37.09
366.212	62.85
366.427	24.88
366.643	-19.29
366.858	12.09
367.074	-39.06
367.289	39.61
367.505	94.05
367.72	-30.73
367.936	4.15
368.151	29.53
368.367	26.82
368.582	15.19
368.798	-0.89
369.013	60.72
369.228	15.97
369.444	15.39
369.659	52.78
369.874	18.1
370.09	60.14
370.305	-41.77
370.52	-11.16
370.736	90.17
370.951	18.29
371.166	65.95
371.381	67.7
371.597	42.71
371.812	5.12
372.027	-30.92
372.242	6.47
372.458	68.86
372.673	2.99
372.888	8.41
373.103	28.95
373.318	90.17
373.533	23.14
373.749	31.66
373.964	-48.36
374.179	45.03
374.394	-19.88
374.609	58.4
374.824	-49.71
375.039	57.82
375.254	-0.5
375.469	85.52
375.684	29.14
375.899	47.74
376.114	19.84
376.329	31.86
376.544	43.87
376.759	44.06
376.974	-16.39
377.189	22.75
377.404	18.1
377.619	41.93
377.834	-37.51
378.049	-34.02
378.264	-8.44
378.478	39.61
378.693	-13.29
378.908	7.64
379.123	21.01
379.338	33.21
379.553	22.36
379.767	4.54
379.982	19.84
380.197	50.46
380.412	5.12
380.626	52.59
380.841	94.05
381.056	46.58
381.271	78.74
381.485	-15.61
381.7	-28.79
381.915	11.9
382.129	-0.31
382.344	27.79
382.559	8.02
382.773	76.22
382.988	-35.57
383.202	14.42
383.417	-14.06
383.632	121.95
383.846	4.34
384.061	29.53
384.275	14.03
384.49	27.4
384.704	47.55
384.919	10.35
385.133	11.9
385.348	37.86
385.562	-24.14
385.777	59.37
385.991	20.81
386.206	-3.79
386.42	3.37
386.634	75.06
386.849	57.62
387.063	26.04
387.277	-31.31
387.492	9.57
387.706	-10.96
387.92	-14.06
388.135	21.78
388.349	28.17
388.563	18.29
388.778	47.94
388.992	21.97
389.206	30.11
389.42	91.72
389.635	19.26
389.849	30.69
390.063	47.74
390.277	8.22
390.491	93.27
390.706	50.46
390.92	56.85
391.134	19.65
391.348	43.48
391.562	-5.54
391.776	0.66
391.99	-31.11
392.205	70.99
392.419	-3.6
392.633	2.99
392.847	73.12
393.061	-10.38
393.275	79.71
393.489	14.61
393.703	51.62
393.917	49.49
394.131	-12.32
394.345	36.12
394.559	73.9
394.773	14.61
394.986	29.72
395.2	2.6
395.414	26.43
395.628	-19.88
395.842	29.53
396.056	14.81
396.27	-46.81
396.484	30.69
396.697	15.39
396.911	70.41
397.125	32.24
397.339	79.9
397.553	34.37
397.766	94.44
397.98	71.38
398.194	52
398.408	25.27
398.621	23.33
398.835	54.14
399.049	34.96
399.262	74.48
399.476	23.52
399.69	57.24
399.903	91.14
400.117	13.06
400.331	44.26
400.544	14.22
400.758	146.94
400.971	51.81
401.185	43.48
401.398	-3.6
401.612	66.92
401.826	22.94
402.039	42.12
402.253	15.58
402.466	39.02
402.68	15.58
402.893	30.11
403.106	40.19
403.32	21.39
403.533	45.22
403.747	5.51
403.96	36.12
404.174	39.99
404.387	-15.23
404.6	5.89
404.814	82.62
405.027	22.75
405.24	12.67
405.454	23.52
405.667	49.49
405.88	-42.74
406.094	31.66
406.307	55.88
406.52	40.38
406.733	11.71
406.947	-19.88
407.16	86.69
407.373	84.36
407.586	-12.13
407.799	-23.94
408.012	43.48
408.226	22.56
408.439	62.66
408.652	-35.57
408.865	29.34
409.078	72.74
409.291	45.03
409.504	-18.13
409.717	27.59
409.93	49.1
410.143	41.35
410.357	8.99
410.57	-6.51
410.783	24.88
410.996	46.77
411.209	45.22
411.421	59.56
411.634	19.65
411.847	-3.99
412.06	47.94
412.273	39.61
412.486	25.46
412.699	109.94
412.912	20.04
413.125	61.5
413.338	17.52
413.55	39.41
413.763	27.59
413.976	43.09
414.189	-2.83
414.402	29.72
414.615	61.11
414.827	-8.25
415.04	37.67
415.253	44.45
415.466	53.36
415.678	83.59
415.891	32.05
416.104	49.49
416.316	5.12
416.529	-11.16
416.742	38.44
416.954	49.87
417.167	19.84
417.38	21.78
417.592	54.52
417.805	-10.38
418.017	-13.68
418.23	38.06
418.442	32.44
418.655	-9.61
418.868	46.19
419.08	35.92
419.293	61.5
419.505	41.54
419.718	43.67
419.93	67.89
420.142	34.57
420.355	76.61
420.567	74.48
420.78	43.87
420.992	5.7
421.205	54.14
421.417	-13.29
421.629	33.21
421.842	-18.13
422.054	-30.92
422.266	34.57
422.479	59.75
422.691	7.25
422.903	75.06
423.115	31.27
423.328	10.74
423.54	63.63
423.752	20.23
423.964	2.21
424.177	33.41
424.389	15.97
424.601	111.1
424.813	33.79
425.025	59.37
425.238	70.99
425.45	18.29
425.662	24.49
425.874	318.02
426.086	33.6
426.298	63.24
426.51	30.5
426.722	20.04
426.934	13.45
427.146	50.84
427.358	-5.54
427.57	79.32
427.782	29.34
427.994	44.26
428.206	7.25
428.418	-22.59
428.63	54.72
428.842	63.63
429.054	25.27
429.266	69.83
429.478	2.41
429.69	31.08
429.902	-6.31
430.114	77.58
430.325	73.32
430.537	28.95
430.749	27.4
430.961	-29.37
431.173	33.79
431.384	28.76
431.596	-16.78
431.808	9.96
432.02	31.47
432.231	64.4
432.443	64.99
432.655	40.19
432.867	3.57
433.078	33.41
433.29	92.3
433.502	23.52
433.713	37.86
433.925	41.16
434.136	86.88
434.348	24.11
434.56	-25.69
434.771	134.54
434.983	3.96
435.194	25.66
435.406	28.56
435.617	60.92
435.829	99.09
436.04	27.79
436.252	80.1
436.463	63.05
436.675	27.21
436.886	9.19
437.098	43.09
437.309	75.84
437.521	24.49
437.732	42.51
437.943	27.4
438.155	49.1
438.366	-4.38
438.578	95.4
438.789	53.36
439	71.96
439.211	11.12
439.423	65.57
439.634	80.68
439.845	39.02
440.057	52.2
440.268	65.95
440.479	36.31
440.69	35.73
440.902	55.69
441.113	32.63
441.324	31.66
441.535	49.29
441.746	71.96
441.957	-6.31
442.168	3.37
442.38	66.15
442.591	64.79
442.802	30.5
443.013	16.36
443.224	24.69
443.435	18.29
443.646	39.61
443.857	37.86
444.068	24.3
444.279	5.31
444.49	84.94
444.701	32.82
444.912	115.17
445.123	62.47
445.334	75.06
445.545	50.65
445.756	28.17
445.967	2.21
446.178	66.15
446.388	97.92
446.599	84.17
446.81	84.36
447.021	53.55
447.232	91.72
447.443	113.23
447.653	22.75
447.864	58.01
448.075	26.62
448.286	41.93
448.496	41.54
448.707	85.14
448.918	23.91
449.129	140.16
449.339	16.36
449.55	49.87
449.761	47.74
449.971	107.03
450.182	37.09
450.393	63.82
450.603	60.53
450.814	62.47
451.024	64.4
451.235	79.71
451.446	106.64
451.656	99.86
451.867	35.15
452.077	50.65
452.288	119.62
452.498	119.04
452.709	65.76
452.919	71.19
453.13	36.7
453.34	87.27
453.55	23.91
453.761	83.59
453.971	81.26
454.182	81.84
454.392	80.87
454.602	131.83
454.813	86.88
455.023	115.36
455.233	18.68
455.444	56.07
455.654	5.7
455.864	53.75
456.075	57.82
456.285	47.94
456.495	75.25
456.705	78.94
456.916	118.65
457.126	99.47
457.336	86.49
457.546	7.44
457.756	15.39
457.967	82.04
458.177	45.03
458.387	65.57
458.597	41.35
458.807	43.67
459.017	54.72
459.227	66.92
459.437	77.19
459.647	79.9
459.857	93.08
460.068	32.05
460.278	98.12
460.488	98.7
460.698	124.27
460.908	40.77
461.117	7.25
461.327	50.26
461.537	68.47
461.747	50.65
461.957	73.9
462.167	205.07
462.377	89.59
462.587	64.21
462.797	93.85
463.007	73.9
463.216	83.39
463.426	105.67
463.636	117.49
463.846	20.23
464.056	24.3
464.265	128.34
464.475	51.04
464.685	44.84
464.895	104.32
465.104	59.56
465.314	116.33
465.524	67.5
465.733	42.71
465.943	120.98
466.153	129.7
466.362	98.12
466.572	102.38
466.782	72.74
466.991	75.06
467.201	162.44
467.41	40.77
467.62	68.86
467.829	70.8
468.039	70.02
468.249	55.3
468.458	53.55
468.668	122.14
468.877	93.47
469.086	119.62
469.296	92.69
469.505	42.32
469.715	127.57
469.924	105.67
470.134	129.89
470.343	123.89
470.552	52
470.762	92.11
470.971	42.71
471.18	85.72
471.39	84.55
471.599	22.36
471.808	117.1
472.018	49.87
472.227	110.52
472.436	88.62
472.645	76.22
472.855	42.71
473.064	130.86
473.273	76.61
473.482	101.8
473.691	128.92
473.901	79.13
474.11	76.8
474.319	147.13
474.528	78.55
474.737	143.45
474.946	85.52
475.155	92.5
475.364	116.52
475.573	87.46
475.783	122.53
475.992	133.96
476.201	142.87
476.41	79.52
476.619	71.57
476.828	95.21
477.037	42.9
477.245	83.78
477.454	114.78
477.663	72.93
477.872	86.1
478.081	138.22
478.29	43.87
478.499	171.55
478.708	94.05
478.917	177.17
479.125	82.42
479.334	105.87
479.543	59.37
479.752	89.2
479.961	95.99
480.169	108.19
480.378	54.14
480.587	195.77
480.796	134.54
481.004	77.58
481.213	103.93
481.422	104.7
481.63	87.85
481.839	128.54
482.048	163.02
482.256	98.31
482.465	93.47
482.674	127.76
482.882	118.27
483.091	175.03
483.299	110.9
483.508	127.57
483.716	88.04
483.925	100.64
484.134	91.92
484.342	77.39
484.551	122.72
484.759	129.12
484.967	125.44
485.176	136.29
485.384	135.7
485.593	145.58
485.801	148.49
486.01	139.19
486.218	159.92
486.426	77.39
486.635	141.32
486.843	117.49
487.051	145.58
487.26	104.7
487.468	139.38
487.676	159.92
487.885	116.14
488.093	109.74
488.301	110.32
488.509	137.06
488.717	165.93
488.926	105.29
489.134	112.84
489.342	129.89
489.55	99.67
489.758	127.95
489.967	89.98
490.175	217.47
490.383	105.29
490.591	163.99
490.799	79.52
491.007	178.91
491.215	132.02
491.423	93.66
491.631	119.43
491.839	126.6
492.047	181.23
492.255	122.53
492.463	72.35
492.671	144.42
492.879	194.22
493.087	126.4
493.295	154.3
493.503	151.2
493.711	152.56
493.919	147.33
494.127	165.35
494.334	149.65
494.542	111.68
494.75	125.63
494.958	107.22
495.166	175.23
495.374	146.55
495.581	142.68
495.789	115.36
495.997	176.2
496.205	144.81
496.412	138.03
496.62	112.07
496.828	126.79
497.035	118.65
497.243	187.63
497.451	155.47
497.658	154.88
497.866	145.58
498.074	176.78
498.281	129.7
498.489	217.08
498.696	134.35
498.904	141.32
499.112	143.45
499.319	205.65
499.527	105.67
499.734	192.67
499.942	119.04
500.149	117.69
500.357	157.98
500.564	125.82
500.771	183.95
500.979	130.47
501.186	147.13
501.394	137.45
501.601	150.82
501.808	198.48
502.016	165.54
502.223	142.87
502.43	159.15
502.638	164.77
502.845	132.99
503.052	224.25
503.26	157.21
503.467	222.12
503.674	149.27
503.881	187.24
504.089	232.19
504.296	214.37
504.503	122.34
504.71	173.29
504.917	137.45
505.125	191.31
505.332	157.02
505.539	170.58
505.746	232.19
505.953	181.04
506.16	177.75
506.367	228.51
506.574	226.57
506.781	194.41
506.988	140.93
507.195	184.92
507.402	163.41
507.609	210.49
507.816	166.51
508.023	145.39
508.23	182.01
508.437	127.37
508.644	202.35
508.851	219.79
509.058	226.57
509.265	201.97
509.472	214.56
509.679	232.96
509.885	146.94
510.092	158.76
510.299	171.16
510.506	205.07
510.713	189.37
510.92	169.22
511.126	213.01
511.333	222.12
511.54	220.57
511.746	244.4
511.953	232.19
512.16	223.86
512.367	176.58
512.573	199.45
512.78	189.76
512.987	189.57
513.193	215.92
513.4	147.52
513.606	185.69
513.813	209.72
514.02	180.07
514.226	280.82
514.433	227.93
514.639	170.19
514.846	202.93
515.052	181.82
515.259	205.07
515.465	182.98
515.672	190.92
515.878	267.65
516.085	187.82
516.291	228.31
516.497	180.27
516.704	185.5
516.91	159.73
517.117	161.08
517.323	157.4
517.529	188.6
517.736	192.86
517.942	204.68
518.148	176
518.354	212.04
518.561	227.93
518.767	194.41
518.973	217.08
519.179	261.45
519.386	189.18
519.592	195.77
519.798	175.62
520.004	229.67
520.21	159.53
520.417	215.72
520.623	219.98
520.829	238.58
521.035	206.03
521.241	207.78
521.447	234.9
521.653	323.83
521.859	220.37
522.065	220.76
522.271	327.9
522.477	248.46
522.683	274.62
522.889	247.11
523.095	260.86
523.301	256.8
523.507	207.78
523.713	258.73
523.919	215.72
524.125	262.41
524.331	215.72
524.537	278.5
524.742	260.67
524.948	265.71
525.154	244.2
525.36	328.29
525.566	259.7
525.772	282.37
525.977	212.23
526.183	279.08
526.389	294.38
526.595	232.38
526.8	243.23
527.006	240.91
527.212	253.5
527.417	252.53
527.623	203.9
527.829	270.16
528.034	271.52
528.24	265.32
528.446	245.36
528.651	307.75
528.857	260.86
529.062	307.75
529.268	223.47
529.473	261.64
529.679	237.03
529.884	337.01
530.09	297.48
530.295	336.23
530.501	312.6
530.706	269.39
530.912	217.47
531.117	263.58
531.323	270.36
531.528	314.73
531.733	290.12
531.939	241.88
532.144	284.31
532.35	234.9
532.555	353.48
532.76	308.72
532.966	334.49
533.171	313.37
533.376	285.08
533.581	243.43
533.787	305.23
533.992	312.01
534.197	357.16
534.402	263.96
534.607	292.06
534.813	413.54
535.018	306.59
535.223	291.28
535.428	314.92
535.633	350.18
535.838	318.41
536.043	300
536.249	374.59
536.454	292.83
536.659	306.01
536.864	264.16
537.069	286.44
537.274	314.34
537.479	326.35
537.684	315.31
537.889	311.24
538.094	371.3
538.299	291.48
538.504	302.52
538.708	321.89
538.913	311.05
539.118	305.62
539.323	299.03
539.528	290.31
539.733	291.48
539.938	328.48
540.142	342.43
540.347	308.53
540.552	265.32
540.757	351.54
540.962	320.93
541.166	273.46
541.371	289.54
541.576	315.31
541.781	221.15
541.985	319.18
542.19	340.88
542.395	314.34
542.599	387.96
542.804	349.41
543.008	382.73
543.213	300.97
543.418	289.73
543.622	337.98
543.827	261.64
544.031	396.29
544.236	353.28
544.44	302.71
544.645	391.64
544.849	310.46
545.054	325.58
545.258	397.07
545.463	374.79
545.667	298.84
545.872	352.7
546.076	358.71
546.281	347.66
546.485	333.52
546.689	339.91
546.894	387.77
547.098	319.18
547.302	308.53
547.507	338.56
547.711	330.42
547.915	386.41
548.119	321.12
548.324	327.32
548.528	405.01
548.732	319.57
548.936	361.23
549.141	366.26
549.345	321.51
549.549	313.18
549.753	308.14
549.957	417.8
550.161	398.04
550.366	333.52
550.57	294.77
550.774	339.91
550.978	330.81
551.182	383.89
551.386	321.89
551.59	309.3
551.794	332.94
551.998	363.16
552.202	330.61
552.406	277.14
552.61	353.48
552.814	325.19
553.018	382.54
553.222	380.99
553.426	321.89
553.63	418.96
553.833	318.6
554.037	312.79
554.241	381.38
554.445	355.61
554.649	331
554.853	318.02
555.056	372.27
555.26	381.38
555.464	352.31
555.668	372.08
555.871	381.18
556.075	387.77
556.279	350.18
556.483	306.4
556.686	353.48
556.89	337.2
557.094	364.71
557.297	318.21
557.501	374.4
557.704	318.99
557.908	373.04
558.112	327.13
558.315	420.12
558.519	333.91
558.722	358.13
558.926	327.32
559.129	315.11
559.333	278.11
559.536	300
559.74	313.56
559.943	307.17
560.147	311.05
560.35	330.81
560.553	315.31
560.757	272.3
560.96	381.76
561.164	279.66
561.367	366.46
561.57	328.87
561.774	363.16
561.977	331
562.18	305.04
562.384	421.87
562.587	309.3
562.79	326.35
562.993	304.65
563.197	379.44
563.4	389.71
563.603	380.41
563.806	414.89
564.009	323.83
564.212	336.04
564.416	301.16
564.619	373.43
564.822	285.47
565.025	379.05
565.228	323.64
565.431	326.54
565.634	251.95
565.837	306.98
566.04	310.27
566.243	294.77
566.446	265.32
566.649	361.03
566.852	279.66
567.055	313.56
567.258	368.2
567.461	365.68
567.664	334.49
567.867	272.3
568.07	333.13
568.273	337.78
568.475	355.41
568.678	316.08
568.881	298.26
569.084	332.16
569.287	251.37
569.489	276.36
569.692	352.89
569.895	362
570.098	272.1
570.3	263.19
570.503	217.85
570.706	257.18
570.909	263.77
571.111	248.46
571.314	250.4
571.516	295.93
571.719	315.69
571.922	266.68
572.124	291.86
572.327	285.86
572.529	217.08
572.732	230.06
572.935	273.46
573.137	340.69
573.34	279.85
573.542	300.78
573.745	305.04
573.947	286.25
574.15	266.1
574.352	269.58
574.554	321.7
574.757	261.45
574.959	260.09
575.162	259.51
575.364	265.32
575.566	368.59
575.769	244.01
575.971	283.34
576.173	202.16
576.376	247.3
576.578	279.66
576.78	326.35
576.982	214.75
577.185	283.92
577.387	225.6
577.589	235.29
577.791	280.43
577.993	290.12
578.196	263.96
578.398	312.21
578.6	339.72
578.802	229.28
579.004	254.47
579.206	241.49
579.408	283.15
579.61	245.17
579.812	312.4
580.014	261.64
580.216	244.98
580.418	247.88
580.62	231.22
580.822	174.26
581.024	242.46
581.226	299.81
581.428	234.13
581.63	310.08
581.832	218.24
582.034	282.18
582.236	242.26
582.438	264.93
582.64	289.15
582.841	313.56
583.043	337.59
583.245	244.78
583.447	256.99
583.649	230.83
583.85	268.61
584.052	323.25
584.254	211.65
584.456	307.56
584.657	225.41
584.859	256.41
585.061	247.88
585.262	228.51
585.464	214.37
585.666	296.13
585.867	240.52
586.069	316.08
586.27	302.13
586.472	263.96
586.674	256.6
586.875	255.63
587.077	229.86
587.278	272.88
587.48	227.35
587.681	358.71
587.883	258.15
588.084	211.46
588.285	225.41
588.487	276.75
588.688	289.35
588.89	251.76
589.091	244.78
589.292	253.7
589.494	237.61
589.695	263.96
589.896	215.72
590.098	205.26
590.299	268.61
590.5	206.81
590.702	229.28
590.903	240.52
591.104	276.56
591.305	234.13
591.507	281.01
591.708	236.06
591.909	210.88
592.11	346.69
592.311	257.38
592.512	221.34
592.714	170.97
592.915	194.22
593.116	203.52
593.317	251.18
593.518	248.66
593.719	226.76
593.92	269.58
594.121	302.91
594.322	236.45
594.523	228.12
594.724	214.75
594.925	228.31
595.126	245.36
595.327	266.1
595.528	251.18
595.729	237.42
595.929	262.61
596.13	235.87
596.331	236.84
596.532	252.92
596.733	293.8
596.934	262.8
597.135	270.75
597.335	243.43
597.536	180.65
597.737	264.35
597.938	223.86
598.138	228.7
598.339	237.81
598.54	240.71
598.74	256.99
598.941	269.78
599.142	287.8
599.342	271.71
599.543	223.86
599.744	230.45
599.944	213.2
600.145	223.86
600.345	253.89
600.546	319.18
600.746	298.65
600.947	314.34
601.147	255.63
601.348	282.56
601.548	216.69
601.749	263.58
601.949	218.63
602.15	230.45
602.35	245.17
602.551	294.19
602.751	232.38
602.951	232
603.152	165.93
603.352	282.37
603.552	233.16
603.753	250.79
603.953	275.01
604.153	256.99
604.354	232.58
604.554	224.05
604.754	226.18
604.954	192.47
605.155	248.46
605.355	222.5
605.555	256.21
605.755	302.91
605.955	238
606.155	285.86
606.356	243.04
606.556	283.92
606.756	255.25
606.956	181.43
607.156	308.91
607.356	217.08
607.556	276.36
607.756	244.59
607.956	289.54
608.156	274.43
608.356	219.02
608.556	278.5
608.756	239.16
608.956	216.5
609.156	254.47
609.356	236.65
609.556	215.53
609.755	251.37
609.955	244.01
610.155	249.82
610.355	241.88
610.555	214.95
610.755	273.85
610.954	199.83
611.154	255.83
611.354	285.66
611.554	207.97
611.753	233.93
611.953	186.08
612.153	268.23
612.352	232.19
612.552	183.75
612.752	182.59
612.951	216.88
613.151	269.39
613.351	192.86
613.55	218.63
613.75	235.87
613.949	228.9
614.149	261.25
614.348	232.19
614.548	195.96
614.747	166.9
614.947	200.8
615.146	163.6
615.346	259.12
615.545	240.91
615.745	252.92
615.944	258.15
616.144	237.81
616.343	267.45
616.542	219.21
616.742	229.67
616.941	244.2
617.14	165.15
617.34	253.7
617.539	215.53
617.738	192.47
617.938	258.73
618.137	234.32
618.336	183.37
618.535	232.96
618.734	217.27
618.934	246.14
619.133	263
619.332	206.62
619.531	223.08
619.73	187.24
619.929	265.32
620.128	237.42
620.328	283.53
620.527	196.54
620.726	219.21
620.925	243.62
621.124	186.08
621.323	227.15
621.522	190.15
621.721	167.09
621.92	215.53
622.119	242.85
622.318	179.49
622.517	239.36
622.715	237.42
622.914	156.43
623.113	198.87
623.312	179.1
623.511	238.2
623.71	225.41
623.909	194.41
624.107	256.8
624.306	168.06
624.505	179.1
624.704	178.91
624.902	205.65
625.101	256.99
625.3	206.23
625.499	210.88
625.697	198.67
625.896	203.52
626.095	216.69
626.293	192.28
626.492	181.43
626.69	234.13
626.889	180.46
627.088	232.58
627.286	170
627.485	178.91
627.683	189.76
627.882	250.01
628.08	153.72
628.279	194.41
628.477	282.18
628.676	190.73
628.874	206.81
629.073	162.83
629.271	182.98
629.469	213.59
629.668	175.81
629.866	179.3
630.065	173.1
630.263	215.14
630.461	158.57
630.66	203.32
630.858	240.33
631.056	242.26
631.254	238.58
631.453	177.55
631.651	254.47
631.849	201.97
632.047	231.61
632.245	178.91
632.444	203.52
632.642	210.88
632.84	205.45
633.038	172.32
633.236	169.42
633.434	173.29
633.632	149.65
633.83	183.95
634.028	203.32
634.227	170
634.425	252.15
634.623	228.51
634.821	214.95
635.019	169.42
635.216	155.08
635.414	236.06
635.612	181.82
635.81	182.2
636.008	241.68
636.206	192.86
636.404	197.9
636.602	173.68
636.8	209.72
636.997	213.4
637.195	220.37
637.393	207.97
637.591	232.96
637.789	221.34
637.986	159.92
638.184	218.43
638.382	214.56
638.58	240.13
638.777	251.95
638.975	191.89
639.173	234.13
639.37	190.92
639.568	219.21
639.765	245.17
639.963	211.27
640.161	225.6
640.358	228.9
640.556	186.27
640.753	137.45
640.951	170.77
641.148	185.5
641.346	192.28
641.543	213.01
641.741	230.45
641.938	156.43
642.136	229.67
642.333	175.62
642.531	209.52
642.728	259.9
642.925	193.44
643.123	174.65
643.32	198.28
643.517	202.93
643.715	217.27
643.912	176.97
644.109	225.02
644.306	201.38
644.504	176.97
644.701	177.55
644.898	234.71
645.095	200.61
645.293	192.67
645.49	237.61
645.687	204.48
645.884	231.8
646.081	130.67
646.278	169.61
646.475	162.44
646.672	156.82
646.87	230.64
647.067	199.64
647.264	224.83
647.461	172.13
647.658	146.55
647.855	202.93
648.052	172.9
648.249	99.67
648.446	166.32
648.642	144.23
648.839	174.07
649.036	168.83
649.233	101.99
649.43	147.33
649.627	151.98
649.824	151.78
650.021	162.83
650.217	137.25
650.414	148.88
650.611	191.5
650.808	177.55
651.004	175.03
651.201	188.21
651.398	208.55
651.595	177.75
651.791	155.47
651.988	184.92
652.185	161.47
652.381	166.7
652.578	137.25
652.775	192.86
652.971	143.45
653.168	172.9
653.364	202.93
653.561	118.65
653.757	165.54
653.954	157.6
654.15	171.93
654.347	229.09
654.543	165.54
654.74	142.87
654.936	113.62
655.133	154.69
655.329	176.2
655.525	180.46
655.722	197.7
655.918	151.2
656.115	206.42
656.311	110.52
656.507	137.25
656.704	116.72
656.9	132.99
657.096	117.49
657.292	128.34
657.489	158.18
657.685	160.89
657.881	139.19
658.077	141.9
658.273	145
658.47	228.9
658.666	141.52
658.862	170.38
659.058	128.34
659.254	202.35
659.45	151.2
659.646	179.88
659.842	169.61
660.038	177.55
660.234	128.92
660.43	132.6
660.626	215.14
660.822	200.03
661.018	169.22
661.214	161.67
661.41	124.47
661.606	170.19
661.802	172.9
661.998	174.45
662.194	149.65
662.39	168.64
662.586	156.63
662.781	181.23
662.977	177.94
663.173	166.9
663.369	157.98
663.564	173.68
663.76	188.21
663.956	149.65
664.152	219.6
664.347	120.2
664.543	156.82
664.739	160.31
664.934	121.37
665.13	104.12
665.326	188.98
665.521	195.38
665.717	148.88
665.912	133.57
666.108	96.18
666.304	147.33
666.499	136.48
666.695	75.25
666.89	142.29
667.086	186.27
667.281	153.53
667.477	208.75
667.672	158.95
667.867	154.3
668.063	170.97
668.258	106.84
668.454	161.47
668.649	216.11
668.844	172.71
669.04	191.5
669.235	165.54
669.43	128.73
669.626	105.48
669.821	149.27
670.016	126.6
670.211	135.32
670.407	145
670.602	120.2
670.797	121.17
670.992	170.19
671.187	101.6
671.382	198.28
671.578	126.02
671.773	160.31
671.968	107.61
672.163	151.98
672.358	188.21
672.553	148.3
672.748	140.16
672.943	208.36
673.138	145.78
673.333	178.13
673.528	108.39
673.723	171.16
673.918	137.25
674.113	121.37
674.308	211.85
674.503	159.73
674.698	165.54
674.892	173.87
675.087	184.72
675.282	176
675.477	130.67
675.672	159.73
675.867	141.13
676.061	113.04
676.256	105.09
676.451	97.73
676.646	162.83
676.84	134.54
677.035	111.49
677.23	90.37
677.424	156.43
677.619	196.54
677.814	203.9
678.008	176.2
678.203	75.84
678.397	113.42
678.592	157.4
678.787	216.3
678.981	129.5
679.176	150.43
679.37	126.99
679.565	108.97
679.759	125.05
679.954	167.67
680.148	190.34
680.342	198.67
680.537	160.89
680.731	138.8
680.926	152.95
681.12	164.77
681.314	103.35
681.509	136.87
681.703	135.9
681.897	162.25
682.092	137.25
682.286	125.24
682.48	206.03
682.674	173.87
682.869	136.29
683.063	129.31
683.257	211.46
683.451	99.67
683.645	135.9
683.839	145
684.034	148.3
684.228	183.75
684.422	117.49
684.616	120.98
684.81	173.1
685.004	140.35
685.198	144.23
685.392	174.84
685.586	122.72
685.78	136.29
685.974	168.06
686.168	153.14
686.362	182.2
686.556	111.1
686.75	138.03
686.944	158.37
687.138	188.21
687.331	111.29
687.525	163.99
687.719	87.07
687.913	152.37
688.107	135.9
688.301	103.74
688.494	176.2
688.688	117.88
688.882	106.84
689.076	71.19
689.269	118.27
689.463	197.7
689.657	96.76
689.85	119.24
690.044	125.05
690.238	113.42
690.431	97.92
690.625	121.17
690.818	131.44
691.012	134.93
691.205	151.78
691.399	79.9
691.593	126.02
691.786	160.7
691.98	151.2
692.173	188.4
692.366	137.45
692.56	155.08
692.753	183.95
692.947	94.44
693.14	210.49
693.333	160.89
693.527	76.03
693.72	175.42
693.914	130.67
694.107	120.4
694.3	140.55
694.493	146.55
694.687	184.14
694.88	131.44
695.073	206.03
695.266	180.07
695.46	163.22
695.653	193.44
695.846	167.87
696.039	118.27
696.232	149.65
696.425	174.45
696.618	181.43
696.812	159.73
697.005	217.66
697.198	256.21
697.391	167.48
697.584	199.45
697.777	241.68
697.97	233.93
698.163	203.13
698.356	181.23
698.549	278.3
698.742	231.03
698.935	159.15
699.127	215.72
699.32	168.06
699.513	192.08
699.706	212.82
699.899	228.9
700.092	173.48
700.285	234.9
700.477	156.63
700.67	209.72
700.863	260.48
701.056	337.59
701.248	259.9
701.441	254.66
701.634	202.35
701.826	313.56
702.019	212.23
702.212	265.32
702.404	225.41
702.597	222.89
702.79	214.17
702.982	253.89
703.175	251.95
703.367	266.87
703.56	280.05
703.752	355.41
703.945	274.23
704.137	295.35
704.33	297.68
704.522	290.31
704.715	290.51
704.907	303.3
705.1	335.65
705.292	336.81
705.484	295.16
705.677	324.03
705.869	262.8
706.061	363.74
706.254	366.46
706.446	335.07
706.638	319.96
706.831	374.98
707.023	338.36
707.215	388.93
707.407	358.51
707.599	347.66
707.792	399.01
707.984	367.43
708.176	400.36
708.368	337.78
708.56	365.1
708.752	347.47
708.944	366.46
709.136	397.84
709.329	363.55
709.521	476.89
709.713	419.74
709.905	397.65
710.097	424
710.289	386.41
710.481	414.51
710.672	423.03
710.864	415.86
711.056	472.44
711.248	434.66
711.44	433.3
711.632	428.84
711.824	425.94
712.016	498.4
712.207	467.01
712.399	478.64
712.591	515.06
712.783	477.86
712.975	504.79
713.166	442.6
713.358	458.68
713.55	545.87
713.741	524.75
713.933	524.17
714.125	488.71
714.316	486.58
714.508	557.69
714.7	564.47
714.891	514.87
715.083	579.77
715.274	571.05
715.466	525.91
715.657	572.8
715.849	494.33
716.04	554.39
716.232	506.92
716.423	613.29
716.615	508.47
716.806	546.84
716.998	529.79
717.189	510.6
717.381	485.61
717.572	440.86
717.763	508.47
717.955	485.22
718.146	489.87
718.337	443.18
718.528	435.43
718.72	425.36
718.911	488.13
719.102	447.64
719.293	487.16
719.485	490.65
719.676	469.14
719.867	458.49
720.058	444.92
720.249	446.67
720.44	477.86
720.632	466.62
720.823	521.84
721.014	551.49
721.205	523
721.396	556.33
721.587	603.8
721.778	584.62
721.969	627.24
722.16	630.15
722.351	586.17
722.542	695.44
722.733	711.33
722.924	624.53
723.115	707.65
723.305	696.21
723.496	746.2
723.687	645.84
723.878	612.52
724.069	665.02
724.26	651.46
724.45	624.72
724.641	590.23
724.832	661.92
725.023	658.82
725.213	616.2
725.404	631.12
725.595	627.43
725.785	621.62
725.976	676.26
726.167	654.56
726.357	666.18
726.548	741.75
726.739	660.37
726.929	721.01
727.12	730.12
727.31	759.76
727.501	725.08
727.691	754.14
727.882	740.39
728.072	764.99
728.263	729.93
728.453	746.2
728.644	747.36
728.834	764.61
729.024	740.97
729.215	727.02
729.405	762.67
729.596	827.19
729.786	792.12
729.976	772.74
730.167	822.93
730.357	788.63
730.547	809.94
730.737	848.31
730.928	872.33
731.118	891.9
731.308	814.21
731.498	788.44
731.688	903.14
731.879	874.27
732.069	909.92
732.259	921.16
732.449	914.37
732.639	928.13
732.829	977.15
733.019	985.67
733.209	1021.71
733.399	1000.4
733.589	1042.44
733.779	1037.21
733.969	973.47
734.159	1026.17
734.349	1076.93
734.539	1097.47
734.729	1038.57
734.919	1093.4
735.109	1104.44
735.299	1098.43
735.488	1124.2
735.678	1118.97
735.868	1119.16
736.058	1112.19
736.248	1100.37
736.437	1102.7
736.627	1076.35
736.817	1170.31
737.007	1116.65
737.196	1179.61
737.386	1147.65
737.576	1150.94
737.765	1137.18
737.955	1114.13
738.144	1225.14
738.334	1206.74
738.524	1163.15
738.713	1198.99
738.903	1191.24
739.092	1236.77
739.282	1204.41
739.471	1220.49
739.661	1180.97
739.85	1233.28
740.04	1248.39
740.229	1286.17
740.419	1268.35
740.608	1264.67
740.797	1247.23
740.987	1349.53
741.176	1321.82
741.365	1249.17
741.555	1258.08
741.744	1304.19
741.933	1286.37
742.123	1289.47
742.312	1360.38
742.501	1330.93
742.69	1334.81
742.88	1305.36
743.069	1369.87
743.258	1275.32
743.447	1368.32
743.636	1372.39
743.825	1292.76
744.014	1341.01
744.204	1372.2
744.393	1314.27
744.582	1366.19
744.771	1422.19
744.96	1330.54
745.149	1399.13
745.338	1334.81
745.527	1386.54
745.716	1329.57
745.905	1335.97
746.094	1377.62
746.283	1380.72
746.471	1396.61
746.66	1450.86
746.849	1414.82
747.038	1440.4
747.227	1375.1
747.416	1424.7
747.604	1369.68
747.793	1419.28
747.982	1419.09
748.171	1399.13
748.359	1427.03
748.548	1411.14
748.737	1398.94
748.926	1403.2
749.114	1355.54
749.303	1432.26
749.491	1398.74
749.68	1390.99
749.869	1451.05
750.057	1393.9
750.246	1389.25
750.434	1398.16
750.623	1425.87
750.811	1394.29
751	1434.2
751.188	1420.64
751.377	1482.05
751.565	1399.9
751.754	1366.58
751.942	1369.87
752.131	1420.05
752.319	1366.77
752.507	1326.09
752.696	1392.15
752.884	1466.94
753.072	1416.57
753.261	1404.94
753.449	1398.94
753.637	1375.49
753.825	1471.98
754.014	1413.47
754.202	1410.75
754.39	1482.83
754.578	1441.37
754.766	1383.63
754.955	1415.6
755.143	1475.27
755.331	1380.14
755.519	1401.84
755.707	1419.67
755.895	1437.49
756.083	1435.17
756.271	1364.06
756.459	1399.52
756.647	1453.18
756.835	1403.59
757.023	1422.77
757.211	1392.15
757.399	1408.24
757.587	1362.32
757.775	1362.12
757.963	1386.92
758.151	1372
758.339	1350.11
758.526	1335.39
758.714	1394.67
758.902	1315.24
759.09	1295.28
759.278	1217.78
759.465	1130.79
759.653	975.99
759.841	885.31
760.028	734
760.216	654.95
760.404	676.06
760.591	513.9
760.779	425.36
760.967	402.3
761.154	283.73
761.342	340.49
761.529	329.84
761.717	359.29
761.905	319.18
762.092	382.15
762.28	344.18
762.467	344.18
762.655	310.85
762.842	339.33
763.029	344.95
763.217	322.67
763.404	332.74
763.592	360.06
763.779	322.86
763.966	357.74
764.154	382.54
764.341	390.48
764.528	408.5
764.716	427.1
764.903	463.72
765.09	472.63
765.277	472.05
765.465	616.2
765.652	594.5
765.839	632.47
766.026	701.45
766.213	681.68
766.4	754.14
766.588	860.51
766.775	806.84
766.962	899.65
767.149	871.17
767.336	1000.79
767.523	907.98
767.71	974.24
767.897	1058.52
768.084	1107.35
768.271	1068.4
768.458	1116.26
768.645	1156.36
768.832	1109.48
769.019	1122.65
769.206	1160.43
769.392	1176.13
769.579	1283.27
769.766	1224.37
769.953	1224.95
770.14	1253.63
770.327	1245.49
770.513	1287.34
770.7	1306.13
770.887	1220.69
771.073	1304.97
771.26	1254.21
771.447	1221.27
771.634	1254.98
771.82	1327.25
772.007	1212.94
772.193	1260.02
772.38	1305.16
772.567	1263.31
772.753	1280.94
772.94	1336.16
773.126	1315.82
773.313	1300.71
773.499	1302.84
773.686	1306.91
773.872	1286.17
774.059	1283.46
774.245	1217.39
774.432	1274.74
774.618	1187.75
774.804	1283.66
774.991	1217.59
775.177	1287.14
775.363	1279.2
775.55	1280.94
775.736	1234.25
775.922	1227.08
776.109	1250.33
776.295	1272.23
776.481	1265.64
776.667	1271.06
776.853	1259.44
777.04	1228.44
777.226	1217.01
777.412	1317.56
777.598	1219.91
777.784	1217.2
777.97	1219.72
778.156	1278.04
778.342	1222.24
778.528	1224.76
778.715	1145.9
778.901	1235.41
779.087	1245.68
779.272	1171.28
779.458	1203.44
779.644	1239.09
779.83	1199.96
780.016	1292.18
780.202	1240.84
780.388	1165.66
780.574	1170.12
780.76	1216.23
780.946	1232.7
781.131	1194.73
781.317	1199.18
781.503	1173.41
781.689	1177.29
781.874	1280.94
782.06	1214.29
782.246	1171.09
782.432	1175.74
782.617	1220.3
782.803	1238.13
782.989	1099.79
783.174	1176.9
783.36	1148.03
783.545	1187.56
783.731	1167.21
783.916	1098.24
784.102	1142.41
784.288	1138.35
784.473	1186.01
784.659	1130.01
784.844	1194.14
785.029	1127.3
785.215	1117.03
785.4	1118
785.586	1181.94
785.771	1068.4
785.956	1131.95
786.142	1177.1
786.327	1107.15
786.512	1145.32
786.698	1148.42
786.883	1091.65
787.068	1094.37
787.254	1143.58
787.439	1110.45
787.624	1110.06
787.809	1079.25
787.994	1082.16
788.18	1157.33
788.365	1056.97
788.55	1082.55
788.735	1088.17
788.92	1061.04
789.105	1085.26
789.29	1110.06
789.475	1081.38
789.66	1067.24
789.845	1048.45
790.03	1072.28
790.215	1128.27
790.4	1087.78
790.585	1125.56
790.77	1071.89
790.955	1013.77
791.14	1056.2
791.325	1129.05
791.51	1012.02
791.695	1066.27
791.879	1001.37
792.064	990.13
792.249	1085.07
792.434	1031.4
792.618	1015.32
792.803	1063.17
792.988	1024.42
793.173	1031.2
793.357	1053.48
793.542	1005.82
793.727	1006.99
793.911	1055.23
794.096	1035.66
794.281	1035.27
794.465	1121.68
794.65	1042.25
794.834	1057.36
795.019	1099.4
795.203	1103.66
795.388	1074.41
795.572	1095.33
795.757	1054.84
795.941	1077.12
796.126	1075.18
796.31	966.69
796.494	1086.42
796.679	1033.14
796.863	1024.81
797.048	1092.82
797.232	1085.45
797.416	1062.59
797.601	1041.28
797.785	1109.28
797.969	1096.88
798.153	1064.14
798.338	1069.57
798.522	1073.63
798.706	1050.19
798.89	1070.73
799.074	1161.6
799.258	1089.91
799.443	1060.65
799.627	1042.63
799.811	1066.85
799.995	1075.38
800.179	1054.84
800.363	1022.1
800.547	1056.39
800.731	1121.68
800.915	1000.59
801.099	1082.55
801.283	1047.87
801.467	1048.06
801.651	1054.84
801.835	1117.03
802.019	1056.58
802.202	1066.47
802.386	1027.91
802.57	1021.52
802.754	1052.9
802.938	1021.52
803.121	1047.87
803.305	1114.71
803.489	1095.92
803.673	1071.5
803.856	1079.83
804.04	1058.72
804.224	1067.05
804.407	1070.53
804.591	1049.8
804.775	1048.45
804.958	1072.47
805.142	1167.41
805.326	1053.48
805.509	1110.83
805.693	1065.88
805.876	1089.91
806.06	1083.52
806.243	1093.59
806.427	1129.63
806.61	1133.31
806.794	1042.83
806.977	1113.16
807.16	1078.09
807.344	1105.02
807.527	1096.3
807.71	1043.99
807.894	1094.37
808.077	1100.95
808.26	1025.97
808.444	1025
808.627	1067.63
808.81	1069.18
808.993	1005.63
809.177	1018.61
809.36	1045.93
809.543	1089.33
809.726	992.45
809.909	1003.3
810.092	998.07
810.276	957.77
810.459	1044.96
810.642	977.15
810.825	990.9
811.008	1015.51
811.191	922.51
811.374	955.84
811.557	951.96
811.74	1035.47
811.923	934.91
812.106	921.16
812.289	884.15
812.472	935.49
812.654	930.84
812.837	932.59
813.02	899.84
813.203	860.9
813.386	807.62
813.569	821.96
813.751	825.25
813.934	853.34
814.117	822.54
814.3	813.63
814.482	792.7
814.665	779.72
814.848	750.08
815.03	751.82
815.213	772.36
815.396	723.34
815.578	724.31
815.761	673.74
815.943	806.07
816.126	676.06
816.309	671.41
816.491	673.35
816.674	628.21
816.856	677.42
817.039	616.2
817.221	729.15
817.403	682.26
817.586	678.2
817.768	709.2
817.951	628.21
818.133	650.1
818.315	682.07
818.498	672.96
818.68	710.94
818.862	718.11
819.045	719.46
819.227	709.2
819.409	678.58
819.591	697.57
819.774	693.11
819.956	648.94
820.138	772.55
820.32	695.25
820.502	719.85
820.684	759.38
820.866	750.46
821.048	765.19
821.231	782.24
821.413	738.06
821.595	730.51
821.777	765.96
821.959	743.1
822.141	797.35
822.323	693.31
822.505	693.89
822.686	704.16
822.868	673.16
823.05	611.16
823.232	626.85
823.414	549.94
823.596	614.84
823.778	612.9
823.96	632.28
824.141	589.27
824.323	617.55
824.505	630.15
824.687	664.63
824.868	688.46
825.05	744.85
825.232	730.9
825.413	790.96
825.595	754.34
825.777	688.27
825.958	748.33
826.14	716.75
826.321	775.65
826.503	717.72
826.685	745.43
826.866	785.92
827.048	765.58
827.229	725.28
827.411	713.07
827.592	689.63
827.773	704.16
827.955	648.17
828.136	679.75
828.318	630.92
828.499	703.58
828.68	653.98
828.862	690.6
829.043	732.83
829.224	706.87
829.406	633.83
829.587	664.44
829.768	664.63
829.949	659.98
830.131	647.2
830.312	729.15
830.493	683.62
830.674	696.02
830.855	653.59
831.036	655.14
831.218	700.67
831.399	717.72
831.58	675.87
831.761	686.53
831.942	730.7
832.123	681.49
832.304	646.03
832.485	659.98
832.666	653.98
832.847	678.2
833.028	670.25
833.209	681.88
833.389	673.35
833.57	613.29
833.751	662.31
833.932	692.73
834.113	662.12
834.294	659.79
834.475	672.77
834.655	709.97
834.836	709.58
835.017	691.95
835.198	632.86
835.378	658.63
835.559	705.9
835.74	688.85
835.92	652.04
836.101	627.24
836.281	681.1
836.462	696.99
836.643	720.43
836.823	715.4
837.004	713.65
837.184	763.83
837.365	752.01
837.545	745.23
837.726	686.91
837.906	764.61
838.087	713.85
838.267	693.89
838.448	632.28
838.628	702.41
838.808	673.35
838.989	749.3
839.169	656.11
839.349	723.34
839.53	737.87
839.71	729.54
839.89	684.78
840.07	752.98
840.251	699.12
840.431	733.22
840.611	706.68
840.791	636.93
840.971	725.08
841.151	667.35
841.332	683.43
841.512	724.11
841.692	654.75
841.872	737.29
842.052	707.26
842.232	737.87
842.412	626.85
842.592	659.79
842.772	701.45
842.952	705.71
843.132	675.29
843.312	650.68
843.492	649.33
843.672	706.68
843.851	622.59
844.031	676.26
844.211	677.61
844.391	661.53
844.571	695.05
844.751	706.29
844.93	698.35
845.11	638.09
845.29	677.81
845.47	696.6
845.649	681.1
845.829	689.05
846.009	638.09
846.188	686.14
846.368	678.2
846.547	674.9
846.727	695.25
846.907	619.88
847.086	703.38
847.266	680.52
847.445	657.47
847.625	645.65
847.804	634.6
847.984	656.69
848.163	633.63
848.343	629.18
848.522	683.04
848.701	672
848.881	648.75
849.06	673.55
849.239	663.28
849.419	674.51
849.598	627.43
849.777	652.23
849.957	661.53
850.136	614.65
850.315	604.57
850.494	584.42
850.674	602.83
850.853	627.24
851.032	622.59
851.211	664.63
851.39	637.51
851.569	591.4
851.748	597.79
851.927	637.9
852.107	634.02
852.286	557.69
852.465	557.3
852.644	640.22
852.823	663.28
853.002	632.67
853.181	611.74
853.359	617.17
853.538	580.93
853.717	650.88
853.896	603.22
854.075	557.3
854.254	542.96
854.433	506.54
854.611	560.2
854.79	536.95
854.969	547.8
855.148	586.94
855.327	534.24
855.505	577.64
855.684	534.24
855.863	556.91
856.041	540.64
856.22	572.6
856.399	538.31
856.577	617.75
856.756	604.77
856.934	679.55
857.113	668.31
857.291	592.17
857.47	584.62
857.648	582.1
857.827	594.11
858.005	629.76
858.184	551.68
858.362	655.14
858.541	578.03
858.719	621.04
858.898	603.22
859.076	569.31
859.254	665.8
859.433	570.47
859.611	563.11
859.789	517.58
859.967	657.85
860.146	651.85
860.324	546.45
860.502	536.37
860.68	553.81
860.859	532.69
861.037	555.55
861.215	581.9
861.393	556.91
861.571	589.65
861.749	547.22
861.927	570.28
862.105	562.53
862.283	557.49
862.461	526.1
862.639	479.8
862.817	548.77
862.995	549.35
863.173	533.85
863.351	562.14
863.529	562.72
863.707	578.8
863.885	578.8
864.063	468.95
864.241	504.4
864.418	595.47
864.596	543.74
864.774	503.24
864.952	552.07
865.129	559.04
865.307	491.62
865.485	471.66
865.663	572.22
865.84	474.96
866.018	517.77
866.196	441.24
866.373	468.95
866.551	463.33
866.728	411.79
866.906	457.71
867.084	469.14
867.261	464.49
867.439	500.14
867.616	497.24
867.794	517.39
867.971	510.8
868.149	543.35
868.326	523.2
868.503	527.85
868.681	523.59
868.858	483.67
869.035	473.41
869.213	536.76
869.39	468.76
869.567	558.46
869.745	501.11
869.922	528.62
870.099	508.09
870.276	535.79
870.454	522.23
870.631	520.87
870.808	508.86
870.985	531.72
871.162	550.32
871.339	518.35
871.517	488.9
871.694	449.38
871.871	518.35
872.048	515.84
872.225	483.29
872.402	514.29
872.579	447.25
872.756	492.2
872.933	453.26
873.11	488.32
873.287	518.74
873.463	486.19
873.64	476.7
873.817	522.62
873.994	469.34
874.171	486.19
874.348	496.65
874.524	419.74
874.701	457.91
874.878	413.73
875.055	483.67
875.231	475.73
875.408	507.5
875.585	444.73
875.762	472.44
875.938	468.37
876.115	442.02
876.291	445.51
876.468	468.17
876.645	411.21
876.821	442.79
876.998	436.01
877.174	495.1
877.351	449.19
877.527	442.21
877.704	470.89
877.88	476.12
878.057	429.62
878.233	493.75
878.409	438.34
878.586	443.76
878.762	455
878.938	441.44
879.115	385.25
879.291	436.79
879.467	382.73
879.644	413.34
879.82	456.55
879.996	413.92
880.172	378.47
880.349	437.76
880.525	479.22
880.701	424.77
880.877	412.76
881.053	450.16
881.229	448.22
881.405	466.24
881.581	404.04
881.757	434.27
881.933	427.29
882.109	458.49
882.285	416.83
882.461	374.59
882.637	449.19
882.813	399.59
882.989	402.69
883.165	456.94
883.341	395.13
883.517	445.12
883.693	440.27
883.869	428.84
884.044	401.91
884.22	453.26
884.396	445.89
884.572	442.41
884.747	454.03
884.923	454.22
885.099	461.01
885.275	463.52
885.45	397.65
885.626	413.15
885.801	427.29
885.977	433.88
886.153	367.43
886.328	425.55
886.504	382.15
886.679	445.12
886.855	378.86
887.03	428.26
887.206	433.49
887.381	447.44
887.557	455.39
887.732	446.86
887.908	445.12
888.083	462.56
888.258	412.37
888.434	421.09
888.609	423.61
888.784	473.02
888.96	402.69
889.135	414.51
889.31	398.81
889.485	412.96
889.661	395.52
889.836	447.44
890.011	429.04
890.186	409.08
890.361	382.34
890.537	432.33
890.712	416.83
890.887	415.09
891.062	437.17
891.237	460.04
891.412	386.8
891.587	418.38
891.762	430.97
891.937	463.72
892.112	376.73
892.287	392.61
892.462	397.46
892.637	360.26
892.812	374.21
892.987	354.44
893.161	348.24
893.336	384.28
893.511	374.79
893.686	427.29
893.861	387.77
894.035	353.09
894.21	373.63
894.385	359.87
894.56	384.09
894.734	324.99
894.909	347.08
895.084	340.49
895.258	352.7
895.433	361.42
895.608	345.73
895.782	314.92
895.957	337.78
896.131	332.55
896.306	297.68
896.48	306.78
896.655	314.92
896.829	269.78
897.004	230.25
897.178	284.11
897.353	268.03
897.527	294.96
897.701	269
897.876	231.8
898.05	317.63
898.224	259.7
898.399	323.25
898.573	323.44
898.747	201.58
898.921	298.26
899.096	228.51
899.27	231.03
899.444	240.13
899.618	231.22
899.792	212.43
899.967	230.25
900.141	285.08
900.315	234.9
900.489	230.83
900.663	269.39
900.837	236.65
901.011	236.65
901.185	302.91
901.359	271.33
901.533	248.85
901.707	252.53
901.881	279.27
902.055	199.64
902.229	237.23
902.403	297.29
902.576	235.29
902.75	264.16
902.924	347.28
903.098	275.98
903.272	323.64
903.446	306.2
903.619	283.73
903.793	290.9
903.967	277.91
904.14	346.5
904.314	312.98
904.488	307.56
904.661	326.16
904.835	303.49
905.009	311.82
905.182	376.92
905.356	293.22
905.529	321.7
905.703	291.67
905.876	279.46
906.05	255.63
906.223	308.72
906.397	245.75
906.57	235.48
906.744	215.53
906.917	241.1
907.09	243.23
907.264	261.64
907.437	228.31
907.61	180.85
907.784	258.15
907.957	219.4
908.13	242.65
908.304	278.11
908.477	202.55
908.65	231.22
908.823	186.08
908.996	283.73
909.17	214.56
909.343	205.65
909.516	231.41
909.689	231.22
909.862	215.33
910.035	240.71
910.208	180.27
910.381	206.62
910.554	326.16
910.727	223.67
910.9	227.93
911.073	212.04
911.246	264.35
911.419	257.38
911.592	223.28
911.765	212.43
911.938	203.32
912.11	213.4
912.283	229.67
912.456	260.28
912.629	211.46
912.802	229.28
912.974	183.75
913.147	167.67
913.32	146.17
913.493	151.59
913.665	195.38
913.838	174.45
914.01	200.61
914.183	172.32
914.356	181.62
914.528	211.65
914.701	244.98
914.873	199.83
915.046	211.27
915.218	154.3
915.391	142.29
915.563	146.94
915.736	226.96
915.908	229.67
916.081	187.82
916.253	172.13
916.425	181.43
916.598	198.48
916.77	187.05
916.942	167.09
917.115	107.22
917.287	197.7
917.459	193.25
917.632	166.32
917.804	109.94
917.976	187.43
918.148	183.56
918.32	171.55
918.493	185.11
918.665	243.43
918.837	169.8
919.009	223.67
919.181	223.08
919.353	202.74
919.525	180.46
919.697	166.51
919.869	177.36
920.041	224.25
920.213	265.32
920.385	225.8
920.557	177.75
920.729	203.52
920.901	185.88
921.073	185.88
921.244	161.86
921.416	239.75
921.588	192.08
921.76	185.3
921.932	255.25
922.103	184.53
922.275	181.04
922.447	190.92
922.619	124.27
922.79	195.57
922.962	189.76
923.134	220.18
923.305	154.11
923.477	153.92
923.648	139.38
923.82	190.34
923.991	156.63
924.163	135.7
924.335	142.68
924.506	172.32
924.677	205.84
924.849	123.69
925.02	159.53
925.192	184.14
925.363	156.63
925.535	175.03
925.706	160.12
925.877	196.73
926.049	143.45
926.22	172.13
926.391	176.58
926.562	180.85
926.734	159.73
926.905	192.47
927.076	145.78
927.247	142.48
927.419	137.06
927.59	143.65
927.761	149.65
927.932	149.85
928.103	159.73
928.274	97.15
928.445	116.72
928.616	133.38
928.787	159.73
928.958	169.42
929.129	124.85
929.3	147.33
929.471	110.9
929.642	81.26
929.813	43.67
929.984	151.98
930.155	29.14
930.326	93.27
930.496	82.62
930.667	34.18
930.838	113.42
931.009	59.56
931.18	71.38
931.35	92.5
931.521	94.44
931.692	29.92
931.863	27.01
932.033	62.66
932.204	49.87
932.374	102.77
932.545	36.31
932.716	99.28
932.886	107.03
933.057	-15.42
933.227	32.24
933.398	120.4
933.568	16.94
933.739	28.37
933.909	40.19
934.08	58.59
934.25	-28.98
934.421	-10.77
934.591	50.84
934.761	-13.68
934.932	-19.68
935.102	19.84
935.272	8.61
935.443	30.31
935.613	1.63
935.783	30.31
935.953	-7.86
936.123	176.2
936.294	-20.07
936.464	-9.8
936.634	12.87
936.804	-7.86
936.974	-4.96
937.144	15
937.314	4.92
937.484	9.38
937.655	-36.34
937.825	76.61
937.995	8.61
938.165	70.41
938.334	-11.16
938.504	31.66
938.674	-12.71
938.844	7.83
939.014	31.66
939.184	17.91
939.354	93.47
939.524	57.04
939.694	22.36
939.863	21.2
940.033	110.9
940.203	86.88
940.373	50.26
940.542	63.44
940.712	-2.83
940.882	51.81
941.051	94.24
941.221	36.89
941.391	72.35
941.56	15.97
941.73	18.29
941.899	124.66
942.069	27.01
942.238	66.92
942.408	32.44
942.577	56.27
942.747	46.97
942.916	2.79
943.086	8.61
943.255	53.75
943.425	34.37
943.594	4.15
943.763	-27.43
943.933	7.25
944.102	-43.71
944.271	22.75
944.441	66.54
944.61	41.16
944.779	-10.19
944.948	87.07
945.117	-9.61
945.287	36.12
945.456	-26.66
945.625	14.81
945.794	59.95
945.963	4.54
946.132	42.71
946.301	-1.66
946.47	52.59
946.639	-13.68
946.808	17.52
946.977	30.11
947.146	101.8
947.315	0.66
947.484	31.27
947.653	12.09
947.822	23.52
947.991	-13.68
948.16	115.17
948.329	68.28
948.498	11.71
948.666	29.14
948.835	54.72
949.004	-23.75
949.173	2.99
949.341	32.24
949.51	49.87
949.679	89.4
949.847	33.41
950.016	100.05
950.185	86.1
950.353	-18.33
950.522	21.59
950.69	53.94
950.859	12.87
951.028	54.52
951.196	57.43
951.365	10.74
951.533	28.76
951.701	48.52
951.87	52.78
952.038	1.05
952.207	40.57
952.375	85.72
952.543	21.01
952.712	45.61
952.88	-13.68
953.048	74.48
953.217	26.04
953.385	26.43
953.553	70.99
953.721	1.82
953.89	43.29
954.058	-10.96
954.226	-2.05
954.394	34.96
954.562	-5.15
954.73	14.81
954.898	5.89
955.067	38.25
955.235	10.74
955.403	74.09
955.571	86.3
955.739	31.66
955.907	-29.56
956.075	28.37
956.243	-19.49
956.41	46.19
956.578	-4.76
956.746	-15.03
956.914	15
957.082	40.96
957.25	21.01
957.418	33.6
957.585	29.34
957.753	62.66
957.921	1.63
958.089	12.67
958.256	40.77
958.424	52.59
958.592	50.07
958.759	7.06
958.927	28.56
959.095	22.56
959.262	21.39
959.43	50.84
959.597	8.02
959.765	35.54
959.932	-3.41
960.1	61.5
960.267	31.27
960.435	20.04
960.602	72.74
960.77	14.03
960.937	-19.68
961.104	52
961.272	-30.92
961.439	15
961.606	57.24
961.774	62.47
961.941	33.99
962.108	17.32
962.275	28.17
962.443	45.03
962.61	64.79
962.777	115.94
962.944	22.17
963.111	44.06
963.278	32.82
963.446	69.25
963.613	38.44
963.78	45.81
963.947	63.63
964.114	30.89
964.281	89.59
964.448	60.34
964.615	1.44
964.782	53.36
964.949	55.88
965.116	52.97
965.282	72.74
965.449	22.17
965.616	-6.89
965.783	31.47
965.95	44.84
966.117	-25.69
966.283	23.91
966.45	33.6
966.617	61.69
966.784	55.69
966.95	91.34
967.117	73.9
967.284	-2.44
967.45	16.94
967.617	72.35
967.784	62.27
967.95	89.98
968.117	9.57
968.283	72.15
968.45	132.02
968.616	47.55
968.783	64.79
968.949	65.57
969.116	91.53
969.282	36.7
969.449	20.81
969.615	57.24
969.781	-0.5
969.948	3.76
970.114	15.97
970.28	105.67
970.447	41.16
970.613	82.23
970.779	25.07
970.945	58.59
971.112	34.96
971.278	25.66
971.444	38.83
971.61	66.54
971.776	19.46
971.942	44.45
972.108	77.77
972.275	24.49
972.441	52
972.607	133.57
972.773	15.39
972.939	63.05
973.105	35.92
973.271	-24.14
973.437	34.96
973.602	7.44
973.768	52.59
973.934	40.38
974.1	56.85
974.266	-38.28
974.432	39.22
974.598	37.28
974.763	75.25
974.929	21.59
975.095	95.79
975.261	1.05
975.426	28.76
975.592	23.91
975.758	88.82
975.923	9.77
976.089	4.54
976.255	60.14
976.42	45.61
976.586	47.94
976.751	60.14
976.917	158.18
977.082	48.32
977.248	-11.74
977.413	-9.61
977.579	33.41
977.744	68.09
977.91	-2.05
978.075	10.54
978.24	68.47
978.406	26.82
978.571	31.27
978.736	6.28
978.902	32.82
979.067	4.15
979.232	-40.41
979.397	67.31
979.563	80.68
979.728	25.66
979.893	50.07
980.058	18.1
980.223	60.92
980.388	51.23
980.554	40.57
980.719	16.74
980.884	42.51
981.049	79.52
981.214	1.82
981.379	45.03
981.544	16.94
981.709	15.19
981.874	7.83
982.039	33.21
982.204	54.91
982.368	23.52
982.533	11.12
982.698	54.72
982.863	91.34
983.028	15.58
983.193	46.77
983.357	40.19
983.522	46
983.687	15.77
983.852	31.47
984.016	27.59
984.181	30.69
984.346	62.85
984.51	60.72
984.675	23.14
984.839	35.92
985.004	30.5
985.168	75.84
985.333	38.64
985.498	42.71
985.662	72.54
985.827	48.71
985.991	37.86
986.155	15.97
986.32	62.66
986.484	118.27
986.649	41.35
986.813	-8.25
986.977	50.84
987.142	55.3
987.306	16.74
987.47	-20.65
987.634	13.84
987.799	42.9
987.963	45.42
988.127	59.17
988.291	93.66
988.455	47.16
988.62	18.29
988.784	61.3
988.948	50.84
989.112	19.26
989.276	25.85
989.44	36.12
989.604	7.64
989.768	25.66
989.932	109.35
990.096	-5.15
990.26	8.02
990.424	8.99
990.588	17.91
990.752	111.29
990.915	73.51
991.079	10.74
991.243	22.17
991.407	30.89
991.571	13.06
991.734	53.17
991.898	53.55
992.062	102.96
992.226	17.32
992.389	11.12
992.553	-1.66
992.717	3.76
992.88	17.32
993.044	40.38
993.207	10.93
993.371	46
993.535	78.35
993.698	21.39
993.862	48.71
994.025	78.35
994.189	13.84
994.352	37.09
994.515	34.37
994.679	56.85
994.842	5.51
995.006	61.69
995.169	7.83
995.332	-9.22
995.496	72.35
995.659	-16.58
995.822	37.09
995.985	37.47
996.149	86.1
996.312	30.69
996.475	70.6
996.638	16.16
996.801	90.95
996.964	72.15
997.128	41.16
997.291	21.39
997.454	29.14
997.617	-16.58
997.78	46.39
997.943	34.18
998.106	68.86
998.269	-0.69
998.432	41.74
998.595	44.45
998.758	-8.64
998.92	-17.36
999.083	-36.15
999.246	52
999.409	-21.43
999.572	-35.57
999.735	3.18
999.897	58.4
1000.06	3.76
1000.223	-2.44
1000.386	64.21
1000.548	72.54
1000.711	46
1000.874	40.57
1001.036	-5.73
1001.199	58.98
1001.361	8.8
1001.524	38.83
1001.687	71.57
1001.849	-19.88
1002.012	41.35
1002.174	21.39
1002.337	40.57
1002.499	20.42
1002.661	65.95
1002.824	-22.2
1002.986	-9.03
1003.149	36.31
1003.311	5.51
1003.473	81.45
1003.636	4.92
1003.798	28.95
1003.96	30.31
1004.123	49.1
1004.285	17.52
1004.447	21.78
1004.609	36.51
1004.771	80.87
1004.933	-11.54
1005.096	-13.48
1005.258	-32.66
1005.42	-3.02
1005.582	77.77
1005.744	62.27
1005.906	-44.09
1006.068	25.66
1006.23	-20.84
1006.392	-42.93
1006.554	2.41
1006.716	46.77
1006.878	55.3
1007.04	-34.21
1007.202	33.41
1007.363	40.96
1007.525	51.23
1007.687	43.48
1007.849	83.2
1008.011	-24.72
1008.172	-32.66
1008.334	47.94
1008.496	20.23
1008.658	-21.62
1008.819	-11.16
1008.981	-2.63
1009.143	-0.11
1009.304	-2.24
1009.466	41.93
1009.627	81.65
1009.789	106.84
1009.95	36.12
1010.112	-3.41
1010.273	23.91
1010.435	2.21
1010.596	-0.5
1010.758	9.96
1010.919	11.32
1011.081	1.44
1011.242	14.42
1011.403	32.24
1011.565	29.14
1011.726	27.4
1011.887	-14.64
1012.049	-12.71
1012.21	42.51
1012.371	55.3
1012.532	-59.21
1012.693	11.9
1012.855	5.12
1013.016	13.26
1013.177	31.86
1013.338	0.66
1013.499	64.79
1013.66	60.72
1013.821	39.99
1013.982	22.36
1014.143	16.55
1014.304	19.07
1014.465	16.94
1014.626	64.79
1014.787	16.55
1014.948	105.09
1015.109	-26.08
1015.27	56.46
1015.431	-9.61
1015.592	-22.39
1015.752	76.42
1015.913	33.21
1016.074	39.61
1016.235	2.02
1016.395	22.36
1016.556	33.41
1016.717	33.21
1016.877	70.02
1017.038	-17.74
1017.199	49.49
1017.359	27.01
1017.52	12.67
1017.681	12.48
1017.841	29.53
1018.002	2.41
1018.162	-22.2
1018.323	87.07
1018.483	10.35
1018.644	5.7
1018.804	-17.74
1018.964	-8.44
1019.125	-9.8
1019.285	39.41
1019.446	-2.44
1019.606	14.81
1019.766	-31.69
1019.926	37.67
1020.087	24.88
1020.247	-31.11
1020.407	22.17
1020.567	74.48
1020.728	24.88
1020.888	-40.61
1021.048	6.86
1021.208	-22.59
1021.368	-15.23
1021.528	59.17
1021.688	53.75
1021.848	21.97
1022.008	8.02
1022.168	29.53
1022.328	16.55
1022.488	40.96
1022.648	-6.12
1022.808	18.1
1022.968	24.69
1023.128	-30.34
1023.288	-12.9
1023.448	15.77
1023.608	19.84
1023.767	49.49
1023.927	17.91
1024.087	-41.77
1024.247	-32.66
1024.406	22.17
1024.566	-24.53
1024.726	-24.14
1024.885	5.31
1025.045	41.93
1025.205	13.26
1025.364	23.72
1025.524	21.01
1025.683	18.87
1025.843	43.87
1026.003	0.47
1026.162	86.49
1026.321	48.13
1026.481	19.46
1026.64	-0.89
1026.8	3.57
1026.959	44.26
1027.119	19.65
1027.278	-13.87
1027.437	-9.41
1027.597	24.88
1027.756	30.31
1027.915	30.31
1028.074	26.24
1028.234	-6.12
1028.393	11.12
1028.552	27.79
1028.711	-53.59
1028.87	50.26
1029.03	-5.34
1029.189	10.74
1029.348	-51.07
1029.507	-25.11
1029.666	-4.76
1029.825	-2.63
1029.984	-19.68
1030.143	18.49
1030.302	-24.33
1030.461	-59.59
1030.62	17.52
1030.779	45.81
1030.938	0.66
1031.097	-21.43
1031.255	29.53
1031.414	60.34
1031.573	42.12
1031.732	-50.29
1031.891	-3.6
1032.049	74.87
1032.208	23.14
1032.367	-13.48
1032.525	16.94
1032.684	-5.73
1032.843	3.76
1033.001	-47.97
1033.16	145.78
1033.319	65.18
1033.477	15.97
1033.636	-6.89
1033.794	-40.61
1033.953	36.12
1034.111	41.74
1034.27	-4.57
1034.428	6.09
1034.587	-0.5
1034.745	50.07
1034.903	10.54
1035.062	25.66
1035.22	-40.99
1035.378	21.39
1035.537	-30.34
1035.695	44.84
1035.853	3.37
1036.011	47.16
1036.17	21.59
1036.328	-59.4
1036.486	26.62
1036.644	34.57
1036.802	-65.21
1036.96	-30.92
1037.119	-6.51
1037.277	-22.39
1037.435	-16.58
1037.593	-19.49
1037.751	2.79
1037.909	29.34
1038.067	29.34
