Data from pine_FLMT105791__120__17-22-19-075.txt Node

Date: Mon Mar 20 17:22:19 GMT 2023
User: antho
Spectrometer: FLMT10579
Trigger mode: 0
Integration Time (sec): 1.000000E-1
Scans to average: 10
Electric dark correction enabled: true
Nonlinearity correction enabled: false
Boxcar width: 0
XAxis mode: Wavelengths
Number of Pixels in Spectrum: 3648
>>>>>Begin Spectral Data<<<<<
345.248	-173.57
345.464	-173.57
345.681	-173.57
345.898	-173.95
346.114	-158.45
346.331	-38.14
346.548	20.18
346.764	12.82
346.981	-9.07
347.197	5.07
347.414	18.83
347.631	-26.7
347.847	48.08
348.064	6.04
348.28	1.39
348.497	-30.39
348.713	-8.11
348.93	40.53
349.146	36.65
349.363	3.91
349.579	6.81
349.796	15.53
350.012	-18.18
350.229	19.79
350.445	28.13
350.661	-26.32
350.878	18.63
351.094	5.07
351.311	32.78
351.527	24.25
351.743	-9.46
351.96	38.98
352.176	57.77
352.392	25.99
352.609	50.6
352.825	-3.65
353.041	-2.68
353.257	22.89
353.474	15.92
353.69	10.69
353.906	20.38
354.122	-29.22
354.339	52.54
354.555	12.43
354.771	-5.2
354.987	81.41
355.203	40.72
355.42	18.44
355.636	-15.27
355.852	-34.45
356.068	8.94
356.284	-10.82
356.5	79.47
356.716	15.34
356.932	-22.83
357.148	25.61
357.364	10.69
357.58	54.67
357.796	68.81
358.012	40.72
358.228	6.62
358.444	-75.92
358.66	66.68
358.876	43.43
359.092	7.98
359.308	19.02
359.524	18.44
359.74	-8.88
359.956	-24.19
360.172	-5.2
360.388	43.43
360.604	7.2
360.819	90.32
361.035	26.77
361.251	30.06
361.467	-23.22
361.683	41.3
361.898	35.1
362.114	20.38
362.33	18.83
362.546	49.24
362.762	-11.21
362.977	31.23
363.193	-20.89
363.409	65.33
363.624	-43.17
363.84	-16.24
364.056	-5.2
364.271	8.17
364.487	21.73
364.703	-1.13
364.918	-13.34
365.134	4.49
365.35	-7.91
365.565	127.52
365.781	16.5
365.996	37.81
366.212	80.82
366.427	18.24
366.643	-7.52
366.858	13.98
367.074	-16.05
367.289	66.68
367.505	126.36
367.72	-28.06
367.936	9.91
368.151	53.12
368.367	12.63
368.582	17.66
368.798	13.4
369.013	39.17
369.228	18.44
369.444	49.24
369.659	56.22
369.874	36.46
370.09	83.73
370.305	-57.7
370.52	11.46
370.736	57.19
370.951	13.98
371.166	65.13
371.381	92.84
371.597	66.29
371.812	-7.33
372.027	10.11
372.242	5.65
372.458	64.94
372.673	-10.04
372.888	9.91
373.103	61.06
373.318	101.75
373.533	55.83
373.749	38.78
373.964	-33.1
374.179	63.97
374.394	-7.14
374.609	55.06
374.824	-17.6
375.039	73.07
375.254	21.34
375.469	67.07
375.684	40.53
375.899	75.98
376.114	31.23
376.329	18.83
376.544	32.39
376.759	56.22
376.974	-7.33
377.189	30.26
377.404	9.53
377.619	68.43
377.834	-21.09
378.049	-18.18
378.264	-0.74
378.478	51.57
378.693	20.76
378.908	59.51
379.123	34.52
379.338	55.83
379.553	61.26
379.767	42.08
379.982	37.43
380.197	54.28
380.412	16.11
380.626	42.85
380.841	98.07
381.056	36.26
381.271	96.52
381.485	20.18
381.7	0.42
381.915	33.36
382.129	4.68
382.344	35.68
382.559	20.57
382.773	45.76
382.988	-8.49
383.202	18.63
383.417	-17.79
383.632	100.39
383.846	25.8
384.061	43.43
384.275	22.12
384.49	17.08
384.704	44.59
384.919	24.25
385.133	19.6
385.348	30.45
385.562	0.61
385.777	40.91
385.991	-1.13
386.206	19.6
386.42	10.11
386.634	64.16
386.849	60.29
387.063	53.31
387.277	2.16
387.492	13.79
387.706	8.75
387.92	6.43
388.135	29.68
388.349	50.21
388.563	19.02
388.778	37.43
388.992	50.21
389.206	56.22
389.42	104.07
389.635	24.06
389.849	67.84
390.063	80.24
390.277	50.6
390.491	67.65
390.706	74.04
390.92	46.34
391.134	40.33
391.348	60.48
391.562	16.5
391.776	18.24
391.99	1
392.205	62.61
392.419	13.79
392.633	29.29
392.847	84.31
393.061	-7.91
393.275	86.06
393.489	32.39
393.703	56.03
393.917	56.03
394.131	6.81
394.345	39.56
394.559	76.17
394.773	24.06
394.986	48.47
395.2	32.97
395.414	90.51
395.628	-8.3
395.842	39.94
396.056	4.49
396.27	-4.42
396.484	49.44
396.697	47.69
396.911	95.55
397.125	41.88
397.339	89.35
397.553	42.08
397.766	127.71
397.98	39.94
398.194	81.99
398.408	25.03
398.621	55.44
398.835	83.15
399.049	76.37
399.262	95.55
399.476	77.53
399.69	71.14
399.903	124.03
400.117	60.87
400.331	68.62
400.544	13.01
400.758	180.02
400.971	80.82
401.185	116.28
401.398	32.97
401.612	99.04
401.826	63.58
402.039	67.84
402.253	32.78
402.466	78.31
402.68	72.88
402.893	67.65
403.106	39.36
403.32	62.23
403.533	72.69
403.747	65.52
403.96	54.28
404.174	81.41
404.387	24.44
404.6	46.14
404.814	108.34
405.027	66.29
405.24	70.94
405.454	72.11
405.667	88.77
405.88	7.39
406.094	72.88
406.307	89.35
406.52	109.89
406.733	35.49
406.947	49.83
407.16	143.6
407.373	109.5
407.586	18.44
407.799	21.73
408.012	108.92
408.226	88.96
408.439	108.92
408.652	17.47
408.865	61.64
409.078	89.74
409.291	89.35
409.504	41.88
409.717	74.62
409.93	68.81
410.143	69.01
410.357	35.1
410.57	32.78
410.783	50.21
410.996	71.72
411.209	57.38
411.421	104.66
411.634	66.1
411.847	64.16
412.06	76.17
412.273	66.1
412.486	68.23
412.699	161.23
412.912	67.26
413.125	81.6
413.338	89.35
413.55	103.11
413.763	101.94
413.976	85.28
414.189	46.34
414.402	59.9
414.615	123.84
414.827	55.64
415.04	134.3
415.253	79.27
415.466	115.89
415.678	144.57
415.891	74.04
416.104	91.48
416.316	65.91
416.529	57.38
416.742	113.96
416.954	112.99
417.167	66.29
417.38	93.81
417.592	119.96
417.805	44.98
418.017	44.21
418.23	129.07
418.442	79.86
418.655	86.83
418.868	117.44
419.08	100.78
419.293	132.56
419.505	87.02
419.718	97.87
419.93	123.06
420.142	67.46
420.355	127.91
420.567	132.56
420.78	150.96
420.992	86.25
421.205	140.11
421.417	49.83
421.629	71.33
421.842	72.3
422.054	49.83
422.266	127.32
422.479	132.36
422.691	111.05
422.903	125.97
423.115	60.29
423.328	71.53
423.54	105.24
423.752	98.26
423.964	60.29
424.177	125.97
424.389	89.54
424.601	162.78
424.813	106.98
425.025	116.67
425.238	127.52
425.45	108.92
425.662	103.49
425.874	368.54
426.086	116.86
426.298	151.54
426.51	111.82
426.722	131.59
426.934	67.46
427.146	163.36
427.358	59.13
427.57	159.29
427.782	127.71
427.994	105.24
428.206	77.92
428.418	71.91
428.63	138.95
428.842	148.06
429.054	127.52
429.266	144.18
429.478	102.91
429.69	114.15
429.902	73.07
430.114	148.25
430.325	116.09
430.537	74.62
430.749	125.97
430.961	40.14
431.173	82.96
431.384	109.11
431.596	28.51
431.808	91.67
432.02	125
432.231	145.54
432.443	187.39
432.655	127.71
432.867	92.45
433.078	145.92
433.29	187.39
433.502	173.44
433.713	199.98
433.925	147.28
434.136	198.43
434.348	98.84
434.56	82.18
434.771	248.61
434.983	93.61
435.194	125.77
435.406	137.21
435.617	167.62
435.829	226.72
436.04	172.47
436.252	190.1
436.463	197.27
436.675	207.92
436.886	173.05
437.098	190.1
437.309	221.1
437.521	159.1
437.732	189.32
437.943	194.75
438.155	188.55
438.366	102.33
438.578	202.69
438.789	176.73
439	184.67
439.211	168.4
439.423	181.77
439.634	189.52
439.845	193
440.057	200.37
440.268	215.29
440.479	184.48
440.69	172.27
440.902	152.12
441.113	166.85
441.324	164.72
441.535	199.79
441.746	259.65
441.957	177.31
442.168	185.45
442.38	206.76
442.591	214.9
442.802	182.74
443.013	196.49
443.224	218.97
443.435	163.94
443.646	189.52
443.857	188.35
444.068	212.19
444.279	177.5
444.49	258.1
444.701	180.8
444.912	331.34
445.123	243.57
445.334	240.67
445.545	228.46
445.756	194.55
445.967	171.69
446.178	230.01
446.388	234.47
446.599	260.04
446.81	245.12
447.021	194.94
447.232	294.72
447.443	265.27
447.653	196.1
447.864	270.5
448.075	210.44
448.286	262.95
448.496	254.03
448.707	298.79
448.918	215.29
449.129	326.5
449.339	210.25
449.55	271.47
449.761	230.59
449.971	290.27
450.182	231.75
450.393	253.07
450.603	252.87
450.814	282.32
451.024	264.11
451.235	305.57
451.446	296.66
451.656	317.2
451.867	233.3
452.077	291.23
452.288	332.7
452.498	312.74
452.709	269.34
452.919	296.47
453.13	264.3
453.34	285.03
453.55	197.46
453.761	284.26
453.971	284.45
454.182	313.32
454.392	286
454.602	343.35
454.813	310.03
455.023	303.25
455.233	256.17
455.444	270.12
455.654	213.54
455.864	271.08
456.075	272.63
456.285	262.95
456.495	273.22
456.705	297.05
456.916	322.62
457.126	349.36
457.336	319.72
457.546	237.57
457.756	231.56
457.967	318.55
458.177	275.93
458.387	279.8
458.597	257.33
458.807	293.56
459.017	279.8
459.227	278.83
459.437	285.23
459.647	327.85
459.857	293.56
460.068	264.88
460.278	338.31
460.488	333.28
460.698	353.04
460.908	308.09
461.117	258.88
461.327	274.18
461.537	316.81
461.747	328.63
461.957	307.32
462.167	400.31
462.377	343.55
462.587	312.55
462.797	347.42
463.007	309.64
463.216	340.83
463.426	369.7
463.636	351.3
463.846	277.48
464.056	283.29
464.265	360.98
464.475	292.01
464.685	332.12
464.895	352.07
465.104	336.38
465.314	363.5
465.524	338.12
465.733	292.01
465.943	379
466.153	407.29
466.362	350.91
466.572	342.96
466.782	332.89
466.991	333.28
467.201	382.88
467.41	294.92
467.62	360.01
467.829	352.85
468.039	378.23
468.249	356.91
468.458	350.33
468.668	366.8
468.877	374.16
469.086	411.94
469.296	387.72
469.505	320.68
469.715	439.45
469.924	396.25
470.134	411.75
470.343	404.96
470.552	393.15
470.762	368.15
470.971	328.43
471.18	359.43
471.39	349.75
471.599	351.88
471.808	384.23
472.018	363.7
472.227	424.14
472.436	407.68
472.645	371.83
472.855	359.05
473.064	435.19
473.273	413.1
473.482	425.89
473.691	444.29
473.901	442.74
474.11	416.78
474.319	484.98
474.528	416.01
474.737	479.17
474.946	428.02
475.155	452.04
475.364	466.96
475.573	447.2
475.783	426.47
475.992	477.81
476.201	496.8
476.41	424.92
476.619	412.52
476.828	457.28
477.037	429.76
477.245	433.83
477.454	472.58
477.663	448.17
477.872	449.91
478.081	511.14
478.29	434.41
478.499	571.59
478.708	471.61
478.917	557.83
479.125	478.01
479.334	506.29
479.543	452.82
479.752	507.07
479.961	507.65
480.169	506.49
480.378	485.76
480.587	602
480.796	529.54
481.004	514.04
481.213	539.04
481.422	515.59
481.63	533.61
481.839	569.07
482.048	555.31
482.256	570.42
482.465	553.37
482.674	575.07
482.882	575.46
483.091	625.64
483.299	545.82
483.508	576.24
483.716	564.22
483.925	539.81
484.134	532.26
484.342	550.08
484.551	605.69
484.759	592.9
484.967	602
485.176	613.05
485.384	599.1
485.593	615.57
485.801	594.06
486.01	568.29
486.218	546.4
486.426	502.61
486.635	527.02
486.843	496.22
487.051	523.15
487.26	541.17
487.468	593.09
487.676	593.29
487.885	552.21
488.093	569.07
488.301	594.45
488.509	610.34
488.717	634.75
488.926	619.25
489.134	585.73
489.342	632.81
489.55	601.23
489.758	639.2
489.967	588.44
490.175	729.88
490.383	613.63
490.591	745.57
490.799	602.2
491.007	701.2
491.215	661.49
491.423	648.31
491.631	675.24
491.839	663.04
492.047	696.17
492.255	633.78
492.463	624.29
492.671	633.39
492.879	742.28
493.087	666.72
493.295	694.81
493.503	684.15
493.711	741.31
493.919	721.35
494.127	704.88
494.334	740.34
494.542	653.35
494.75	709.34
494.958	686.87
495.166	793.62
495.374	726.58
495.581	735.3
495.789	711.28
495.997	788.78
496.205	698.88
496.412	734.92
496.62	700.23
496.828	745.77
497.035	740.73
497.243	763.98
497.451	731.04
497.658	753.32
497.866	760.3
498.074	791.49
498.281	735.5
498.489	816.87
498.696	756.42
498.904	724.26
499.112	733.17
499.319	814.55
499.527	777.93
499.734	806.99
499.942	713.41
500.149	744.6
500.357	775.8
500.564	732.4
500.771	779.48
500.979	722.13
501.186	725.81
501.394	766.69
501.601	749.25
501.808	797.11
502.016	758.55
502.223	729.3
502.43	757.58
502.638	782.58
502.845	748.48
503.052	809.7
503.26	753.32
503.467	833.73
503.674	794.59
503.881	833.73
504.089	854.85
504.296	836.63
504.503	757.78
504.71	784.13
504.917	748.28
505.125	801.95
505.332	775.21
505.539	828.88
505.746	898.44
505.953	860.85
506.16	859.69
506.367	914.33
506.574	917.81
506.781	934.67
506.988	839.15
507.195	855.81
507.402	838.57
507.609	885.07
507.816	864.53
508.023	856.2
508.23	846.9
508.437	845.93
508.644	876.93
508.851	930.41
509.058	919.36
509.265	894.76
509.472	906.58
509.679	972.06
509.885	866.28
510.092	889.53
510.299	906.19
510.506	915.49
510.713	916.07
510.92	894.56
511.126	910.84
511.333	966.44
511.54	977.49
511.746	986.79
511.953	992.6
512.16	991.24
512.367	941.64
512.573	983.49
512.78	970.32
512.987	948.81
513.193	934.28
513.4	885.46
513.606	934.67
513.813	956.17
514.02	976.13
514.226	1041.42
514.433	982.72
514.639	898.83
514.846	969.35
515.052	935.25
515.259	976.52
515.465	977.49
515.672	973.61
515.878	1056.15
516.085	984.85
516.291	1024.37
516.497	990.08
516.704	976.52
516.91	939.71
517.117	913.36
517.323	851.94
517.529	886.23
517.736	910.45
517.942	918.59
518.148	918.01
518.354	1016.82
518.561	969.35
518.767	991.24
518.973	992.41
519.179	1024.96
519.386	984.85
519.592	986.59
519.798	1007.13
520.004	1068.55
520.21	1038.32
520.417	1079.98
520.623	1118.92
520.829	1104.97
521.035	1091.6
521.241	1090.44
521.447	1103.62
521.653	1205.33
521.859	1136.17
522.065	1144.5
522.271	1233.04
522.477	1188.67
522.683	1212.31
522.889	1192.74
523.095	1184.41
523.301	1183.63
523.507	1158.83
523.713	1163.68
523.919	1146.24
524.125	1229.36
524.331	1179.76
524.537	1282.45
524.742	1257.06
524.948	1267.72
525.154	1252.61
525.36	1344.06
525.566	1244.47
525.772	1302.79
525.977	1199.72
526.183	1284.19
526.389	1325.84
526.595	1197
526.8	1222.96
527.006	1198.17
527.212	1137.52
527.417	1153.41
527.623	1167.75
527.829	1247.57
528.034	1231.88
528.24	1260.16
528.446	1245.44
528.651	1347.54
528.857	1325.26
529.062	1346.96
529.268	1292.33
529.473	1344.44
529.679	1307.24
529.884	1384.94
530.09	1371.96
530.295	1376.03
530.501	1376.03
530.706	1334.18
530.912	1331.08
531.117	1338.24
531.323	1377.38
531.528	1399.66
531.733	1423.3
531.939	1408.57
532.144	1401.21
532.35	1418.84
532.555	1439.96
532.76	1398.11
532.966	1442.67
533.171	1402.37
533.376	1393.27
533.581	1320.81
533.787	1379.9
533.992	1410.51
534.197	1419.42
534.402	1373.89
534.607	1421.56
534.813	1512.04
535.018	1398.69
535.223	1439.57
535.428	1480.07
535.633	1516.69
535.838	1495.37
536.043	1502.15
536.249	1559.7
536.454	1476.77
536.659	1500.99
536.864	1439.19
537.069	1445.19
537.274	1487.43
537.479	1470.19
537.684	1447.52
537.889	1441.9
538.094	1504.29
538.299	1492.08
538.504	1504.29
538.708	1513.97
538.913	1498.86
539.118	1497.31
539.323	1504.87
539.528	1445.58
539.733	1457.79
539.938	1496.92
540.142	1473.29
540.347	1483.55
540.552	1444.81
540.757	1471.15
540.962	1459.53
541.166	1451.39
541.371	1410.32
541.576	1445.77
541.781	1357.23
541.985	1471.15
542.19	1469.22
542.395	1560.47
542.599	1573.07
542.804	1516.88
543.008	1554.47
543.213	1471.15
543.418	1449.26
543.622	1502.54
543.827	1466.31
544.031	1539.55
544.236	1557.18
544.44	1498.86
544.645	1618.6
544.849	1510.87
545.054	1537.61
545.258	1632.55
545.463	1573.45
545.667	1489.75
545.872	1555.63
546.076	1577.91
546.281	1571.52
546.485	1543.23
546.689	1574.03
546.894	1592.25
547.098	1561.05
547.302	1556.79
547.507	1549.62
547.711	1577.33
547.915	1639.91
548.119	1527.73
548.324	1544.59
548.528	1629.64
548.732	1551.37
548.936	1583.14
549.141	1596.7
549.345	1546.14
549.549	1578.88
549.753	1587.4
549.957	1669.75
550.161	1634.48
550.366	1613.17
550.57	1560.47
550.774	1618.02
550.978	1592.83
551.182	1577.33
551.386	1544.2
551.59	1607.17
551.794	1536.45
551.998	1616.47
552.202	1602.52
552.406	1551.95
552.61	1604.65
552.814	1607.36
553.018	1667.81
553.222	1616.85
553.426	1606.2
553.63	1653.66
553.833	1615.88
554.037	1569.97
554.241	1603.29
554.445	1606.78
554.649	1643.78
554.853	1609.68
555.056	1649.4
555.26	1647.27
555.464	1656.96
555.668	1584.5
555.871	1708.88
556.075	1630.42
556.279	1586.82
556.483	1583.33
556.686	1585.85
556.89	1591.28
557.094	1595.73
557.297	1540.71
557.501	1614.92
557.704	1490.72
557.908	1584.69
558.112	1551.17
558.315	1627.9
558.519	1523.66
558.722	1557.95
558.926	1537.22
559.129	1481.42
559.333	1448.49
559.536	1500.6
559.74	1491.3
559.943	1501.77
560.147	1489.56
560.35	1494.4
560.553	1463.6
560.757	1459.14
560.96	1537.8
561.164	1476.58
561.367	1595.73
561.57	1501.38
561.774	1562.02
561.977	1531.22
562.18	1497.89
562.384	1594.96
562.587	1483.75
562.79	1514.55
562.993	1490.72
563.197	1536.45
563.4	1571.13
563.603	1554.08
563.806	1570.55
564.009	1475.22
564.212	1487.62
564.416	1444.61
564.619	1485.3
564.822	1446.36
565.025	1563.18
565.228	1494.6
565.431	1452.94
565.634	1414
565.837	1445.39
566.04	1425.43
566.243	1399.27
566.446	1331.85
566.649	1438.22
566.852	1343.67
567.055	1379.9
567.258	1447.13
567.461	1474.64
567.664	1473.48
567.867	1371.57
568.07	1388.81
568.273	1437.06
568.475	1443.84
568.678	1405.47
568.881	1420.01
569.084	1345.99
569.287	1286.51
569.489	1334.76
569.692	1401.02
569.895	1399.47
570.098	1307.63
570.3	1378.16
570.503	1299.88
570.706	1282.45
570.909	1315.77
571.111	1269.66
571.314	1237.3
571.516	1295.62
571.719	1309.18
571.922	1309.96
572.124	1248.15
572.327	1283.61
572.529	1265.2
572.732	1277.8
572.935	1287.29
573.137	1366.53
573.34	1265.01
573.542	1308.99
573.745	1292.91
573.947	1326.62
574.15	1259.97
574.352	1257.45
574.554	1345.22
574.757	1235.95
574.959	1222.38
575.162	1247.96
575.364	1242.15
575.566	1354.52
575.769	1183.83
575.971	1230.52
576.173	1120.47
576.376	1202.43
576.578	1264.04
576.78	1285.93
576.982	1169.1
577.185	1238.46
577.387	1178.4
577.589	1231.88
577.791	1247.57
577.993	1256.87
578.196	1200.3
578.398	1225.48
578.6	1222.58
578.802	1169.88
579.004	1185.57
579.206	1186.35
579.408	1222.58
579.61	1193.32
579.812	1271.98
580.014	1185.57
580.216	1170.65
580.418	1194.1
580.62	1153.41
580.822	1088.7
581.024	1175.3
581.226	1227.81
581.428	1171.62
581.63	1278.18
581.832	1152.83
582.034	1223.93
582.236	1214.44
582.438	1229.16
582.64	1232.65
582.841	1256.87
583.043	1315.96
583.245	1262.88
583.447	1237.5
583.649	1188.09
583.85	1187.12
584.052	1216.18
584.254	1182.08
584.456	1246.99
584.657	1166
584.859	1225.1
585.061	1205.72
585.262	1190.03
585.464	1135.78
585.666	1209.21
585.867	1152.63
586.069	1261.71
586.27	1187.32
586.472	1182.47
586.674	1151.67
586.875	1144.88
587.077	1160.19
587.278	1190.42
587.48	1165.81
587.681	1254.93
587.883	1189.83
588.084	1127.06
588.285	1109.43
588.487	1118.54
588.688	1116.4
588.89	1044.72
589.091	1031.54
589.292	1061.96
589.494	1051.3
589.695	1020.11
589.896	969.16
590.098	978.26
590.299	1023.02
590.5	999.96
590.702	1026.12
590.903	1017.4
591.104	1116.21
591.305	1079.98
591.507	1119.5
591.708	1098
591.909	1087.15
592.11	1129.97
592.311	1095.87
592.512	1072.04
592.714	1031.16
592.915	1048.01
593.116	1033.87
593.317	1065.45
593.518	1081.53
593.719	1050.92
593.92	1080.17
594.121	1131.13
594.322	1049.37
594.523	1106.72
594.724	1045.88
594.925	1063.7
595.126	1086.57
595.327	1111.75
595.528	1054.99
595.729	1093.35
595.929	1066.8
596.13	1058.86
596.331	1056.34
596.532	1061.19
596.733	1140.04
596.934	1114.66
597.135	1075.14
597.335	1097.42
597.536	1066.03
597.737	1063.7
597.938	1061.77
598.138	1061.57
598.339	1067
598.54	1075.14
598.74	1052.66
598.941	1054.4
599.142	1113.5
599.342	1074.75
599.543	1030.57
599.744	1079.79
599.944	1046.27
600.145	1053.24
600.345	1090.64
600.546	1157.28
600.746	1118.34
600.947	1155.54
601.147	1052.08
601.348	1117.57
601.548	1058.09
601.749	1071.26
601.949	1029.22
602.15	1007.52
602.35	1003.06
602.551	1079.98
602.751	988.92
602.951	1014.49
603.152	992.6
603.352	1077.65
603.552	1046.85
603.753	1064.67
603.953	1092.77
604.153	1061.19
604.354	1057.12
604.554	1067.58
604.754	1098.39
604.954	1033.87
605.155	1059.25
605.355	1060.6
605.555	1105.55
605.755	1114.66
605.955	1046.27
606.155	1078.04
606.356	1072.81
606.556	1074.17
606.756	1072.04
606.956	1030.19
607.156	1105.75
607.356	1031.93
607.556	1032.71
607.756	1056.92
607.956	1121.05
608.156	1091.02
608.356	1025.54
608.556	1071.26
608.756	1060.6
608.956	979.42
609.156	1060.02
609.356	995.7
609.556	973.81
609.755	1037.35
609.955	1005.39
610.155	991.44
610.355	1004.22
610.555	1005.77
610.755	1024.37
610.954	954.62
611.154	995.12
611.354	1045.3
611.554	987.37
611.753	975.74
611.953	955.21
612.153	1054.6
612.352	1010.04
612.552	962.18
612.752	944.94
612.951	999.38
613.151	1008.29
613.351	955.4
613.55	965.47
613.75	982.33
613.949	996.28
614.149	1015.27
614.348	975.94
614.548	961.02
614.747	911.42
614.947	924.4
615.146	896.5
615.346	991.44
615.545	960.63
615.745	975.16
615.944	1031.93
616.144	977.87
616.343	1002.09
616.542	943.19
616.742	938.93
616.941	936.41
617.14	882.94
617.34	949.78
617.539	944.55
617.738	923.24
617.938	1007.91
618.137	930.6
618.336	902.89
618.535	948.23
618.734	924.98
618.934	960.05
619.133	978.65
619.332	951.52
619.531	890.49
619.73	945.91
619.929	985.04
620.128	912.39
620.328	1020.31
620.527	917.23
620.726	940.09
620.925	962.76
621.124	906.77
621.323	936.99
621.522	892.82
621.721	888.36
621.92	875.58
622.119	943
622.318	907.35
622.517	898.44
622.715	896.31
622.914	835.28
623.113	920.72
623.312	864.92
623.511	896.69
623.71	886.23
623.909	880.03
624.107	943.58
624.306	839.73
624.505	859.11
624.704	876.35
624.902	866.28
625.101	915.29
625.3	909.09
625.499	850.39
625.697	855.81
625.896	852.91
626.095	888.94
626.293	826.95
626.492	848.26
626.69	894.95
626.889	839.15
627.088	893.59
627.286	844.96
627.485	844.77
627.683	828.69
627.882	862.98
628.08	777.54
628.279	795.75
628.477	891.46
628.676	800.79
628.874	834.89
629.073	802.53
629.271	804.47
629.469	836.83
629.668	810.67
629.866	842.25
630.065	816.48
630.263	869.38
630.461	809.12
630.66	800.21
630.858	847.29
631.056	845.55
631.254	874.61
631.453	828.69
631.651	862.4
631.849	848.65
632.047	828.88
632.245	807.96
632.444	813
632.642	846.51
632.84	847.48
633.038	805.83
633.236	777.15
633.434	814.93
633.632	786.26
633.83	793.04
634.028	842.25
634.227	826.56
634.425	849.81
634.623	811.06
634.821	803.31
635.019	826.36
635.216	801.95
635.414	837.21
635.612	816.29
635.81	800.4
636.008	861.04
636.206	826.75
636.404	864.92
636.602	770.37
636.8	794.2
636.997	864.14
637.195	832.56
637.393	828.11
637.591	910.84
637.789	806.99
637.986	818.42
638.184	814.74
638.382	838.57
638.58	839.15
638.777	915.29
638.975	821.91
639.173	848.84
639.37	858.33
639.568	857.17
639.765	847.48
639.963	782.58
640.161	857.75
640.358	853.3
640.556	788.39
640.753	802.53
640.951	786.06
641.148	810.09
641.346	804.28
641.543	801.37
641.741	833.15
641.938	773.08
642.136	813.58
642.333	779.86
642.531	820.94
642.728	842.06
642.925	796.33
643.123	808.73
643.32	799.24
643.517	806.21
643.715	803.89
643.912	796.53
644.109	778.12
644.306	768.05
644.504	775.8
644.701	779.48
644.898	807.38
645.095	798.66
645.293	792.85
645.49	784.9
645.687	786.65
645.884	807.96
646.081	721.16
646.278	750.22
646.475	732.01
646.672	720.38
646.87	761.46
647.067	779.28
647.264	747.9
647.461	712.63
647.658	679.7
647.855	733.17
648.052	728.52
648.249	636.49
648.446	709.15
648.642	682.02
648.839	680.86
649.036	690.16
649.233	633.97
649.43	649.67
649.627	658.39
649.824	670.98
650.021	646.57
650.217	671.37
650.414	663.04
650.611	723.68
650.808	727.17
651.004	720.19
651.201	713.99
651.398	740.34
651.595	705.85
651.791	663.23
651.988	721.35
652.185	647.34
652.381	690.74
652.578	618.47
652.775	695.39
652.971	677.57
653.168	658.39
653.364	718.64
653.561	609.75
653.757	677.76
653.954	698.1
654.15	659.16
654.347	738.79
654.543	682.8
654.74	635.91
654.936	657.42
655.133	670.2
655.329	665.36
655.525	662.45
655.722	703.53
655.918	621.38
656.115	669.43
656.311	602.78
656.507	561.71
656.704	526.83
656.9	577.01
657.096	552.02
657.292	557.83
657.489	641.53
657.685	634.17
657.881	609.75
658.077	620.99
658.273	625.64
658.47	701.01
658.666	657.22
658.862	650.25
659.058	608.2
659.254	700.82
659.45	645.21
659.646	664
659.842	645.02
660.038	680.67
660.234	630.1
660.43	650.44
660.626	713.99
660.822	706.24
661.018	691.52
661.214	649.09
661.41	634.17
661.606	655.48
661.802	670.4
661.998	636.1
662.194	620.99
662.39	655.09
662.586	660.52
662.781	657.22
662.977	639.4
663.173	672.34
663.369	640.95
663.564	673.89
663.76	667.49
663.956	626.8
664.152	650.05
664.347	579.34
664.543	640.56
664.739	640.37
664.934	558.22
665.13	568.87
665.326	662.84
665.521	626.61
665.717	594.26
665.912	602
666.108	540.01
666.304	616.34
666.499	591.16
666.695	535.55
666.89	620.22
667.086	633.2
667.281	639.79
667.477	682.41
667.672	594.26
667.867	627.58
668.063	613.44
668.258	601.04
668.454	591.74
668.649	685.12
668.844	608.4
669.04	651.22
669.235	597.55
669.43	575.27
669.626	534.58
669.821	583.21
670.016	540.59
670.211	595.81
670.407	565
670.602	596.58
670.797	581.08
670.992	637.85
671.187	557.83
671.382	625.84
671.578	582.24
671.773	604.14
671.968	549.11
672.163	607.24
672.358	613.24
672.553	548.72
672.748	570.81
672.943	667.1
673.138	583.79
673.333	637.07
673.528	541.56
673.723	614.6
673.918	564.42
674.113	505.52
674.308	642.11
674.503	588.06
674.698	600.45
674.892	605.69
675.087	624.09
675.282	572.94
675.477	582.24
675.672	615.37
675.867	573.91
676.061	527.02
676.256	524.12
676.451	561.9
676.646	595.22
676.84	549.31
677.035	516.37
677.23	536.52
677.424	594.45
677.619	624.09
677.814	612.85
678.008	606.46
678.203	493.7
678.397	529.93
678.592	578.76
678.787	646.95
678.981	559.38
679.176	562.09
679.37	575.27
679.565	557.83
679.759	547.95
679.954	605.3
680.148	618.09
680.342	587.47
680.537	565.39
680.731	564.42
680.926	590.38
681.12	625.25
681.314	537.1
681.509	540.97
681.703	587.47
681.897	596.19
682.092	579.92
682.286	531.09
682.48	630.49
682.674	571.78
682.869	560.74
683.063	593.67
683.257	636.88
683.451	521.79
683.645	563.64
683.839	559.38
684.034	582.05
684.228	616.15
684.422	522.37
684.616	536.13
684.81	583.41
685.004	543.3
685.198	561.12
685.392	598.32
685.586	527.02
685.78	567.71
685.974	602.59
686.168	579.72
686.362	603.36
686.556	518.89
686.75	514.24
686.944	525.28
687.138	532.06
687.331	408.26
687.525	447.39
687.719	385.59
687.913	449.14
688.107	487.69
688.301	448.36
688.494	489.83
688.688	444.88
688.882	458.05
689.076	419.69
689.269	484.21
689.463	542.14
689.657	456.89
689.85	443.91
690.044	478.39
690.238	480.33
690.431	468.32
690.625	502.03
690.818	509.78
691.012	517.14
691.205	537.87
691.399	480.72
691.593	546.01
691.786	636.1
691.98	581.08
692.173	624.29
692.366	591.16
692.56	615.18
692.753	659.35
692.947	541.36
693.14	660.9
693.333	642.69
693.527	553.76
693.72	627.19
693.914	584.96
694.107	607.43
694.3	611.89
694.493	606.46
694.687	652.77
694.88	605.88
695.073	704.3
695.266	691.52
695.46	659.94
695.653	719.03
695.846	690.55
696.039	621.19
696.232	659.35
696.425	723.29
696.618	711.67
696.812	719.42
697.005	781.61
697.198	842.45
697.391	791.1
697.584	797.3
697.777	841.09
697.97	817.45
698.163	854.65
698.356	805.25
698.549	895.14
698.742	854.07
698.935	805.83
699.127	830.43
699.32	840.9
699.513	812.8
699.706	837.41
699.899	847.68
700.092	827.72
700.285	901.15
700.477	829.08
700.67	883.91
700.863	909.09
701.056	979.81
701.248	943.58
701.441	961.79
701.634	924.01
701.826	1012.56
702.019	928.47
702.212	991.82
702.404	928.28
702.597	937.38
702.79	993.57
702.982	989.69
703.175	1024.57
703.367	1034.84
703.56	1026.31
703.752	1129.77
703.945	1097.22
704.137	1066.42
704.33	1116.02
704.522	1100.52
704.715	1129
704.907	1135.2
705.1	1165.23
705.292	1151.86
705.484	1144.5
705.677	1216.57
705.869	1195.65
706.061	1238.27
706.254	1296.39
706.446	1236.33
706.638	1215.21
706.831	1307.63
707.023	1233.81
707.215	1355.49
707.407	1302.98
707.599	1277.6
707.792	1368.28
707.984	1315.58
708.176	1387.46
708.368	1352
708.56	1393.46
708.752	1356.65
708.944	1374.48
709.136	1417.1
709.329	1395.21
709.521	1523.85
709.713	1471.15
709.905	1487.62
710.097	1496.34
710.289	1445.58
710.481	1505.25
710.672	1504.48
710.864	1540.32
711.056	1564.15
711.248	1558.15
711.44	1557.95
711.632	1572.68
711.824	1629.25
712.016	1635.84
712.207	1634.1
712.399	1637.58
712.591	1717.99
712.783	1670.71
712.975	1686.41
713.166	1661.41
713.358	1668.78
713.55	1708.11
713.741	1767.01
713.933	1713.15
714.125	1714.31
714.316	1718.76
714.508	1785.8
714.7	1754.99
714.891	1724.58
715.083	1809.24
715.274	1760.23
715.466	1809.24
715.657	1851.09
715.849	1731.16
716.04	1803.43
716.232	1746.66
716.423	1821.64
716.615	1689.51
716.806	1677.3
716.998	1680.21
717.189	1587.02
717.381	1507.19
717.572	1500.99
717.763	1542.07
717.955	1528.31
718.146	1505.06
718.337	1441.71
718.528	1440.74
718.72	1361.69
718.911	1449.07
719.102	1387.84
719.293	1483.75
719.485	1411.29
719.676	1404.31
719.867	1376.61
720.058	1366.14
720.249	1394.43
720.44	1424.07
720.632	1432.99
720.823	1477.35
721.014	1582.75
721.205	1648.63
721.396	1691.06
721.587	1757.51
721.778	1767.78
721.969	1781.54
722.16	1834.04
722.351	1822.03
722.542	1934.6
722.733	2022.17
722.924	1864.46
723.115	1934.6
723.305	1854.19
723.496	1900.5
723.687	1827.84
723.878	1825.52
724.069	1809.24
724.26	1819.71
724.45	1745.31
724.641	1772.04
724.832	1776.31
725.023	1764.88
725.213	1789.87
725.404	1782.89
725.595	1765.07
725.785	1737.75
725.976	1798.01
726.167	1822.42
726.357	1799.94
726.548	1898.17
726.739	1780.38
726.929	1891.78
727.12	1878.99
727.31	1917.55
727.501	1891.78
727.691	1860.97
727.882	1888.68
728.072	1902.05
728.263	1887.52
728.453	1973.74
728.644	1962.5
728.834	1967.15
729.024	1920.26
729.215	1921.62
729.405	1953.2
729.596	2052.78
729.786	2032.83
729.976	1997.57
730.167	2045.81
730.357	1993.89
730.547	2008.03
730.737	2046.39
730.928	2090.95
731.118	2082.62
731.308	2097.15
731.498	2096.57
731.688	2148.5
731.879	2144.43
732.069	2219.99
732.259	2201.39
732.449	2250.21
732.639	2321.9
732.829	2294.58
733.019	2345.15
733.209	2409.67
733.399	2402.11
733.589	2457.72
733.779	2466.24
733.969	2449.97
734.159	2527.66
734.349	2579
734.539	2601.67
734.729	2603.8
734.919	2595.08
735.109	2631.89
735.299	2578.42
735.488	2620.85
735.678	2638.48
735.868	2605.74
736.058	2599.15
736.248	2592.76
736.437	2572.22
736.627	2557.3
736.817	2691.76
737.007	2663.67
737.196	2679.36
737.386	2675.29
737.576	2626.08
737.765	2677.23
737.955	2645.26
738.144	2800.07
738.334	2757.06
738.524	2678.2
738.713	2698.93
738.903	2688.86
739.092	2741.17
739.282	2766.16
739.471	2761.32
739.661	2729.54
739.85	2785.92
740.04	2751.24
740.229	2790.96
740.419	2819.64
740.608	2835.72
740.797	2792.9
740.987	2863.23
741.176	2842.5
741.365	2783.99
741.555	2801.23
741.744	2862.26
741.933	2793.48
742.123	2843.47
742.312	2866.91
742.501	2860.71
742.69	2892.1
742.88	2832.81
743.069	3004.08
743.258	2898.49
743.447	2944.6
743.636	2957.58
743.825	2887.06
744.014	2921.93
744.204	2904.11
744.393	2861.68
744.582	2961.46
744.771	2954.48
744.96	2914.18
745.149	2972.89
745.338	2939.18
745.527	2936.66
745.716	2932.01
745.905	2928.13
746.094	2981.03
746.283	2976.18
746.471	2945.96
746.66	3011.64
746.849	2985.68
747.038	3019.2
747.227	2969.98
747.416	2979.09
747.604	2912.44
747.793	2956.42
747.982	3006.99
748.171	2986.06
748.359	2970.37
748.548	2960.1
748.737	2950.22
748.926	2949.06
749.114	2903.92
749.303	2951.19
749.491	2978.7
749.68	2920
749.869	2936.47
750.057	2933.75
750.246	2905.85
750.434	2885.12
750.623	2913.41
750.811	2905.66
751	2908.18
751.188	2954.87
751.377	2955.45
751.565	2935.11
751.754	2878.34
751.942	2892.48
752.131	2935.5
752.319	2869.62
752.507	2821.57
752.696	2890.93
752.884	2949.25
753.072	2894.03
753.261	2888.22
753.449	2889.58
753.637	2828.35
753.825	2902.75
754.014	2844.44
754.202	2810.72
754.39	2957
754.578	2946.93
754.766	2869.04
754.955	2821.38
755.143	2936.85
755.331	2854.9
755.519	2882.99
755.707	2870.2
755.895	2820.99
756.083	2871.37
756.271	2819.64
756.459	2856.64
756.647	2887.83
756.835	2776.24
757.023	2794.64
757.211	2780.89
757.399	2814.6
757.587	2773.14
757.775	2792.32
757.963	2779.53
758.151	2789.6
758.339	2750.86
758.526	2751.05
758.714	2819.44
758.902	2672.58
759.09	2631.31
759.278	2438.73
759.465	2252.93
759.653	1946.22
759.841	1801.69
760.028	1512.42
760.216	1360.33
760.404	1248.15
760.591	1048.01
760.779	877.71
760.967	767.08
761.154	622.93
761.342	674.47
761.529	669.43
761.717	742.86
761.905	713.41
762.092	783.55
762.28	730.46
762.467	725.23
762.655	663.04
762.842	697.33
763.029	704.69
763.217	723.29
763.404	706.43
763.592	710.89
763.779	689.19
763.966	753.13
764.154	756.62
764.341	813.96
764.528	820.36
764.716	877.32
764.903	948.62
765.09	964.12
765.277	979.42
765.465	1155.15
765.652	1177.82
765.839	1262.49
766.026	1389.97
766.213	1431.44
766.4	1504.48
766.588	1667.42
766.775	1659.09
766.962	1754.61
767.149	1766.04
767.336	1921.62
767.523	1858.07
767.71	1990.01
767.897	2083.78
768.084	2166.51
768.271	2148.11
768.458	2227.16
768.645	2273.46
768.832	2230.06
769.019	2277.72
769.206	2311.63
769.392	2397.85
769.579	2443.77
769.766	2432.33
769.953	2409.09
770.14	2473.99
770.327	2432.33
770.513	2486.2
770.7	2563.11
770.887	2452.87
771.073	2537.73
771.26	2493.56
771.447	2504.02
771.634	2456.55
771.82	2594.11
772.007	2444.35
772.193	2501.12
772.38	2513.13
772.567	2472.05
772.753	2493.75
772.94	2581.13
773.126	2498.6
773.313	2547.03
773.499	2532.89
773.686	2531.92
773.872	2493.95
774.059	2517.78
774.245	2495.69
774.432	2475.93
774.618	2418.58
774.804	2475.54
774.991	2425.55
775.177	2510.42
775.363	2492.01
775.55	2481.35
775.736	2395.91
775.922	2430.01
776.109	2471.28
776.295	2476.7
776.481	2480.97
776.667	2485.81
776.853	2434.85
777.04	2458.3
777.226	2424.59
777.412	2507.12
777.598	2460.23
777.784	2490.27
777.97	2446.87
778.156	2443.38
778.342	2423.04
778.528	2390.87
778.715	2377.12
778.901	2367.04
779.087	2366.65
779.272	2348.83
779.458	2364.52
779.644	2410.05
779.83	2361.81
780.016	2465.47
780.202	2406.18
780.388	2362.97
780.574	2269.97
780.76	2316.47
780.946	2404.24
781.131	2350.96
781.317	2367.82
781.503	2281.21
781.689	2338.37
781.874	2442.41
782.06	2316.47
782.246	2290.51
782.432	2309.89
782.617	2324.61
782.803	2379.05
782.989	2244.79
783.174	2320.35
783.36	2257.38
783.545	2306.01
783.731	2298.07
783.916	2229.29
784.102	2301.36
784.288	2221.34
784.473	2240.33
784.659	2237.81
784.844	2250.21
785.029	2244.79
785.215	2213.21
785.4	2145.59
785.586	2237.81
785.771	2129.7
785.956	2197.9
786.142	2184.92
786.327	2165.35
786.512	2201.58
786.698	2194.22
786.883	2147.91
787.068	2160.9
787.254	2141.91
787.439	2170.58
787.624	2144.62
787.809	2113.81
787.994	2151.79
788.18	2194.22
788.365	2095.41
788.55	2134.35
788.735	2151.98
788.92	2068.09
789.105	2085.14
789.29	2090.56
789.475	2014.81
789.66	2044.26
789.845	2042.13
790.03	2022.17
790.215	2079.72
790.4	2107.81
790.585	2082.43
790.77	2022.95
790.955	1970.64
791.14	2043.87
791.325	2114.01
791.51	1956.88
791.695	2039.61
791.879	2014.23
792.064	1961.53
792.249	2050.07
792.434	2048.33
792.618	2027.6
792.803	2052.4
792.988	2010.74
793.173	2011.32
793.357	2084.75
793.542	1982.45
793.727	2002.99
793.911	1996.6
794.096	2014.03
794.281	2054.92
794.465	2110.33
794.65	2057.24
794.834	2059.57
795.019	2130.67
795.203	2054.14
795.388	2074.1
795.572	2107.23
795.757	2042.71
795.941	2060.73
796.126	2053.95
796.31	2013.65
796.494	2048.13
796.679	2021.98
796.863	1999.31
797.048	2106.26
797.232	2037.28
797.416	2080.49
797.601	2021.4
797.785	2080.49
797.969	2098.7
798.153	2009.97
798.338	2078.36
798.522	2097.93
798.706	2132.03
798.89	2138.42
799.074	2205.65
799.258	2143.07
799.443	2132.03
799.627	2082.43
799.811	2165.35
799.995	2073.52
800.179	2068.48
800.363	2090.37
800.547	2082.43
800.731	2142.1
800.915	2058.98
801.099	2093.47
801.283	2046
801.467	2090.18
801.651	2056.27
801.835	2127.76
802.019	2091.15
802.202	2090.18
802.386	2011.9
802.57	2027.6
802.754	2009.77
802.938	2005.51
803.121	1998.92
803.305	2079.72
803.489	2083.59
803.673	2063.25
803.856	2090.95
804.04	2039.61
804.224	2079.52
804.407	2029.34
804.591	2009.38
804.775	2021.78
804.958	2024.11
805.142	2166.51
805.326	2051.62
805.509	2043.29
805.693	2106.26
805.876	2077.58
806.06	2117.69
806.243	2106.84
806.427	2143.07
806.61	2127.96
806.794	2052.2
806.977	2134.35
807.16	2071
807.344	2116.53
807.527	2070.8
807.71	2072.93
807.894	2072.93
808.077	2073.9
808.26	2031.86
808.444	2027.6
808.627	2045.42
808.81	2024.88
808.993	1960.75
809.177	1985.94
809.36	2000.86
809.543	2052.59
809.726	1975.48
809.909	1962.11
810.092	1943.51
810.276	1910.38
810.459	1917.16
810.642	1882.09
810.825	1892.36
811.008	1919.29
811.191	1807.5
811.374	1825.71
811.557	1836.56
811.74	1928.01
811.923	1830.94
812.106	1800.14
812.289	1733.49
812.472	1788.13
812.654	1751.51
812.837	1754.8
813.02	1691.06
813.203	1737.56
813.386	1590.12
813.569	1621.12
813.751	1548.65
813.934	1611.43
814.117	1567.06
814.3	1554.85
814.482	1503.7
814.665	1472.9
814.848	1493.05
815.03	1407.02
815.213	1375.64
815.396	1357.62
815.578	1365.56
815.761	1345.22
815.943	1419.04
816.126	1322.74
816.309	1306.47
816.491	1269.08
816.674	1184.6
816.856	1284.38
817.039	1270.24
817.221	1333.59
817.403	1320.81
817.586	1268.3
817.768	1307.44
817.951	1242.15
818.133	1229.94
818.315	1247.57
818.498	1302.21
818.68	1339.79
818.862	1309.76
819.045	1326.04
819.227	1317.32
819.409	1298.91
819.591	1300.66
819.774	1304.73
819.956	1259.39
820.138	1328.75
820.32	1336.69
820.502	1368.08
820.684	1414.77
820.866	1413.42
821.048	1490.92
821.231	1502.35
821.413	1478.52
821.595	1445.58
821.777	1479.87
821.959	1446.74
822.141	1519.59
822.323	1387.65
822.505	1345.61
822.686	1294.26
822.868	1270.24
823.05	1176.47
823.232	1157.67
823.414	1119.31
823.596	1185.38
823.778	1181.89
823.96	1199.52
824.141	1178.79
824.323	1172.2
824.505	1237.3
824.687	1275.86
824.868	1282.83
825.05	1423.11
825.232	1436.67
825.413	1500.99
825.595	1445.58
825.777	1338.63
825.958	1415.74
826.14	1379.32
826.321	1418.84
826.503	1423.88
826.685	1446.55
826.866	1436.67
827.048	1430.27
827.229	1375.64
827.411	1376.41
827.592	1335.14
827.773	1326.81
827.955	1299.49
828.136	1299.11
828.318	1240.98
828.499	1318.29
828.68	1203.98
828.862	1277.99
829.043	1300.85
829.224	1245.63
829.406	1247.57
829.587	1265.4
829.768	1263.07
829.949	1298.72
830.131	1274.31
830.312	1346.38
830.493	1265.78
830.674	1290
830.855	1269.27
831.036	1279.54
831.218	1317.71
831.399	1337.28
831.58	1313.25
831.761	1319.64
831.942	1335.34
832.123	1289.03
832.304	1242.34
832.485	1286.13
832.666	1270.63
832.847	1278.38
833.028	1281.28
833.209	1293.88
833.389	1270.63
833.57	1166.39
833.751	1247.57
833.932	1328.17
834.113	1305.31
834.294	1275.86
834.475	1292.91
834.655	1351.61
834.836	1330.11
835.017	1296.98
835.198	1287.29
835.378	1298.91
835.559	1355.29
835.74	1269.27
835.92	1270.05
836.101	1299.3
836.281	1339.6
836.462	1311.89
836.643	1335.34
836.823	1385.13
837.004	1337.28
837.184	1408.77
837.365	1363.82
837.545	1355.1
837.726	1324.88
837.906	1365.18
838.087	1331.85
838.267	1338.24
838.448	1302.21
838.628	1336.89
838.808	1329.72
838.989	1381.45
839.169	1291.75
839.349	1354.33
839.53	1361.69
839.71	1358.98
839.89	1303.95
840.07	1373.7
840.251	1284.96
840.431	1375.06
840.611	1330.49
840.791	1288.45
840.971	1329.14
841.151	1325.65
841.332	1308.41
841.512	1347.93
841.692	1244.66
841.872	1325.65
842.052	1314.61
842.232	1333.4
842.412	1244.66
842.592	1311.89
842.772	1357.62
842.952	1314.03
843.132	1312.09
843.312	1281.09
843.492	1249.12
843.672	1310.15
843.851	1254.93
844.031	1296.39
844.211	1310.73
844.391	1253.96
844.571	1279.93
844.751	1332.82
844.93	1307.44
845.11	1272.95
845.29	1283.8
845.47	1339.6
845.649	1308.79
845.829	1323.33
846.009	1262.3
846.188	1324.29
846.368	1266.56
846.547	1274.31
846.727	1338.44
846.907	1247.57
847.086	1282.64
847.266	1346.96
847.445	1285.74
847.625	1254.55
847.804	1249.7
847.984	1221.61
848.163	1230.33
848.343	1242.34
848.522	1231.88
848.701	1262.3
848.881	1243.31
849.06	1242.92
849.239	1273.73
849.419	1269.27
849.598	1194.29
849.777	1202.23
849.957	1186.15
850.136	1146.43
850.315	1126.48
850.494	1133.65
850.674	1122.99
850.853	1226.65
851.032	1129.19
851.211	1243.31
851.39	1193.9
851.569	1159.42
851.748	1134.81
851.927	1214.83
852.107	1183.05
852.286	1116.21
852.465	1130.35
852.644	1152.83
852.823	1191.58
853.002	1180.73
853.181	1177.63
853.359	1153.8
853.538	1119.89
853.717	1193.9
853.896	1084.24
854.075	1054.4
854.254	1029.99
854.433	993.96
854.611	1048.59
854.79	944.74
854.969	1035.42
855.148	1057.12
855.327	1024.18
855.505	1060.02
855.684	1043.36
855.863	1079.79
856.041	1015.46
856.22	1053.05
856.399	998.02
856.577	1117.76
856.756	1121.05
856.934	1215.41
857.113	1248.73
857.291	1113.3
857.47	1089.86
857.648	1096.45
857.827	1145.08
858.005	1147.21
858.184	1085.99
858.362	1173.56
858.541	1134.81
858.719	1094.12
858.898	1091.8
859.076	1110.01
859.254	1154.18
859.433	1092.38
859.611	1111.37
859.789	1060.22
859.967	1147.6
860.146	1161.55
860.324	1069.71
860.502	1065.84
860.68	1038.52
860.859	1051.5
861.037	1077.46
861.215	1089.47
861.393	1091.41
861.571	1047.24
861.749	1086.37
861.927	1083.66
862.105	1084.05
862.283	1081.14
862.461	1058.09
862.639	1018.56
862.817	1036.77
862.995	1042.59
863.173	1027.09
863.351	1048.2
863.529	1057.89
863.707	1095.87
863.885	1048.59
864.063	959.08
864.241	1000.93
864.418	1071.65
864.596	995.89
864.774	1004.61
864.952	1017.79
865.129	1035.42
865.307	999.57
865.485	973.61
865.663	1039.1
865.84	938.35
866.018	1003.45
866.196	864.53
866.373	916.26
866.551	866.66
866.728	837.8
866.906	878.68
867.084	910.06
867.261	927.69
867.439	947.46
867.616	949.01
867.794	937.58
867.971	914.33
868.149	945.71
868.326	951.33
868.503	978.26
868.681	934.28
868.858	938.74
869.035	930.21
869.213	971.29
869.39	921.3
869.567	1023.79
869.745	927.5
869.922	973.61
870.099	983.88
870.276	989.89
870.454	977.49
870.631	993.37
870.808	932.15
870.985	1003.45
871.162	992.99
871.339	971.09
871.517	919.56
871.694	864.14
871.871	932.73
872.048	925.37
872.225	922.66
872.402	925.56
872.579	890.11
872.756	951.33
872.933	891.85
873.11	895.14
873.287	925.56
873.463	890.49
873.64	886.81
873.817	943.39
873.994	889.14
874.171	882.16
874.348	918.98
874.524	839.35
874.701	883.33
874.878	799.63
875.055	912.39
875.231	868.02
875.408	916.07
875.585	873.06
875.762	868.6
875.938	871.7
876.115	866.66
876.291	833.92
876.468	866.28
876.645	825.59
876.821	875.58
876.998	862.79
877.174	881.58
877.351	875.38
877.527	810.67
877.704	849.61
877.88	866.08
878.057	853.1
878.233	856.2
878.409	832.76
878.586	862.79
878.762	869.38
878.938	883.91
879.115	745.57
879.291	829.27
879.467	780.45
879.644	817.65
879.82	821.91
879.996	807.96
880.172	781.61
880.349	786.06
880.525	835.28
880.701	780.83
880.877	788.78
881.053	843.22
881.229	830.43
881.405	853.68
881.581	766.11
881.757	780.25
881.933	808.35
882.109	818.61
882.285	816.68
882.461	770.57
882.637	791.88
882.813	787.61
882.989	818.42
883.165	847.87
883.341	745.77
883.517	816.29
883.693	801.56
883.869	814.35
884.044	778.7
884.22	797.11
884.396	840.9
884.572	840.7
884.747	821.33
884.923	844.38
885.099	813.96
885.275	845.93
885.45	794.98
885.626	795.56
885.801	786.84
885.977	773.86
886.153	727.17
886.328	809.51
886.504	767.85
886.679	809.31
886.855	757.2
887.03	815.71
887.206	830.24
887.381	820.36
887.557	826.56
887.732	826.75
887.908	844.19
888.083	828.11
888.258	809.51
888.434	756.62
888.609	785.1
888.784	812.8
888.96	771.73
889.135	768.05
889.31	764.56
889.485	816.87
889.661	770.37
889.836	846.32
890.011	803.7
890.186	773.47
890.361	723.87
890.537	775.6
890.712	794.98
890.887	771.53
891.062	787.61
891.237	844.96
891.412	773.28
891.587	802.73
891.762	849.42
891.937	832.18
892.112	749.83
892.287	793.04
892.462	745.77
892.637	706.05
892.812	732.2
892.987	717.87
893.161	711.86
893.336	699.85
893.511	702.75
893.686	726.78
893.861	699.27
894.035	718.25
894.21	727.94
894.385	666.91
894.56	704.5
894.734	655.87
894.909	647.34
895.084	636.1
895.258	635.91
895.433	648.89
895.608	626.61
895.782	611.3
895.957	623.12
896.131	625.06
896.306	537.29
896.48	554.34
896.655	555.51
896.829	521.41
897.004	519.08
897.178	528.96
897.353	506.68
897.527	568.49
897.701	538.26
897.876	478.01
898.05	570.23
898.224	546.01
898.399	576.24
898.573	524.12
898.747	456.89
898.921	488.66
899.096	435.19
899.27	423.37
899.444	434.41
899.618	447.59
899.792	487.89
899.967	476.07
900.141	535.74
900.315	466.19
900.489	465.8
900.663	465.22
900.837	475.68
901.011	398.38
901.185	515.98
901.359	463.48
901.533	461.73
901.707	474.13
901.881	448.36
902.055	404.77
902.229	455.34
902.403	530.71
902.576	475.68
902.75	497.77
902.924	569.65
903.098	521.21
903.272	548.92
903.446	585.34
903.619	554.15
903.793	566.16
903.967	558.02
904.14	595.42
904.314	591.74
904.488	567.91
904.661	601.81
904.835	563.64
905.009	616.73
905.182	662.65
905.356	612.66
905.529	585.34
905.703	545.04
905.876	550.86
906.05	520.05
906.223	541.75
906.397	493.89
906.57	462.7
906.744	460.76
906.917	450.69
907.09	474.91
907.264	463.09
907.437	433.06
907.61	415.43
907.784	442.16
907.957	447.2
908.13	403.61
908.304	463.48
908.477	404.19
908.65	450.69
908.823	356.33
908.996	471.03
909.17	387.91
909.343	415.23
909.516	407.29
909.689	403.03
909.862	390.24
910.035	404.96
910.208	354.01
910.381	404.77
910.554	488.08
910.727	428.6
910.9	378.23
911.073	385.01
911.246	472.78
911.419	461.93
911.592	447.01
911.765	404.58
911.938	373.58
912.11	418.33
912.283	396.63
912.456	451.08
912.629	447.98
912.802	374.74
912.974	363.7
913.147	336.96
913.32	310.8
913.493	340.83
913.665	344.9
913.838	368.35
914.01	348
914.183	361.18
914.356	356.14
914.528	387.14
914.701	419.69
914.873	381.91
915.046	371.83
915.218	331.92
915.391	244.35
915.563	293.95
915.736	335.41
915.908	353.62
916.081	354.59
916.253	343.16
916.425	353.43
916.598	379
916.77	349.55
916.942	325.53
917.115	288.13
917.287	344.71
917.459	338.7
917.632	311.97
917.804	253.84
917.976	307.51
918.148	330.57
918.32	331.92
918.493	389.66
918.665	384.04
918.837	344.13
919.009	426.28
919.181	408.65
919.353	357.5
919.525	386.56
919.697	371.83
919.869	357.69
920.041	418.72
920.213	458.83
920.385	393.15
920.557	377.84
920.729	390.82
920.901	380.55
921.073	391.4
921.244	358.66
921.416	403.8
921.588	349.94
921.76	352.65
921.932	427.63
922.103	372.03
922.275	375.71
922.447	391.98
922.619	275.54
922.79	349.16
922.962	335.6
923.134	389.46
923.305	327.85
923.477	292.78
923.648	320.1
923.82	327.27
923.991	300.34
924.163	280.97
924.335	332.5
924.506	310.03
924.677	390.24
924.849	278.06
925.02	321.46
925.192	335.41
925.363	319.91
925.535	318.94
925.706	309.64
925.877	358.27
926.049	282.52
926.22	310.61
926.391	321.85
926.562	335.21
926.734	269.73
926.905	342
927.076	280.77
927.247	320.88
927.419	260.23
927.59	248.8
927.761	270.89
927.932	291.23
928.103	258.88
928.274	226.52
928.445	226.52
928.616	231.37
928.787	218.58
928.958	281.35
929.129	240.09
929.3	215.09
929.471	198.43
929.642	157.16
929.813	97.1
929.984	193
930.155	142.82
930.326	186.61
930.496	152.32
930.667	92.06
930.838	156.97
931.009	104.85
931.18	140.89
931.35	111.24
931.521	139.72
931.692	100.2
931.863	81.6
932.033	115.89
932.204	114.15
932.374	109.11
932.545	73.66
932.716	101.56
932.886	98.84
933.057	58.35
933.227	64.94
933.398	133.14
933.568	34.52
933.739	24.64
933.909	33.16
934.08	81.21
934.25	14.95
934.421	8.36
934.591	52.73
934.761	44.21
934.932	4.1
935.102	40.91
935.272	11.08
935.443	45.95
935.613	-5.01
935.783	29.09
935.953	15.73
936.123	157.16
936.294	20.76
936.464	17.47
936.634	43.43
936.804	4.29
936.974	-11.59
937.144	47.69
937.314	29.09
937.484	19.6
937.655	-13.34
937.825	91.09
937.995	33.16
938.165	66.1
938.334	28.32
938.504	61.64
938.674	26.96
938.844	4.68
939.014	103.11
939.184	75.79
939.354	106.59
939.524	111.24
939.694	57.96
939.863	79.47
940.033	112.41
940.203	117.06
940.373	77.53
940.542	94.19
940.712	64.94
940.882	113.37
941.051	98.26
941.221	110.86
941.391	131.01
941.56	66.1
941.73	41.3
941.899	177.7
942.069	61.84
942.238	119.77
942.408	44.4
942.577	105.24
942.747	87.8
942.916	26.19
943.086	47.11
943.255	136.24
943.425	73.07
943.594	51.76
943.763	-10.62
943.933	25.22
944.102	-5.59
944.271	36.65
944.441	74.43
944.61	58.16
944.779	52.73
944.948	143.02
945.117	19.79
945.287	45.95
945.456	-6.56
945.625	23.28
945.794	75.4
945.963	42.66
946.132	62.61
946.301	51.76
946.47	85.67
946.639	-9.07
946.808	33.94
946.977	75.4
947.146	69.59
947.315	7.2
947.484	89.35
947.653	31.03
947.822	26.19
947.991	45.56
948.16	126.55
948.329	78.31
948.498	44.21
948.666	64.55
948.835	99.81
949.004	18.24
949.173	35.1
949.341	75.79
949.51	82.76
949.679	99.04
949.847	83.73
950.016	129.65
950.185	118.8
950.353	34.33
950.522	66.49
950.69	88.38
950.859	35.1
951.028	114.15
951.196	61.45
951.365	57.77
951.533	53.7
951.701	87.8
951.87	70.94
952.038	25.22
952.207	50.02
952.375	101.36
952.543	52.34
952.712	62.23
952.88	26.58
953.048	111.82
953.217	82.18
953.385	58.35
953.553	113.96
953.721	27.35
953.89	34.71
954.058	12.04
954.226	40.14
954.394	39.56
954.562	24.64
954.73	73.85
954.898	25.61
955.067	79.86
955.235	37.81
955.403	80.05
955.571	126.94
955.739	78.31
955.907	27.54
956.075	20.18
956.243	16.11
956.41	70.94
956.578	-19.54
956.746	27.16
956.914	44.98
957.082	62.23
957.25	73.27
957.418	48.47
957.585	41.69
957.753	106.79
957.921	41.69
958.089	64.74
958.256	81.02
958.424	49.44
958.592	50.99
958.759	41.11
958.927	78.11
959.095	38.78
959.262	55.06
959.43	65.52
959.597	24.44
959.765	25.99
959.932	19.02
960.1	95.55
960.267	62.03
960.435	53.51
960.602	104.85
960.77	50.99
960.937	21.15
961.104	65.71
961.272	1.39
961.439	62.81
961.606	66.29
961.774	90.32
961.941	28.71
962.108	63
962.275	58.93
962.443	92.84
962.61	53.31
962.777	114.34
962.944	106.01
963.111	83.73
963.278	93.61
963.446	51.38
963.613	55.64
963.78	77.92
963.947	76.56
964.114	73.46
964.281	156.77
964.448	105.04
964.615	59.71
964.782	72.69
964.949	79.27
965.116	67.46
965.282	110.08
965.449	75.21
965.616	45.95
965.783	89.93
965.95	101.36
966.117	30.26
966.283	65.71
966.45	81.21
966.617	90.9
966.784	111.24
966.95	108.53
967.117	99.04
967.284	68.23
967.45	71.33
967.617	86.64
967.784	100.97
967.95	146.12
968.117	50.02
968.283	108.14
968.45	172.66
968.616	93.03
968.783	115.7
968.949	112.41
969.116	110.47
969.282	86.06
969.449	107.56
969.615	84.89
969.781	14.76
969.948	56.61
970.114	31.61
970.28	146.89
970.447	63.58
970.613	119.38
970.779	64.94
970.945	95.55
971.112	116.09
971.278	76.95
971.444	83.34
971.61	120.35
971.776	84.89
971.942	95.36
972.108	77.92
972.275	60.29
972.441	106.98
972.607	156.58
972.773	46.73
972.939	97.29
973.105	74.82
973.271	23.86
973.437	64.94
973.602	66.68
973.768	77.92
973.934	88.57
974.1	88.57
974.266	1.97
974.432	108.92
974.598	70.94
974.763	95.74
974.929	52.54
975.095	151.16
975.261	35.1
975.426	58.93
975.592	79.66
975.758	138.37
975.923	-5.01
976.089	59.13
976.255	104.46
976.42	80.44
976.586	95.55
976.751	81.99
976.917	142.82
977.082	90.32
977.248	29.29
977.413	23.28
977.579	64.55
977.744	73.66
977.91	31.61
978.075	47.69
978.24	127.13
978.406	81.21
978.571	53.51
978.736	72.69
978.902	92.26
979.067	43.43
979.232	37.23
979.397	95.36
979.563	140.89
979.728	40.91
979.893	75.98
980.058	37.23
980.223	116.86
980.388	52.15
980.554	70.36
980.719	27.93
980.884	70.36
981.049	115.89
981.214	55.83
981.379	96.91
981.544	53.12
981.709	65.52
981.874	41.69
982.039	59.51
982.204	105.24
982.368	87.22
982.533	27.93
982.698	96.32
982.863	99.23
983.028	48.66
983.193	82.57
983.357	106.98
983.522	75.01
983.687	43.82
983.852	47.5
984.016	46.92
984.181	86.44
984.346	84.89
984.51	94.77
984.675	58.93
984.839	96.32
985.004	74.82
985.168	112.21
985.333	83.92
985.498	51.18
985.662	122.09
985.827	68.62
985.991	51.18
986.155	51.96
986.32	118.02
986.484	121.9
986.649	81.79
986.813	27.93
986.977	83.15
987.142	94.39
987.306	42.08
987.47	41.88
987.634	77.14
987.799	76.17
987.963	53.89
988.127	92.64
988.291	121.51
988.455	97.68
988.62	46.53
988.784	94.58
988.948	106.01
989.112	49.44
989.276	89.16
989.44	71.33
989.604	38.98
989.768	57.96
989.932	139.53
990.096	12.43
990.26	56.41
990.424	22.89
990.588	59.51
990.752	146.12
990.915	82.18
991.079	68.23
991.243	49.24
991.407	93.61
991.571	63.78
991.734	78.11
991.898	119.57
992.062	161.81
992.226	66.49
992.389	51.96
992.553	3.52
992.717	32.97
992.88	75.4
993.044	59.71
993.207	41.69
993.371	96.91
993.535	70.36
993.698	60.48
993.862	90.51
994.025	100.59
994.189	64.74
994.352	54.28
994.515	65.71
994.679	105.82
994.842	76.95
995.006	74.82
995.169	12.04
995.332	28.71
995.496	88.96
995.659	-1.71
995.822	69.2
995.985	61.64
996.149	105.43
996.312	60.87
996.475	121.32
996.638	57.19
996.801	104.66
996.964	108.53
997.128	33.36
997.291	72.49
997.454	78.31
997.617	19.99
997.78	83.54
997.943	24.83
998.106	61.45
998.269	36.26
998.432	53.89
998.595	38.01
998.758	7.59
998.92	50.41
999.083	3.91
999.246	47.31
999.409	-1.91
999.572	0.03
999.735	25.61
999.897	38.01
1000.06	32
1000.223	51.18
1000.386	83.15
1000.548	56.03
1000.711	65.91
1000.874	66.49
1001.036	19.6
1001.199	55.06
1001.361	23.28
1001.524	42.46
1001.687	78.5
1001.849	27.74
1002.012	59.9
1002.174	65.91
1002.337	76.95
1002.499	29.29
1002.661	89.74
1002.824	10.49
1002.986	43.24
1003.149	71.53
1003.311	28.9
1003.473	106.01
1003.636	-14.31
1003.798	65.33
1003.96	70.94
1004.123	74.62
1004.285	39.36
1004.447	61.45
1004.609	59.13
1004.771	97.49
1004.933	-8.88
1005.096	19.99
1005.258	9.33
1005.42	-8.49
1005.582	88.19
1005.744	40.33
1005.906	-5.59
1006.068	52.93
1006.23	-6.56
1006.392	-8.88
1006.554	11.08
1006.716	85.47
1006.878	60.87
1007.04	35.49
1007.202	24.06
1007.363	47.5
1007.525	48.47
1007.687	74.82
1007.849	71.91
1008.011	4.29
1008.172	-3.26
1008.334	0.61
1008.496	74.82
1008.658	-4.04
1008.819	10.88
1008.981	-26.51
1009.143	-3.65
1009.304	-9.85
1009.466	88.77
1009.627	70.36
1009.789	116.47
1009.95	58.54
1010.112	19.99
1010.273	22.89
1010.435	12.24
1010.596	1
1010.758	31.03
1010.919	24.83
1011.081	5.84
1011.242	24.25
1011.403	32.39
1011.565	11.08
1011.726	47.31
1011.887	5.65
1012.049	29.68
1012.21	22.7
1012.371	77.53
1012.532	-22.83
1012.693	13.01
1012.855	-9.27
1013.016	12.04
1013.177	66.88
1013.338	46.34
1013.499	86.64
1013.66	60.68
1013.821	41.88
1013.982	36.84
1014.143	63.39
1014.304	4.1
1014.465	38.01
1014.626	76.76
1014.787	14.37
1014.948	123.26
1015.109	-32.9
1015.27	60.48
1015.431	-4.81
1015.592	16.11
1015.752	70.94
1015.913	49.63
1016.074	21.34
1016.235	41.69
1016.395	11.46
1016.556	-0.16
1016.717	28.13
1016.877	99.62
1017.038	2.74
1017.199	18.83
1017.359	8.17
1017.52	24.44
1017.681	3.33
1017.841	32.58
1018.002	-0.55
1018.162	-3.46
1018.323	80.63
1018.483	10.69
1018.644	11.08
1018.804	-28.84
1018.964	-13.92
1019.125	8.94
1019.285	37.81
1019.446	-20.89
1019.606	3.52
1019.766	-23.22
1019.926	27.54
1020.087	3.52
1020.247	-21.09
1020.407	58.93
1020.567	67.07
1020.728	9.14
1020.888	-24.96
1021.048	-6.75
1021.208	-33.1
1021.368	-7.14
1021.528	60.09
1021.688	37.23
1021.848	22.7
1022.008	18.44
1022.168	16.69
1022.328	20.18
1022.488	29.87
1022.648	8.17
1022.808	11.85
1022.968	44.4
1023.128	3.33
1023.288	20.96
1023.448	10.3
1023.608	10.3
1023.767	47.31
1023.927	-10.24
1024.087	-14.89
1024.247	-11.4
1024.406	-11.59
1024.566	-14.31
1024.726	-2.87
1024.885	20.38
1025.045	29.87
1025.205	-4.62
1025.364	28.9
1025.524	13.59
1025.683	16.5
1025.843	20.18
1026.003	-0.36
1026.162	42.08
1026.321	45.37
1026.481	6.62
1026.64	-23.99
1026.8	5.46
1026.959	38.98
1027.119	26.19
1027.278	4.88
1027.437	-19.15
1027.597	0.61
1027.756	31.03
1027.915	37.23
1028.074	36.07
1028.234	-2.1
1028.393	20.96
1028.552	19.21
1028.711	-63.13
1028.87	81.99
1029.03	-17.21
1029.189	21.73
1029.348	-67.39
1029.507	-16.82
1029.666	-3.26
1029.825	-36.2
1029.984	2.16
1030.143	19.02
1030.302	11.46
1030.461	-25.15
1030.62	22.51
1030.779	32.19
1030.938	-1.71
1031.097	-51.7
1031.255	40.33
1031.414	82.57
1031.573	37.23
1031.732	-34.07
1031.891	6.81
1032.049	44.21
1032.208	35.29
1032.367	-25.93
1032.525	-18.37
1032.684	12.24
1032.843	-15.08
1033.001	-43.56
1033.16	160.84
1033.319	30.64
1033.477	19.6
1033.636	3.13
1033.794	-30.39
1033.953	34.91
1034.111	30.84
1034.27	-39.88
1034.428	14.76
1034.587	-27.87
1034.745	31.23
1034.903	8.17
1035.062	42.27
1035.22	-23.41
1035.378	48.47
1035.537	-22.64
1035.695	5.65
1035.853	-11.59
1036.011	34.52
1036.17	33.74
1036.328	-44.72
1036.486	19.99
1036.644	14.76
1036.802	-70.3
1036.96	-17.6
1037.119	18.05
1037.277	-18.18
1037.435	-33.68
1037.593	-27.09
1037.751	27.93
1037.909	55.25
1038.067	55.25
