Data from pine_FLMT105791__192__17-23-46-073.txt Node

Date: Mon Mar 20 17:23:46 GMT 2023
User: antho
Spectrometer: FLMT10579
Trigger mode: 0
Integration Time (sec): 1.000000E-1
Scans to average: 10
Electric dark correction enabled: true
Nonlinearity correction enabled: false
Boxcar width: 0
XAxis mode: Wavelengths
Number of Pixels in Spectrum: 3648
>>>>>Begin Spectral Data<<<<<
345.248	-145.84
345.464	-145.84
345.681	-145.84
345.898	-170.64
346.114	-158.44
346.331	-24.94
346.548	41.9
346.764	6.83
346.981	-2.08
347.197	-9.06
347.414	-0.73
347.631	-18.75
347.847	32.99
348.064	-4.02
348.28	33.57
348.497	-60.4
348.713	4.7
348.93	34.92
349.146	3.92
349.363	1.6
349.579	23.88
349.796	4.12
350.012	-6.54
350.229	30.08
350.445	9.54
350.661	-3.83
350.878	3.92
351.094	10.51
351.311	52.55
351.527	14.97
351.743	-7.31
351.96	35.89
352.176	16.52
352.392	24.07
352.609	23.88
352.825	-2.47
353.041	16.71
353.257	4.31
353.474	-9.83
353.69	23.1
353.906	15.55
354.122	-18.16
354.339	59.92
354.555	29.3
354.771	0.05
354.987	81.81
355.203	57.79
355.42	0.82
355.636	18.07
355.852	-30.37
356.068	11.87
356.284	-48.97
356.5	63.21
356.716	25.24
356.932	11.29
357.148	32.6
357.364	-5.38
357.58	28.72
357.796	55.85
358.012	51.78
358.228	11.29
358.444	-51.68
358.66	77.55
358.876	-0.53
359.092	-24.36
359.308	12.64
359.524	35.7
359.74	13.42
359.956	-15.26
360.172	26.79
360.388	59.14
360.604	20.78
360.819	85.88
361.035	23.3
361.251	44.42
361.467	-32.31
361.683	40.54
361.898	10.51
362.114	6.25
362.33	17.87
362.546	48.49
362.762	23.1
362.977	8.19
363.193	-27.66
363.409	43.64
363.624	-24.17
363.84	-7.12
364.056	-2.47
364.271	49.07
364.487	6.83
364.703	7.02
364.918	-20.1
365.134	18.26
365.35	-4.6
365.565	103.7
365.781	23.88
365.996	20.97
366.212	93.82
366.427	42.87
366.643	-14.48
366.858	14.19
367.074	-11
367.289	82.58
367.505	119.98
367.72	-20.88
367.936	-28.43
368.151	36.86
368.367	14.19
368.582	9.74
368.798	-12.35
369.013	46.16
369.228	16.71
369.444	-0.92
369.659	61.85
369.874	29.3
370.09	45
370.305	-54.39
370.52	18.84
370.736	47.32
370.951	3.73
371.166	54.69
371.381	77.35
371.597	40.93
371.812	-23.98
372.027	-21.85
372.242	15.16
372.458	82.78
372.673	6.05
372.888	13.8
373.103	18.45
373.318	106.8
373.533	42.29
373.749	42.09
373.964	-29.01
374.179	58.37
374.394	14.58
374.609	71.93
374.824	2.95
375.039	52.75
375.254	22.91
375.469	59.72
375.684	12.45
375.899	73.87
376.114	11.87
376.329	49.26
376.544	39.96
376.759	54.3
376.974	-9.45
377.189	28.53
377.404	-13.9
377.619	68.83
377.834	-30.56
378.049	-60.4
378.264	-4.8
378.478	-11.58
378.693	-5.18
378.908	59.53
379.123	-14.68
379.338	57.59
379.553	14.39
379.767	2.95
379.982	16.13
380.197	45.97
380.412	5.47
380.626	39.38
380.841	102.54
381.056	20.2
381.271	78.52
381.485	0.24
381.7	-21.07
381.915	23.1
382.129	14.77
382.344	62.05
382.559	-10.22
382.773	57.79
382.988	-16.23
383.202	22.14
383.417	3.34
383.632	109.32
383.846	5.09
384.061	9.74
384.275	14.97
384.49	52.55
384.704	57.01
384.919	23.49
385.133	18.45
385.348	30.27
385.562	-7.7
385.777	69.02
385.991	4.7
386.206	-14.29
386.42	-12.55
386.634	38.41
386.849	46.35
387.063	16.13
387.277	-35.21
387.492	-14.68
387.706	-37.54
387.92	16.52
388.135	44.03
388.349	12.84
388.563	28.34
388.778	23.88
388.992	31.24
389.206	59.92
389.42	114.75
389.635	5.86
389.849	43.84
390.063	34.92
390.277	30.08
390.491	77.74
390.706	59.34
390.92	31.82
391.134	33.95
391.348	43.84
391.562	-36.57
391.776	15.94
391.99	-24.36
392.205	41.7
392.419	-1.31
392.633	15.35
392.847	63.79
393.061	-2.66
393.275	71.93
393.489	0.82
393.703	34.73
393.917	77.35
394.131	8.38
394.345	65.34
394.559	54.88
394.773	16.71
394.986	18.07
395.2	2.95
395.414	63.21
395.628	5.28
395.842	22.91
396.056	3.15
396.27	-45.09
396.484	34.73
396.697	23.3
396.911	75.22
397.125	29.3
397.339	50.62
397.553	42.67
397.766	78.52
397.98	51.2
398.194	45.19
398.408	2.18
398.621	30.66
398.835	26.59
399.049	16.32
399.262	43.45
399.476	42.09
399.69	5.47
399.903	107
400.117	19.42
400.331	46.94
400.544	11.09
400.758	125.98
400.971	63.6
401.185	48.68
401.398	-2.28
401.612	83.17
401.826	27.17
402.039	26.59
402.253	18.65
402.466	32.6
402.68	26.59
402.893	26.98
403.106	36.09
403.32	19.81
403.533	44.61
403.747	10.32
403.96	26.79
404.174	60.5
404.387	-15.45
404.6	43.45
404.814	58.37
405.027	34.92
405.24	19.23
405.454	-0.34
405.667	57.79
405.88	-52.65
406.094	31.82
406.307	41.7
406.52	35.12
406.733	3.34
406.947	-48.19
407.16	72.9
407.373	59.72
407.586	13.03
407.799	-22.81
408.012	47.9
408.226	32.79
408.439	52.55
408.652	23.3
408.865	32.21
409.078	51.39
409.291	27.95
409.504	-29.59
409.717	56.62
409.93	16.13
410.143	11.87
410.357	-17.78
410.57	-12.55
410.783	20.59
410.996	40.54
411.209	7.6
411.421	66.12
411.634	25.62
411.847	-8.67
412.06	25.04
412.273	-0.34
412.486	-6.15
412.699	119.98
412.912	16.32
413.125	55.27
413.338	18.07
413.55	73.09
413.763	18.65
413.976	15.94
414.189	17.29
414.402	15.35
414.615	68.05
414.827	1.99
415.04	34.54
415.253	17.49
415.466	88.2
415.678	81.23
415.891	49.65
416.104	36.67
416.316	9.15
416.529	17.1
416.742	50.42
416.954	55.07
417.167	38.99
417.38	9.74
417.592	70.96
417.805	-1.7
418.017	11.67
418.23	44.03
418.442	6.83
418.655	8.77
418.868	54.69
419.08	45.97
419.293	80.45
419.505	42.48
419.718	24.27
419.93	49.45
420.142	15.35
420.355	47.13
420.567	68.25
420.78	45
420.992	39.19
421.205	74.06
421.417	-30.76
421.629	5.28
421.842	-13.32
422.054	-27.85
422.266	17.49
422.479	71.73
422.691	11.29
422.903	66.12
423.115	15.94
423.328	30.47
423.54	40.54
423.752	44.22
423.964	22.52
424.177	18.45
424.389	24.07
424.601	142.26
424.813	39.96
425.025	55.85
425.238	27.75
425.45	20.39
425.662	9.93
425.874	291.83
426.086	31.63
426.298	66.12
426.51	39.77
426.722	46.74
426.934	11.09
427.146	62.24
427.358	12.84
427.57	85.1
427.782	29.5
427.994	47.52
428.206	39.19
428.418	-15.45
428.63	19.62
428.842	48.1
429.054	27.17
429.266	62.82
429.478	-4.8
429.69	50.42
429.902	-7.9
430.114	59.92
430.325	53.33
430.537	19.23
430.749	42.29
430.961	-8.86
431.173	36.28
431.384	51.59
431.596	-19.71
431.808	31.05
432.02	47.52
432.231	33.37
432.443	71.54
432.655	32.02
432.867	-0.53
433.078	29.5
433.29	84.91
433.502	41.9
433.713	57.4
433.925	31.63
434.136	72.7
434.348	-15.84
434.56	-31.14
434.771	115.13
434.983	-22.23
435.194	14.77
435.406	37.05
435.617	38.6
435.829	84.13
436.04	71.73
436.252	88.01
436.463	85.88
436.675	35.89
436.886	41.12
437.098	41.32
437.309	87.23
437.521	38.22
437.732	39.77
437.943	28.14
438.155	36.28
438.366	-9.64
438.578	58.37
438.789	45.97
439	79.87
439.211	39.57
439.423	65.73
439.634	56.43
439.845	62.63
440.057	75.03
440.268	66.31
440.479	2.76
440.69	45.97
440.902	25.43
441.113	49.07
441.324	27.75
441.535	48.87
441.746	89.95
441.957	11.09
442.168	-7.51
442.38	34.15
442.591	63.4
442.802	34.15
443.013	21.94
443.224	26.01
443.435	31.05
443.646	-1.89
443.857	38.6
444.068	1.6
444.279	12.64
444.49	83.17
444.701	24.07
444.912	124.24
445.123	70.77
445.334	60.89
445.545	38.22
445.756	23.88
445.967	19.42
446.178	59.14
446.388	82.39
446.599	63.99
446.81	84.72
447.021	24.07
447.232	65.92
447.443	83.94
447.653	22.72
447.864	69.22
448.075	59.34
448.286	67.28
448.496	46.35
448.707	88.78
448.918	21.55
449.129	139.93
449.339	24.85
449.55	84.13
449.761	36.09
449.971	89.56
450.182	29.11
450.393	77.93
450.603	20.2
450.814	63.99
451.024	51.2
451.235	76
451.446	101.96
451.656	95.57
451.867	21.36
452.077	68.25
452.288	126.57
452.498	101.77
452.709	30.08
452.919	74.06
453.13	26.4
453.34	108.55
453.55	37.64
453.761	92.85
453.971	91.11
454.182	64.95
454.392	71.35
454.602	128.31
454.813	54.3
455.023	109.71
455.233	22.52
455.444	79.87
455.654	21.75
455.864	70.57
456.075	60.89
456.285	52.55
456.495	38.41
456.705	66.7
456.916	131.8
457.126	133.93
457.336	60.69
457.546	-25.33
457.756	54.88
457.967	85.1
458.177	71.73
458.387	30.85
458.597	43.06
458.807	25.82
459.017	51
459.227	48.1
459.437	47.9
459.647	118.23
459.857	76.77
460.068	57.01
460.278	96.92
460.488	84.52
460.698	147.3
460.908	72.7
461.117	22.52
461.327	18.26
461.537	40.93
461.747	46.74
461.957	56.43
462.167	163.76
462.377	102.35
462.587	72.12
462.797	91.3
463.007	50.81
463.216	119.2
463.426	84.33
463.636	89.17
463.846	20.59
464.056	44.22
464.265	103.7
464.475	21.36
464.685	54.88
464.895	79.48
465.104	53.52
465.314	78.71
465.524	50.23
465.733	42.67
465.943	147.68
466.153	139.16
466.362	68.83
466.572	85.49
466.782	70.18
466.991	75.03
467.201	127.34
467.41	28.72
467.62	61.66
467.829	74.25
468.039	89.17
468.249	42.29
468.458	69.99
468.668	96.34
468.877	100.6
469.086	139.55
469.296	95.18
469.505	24.27
469.715	145.36
469.924	76.97
470.134	123.47
470.343	160.86
470.552	90.72
470.762	72.32
470.971	42.48
471.18	103.7
471.39	67.47
471.599	36.09
471.808	108.55
472.018	36.47
472.227	114.17
472.436	105.45
472.645	37.25
472.855	24.46
473.064	116.68
473.273	80.07
473.482	106.8
473.691	119.2
473.901	104.28
474.11	85.3
474.319	145.75
474.528	77.93
474.737	120.95
474.946	111.65
475.155	76.97
475.364	126.76
475.573	109.9
475.783	82.39
475.992	102.15
476.201	126.18
476.41	79.29
476.619	55.07
476.828	107.19
477.037	75.22
477.245	89.95
477.454	131.6
477.663	76.77
477.872	83.94
478.081	148.27
478.29	70.77
478.499	181.59
478.708	102.15
478.917	135.09
479.125	110.48
479.334	95.76
479.543	66.7
479.752	95.57
479.961	104.28
480.169	113
480.378	69.41
480.587	187.01
480.796	108.55
481.004	119.78
481.213	105.64
481.422	91.88
481.63	89.75
481.839	123.66
482.048	151.17
482.256	126.37
482.465	84.72
482.674	109.71
482.882	106.8
483.091	156.6
483.299	119.4
483.508	122.5
483.716	120.75
483.925	111.07
484.134	102.54
484.342	92.08
484.551	147.3
484.759	114.17
484.967	95.95
485.176	129.28
485.384	149.04
485.593	138.38
485.801	128.7
486.01	162.41
486.218	138.19
486.426	84.72
486.635	141.87
486.843	135.87
487.051	129.67
487.26	108.93
487.468	147.49
487.676	160.28
487.885	99.63
488.093	139.74
488.301	106.42
488.509	128.12
488.717	164.93
488.926	99.63
489.134	92.85
489.342	117.46
489.55	102.35
489.758	126.57
489.967	67.47
490.175	211.04
490.383	101.38
490.591	169.58
490.799	61.85
491.007	142.84
491.215	119.4
491.423	124.43
491.631	119.78
491.839	120.56
492.047	154.66
492.255	91.11
492.463	108.93
492.671	142.26
492.879	144.97
493.087	124.63
493.295	152.33
493.503	140.9
493.711	132.57
493.919	192.44
494.127	156.6
494.334	180.62
494.542	105.83
494.75	127.73
494.958	140.32
495.166	149.43
495.374	156.6
495.581	137.61
495.789	137.03
495.997	171.13
496.205	142.84
496.412	135.67
496.62	129.86
496.828	176.36
497.035	122.5
497.243	145.75
497.451	130.25
497.658	135.09
497.866	148.07
498.074	166.86
498.281	102.54
498.489	206.78
498.696	161.44
498.904	137.61
499.112	144.78
499.319	235.06
499.527	124.82
499.734	186.63
499.942	116.1
500.149	111.65
500.357	158.92
500.564	123.08
500.771	128.89
500.979	133.54
501.186	141.68
501.394	145.17
501.601	165.51
501.808	183.33
502.016	150.4
502.223	145.17
502.43	163.96
502.638	183.14
502.845	111.65
503.052	215.69
503.26	128.7
503.467	216.46
503.674	162.41
503.881	152.72
504.089	237.58
504.296	191.47
504.503	135.28
504.71	208.91
504.917	102.93
505.125	172.87
505.332	131.22
505.539	174.61
505.746	221.7
505.953	190.31
506.16	160.28
506.367	208.33
506.574	218.01
506.781	205.61
506.988	118.62
507.195	184.69
507.402	168.8
507.609	204.45
507.816	167.64
508.023	162.6
508.23	155.24
508.437	142.65
508.644	206.78
508.851	248.04
509.058	205.42
509.265	181.01
509.472	185.08
509.679	261.99
509.885	159.11
510.092	150.4
510.299	172.48
510.506	191.28
510.713	171.71
510.92	201.74
511.126	210.26
511.333	215.11
511.54	182.36
511.746	233.71
511.953	252.31
512.16	221.5
512.367	185.27
512.573	151.56
512.78	190.7
512.987	172.68
513.193	181.4
513.4	121.92
513.606	148.07
513.813	211.81
514.02	201.35
514.226	254.24
514.433	244.36
514.639	154.85
514.846	202.71
515.052	173.26
515.259	163.18
515.465	181.2
515.672	190.31
515.878	265.09
516.085	169
516.291	237.39
516.497	173.26
516.704	184.88
516.91	163.96
517.117	166.67
517.323	164.54
517.529	222.66
517.736	167.83
517.942	191.28
518.148	170.74
518.354	193.21
518.561	201.16
518.767	174.81
518.973	245.72
519.179	222.47
519.386	177.52
519.592	170.74
519.798	176.94
520.004	211.81
520.21	159.31
520.417	201.55
520.623	238.16
520.829	224.99
521.035	235.26
521.241	227.9
521.447	239.71
521.653	306.17
521.859	185.46
522.065	195.93
522.271	295.32
522.477	230.61
522.683	269.74
522.889	247.46
523.095	265.29
523.301	227.31
523.507	219.18
523.713	238.75
523.919	186.43
524.125	261.03
524.331	209.49
524.537	263.35
524.742	245.14
524.948	238.16
525.154	232.93
525.36	321.48
525.566	260.83
525.772	311.01
525.977	198.45
526.183	248.43
526.389	276.53
526.595	226.35
526.8	241.46
527.006	241.26
527.212	204.45
527.417	213.75
527.623	199.41
527.829	249.79
528.034	269.36
528.24	252.89
528.446	218.4
528.651	279.43
528.857	260.64
529.062	298.23
529.268	269.36
529.473	254.63
529.679	222.28
529.884	296.87
530.09	255.21
530.295	333.1
530.501	299.78
530.706	266.26
530.912	233.71
531.117	249.59
531.323	241.07
531.528	267.03
531.733	269.94
531.939	242.81
532.144	277.88
532.35	262.38
532.555	312.56
532.76	301.91
532.966	290.67
533.171	302.68
533.376	301.13
533.581	251.53
533.787	297.26
533.992	294.74
534.197	351.51
534.402	272.84
534.607	264.51
534.813	373.59
535.018	274.98
535.223	239.33
535.428	275.36
535.633	324.96
535.838	277.49
536.043	282.53
536.249	328.45
536.454	243.2
536.659	273.23
536.864	257.54
537.069	253.47
537.274	351.51
537.479	305.78
537.684	321.48
537.889	267.42
538.094	361.97
538.299	286.41
538.504	277.69
538.708	312.37
538.913	306.94
539.118	291.06
539.323	305.01
539.528	271.49
539.733	313.92
539.938	307.53
540.142	329.03
540.347	282.34
540.552	279.63
540.757	303.84
540.962	299.78
541.166	238.75
541.371	255.41
541.576	305.59
541.781	189.92
541.985	289.7
542.19	292.03
542.395	337.17
542.599	340.66
542.804	345.11
543.008	359.45
543.213	296.87
543.418	279.04
543.622	319.54
543.827	258.51
544.031	345.11
544.236	345.69
544.44	271.49
544.645	413.31
544.849	303.65
545.054	307.33
545.258	377.08
545.463	379.41
545.667	297.84
545.872	314.31
546.076	326.71
546.281	316.24
546.485	266.84
546.689	339.49
546.894	339.49
547.098	297.06
547.302	255.41
547.507	324.96
547.711	328.26
547.915	372.24
548.119	283.69
548.324	329.42
548.528	374.17
548.732	332.32
548.936	347.44
549.141	340.66
549.345	331.55
549.549	320.7
549.753	278.85
549.957	360.61
550.161	382.31
550.366	321.67
550.57	321.28
550.774	321.09
550.978	310.24
551.182	329.42
551.386	299.19
551.59	291.44
551.794	288.34
551.998	352.86
552.202	319.54
552.406	261.41
552.61	306.75
552.814	325.54
553.018	360.03
553.222	310.63
553.426	321.09
553.63	397.81
553.833	316.24
554.037	285.24
554.241	368.36
554.445	307.33
554.649	301.13
554.853	285.83
555.056	359.06
555.26	349.96
555.464	348.99
555.668	330.19
555.871	349.76
556.075	354.8
556.279	301.13
556.483	296.29
556.686	329.61
556.89	331.55
557.094	371.27
557.297	279.24
557.501	355.96
557.704	307.33
557.908	365.65
558.112	282.73
558.315	398.2
558.519	295.13
558.722	315.08
558.926	329.03
559.129	311.21
559.333	255.02
559.536	310.24
559.74	287.18
559.943	294.93
560.147	251.73
560.35	317.99
560.553	287.18
560.757	228.28
560.96	359.26
561.164	284.08
561.367	339.69
561.57	286.6
561.774	345.69
561.977	296.87
562.18	286.79
562.384	385.61
562.587	317.02
562.79	291.25
562.993	287.57
563.197	346.66
563.4	342.79
563.603	355.19
563.806	405.76
564.009	291.64
564.212	345.31
564.416	268.97
564.619	348.02
564.822	276.14
565.025	326.32
565.228	312.56
565.431	309.46
565.634	233.32
565.837	289.31
566.04	295.9
566.243	284.47
566.446	235.06
566.649	302.88
566.852	271.68
567.055	286.02
567.258	348.99
567.461	355.77
567.664	349.76
567.867	222.47
568.07	325.74
568.273	286.6
568.475	360.42
568.678	278.46
568.881	295.71
569.084	300.16
569.287	234.29
569.489	248.82
569.692	326.13
569.895	323.99
570.098	248.82
570.3	271.68
570.503	219.37
570.706	260.44
570.909	263.93
571.111	247.66
571.314	229.06
571.516	282.34
571.719	282.53
571.922	268.58
572.124	264.51
572.327	273.81
572.529	211.81
572.732	222.86
572.935	289.51
573.137	312.76
573.34	261.8
573.542	290.48
573.745	308.11
573.947	303.46
574.15	286.41
574.352	214.91
574.554	304.23
574.757	235.06
574.959	242.62
575.162	223.63
575.364	242.23
575.566	346.08
575.769	213.95
575.971	271.88
576.173	174.03
576.376	257.73
576.578	287.57
576.78	312.95
576.982	191.28
577.185	239.33
577.387	206.39
577.589	187.4
577.791	287.38
577.993	273.81
578.196	265.87
578.398	267.23
578.6	309.85
578.802	224.21
579.004	239.52
579.206	229.25
579.408	269.16
579.61	238.75
579.812	284.28
580.014	239.13
580.216	219.37
580.418	260.25
580.62	243.01
580.822	184.11
581.024	240.88
581.226	260.25
581.428	218.01
581.63	316.83
581.832	210.85
582.034	279.43
582.236	231.38
582.438	248.82
582.64	288.93
582.841	285.24
583.043	332.52
583.245	256.38
583.447	269.16
583.649	253.86
583.85	249.98
584.052	296.48
584.254	217.43
584.456	267.61
584.657	211.23
584.859	249.98
585.061	235.26
585.262	227.9
585.464	224.8
585.666	292.03
585.867	230.41
586.069	317.41
586.27	269.16
586.472	261.8
586.674	237
586.875	223.25
587.077	233.51
587.278	266.64
587.48	268.97
587.681	336.78
587.883	263.74
588.084	181.78
588.285	207.94
588.487	262.96
588.688	261.99
588.89	237.39
589.091	213.56
589.292	248.82
589.494	245.53
589.695	228.28
589.896	172.48
590.098	189.34
590.299	242.43
590.5	203.48
590.702	189.15
590.903	244.56
591.104	255.21
591.305	211.04
591.507	258.89
591.708	259.86
591.909	210.07
592.11	319.93
592.311	285.05
592.512	248.82
592.714	186.63
592.915	193.8
593.116	208.13
593.317	206.58
593.518	214.91
593.719	187.21
593.92	251.53
594.121	297.26
594.322	253.08
594.523	236.03
594.724	174.61
594.925	218.98
595.126	259.48
595.327	244.75
595.528	244.36
595.729	235.45
595.929	196.51
596.13	239.52
596.331	212.98
596.532	232.35
596.733	283.31
596.934	240.3
597.135	261.99
597.335	260.64
597.536	196.9
597.737	249.79
597.938	194.76
598.138	267.81
598.339	219.76
598.54	228.86
598.74	206.58
598.941	239.52
599.142	302.1
599.342	227.12
599.543	192.83
599.744	193.02
599.944	226.15
600.145	206.97
600.345	230.41
600.546	293.58
600.746	293.77
600.947	296.29
601.147	256.96
601.348	274.2
601.548	181.2
601.749	227.31
601.949	205.42
602.15	228.09
602.35	225.18
602.551	287.18
602.751	189.73
602.951	218.6
603.152	181.78
603.352	255.41
603.552	220.92
603.753	256.96
603.953	275.36
604.153	250.95
604.354	188.56
604.554	210.26
604.754	220.73
604.954	187.21
605.155	241.84
605.355	208.13
605.555	270.33
605.755	289.7
605.955	223.63
606.155	273.43
606.356	219.18
606.556	259.28
606.756	263.35
606.956	192.63
607.156	278.66
607.356	218.98
607.556	235.26
607.756	246.69
607.956	280.21
608.156	236.81
608.356	202.13
608.556	276.53
608.756	270.33
608.956	182.17
609.156	272.84
609.356	208.33
609.556	194.38
609.755	216.08
609.955	227.7
610.155	231.58
610.355	248.43
610.555	230.61
610.755	219.76
610.954	164.73
611.154	229.06
611.354	271.49
611.554	208.13
611.753	217.63
611.953	177.91
612.153	251.73
612.352	261.61
612.552	188.37
612.752	146.13
612.951	223.05
613.151	246.69
613.351	175
613.55	207.94
613.75	222.47
613.949	200.96
614.149	244.75
614.348	237.2
614.548	181.01
614.747	169.58
614.947	203.29
615.146	123.08
615.346	236.81
615.545	216.66
615.745	222.28
615.944	243.39
616.144	216.46
616.343	265.29
616.542	209.49
616.742	245.91
616.941	218.98
617.14	171.51
617.34	245.53
617.539	214.14
617.738	200.96
617.938	279.04
618.137	204.84
618.336	155.05
618.535	233.71
618.734	190.31
618.934	240.1
619.133	205.81
619.332	214.91
619.531	181.98
619.73	203.68
619.929	231.19
620.128	229.06
620.328	283.69
620.527	181.98
620.726	212.01
620.925	207.16
621.124	185.66
621.323	216.85
621.522	180.62
621.721	177.91
621.92	142.45
622.119	225.96
622.318	161.44
622.517	203.87
622.715	179.26
622.914	128.31
623.113	172.68
623.312	154.08
623.511	191.08
623.71	190.5
623.909	181.01
624.107	250.95
624.306	134.12
624.505	164.15
624.704	181.59
624.902	183.33
625.101	220.15
625.3	207.16
625.499	175.78
625.697	187.79
625.896	185.46
626.095	231
626.293	155.05
626.492	177.52
626.69	228.48
626.889	145.55
627.088	238.94
627.286	161.44
627.485	143.23
627.683	178.68
627.882	215.11
628.08	133.73
628.279	142.84
628.477	272.65
628.676	157.18
628.874	222.28
629.073	200.38
629.271	159.7
629.469	212.59
629.668	175.2
629.866	177.71
630.065	175.78
630.263	218.98
630.461	173.06
630.66	184.3
630.858	219.18
631.056	228.48
631.254	222.66
631.453	159.89
631.651	215.5
631.849	193.8
632.047	216.85
632.245	175
632.444	204.06
632.642	201.74
632.84	188.95
633.038	175.39
633.236	165.12
633.434	125.79
633.632	145.55
633.83	147.68
634.028	210.46
634.227	169.19
634.425	239.13
634.623	162.8
634.821	193.41
635.019	120.17
635.216	155.24
635.414	189.15
635.612	198.06
635.81	143.42
636.008	250.56
636.206	152.14
636.404	222.86
636.602	163.76
636.8	203.68
636.997	201.93
637.195	219.76
637.393	187.6
637.591	227.7
637.789	199.61
637.986	172.87
638.184	196.9
638.382	190.5
638.58	210.46
638.777	256.18
638.975	193.41
639.173	207.16
639.37	185.66
639.568	172.68
639.765	236.42
639.963	183.33
640.161	232.35
640.358	188.95
640.556	167.64
640.753	160.08
640.951	153.5
641.148	195.35
641.346	165.12
641.543	186.24
641.741	212.2
641.938	178.1
642.136	194.57
642.333	147.68
642.531	223.83
642.728	242.04
642.925	188.76
643.123	172.48
643.32	199.8
643.517	171.51
643.715	199.22
643.912	161.83
644.109	170.74
644.306	157.76
644.504	155.05
644.701	170.74
644.898	196.31
645.095	154.46
645.293	190.5
645.49	217.63
645.687	191.08
645.884	213.75
646.081	130.05
646.278	157.95
646.475	171.9
646.672	169.96
646.87	186.82
647.067	191.66
647.264	210.85
647.461	149.43
647.658	134.51
647.855	221.11
648.052	176.36
648.249	124.43
648.446	151.95
648.642	146.13
648.839	142.07
649.036	159.31
649.233	134.7
649.43	151.75
649.627	131.41
649.824	165.9
650.021	163.76
650.217	141.1
650.414	141.1
650.611	165.31
650.808	166.28
651.004	157.37
651.201	185.46
651.398	189.92
651.595	166.09
651.791	142.07
651.988	188.18
652.185	139.74
652.381	184.3
652.578	122.5
652.775	139.74
652.971	164.73
653.168	171.13
653.364	186.05
653.561	117.27
653.757	148.46
653.954	164.35
654.15	140.9
654.347	211.62
654.543	129.86
654.74	126.76
654.936	108.55
655.133	153.11
655.329	154.27
655.525	154.27
655.722	197.28
655.918	130.83
656.115	178.3
656.311	116.1
656.507	121.72
656.704	107.38
656.9	145.94
657.096	122.88
657.292	109.9
657.489	180.43
657.685	132.38
657.881	140.52
658.077	128.5
658.273	148.46
658.47	192.25
658.666	130.25
658.862	155.43
659.058	118.04
659.254	170.93
659.45	147.3
659.646	130.63
659.842	119.4
660.038	202.32
660.234	103.32
660.43	136.45
660.626	211.81
660.822	167.25
661.018	191.86
661.214	137.22
661.41	96.15
661.606	168.03
661.802	184.88
661.998	145.17
662.194	112.03
662.39	148.46
662.586	179.65
662.781	169.58
662.977	164.93
663.173	172.87
663.369	159.5
663.564	182.95
663.76	172.1
663.956	144.39
664.152	209.68
664.347	129.47
664.543	133.15
664.739	145.36
664.934	95.95
665.13	100.8
665.326	185.27
665.521	170.74
665.717	91.3
665.912	97.12
666.108	70.57
666.304	140.9
666.499	137.42
666.695	98.86
666.89	134.12
667.086	188.18
667.281	157.95
667.477	221.11
667.672	137.61
667.867	128.89
668.063	159.7
668.258	120.95
668.454	166.28
668.649	212.78
668.844	152.33
669.04	175.2
669.235	140.9
669.43	138.97
669.626	111.26
669.821	109.32
670.016	107.19
670.211	141.29
670.407	120.75
670.602	140.32
670.797	117.85
670.992	163.96
671.187	128.5
671.382	162.02
671.578	134.32
671.773	160.66
671.968	91.69
672.163	134.51
672.358	174.61
672.553	115.13
672.748	119.98
672.943	204.65
673.138	136.06
673.333	158.92
673.528	102.93
673.723	145.94
673.918	133.73
674.113	97.12
674.308	233.32
674.503	165.7
674.698	173.45
674.892	150.98
675.087	178.49
675.282	161.83
675.477	128.12
675.672	155.05
675.867	142.07
676.061	86.46
676.256	87.04
676.451	107.58
676.646	131.02
676.84	128.12
677.035	111.45
677.23	97.12
677.424	139.93
677.619	138.58
677.814	174.61
678.008	163.38
678.203	81.42
678.397	95.76
678.592	142.84
678.787	187.01
678.981	129.47
679.176	117.27
679.37	125.21
679.565	101.57
679.759	105.45
679.954	171.13
680.148	208.13
680.342	170.74
680.537	159.5
680.731	141.1
680.926	149.62
681.12	175.97
681.314	93.43
681.509	113.39
681.703	136.64
681.897	150.4
682.092	114.75
682.286	124.24
682.48	204.45
682.674	195.54
682.869	122.11
683.063	109.9
683.257	212.4
683.451	141.1
683.645	142.84
683.839	127.92
684.034	125.4
684.228	147.1
684.422	106.22
684.616	92.47
684.81	177.13
685.004	120.17
685.198	118.82
685.392	187.01
685.586	81.03
685.78	153.3
685.974	160.28
686.168	132.57
686.362	173.45
686.556	143.42
686.75	112.23
686.944	142.45
687.138	174.61
687.331	107
687.525	141.29
687.719	67.86
687.913	139.55
688.107	146.13
688.301	96.73
688.494	158.92
688.688	96.53
688.882	61.66
689.076	82
689.269	127.92
689.463	189.15
689.657	82
689.85	92.66
690.044	120.95
690.238	105.06
690.431	110.48
690.625	104.67
690.818	117.65
691.012	122.3
691.205	126.37
691.399	69.6
691.593	120.37
691.786	161.63
691.98	166.09
692.173	177.13
692.366	112.62
692.56	157.18
692.753	186.43
692.947	84.13
693.14	173.84
693.333	162.21
693.527	98.47
693.72	132.96
693.914	134.51
694.107	155.05
694.3	140.71
694.493	140.9
694.687	148.46
694.88	110.87
695.073	162.6
695.266	153.69
695.46	144.97
695.653	184.5
695.846	165.9
696.039	80.65
696.232	138
696.425	168.03
696.618	145.55
696.812	108.16
697.005	200.77
697.198	235.84
697.391	171.71
697.584	187.4
697.777	191.86
697.97	200.58
698.163	209.49
698.356	177.52
698.549	257.73
698.742	218.01
698.935	147.68
699.127	225.96
699.32	151.56
699.513	169.19
699.706	195.35
699.899	217.24
700.092	168.8
700.285	230.22
700.477	139.16
700.67	201.35
700.863	210.65
701.056	290.67
701.248	228.09
701.441	238.75
701.634	195.35
701.826	316.05
702.019	201.35
702.212	264.9
702.404	175.97
702.597	201.93
702.79	185.46
702.982	228.67
703.175	243.39
703.367	238.75
703.56	238.94
703.752	298.61
703.945	259.67
704.137	261.8
704.33	270.13
704.522	248.43
704.715	271.1
704.907	272.84
705.1	282.34
705.292	261.61
705.484	262.38
705.677	267.61
705.869	274.78
706.061	298.81
706.254	332.32
706.446	299.39
706.638	276.91
706.831	364.49
707.023	279.43
707.215	347.63
707.407	331.74
707.599	299.39
707.792	342.01
707.984	309.85
708.176	361.97
708.368	281.37
708.56	321.86
708.752	296.48
708.944	308.11
709.136	338.72
709.329	302.49
709.521	391.22
709.713	363.91
709.905	346.47
710.097	377.86
710.289	355.77
710.481	333.68
710.672	365.65
710.864	360.22
711.056	408.47
711.248	381.54
711.44	372.62
711.632	351.7
711.824	361.77
712.016	445.47
712.207	417.96
712.399	407.5
712.591	466.4
712.783	436.75
712.975	427.45
713.166	387.54
713.358	406.72
713.55	472.6
713.741	456.32
713.933	404.21
714.125	424.94
714.316	428.04
714.508	480.93
714.7	500.3
714.891	455.94
715.083	554.75
715.274	470.47
715.466	483.25
715.657	506.5
715.849	409.82
716.04	478.99
716.232	405.37
716.423	518.13
716.615	420.48
716.806	442.95
716.998	493.52
717.189	438.11
717.381	383.86
717.572	401.3
717.763	453.61
717.955	452.45
718.146	439.27
718.337	408.08
718.528	361.19
718.72	351.51
718.911	443.92
719.102	381.73
719.293	440.44
719.485	425.9
719.676	403.24
719.867	357.12
720.058	406.34
720.249	392.97
720.44	402.66
720.632	438.11
720.823	455.35
721.014	491
721.205	451.29
721.396	508.63
721.587	541.57
721.778	499.14
721.969	513.87
722.16	540.99
722.351	485.19
722.542	646.2
722.733	621.78
722.924	548.55
723.115	615.97
723.305	609.19
723.496	597.76
723.687	549.71
723.878	568.31
724.069	566.57
724.26	591.56
724.45	523.36
724.641	547.38
724.832	554.55
725.023	589.81
725.213	542.15
725.404	529.75
725.595	583.03
725.785	535.76
725.976	560.95
726.167	597.37
726.357	558.23
726.548	654.91
726.739	586.91
726.929	602.02
727.12	653.17
727.31	654.53
727.501	641.93
727.691	668.86
727.882	629.34
728.072	652.01
728.263	648.52
728.453	660.34
728.644	643.68
728.834	653.95
729.024	633.41
729.215	666.35
729.405	686.49
729.596	732.41
729.786	722.53
729.976	679.52
730.167	740.36
730.357	671.96
730.547	686.69
730.737	736.09
730.928	748.69
731.118	788.6
731.308	717.11
731.498	726.02
731.688	785.89
731.879	762.83
732.069	790.92
732.259	808.75
732.449	784.53
732.639	850.99
732.829	843.04
733.019	844.4
733.209	921.7
733.399	887.22
733.589	933.14
733.779	899.23
733.969	899.04
734.159	891.67
734.349	977.12
734.539	983.32
734.729	923.64
734.919	1017.22
735.109	992.03
735.299	983.51
735.488	977.7
735.678	995.72
735.868	992.03
736.058	993.58
736.248	950.77
736.437	929.65
736.627	923.45
736.817	1026.13
737.007	999.98
737.196	1082.51
737.386	949.22
737.576	1007.15
737.765	1019.55
737.955	1032.72
738.144	1074.76
738.334	1057.52
738.524	1011.8
738.713	1022.07
738.903	1056.94
739.092	1091.81
739.282	1085.23
739.471	1116.23
739.661	1074.96
739.85	1094.14
740.04	1111.38
740.229	1128.04
740.419	1154.39
740.608	1148.58
740.797	1123.39
740.987	1155.36
741.176	1167.38
741.365	1120.1
741.555	1089.49
741.744	1159.24
741.933	1117.78
742.123	1173.58
742.312	1174.35
742.501	1182.29
742.69	1198.18
742.88	1136.18
743.069	1222.01
743.258	1184.43
743.447	1240.42
743.636	1232.67
743.825	1183.65
744.014	1181.13
744.204	1205.35
744.393	1188.11
744.582	1220.46
744.771	1245.84
744.96	1219.49
745.149	1245.26
745.338	1208.06
745.527	1236.74
745.716	1212.91
745.905	1198.96
746.094	1229.96
746.283	1228.79
746.471	1290.4
746.66	1334
746.849	1258.05
747.038	1298.35
747.227	1192.95
747.416	1303.77
747.604	1235.38
747.793	1247.97
747.982	1284.21
748.171	1257.47
748.359	1297.19
748.548	1275.1
748.737	1277.04
748.926	1232.09
749.114	1205.16
749.303	1271.42
749.491	1258.44
749.68	1196.83
749.869	1294.09
750.057	1245.26
750.246	1277.42
750.434	1260.18
750.623	1235.77
750.811	1278.2
751	1283.24
751.188	1263.09
751.377	1309.39
751.565	1244.29
751.754	1201.86
751.942	1256.31
752.131	1300.67
752.319	1225.69
752.507	1229.57
752.696	1280.14
752.884	1315.01
753.072	1272.97
753.261	1266.19
753.449	1268.12
753.637	1232.28
753.825	1331.29
754.014	1254.56
754.202	1271.03
754.39	1350.08
754.578	1280.91
754.766	1242.55
754.955	1214.46
755.143	1320.05
755.331	1235.19
755.519	1235.57
755.707	1262.31
755.895	1272.19
756.083	1254.37
756.271	1235.96
756.459	1250.69
756.647	1303.58
756.835	1246.23
757.023	1224.72
757.211	1246.62
757.399	1228.79
757.587	1259.02
757.775	1215.62
757.963	1235.77
758.151	1262.51
758.339	1244.68
758.526	1196.44
758.714	1235.77
758.902	1186.75
759.09	1173.38
759.278	1075.35
759.465	1005.98
759.653	841.11
759.841	812.24
760.028	691.92
760.216	583.42
760.404	599.5
760.591	478.8
760.779	402.66
760.967	356.74
761.154	263.54
761.342	315.47
761.529	308.11
761.717	362.55
761.905	308.11
762.092	335.62
762.28	293.77
762.467	318.57
762.655	273.43
762.842	294.16
763.029	298.23
763.217	310.63
763.404	325.54
763.592	335.81
763.779	279.63
763.966	328.26
764.154	324.19
764.341	402.27
764.528	378.24
764.716	398.78
764.903	397.04
765.09	445.09
765.277	467.17
765.465	538.28
765.652	548.16
765.839	586.13
766.026	620.43
766.213	620.43
766.4	694.63
766.588	778.14
766.775	715.56
766.962	788.6
767.149	766.32
767.336	912.21
767.523	824.25
767.71	863.77
767.897	979.63
768.084	1000.17
768.271	973.82
768.458	1011.6
768.645	1034.66
768.832	1022.07
769.019	1067.01
769.206	1036.79
769.392	1080.96
769.579	1150.71
769.766	1123.01
769.953	1088.52
770.14	1104.02
770.327	1106.93
770.513	1145.48
770.7	1204.38
770.887	1109.64
771.073	1192.56
771.26	1099.56
771.447	1109.25
771.634	1109.06
771.82	1189.46
772.007	1080.77
772.193	1177.26
772.38	1213.68
772.567	1173.19
772.753	1195.86
772.94	1206.51
773.126	1210.97
773.313	1182.88
773.499	1202.06
773.686	1173.38
773.872	1152.26
774.059	1162.34
774.245	1113.9
774.432	1141.41
774.618	1095.88
774.804	1151.68
774.991	1120.29
775.177	1188.3
775.363	1139.86
775.55	1189.66
775.736	1110.8
775.922	1131.92
776.109	1159.63
776.295	1179.58
776.481	1139.86
776.667	1172.03
776.853	1136.18
777.04	1110.03
777.226	1135.6
777.412	1205.35
777.598	1121.26
777.784	1088.13
777.97	1093.95
778.156	1103.83
778.342	1103.05
778.528	1100.92
778.715	1028.26
778.901	1106.54
779.087	1126.69
779.272	1086.78
779.458	1078.64
779.644	1100.53
779.83	1064.88
780.016	1182.88
780.202	1103.44
780.388	1058.88
780.574	1018.19
780.76	1077.28
780.946	1106.73
781.131	1078.06
781.317	1076.9
781.503	1028.65
781.689	1048.61
781.874	1174.74
782.06	1073.6
782.246	1078.83
782.432	1089.49
782.617	1086.58
782.803	1121.46
782.989	1021.1
783.174	1078.64
783.36	1010.63
783.545	1071.08
783.731	1086.39
783.916	1005.4
784.102	1053.65
784.288	1009.67
784.473	1009.28
784.659	1027.3
784.844	1115.06
785.029	1042.6
785.215	1003.85
785.4	1040.86
785.586	1098.01
785.771	990.87
785.956	1057.33
786.142	1029.62
786.327	1031.56
786.512	1034.27
786.698	1053.45
786.883	977.7
787.068	995.33
787.254	996.88
787.439	972.27
787.624	993.2
787.809	973.82
787.994	972.47
788.18	1058.3
788.365	953.28
788.55	984.67
788.735	983.12
788.92	988.93
789.105	1009.86
789.29	1034.08
789.475	981.77
789.66	976.92
789.845	972.47
790.03	934.88
790.215	1007.34
790.4	1004.05
790.585	1028.26
790.77	961.62
790.955	863
791.14	949.22
791.325	1007.15
791.51	887.02
791.695	975.95
791.879	949.22
792.064	918.6
792.249	1004.43
792.434	925.39
792.618	936.82
792.803	966.46
792.988	949.8
793.173	955.22
793.357	998.82
793.542	886.05
793.727	918.41
793.911	963.75
794.096	922.29
794.281	994.17
794.465	1014.32
794.65	936.62
794.834	957.93
795.019	1012.57
795.203	978.86
795.388	972.08
795.572	997.46
795.757	964.13
795.941	965.88
796.126	980.99
796.31	934.1
796.494	971.69
796.679	962.2
796.863	935.46
797.048	979.63
797.232	1000.37
797.416	936.82
797.601	958.52
797.785	1011.02
797.969	980.6
798.153	965.88
798.338	980.22
798.522	973.63
798.706	954.45
798.89	980.22
799.074	1022.07
799.258	1008.31
799.443	968.98
799.627	956
799.811	1004.43
799.995	962.2
800.179	958.52
800.363	968.98
800.547	951.35
800.731	975.95
800.915	922.87
801.099	939.14
801.283	968.2
801.467	944.57
801.651	953.48
801.835	1013.54
802.019	976.92
802.202	989.71
802.386	929.45
802.57	914.15
802.754	955.42
802.938	973.05
803.121	919.57
803.305	1019.93
803.489	950.57
803.673	977.12
803.856	958.71
804.04	974.4
804.224	975.95
804.407	947.67
804.591	950.57
804.775	935.85
804.958	996.3
805.142	1054.61
805.326	990.1
805.509	974.98
805.693	1013.73
805.876	1030.4
806.06	968.98
806.243	962
806.427	1010.25
806.61	1004.82
806.794	949.99
806.977	1015.09
807.16	954.45
807.344	975.57
807.527	994.75
807.71	956.58
807.894	1011.8
808.077	1032.53
808.26	951.35
808.444	941.47
808.627	1030.59
808.81	956.58
808.993	937.59
809.177	933.33
809.36	936.24
809.543	985.83
809.726	887.99
809.909	930.81
810.092	922.87
810.276	913.95
810.459	937.79
810.642	900.39
810.825	904.07
811.008	916.28
811.191	829.29
811.374	857.57
811.557	895.35
811.74	936.82
811.923	835.68
812.106	855.83
812.289	804.29
812.472	851.18
812.654	880.44
812.837	844.98
813.02	808.75
813.203	819.21
813.386	739.19
813.569	745.78
813.751	739
813.934	783.56
814.117	736.87
814.3	740.16
814.482	732.03
814.665	694.05
814.848	699.67
815.03	648.91
815.213	682.62
815.396	688.63
815.578	654.91
815.761	625.66
815.943	701.22
816.126	654.53
816.309	607.64
816.491	575.48
816.674	546.22
816.856	616.55
817.039	578.77
817.221	640.96
817.403	594.46
817.586	595.05
817.768	628.18
817.951	543.12
818.133	571.6
818.315	630.11
818.498	609.96
818.68	683.01
818.862	617.52
819.045	634.96
819.227	631.47
819.409	621.78
819.591	675.26
819.774	619.26
819.956	600.86
820.138	667.31
820.32	646.58
820.502	605.9
820.684	662.47
820.866	685.53
821.048	707.03
821.231	726.02
821.413	683.59
821.595	672.35
821.777	688.24
821.959	695.79
822.141	729.89
822.323	647.94
822.505	629.92
822.686	595.82
822.868	614.81
823.05	564.43
823.232	566.57
823.414	513.09
823.596	573.93
823.778	542.73
823.96	553.39
824.141	561.33
824.323	539.63
824.505	579.74
824.687	595.82
824.868	622.17
825.05	669.25
825.232	695.6
825.413	734.74
825.595	683.39
825.777	632.63
825.958	660.53
826.14	669.83
826.321	701.03
826.503	665.38
826.685	672.35
826.866	690.76
827.048	707.23
827.229	640
827.411	653.56
827.592	597.76
827.773	627.98
827.955	602.6
828.136	620.23
828.318	580.13
828.499	652.59
828.68	570.44
828.862	610.74
829.043	666.54
829.224	640.77
829.406	600.86
829.587	632.63
829.768	594.27
829.949	636.9
830.131	585.17
830.312	658.6
830.493	616.36
830.674	629.15
830.855	610.16
831.036	596.01
831.218	643.87
831.399	657.63
831.58	619.07
831.761	638.25
831.942	664.02
832.123	624.69
832.304	558.62
832.485	606.09
832.666	587.68
832.847	638.25
833.028	626.24
833.209	651.62
833.389	585.75
833.57	560.17
833.751	585.55
833.932	643.68
834.113	622.56
834.294	613.84
834.475	592.91
834.655	635.35
834.836	661.89
835.017	629.92
835.198	544.48
835.378	630.31
835.559	645.03
835.74	605.9
835.92	617.13
836.101	610.55
836.281	666.73
836.462	625.66
836.643	636.12
836.823	634.57
837.004	626.63
837.184	685.14
837.365	672.93
837.545	656.66
837.726	650.85
837.906	688.82
838.087	650.26
838.267	665.38
838.448	583.23
838.628	644.84
838.808	660.73
838.989	697.34
839.169	598.92
839.349	689.98
839.53	672.74
839.71	679.91
839.89	597.56
840.07	678.16
840.251	621.2
840.431	654.91
840.611	658.4
840.791	629.73
840.971	641.16
841.151	645.42
841.332	571.99
841.512	676.81
841.692	574.51
841.872	633.21
842.052	659.76
842.232	648.13
842.412	582.26
842.592	622.75
842.772	656.08
842.952	672.55
843.132	621.4
843.312	620.62
843.492	601.63
843.672	621.98
843.851	586.13
844.031	640.96
844.211	609.77
844.391	621.98
844.571	633.6
844.751	666.54
844.93	631.86
845.11	605.12
845.29	647.94
845.47	621.2
845.649	638.25
845.829	633.21
846.009	578.97
846.188	607.64
846.368	596.98
846.547	619.46
846.727	641.16
846.907	585.55
847.086	612.48
847.266	621.01
847.445	623.53
847.625	588.85
847.804	573.15
847.984	611.71
848.163	587.68
848.343	585.36
848.522	570.05
848.701	643.1
848.881	577.61
849.06	579.93
849.239	621.59
849.419	602.41
849.598	587.68
849.777	575.48
849.957	585.17
850.136	565.79
850.315	521.03
850.494	536.15
850.674	556.68
850.853	598.53
851.032	548.74
851.211	605.31
851.39	609.96
851.569	518.52
851.748	551.26
851.927	595.05
852.107	575.87
852.286	513.28
852.465	497.4
852.644	582.84
852.823	568.5
853.002	527.62
853.181	579.16
853.359	585.55
853.538	533.63
853.717	592.14
853.896	541.96
854.075	485.77
854.254	507.86
854.433	473.76
854.611	528.01
854.79	468.92
854.969	535.37
855.148	528.01
855.327	464.07
855.505	507.28
855.684	502.82
855.863	517.93
856.041	468.14
856.22	499.53
856.399	467.75
856.577	583.23
856.756	552.81
856.934	630.89
857.113	614.81
857.291	525.49
857.47	503.21
857.648	530.72
857.827	538.86
858.005	589.62
858.184	521.42
858.362	590.2
858.541	534.79
858.719	531.88
858.898	530.92
859.076	543.7
859.254	582.26
859.433	511.73
859.611	503.79
859.789	494.88
859.967	563.08
860.146	605.9
860.324	540.41
860.502	521.23
860.68	464.85
860.859	492.94
861.037	493.52
861.215	508.25
861.393	514.45
861.571	523.17
861.749	514.06
861.927	496.82
862.105	508.44
862.283	513.67
862.461	471.44
862.639	469.3
862.817	484.03
862.995	472.02
863.173	488.68
863.351	502.82
863.529	516.19
863.707	555.91
863.885	513.67
864.063	448.57
864.241	456.71
864.418	568.12
864.596	475.5
864.774	420.29
864.952	497.4
865.129	501.85
865.307	454
865.485	467.17
865.663	529.37
865.84	453.61
866.018	466.98
866.196	377.86
866.373	446.25
866.551	416.22
866.728	375.72
866.906	404.01
867.084	436.37
867.261	465.62
867.439	468.14
867.616	477.64
867.794	472.79
867.971	458.26
868.149	457.29
868.326	509.02
868.503	487.32
868.681	467.75
868.858	431.14
869.035	419.7
869.213	480.15
869.39	454.97
869.567	532.85
869.745	453.42
869.922	462.14
870.099	499.92
870.276	487.52
870.454	490.23
870.631	468.72
870.808	453.03
870.985	499.92
871.162	507.28
871.339	476.47
871.517	394.71
871.694	426.87
871.871	460.59
872.048	467.95
872.225	440.44
872.402	463.1
872.579	427.84
872.756	462.33
872.933	438.89
873.11	442.18
873.287	462.14
873.463	446.83
873.64	427.84
873.817	445.09
873.994	450.32
874.171	425.9
874.348	451.29
874.524	391.22
874.701	443.73
874.878	392.97
875.055	449.35
875.231	436.95
875.408	445.47
875.585	410.6
875.762	414.28
875.938	413.12
876.115	437.14
876.291	409.05
876.468	449.74
876.645	387.35
876.821	405.95
876.998	384.06
877.174	408.27
877.351	409.44
877.527	384.83
877.704	435.2
877.88	429.39
878.057	412.73
878.233	471.63
878.409	401.69
878.586	411.18
878.762	423.77
878.938	422.03
879.115	344.34
879.291	416.41
879.467	342.98
879.644	348.99
879.82	410.6
879.996	368.75
880.172	353.64
880.349	370.3
880.525	423.77
880.701	378.24
880.877	386.96
881.053	384.44
881.229	398.01
881.405	419.7
881.581	355.96
881.757	365.65
881.933	392.19
882.109	429.39
882.285	387.74
882.461	344.14
882.637	378.05
882.813	335.42
882.989	374.56
883.165	437.53
883.341	373.21
883.517	405.76
883.693	415.83
883.869	419.12
884.044	376.31
884.22	380.18
884.396	419.7
884.572	404.4
884.747	415.44
884.923	391.61
885.099	396.07
885.275	440.44
885.45	373.79
885.626	363.71
885.801	363.91
885.977	365.26
886.153	320.12
886.328	410.41
886.504	372.62
886.679	402.66
886.855	378.82
887.03	411.76
887.206	425.32
887.381	406.72
887.557	413.51
887.732	385.02
887.908	397.23
888.083	405.37
888.258	402.85
888.434	346.27
888.609	385.61
888.784	401.69
888.96	371.46
889.135	337.36
889.31	370.88
889.485	379.21
889.661	359.84
889.836	408.86
890.011	383.09
890.186	392.19
890.361	332.13
890.537	392.19
890.712	405.95
890.887	373.98
891.062	397.04
891.237	461.94
891.412	366.04
891.587	396.07
891.762	391.61
891.937	418.15
892.112	356.93
892.287	373.01
892.462	342.98
892.637	307.72
892.812	330.19
892.987	340.07
893.161	328.45
893.336	373.98
893.511	351.12
893.686	366.23
893.861	341.04
894.035	350.15
894.21	361.97
894.385	302.1
894.56	341.24
894.734	288.73
894.909	307.91
895.084	333.49
895.258	322.25
895.433	370.3
895.608	348.21
895.782	273.81
895.957	302.29
896.131	301.52
896.306	249.59
896.48	285.24
896.655	276.91
896.829	238.16
897.004	248.24
897.178	256.96
897.353	255.21
897.527	279.63
897.701	272.46
897.876	202.51
898.05	279.43
898.224	262.58
898.399	305.78
898.573	296.48
898.747	200.38
898.921	283.69
899.096	179.26
899.27	211.23
899.444	222.47
899.618	215.11
899.792	233.9
899.967	194.76
900.141	251.73
900.315	216.66
900.489	216.08
900.663	246.69
900.837	247.85
901.011	209.49
901.185	284.86
901.359	239.91
901.533	252.69
901.707	227.9
901.881	222.66
902.055	162.6
902.229	216.46
902.403	284.86
902.576	238.16
902.75	244.56
902.924	315.28
903.098	269.36
903.272	291.06
903.446	312.18
903.619	250.95
903.793	304.04
903.967	242.43
904.14	314.89
904.314	298.42
904.488	288.73
904.661	316.05
904.835	268.58
905.009	337.36
905.182	350.54
905.356	315.66
905.529	297.64
905.703	255.99
905.876	245.53
906.05	238.16
906.223	250.56
906.397	201.16
906.57	226.93
906.744	215.69
906.917	226.54
907.09	232.93
907.264	241.46
907.437	198.64
907.61	186.24
907.784	222.47
907.957	222.08
908.13	172.29
908.304	258.7
908.477	176.36
908.65	231
908.823	163.38
908.996	253.86
909.17	216.46
909.343	215.69
909.516	211.62
909.689	212.01
909.862	194.38
910.035	232.55
910.208	198.64
910.381	219.37
910.554	277.49
910.727	197.09
910.9	228.09
911.073	185.08
911.246	233.32
911.419	258.31
911.592	222.86
911.765	213.75
911.938	180.23
912.11	187.01
912.283	208.52
912.456	241.65
912.629	212.4
912.802	210.46
912.974	181.98
913.147	160.08
913.32	139.16
913.493	147.1
913.665	198.45
913.838	202.32
914.01	157.95
914.183	166.86
914.356	174.03
914.528	192.63
914.701	233.13
914.873	202.51
915.046	200.58
915.218	152.72
915.391	119.59
915.563	141.68
915.736	196.7
915.908	224.99
916.081	142.07
916.253	168.41
916.425	159.11
916.598	197.28
916.77	164.73
916.942	147.68
917.115	103.12
917.287	177.13
917.459	175.2
917.632	136.06
917.804	94.6
917.976	151.75
918.148	166.28
918.32	151.37
918.493	165.12
918.665	207.55
918.837	180.43
919.009	219.95
919.181	196.9
919.353	193.41
919.525	155.63
919.697	210.07
919.869	180.62
920.041	199.22
920.213	244.94
920.385	194.38
920.557	168.8
920.729	200.96
920.901	194.18
921.073	188.37
921.244	171.71
921.416	203.1
921.588	186.05
921.76	162.99
921.932	248.82
922.103	167.25
922.275	167.64
922.447	154.85
922.619	114.75
922.79	168.41
922.962	166.48
923.134	186.63
923.305	142.26
923.477	103.12
923.648	114.75
923.82	159.5
923.991	119.78
924.163	102.93
924.335	150.2
924.506	137.8
924.677	195.54
924.849	130.05
925.02	140.52
925.192	189.15
925.363	153.88
925.535	138.19
925.706	123.66
925.877	189.73
926.049	118.62
926.22	189.73
926.391	133.54
926.562	151.17
926.734	124.05
926.905	165.31
927.076	95.18
927.247	159.5
927.419	102.54
927.59	105.25
927.761	123.27
927.932	150.98
928.103	167.45
928.274	112.23
928.445	122.11
928.616	116.3
928.787	135.28
928.958	165.31
929.129	144.39
929.3	134.12
929.471	91.88
929.642	38.99
929.813	23.49
929.984	135.87
930.155	45.39
930.326	101.18
930.496	60.69
930.667	14.77
930.838	42.48
931.009	32.4
931.18	73.67
931.35	81.03
931.521	81.23
931.692	50.04
931.863	31.24
932.033	48.29
932.204	60.3
932.374	43.84
932.545	1.79
932.716	102.54
932.886	79.29
933.057	0.05
933.227	26.2
933.398	124.43
933.568	35.5
933.739	-5.18
933.909	7.6
934.08	85.1
934.25	-14.68
934.421	-23.2
934.591	43.25
934.761	-17
934.932	-10.03
935.102	31.63
935.272	-17.39
935.443	15.16
935.613	7.99
935.783	36.86
935.953	-33.47
936.123	132.77
936.294	-15.84
936.464	18.26
936.634	15.74
936.804	-12.93
936.974	-17.78
937.144	29.69
937.314	29.3
937.484	-2.28
937.655	12.25
937.825	43.84
937.995	2.57
938.165	60.3
938.334	18.65
938.504	8.96
938.674	-4.21
938.844	-10.41
939.014	52.75
939.184	2.76
939.354	65.53
939.524	57.01
939.694	6.05
939.863	29.11
940.033	79.87
940.203	92.08
940.373	53.52
940.542	87.43
940.712	27.56
940.882	73.28
941.051	86.07
941.221	84.13
941.391	86.07
941.56	15.35
941.73	2.57
941.899	118.23
942.069	42.67
942.238	67.28
942.408	25.82
942.577	58.17
942.747	32.99
942.916	-17
943.086	-0.34
943.255	41.9
943.425	50.23
943.594	26.01
943.763	-30.95
943.933	-18.94
944.102	-17.78
944.271	32.02
944.441	33.57
944.61	2.76
944.779	25.82
944.948	115.91
945.117	-15.45
945.287	33.18
945.456	-29.98
945.625	15.16
945.794	56.82
945.963	4.7
946.132	35.12
946.301	-1.89
946.47	38.22
946.639	-30.37
946.808	5.09
946.977	37.64
947.146	49.84
947.315	9.74
947.484	28.34
947.653	13.8
947.822	-17
947.991	-2.08
948.16	92.85
948.329	61.27
948.498	20.2
948.666	13.03
948.835	58.56
949.004	-27.08
949.173	-13.32
949.341	42.67
949.51	34.15
949.679	83.55
949.847	64.57
950.016	103.7
950.185	73.87
950.353	-11.19
950.522	12.06
950.69	50.62
950.859	0.05
951.028	71.73
951.196	39.96
951.365	21.36
951.533	23.3
951.701	28.53
951.87	57.79
952.038	3.54
952.207	27.37
952.375	96.15
952.543	12.45
952.712	19.04
952.88	9.35
953.048	72.12
953.217	35.31
953.385	21.36
953.553	44.8
953.721	-19.91
953.89	34.15
954.058	-14.87
954.226	28.53
954.394	19.42
954.562	-27.08
954.73	22.52
954.898	28.14
955.067	63.99
955.235	10.51
955.403	55.65
955.571	102.35
955.739	32.6
955.907	-8.48
956.075	23.3
956.243	-20.1
956.41	52.17
956.578	-33.28
956.746	-34.83
956.914	29.11
957.082	22.52
957.25	32.02
957.418	1.79
957.585	36.09
957.753	50.81
957.921	5.47
958.089	-0.34
958.256	43.64
958.424	30.08
958.592	35.5
958.759	-0.73
958.927	32.6
959.095	42.29
959.262	15.16
959.43	7.02
959.597	21.94
959.765	32.21
959.932	-2.66
960.1	57.2
960.267	29.11
960.435	25.62
960.602	68.83
960.77	23.3
960.937	-14.48
961.104	30.85
961.272	-19.71
961.439	40.93
961.606	27.75
961.774	35.31
961.941	-0.53
962.108	52.17
962.275	46.35
962.443	42.48
962.61	54.88
962.777	103.32
962.944	57.4
963.111	39.57
963.278	55.65
963.446	22.14
963.613	10.51
963.78	51.2
963.947	39.19
964.114	24.85
964.281	107
964.448	55.07
964.615	16.52
964.782	57.4
964.949	79.87
965.116	51.59
965.282	49.65
965.449	16.32
965.616	0.05
965.783	30.27
965.95	42.87
966.117	5.09
966.283	43.84
966.45	45.39
966.617	25.43
966.784	64.18
966.95	54.69
967.117	45.77
967.284	-14.68
967.45	6.83
967.617	85.3
967.784	45.39
967.95	68.63
968.117	20.97
968.283	69.6
968.45	112.03
968.616	41.51
968.783	55.65
968.949	56.62
969.116	62.82
969.282	39.96
969.449	12.84
969.615	38.22
969.781	-4.99
969.948	14.39
970.114	12.25
970.28	85.88
970.447	11.09
970.613	85.68
970.779	11.09
970.945	28.92
971.112	34.73
971.278	28.34
971.444	28.72
971.61	63.02
971.776	20.59
971.942	43.64
972.108	71.73
972.275	17.1
972.441	15.16
972.607	125.98
972.773	4.7
972.939	63.79
973.105	38.41
973.271	18.45
973.437	25.62
973.602	54.3
973.768	65.15
973.934	34.34
974.1	44.8
974.266	-62.53
974.432	51.59
974.598	24.85
974.763	69.99
974.929	16.52
975.095	101.38
975.261	14.77
975.426	-2.28
975.592	51.78
975.758	97.5
975.923	-3.83
976.089	-2.47
976.255	57.01
976.42	34.54
976.586	48.68
976.751	50.04
976.917	121.92
977.082	49.07
977.248	-8.86
977.413	-27.27
977.579	18.07
977.744	56.82
977.91	-3.63
978.075	-10.61
978.24	68.83
978.406	32.99
978.571	22.33
978.736	34.34
978.902	55.65
979.067	6.44
979.232	-31.73
979.397	40.54
979.563	105.83
979.728	1.21
979.893	52.55
980.058	1.6
980.223	74.45
980.388	48.49
980.554	56.43
980.719	20.97
980.884	34.15
981.049	75.22
981.214	41.9
981.379	42.87
981.544	7.02
981.709	15.16
981.874	33.37
982.039	37.05
982.204	53.14
982.368	43.45
982.533	-12.55
982.698	84.52
982.863	76.97
983.028	22.14
983.193	69.22
983.357	39.57
983.522	32.21
983.687	35.31
983.852	20.2
984.016	29.3
984.181	38.22
984.346	41.12
984.51	29.5
984.675	16.52
984.839	53.14
985.004	54.49
985.168	65.54
985.333	51.59
985.498	6.83
985.662	69.6
985.827	60.5
985.991	16.32
986.155	20.97
986.32	55.85
986.484	95.18
986.649	47.13
986.813	-5.96
986.977	33.18
987.142	45.39
987.306	-13.32
987.47	13.61
987.634	41.32
987.799	32.02
987.963	43.45
988.127	76.19
988.291	110.87
988.455	8.96
988.62	39.38
988.784	47.9
988.948	88.4
989.112	7.02
989.276	57.2
989.44	27.17
989.604	-0.15
989.768	6.05
989.932	123.66
990.096	-15.65
990.26	7.99
990.424	-15.26
990.588	9.74
990.752	106.8
990.915	53.52
991.079	14.58
991.243	16.9
991.407	52.75
991.571	35.31
991.734	57.79
991.898	55.27
992.062	135.28
992.226	24.46
992.389	14.19
992.553	-12.74
992.717	11.48
992.88	24.07
993.044	19.81
993.207	28.14
993.371	69.41
993.535	50.04
993.698	28.34
993.862	58.95
994.025	92.85
994.189	37.83
994.352	64.37
994.515	51.39
994.679	69.99
994.842	32.21
995.006	52.75
995.169	4.5
995.332	23.49
995.496	55.65
995.659	-25.91
995.822	11.29
995.985	50.04
996.149	70.96
996.312	28.53
996.475	103.7
996.638	15.16
996.801	82.2
996.964	99.63
997.128	6.64
997.291	22.72
997.454	52.36
997.617	-19.13
997.78	52.17
997.943	21.36
998.106	74.83
998.269	-18.94
998.432	26.4
998.595	30.47
998.758	-35.99
998.92	-38.51
999.083	-24.94
999.246	18.84
999.409	-1.31
999.572	-41.61
999.735	10.12
999.897	51.78
1000.06	-12.93
1000.223	15.94
1000.386	43.64
1000.548	56.04
1000.711	48.49
1000.874	51.39
1001.036	-8.48
1001.199	54.1
1001.361	-3.44
1001.524	-2.66
1001.687	65.73
1001.849	9.15
1002.012	29.89
1002.174	35.12
1002.337	43.45
1002.499	-0.53
1002.661	97.7
1002.824	-9.06
1002.986	-16.61
1003.149	41.9
1003.311	-1.31
1003.473	76.77
1003.636	-15.06
1003.798	40.35
1003.96	43.06
1004.123	27.95
1004.285	0.82
1004.447	12.45
1004.609	35.12
1004.771	75.03
1004.933	-19.13
1005.096	15.94
1005.258	-35.21
1005.42	14.97
1005.582	50.42
1005.744	29.89
1005.906	-2.47
1006.068	28.92
1006.23	-30.76
1006.392	-35.02
1006.554	-5.18
1006.716	60.5
1006.878	26.4
1007.04	-10.8
1007.202	7.02
1007.363	52.94
1007.525	31.05
1007.687	39.57
1007.849	71.73
1008.011	-14.29
1008.172	-26.88
1008.334	-2.86
1008.496	63.02
1008.658	-38.51
1008.819	12.64
1008.981	-30.56
1009.143	-32.5
1009.304	14
1009.466	16.71
1009.627	78.9
1009.789	111.45
1009.95	43.84
1010.112	13.22
1010.273	29.3
1010.435	-19.52
1010.596	9.54
1010.758	-4.21
1010.919	21.55
1011.081	-31.34
1011.242	2.37
1011.403	46.35
1011.565	21.36
1011.726	27.75
1011.887	-29.21
1012.049	17.29
1012.21	30.27
1012.371	65.53
1012.532	-28.04
1012.693	3.73
1012.855	14.97
1013.016	3.15
1013.177	50.23
1013.338	11.87
1013.499	84.52
1013.66	31.24
1013.821	57.79
1013.982	30.47
1014.143	38.6
1014.304	11.87
1014.465	29.89
1014.626	44.42
1014.787	6.64
1014.948	77.93
1015.109	-54.2
1015.27	33.57
1015.431	8.96
1015.592	-2.47
1015.752	61.47
1015.913	1.4
1016.074	22.91
1016.235	25.82
1016.395	15.74
1016.556	13.42
1016.717	40.74
1016.877	69.41
1017.038	-9.25
1017.199	36.09
1017.359	20.78
1017.52	13.8
1017.681	-11.96
1017.841	6.44
1018.002	-8.67
1018.162	-12.74
1018.323	51.78
1018.483	12.06
1018.644	0.24
1018.804	-7.9
1018.964	-13.13
1019.125	-0.92
1019.285	14
1019.446	-13.32
1019.606	-26.11
1019.766	-42.96
1019.926	19.81
1020.087	49.45
1020.247	-22.62
1020.407	62.24
1020.567	51.39
1020.728	3.92
1020.888	-1.7
1021.048	-12.55
1021.208	-1.5
1021.368	-3.83
1021.528	46.94
1021.688	44.22
1021.848	23.69
1022.008	23.1
1022.168	-10.22
1022.328	52.75
1022.488	38.02
1022.648	0.82
1022.808	30.85
1022.968	40.93
1023.128	13.22
1023.288	5.47
1023.448	19.62
1023.608	53.91
1023.767	42.48
1023.927	-16.03
1024.087	-7.31
1024.247	-27.66
1024.406	-4.21
1024.566	-21.65
1024.726	-30.56
1024.885	18.07
1025.045	30.08
1025.205	8.19
1025.364	7.8
1025.524	36.28
1025.683	-13.71
1025.843	21.36
1026.003	1.4
1026.162	58.37
1026.321	42.87
1026.481	30.85
1026.64	0.05
1026.8	-0.15
1026.959	7.8
1027.119	17.49
1027.278	-28.82
1027.437	14.77
1027.597	1.99
1027.756	21.36
1027.915	43.64
1028.074	15.55
1028.234	-6.73
1028.393	17.68
1028.552	30.08
1028.711	-57.3
1028.87	29.69
1029.03	-18.94
1029.189	6.05
1029.348	-53.04
1029.507	-4.21
1029.666	-18.94
1029.825	-26.49
1029.984	-5.76
1030.143	23.1
1030.302	-29.01
1030.461	-60.98
1030.62	11.67
1030.779	36.47
1030.938	-0.73
1031.097	-39.48
1031.255	35.12
1031.414	53.72
1031.573	43.84
1031.732	-29.59
1031.891	5.86
1032.049	49.84
1032.208	40.15
1032.367	-18.55
1032.525	-11.77
1032.684	-1.31
1032.843	-0.15
1033.001	-70.09
1033.16	171.13
1033.319	66.5
1033.477	35.31
1033.636	-26.49
1033.794	-36.96
1033.953	23.49
1034.111	28.53
1034.27	-20.1
1034.428	18.45
1034.587	-23.2
1034.745	36.28
1034.903	4.12
1035.062	14.77
1035.22	-18.16
1035.378	41.7
1035.537	1.02
1035.695	23.69
1035.853	27.56
1036.011	51.59
1036.17	31.44
1036.328	-48.97
1036.486	-2.08
1036.644	8.19
1036.802	-71.64
1036.96	-6.15
1037.119	-9.25
1037.277	1.99
1037.435	-40.06
1037.593	-34.83
1037.751	6.44
1037.909	35.31
1038.067	35.31
