Data from pine_FLMT105791__172__17-23-26-073.txt Node

Date: Mon Mar 20 17:23:26 GMT 2023
User: antho
Spectrometer: FLMT10579
Trigger mode: 0
Integration Time (sec): 1.000000E-1
Scans to average: 10
Electric dark correction enabled: true
Nonlinearity correction enabled: false
Boxcar width: 0
XAxis mode: Wavelengths
Number of Pixels in Spectrum: 3648
>>>>>Begin Spectral Data<<<<<
345.248	-171.93
345.464	-171.93
345.681	-171.93
345.898	-176.97
346.114	-175.62
346.331	-44.45
346.548	43.51
346.764	-13.45
346.981	-7.44
347.197	-5.7
347.414	33.24
347.631	-15.39
347.847	31.31
348.064	-14.61
348.28	10.19
348.497	-36.7
348.713	19.49
348.93	20.84
349.146	31.31
349.363	-12.67
349.579	11.16
349.796	9.41
350.012	-8.02
350.229	1.86
350.445	4.76
350.661	-25.85
350.878	-22.75
351.094	-10.54
351.311	10.77
351.527	18.33
351.743	-13.45
351.96	32.47
352.176	31.89
352.392	27.63
352.609	32.28
352.825	-18.87
353.041	12.32
353.257	-13.06
353.474	-20.23
353.69	21.04
353.906	-7.64
354.122	-15.58
354.339	39.06
354.555	-13.84
354.771	-28.37
354.987	59.21
355.203	62.69
355.42	-7.06
355.636	3.6
355.852	-20.04
356.068	10.19
356.284	-32.63
356.5	39.64
356.716	-17.91
356.932	17.74
357.148	12.32
357.364	3.99
357.58	37.89
357.796	34.99
358.012	29.76
358.228	17.16
358.444	-68.47
358.66	39.06
358.876	40.99
359.092	6.31
359.308	-2.41
359.524	18.91
359.74	-28.76
359.956	-16.94
360.172	28.21
360.388	55.14
360.604	-15.39
360.819	57.07
361.035	14.45
361.251	37.51
361.467	-20.42
361.683	40.99
361.898	12.13
362.114	5.15
362.33	29.37
362.546	48.94
362.762	21.43
362.977	1.28
363.193	-22.17
363.409	25.88
363.624	-35.54
363.84	-15.19
364.056	-22.17
364.271	6.51
364.487	25.3
364.703	-10.74
364.918	-24.49
365.134	2.05
365.35	-15.97
365.565	78.39
365.781	27.43
365.996	11.74
366.212	49.91
366.427	18.33
366.643	-14.61
366.858	12.32
367.074	-10.93
367.289	41.77
367.505	71.99
367.72	-18.1
367.936	0.89
368.151	45.84
368.367	10.38
368.582	1.86
368.798	-26.43
369.013	67.54
369.228	9.03
369.444	17.55
369.659	41.38
369.874	14.26
370.09	37.7
370.305	-51.81
370.52	-25.07
370.736	57.46
370.951	4.38
371.166	53.97
371.381	59.21
371.597	8.06
371.812	-30.5
372.027	-30.89
372.242	5.34
372.458	83.04
372.673	-42.12
372.888	-4.92
373.103	5.93
373.318	85.75
373.533	29.18
373.749	19.88
373.964	-38.64
374.179	75.29
374.394	-39.02
374.609	55.91
374.824	-39.22
375.039	47.39
375.254	-33.21
375.469	67.34
375.684	31.31
375.899	51.46
376.114	-15.39
376.329	26.46
376.544	61.53
376.759	28.4
376.974	-35.73
377.189	-9.77
377.404	-19.07
377.619	50.49
377.834	-20.23
378.049	-59.37
378.264	-22.56
378.478	30.53
378.693	-34.18
378.908	31.69
379.123	4.18
379.338	33.24
379.553	28.01
379.767	4.57
379.982	32.47
380.197	29.37
380.412	6.7
380.626	6.7
380.841	74.9
381.056	-0.27
381.271	26.27
381.485	-35.34
381.7	-20.81
381.915	40.22
382.129	-6.47
382.344	34.6
382.559	-19.46
382.773	47.97
382.988	-20.81
383.202	10.77
383.417	-17.52
383.632	94.47
383.846	15.81
384.061	20.07
384.275	26.08
384.49	11.93
384.704	22.78
384.919	4.76
385.133	16.39
385.348	25.3
385.562	-14.61
385.777	38.67
385.991	-2.21
386.206	-0.27
386.42	-29.53
386.634	55.72
386.849	17.94
387.063	8.83
387.277	-37.67
387.492	-8.41
387.706	-8.99
387.92	-30.69
388.135	51.07
388.349	6.31
388.563	45.26
388.778	-10.16
388.992	9.03
389.206	60.37
389.42	78.97
389.635	2.24
389.849	29.95
390.063	53.97
390.277	3.41
390.491	73.74
390.706	37.51
390.92	30.53
391.134	32.08
391.348	17.94
391.562	-58.98
391.776	-13.64
391.99	-26.82
392.205	44.87
392.419	-26.43
392.633	-4.73
392.847	62.5
393.061	-4.54
393.275	77.42
393.489	7.28
393.703	31.69
393.917	68.89
394.131	14.26
394.345	36.92
394.559	36.54
394.773	12.51
394.986	38.28
395.2	32.47
395.414	47.77
395.628	-2.41
395.842	6.31
396.056	-10.74
396.27	-43.87
396.484	23.94
396.697	-5.7
396.911	79.74
397.125	26.66
397.339	52.62
397.553	21.04
397.766	66.76
397.98	34.41
398.194	46.22
398.408	-10.35
398.621	12.71
398.835	31.69
399.049	5.54
399.262	70.25
399.476	39.64
399.69	14.84
399.903	55.52
400.117	3.79
400.331	27.04
400.544	-6.86
400.758	122.37
400.971	8.44
401.185	34.6
401.398	2.63
401.612	53.39
401.826	18.13
402.039	48.55
402.253	-4.15
402.466	22.98
402.68	20.07
402.893	0.31
403.106	34.41
403.32	8.06
403.533	47.39
403.747	3.02
403.96	15.23
404.174	42.35
404.387	-40.38
404.6	44.87
404.814	47.77
405.027	8.25
405.24	34.41
405.454	15.81
405.667	78.19
405.88	-21.01
406.094	31.31
406.307	41.77
406.52	38.47
406.733	-23.91
406.947	-31.66
407.16	85.36
407.373	68.31
407.586	-0.66
407.799	-15.77
408.012	65.79
408.226	21.04
408.439	55.72
408.652	-37.09
408.865	40.22
409.078	51.46
409.291	22.98
409.504	-11.71
409.717	38.86
409.93	29.76
410.143	29.18
410.357	-28.17
410.57	-28.76
410.783	10.77
410.996	49.13
411.209	28.01
411.421	34.21
411.634	17.55
411.847	-26.43
412.06	28.98
412.273	21.23
412.486	16.58
412.699	91.95
412.912	27.04
413.125	60.17
413.338	28.01
413.55	12.9
413.763	23.94
413.976	9.61
414.189	-3.96
414.402	13.29
414.615	59.79
414.827	-29.72
415.04	70.83
415.253	3.79
415.466	45.45
415.678	54.36
415.891	19.1
416.104	20.26
416.316	-3.76
416.529	-28.56
416.742	43.12
416.954	43.9
417.167	0.69
417.38	-11.51
417.592	37.89
417.805	-17.71
418.017	-19.46
418.23	40.41
418.442	-5.31
418.655	18.33
418.868	26.85
419.08	31.89
419.293	64.82
419.505	19.49
419.718	16
419.93	59.79
420.142	-9.38
420.355	59.01
420.567	79.16
420.78	52.62
420.992	19.68
421.205	66.96
421.417	-28.76
421.629	8.06
421.842	-5.7
422.054	-40.77
422.266	48.94
422.479	63.66
422.691	15.61
422.903	59.01
423.115	7.28
423.328	13.68
423.54	47.97
423.752	22.01
423.964	-15.97
424.177	31.69
424.389	9.61
424.601	134.38
424.813	38.09
425.025	45.64
425.238	48.74
425.45	2.63
425.662	-5.7
425.874	332.2
426.086	10.38
426.298	40.61
426.51	52.42
426.722	9.61
426.934	3.6
427.146	46.03
427.358	-13.45
427.57	39.06
427.782	29.95
427.994	13.87
428.206	9.41
428.418	-26.04
428.63	41.96
428.842	10.77
429.054	13.09
429.266	69.67
429.478	-15.77
429.69	37.89
429.902	-9.77
430.114	50.1
430.325	38.09
430.537	29.18
430.749	23.56
430.961	-18.1
431.173	32.08
431.384	63.08
431.596	-46.77
431.808	17.55
432.02	45.06
432.231	38.09
432.443	41.96
432.655	37.7
432.867	-12.67
433.078	31.89
433.29	99.7
433.502	43.12
433.713	55.33
433.925	20.65
434.136	62.5
434.348	-35.34
434.56	-44.64
434.771	96.41
434.983	-11.9
435.194	-4.54
435.406	5.54
435.617	47.19
435.829	81.87
436.04	54.94
436.252	81.68
436.463	78.39
436.675	49.32
436.886	29.76
437.098	33.24
437.309	59.98
437.521	29.37
437.732	38.67
437.943	28.21
438.155	44.48
438.366	-41.35
438.578	96.79
438.789	58.43
439	73.16
439.211	22.98
439.423	36.54
439.634	64.82
439.845	47.39
440.057	37.7
440.268	71.02
440.479	-5.51
440.69	41.57
440.902	4.18
441.113	30.92
441.324	23.75
441.535	34.41
441.746	77.61
441.957	-9.57
442.168	25.11
442.38	58.43
442.591	51.84
442.802	7.67
443.013	-6.09
443.224	36.73
443.435	21.23
443.646	41.19
443.857	26.85
444.068	-8.8
444.279	18.33
444.49	91.76
444.701	31.69
444.912	127.4
445.123	63.66
445.334	44.09
445.545	59.79
445.756	31.31
445.967	-0.86
446.178	44.09
446.388	99.7
446.599	53.01
446.81	76.64
447.021	44.67
447.232	100.09
447.443	99.51
447.653	0.89
447.864	80.91
448.075	39.44
448.286	90.98
448.496	45.84
448.707	104.35
448.918	27.82
449.129	153.95
449.339	12.51
449.55	54.36
449.761	29.95
449.971	89.04
450.182	18.71
450.393	87.69
450.603	29.76
450.814	66.37
451.024	50.1
451.235	65.79
451.446	85.94
451.656	104.54
451.867	16.39
452.077	53.01
452.288	112.29
452.498	105.51
452.709	40.99
452.919	83.42
453.13	52.42
453.34	124.11
453.55	10.38
453.761	104.93
453.971	59.59
454.182	103.19
454.392	104.16
454.602	129.92
454.813	86.33
455.023	75.87
455.233	22.01
455.444	83.23
455.654	-17.91
455.864	62.69
456.075	30.73
456.285	14.45
456.495	52.04
456.705	89.82
456.916	92.14
457.126	141.35
457.336	82.46
457.546	9.03
457.756	44.87
457.967	103.96
458.177	52.04
458.387	80.71
458.597	39.64
458.807	58.62
459.017	49.52
459.227	43.9
459.437	33.83
459.647	83.23
459.857	100.09
460.068	50.68
460.278	86.33
460.488	105.71
460.698	109.39
460.908	60.17
461.117	7.48
461.327	7.09
461.537	61.34
461.747	75.29
461.957	67.34
462.167	159.37
462.377	83.62
462.587	69.09
462.797	106.48
463.007	53.59
463.216	77.42
463.426	116.94
463.636	85.36
463.846	23.17
464.056	50.29
464.265	102.22
464.475	28.98
464.685	81.1
464.895	86.72
465.104	82.26
465.314	102.02
465.524	60.56
465.733	57.07
465.943	135.54
466.153	132.05
466.362	107.26
466.572	64.82
466.782	82.46
466.991	83.42
467.201	123.72
467.41	25.3
467.62	88.46
467.829	65.99
468.039	67.34
468.249	80.52
468.458	62.31
468.668	94.47
468.877	114.81
469.086	134.38
469.296	93.5
469.505	49.52
469.715	117.52
469.924	111.13
470.134	134.19
470.343	114.23
470.552	62.11
470.762	82.26
470.971	31.5
471.18	97.76
471.39	82.07
471.599	71.8
471.808	120.04
472.018	18.71
472.227	123.92
472.436	125.85
472.645	41.96
472.855	45.06
473.064	95.82
473.273	77.42
473.482	97.37
473.691	137.48
473.901	115.97
474.11	82.65
474.319	165.57
474.528	109
474.737	134.96
474.946	116.36
475.155	102.8
475.364	128.57
475.573	112.49
475.783	72.77
475.992	117.52
476.201	121.59
476.41	62.89
476.619	70.64
476.828	114.81
477.037	85.17
477.245	97.57
477.454	140
477.663	73.74
477.872	91.95
478.081	136.32
478.29	33.83
478.499	149.3
478.708	84.01
478.917	156.27
479.125	116.56
479.334	120.43
479.543	88.66
479.752	83.62
479.961	128.37
480.169	152.2
480.378	75.67
480.587	211.3
480.796	133.41
481.004	112.49
481.213	118.49
481.422	101.25
481.63	96.21
481.839	134.57
482.048	163.83
482.256	120.62
482.465	81.1
482.674	132.25
482.882	124.69
483.091	179.72
483.299	107.26
483.508	123.14
483.716	106.67
483.925	133.6
484.134	86.52
484.342	110.36
484.551	155.11
484.759	140.97
484.967	128.76
485.176	154.14
485.384	137.67
485.593	151.04
485.801	136.51
486.01	141.35
486.218	136.7
486.426	80.71
486.635	141.16
486.843	109.97
487.051	118.49
487.26	104.35
487.468	160.92
487.676	165.19
487.885	104.74
488.093	143.68
488.301	138.06
488.509	138.64
488.717	137.67
488.926	139.61
489.134	119.46
489.342	130.31
489.55	105.12
489.758	145.42
489.967	76.45
490.175	233.38
490.383	100.09
490.591	184.95
490.799	72.77
491.007	177.39
491.215	136.12
491.423	136.7
491.631	127.6
491.839	113.84
492.047	180.69
492.255	140.39
492.463	118.49
492.671	163.64
492.879	177
493.087	143.87
493.295	156.27
493.503	156.85
493.711	154.72
493.919	205.68
494.127	156.47
494.334	208.39
494.542	129.34
494.75	143.68
494.958	156.85
495.166	158.79
495.374	157.44
495.581	167.12
495.789	152.59
495.997	184.75
496.205	118.69
496.412	145.04
496.62	127.21
496.828	182.04
497.035	123.92
497.243	182.82
497.451	120.62
497.658	150.85
497.866	167.7
498.074	194.83
498.281	120.82
498.489	205.49
498.696	180.1
498.904	164.02
499.112	143.68
499.319	202.19
499.527	175.84
499.734	203.35
499.942	115.2
500.149	129.15
500.357	168.09
500.564	129.15
500.771	161.12
500.979	149.3
501.186	139.61
501.394	157.82
501.601	168.67
501.808	186.5
502.016	160.54
502.223	167.12
502.43	188.63
502.638	205.1
502.845	124.5
503.052	255.08
503.26	159.95
503.467	229.12
503.674	152.79
503.881	178.55
504.089	261.28
504.296	194.44
504.503	156.66
504.71	158.99
504.917	140.58
505.125	184.75
505.332	198.51
505.539	180.69
505.746	214.2
505.953	209.75
506.16	187.85
506.367	208.78
506.574	225.83
506.781	226.99
506.988	146.2
507.195	176.23
507.402	176.23
507.609	205.1
507.816	171
508.023	190.57
508.23	161.89
508.437	156.85
508.644	207.23
508.851	254.7
509.058	229.12
509.265	174.68
509.472	202.19
509.679	273.3
509.885	191.34
510.092	187.66
510.299	174.29
510.506	199.09
510.713	227.18
510.92	213.04
511.126	227.18
511.333	246.75
511.54	222.92
511.746	285.12
511.953	244.82
512.16	233.19
512.367	193.86
512.573	214.59
512.78	219.05
512.987	204.71
513.193	194.05
513.4	126.05
513.606	217.88
513.813	208.39
514.02	206.65
514.226	286.28
514.433	274.65
514.639	164.02
514.846	243.07
515.052	182.43
515.259	203.35
515.465	201.03
515.672	227.18
515.878	296.55
516.085	209.75
516.291	234.55
516.497	159.57
516.704	230.67
516.91	198.51
517.117	209.55
517.323	182.62
517.529	221.18
517.736	223.89
517.942	221.95
518.148	181.27
518.354	211.88
518.561	245.59
518.767	220.21
518.973	260.32
519.179	250.24
519.386	174.1
519.592	209.55
519.798	220.98
520.004	261.67
520.21	207.42
520.417	241.13
520.623	260.51
520.829	244.04
521.035	240.75
521.241	254.5
521.447	256.05
521.653	353.31
521.859	245.59
522.065	257.41
522.271	329.29
522.477	305.46
522.683	303.71
522.889	261.48
523.095	275.82
523.301	273.68
523.507	254.89
523.713	278.53
523.919	210.33
524.125	280.08
524.331	227.57
524.537	314.18
524.742	269.81
524.948	285.12
525.154	287.83
525.36	384.9
525.566	275.82
525.772	323.67
525.977	214.59
526.183	297.71
526.389	309.91
526.595	297.32
526.8	282.79
527.006	267.87
527.212	253.53
527.417	257.22
527.623	217.11
527.829	277.17
528.034	282.4
528.24	299.84
528.446	228.35
528.651	292.09
528.857	288.02
529.062	369.59
529.268	283.76
529.473	296.55
529.679	273.88
529.884	309.14
530.09	288.6
530.295	359.32
530.501	332.2
530.706	310.88
530.912	255.47
531.117	296.93
531.323	287.63
531.528	301.97
531.733	287.44
531.939	296.74
532.144	323.48
532.35	287.05
532.555	350.21
532.76	359.32
532.966	354.86
533.171	332
533.376	321.35
533.581	264
533.787	305.07
533.992	321.54
534.197	387.03
534.402	307.01
534.607	324.45
534.813	411.24
535.018	297.32
535.223	274.46
535.428	320.76
535.633	368.43
535.838	338.2
536.043	333.16
536.249	389.93
536.454	322.9
536.659	328.71
536.864	285.12
537.069	320.38
537.274	329.1
537.479	373.85
537.684	314.95
537.889	306.04
538.094	385.28
538.299	334.13
538.504	317.47
538.708	334.13
538.913	352.54
539.118	306.62
539.323	336.07
539.528	314.56
539.733	325.8
539.938	332.97
540.142	367.85
540.347	339.56
540.552	330.45
540.757	366.68
540.962	337.62
541.166	289.18
541.371	310.11
541.576	326.38
541.781	234.74
541.985	339.75
542.19	337.43
542.395	358.16
542.599	426.36
542.804	350.8
543.008	375.6
543.213	317.28
543.418	298.48
543.622	376.56
543.827	312.63
544.031	377.73
544.236	375.21
544.44	335.88
544.645	403.49
544.849	310.88
545.054	376.37
545.258	419.19
545.463	418.8
545.667	343.82
545.872	359.13
546.076	328.9
546.281	344.21
546.485	317.08
546.689	358.93
546.894	387.61
547.098	359.32
547.302	296.93
547.507	339.36
547.711	344.98
547.915	425
548.119	324.83
548.324	350.6
548.528	425.19
548.732	354.67
548.936	360.29
549.141	387.99
549.345	336.26
549.549	350.02
549.753	362.03
549.957	432.17
550.161	405.24
550.366	335.49
550.57	334.71
550.774	335.49
550.978	327.93
551.182	367.46
551.386	328.13
551.59	363.78
551.794	322.31
551.998	355.06
552.202	315.73
552.406	340.72
552.61	347.7
552.814	350.41
553.018	401.17
553.222	363.39
553.426	367.65
553.63	423.45
553.833	358.55
554.037	308.56
554.241	375.79
554.445	367.85
554.649	351.57
554.853	336.07
555.056	398.07
555.26	394.39
555.464	384.12
555.668	374.05
555.871	364.16
556.075	372.88
556.279	350.02
556.483	332.58
556.686	371.53
556.89	351.18
557.094	355.25
557.297	324.45
557.501	418.03
557.704	326.38
557.908	409.31
558.112	320.96
558.315	446.89
558.519	363.97
558.722	345.18
558.926	360.68
559.129	339.75
559.333	290.35
559.536	347.11
559.74	325.22
559.943	342.46
560.147	298.68
560.35	357.19
560.553	321.93
560.757	280.47
560.96	401.94
561.164	329.48
561.367	406.79
561.57	319.02
561.774	379.86
561.977	345.76
562.18	304.68
562.384	419.96
562.587	353.51
562.79	310.69
562.993	331.61
563.197	389.54
563.4	417.83
563.603	422.87
563.806	455.03
564.009	338.98
564.212	396.91
564.416	314.37
564.619	381.21
564.822	311.27
565.025	388.19
565.228	339.75
565.431	345.37
565.634	259.35
565.837	333.55
566.04	319.6
566.243	349.83
566.446	291.9
566.649	356.41
566.852	288.41
567.055	343.63
567.258	380.25
567.461	404.85
567.664	361.84
567.867	286.86
568.07	348.08
568.273	324.64
568.475	372.88
568.678	349.83
568.881	336.65
569.084	330.45
569.287	257.22
569.489	303.91
569.692	338.59
569.895	337.43
570.098	298.1
570.3	300.23
570.503	245.4
570.706	315.15
570.909	284.92
571.111	251.02
571.314	278.72
571.516	308.56
571.719	335.68
571.922	286.86
572.124	257.22
572.327	322.7
572.529	232.61
572.732	265.35
572.935	301.39
573.137	370.17
573.34	280.85
573.542	297.32
573.745	306.43
573.947	331.42
574.15	297.52
574.352	271.55
574.554	345.18
574.757	260.32
574.959	291.51
575.162	260.32
575.364	258.18
575.566	391.48
575.769	298.29
575.971	307.98
576.173	205.87
576.376	309.14
576.578	328.71
576.78	362.03
576.982	229.32
577.185	275.04
577.387	233.97
577.589	239
577.791	321.93
577.993	298.87
578.196	269.42
578.398	319.02
578.6	333.36
578.802	237.45
579.004	275.62
579.206	267.68
579.408	301.58
579.61	271.55
579.812	309.72
580.014	275.82
580.216	261.48
580.418	279.88
580.62	230.87
580.822	223.12
581.024	264.38
581.226	319.6
581.428	257.6
581.63	326.77
581.832	248.88
582.034	315.73
582.236	266.52
582.438	279.11
582.64	305.46
582.841	328.32
583.043	380.05
583.245	296.93
583.447	288.99
583.649	289.96
583.85	309.72
584.052	324.45
584.254	255.08
584.456	325.22
584.657	231.25
584.859	285.5
585.061	270
585.262	249.08
585.464	230.48
585.666	318.44
585.867	300.23
586.069	348.66
586.27	278.33
586.472	314.18
586.674	293.83
586.875	273.1
587.077	250.05
587.278	304.68
587.48	274.07
587.681	386.25
587.883	293.83
588.084	227.57
588.285	283.57
588.487	265.55
588.688	290.93
588.89	234.74
589.091	242.3
589.292	284.53
589.494	288.41
589.695	262.64
589.896	198.7
590.098	201.8
590.299	272.33
590.5	220.02
590.702	215.17
590.903	235.9
591.104	295.38
591.305	256.63
591.507	300.42
591.708	290.54
591.909	274.46
592.11	333.75
592.311	287.83
592.512	282.02
592.714	211.88
592.915	224.28
593.116	258.57
593.317	261.48
593.518	231.64
593.719	218.66
593.92	251.6
594.121	288.41
594.322	277.56
594.523	245.01
594.724	232.8
594.925	241.72
595.126	268.65
595.327	256.83
595.528	260.9
595.729	251.02
595.929	270.2
596.13	255.47
596.331	241.33
596.532	271.55
596.733	319.6
596.934	296.16
597.135	263.61
597.335	278.14
597.536	219.43
597.737	280.85
597.938	233.97
598.138	273.88
598.339	254.31
598.54	292.28
598.74	280.08
598.941	281.24
599.142	317.86
599.342	273.68
599.543	221.57
599.744	245.98
599.944	248.88
600.145	227.57
600.345	255.47
600.546	320.38
600.746	326.19
600.947	324.06
601.147	283.37
601.348	292.28
601.548	247.33
601.749	236.68
601.949	217.3
602.15	239.97
602.35	250.63
602.551	317.47
602.751	228.73
602.951	267.48
603.152	175.45
603.352	273.3
603.552	266.13
603.753	265.55
603.953	271.17
604.153	264.38
604.354	248.69
604.554	254.31
604.754	241.13
604.954	220.21
605.155	234.55
605.355	248.3
605.555	278.72
605.755	296.16
605.955	264.19
606.155	282.21
606.356	264.38
606.556	292.09
606.756	275.43
606.956	214.78
607.156	304.49
607.356	256.25
607.556	250.43
607.756	249.08
607.956	289.18
608.156	291.51
608.356	242.3
608.556	300.42
608.756	267.1
608.956	230.28
609.156	282.79
609.356	232.22
609.556	224.28
609.755	258.96
609.955	223.12
610.155	271.55
610.355	264.58
610.555	251.4
610.755	274.65
610.954	181.65
611.154	247.33
611.354	315.73
611.554	250.24
611.753	244.23
611.953	221.95
612.153	255.67
612.352	264.19
612.552	204.13
612.752	184.95
612.951	224.67
613.151	250.24
613.351	202.97
613.55	277.95
613.75	260.32
613.949	261.67
614.149	273.68
614.348	251.21
614.548	220.4
614.747	178.36
614.947	242.88
615.146	172.74
615.346	275.43
615.545	242.68
615.745	268.07
615.944	291.7
616.144	236.68
616.343	285.12
616.542	223.89
616.742	253.53
616.941	233.19
617.14	205.49
617.34	275.04
617.539	237.84
617.738	235.32
617.938	306.23
618.137	225.44
618.336	203.16
618.535	260.7
618.734	243.85
618.934	276.01
619.133	237.07
619.332	258.57
619.531	216.92
619.73	217.11
619.929	270.58
620.128	260.7
620.328	264.19
620.527	228.73
620.726	213.04
620.925	224.28
621.124	191.54
621.323	260.32
621.522	210.91
621.721	200.45
621.92	233.58
622.119	256.05
622.318	197.74
622.517	214.2
622.715	230.87
622.914	169.06
623.113	235.71
623.312	171.58
623.511	253.73
623.71	209.94
623.909	207.81
624.107	290.73
624.306	181.65
624.505	178.17
624.704	200.06
624.902	218.85
625.101	264.19
625.3	209.55
625.499	211.88
625.697	184.75
625.896	203.16
626.095	254.12
626.293	187.47
626.492	208.59
626.69	244.43
626.889	166.15
627.088	249.08
627.286	202.97
627.485	200.06
627.683	220.02
627.882	247.72
628.08	154.72
628.279	202.39
628.477	272.91
628.676	186.3
628.874	234.93
629.073	235.13
629.271	206.07
629.469	228.54
629.668	208.97
629.866	240.94
630.065	167.32
630.263	240.36
630.461	199.09
630.66	208
630.858	228.15
631.056	248.3
631.254	236.68
631.453	185.72
631.651	249.47
631.849	220.6
632.047	224.28
632.245	206.26
632.444	223.12
632.642	234.16
632.84	233.19
633.038	186.5
633.236	194.05
633.434	185.72
633.632	173.9
633.83	188.05
634.028	227.18
634.227	224.67
634.425	256.05
634.623	208.78
634.821	197.93
635.019	216.92
635.216	180.69
635.414	230.09
635.612	221.18
635.81	189.99
636.008	262.25
636.206	174.87
636.404	206.65
636.602	184.17
636.8	178.75
636.997	232.22
637.195	244.62
637.393	212.46
637.591	256.63
637.789	238.81
637.986	198.12
638.184	191.15
638.382	258.38
638.58	222.34
638.777	240.75
638.975	211.3
639.173	208
639.37	218.08
639.568	209.75
639.765	244.82
639.963	196.38
640.161	254.5
640.358	231.64
640.556	199.67
640.753	173.52
640.951	165.96
641.148	207.62
641.346	189.79
641.543	225.44
641.741	229.7
641.938	161.12
642.136	204.13
642.333	176.62
642.531	260.7
642.728	270.2
642.925	193.47
643.123	202.97
643.32	214.01
643.517	206.84
643.715	231.45
643.912	191.73
644.109	223.5
644.306	188.63
644.504	166.35
644.701	227.38
644.898	247.33
645.095	166.93
645.293	196.19
645.49	265.93
645.687	221.95
645.884	229.51
646.081	171.97
646.278	187.47
646.475	175.45
646.672	185.14
646.87	226.6
647.067	229.9
647.264	229.51
647.461	194.44
647.658	169.64
647.855	200.84
648.052	179.52
648.249	109.77
648.446	191.73
648.642	179.14
648.839	165.19
649.036	156.08
649.233	141.55
649.43	170.22
649.627	151.24
649.824	151.04
650.021	173.9
650.217	155.69
650.414	169.06
650.611	201.03
650.808	196.57
651.004	174.29
651.201	206.45
651.398	238.03
651.595	177.97
651.791	154.92
651.988	216.33
652.185	164.6
652.381	209.36
652.578	143.49
652.775	166.74
652.971	150.65
653.168	161.89
653.364	182.82
653.561	123.53
653.757	158.79
653.954	179.91
654.15	179.14
654.347	241.91
654.543	180.3
654.74	140
654.936	140.58
655.133	165.96
655.329	175.65
655.525	190.18
655.722	193.67
655.918	152.4
656.115	218.08
656.311	147.17
656.507	135.74
656.704	131.86
656.9	144.84
657.096	138.84
657.292	115.59
657.489	211.68
657.685	168.67
657.881	139.8
658.077	158.02
658.273	121.79
658.47	214.4
658.666	148.14
658.862	158.02
659.058	152.59
659.254	226.8
659.45	130.89
659.646	197.15
659.842	159.95
660.038	210.91
660.234	137.48
660.43	144.45
660.626	245.98
660.822	187.47
661.018	194.64
661.214	169.64
661.41	135.15
661.606	203.74
661.802	189.99
661.998	171.19
662.194	130.7
662.39	193.47
662.586	164.6
662.781	208.59
662.977	181.46
663.173	225.25
663.369	176.04
663.564	168.09
663.76	202.58
663.956	160.73
664.152	204.71
664.347	102.41
664.543	175.07
664.739	168.48
664.934	116.75
665.13	128.18
665.326	187.66
665.521	163.05
665.717	140.19
665.912	119.46
666.108	94.27
666.304	139.8
666.499	165.57
666.695	93.31
666.89	145.62
667.086	195.22
667.281	163.05
667.477	201.22
667.672	178.94
667.867	151.62
668.063	179.52
668.258	160.92
668.454	161.31
668.649	232.61
668.844	168.87
669.04	217.88
669.235	139.8
669.43	136.32
669.626	123.34
669.821	158.21
670.016	142.13
670.211	144.45
670.407	123.72
670.602	137.48
670.797	134.77
670.992	201.22
671.187	134.38
671.382	177.59
671.578	107.64
671.773	156.66
671.968	118.88
672.163	158.99
672.358	172.74
672.553	131.47
672.748	129.34
672.943	217.69
673.138	137.29
673.333	184.37
673.528	130.7
673.723	168.87
673.918	149.88
674.113	103.57
674.308	231.25
674.503	160.54
674.698	167.32
674.892	171.19
675.087	190.95
675.282	171.19
675.477	113.07
675.672	167.9
675.867	140
676.061	122.56
676.256	117.52
676.451	145.04
676.646	133.41
676.84	100.47
677.035	104.35
677.23	135.93
677.424	151.43
677.619	194.44
677.814	175.65
678.008	208.97
678.203	97.57
678.397	116.94
678.592	162.28
678.787	209.75
678.981	153.56
679.176	132.83
679.37	165.57
679.565	130.5
679.759	122.37
679.954	176.81
680.148	202.39
680.342	225.25
680.537	179.33
680.731	136.32
680.926	162.67
681.12	191.73
681.314	132.44
681.509	148.52
681.703	165.96
681.897	167.12
682.092	139.61
682.286	131.09
682.48	195.6
682.674	193.47
682.869	113.65
683.063	136.12
683.257	205.1
683.451	140.97
683.645	151.04
683.839	119.07
684.034	139.8
684.228	209.17
684.422	100.09
684.616	112.1
684.81	164.8
685.004	150.07
685.198	152.4
685.392	156.08
685.586	132.83
685.78	177.59
685.974	169.84
686.168	165.57
686.362	209.17
686.556	142.9
686.75	124.89
686.944	165.77
687.138	183.98
687.331	95.82
687.525	139.8
687.719	87.69
687.913	139.61
688.107	163.44
688.301	119.66
688.494	166.93
688.688	94.86
688.882	84.97
689.076	92.72
689.269	132.83
689.463	209.94
689.657	105.12
689.85	135.35
690.044	128.57
690.238	104.74
690.431	123.34
690.625	125.27
690.818	111.71
691.012	109.19
691.205	122.37
691.399	90.59
691.593	156.85
691.786	179.72
691.98	158.21
692.173	195.22
692.366	159.18
692.56	131.86
692.753	207.04
692.947	102.99
693.14	203.94
693.333	170.22
693.527	117.72
693.72	167.9
693.914	149.49
694.107	139.61
694.3	158.4
694.493	136.32
694.687	199.48
694.88	128.37
695.073	205.29
695.266	164.41
695.46	146.59
695.653	195.41
695.846	200.64
696.039	109.97
696.232	138.84
696.425	182.04
696.618	186.69
696.812	167.7
697.005	204.71
697.198	265.35
697.391	202.19
697.584	185.53
697.777	232.8
697.97	216.14
698.163	209.75
698.356	191.54
698.549	274.85
698.742	245.59
698.935	192.7
699.127	232.61
699.32	222.34
699.513	203.16
699.706	223.5
699.899	235.32
700.092	186.5
700.285	251.21
700.477	183.98
700.67	218.47
700.863	248.3
701.056	324.45
701.248	303.91
701.441	253.73
701.634	226.6
701.826	317.47
702.019	234.35
702.212	272.33
702.404	191.15
702.597	201.22
702.79	247.33
702.982	240.36
703.175	291.32
703.367	278.92
703.56	274.27
703.752	337.81
703.945	291.51
704.137	315.53
704.33	310.69
704.522	298.1
704.715	284.53
704.907	314.37
705.1	323.67
705.292	324.83
705.484	305.85
705.677	322.31
705.869	336.85
706.061	342.85
706.254	359.51
706.446	322.7
706.638	304.1
706.831	358.93
707.023	308.56
707.215	388.96
707.407	396.52
707.599	375.98
707.792	394.97
707.984	376.18
708.176	406.59
708.368	352.35
708.56	371.53
708.752	349.05
708.944	364.16
709.136	392.26
709.329	343.24
709.521	481.96
709.713	425.78
709.905	417.83
710.097	412.21
710.289	389.93
710.481	397.49
710.672	418.22
710.864	422.29
711.056	472.86
711.248	429.84
711.44	426.94
711.632	395.55
711.824	435.46
712.016	499.21
712.207	479.44
712.399	480.41
712.591	540.47
712.783	452.9
712.975	502.69
713.166	445.73
713.358	477.12
713.55	518.39
713.741	521.1
713.933	493.39
714.125	512.38
714.316	486.22
714.508	556.56
714.7	588.33
714.891	519.36
715.083	591.82
715.274	537.96
715.466	525.36
715.657	546.29
715.849	493.39
716.04	530.21
716.232	489.52
716.423	593.75
716.615	512.57
716.806	505.79
716.998	527.11
717.189	511.61
717.381	464.33
717.572	447.67
717.763	507.34
717.955	474.02
718.146	494.36
718.337	465.49
718.528	451.35
718.72	411.05
718.911	445.93
719.102	414.73
719.293	485.84
719.485	432.36
719.676	470.92
719.867	402.33
720.058	423.84
720.249	453.48
720.44	470.53
720.632	463.36
720.823	507.73
721.014	552.49
721.205	480.8
721.396	529.04
721.587	570.7
721.778	596.27
721.969	592.79
722.16	631.92
722.351	572.44
722.542	685.4
722.733	675.9
722.924	589.69
723.115	653.43
723.305	656.14
723.496	665.63
723.687	596.27
723.878	597.05
724.069	645.68
724.26	652.46
724.45	583.49
724.641	596.66
724.832	623.4
725.023	635.8
725.213	592.59
725.404	592.01
725.595	623.01
725.785	586.2
725.976	667.96
726.167	632.89
726.357	646.26
726.548	715.43
726.739	649.75
726.929	686.37
727.12	707.29
727.31	731.32
727.501	679.2
727.691	716.78
727.882	697.22
728.072	733.25
728.263	696.83
728.453	747.4
728.644	701.28
728.834	750.3
729.024	712.13
729.215	707.87
729.405	713.1
729.596	762.9
729.786	780.33
729.976	788.66
730.167	837.29
730.357	755.34
730.547	782.27
730.737	794.86
730.928	813.85
731.118	844.08
731.308	798.55
731.498	797.96
731.688	870.43
731.879	813.85
732.069	889.99
732.259	877.01
732.449	859.96
732.639	941.34
732.829	917.7
733.019	910.53
733.209	950.44
733.399	950.06
733.589	976.41
733.779	976.79
733.969	970.59
734.159	999.27
734.349	1042.28
734.539	1031.24
734.729	1025.81
734.919	1081.61
735.109	1094.98
735.299	1071.15
735.488	1094.4
735.678	1113.58
735.868	1101.95
736.058	1096.33
736.248	1042.86
736.437	1029.1
736.627	1022.9
736.817	1125.4
737.007	1079.48
737.196	1128.88
737.386	1069.21
737.576	1071.15
737.765	1088
737.955	1124.04
738.144	1196.89
738.334	1151.17
738.524	1102.73
738.713	1159.11
738.903	1152.91
739.092	1166.86
739.282	1163.76
739.471	1159.3
739.661	1130.63
739.85	1160.08
740.04	1225.76
740.229	1180.23
740.419	1215.3
740.608	1226.34
740.797	1223.82
740.987	1261.6
741.176	1253.46
741.365	1192.05
741.555	1185.65
741.744	1226.92
741.933	1237.77
742.123	1257.53
742.312	1280.01
742.501	1284.46
742.69	1297.25
742.88	1222.27
743.069	1332.32
743.258	1257.92
743.447	1303.06
743.636	1298.22
743.825	1308.68
744.014	1276.52
744.204	1292.41
744.393	1260.05
744.582	1307.52
744.771	1330.77
744.96	1299.38
745.149	1358.67
745.338	1281.36
745.527	1308.88
745.716	1305.78
745.905	1289.31
746.094	1355.76
746.283	1322.24
746.471	1329.8
746.66	1404.39
746.849	1348.98
747.038	1393.35
747.227	1333.48
747.416	1386.18
747.604	1320.31
747.793	1337.16
747.982	1372.81
748.171	1317.98
748.359	1410.79
748.548	1382.31
748.737	1328.64
748.926	1335.61
749.114	1256.76
749.303	1368.94
749.491	1363.32
749.68	1279.62
749.869	1383.08
750.057	1329.22
750.246	1314.3
750.434	1353.63
750.623	1350.14
750.811	1373.39
751	1381.72
751.188	1343.75
751.377	1356.92
751.565	1345.3
751.754	1304.81
751.942	1326.89
752.131	1371.07
752.319	1299.58
752.507	1261.6
752.696	1338.91
752.884	1393.16
753.072	1346.08
753.261	1357.31
753.449	1321.28
753.637	1336.58
753.825	1421.25
754.014	1343.17
754.202	1339.88
754.39	1377.27
754.578	1405.36
754.766	1316.24
754.955	1323.41
755.143	1420.28
755.331	1319.53
755.519	1328.83
755.707	1343.36
755.895	1326.89
756.083	1354.41
756.271	1323.79
756.459	1341.23
756.647	1350.92
756.835	1307.33
757.023	1320.31
757.211	1289.5
757.399	1317.21
757.587	1298.99
757.775	1272.26
757.963	1331.35
758.151	1318.37
758.339	1288.53
758.526	1296.28
758.714	1323.41
758.902	1269.74
759.09	1237.58
759.278	1133.92
759.465	1100.6
759.653	926.03
759.841	889.03
760.028	697.41
760.216	661.76
760.404	649.94
760.591	469.95
760.779	409.89
760.967	340.72
761.154	274.27
761.342	338.4
761.529	309.33
761.717	350.6
761.905	342.66
762.092	341.88
762.28	339.36
762.467	319.6
762.655	279.88
762.842	292.87
763.029	296.93
763.217	336.07
763.404	327.35
763.592	384.51
763.779	278.14
763.966	341.3
764.154	366.3
764.341	411.83
764.528	393.61
764.716	410.66
764.903	451.74
765.09	428.49
765.277	480.41
765.465	582.9
765.652	618.75
765.839	611.77
766.026	640.84
766.213	639.29
766.4	700.51
766.588	839.43
766.775	777.23
766.962	840.39
767.149	847.56
767.336	924.48
767.523	882.24
767.71	957.42
767.897	999.46
768.084	1045.77
768.271	1026.39
768.458	1084.9
768.645	1113.19
768.832	1075.8
769.019	1063.59
769.206	1079.09
769.392	1155.82
769.579	1212.97
769.766	1190.3
769.953	1135.28
770.14	1204.83
770.327	1194.95
770.513	1227.5
770.7	1247.85
770.887	1194.95
771.073	1239.13
771.26	1211.61
771.447	1179.84
771.634	1176.35
771.82	1297.83
772.007	1203.28
772.193	1218.2
772.38	1246.1
772.567	1197.08
772.753	1228.66
772.94	1255.98
773.126	1253.46
773.313	1262.76
773.499	1276.13
773.686	1230.41
773.872	1221.69
774.059	1207.74
774.245	1199.6
774.432	1210.06
774.618	1147.68
774.804	1270.51
774.991	1184.1
775.177	1236.03
775.363	1219.95
775.55	1238.35
775.736	1158.92
775.922	1202.12
776.109	1193.98
776.295	1205.8
776.481	1201.73
776.667	1218.2
776.853	1186.04
777.04	1175.77
777.226	1175.77
777.412	1269.35
777.598	1170.93
777.784	1166.86
777.97	1161.63
778.156	1219.17
778.342	1189.72
778.528	1160.47
778.715	1097.69
778.901	1177.13
779.087	1209.68
779.272	1179.45
779.458	1150.97
779.644	1208.9
779.83	1124.43
780.016	1237.96
780.202	1184.3
780.388	1125.2
780.574	1097.69
780.76	1135.86
780.946	1195.34
781.131	1154.27
781.317	1143.61
781.503	1109.32
781.689	1132.37
781.874	1220.14
782.06	1154.27
782.246	1139.73
782.432	1132.57
782.617	1151.94
782.803	1204.06
782.989	1060.69
783.174	1093.82
783.36	1045.38
783.545	1118.42
783.731	1106.22
783.916	1032.59
784.102	1145.93
784.288	1047.51
784.473	1100.4
784.659	1107.38
784.844	1150.78
785.029	1070.57
785.215	1094.98
785.4	1067.08
785.586	1141.87
785.771	1070.37
785.956	1098.27
786.142	1127.92
786.327	1053.52
786.512	1067.47
786.698	1054.68
786.883	1046.93
787.068	1050.22
787.254	1070.18
787.439	1057.59
787.624	1087.62
787.809	1034.92
787.994	1048.48
788.18	1113.19
788.365	1002.56
788.55	1074.05
788.735	1051.77
788.92	1035.5
789.105	1051.97
789.29	1057
789.475	981.44
789.66	1013.22
789.845	1001.4
790.03	1000.24
790.215	1037.63
790.4	1050.22
790.585	1065.34
790.77	1026
790.955	953.16
791.14	1000.62
791.325	1084.52
791.51	906.46
791.695	1020.39
791.879	979.89
792.064	950.25
792.249	1086.07
792.434	985.51
792.618	983.77
792.803	1016.51
792.988	953.54
793.173	1009.34
793.357	985.9
793.542	966.52
793.727	993.07
793.911	1001.79
794.096	962.26
794.281	1026
794.465	1061.65
794.65	991.52
794.834	981.83
795.019	1032.4
795.203	1061.65
795.388	1026.39
795.572	1062.62
795.757	1019.03
795.941	1037.24
796.126	1022.52
796.31	1006.82
796.494	1022.32
796.679	986.29
796.863	990.16
797.048	1027.75
797.232	1034.92
797.416	1003.53
797.601	1014.96
797.785	1054.68
797.969	1041.5
798.153	992.68
798.338	1025.23
798.522	1030.07
798.706	1018.45
798.89	1038.02
799.074	1103.31
799.258	1061.65
799.443	1034.92
799.627	1020.58
799.811	1045.38
799.995	985.71
800.179	998.3
800.363	996.36
800.547	1020.39
800.731	1037.44
800.915	1020.19
801.099	1039.18
801.283	1001.4
801.467	1040.92
801.651	1020.58
801.835	1042.28
802.019	1038.02
802.202	1027.36
802.386	999.65
802.57	1010.31
802.754	1025.04
802.938	986.87
803.121	996.56
803.305	1044.8
803.489	977.18
803.673	1002.95
803.856	1031.04
804.04	1009.34
804.224	1028.91
804.407	1024.26
804.591	1024.26
804.775	1021.35
804.958	1029.69
805.142	1131.6
805.326	1013.6
805.509	1000.24
805.693	1039.95
805.876	1087.42
806.06	1013.02
806.243	1039.37
806.427	1060.88
806.61	1069.21
806.794	1007.4
806.977	1063.98
807.16	1026.2
807.344	1052.35
807.527	1027.94
807.71	1022.32
807.894	1052.94
808.077	1078.7
808.26	1027.94
808.444	1014.19
808.627	1052.55
808.81	1038.21
808.993	1005.47
809.177	965.94
809.36	1012.44
809.543	1039.57
809.726	956.84
809.909	971.95
810.092	949.28
810.276	961.87
810.459	994.42
810.642	960.91
810.825	944.05
811.008	951.61
811.191	913.63
811.374	877.59
811.557	906.66
811.74	978.73
811.923	870.43
812.106	884.96
812.289	853.38
812.472	895.81
812.654	912.66
812.837	884.38
813.02	863.06
813.203	844.08
813.386	762.7
813.569	815.6
813.751	769.29
813.934	776.65
814.117	791.18
814.3	750.88
814.482	734.22
814.665	743.91
814.848	730.35
815.03	713.1
815.213	708.65
815.396	716.59
815.578	696.63
815.761	648.2
815.943	729.77
816.126	666.41
816.309	663.12
816.491	630.95
816.674	608.87
816.856	638.9
817.039	611.58
817.221	666.02
817.403	617.59
817.586	607.32
817.768	650.91
817.951	602.86
818.133	582.71
818.315	623.98
818.498	664.67
818.68	688.11
818.862	646.26
819.045	669.7
819.227	647.04
819.409	632.5
819.591	665.05
819.774	628.82
819.956	619.52
820.138	704.38
820.32	679.39
820.502	648.97
820.684	709.23
820.866	724.73
821.048	751.27
821.231	728.99
821.413	726.47
821.595	730.35
821.777	733.06
821.959	699.73
822.141	762.7
822.323	641.03
822.505	665.05
822.686	683.07
822.868	648.39
823.05	576.51
823.232	601.31
823.414	533.69
823.596	587.36
823.778	550.55
823.96	576.7
824.141	576.32
824.323	556.94
824.505	623.01
824.687	641.8
824.868	645.1
825.05	728.8
825.232	720.66
825.413	763.86
825.595	723.37
825.777	664.28
825.958	699.35
826.14	669.32
826.321	745.26
826.503	678.62
826.685	695.67
826.866	740.03
827.048	719.3
827.229	664.86
827.411	678.03
827.592	650.52
827.773	658.27
827.955	631.54
828.136	630.95
828.318	580.97
828.499	660.79
828.68	617.59
828.862	656.14
829.043	706.71
829.224	651.88
829.406	606.54
829.587	632.31
829.768	607.32
829.949	643.35
830.131	638.7
830.312	698.96
830.493	635.6
830.674	656.33
830.855	642.58
831.036	638.51
831.218	689.47
831.399	677.65
831.58	628.24
831.761	635.02
831.942	656.72
832.123	625.53
832.304	618.17
832.485	615.45
832.666	603.05
832.847	661.37
833.028	618.17
833.209	657.69
833.389	638.12
833.57	596.27
833.751	635.41
833.932	691.6
834.113	661.18
834.294	629.79
834.475	632.31
834.655	689.08
834.836	699.15
835.017	643.74
835.198	568.95
835.378	642.97
835.559	646.84
835.74	595.3
835.92	638.9
836.101	617.2
836.281	644.13
836.462	654.59
836.643	685.78
836.823	701.87
837.004	640.84
837.184	705.16
837.365	676.1
837.545	694.12
837.726	688.69
837.906	731.9
838.087	662.73
838.267	650.72
838.448	635.02
838.628	677.65
838.808	682.68
838.989	752.63
839.169	591.62
839.349	689.27
839.53	709.42
839.71	689.27
839.89	653.04
840.07	711.55
840.251	623.01
840.431	696.83
840.611	643.94
840.791	650.91
840.971	691.4
841.151	656.33
841.332	690.63
841.512	713.1
841.692	613.9
841.872	680.36
842.052	679.58
842.232	709.03
842.412	621.07
842.592	621.65
842.772	642.58
842.952	642.97
843.132	650.91
843.312	636.96
843.492	629.4
843.672	676.1
843.851	610.42
844.031	648.39
844.211	628.05
844.391	620.3
844.571	645.29
844.751	669.9
844.93	661.37
845.11	664.86
845.29	646.45
845.47	677.26
845.649	646.84
845.829	670.09
846.009	589.49
846.188	663.5
846.368	628.44
846.547	628.63
846.727	667.77
846.907	590.65
847.086	627.85
847.266	669.7
847.445	644.71
847.625	593.56
847.804	613.13
847.984	618.36
848.163	612.16
848.343	600.34
848.522	633.09
848.701	667.57
848.881	593.56
849.06	611.97
849.239	672.03
849.419	656.72
849.598	582.13
849.777	634.25
849.957	646.45
850.136	587.75
850.315	553.07
850.494	559.85
850.674	558.69
850.853	626.3
851.032	587.36
851.211	669.12
851.39	596.08
851.569	547.64
851.748	547.84
851.927	623.01
852.107	571.47
852.286	557.91
852.465	553.65
852.644	616.04
852.823	595.3
853.002	581.35
853.181	598.79
853.359	580
853.538	538.54
853.717	630.95
853.896	535.63
854.075	498.82
854.254	547.64
854.433	468.98
854.611	556.36
854.79	468.4
854.969	524.97
855.148	539.31
855.327	502.11
855.505	503.86
855.684	505.21
855.863	510.44
856.041	474.02
856.22	549.77
856.399	500.95
856.577	571.86
856.756	547.64
856.934	644.52
857.113	684.43
857.291	606.15
857.47	522.07
857.648	543.96
857.827	612.74
858.005	588.33
858.184	517.22
858.362	604.8
858.541	536.02
858.719	555.01
858.898	582.9
859.076	539.31
859.254	603.25
859.433	535.24
859.611	533.5
859.789	513.93
859.967	582.71
860.146	619.14
860.324	517.81
860.502	518.97
860.68	470.14
860.859	518.19
861.037	506.96
861.215	552.1
861.393	549
861.571	567.02
861.749	529.24
861.927	555.97
862.105	542.8
862.283	524.78
862.461	497.07
862.639	490.68
862.817	518.19
862.995	547.64
863.173	503.08
863.351	515.67
863.529	547.06
863.707	558.11
863.885	519.36
864.063	474.99
864.241	473.82
864.418	556.56
864.596	493.39
864.774	481.96
864.952	493.97
865.129	522.84
865.307	511.99
865.485	450.96
865.663	561.79
865.84	474.99
866.018	491.46
866.196	382.96
866.373	464.53
866.551	459.68
866.728	422.68
866.906	431.01
867.084	447.09
867.261	490.68
867.439	475.18
867.616	498.62
867.794	485.26
867.971	476.54
868.149	462.78
868.326	523.81
868.503	484.48
868.681	453.29
868.858	460.46
869.035	425.78
869.213	508.12
869.39	498.24
869.567	530.21
869.745	458.13
869.922	484.48
870.099	496.49
870.276	517.22
870.454	511.8
870.631	506.18
870.808	475.96
870.985	501.92
871.162	533.69
871.339	512.19
871.517	447.48
871.694	445.15
871.871	479.06
872.048	458.52
872.225	454.26
872.402	453.48
872.579	416.67
872.756	487.97
872.933	408.92
873.11	460.46
873.287	476.34
873.463	465.88
873.64	458.33
873.817	460.84
873.994	454.84
874.171	445.34
874.348	469.37
874.524	383.54
874.701	456.97
874.878	420.54
875.055	455.23
875.231	437.98
875.408	467.43
875.585	400.78
875.762	441.86
875.938	439.53
876.115	430.23
876.291	453.29
876.468	440.5
876.645	395.16
876.821	435.85
876.998	407.95
877.174	445.54
877.351	430.81
877.527	405.43
877.704	458.33
877.88	435.66
878.057	408.53
878.233	495.14
878.409	430.81
878.586	436.24
878.762	431.2
878.938	414.15
879.115	349.44
879.291	435.85
879.467	357.77
879.644	390.9
879.82	442.05
879.996	419.58
880.172	366.68
880.349	388.77
880.525	422.09
880.701	383.54
880.877	378.5
881.053	407.18
881.229	392.06
881.405	424.03
881.581	375.79
881.757	416.28
881.933	404.08
882.109	435.08
882.285	404.66
882.461	365.13
882.637	372.69
882.813	367.65
882.989	395.55
883.165	438.18
883.341	374.43
883.517	445.54
883.693	396.33
883.869	414.34
884.044	373.66
884.22	401.94
884.396	433.72
884.572	409.31
884.747	429.46
884.923	417.06
885.099	407.18
885.275	436.82
885.45	360.29
885.626	369.78
885.801	387.99
885.977	397.88
886.153	345.18
886.328	404.66
886.504	395.94
886.679	414.73
886.855	385.67
887.03	444.76
887.206	411.24
887.381	389.35
887.557	405.24
887.732	417.64
887.908	411.24
888.083	434.11
888.258	385.09
888.434	404.85
888.609	394.39
888.784	442.44
888.96	365.13
889.135	376.18
889.31	371.72
889.485	390.71
889.661	357.96
889.836	413.38
890.011	394.97
890.186	406.79
890.361	383.54
890.537	402.72
890.712	374.24
890.887	410.28
891.062	384.31
891.237	444.57
891.412	374.63
891.587	367.85
891.762	431.78
891.937	423.64
892.112	358.35
892.287	360.48
892.462	359.71
892.637	318.83
892.812	352.35
892.987	367.65
893.161	327.93
893.336	358.35
893.511	358.74
893.686	352.35
893.861	347.11
894.035	378.5
894.21	379.66
894.385	296.74
894.56	386.64
894.734	310.69
894.909	342.27
895.084	317.47
895.258	333.94
895.433	365.52
895.608	333.55
895.782	319.02
895.957	323.28
896.131	295.19
896.306	283.18
896.48	257.6
896.655	304.88
896.829	239.2
897.004	255.86
897.178	253.92
897.353	223.89
897.527	323.48
897.701	299.84
897.876	221.95
898.05	295
898.224	271.17
898.399	318.83
898.573	264.58
898.747	201.22
898.921	292.28
899.096	213.04
899.27	199.48
899.444	202
899.618	233.77
899.792	220.4
899.967	220.4
900.141	246.95
900.315	216.33
900.489	213.43
900.663	257.02
900.837	243.46
901.011	183.79
901.185	303.52
901.359	267.48
901.533	226.02
901.707	246.37
901.881	207.04
902.055	182.82
902.229	215.75
902.403	265.93
902.576	246.56
902.75	235.32
902.924	334.71
903.098	246.95
903.272	267.29
903.446	320.96
903.619	263.42
903.793	289.96
903.967	236.68
904.14	313.98
904.314	296.35
904.488	257.6
904.661	288.99
904.835	283.76
905.009	328.51
905.182	351.76
905.356	322.7
905.529	322.9
905.703	276.98
905.876	260.9
906.05	277.37
906.223	252.18
906.397	204.32
906.57	230.28
906.744	210.91
906.917	203.35
907.09	218.27
907.264	240.36
907.437	224.86
907.61	203.55
907.784	216.72
907.957	217.5
908.13	200.45
908.304	257.6
908.477	199.67
908.65	205.1
908.823	185.53
908.996	270
909.17	203.16
909.343	218.27
909.516	228.15
909.689	219.43
909.862	184.56
910.035	200.25
910.208	204.9
910.381	185.72
910.554	262.83
910.727	203.55
910.9	204.13
911.073	179.72
911.246	237.65
911.419	235.52
911.592	235.13
911.765	190.18
911.938	181.65
912.11	207.04
912.283	217.69
912.456	239.78
912.629	214.98
912.802	177.59
912.974	191.34
913.147	181.07
913.32	122.37
913.493	139.42
913.665	166.15
913.838	164.22
914.01	143.49
914.183	181.65
914.356	122.56
914.528	186.89
914.701	227.18
914.873	231.06
915.046	152.98
915.218	163.83
915.391	132.44
915.563	158.99
915.736	187.85
915.908	204.32
916.081	165.38
916.253	134.77
916.425	166.35
916.598	166.74
916.77	162.28
916.942	154.34
917.115	91.95
917.287	202.58
917.459	173.71
917.632	143.68
917.804	106.29
917.976	176.23
918.148	153.56
918.32	147.17
918.493	183.01
918.665	208.78
918.837	170.22
919.009	220.21
919.181	229.9
919.353	178.75
919.525	156.08
919.697	168.67
919.869	140.39
920.041	203.35
920.213	266.13
920.385	165.57
920.557	176.62
920.729	216.92
920.901	176.62
921.073	178.55
921.244	191.34
921.416	236.1
921.588	194.25
921.76	182.24
921.932	252.37
922.103	176.81
922.275	176.04
922.447	188.05
922.619	113.26
922.79	182.82
922.962	156.27
923.134	211.1
923.305	138.84
923.477	108.03
923.648	121.98
923.82	127.4
923.991	112.87
924.163	122.76
924.335	136.7
924.506	118.49
924.677	179.14
924.849	132.83
925.02	133.6
925.192	157.44
925.363	151.24
925.535	172.55
925.706	142.13
925.877	187.85
926.049	113.07
926.22	148.72
926.391	139.42
926.562	165.57
926.734	101.06
926.905	153.17
927.076	104.35
927.247	145.42
927.419	108.81
927.59	123.34
927.761	118.3
927.932	103.38
928.103	152.2
928.274	113.65
928.445	119.07
928.616	123.14
928.787	127.4
928.958	146
929.129	138.06
929.3	131.09
929.471	89.62
929.642	47.77
929.813	29.18
929.984	139.42
930.155	28.21
930.326	97.76
930.496	59.98
930.667	10.96
930.838	91.37
931.009	33.44
931.18	69.86
931.35	57.27
931.521	83.23
931.692	27.43
931.863	-1.05
932.033	69.67
932.204	85.36
932.374	59.21
932.545	28.01
932.716	81.87
932.886	77.61
933.057	14.45
933.227	17.94
933.398	125.85
933.568	36.73
933.739	-9.19
933.909	17.16
934.08	80.91
934.25	8.83
934.421	-18.87
934.591	49.71
934.761	16
934.932	-43.87
935.102	6.12
935.272	-21.2
935.443	21.81
935.613	-9.96
935.783	24.72
935.953	-7.64
936.123	143.1
936.294	-44.84
936.464	-8.99
936.634	24.91
936.804	-6.28
936.974	-31.47
937.144	-4.54
937.314	14.84
937.484	4.57
937.655	-20.42
937.825	40.99
937.995	-10.74
938.165	28.21
938.334	4.76
938.504	14.06
938.674	-33.21
938.844	-30.11
939.014	57.27
939.184	40.02
939.354	37.31
939.524	40.41
939.694	15.03
939.863	5.34
940.033	83.81
940.203	76.45
940.373	49.13
940.542	53.97
940.712	19.68
940.882	40.22
941.051	82.65
941.221	43.71
941.391	69.28
941.56	25.3
941.73	5.54
941.899	136.51
942.069	29.56
942.238	54.17
942.408	18.71
942.577	52.62
942.747	25.3
942.916	-5.89
943.086	-6.28
943.255	50.49
943.425	39.64
943.594	16
943.763	-42.71
943.933	-16.55
944.102	-28.76
944.271	30.92
944.441	26.46
944.61	19.29
944.779	14.26
944.948	91.37
945.117	-21.78
945.287	0.69
945.456	-35.54
945.625	-6.09
945.794	41.77
945.963	5.93
946.132	23.94
946.301	4.38
946.47	44.29
946.639	-47.55
946.808	-25.66
946.977	-1.63
947.146	64.05
947.315	-1.05
947.484	51.26
947.653	-15.58
947.822	6.7
947.991	-31.08
948.16	71.99
948.329	47.58
948.498	16.19
948.666	16.39
948.835	32.86
949.004	-9.38
949.173	-53.36
949.341	40.02
949.51	77.81
949.679	60.76
949.847	44.29
950.016	83.42
950.185	59.59
950.353	-26.24
950.522	7.09
950.69	63.27
950.859	-22.17
951.028	47.77
951.196	37.31
951.365	12.13
951.533	35.18
951.701	70.64
951.87	41.77
952.038	2.05
952.207	27.82
952.375	64.82
952.543	19.29
952.712	6.51
952.88	-7.44
953.048	68.31
953.217	15.42
953.385	17.16
953.553	49.91
953.721	-52.59
953.89	-0.47
954.058	-13.64
954.226	-21.01
954.394	20.65
954.562	4.38
954.73	9.61
954.898	13.09
955.067	50.1
955.235	10.96
955.403	48.36
955.571	64.82
955.739	53.97
955.907	-23.52
956.075	14.84
956.243	-8.02
956.41	47.58
956.578	-74.67
956.746	-23.14
956.914	-25.66
957.082	15.23
957.25	18.33
957.418	-4.15
957.585	-17.32
957.753	77.42
957.921	-39.41
958.089	-1.05
958.256	39.64
958.424	28.59
958.592	16.39
958.759	-11.71
958.927	49.32
959.095	5.34
959.262	13.87
959.43	47.58
959.597	-4.54
959.765	14.26
959.932	-9.77
960.1	67.54
960.267	-9.77
960.435	-0.47
960.602	63.86
960.77	-3.96
960.937	-39.22
961.104	17.55
961.272	-14.42
961.439	-10.74
961.606	28.59
961.774	55.72
961.941	28.4
962.108	24.53
962.275	5.73
962.443	65.6
962.61	49.71
962.777	92.34
962.944	34.41
963.111	31.5
963.278	30.73
963.446	11.54
963.613	24.72
963.78	20.84
963.947	34.79
964.114	23.56
964.281	102.02
964.448	35.18
964.615	22.78
964.782	34.21
964.949	80.13
965.116	47
965.282	62.89
965.449	11.93
965.616	-27.59
965.783	38.47
965.95	47.19
966.117	-13.64
966.283	22.78
966.45	27.63
966.617	55.91
966.784	63.47
966.95	34.41
967.117	47.58
967.284	-7.64
967.45	-25.85
967.617	59.98
967.784	35.96
967.95	89.62
968.117	27.82
968.283	68.12
968.45	108.42
968.616	17.36
968.783	72.19
968.949	38.28
969.116	66.57
969.282	48.16
969.449	26.27
969.615	13.87
969.781	-22.94
969.948	-5.7
970.114	-9.57
970.28	71.41
970.447	30.14
970.613	52.81
970.779	10.19
970.945	16.39
971.112	16.78
971.278	28.21
971.444	33.05
971.61	63.08
971.776	20.46
971.942	44.09
972.108	46.22
972.275	15.42
972.441	34.99
972.607	87.49
972.773	-4.73
972.939	31.69
973.105	16.97
973.271	0.69
973.437	16
973.602	18.33
973.768	42.74
973.934	26.08
974.1	49.71
974.266	-52.78
974.432	32.08
974.598	34.21
974.763	38.28
974.929	13.29
975.095	78.97
975.261	3.21
975.426	-5.51
975.592	33.44
975.758	79.16
975.923	-12.09
976.089	1.66
976.255	50.87
976.42	60.76
976.586	39.64
976.751	29.76
976.917	90.21
977.082	35.76
977.248	-18.87
977.413	-49.87
977.579	13.48
977.744	46.03
977.91	-28.17
978.075	24.14
978.24	61.14
978.406	25.88
978.571	11.74
978.736	15.61
978.902	38.09
979.067	6.31
979.232	-28.17
979.397	29.37
979.563	81.68
979.728	3.41
979.893	28.98
980.058	7.67
980.223	57.27
980.388	40.8
980.554	22.78
980.719	-17.52
980.884	29.18
981.049	53.59
981.214	31.11
981.379	60.95
981.544	-9.38
981.709	26.08
981.874	17.74
982.039	18.71
982.204	61.92
982.368	54.36
982.533	-25.07
982.698	71.99
982.863	54.56
983.028	7.09
983.193	44.67
983.357	18.71
983.522	45.64
983.687	8.44
983.852	16.97
984.016	-8.8
984.181	20.07
984.346	31.31
984.51	48.36
984.675	45.45
984.839	48.55
985.004	17.74
985.168	40.41
985.333	44.48
985.498	14.45
985.662	58.24
985.827	26.46
985.991	25.3
986.155	27.82
986.32	54.94
986.484	75.67
986.649	35.57
986.813	-23.91
986.977	25.3
987.142	65.6
987.306	-13.84
987.47	-20.04
987.634	25.69
987.799	34.02
987.963	38.67
988.127	58.24
988.291	112.87
988.455	41.96
988.62	15.81
988.784	62.69
988.948	56.69
989.112	15.23
989.276	15.42
989.44	39.64
989.604	-9.77
989.768	31.11
989.932	87.69
990.096	3.41
990.26	-12.48
990.424	-7.64
990.588	23.17
990.752	89.24
990.915	60.76
991.079	-11.32
991.243	4.18
991.407	31.89
991.571	12.9
991.734	43.32
991.898	80.32
992.062	116.75
992.226	17.94
992.389	-19.65
992.553	-19.07
992.717	-11.9
992.88	16.58
993.044	20.46
993.207	38.09
993.371	64.82
993.535	52.23
993.698	20.07
993.862	55.52
994.025	47.97
994.189	19.68
994.352	13.68
994.515	44.29
994.679	46.42
994.842	1.28
995.006	16.78
995.169	-5.7
995.332	7.28
995.496	40.99
995.659	-47.36
995.822	7.09
995.985	18.52
996.149	57.46
996.312	18.52
996.475	86.14
996.638	3.02
996.801	66.18
996.964	90.01
997.128	3.41
997.291	14.45
997.454	15.03
997.617	-34.57
997.78	60.37
997.943	11.93
998.106	49.71
998.269	-18.68
998.432	0.69
998.595	40.61
998.758	-20.42
998.92	3.99
999.083	-37.47
999.246	-0.27
999.409	3.6
999.572	-22.94
999.735	-9.57
999.897	34.6
1000.06	8.64
1000.223	9.8
1000.386	39.44
1000.548	43.71
1000.711	50.68
1000.874	20.65
1001.036	-20.81
1001.199	59.98
1001.361	-29.72
1001.524	23.17
1001.687	47
1001.849	-10.93
1002.012	-1.24
1002.174	22.59
1002.337	46.22
1002.499	2.83
1002.661	55.91
1002.824	7.67
1002.986	-4.34
1003.149	20.65
1003.311	-10.54
1003.473	65.02
1003.636	7.09
1003.798	16.97
1003.96	26.85
1004.123	-3.37
1004.285	0.5
1004.447	-24.3
1004.609	1.66
1004.771	86.33
1004.933	-33.02
1005.096	-12.67
1005.258	-44.84
1005.42	-32.44
1005.582	64.63
1005.744	25.11
1005.906	-8.8
1006.068	13.29
1006.23	-6.67
1006.392	-27.79
1006.554	-6.09
1006.716	72.38
1006.878	45.26
1007.04	-38.83
1007.202	-12.48
1007.363	15.03
1007.525	0.5
1007.687	22.39
1007.849	57.46
1008.011	-31.08
1008.172	-34.18
1008.334	-1.05
1008.496	22.98
1008.658	-17.91
1008.819	-15.77
1008.981	-41.74
1009.143	-23.52
1009.304	-8.8
1009.466	46.42
1009.627	77.22
1009.789	108.81
1009.95	52.62
1010.112	-17.52
1010.273	35.96
1010.435	-6.09
1010.596	2.05
1010.758	-4.73
1010.919	13.09
1011.081	-20.81
1011.242	13.87
1011.403	43.12
1011.565	23.36
1011.726	1.08
1011.887	-17.91
1012.049	11.74
1012.21	38.28
1012.371	49.13
1012.532	-60.14
1012.693	4.38
1012.855	-25.66
1013.016	-12.67
1013.177	57.27
1013.338	8.64
1013.499	54.56
1013.66	10.19
1013.821	37.89
1013.982	14.84
1014.143	14.84
1014.304	1.86
1014.465	26.85
1014.626	28.98
1014.787	25.11
1014.948	102.8
1015.109	-48.52
1015.27	54.17
1015.431	5.93
1015.592	-5.51
1015.752	61.92
1015.913	9.22
1016.074	8.64
1016.235	37.7
1016.395	-29.53
1016.556	-0.27
1016.717	6.7
1016.877	73.74
1017.038	7.09
1017.199	3.6
1017.359	11.74
1017.52	-0.27
1017.681	3.79
1017.841	7.67
1018.002	-6.67
1018.162	-15.39
1018.323	60.37
1018.483	-2.41
1018.644	-0.47
1018.804	-38.44
1018.964	-12.09
1019.125	-38.06
1019.285	14.26
1019.446	5.54
1019.606	-27.01
1019.766	-61.11
1019.926	41.38
1020.087	0.69
1020.247	-43.87
1020.407	16.39
1020.567	47.97
1020.728	0.69
1020.888	-21.39
1021.048	-6.28
1021.208	-27.79
1021.368	0.11
1021.528	31.5
1021.688	49.71
1021.848	50.29
1022.008	-2.02
1022.168	-4.54
1022.328	-3.57
1022.488	35.18
1022.648	4.57
1022.808	16.97
1022.968	54.75
1023.128	-32.05
1023.288	-35.92
1023.448	-2.99
1023.608	19.88
1023.767	21.43
1023.927	-30.11
1024.087	-12.48
1024.247	-22.17
1024.406	-17.71
1024.566	-27.98
1024.726	-26.62
1024.885	-22.36
1025.045	9.41
1025.205	-9.38
1025.364	-1.44
1025.524	10.96
1025.683	-17.91
1025.843	31.69
1026.003	1.86
1026.162	35.38
1026.321	34.41
1026.481	1.66
1026.64	-14.61
1026.8	11.74
1026.959	26.66
1027.119	22.01
1027.278	0.31
1027.437	-10.54
1027.597	11.35
1027.756	28.4
1027.915	20.84
1028.074	16.97
1028.234	-4.92
1028.393	3.41
1028.552	-20.81
1028.711	-74.29
1028.87	59.59
1029.03	-21.01
1029.189	-8.99
1029.348	-75.84
1029.507	13.29
1029.666	-13.84
1029.825	-32.24
1029.984	-12.29
1030.143	35.18
1030.302	-23.91
1030.461	-59.56
1030.62	-8.8
1030.779	31.89
1030.938	-5.12
1031.097	-42.12
1031.255	36.54
1031.414	58.04
1031.573	48.94
1031.732	-71.77
1031.891	-18.68
1032.049	32.66
1032.208	12.32
1032.367	-37.28
1032.525	-13.45
1032.684	-20.04
1032.843	7.86
1033.001	-27.79
1033.16	112.87
1033.319	26.85
1033.477	22.78
1033.636	-1.05
1033.794	-32.82
1033.953	36.73
1034.111	29.56
1034.27	-22.56
1034.428	8.64
1034.587	-25.66
1034.745	13.48
1034.903	-5.12
1035.062	15.81
1035.22	-36.31
1035.378	35.57
1035.537	-17.52
1035.695	25.88
1035.853	-21.78
1036.011	50.68
1036.17	3.99
1036.328	-64.99
1036.486	39.83
1036.644	24.33
1036.802	-71.38
1036.96	-33.21
1037.119	-3.57
1037.277	-50.46
1037.435	-37.28
1037.593	-12.48
1037.751	6.7
1037.909	28.01
1038.067	28.01
