Data from pine_FLMT105791__165__17-23-19-073.txt Node

Date: Mon Mar 20 17:23:19 GMT 2023
User: antho
Spectrometer: FLMT10579
Trigger mode: 0
Integration Time (sec): 1.000000E-1
Scans to average: 10
Electric dark correction enabled: true
Nonlinearity correction enabled: false
Boxcar width: 0
XAxis mode: Wavelengths
Number of Pixels in Spectrum: 3648
>>>>>Begin Spectral Data<<<<<
345.248	-147.54
345.464	-147.54
345.681	-147.54
345.898	-176.79
346.114	-156.45
346.331	-58.8
346.548	38.07
346.764	-8.04
346.981	-29.55
347.197	-9.01
347.414	10.37
347.631	-5.33
347.847	48.34
348.064	-4.36
348.28	49.11
348.497	-38.46
348.713	7.65
348.93	29.74
349.146	8.62
349.363	-3.2
349.579	11.92
349.796	20.05
350.012	-6.1
350.229	25.09
350.445	-10.17
350.661	-14.43
350.878	15.6
351.094	-6.88
351.311	20.05
351.527	19.47
351.743	-15.21
351.96	29.35
352.176	40.98
352.392	8.43
352.609	35.36
352.825	-25.87
353.041	-20.25
353.257	-4.94
353.474	2.81
353.69	-1.84
353.906	-9.78
354.122	-5.33
354.339	40.01
354.555	-22.96
354.771	-11.33
354.987	65.58
355.203	46.98
355.42	-26.06
355.636	-3.97
355.852	-11.72
356.068	18.31
356.284	-59.58
356.5	45.63
356.716	29.16
356.932	-13.27
357.148	28
357.364	27.8
357.58	46.4
357.796	43.11
358.012	53.96
358.228	24.12
358.444	-44.27
358.66	56.09
358.876	6.3
359.092	-11.92
359.308	30.71
359.524	50.66
359.74	21.8
359.956	15.79
360.172	16.37
360.388	52.21
360.604	4.55
360.819	78.56
361.035	2.23
361.251	15.21
361.467	-25.48
361.683	40.59
361.898	6.49
362.114	22.38
362.33	5.91
362.546	50.86
362.762	9.98
362.977	26.25
363.193	-35.36
363.409	31.68
363.624	-37.49
363.84	-7.07
364.056	4.17
364.271	14.24
364.487	-12.3
364.703	-6.68
364.918	-9.4
365.134	-13.66
365.35	-16.18
365.565	86.7
365.781	12.5
365.996	34
366.212	30.9
366.427	13.66
366.643	1.07
366.858	-3.97
367.074	-16.37
367.289	26.25
367.505	110.53
367.72	-34.2
367.936	-17.15
368.151	48.15
368.367	8.82
368.582	7.85
368.798	11.33
369.013	65.39
369.228	21.6
369.444	10.56
369.659	49.31
369.874	20.05
370.09	42.14
370.305	-57.64
370.52	-12.5
370.736	65.39
370.951	23.35
371.166	54.73
371.381	64.81
371.597	43.5
371.812	-35.36
372.027	-2.62
372.242	-12.5
372.458	71.78
372.673	-24.32
372.888	18.7
373.103	22.96
373.318	77.79
373.533	7.46
373.749	41.95
373.964	-26.83
374.179	57.06
374.394	-32.65
374.609	49.31
374.824	-23.73
375.039	38.07
375.254	5.52
375.469	68.3
375.684	33.81
375.899	40.98
376.114	22.38
376.329	10.17
376.544	61.13
376.759	55.51
376.974	-17.92
377.189	9.98
377.404	22.96
377.619	36.72
377.834	-42.92
378.049	0.68
378.264	-8.04
378.478	-6.1
378.693	-2.23
378.908	37.68
379.123	3.78
379.338	23.15
379.553	16.57
379.767	15.02
379.982	67.13
380.197	35.55
380.412	-1.07
380.626	9.98
380.841	83.21
381.056	8.62
381.271	63.26
381.485	-28
381.7	-17.53
381.915	4.36
382.129	-11.14
382.344	37.68
382.559	26.25
382.773	54.15
382.988	-9.78
383.202	43.5
383.417	1.84
383.632	117.12
383.846	33.62
384.061	49.5
384.275	18.12
384.49	46.98
384.704	39.04
384.919	29.55
385.133	10.75
385.348	7.27
385.562	-12.69
385.777	40.4
385.991	-0.1
386.206	-6.49
386.42	-7.07
386.634	65.58
386.849	27.03
387.063	34.78
387.277	-41.17
387.492	8.43
387.706	-20.63
387.92	-26.45
388.135	59.38
388.349	46.4
388.563	27.8
388.778	-9.2
388.992	3
389.206	43.3
389.42	85.35
389.635	12.69
389.849	27.42
390.063	26.45
390.277	10.56
390.491	85.93
390.706	38.46
390.92	46.21
391.134	3.78
391.348	51.05
391.562	-44.66
391.776	25.28
391.99	-10.95
392.205	48.53
392.419	-15.02
392.633	15.98
392.847	47.56
393.061	-4.55
393.275	86.12
393.489	20.63
393.703	9.4
393.917	67.52
394.131	2.81
394.345	19.08
394.559	46.21
394.773	13.27
394.986	20.83
395.2	-6.49
395.414	46.21
395.628	-25.48
395.842	11.33
396.056	-13.27
396.27	-43.88
396.484	17.34
396.697	15.98
396.911	75.85
397.125	46.21
397.339	52.99
397.553	46.01
397.766	64.42
397.98	55.9
398.194	57.64
398.408	7.85
398.621	21.8
398.835	59.38
399.049	15.6
399.262	60.16
399.476	39.23
399.69	58.03
399.903	88.06
400.117	12.5
400.331	21.6
400.544	-1.84
400.758	130.1
400.971	-3.2
401.185	44.46
401.398	8.04
401.612	69.46
401.826	41.37
402.039	43.3
402.253	-2.23
402.466	40.4
402.68	36.72
402.893	20.63
403.106	32.26
403.32	28.77
403.533	37.88
403.747	12.88
403.96	28.77
404.174	67.91
404.387	-37.3
404.6	21.02
404.814	35.36
405.027	26.45
405.24	28
405.454	21.6
405.667	74.5
405.88	-33.81
406.094	32.26
406.307	47.95
406.52	53.18
406.733	-2.62
406.947	-48.73
407.16	112.66
407.373	58.61
407.586	9.01
407.799	-14.24
408.012	60.35
408.226	32.84
408.439	77.6
408.652	-15.79
408.865	38.27
409.078	37.88
409.291	34.58
409.504	-22.77
409.717	33.23
409.93	59
410.143	22.77
410.357	-16.57
410.57	-4.36
410.783	18.5
410.996	58.8
411.209	18.89
411.421	41.95
411.634	10.37
411.847	-2.81
412.06	10.17
412.273	1.65
412.486	26.25
412.699	96.78
412.912	18.89
413.125	53.96
413.338	3.39
413.55	47.37
413.763	15.79
413.976	18.7
414.189	24.7
414.402	-2.23
414.615	77.98
414.827	-27.22
415.04	48.73
415.253	51.44
415.466	60.93
415.678	65.78
415.891	40.78
416.104	39.43
416.316	33.81
416.529	14.43
416.742	37.68
416.954	80.5
417.167	24.51
417.38	15.79
417.592	83.99
417.805	6.1
418.017	-3
418.23	78.95
418.442	30.52
418.655	23.93
418.868	43.69
419.08	65.39
419.293	53.18
419.505	28.77
419.718	26.25
419.93	71.98
420.142	11.92
420.355	69.07
420.567	80.11
420.78	46.01
420.992	13.85
421.205	94.26
421.417	-21.41
421.629	47.18
421.842	3.2
422.054	-19.47
422.266	50.08
422.479	37.49
422.691	9.59
422.903	64.81
423.115	17.92
423.328	18.5
423.54	58.22
423.752	31.87
423.964	22.38
424.177	25.09
424.389	34.2
424.601	127.39
424.813	43.69
425.025	65
425.238	62.1
425.45	38.07
425.662	12.3
425.874	323.46
426.086	38.46
426.298	38.85
426.51	47.76
426.722	27.22
426.934	25.48
427.146	63.45
427.358	-10.75
427.57	73.72
427.782	26.64
427.994	76.05
428.206	14.05
428.418	-11.14
428.63	55.9
428.842	75.08
429.054	31.1
429.266	56.28
429.478	10.95
429.69	51.44
429.902	-9.78
430.114	81.66
430.325	62.1
430.537	19.67
430.749	40.78
430.961	-16.76
431.173	25.09
431.384	59
431.596	-9.01
431.808	20.05
432.02	46.21
432.231	65.78
432.443	50.08
432.655	47.76
432.867	26.83
433.078	65
433.29	80.31
433.502	47.56
433.713	54.35
433.925	29.55
434.136	74.3
434.348	-5.52
434.56	5.72
434.771	135.53
434.983	9.59
435.194	12.11
435.406	5.72
435.617	75.46
435.829	99.68
436.04	69.07
436.252	70.23
436.463	116.35
436.675	38.85
436.886	33.42
437.098	34
437.309	112.08
437.521	30.52
437.732	46.4
437.943	62.1
438.155	50.28
438.366	0.29
438.578	98.13
438.789	44.66
439	94.45
439.211	30.13
439.423	82.63
439.634	51.25
439.845	78.18
440.057	75.27
440.268	93.1
440.479	32.65
440.69	50.66
440.902	25.48
441.113	49.31
441.324	60.55
441.535	77.21
441.746	92.13
441.957	12.11
442.168	4.17
442.38	63.26
442.591	64.03
442.802	10.17
443.013	43.5
443.224	64.03
443.435	27.42
443.646	36.52
443.857	39.82
444.068	40.01
444.279	25.48
444.49	104.72
444.701	48.92
444.912	124.87
445.123	78.95
445.334	63.45
445.545	54.15
445.756	75.66
445.967	34.39
446.178	65
446.388	114.6
446.599	80.7
446.81	66.16
447.021	41.75
447.232	101.62
447.443	133.98
447.653	35.75
447.864	72.17
448.075	73.14
448.286	86.51
448.496	70.81
448.707	102.2
448.918	47.56
449.129	154.51
449.339	46.98
449.55	114.6
449.761	66.94
449.971	122.35
450.182	64.61
450.393	88.25
450.603	71.78
450.814	100.07
451.024	73.91
451.235	91.35
451.446	148.12
451.656	105.88
451.867	57.45
452.077	94.65
452.288	121.96
452.498	134.17
452.709	88.06
452.919	83.41
453.13	79.73
453.34	109.76
453.55	53.38
453.761	109.76
453.971	103.75
454.182	114.8
454.392	101.62
454.602	142.5
454.813	76.05
455.023	126.42
455.233	44.08
455.444	98.33
455.654	26.83
455.864	73.91
456.075	47.37
456.285	86.7
456.495	66.16
456.705	107.82
456.916	106.85
457.126	132.62
457.336	88.45
457.546	10.75
457.756	76.24
457.967	141.53
458.177	78.18
458.387	91.74
458.597	67.33
458.807	65.78
459.017	95.03
459.227	108.98
459.437	80.7
459.647	121.77
459.857	123.32
460.068	61.51
460.278	124.48
460.488	115.96
460.698	166.53
460.908	108.4
461.117	46.6
461.327	68.68
461.537	89.22
461.747	113.05
461.957	91.55
462.167	190.74
462.377	151.03
462.587	87.67
462.797	133.39
463.007	93.1
463.216	112.66
463.426	134.94
463.636	125.84
463.846	68.1
464.056	90.19
464.265	143.47
464.475	77.21
464.685	114.6
464.895	125.26
465.104	100.07
465.314	141.92
465.524	81.66
465.733	62.48
465.943	167.3
466.153	159.55
466.362	152.19
466.572	116.35
466.782	70.23
466.991	98.91
467.201	158.97
467.41	62.1
467.62	121.58
467.829	94.84
468.039	123.32
468.249	90.58
468.458	112.86
468.668	119.25
468.877	128.55
469.086	174.28
469.296	131.46
469.505	57.83
469.715	186.48
469.924	109.18
470.134	164.2
470.343	152.38
470.552	104.91
470.762	126.42
470.971	80.89
471.18	139.01
471.39	131.65
471.599	111.11
471.808	158.19
472.018	100.46
472.227	147.93
472.436	144.83
472.645	82.63
472.855	67.52
473.064	152.19
473.273	150.25
473.482	157.81
473.691	133.98
473.901	149.86
474.11	125.45
474.319	187.45
474.528	142.11
474.737	166.91
474.946	142.31
475.155	124.87
475.364	159.55
475.573	144.83
475.783	147.34
475.992	158.39
476.201	170.21
476.41	149.09
476.619	113.83
476.828	152.77
477.037	135.91
477.245	139.59
477.454	163.43
477.663	138.82
477.872	113.05
478.081	202.76
478.29	102.78
478.499	231.04
478.708	152.58
478.917	189.97
479.125	163.62
479.334	157.03
479.543	128.16
479.752	130.88
479.961	147.73
480.169	193.65
480.378	144.24
480.587	258.94
480.796	185.51
481.004	161.49
481.213	179.89
481.422	148.89
481.63	114.02
481.839	184.74
482.048	216.51
482.256	175.05
482.465	175.44
482.674	183.96
482.882	198.88
483.091	235.5
483.299	189
483.508	207.41
483.716	164.39
483.925	159.94
484.134	126.23
484.342	176.99
484.551	214.38
484.759	184.16
484.967	213.03
485.176	238.79
485.384	201.21
485.593	224.26
485.801	201.59
486.01	206.05
486.218	186.29
486.426	138.63
486.635	209.54
486.843	176.99
487.051	207.02
487.26	157.81
487.468	199.85
487.676	215.93
487.885	138.43
488.093	177.96
488.301	175.05
488.509	183.38
488.717	226.59
488.926	164.98
489.134	179.31
489.342	207.21
489.55	182.99
489.758	189.97
489.967	135.33
490.175	317.07
490.383	181.06
490.591	243.25
490.799	147.34
491.007	234.34
491.215	213.22
491.423	219.81
491.631	184.35
491.839	232.01
492.047	231.43
492.255	196.56
492.463	153.16
492.671	180.09
492.879	231.24
493.087	222.91
493.295	223.49
493.503	229.49
493.711	241.31
493.919	259.72
494.127	256.42
494.334	254.87
494.542	176.21
494.75	217.48
494.958	232.21
495.166	264.56
495.374	243.44
495.581	235.89
495.789	226.2
495.997	286.07
496.205	230.66
496.412	221.55
496.62	241.89
496.828	261.85
497.035	234.34
497.243	270.76
497.451	232.79
497.658	241.89
497.866	246.54
498.074	285.87
498.281	192.88
498.489	331.99
498.696	240.15
498.904	236.47
499.112	202.95
499.319	293.24
499.527	254.87
499.734	261.27
499.942	217.48
500.149	233.17
500.357	234.92
500.564	206.24
500.771	243.64
500.979	243.83
501.186	224.46
501.394	244.02
501.601	246.93
501.808	295.17
502.016	263.21
502.223	252.16
502.43	250.22
502.638	239.18
502.845	206.83
503.052	297.5
503.26	229.11
503.467	314.94
503.674	234.92
503.881	245.38
504.089	354.07
504.296	282.77
504.503	237.05
504.71	246.93
504.917	231.04
505.125	251.97
505.332	259.72
505.539	282.19
505.746	325.98
505.953	264.37
506.16	266.31
506.367	300.99
506.574	323.07
506.781	330.05
506.988	246.54
507.195	278.71
507.402	274.83
507.609	297.31
507.816	264.76
508.023	270.57
508.23	267.66
508.437	236.47
508.644	286.46
508.851	325.4
509.058	284.32
509.265	281.61
509.472	314.16
509.679	357.17
509.885	266.69
510.092	300.79
510.299	286.07
510.506	284.52
510.713	310.09
510.92	286.26
511.126	307.96
511.333	328.11
511.54	309.9
511.746	340.12
511.953	323.07
512.16	355.43
512.367	282.58
512.573	297.31
512.78	275.41
512.987	298.08
513.193	279.09
513.4	236.08
513.606	258.75
513.813	314.55
514.02	279.87
514.226	375.19
514.433	368.02
514.639	271.15
514.846	303.7
515.052	305.44
515.259	313.58
515.465	314.55
515.672	308.35
515.878	397.08
516.085	308.15
516.291	359.3
516.497	286.46
516.704	319.97
516.91	286.26
517.117	265.72
517.323	232.4
517.529	295.37
517.736	296.92
517.942	322.69
518.148	272.31
518.354	327.72
518.561	326.37
518.767	313.39
518.973	360.85
519.179	355.62
519.386	310.29
519.592	302.54
519.798	264.95
520.004	361.63
520.21	306.8
520.417	353.69
520.623	356.4
520.829	377.71
521.035	360.27
521.241	379.26
521.447	345.16
521.653	426.92
521.859	341.87
522.065	358.72
522.271	431.57
522.477	392.24
522.683	394.37
522.889	385.46
523.095	377.32
523.301	363.95
523.507	340.12
523.713	401.73
523.919	342.64
524.125	395.15
524.331	368.99
524.537	418.4
524.742	388.75
524.948	393.02
525.154	389.72
525.36	479.43
525.566	415.1
525.772	429.83
525.977	333.34
526.183	401.54
526.389	441.26
526.595	399.22
526.8	358.14
527.006	346.9
527.212	356.2
527.417	358.53
527.623	344.77
527.829	379.26
528.034	377.52
528.24	375.58
528.446	356.2
528.651	427.89
528.857	388.95
529.062	483.11
529.268	394.76
529.473	412.78
529.679	384.1
529.884	476.72
530.09	445.33
530.295	460.25
530.501	460.83
530.706	405.8
530.912	347.49
531.117	404.25
531.323	422.47
531.528	461.41
531.733	440.68
531.939	383.33
532.144	429.63
532.35	424.98
532.555	472.84
532.76	495.12
532.966	469.16
533.171	449.2
533.376	421.5
533.581	398.25
533.787	447.85
533.992	475.36
534.197	474.2
534.402	424.21
534.607	437.58
534.813	542.01
535.018	440.29
535.223	417.04
535.428	461.99
535.633	482.53
535.838	469.35
536.043	448.04
536.249	517.79
536.454	439.13
536.659	446.1
536.864	444.75
537.069	438.35
537.274	464.32
537.479	510.81
537.684	471.68
537.889	416.27
538.094	550.34
538.299	469.93
538.504	464.32
538.708	491.05
538.913	494.54
539.118	485.05
539.323	460.05
539.528	450.17
539.733	451.53
539.938	506.75
540.142	515.08
540.347	479.82
540.552	448.04
540.757	468.19
540.962	485.63
541.166	426.34
541.371	460.25
541.576	479.04
541.781	380.62
541.985	471.87
542.19	480.98
542.395	479.04
542.599	507.71
542.804	490.08
543.008	540.65
543.213	482.14
543.418	461.02
543.622	488.15
543.827	461.22
544.031	528.83
544.236	529.61
544.44	474.2
544.645	555.18
544.849	479.82
545.054	523.8
545.258	530.19
545.463	564.68
545.667	477.88
545.872	495.12
546.076	519.73
546.281	489.5
546.485	470.52
546.689	514.69
546.894	519.73
547.098	505.58
547.302	453.66
547.507	499.96
547.711	522.44
547.915	564.29
548.119	482.72
548.324	494.54
548.528	548.79
548.732	513.91
548.936	533.87
549.141	537.94
549.345	480.78
549.549	460.05
549.753	500.93
549.957	578.63
550.161	559.06
550.366	478.85
550.57	465.48
550.774	510.43
550.978	476.91
551.182	517.01
551.386	478.65
551.59	513.72
551.794	493.57
551.998	497.64
552.202	482.33
552.406	467.22
552.61	483.11
552.814	503.84
553.018	581.73
553.222	517.98
553.426	486.21
553.63	563.9
553.833	470.32
554.037	478.46
554.241	521.86
554.445	541.23
554.649	475.36
554.853	467.8
555.056	525.54
555.26	521.08
555.464	519.73
555.668	537.16
555.871	530.58
556.075	557.31
556.279	490.86
556.483	467.03
556.686	490.28
556.89	514.3
557.094	527.28
557.297	482.33
557.501	557.51
557.704	456.57
557.908	527.67
558.112	491.05
558.315	546.08
558.519	513.91
558.722	508.3
558.926	504.61
559.129	485.24
559.333	474.97
559.536	481.95
559.74	479.43
559.943	455.79
560.147	455.4
560.35	493.96
560.553	470.9
560.757	413.36
560.96	534.45
561.164	472.84
561.367	534.65
561.57	460.25
561.774	526.51
561.977	469.16
562.18	464.51
562.384	558.09
562.587	481.95
562.79	461.22
562.993	478.46
563.197	522.63
563.4	542.2
563.603	535.23
563.806	573.98
564.009	462.18
564.212	500.35
564.416	431.96
564.619	486.98
564.822	475.36
565.025	535.61
565.228	476.13
565.431	491.63
565.634	410.45
565.837	460.05
566.04	472.26
566.243	466.83
566.446	402.32
566.649	506.16
566.852	388.17
567.055	467.42
567.258	488.15
567.461	545.5
567.664	532.51
567.867	418.2
568.07	481.56
568.273	469.93
568.475	492.02
568.678	456.95
568.881	469.55
569.084	489.5
569.287	395.92
569.489	426.92
569.692	509.65
569.895	475.17
570.098	427.89
570.3	426.53
570.503	387.2
570.706	396.31
570.909	414.33
571.111	390.5
571.314	418.98
571.516	435.25
571.719	450.17
571.922	444.17
572.124	389.92
572.327	426.15
572.529	384.88
572.732	374.61
572.935	442.03
573.137	473.81
573.34	406.58
573.542	438.55
573.745	442.81
573.947	423.24
574.15	417.43
574.352	388.56
574.554	476.52
574.757	397.47
574.959	415.88
575.162	391.27
575.364	389.34
575.566	512.56
575.769	391.27
575.971	410.45
576.173	343.03
576.376	439.13
576.578	439.13
576.78	453.85
576.982	356.98
577.185	371.9
577.387	382.94
577.589	349.42
577.791	428.08
577.993	421.69
578.196	396.5
578.398	431.77
578.6	444.75
578.802	377.13
579.004	383.14
579.206	361.05
579.408	407.16
579.61	404.25
579.812	415.88
580.014	371.51
580.216	362.4
580.418	387.79
580.62	354.46
580.822	323.85
581.024	392.63
581.226	410.45
581.428	343.03
581.63	466.83
581.832	356.2
582.034	437.77
582.236	376.74
582.438	422.85
582.64	426.92
582.841	440.1
583.043	475.75
583.245	416.65
583.447	418.4
583.649	401.54
583.85	393.6
584.052	451.72
584.254	376.55
584.456	447.65
584.657	352.33
584.859	388.95
585.061	386.82
585.262	370.74
585.464	365.7
585.666	415.68
585.867	388.17
586.069	457.15
586.27	420.53
586.472	401.35
586.674	363.76
586.875	362.02
587.077	360.47
587.278	423.82
587.48	362.21
587.681	487.37
587.883	386.82
588.084	366.47
588.285	381.2
588.487	369.77
588.688	409.87
588.89	323.46
589.091	344.77
589.292	379.07
589.494	369.38
589.695	340.12
589.896	305.44
590.098	287.42
590.299	389.53
590.5	286.07
590.702	304.09
590.903	352.72
591.104	394.18
591.305	365.5
591.507	420.33
591.708	366.67
591.909	362.6
592.11	427.31
592.311	384.3
592.512	350
592.714	327.92
592.915	320.55
593.116	332.95
593.317	370.15
593.518	329.66
593.719	345.94
593.92	397.47
594.121	411.62
594.322	334.5
594.523	387.01
594.724	334.31
594.925	355.43
595.126	396.12
595.327	386.43
595.528	374.03
595.729	381.2
595.929	355.24
596.13	341.09
596.331	340.51
596.532	357.75
596.733	400.96
596.934	392.05
597.135	388.17
597.335	368.02
597.536	345.35
597.737	381.39
597.938	366.09
598.138	361.82
598.339	345.55
598.54	373.06
598.74	350.97
598.941	393.02
599.142	393.6
599.342	372.48
599.543	361.44
599.744	359.89
599.944	368.99
600.145	345.16
600.345	402.12
600.546	437.97
600.746	426.73
600.947	422.66
601.147	393.6
601.348	424.79
601.548	332.76
601.749	393.79
601.949	337.8
602.15	342.45
602.35	365.5
602.551	419.56
602.751	328.11
602.951	339.93
603.152	293.04
603.352	383.14
603.552	348.45
603.753	370.35
603.953	403.28
604.153	392.24
604.354	331.79
604.554	344.19
604.754	372.09
604.954	317.07
605.155	356.01
605.355	373.64
605.555	365.7
605.755	417.82
605.955	368.99
606.155	392.44
606.356	378.49
606.556	387.59
606.756	393.02
606.956	334.12
607.156	431.77
607.356	335.67
607.556	371.9
607.756	374.42
607.956	405.8
608.156	366.86
608.356	360.47
608.556	398.83
608.756	374.22
608.956	325.4
609.156	340.32
609.356	322.88
609.556	346.32
609.755	368.22
609.955	320.75
610.155	357.17
610.355	358.14
610.555	334.12
610.755	376.55
610.954	286.07
611.154	372.29
611.354	384.69
611.554	327.53
611.753	314.74
611.953	289.75
612.153	394.18
612.352	354.65
612.552	291.88
612.752	266.69
612.951	302.73
613.151	356.98
613.351	282.77
613.55	330.63
613.75	362.99
613.949	360.85
614.149	396.12
614.348	350.97
614.548	310.87
614.747	288.39
614.947	304.86
615.146	291.49
615.346	356.59
615.545	344
615.745	341.48
615.944	367.83
616.144	318.04
616.343	382.55
616.542	333.34
616.742	323.65
616.941	352.52
617.14	288.39
617.34	334.89
617.539	322.1
617.738	308.74
617.938	388.37
618.137	334.31
618.336	277.74
618.535	364.73
618.734	302.34
618.934	338.38
619.133	307.77
619.332	345.74
619.531	306.6
619.73	320.94
619.929	379.84
620.128	344.58
620.328	380.23
620.527	296.53
620.726	305.06
620.925	343.42
621.124	294.79
621.323	333.54
621.522	298.86
621.721	303.51
621.92	290.14
622.119	344
622.318	306.6
622.517	309.12
622.715	336.05
622.914	270.57
623.113	290.52
623.312	266.5
623.511	335.28
623.71	308.15
623.909	254.68
624.107	377.13
624.306	261.27
624.505	285.68
624.704	287.23
624.902	305.83
625.101	368.6
625.3	318.23
625.499	277.74
625.697	283.55
625.896	298.47
626.095	326.95
626.293	262.43
626.492	295.56
626.69	316.68
626.889	250.81
627.088	312.22
627.286	268.24
627.485	263.98
627.683	268.05
627.882	309.7
628.08	231.24
628.279	295.56
628.477	355.43
628.676	258.56
628.874	308.93
629.073	281.03
629.271	272.89
629.469	293.43
629.668	280.64
629.866	307.57
630.065	267.27
630.263	322.49
630.461	240.73
630.66	297.11
630.858	283.16
631.056	332.37
631.254	313.97
631.453	260.11
631.651	298.08
631.849	286.46
632.047	281.42
632.245	300.79
632.444	306.8
632.642	285.29
632.84	291.88
633.038	264.95
633.236	275.41
633.434	266.69
633.632	229.88
633.83	260.88
634.028	316.68
634.227	247.9
634.425	319.59
634.623	284.52
634.821	296.34
635.019	288.78
635.216	263.01
635.414	288.59
635.612	292.85
635.81	281.22
636.008	318.04
636.206	278.71
636.404	285.68
636.602	235.69
636.8	272.7
636.997	282.19
637.195	321.33
637.393	298.47
637.591	340.12
637.789	312.8
637.986	249.06
638.184	308.35
638.382	329.85
638.58	323.46
638.777	337.8
638.975	290.33
639.173	301.18
639.37	313
639.568	307.57
639.765	318.62
639.963	289.36
640.161	345.74
640.358	328.69
640.556	252.16
640.753	235.11
640.951	255.26
641.148	299.05
641.346	244.61
641.543	288.39
641.741	295.17
641.938	252.16
642.136	277.54
642.333	230.85
642.531	325.59
642.728	312.8
642.925	277.54
643.123	277.54
643.32	299.24
643.517	255.26
643.715	290.72
643.912	257.97
644.109	289.56
644.306	276.77
644.504	247.12
644.701	282.58
644.898	308.54
645.095	274.64
645.293	270.76
645.49	304.67
645.687	274.25
645.884	309.51
646.081	203.14
646.278	236.27
646.475	258.56
646.672	237.24
646.87	298.27
647.067	260.49
647.264	263.4
647.461	238.02
647.658	238.79
647.855	275.41
648.052	227.56
648.249	194.04
648.446	266.11
648.642	244.22
648.839	244.22
649.036	265.14
649.233	213.99
649.43	210.12
649.627	201.01
649.824	214.77
650.021	252.74
650.217	225.23
650.414	220.58
650.611	260.11
650.808	246.35
651.004	224.07
651.201	249.26
651.398	322.1
651.595	240.54
651.791	230.07
651.988	282.58
652.185	248.87
652.381	265.14
652.578	202.56
652.775	231.43
652.971	244.22
653.168	233.56
653.364	275.41
653.561	193.84
653.757	232.59
653.954	226.59
654.15	206.63
654.347	302.73
654.543	254.87
654.74	189.58
654.936	222.13
655.133	229.3
655.329	252.74
655.525	241.12
655.722	274.25
655.918	207.99
656.115	272.31
656.311	198.88
656.507	177.76
656.704	158.39
656.9	201.01
657.096	205.08
657.292	172.92
657.489	252.36
657.685	228.91
657.881	188.81
658.077	203.34
658.273	201.59
658.47	272.12
658.666	227.94
658.862	229.49
659.058	208.18
659.254	242.67
659.45	190.74
659.646	228.33
659.842	239.96
660.038	268.63
660.234	226.2
660.43	223.1
660.626	271.92
660.822	238.79
661.018	265.53
661.214	234.72
661.41	185.13
661.606	239.37
661.802	231.24
661.998	232.01
662.194	186.48
662.39	232.01
662.586	230.07
662.781	231.04
662.977	239.76
663.173	278.32
663.369	248.48
663.564	249.64
663.76	274.83
663.956	227.94
664.152	263.59
664.347	192.29
664.543	223.87
664.739	209.54
664.934	166.53
665.13	147.93
665.326	252.16
665.521	251.97
665.717	174.66
665.912	189.78
666.108	149.28
666.304	225.62
666.499	191.33
666.695	166.33
666.89	204.69
667.086	247.71
667.281	238.41
667.477	280.84
667.672	249.64
667.867	214.96
668.063	233.76
668.258	182.61
668.454	228.33
668.649	289.94
668.844	214.19
669.04	251
669.235	232.79
669.43	220.97
669.626	164.78
669.821	209.93
670.016	207.79
670.211	245.38
670.407	197.33
670.602	219.22
670.797	212.44
670.992	257.01
671.187	177.96
671.382	235.11
671.578	195.01
671.773	228.91
671.968	158.97
672.163	232.4
672.358	256.81
672.553	193.07
672.748	201.79
672.943	260.11
673.138	232.4
673.333	206.83
673.528	177.38
673.723	232.4
673.918	228.14
674.113	160.52
674.308	265.53
674.503	221.36
674.698	251.39
674.892	240.54
675.087	237.24
675.282	234.14
675.477	193.26
675.672	240.15
675.867	191.91
676.061	168.08
676.256	167.3
676.451	182.8
676.646	216.32
676.84	172.92
677.035	139.21
677.23	175.05
677.424	236.27
677.619	247.71
677.814	238.21
678.008	237.24
678.203	139.21
678.397	157.23
678.592	209.93
678.787	250.22
678.981	174.66
679.176	201.01
679.37	204.69
679.565	183.58
679.759	201.59
679.954	222.32
680.148	239.57
680.342	234.92
680.537	234.92
680.731	196.36
680.926	199.46
681.12	236.66
681.314	171.18
681.509	185.51
681.703	198.3
681.897	240.34
682.092	185.71
682.286	174.66
682.48	284.13
682.674	240.73
682.869	195.59
683.063	216.51
683.257	264.37
683.451	180.67
683.645	239.37
683.839	190.36
684.034	168.08
684.228	220.39
684.422	168.85
684.616	139.98
684.81	214.96
685.004	199.08
685.198	209.15
685.392	238.99
685.586	176.02
685.78	190.74
685.974	225.62
686.168	218.84
686.362	252.94
686.556	181.83
686.75	165.17
686.944	196.56
687.138	220.19
687.331	152.58
687.525	168.66
687.719	145.99
687.913	212.83
688.107	172.14
688.301	153.74
688.494	148.12
688.688	145.21
688.882	128.94
689.076	117.9
689.269	164.78
689.463	225.42
689.657	154.32
689.85	141.34
690.044	183.58
690.238	147.15
690.431	166.91
690.625	131.65
690.818	196.56
691.012	184.35
691.205	178.93
691.399	146.18
691.593	165.75
691.786	216.71
691.98	228.52
692.173	252.16
692.366	205.86
692.56	208.57
692.753	251.58
692.947	182.8
693.14	234.14
693.333	216.71
693.527	159.16
693.72	205.86
693.914	188.81
694.107	168.08
694.3	222.13
694.493	192.88
694.687	262.82
694.88	196.94
695.073	247.51
695.266	247.32
695.46	230.27
695.653	275.99
695.846	242.67
696.039	173.11
696.232	209.54
696.425	241.89
696.618	240.34
696.812	241.31
697.005	254.1
697.198	331.6
697.391	242.67
697.584	270.96
697.777	321.72
697.97	294.59
698.163	315.13
698.356	258.17
698.549	349.23
698.742	315.32
698.935	269.99
699.127	298.47
699.32	265.92
699.513	255.07
699.706	294.21
699.899	306.41
700.092	231.43
700.285	292.46
700.477	258.36
700.67	285.68
700.863	299.82
701.056	393.4
701.248	329.27
701.441	341.29
701.634	285.1
701.826	397.86
702.019	287.42
702.212	356.59
702.404	286.84
702.597	251.19
702.79	312.03
702.982	331.6
703.175	340.51
703.367	351.94
703.56	337.02
703.752	419.17
703.945	359.69
704.137	366.09
704.33	374.8
704.522	396.7
704.715	379.84
704.907	377.13
705.1	412.39
705.292	402.9
705.484	380.42
705.677	422.85
705.869	407.55
706.061	427.12
706.254	425.57
706.446	403.67
706.638	363.76
706.831	444.75
707.023	404.25
707.215	469.55
707.407	452.88
707.599	425.18
707.792	483.69
707.984	464.32
708.176	455.4
708.368	420.53
708.56	488.92
708.752	473.03
708.944	448.62
709.136	469.74
709.329	452.5
709.521	538.13
709.713	516.05
709.905	501.51
710.097	536.78
710.289	478.85
710.481	479.82
710.672	499.96
710.864	489.31
711.056	571.84
711.248	532.32
711.44	545.69
711.632	525.93
711.824	525.15
712.016	569.52
712.207	573.78
712.399	577.46
712.591	617.76
712.783	579.59
712.975	585.41
713.166	553.25
713.358	560.61
713.55	648.76
713.741	606.14
713.933	612.92
714.125	605.56
714.316	559.45
714.508	635.98
714.7	639.08
714.891	609.24
715.083	699.14
715.274	612.14
715.466	643.14
715.657	655.54
715.849	588.12
716.04	635.78
716.232	576.11
716.423	689.26
716.615	607.69
716.806	600.91
716.998	598.78
717.189	578.04
717.381	565.65
717.572	545.3
717.763	565.65
717.955	567.58
718.146	543.36
718.337	517.21
718.528	480.01
718.72	488.53
718.911	542.4
719.102	513.72
719.293	553.83
719.485	523.41
719.676	532.32
719.867	478.07
720.058	503.06
720.249	531.35
720.44	512.75
720.632	552.66
720.823	545.5
721.014	567.39
721.205	569.13
721.396	587.73
721.587	620.48
721.778	660.39
721.969	643.34
722.16	671.62
722.351	638.3
722.542	736.34
722.733	711.54
722.924	637.72
723.115	728.97
723.305	726.65
723.496	749.32
723.687	666.97
723.878	675.5
724.069	672.98
724.26	702.04
724.45	654.77
724.641	663.29
724.832	703.01
725.023	683.83
725.213	672.4
725.404	645.47
725.595	663.87
725.785	631.33
725.976	721.42
726.167	659.03
726.357	653.03
726.548	744.09
726.739	665.81
726.929	761.52
727.12	762.1
727.31	762.69
727.501	744.09
727.691	731.69
727.882	747.57
728.072	757.26
728.263	764.24
728.453	775.28
728.644	767.14
728.834	763.07
729.024	746.22
729.215	738.27
729.405	767.14
729.596	836.12
729.786	842.7
729.976	812.29
730.167	819.26
730.357	794.27
730.547	811.12
730.737	837.28
730.928	849.29
731.118	897.53
731.308	865.18
731.498	833.98
731.688	872.73
731.879	897.73
732.069	904.12
732.259	907.61
732.449	896.37
732.639	941.51
732.829	963.21
733.019	988.6
733.209	998.67
733.399	984.53
733.589	1069
733.779	1025.79
733.969	975.61
734.159	1032.96
734.349	1082.95
734.539	1102.52
734.729	1059.89
734.919	1123.64
735.109	1125.38
735.299	1054.86
735.488	1100.58
735.678	1134.49
735.868	1126.54
736.058	1103.29
736.248	1063.77
736.437	1083.14
736.627	1072.1
736.817	1170.91
737.007	1159.29
737.196	1188.15
737.386	1092.64
737.576	1123.06
737.765	1132.16
737.955	1120.34
738.144	1209.85
738.334	1173.04
738.524	1134.87
738.713	1162.77
738.903	1188.35
739.092	1206.75
739.282	1217.6
739.471	1223.8
739.661	1156.96
739.85	1239.5
740.04	1206.37
740.229	1219.15
740.419	1250.35
740.608	1262.17
740.797	1242.99
740.987	1328.23
741.176	1280.57
741.365	1193.77
741.555	1207.14
741.744	1246.09
741.933	1218.19
742.123	1251.9
742.312	1316.03
742.501	1281.73
742.69	1304.21
742.88	1233.3
743.069	1343.73
743.258	1243.76
743.447	1344.9
743.636	1357.3
743.825	1293.75
744.014	1324.36
744.204	1341.6
744.393	1294.91
744.582	1323.78
744.771	1353.23
744.96	1315.83
745.149	1350.13
745.338	1300.72
745.527	1322.62
745.716	1341.02
745.905	1324.55
746.094	1337.73
746.283	1395.27
746.471	1379.77
746.66	1423.36
746.849	1402.44
747.038	1400.7
747.227	1340.83
747.416	1371.05
747.604	1338.89
747.793	1328.82
747.982	1384.61
748.171	1369.11
748.359	1433.25
748.548	1381.51
748.737	1364.27
748.926	1372.21
749.114	1318.74
749.303	1391.59
749.491	1371.63
749.68	1332.5
749.869	1411.55
750.057	1360.78
750.246	1349.35
750.434	1348.97
750.623	1377.45
750.811	1351.29
751	1384.81
751.188	1346.25
751.377	1347.8
751.565	1370.66
751.754	1323.97
751.942	1343.93
752.131	1385.39
752.319	1310.6
752.507	1305.76
752.696	1348.19
752.884	1385.2
753.072	1363.5
753.261	1333.85
753.449	1318.93
753.637	1332.5
753.825	1428.98
754.014	1340.63
754.202	1336.95
754.39	1422.4
754.578	1377.83
754.766	1315.25
754.955	1346.64
755.143	1418.13
755.331	1335.6
755.519	1324.94
755.707	1335.21
755.895	1331.72
756.083	1341.99
756.271	1330.37
756.459	1307.31
756.647	1394.88
756.835	1323
757.023	1317.38
757.211	1331.53
757.399	1349.35
757.587	1311.77
757.775	1292.39
757.963	1299.56
758.151	1317.97
758.339	1307.31
758.526	1295.49
758.714	1327.65
758.902	1272.63
759.09	1284.83
759.278	1155.99
759.465	1111.62
759.653	916.13
759.841	904.9
760.028	729.75
760.216	641.01
760.404	688.09
760.591	551.5
760.779	475.36
760.967	393.4
761.154	298.08
761.342	339.35
761.529	343.03
761.717	383.14
761.905	306.6
762.092	366.09
762.28	293.43
762.467	325.79
762.655	269.6
762.842	313.19
763.029	293.62
763.217	331.99
763.404	319.78
763.592	352.52
763.779	272.31
763.966	335.67
764.154	357.95
764.341	392.63
764.528	368.02
764.716	421.69
764.903	413.36
765.09	446.68
765.277	449.59
765.465	552.28
765.652	579.4
765.839	593.54
766.026	658.26
766.213	647.02
766.4	690.42
766.588	841.93
766.775	740.6
766.962	807.64
767.149	819.65
767.336	945.58
767.523	840.18
767.71	945.2
767.897	983.56
768.084	1018.43
768.271	1001.77
768.458	1079.85
768.645	1094.19
768.832	1010.1
769.019	1042.65
769.206	1088.57
769.392	1131.97
769.579	1244.92
769.766	1148.82
769.953	1140.69
770.14	1165.1
770.327	1159.67
770.513	1205.59
770.7	1234.27
770.887	1153.86
771.073	1236.4
771.26	1181.37
771.447	1155.22
771.634	1192.42
771.82	1274.57
772.007	1159.87
772.193	1197.45
772.38	1233.1
772.567	1201.52
772.753	1216.25
772.94	1263.14
773.126	1236.2
773.313	1248.02
773.499	1257.32
773.686	1233.49
773.872	1219.35
774.059	1182.54
774.245	1179.24
774.432	1168.39
774.618	1146.11
774.804	1208.5
774.991	1151.73
775.177	1244.54
775.363	1217.02
775.55	1226.32
775.736	1179.44
775.922	1179.44
776.109	1195.52
776.295	1169.56
776.481	1186.6
776.667	1224.39
776.853	1174.01
777.04	1188.35
777.226	1157.74
777.412	1284.25
777.598	1176.53
777.784	1130.81
777.97	1173.82
778.156	1213.34
778.342	1170.72
778.528	1154.25
778.715	1107.56
778.901	1175.95
779.087	1173.82
779.272	1129.26
779.458	1129.26
779.644	1189.51
779.83	1107.56
780.016	1252.48
780.202	1151.54
780.388	1133.32
780.574	1098.06
780.76	1100.77
780.946	1155.41
781.131	1131
781.317	1172.27
781.503	1110.85
781.689	1097.67
781.874	1234.07
782.06	1160.64
782.246	1108.72
782.432	1121.51
782.617	1133.32
782.803	1206.75
782.989	1089.93
783.174	1129.45
783.36	1071.13
783.545	1125.19
783.731	1108.52
783.916	1066.48
784.102	1110.27
784.288	1077.33
784.473	1098.45
784.659	1088.76
784.844	1152.12
785.029	1035.87
785.215	1095.16
785.4	1024.83
785.586	1112.98
785.771	1025.02
785.956	1100.77
786.142	1039.55
786.327	1055.05
786.512	1049.24
786.698	1062.03
786.883	1026.96
787.068	1061.64
787.254	1045.94
787.439	1037.03
787.624	1065.71
787.809	1026.96
787.994	1045.17
788.18	1094.96
788.365	1000.03
788.55	1053.11
788.735	1027.15
788.92	1050.21
789.105	1055.44
789.29	1063.19
789.475	998.86
789.66	1020.76
789.845	1027.73
790.03	989.37
790.215	1070.55
790.4	1038.78
790.585	1097.48
790.77	1044.78
790.955	954.69
791.14	979.3
791.325	1067.06
791.51	942.87
791.695	991.5
791.879	965.35
792.064	930.47
792.249	1044.59
792.434	967.48
792.618	972.51
792.803	997.12
792.988	996.54
793.173	988.98
793.357	1006.81
793.542	970.96
793.727	981.81
793.911	1010.88
794.096	993.05
794.281	998.09
794.465	1072.49
794.65	1014.56
794.834	1022.11
795.019	1063.38
795.203	1020.37
795.388	1041.49
795.572	1063.96
795.757	1001.19
795.941	1010.88
796.126	1007.97
796.31	999.06
796.494	1024.44
796.679	969.8
796.863	989.95
797.048	1036.64
797.232	1032.96
797.416	1011.84
797.601	981.62
797.785	1046.14
797.969	1068.61
798.153	980.07
798.338	1009.13
798.522	1049.82
798.706	1042.26
798.89	1038.58
799.074	1110.07
799.258	1068.81
799.443	1013.01
799.627	1023.66
799.811	1034.51
799.995	1014.94
800.179	1000.03
800.363	1027.15
800.547	1026.18
800.731	1039.94
800.915	998.48
801.099	1008.16
801.283	989.76
801.467	1057.38
801.651	1000.61
801.835	1050.98
802.019	1029.09
802.202	1027.34
802.386	973.29
802.57	1003.51
802.754	985.69
802.938	980.46
803.121	973.68
803.305	1047.69
803.489	1004.87
803.673	1007.97
803.856	1058.54
804.04	1009.13
804.224	1034.71
804.407	1009.13
804.591	1023.86
804.775	1015.72
804.958	1037.81
805.142	1119.37
805.326	1036.45
805.509	1000.61
805.693	1009.71
805.876	1087.41
806.06	1016.11
806.243	1027.34
806.427	1077.14
806.61	1057.18
806.794	1007
806.977	1056.99
807.16	1017.66
807.344	1008.36
807.527	1044.78
807.71	960.89
807.894	1018.82
808.077	1069.97
808.26	957.6
808.444	994.99
808.627	1071.91
808.81	999.45
808.993	1007.97
809.177	963.6
809.36	986.08
809.543	1036.64
809.726	910.71
809.909	962.05
810.092	934.35
810.276	930.28
810.459	988.4
810.642	941.71
810.825	900.83
811.008	935.12
811.191	854.13
811.374	896.18
811.557	936.09
811.74	989.95
811.923	866.92
812.106	883.58
812.289	839.99
812.472	878.35
812.654	932.8
812.837	887.85
813.02	843.48
813.203	848.13
813.386	785.74
813.569	771.99
813.751	766.75
813.934	812.67
814.117	785.16
814.3	731.49
814.482	742.92
814.665	740.99
814.848	697.2
815.03	660.19
815.213	706.11
815.396	689.06
815.578	669.49
815.761	636.56
815.943	712.12
816.126	645.47
816.309	635.2
816.491	622.99
816.674	549.56
816.856	639.66
817.039	603.81
817.221	693.13
817.403	619.51
817.586	617.18
817.768	653.41
817.951	608.27
818.133	582.5
818.315	634.43
818.498	630.16
818.68	692.16
818.862	644.69
819.045	679.96
819.227	672.01
819.409	627.84
819.591	666.59
819.774	638.88
819.956	598.97
820.138	674.72
820.32	681.12
820.502	669.69
820.684	711.73
820.866	681.51
821.048	741.96
821.231	733.43
821.413	718.12
821.595	717.16
821.777	692.74
821.959	689.45
822.141	772.18
822.323	652.64
822.505	662.52
822.686	665.04
822.868	665.23
823.05	562.55
823.232	598.39
823.414	548.21
823.596	600.91
823.778	560.22
823.96	573.01
824.141	548.01
824.323	567.78
824.505	606.33
824.687	635.01
824.868	636.75
825.05	704.37
825.232	718.9
825.413	747.77
825.595	687.9
825.777	658.45
825.958	706.5
826.14	672.01
826.321	719.09
826.503	689.26
826.685	713.28
826.866	717.93
827.048	694.87
827.229	698.36
827.411	649.93
827.592	630.55
827.773	664.84
827.955	598
828.136	653.61
828.318	620.67
828.499	649.93
828.68	591.61
828.862	667.36
829.043	666.2
829.224	652.06
829.406	608.66
829.587	608.66
829.768	601.49
829.949	633.46
830.131	617.38
830.312	687.32
830.493	628.42
830.674	641.59
830.855	628.23
831.036	613.31
831.218	643.53
831.399	664.07
831.58	652.64
831.761	658.64
831.942	678.99
832.123	618.34
832.304	583.28
832.485	606.14
832.666	628.61
832.847	647.41
833.028	614.28
833.209	639.08
833.389	621.83
833.57	604.01
833.751	627.64
833.932	677.44
834.113	642.37
834.294	619.89
834.475	637.14
834.655	674.92
834.836	684.61
835.017	628.23
835.198	571.65
835.378	645.47
835.559	669.11
835.74	644.5
835.92	603.62
836.101	612.14
836.281	649.73
836.462	618.93
836.643	689.26
836.823	668.33
837.004	648.38
837.184	713.47
837.365	686.74
837.545	698.94
837.726	656.32
837.906	690.03
838.087	660
838.267	663.1
838.448	644.5
838.628	661.55
838.808	645.66
838.989	712.31
839.169	622.99
839.349	682.09
839.53	682.28
839.71	662.71
839.89	626.68
840.07	697.2
840.251	648.57
840.431	691.97
840.611	665.04
840.791	616.99
840.971	659.61
841.151	651.28
841.332	613.69
841.512	693.52
841.692	585.02
841.872	648.96
842.052	646.24
842.232	676.86
842.412	586.96
842.592	625.9
842.772	667.75
842.952	675.5
843.132	650.12
843.312	616.99
843.492	609.43
843.672	667.56
843.851	561.58
844.031	653.61
844.211	626.48
844.391	621.44
844.571	662.32
844.751	675.69
844.93	667.56
845.11	617.18
845.29	641.21
845.47	650.51
845.649	615.83
845.829	627.45
846.009	615.83
846.188	637.14
846.368	623.58
846.547	642.37
846.727	676.86
846.907	581.53
847.086	660.58
847.266	684.8
847.445	653.61
847.625	597.61
847.804	630.94
847.984	627.45
848.163	592.19
848.343	633.84
848.522	627.64
848.701	620.86
848.881	592.19
849.06	615.63
849.239	622.41
849.419	656.51
849.598	599.74
849.777	593.54
849.957	612.53
850.136	539.49
850.315	534.45
850.494	562.16
850.674	557.12
850.853	619.12
851.032	585.21
851.211	623.77
851.39	596.84
851.569	528.83
851.748	536
851.927	604.78
852.107	589.09
852.286	579.59
852.465	496.28
852.644	594.9
852.823	591.61
853.002	580.18
853.181	575.53
853.359	588.31
853.538	530.58
853.717	610.21
853.896	513.33
854.075	492.8
854.254	487.76
854.433	484.85
854.611	522.25
854.79	483.88
854.969	523.02
855.148	544.14
855.327	446.68
855.505	511.78
855.684	496.28
855.863	490.08
856.041	483.88
856.22	500.93
856.399	478.27
856.577	563.9
856.756	544.53
856.934	654.38
857.113	618.15
857.291	559.06
857.47	524.38
857.648	546.27
857.827	530.77
858.005	565.26
858.184	536.78
858.362	638.88
858.541	581.73
858.719	566.23
858.898	546.66
859.076	530
859.254	605.75
859.433	544.53
859.611	522.25
859.789	482.14
859.967	622.8
860.146	603.43
860.324	491.63
860.502	518.37
860.68	496.28
860.859	517.21
861.037	524.38
861.215	566.03
861.393	533.1
861.571	537.75
861.749	499.19
861.927	536.2
862.105	517.21
862.283	520.11
862.461	509.46
862.639	485.24
862.817	522.83
862.995	512.56
863.173	485.24
863.351	519.92
863.529	544.53
863.707	570.88
863.885	527.09
864.063	473.42
864.241	486.98
864.418	581.53
864.596	474.58
864.774	470.52
864.952	540.07
865.129	509.65
865.307	486.4
865.485	446.68
865.663	536.2
865.84	475.55
866.018	505.78
866.196	394.57
866.373	462.77
866.551	438.55
866.728	380.23
866.906	421.69
867.084	427.5
867.261	458.31
867.439	468.38
867.616	500.35
867.794	455.6
867.971	481.17
868.149	440.87
868.326	500.16
868.503	499.96
868.681	484.66
868.858	466.25
869.035	438.55
869.213	495.7
869.39	466.25
869.567	517.98
869.745	465.48
869.922	476.91
870.099	459.47
870.276	500.35
870.454	475.75
870.631	491.44
870.808	434.09
870.985	500.16
871.162	561.77
871.339	474.58
871.517	450.37
871.694	433.7
871.871	467.8
872.048	451.72
872.225	402.32
872.402	475.36
872.579	448.43
872.756	454.05
872.933	421.88
873.11	438.93
873.287	437.19
873.463	442.23
873.64	401.15
873.817	489.31
873.994	449.98
874.171	417.43
874.348	458.89
874.524	380.04
874.701	432.93
874.878	375.58
875.055	460.25
875.231	437.38
875.408	463.35
875.585	376.94
875.762	443.97
875.938	423.82
876.115	445.33
876.291	430.8
876.468	433.51
876.645	407.55
876.821	418.98
876.998	400.18
877.174	419.17
877.351	393.21
877.527	397.86
877.704	437.77
877.88	396.12
878.057	400.77
878.233	482.72
878.409	419.56
878.586	434.48
878.762	423.63
878.938	393.79
879.115	334.31
879.291	400.57
879.467	364.34
879.644	412.39
879.82	424.4
879.996	371.9
880.172	355.43
880.349	397.67
880.525	438.16
880.701	374.61
880.877	364.34
881.053	438.35
881.229	390.11
881.405	444.55
881.581	377.9
881.757	363.76
881.933	409.48
882.109	415.88
882.285	391.66
882.461	345.74
882.637	410.26
882.813	343.61
882.989	381.97
883.165	427.7
883.341	368.22
883.517	425.76
883.693	386.62
883.869	399.02
884.044	354.65
884.22	406.58
884.396	419.37
884.572	411.03
884.747	421.3
884.923	399.8
885.099	431.77
885.275	441.07
885.45	372.48
885.626	360.08
885.801	372.67
885.977	347.29
886.153	321.72
886.328	404.06
886.504	360.66
886.679	406.97
886.855	375.77
887.03	405.03
887.206	458.31
887.381	382.94
887.557	380.23
887.732	418.4
887.908	404.83
888.083	427.7
888.258	365.7
888.434	365.7
888.609	368.99
888.784	430.41
888.96	379.65
889.135	359.3
889.31	351.75
889.485	366.28
889.661	373.06
889.836	405.42
890.011	427.5
890.186	357.37
890.361	370.35
890.537	407.35
890.712	387.2
890.887	386.62
891.062	366.86
891.237	414.52
891.412	345.35
891.587	369.38
891.762	392.82
891.937	435.83
892.112	365.89
892.287	360.47
892.462	333.92
892.637	314.74
892.812	317.45
892.987	384.1
893.161	310.87
893.336	348.65
893.511	369.19
893.686	358.72
893.861	338.77
894.035	338.19
894.21	347.1
894.385	299.24
894.56	368.22
894.734	323.27
894.909	325.79
895.084	321.91
895.258	335.86
895.433	350.59
895.608	293.04
895.782	292.07
895.957	291.49
896.131	312.22
896.306	269.79
896.48	260.49
896.655	320.94
896.829	246.35
897.004	219.03
897.178	262.62
897.353	251.39
897.527	309.51
897.701	257.2
897.876	202.76
898.05	283.36
898.224	277.93
898.399	296.72
898.573	273.47
898.747	187.45
898.921	284.32
899.096	190.94
899.27	229.11
899.444	201.4
899.618	199.66
899.792	214.19
899.967	222.32
900.141	255.65
900.315	213.22
900.489	227.75
900.663	242.86
900.837	239.18
901.011	201.79
901.185	283.74
901.359	239.76
901.533	229.49
901.707	229.3
901.881	217.29
902.055	191.33
902.229	204.11
902.403	277.35
902.576	228.52
902.75	232.98
902.924	334.89
903.098	252.16
903.272	299.24
903.446	318.81
903.619	255.65
903.793	235.69
903.967	250.61
904.14	300.99
904.314	303.89
904.488	280.64
904.661	287.23
904.835	259.72
905.009	320.75
905.182	333.15
905.356	299.82
905.529	279.29
905.703	250.42
905.876	255.65
906.05	232.21
906.223	250.81
906.397	217.48
906.57	234.34
906.744	189.78
906.917	190.74
907.09	224.46
907.264	213.8
907.437	195.39
907.61	195.01
907.784	221.36
907.957	192.68
908.13	207.41
908.304	281.22
908.477	192.88
908.65	188.81
908.823	197.14
908.996	286.65
909.17	210.7
909.343	202.37
909.516	217.29
909.689	203.92
909.862	194.04
910.035	200.82
910.208	172.73
910.381	161.1
910.554	268.44
910.727	177.18
910.9	190.94
911.073	156.64
911.246	249.26
911.419	213.22
911.592	221.16
911.765	188.03
911.938	207.79
912.11	199.85
912.283	187.84
912.456	214.38
912.629	196.17
912.802	193.46
912.974	151.41
913.147	162.65
913.32	142.31
913.493	154.9
913.665	192.88
913.838	193.26
914.01	155.68
914.183	155.87
914.356	135.14
914.528	192.88
914.701	219.03
914.873	225.04
915.046	158.58
915.218	172.73
915.391	138.24
915.563	138.43
915.736	177.57
915.908	202.76
916.081	177.38
916.253	135.33
916.425	189.39
916.598	176.6
916.77	180.48
916.942	132.81
917.115	115.18
917.287	184.54
917.459	143.08
917.632	129.33
917.804	93.1
917.976	156.06
918.148	176.79
918.32	167.88
918.493	179.89
918.665	196.56
918.837	162.26
919.009	213.03
919.181	206.63
919.353	166.33
919.525	146.38
919.697	159.94
919.869	167.3
920.041	212.06
920.213	262.24
920.385	199.27
920.557	146.76
920.729	168.27
920.901	173.5
921.073	180.86
921.244	151.03
921.416	221.94
921.588	196.94
921.76	131.65
921.932	269.99
922.103	158.19
922.275	171.18
922.447	181.83
922.619	93.68
922.79	171.95
922.962	170.21
923.134	203.34
923.305	139.98
923.477	146.76
923.648	114.99
923.82	154.13
923.991	108.21
924.163	115.38
924.335	155.68
924.506	159.16
924.677	173.11
924.849	132.62
925.02	132.04
925.192	152.38
925.363	150.25
925.535	155.87
925.706	120.61
925.877	180.67
926.049	117.9
926.22	163.43
926.391	142.11
926.562	173.69
926.734	122.55
926.905	178.34
927.076	78.95
927.247	162.65
927.419	103.17
927.59	144.44
927.761	133.2
927.932	129.52
928.103	137.66
928.274	120.8
928.445	96.97
928.616	130.49
928.787	122.16
928.958	139.79
929.129	136.3
929.3	108.01
929.471	90.38
929.642	53.38
929.813	37.3
929.984	114.99
930.155	49.11
930.326	84.57
930.496	67.71
930.667	9.98
930.838	69.26
931.009	63.84
931.18	74.88
931.35	75.66
931.521	66.36
931.692	37.3
931.863	18.12
932.033	47.37
932.204	49.31
932.374	59.58
932.545	20.83
932.716	80.11
932.886	84.57
933.057	21.6
933.227	31.68
933.398	102.01
933.568	32.84
933.739	1.45
933.909	-1.84
934.08	58.61
934.25	-18.89
934.421	-9.98
934.591	29.74
934.761	-29.35
934.932	-43.88
935.102	-3.2
935.272	-9.01
935.443	-5.33
935.613	24.7
935.783	16.37
935.953	-22.77
936.123	143.86
936.294	-7.46
936.464	3.78
936.634	-7.07
936.804	-36.33
936.974	-18.5
937.144	52.02
937.314	9.01
937.484	-0.29
937.655	-26.64
937.825	59.96
937.995	-0.48
938.165	29.93
938.334	-1.26
938.504	12.88
938.674	0.29
938.844	-6.49
939.014	36.33
939.184	-19.86
939.354	68.68
939.524	37.49
939.694	6.3
939.863	8.82
940.033	94.06
940.203	71.59
940.373	39.82
940.542	72.36
940.712	5.72
940.882	40.2
941.051	62.87
941.221	50.86
941.391	57.06
941.56	17.34
941.73	-1.65
941.899	114.41
942.069	-12.3
942.238	68.49
942.408	27.8
942.577	68.1
942.747	23.54
942.916	-32.07
943.086	-4.55
943.255	65.58
943.425	35.55
943.594	27.8
943.763	-28.58
943.933	-2.42
944.102	-34.78
944.271	12.5
944.441	9.78
944.61	-27.03
944.779	24.7
944.948	81.28
945.117	-20.25
945.287	25.09
945.456	-34.2
945.625	-1.07
945.794	48.73
945.963	-1.45
946.132	61.9
946.301	-15.21
946.47	29.93
946.639	-33.03
946.808	-26.45
946.977	25.87
947.146	67.71
947.315	-19.08
947.484	46.21
947.653	11.33
947.822	-12.5
947.991	-10.37
948.16	83.21
948.329	37.3
948.498	8.43
948.666	48.73
948.835	42.92
949.004	-15.79
949.173	-18.5
949.341	26.25
949.51	33.03
949.679	86.31
949.847	81.66
950.016	105.5
950.185	67.52
950.353	-6.1
950.522	18.7
950.69	46.01
950.859	-40.2
951.028	48.53
951.196	20.44
951.365	-0.87
951.533	15.21
951.701	49.31
951.87	48.73
952.038	-9.4
952.207	37.1
952.375	86.51
952.543	1.07
952.712	6.49
952.88	8.82
953.048	57.06
953.217	26.45
953.385	22.77
953.553	59.77
953.721	-8.04
953.89	30.52
954.058	-19.86
954.226	-6.49
954.394	34.39
954.562	-28.97
954.73	9.01
954.898	13.27
955.067	69.65
955.235	-1.45
955.403	57.25
955.571	90
955.739	35.94
955.907	-7.46
956.075	-2.42
956.243	-15.79
956.41	35.36
956.578	-29.16
956.746	-25.67
956.914	-5.91
957.082	40.01
957.25	17.15
957.418	-12.69
957.585	-8.82
957.753	52.99
957.921	-3.78
958.089	25.28
958.256	25.87
958.424	24.9
958.592	38.65
958.759	-5.13
958.927	60.16
959.095	7.65
959.262	29.74
959.43	33.62
959.597	-1.45
959.765	-3.97
959.932	-5.91
960.1	65.78
960.267	29.55
960.435	-7.46
960.602	49.89
960.77	5.33
960.937	-17.15
961.104	30.13
961.272	-15.4
961.439	-6.3
961.606	38.46
961.774	53.96
961.941	37.3
962.108	29.55
962.275	33.23
962.443	52.02
962.61	33.03
962.777	73.72
962.944	43.5
963.111	6.49
963.278	11.92
963.446	22.96
963.613	26.83
963.78	56.86
963.947	34.39
964.114	20.25
964.281	95.81
964.448	28.97
964.615	-0.68
964.782	30.32
964.949	47.18
965.116	60.16
965.282	64.23
965.449	10.56
965.616	-13.66
965.783	50.86
965.95	61.51
966.117	-3
966.283	37.3
966.45	58.03
966.617	52.41
966.784	59.58
966.95	41.37
967.117	68.3
967.284	5.33
967.45	-6.1
967.617	69.26
967.784	26.45
967.95	60.74
968.117	18.7
968.283	69.46
968.45	126.42
968.616	41.95
968.783	76.82
968.949	12.69
969.116	64.23
969.282	46.01
969.449	46.4
969.615	17.34
969.781	-22.96
969.948	-8.82
970.114	-18.89
970.28	57.45
970.447	15.02
970.613	56.28
970.779	17.15
970.945	53.57
971.112	25.09
971.278	-10.17
971.444	11.14
971.61	45.63
971.776	1.45
971.942	32.26
972.108	56.48
972.275	32.26
972.441	40.78
972.607	113.83
972.773	4.55
972.939	68.1
973.105	34.2
973.271	-29.74
973.437	26.06
973.602	2.62
973.768	31.68
973.934	35.94
974.1	42.14
974.266	-40.98
974.432	43.88
974.598	35.55
974.763	41.75
974.929	25.09
975.095	73.14
975.261	5.13
975.426	11.72
975.592	36.72
975.758	98.52
975.923	-18.31
976.089	14.43
976.255	62.48
976.42	45.24
976.586	20.05
976.751	29.74
976.917	103.75
977.082	44.85
977.248	-9.4
977.413	-28.38
977.579	12.69
977.744	36.13
977.91	-16.76
978.075	-7.85
978.24	49.7
978.406	8.43
978.571	13.08
978.736	9.4
978.902	42.53
979.067	-0.1
979.232	-19.67
979.397	21.41
979.563	81.28
979.728	-27.61
979.893	33.42
980.058	22.18
980.223	65.39
980.388	43.69
980.554	41.95
980.719	2.81
980.884	30.71
981.049	54.35
981.214	21.02
981.379	45.24
981.544	-16.18
981.709	4.36
981.874	7.07
982.039	-6.1
982.204	46.21
982.368	31.87
982.533	-14.24
982.698	62.1
982.863	82.25
983.028	21.6
983.193	33.03
983.357	39.43
983.522	28.77
983.687	-7.07
983.852	13.66
984.016	13.08
984.181	23.73
984.346	40.98
984.51	25.09
984.675	34.2
984.839	54.73
985.004	40.59
985.168	80.31
985.333	48.53
985.498	22.77
985.662	65.2
985.827	33.42
985.991	26.06
986.155	5.13
986.32	64.42
986.484	79.15
986.649	43.3
986.813	-6.49
986.977	21.99
987.142	68.49
987.306	1.45
987.47	25.48
987.634	15.02
987.799	18.12
987.963	20.44
988.127	39.62
988.291	88.45
988.455	40.59
988.62	34.97
988.784	40.01
988.948	41.56
989.112	1.65
989.276	45.82
989.44	9.78
989.604	-12.88
989.768	5.52
989.932	86.12
990.096	-13.47
990.26	-39.62
990.424	-8.82
990.588	60.35
990.752	96.97
990.915	60.74
991.079	9.78
991.243	-1.07
991.407	60.16
991.571	24.12
991.734	62.29
991.898	71.59
992.062	125.26
992.226	19.86
992.389	-5.33
992.553	-20.25
992.717	3.58
992.88	-9.2
993.044	48.92
993.207	39.43
993.371	41.95
993.535	60.55
993.698	11.92
993.862	50.28
994.025	53.57
994.189	43.69
994.352	3
994.515	53.76
994.679	96.78
994.842	9.78
995.006	53.76
995.169	0.87
995.332	9.98
995.496	56.48
995.659	-9.2
995.822	23.93
995.985	20.83
996.149	85.93
996.312	12.88
996.475	79.15
996.638	-7.46
996.801	61.13
996.964	87.67
997.128	23.35
997.291	9.4
997.454	27.03
997.617	-31.68
997.78	55.12
997.943	14.82
998.106	75.08
998.269	6.3
998.432	30.52
998.595	19.86
998.758	-36.52
998.92	24.7
999.083	-20.05
999.246	-0.68
999.409	-14.24
999.572	-17.73
999.735	4.17
999.897	31.29
1000.06	1.84
1000.223	-5.72
1000.386	57.25
1000.548	50.08
1000.711	34.78
1000.874	25.09
1001.036	-31.48
1001.199	39.62
1001.361	-16.18
1001.524	27.8
1001.687	41.37
1001.849	20.63
1002.012	30.9
1002.174	32.84
1002.337	43.3
1002.499	10.17
1002.661	63.65
1002.824	-29.55
1002.986	8.04
1003.149	14.43
1003.311	10.37
1003.473	66.55
1003.636	-21.8
1003.798	60.35
1003.96	29.16
1004.123	22.38
1004.285	-17.53
1004.447	32.65
1004.609	-2.42
1004.771	60.35
1004.933	-26.06
1005.096	-2.23
1005.258	-30.32
1005.42	9.78
1005.582	30.32
1005.744	20.63
1005.906	-37.68
1006.068	21.22
1006.23	-22.18
1006.392	-27.03
1006.554	-28.38
1006.716	69.85
1006.878	41.17
1007.04	-47.18
1007.202	-0.48
1007.363	17.15
1007.525	32.84
1007.687	34.97
1007.849	51.63
1008.011	-32.07
1008.172	-27.8
1008.334	19.47
1008.496	46.4
1008.658	-38.46
1008.819	-17.73
1008.981	-20.63
1009.143	8.62
1009.304	11.14
1009.466	32.07
1009.627	71.2
1009.789	116.15
1009.95	23.54
1010.112	-9.2
1010.273	45.63
1010.435	-10.75
1010.596	18.12
1010.758	15.79
1010.919	22.18
1011.081	-13.27
1011.242	7.65
1011.403	34.58
1011.565	-8.62
1011.726	32.26
1011.887	-32.84
1012.049	-4.36
1012.21	41.75
1012.371	80.7
1012.532	-33.23
1012.693	-6.3
1012.855	-2.42
1013.016	5.52
1013.177	42.92
1013.338	6.68
1013.499	65.58
1013.66	31.68
1013.821	52.02
1013.982	32.45
1014.143	22.77
1014.304	-3.78
1014.465	31.87
1014.626	60.55
1014.787	3.58
1014.948	88.45
1015.109	-37.88
1015.27	40.98
1015.431	-12.3
1015.592	-4.94
1015.752	49.5
1015.913	18.31
1016.074	28.58
1016.235	15.6
1016.395	23.15
1016.556	7.85
1016.717	-17.73
1016.877	61.13
1017.038	-16.95
1017.199	20.25
1017.359	24.9
1017.52	37.1
1017.681	-6.88
1017.841	1.26
1018.002	-14.43
1018.162	-14.43
1018.323	55.12
1018.483	17.92
1018.644	-8.82
1018.804	-21.41
1018.964	-34
1019.125	-3
1019.285	12.11
1019.446	-17.73
1019.606	-33.03
1019.766	-48.53
1019.926	20.05
1020.087	12.69
1020.247	-21.99
1020.407	45.43
1020.567	30.32
1020.728	19.86
1020.888	-47.37
1021.048	-37.3
1021.208	-21.22
1021.368	-15.02
1021.528	45.82
1021.688	42.92
1021.848	25.28
1022.008	15.02
1022.168	-32.26
1022.328	11.14
1022.488	6.3
1022.648	-19.67
1022.808	-0.1
1022.968	-5.72
1023.128	-24.12
1023.288	-10.17
1023.448	16.95
1023.608	19.86
1023.767	11.92
1023.927	-24.9
1024.087	2.62
1024.247	-25.09
1024.406	-23.73
1024.566	-46.6
1024.726	-21.99
1024.885	5.72
1025.045	43.3
1025.205	-19.86
1025.364	-22.38
1025.524	55.31
1025.683	18.7
1025.843	-0.1
1026.003	-6.3
1026.162	58.8
1026.321	33.03
1026.481	7.07
1026.64	3.78
1026.8	-3
1026.959	9.59
1027.119	6.1
1027.278	24.9
1027.437	-8.82
1027.597	16.95
1027.756	33.23
1027.915	19.47
1028.074	29.93
1028.234	-20.05
1028.393	0.1
1028.552	-37.1
1028.711	-53.57
1028.87	36.33
1029.03	-33.23
1029.189	-23.35
1029.348	-56.28
1029.507	-6.49
1029.666	16.18
1029.825	-50.08
1029.984	-28.38
1030.143	29.93
1030.302	-12.69
1030.461	-50.08
1030.62	0.48
1030.779	30.32
1030.938	-7.07
1031.097	-20.05
1031.255	33.62
1031.414	53.57
1031.573	49.89
1031.732	-44.27
1031.891	2.81
1032.049	50.86
1032.208	11.14
1032.367	-32.26
1032.525	-8.82
1032.684	-9.98
1032.843	15.6
1033.001	-49.5
1033.16	149.67
1033.319	46.98
1033.477	27.03
1033.636	-9.4
1033.794	-41.17
1033.953	29.16
1034.111	17.92
1034.27	-1.45
1034.428	34.58
1034.587	-23.54
1034.745	9.98
1034.903	17.34
1035.062	1.45
1035.22	-38.65
1035.378	17.53
1035.537	-50.47
1035.695	17.15
1035.853	-5.52
1036.011	26.83
1036.17	21.22
1036.328	-60.16
1036.486	21.02
1036.644	16.76
1036.802	-73.91
1036.96	-25.67
1037.119	12.69
1037.277	-26.83
1037.435	-40.4
1037.593	-7.07
1037.751	12.69
1037.909	36.91
1038.067	36.91
