Data from pine_FLMT105791__51__17-20-51-078.txt Node

Date: Mon Mar 20 17:20:51 GMT 2023
User: antho
Spectrometer: FLMT10579
Trigger mode: 0
Integration Time (sec): 1.000000E-1
Scans to average: 10
Electric dark correction enabled: true
Nonlinearity correction enabled: false
Boxcar width: 0
XAxis mode: Wavelengths
Number of Pixels in Spectrum: 3648
>>>>>Begin Spectral Data<<<<<
345.248	-189.99
345.464	-189.99
345.681	-189.99
345.898	-179.72
346.114	-176.81
346.331	-28.01
346.548	33.02
346.764	-12.9
346.981	-1.86
347.197	-26.08
347.414	25.66
347.631	-27.63
347.847	48.52
348.064	-7.48
348.28	40.19
348.497	-39.83
348.713	-3.6
348.93	16.16
349.146	6.09
349.363	-24.53
349.579	7.64
349.796	-6.89
350.012	-35.76
350.229	22.75
350.445	-6.89
350.661	-28.01
350.878	-11.35
351.094	2.41
351.311	18.29
351.527	14.42
351.743	-14.45
351.96	29.34
352.176	29.34
352.392	4.54
352.609	31.27
352.825	8.02
353.041	-5.73
353.257	-13.48
353.474	1.63
353.69	0.86
353.906	21.59
354.122	-30.92
354.339	36.51
354.555	7.25
354.771	-19.29
354.987	53.55
355.203	40.77
355.42	-12.71
355.636	-19.29
355.852	-8.06
356.068	-9.41
356.284	-37.31
356.5	60.34
356.716	5.31
356.932	-25.69
357.148	6.67
357.364	-8.44
357.58	31.08
357.796	56.46
358.012	68.86
358.228	19.65
358.444	-58.04
358.66	43.29
358.876	5.51
359.092	-40.22
359.308	-27.04
359.524	5.12
359.74	-8.83
359.956	-16.78
360.172	-4.57
360.388	24.49
360.604	-25.49
360.819	70.41
361.035	16.16
361.251	19.26
361.467	-43.71
361.683	31.47
361.898	2.99
362.114	21.97
362.33	-17.16
362.546	23.14
362.762	23.52
362.977	2.21
363.193	4.54
363.409	46.19
363.624	-27.63
363.84	-45.64
364.056	-33.83
364.271	9.77
364.487	8.61
364.703	-6.7
364.918	-23.17
365.134	-22.01
365.35	10.74
365.565	109.55
365.781	17.71
365.996	34.76
366.212	59.56
366.427	42.9
366.643	3.18
366.858	-11.35
367.074	-34.21
367.289	52
367.505	100.05
367.72	-54.17
367.936	-25.49
368.151	46
368.367	23.33
368.582	12.29
368.798	-17.94
369.013	42.9
369.228	19.84
369.444	8.61
369.659	52.78
369.874	18.68
370.09	57.43
370.305	-52.04
370.52	1.82
370.736	57.43
370.951	14.03
371.166	45.81
371.381	68.86
371.597	46.97
371.812	-32.86
372.027	-17.74
372.242	8.02
372.458	100.64
372.673	11.32
372.888	0.27
373.103	40.77
373.318	93.27
373.533	33.79
373.749	8.8
373.964	-38.47
374.179	58.4
374.394	-7.48
374.609	60.53
374.824	-24.33
375.039	37.86
375.254	-7.48
375.469	74.48
375.684	46.39
375.899	48.71
376.114	-15.61
376.329	5.89
376.544	34.18
376.759	56.85
376.974	-2.44
377.189	7.25
377.404	-7.67
377.619	77.97
377.834	-40.02
378.049	-32.66
378.264	-41.19
378.478	26.62
378.693	-26.27
378.908	30.5
379.123	26.82
379.338	66.92
379.553	27.79
379.767	17.91
379.982	58.79
380.197	42.32
380.412	17.52
380.626	41.93
380.841	83.2
381.056	17.32
381.271	80.49
381.485	0.47
381.7	-33.44
381.915	7.64
382.129	9.57
382.344	33.6
382.559	8.99
382.773	55.3
382.988	-15.61
383.202	17.52
383.417	-14.06
383.632	111.29
383.846	-3.21
384.061	20.04
384.275	3.57
384.49	17.13
384.704	33.02
384.919	24.3
385.133	8.99
385.348	21.59
385.562	-24.53
385.777	21.2
385.991	-1.28
386.206	27.4
386.42	-5.73
386.634	54.72
386.849	26.24
387.063	43.87
387.277	-13.29
387.492	22.94
387.706	-14.64
387.92	-21.62
388.135	33.41
388.349	14.22
388.563	30.5
388.778	27.59
388.992	37.28
389.206	34.37
389.42	85.91
389.635	-0.5
389.849	47.36
390.063	51.42
390.277	22.56
390.491	75.84
390.706	40.77
390.92	31.08
391.134	36.7
391.348	40.96
391.562	-32.08
391.776	18.29
391.99	-1.28
392.205	47.94
392.419	-26.27
392.633	0.66
392.847	69.05
393.061	-3.21
393.275	77.77
393.489	23.33
393.703	13.45
393.917	74.48
394.131	39.41
394.345	56.46
394.559	62.66
394.773	9.38
394.986	16.16
395.2	29.34
395.414	53.36
395.628	-17.36
395.842	26.82
396.056	-0.5
396.27	-39.44
396.484	21.97
396.697	19.07
396.911	50.26
397.125	41.54
397.339	59.75
397.553	20.42
397.766	96.76
397.98	52
398.194	65.57
398.408	19.84
398.621	31.66
398.835	30.5
399.049	48.91
399.262	89.4
399.476	55.69
399.69	55.49
399.903	81.45
400.117	28.56
400.331	56.85
400.544	0.27
400.758	150.82
400.971	51.62
401.185	83.2
401.398	15.39
401.612	87.85
401.826	72.74
402.039	83
402.253	41.16
402.466	42.51
402.68	31.86
402.893	34.76
403.106	26.24
403.32	50.26
403.533	84.36
403.747	39.22
403.96	69.44
404.174	63.24
404.387	12.87
404.6	40.96
404.814	72.15
405.027	28.95
405.24	65.37
405.454	49.49
405.667	73.12
405.88	-4.96
406.094	77.77
406.307	85.52
406.52	70.6
406.733	-2.05
406.947	0.66
407.16	105.09
407.373	76.8
407.586	3.37
407.799	27.98
408.012	79.32
408.226	50.07
408.439	118.85
408.652	19.65
408.865	59.56
409.078	70.6
409.291	77.77
409.504	-10.77
409.717	52.59
409.93	65.95
410.143	40.57
410.357	24.88
410.57	-8.64
410.783	22.17
410.996	41.93
411.209	44.64
411.421	103.93
411.634	53.55
411.847	16.36
412.06	52.2
412.273	39.22
412.486	37.28
412.699	136.29
412.912	43.29
413.125	82.42
413.338	47.36
413.55	63.05
413.763	58.4
413.976	39.61
414.189	40.19
414.402	37.47
414.615	102.57
414.827	24.69
415.04	124.66
415.253	64.6
415.466	73.12
415.678	127.95
415.891	59.56
416.104	54.33
416.316	70.6
416.529	45.03
416.742	63.44
416.954	84.17
417.167	60.14
417.38	58.59
417.592	109.55
417.805	30.5
418.017	27.79
418.23	81.07
418.442	47.36
418.655	46.58
418.868	50.07
419.08	75.64
419.293	104.51
419.505	63.63
419.718	71.77
419.93	102.77
420.142	64.02
420.355	132.41
420.567	122.53
420.78	94.44
420.992	61.3
421.205	109.55
421.417	33.21
421.629	60.14
421.842	43.09
422.054	6.47
422.266	101.41
422.479	99.09
422.691	63.82
422.903	97.92
423.115	48.32
423.328	62.27
423.54	84.94
423.752	77.19
423.964	68.47
424.177	74.87
424.389	62.08
424.601	173.1
424.813	92.69
425.025	133.96
425.238	96.57
425.45	62.66
425.662	57.62
425.874	359.87
426.086	92.3
426.298	108.19
426.51	103.74
426.722	81.07
426.934	71.57
427.146	123.89
427.358	41.54
427.57	126.4
427.782	91.92
427.994	101.6
428.206	57.24
428.418	52.59
428.63	105.09
428.842	132.99
429.054	101.99
429.266	134.93
429.478	31.08
429.69	85.14
429.902	33.6
430.114	109.55
430.325	86.49
430.537	80.1
430.749	82.42
430.961	52.97
431.173	103.54
431.384	116.72
431.596	14.61
431.808	99.28
432.02	114.39
432.231	123.11
432.443	156.43
432.655	121.37
432.867	92.5
433.078	146.36
433.29	174.45
433.502	152.56
433.713	181.23
433.925	130.67
434.136	172.9
434.348	106.84
434.56	61.89
434.771	222.7
434.983	60.72
435.194	120.2
435.406	121.37
435.617	171.16
435.829	163.41
436.04	157.98
436.252	147.72
436.463	205.07
436.675	150.82
436.886	162.05
437.098	141.32
437.309	181.82
437.521	144.23
437.732	171.74
437.943	178.33
438.155	182.98
438.366	104.32
438.578	206.62
438.789	160.7
439	175.62
439.211	140.55
439.423	183.17
439.634	164.38
439.845	178.13
440.057	174.26
440.268	188.4
440.479	119.62
440.69	170
440.902	170
441.113	181.62
441.324	123.11
441.535	200.42
441.746	224.63
441.957	150.82
442.168	160.5
442.38	173.48
442.591	215.53
442.802	147.33
443.013	183.37
443.224	218.24
443.435	163.8
443.646	201.19
443.857	197.12
444.068	168.25
444.279	179.1
444.49	264.35
444.701	207.78
444.912	304.65
445.123	270.16
445.334	214.75
445.545	228.51
445.756	207
445.967	192.28
446.178	209.13
446.388	255.44
446.599	237.81
446.81	251.56
447.021	192.28
447.232	265.13
447.443	265.13
447.653	205.26
447.864	250.4
448.075	215.33
448.286	241.49
448.496	242.85
448.707	275.01
448.918	202.35
449.129	334.29
449.339	207.39
449.55	272.1
449.761	213.98
449.971	259.7
450.182	233.93
450.393	268.23
450.603	229.09
450.814	272.49
451.024	258.54
451.235	307.95
451.446	306.78
451.656	318.6
451.867	215.72
452.077	264.35
452.288	324.99
452.498	315.11
452.709	261.06
452.919	269.58
453.13	266.48
453.34	292.25
453.55	220.95
453.761	298.06
453.971	298.65
454.182	256.99
454.392	307.95
454.602	347.28
454.813	273.46
455.023	318.99
455.233	257.76
455.444	281.21
455.654	192.28
455.864	282.37
456.075	284.7
456.285	252.34
456.495	271.71
456.705	287.8
456.916	337.78
457.126	335.46
457.336	318.02
457.546	231.8
457.756	254.86
457.967	349.79
458.177	281.21
458.387	298.26
458.597	276.56
458.807	289.54
459.017	278.5
459.227	282.37
459.437	277.72
459.647	316.08
459.857	340.3
460.068	278.69
460.278	350.38
460.488	297.1
460.698	374.79
460.908	292.64
461.117	240.13
461.327	291.86
461.537	324.99
461.747	314.53
461.957	296.9
462.167	423.81
462.377	349.21
462.587	313.18
462.797	366.46
463.007	315.11
463.216	374.79
463.426	342.04
463.636	339.53
463.846	296.9
464.056	313.76
464.265	374.01
464.475	314.92
464.685	340.49
464.895	349.41
465.104	331.97
465.314	364.71
465.524	294.58
465.733	289.93
465.943	374.4
466.153	393.97
466.362	379.05
466.572	355.03
466.782	339.14
466.991	345.92
467.201	401.52
467.41	297.68
467.62	388.35
467.829	363.55
468.039	388.35
468.249	364.71
468.458	344.95
468.668	398.81
468.877	416.64
469.086	435.43
469.296	418.96
469.505	350.57
469.715	436.01
469.924	384.67
470.134	429.62
470.343	413.73
470.552	364.33
470.762	360.26
470.971	358.13
471.18	383.31
471.39	381.96
471.599	376.92
471.808	408.11
472.018	374.4
472.227	440.47
472.436	476.7
472.645	424
472.855	388.74
473.064	485.61
473.273	394.94
473.482	443.37
473.691	485.42
473.901	439.11
474.11	405.59
474.319	507.5
474.528	447.06
474.737	496.07
474.946	451.32
475.155	462.17
475.364	476.7
475.573	447.83
475.783	462.75
475.992	477.47
476.201	500.53
476.41	472.82
476.619	447.06
476.828	465.46
477.037	459.26
477.245	467.4
477.454	502.85
477.663	444.92
477.872	444.54
478.081	540.64
478.29	479.99
478.499	577.06
478.708	497.82
478.917	582.1
479.125	499.75
479.334	530.75
479.543	481.74
479.752	540.25
479.961	530.17
480.169	546.84
480.378	504.02
480.587	625.11
480.796	575.51
481.004	533.27
481.213	571.83
481.422	548.58
481.63	568.54
481.839	590.82
482.048	614.84
482.256	585.97
482.465	591.78
482.674	594.3
482.882	624.14
483.091	652.62
483.299	613.29
483.508	618.72
483.716	583.07
483.925	628.21
484.134	593.72
484.342	594.3
484.551	626.85
484.759	622.78
484.967	622.98
485.176	647.2
485.384	675.1
485.593	679.16
485.801	626.85
486.01	599.34
486.218	577.83
486.426	546.45
486.635	581.32
486.843	533.27
487.051	593.14
487.26	575.51
487.468	599.34
487.676	634.8
487.885	608.45
488.093	618.13
488.301	612.9
488.509	653.98
488.717	664.83
488.926	645.65
489.134	622.98
489.342	674.32
489.55	630.15
489.758	677.61
489.967	648.36
490.175	786.69
490.383	696.6
490.591	760.15
490.799	648.17
491.007	754.34
491.215	669.09
491.423	695.25
491.631	703.58
491.839	709.58
492.047	736.9
492.255	648.17
492.463	635.57
492.671	673.74
492.879	746.98
493.087	717.14
493.295	746.98
493.503	738.06
493.711	775.07
493.919	781.85
494.127	801.03
494.334	790.18
494.542	722.76
494.75	746.01
494.958	744.85
495.166	789.99
495.374	782.24
495.581	759.18
495.789	780.11
495.997	857.02
496.205	775.46
496.412	757.83
496.62	777.2
496.828	804.91
497.035	787.86
497.243	820.41
497.451	815.76
497.658	800.45
497.866	802.97
498.074	864.58
498.281	784.56
498.489	861.09
498.696	801.23
498.904	812.27
499.112	777.98
499.319	867.68
499.527	809.17
499.734	855.86
499.942	741.55
500.149	807.62
500.357	837.26
500.564	797.54
500.771	832.81
500.979	752.01
501.186	804.91
501.394	820.02
501.601	802
501.808	850.82
502.016	806.07
502.223	827.58
502.43	818.47
502.638	823.12
502.845	794.44
503.052	890.16
503.26	831.45
503.467	910.11
503.674	855.86
503.881	871.36
504.089	922.71
504.296	869.62
504.503	854.31
504.71	847.92
504.917	825.06
505.125	878.72
505.332	878.92
505.539	888.61
505.746	953.7
505.953	931.23
506.16	908.37
506.367	951.96
506.574	980.05
506.781	985.09
506.988	903.91
507.195	921.93
507.402	888.02
507.609	949.83
507.816	886.86
508.023	907.79
508.23	914.37
508.437	883.18
508.644	947.7
508.851	957
509.058	940.53
509.265	923.09
509.472	982.38
509.679	1052.13
509.885	940.14
510.092	962.62
510.299	985.67
510.506	949.83
510.713	973.08
510.92	972.11
511.126	1002.92
511.333	1049.8
511.54	995.17
511.746	1054.45
511.953	1039.15
512.16	1042.63
512.367	995.36
512.573	1007.18
512.78	1036.82
512.987	978.31
513.193	984.7
513.4	957.19
513.606	1004.47
513.813	1025.2
514.02	975.6
514.226	1081.58
514.433	1093.98
514.639	1009.5
514.846	1036.05
515.052	1019.97
515.259	1024.62
515.465	1062.98
515.672	1068.79
515.878	1148.23
516.085	1048.83
516.291	1067.24
516.497	1032.17
516.704	1038.37
516.91	975.21
517.117	1005.44
517.323	909.14
517.529	994
517.736	984.7
517.942	1001.56
518.148	998.46
518.354	1043.02
518.561	1041.08
518.767	1062.98
518.973	1043.8
519.179	1068.21
519.386	1040.31
519.592	1064.53
519.798	1023.84
520.004	1155.78
520.21	1080.03
520.417	1131.56
520.623	1170.12
520.829	1151.33
521.035	1158.11
521.241	1176.51
521.447	1140.67
521.653	1280.36
521.859	1171.28
522.065	1202.28
522.271	1289.86
522.477	1228.63
522.683	1296.06
522.889	1240.64
523.095	1235.8
523.301	1217.01
523.507	1218.36
523.713	1230.38
523.919	1191.82
524.125	1268.93
524.331	1258.47
524.537	1336.94
524.742	1290.44
524.948	1320.66
525.154	1328.41
525.36	1384.99
525.566	1316.21
525.772	1369.29
525.977	1282.88
526.183	1342.56
526.389	1374.72
526.595	1269.9
526.8	1297.99
527.006	1237.35
527.212	1190.85
527.417	1176.51
527.623	1173.61
527.829	1269.51
528.034	1304.58
528.24	1287.34
528.446	1256.73
528.651	1358.83
528.857	1331.32
529.062	1425.09
529.268	1366.58
529.473	1372.78
529.679	1356.31
529.884	1423.74
530.09	1416.57
530.295	1434.39
530.501	1444.47
530.706	1408.62
530.912	1371.81
531.117	1407.65
531.323	1441.95
531.528	1462.29
531.733	1487.28
531.939	1425.48
532.144	1489.8
532.35	1456.67
532.555	1504.14
532.76	1440.59
532.966	1472.95
533.171	1431.49
533.376	1382.47
533.581	1380.14
533.787	1409.4
533.992	1451.63
534.197	1474.3
534.402	1413.08
534.607	1452.02
534.813	1536.69
535.018	1471.2
535.223	1465.78
535.428	1474.3
535.633	1507.82
535.838	1529.91
536.043	1511.89
536.249	1583.19
536.454	1516.93
536.659	1554.32
536.864	1482.25
537.069	1510.92
537.274	1512.47
537.479	1515.96
537.684	1538.63
537.889	1503.56
538.094	1625.43
538.299	1509.76
538.504	1535.14
538.708	1546.57
538.913	1580.86
539.118	1558.58
539.323	1584.55
539.528	1528.75
539.733	1517.32
539.938	1550.06
540.142	1569.24
540.347	1535.53
540.552	1494.65
540.757	1535.53
540.962	1502.59
541.166	1458.8
541.371	1465
541.576	1521.97
541.781	1428
541.985	1521.77
542.19	1543.66
542.395	1607.8
542.599	1635.11
542.804	1582.03
543.008	1607.99
543.213	1538.24
543.418	1502.2
543.622	1589.78
543.827	1527.58
544.031	1595.2
544.236	1610.7
544.44	1607.41
544.645	1666.11
544.849	1565.95
545.054	1620.58
545.258	1687.23
545.463	1658.56
545.667	1558.78
545.872	1605.86
546.076	1605.08
546.281	1639.76
546.485	1592.1
546.689	1650.42
546.894	1654.68
547.098	1630.46
547.302	1583
547.507	1614.58
547.711	1655.07
547.915	1667.08
548.119	1595.4
548.324	1602.56
548.528	1672.51
548.732	1607.02
548.936	1637.63
549.141	1665.92
549.345	1626.59
549.549	1604.31
549.753	1634.73
549.957	1719.78
550.161	1682.39
550.366	1634.53
550.57	1636.08
550.774	1651.19
550.978	1666.89
551.182	1660.49
551.386	1630.85
551.59	1631.82
551.794	1654.29
551.998	1673.48
552.202	1668.05
552.406	1585.32
552.61	1656.43
552.814	1612.25
553.018	1702.73
553.222	1626.39
553.426	1649.06
553.63	1708.93
553.833	1614.58
554.037	1610.51
554.241	1667.66
554.445	1631.63
554.649	1620.78
554.853	1624.65
555.056	1723.66
555.26	1685.1
555.464	1678.9
555.668	1670.57
555.871	1688.59
556.075	1697.89
556.279	1595.78
556.483	1611.28
556.686	1647.9
556.89	1642.67
557.094	1645.38
557.297	1581.45
557.501	1688.78
557.704	1545.21
557.908	1681.81
558.112	1575.25
558.315	1692.85
558.519	1621.16
558.722	1614.19
558.926	1596.17
559.129	1548.31
559.333	1555.87
559.536	1571.18
559.74	1532.62
559.943	1536.88
560.147	1561.68
560.35	1582.22
560.553	1580.28
560.757	1504.72
560.96	1616.51
561.164	1534.56
561.367	1632.59
561.57	1606.25
561.774	1588.23
561.977	1579.51
562.18	1521.97
562.384	1653.13
562.587	1541.15
562.79	1555.48
562.993	1544.05
563.197	1602.56
563.4	1630.46
563.603	1616.71
563.806	1611.09
564.009	1564.98
564.212	1615.74
564.416	1496.97
564.619	1540.18
564.822	1474.5
565.025	1567.5
565.228	1533.01
565.431	1538.24
565.634	1469.07
565.837	1508.6
566.04	1471.98
566.243	1511.5
566.446	1409.79
566.649	1500.27
566.852	1439.43
567.055	1455.9
567.258	1503.37
567.461	1567.3
567.664	1555.29
567.867	1438.27
568.07	1528.94
568.273	1507.43
568.475	1562.46
568.678	1481.67
568.881	1485.54
569.084	1473.72
569.287	1356.89
569.489	1413.27
569.692	1459.58
569.895	1468.49
570.098	1422.57
570.3	1393.9
570.503	1353.21
570.706	1381.3
570.909	1394.29
571.111	1358.64
571.314	1359.41
571.516	1347.79
571.719	1392.35
571.922	1357.09
572.124	1370.07
572.327	1391.19
572.529	1330.74
572.732	1339.84
572.935	1361.54
573.137	1448.54
573.34	1360.77
573.542	1397.77
573.745	1400.87
573.947	1368.13
574.15	1374.72
574.352	1339.65
574.554	1457.45
574.757	1313.88
574.959	1333.26
575.162	1335.19
575.364	1306.71
575.566	1410.56
575.769	1296.06
575.971	1321.44
576.173	1217.59
576.376	1282.3
576.578	1384.4
576.78	1410.17
576.982	1250.14
577.185	1314.07
577.387	1266.22
577.589	1278.42
577.791	1339.26
577.993	1341.01
578.196	1290.05
578.398	1296.64
578.6	1336.74
578.802	1263.7
579.004	1265.83
579.206	1245.1
579.408	1303.81
579.61	1260.02
579.812	1322.41
580.014	1295.67
580.216	1245.1
580.418	1260.6
580.62	1274.94
580.822	1245.29
581.024	1260.41
581.226	1318.72
581.428	1293.92
581.63	1369.29
581.832	1282.88
582.034	1352.44
582.236	1284.24
582.438	1344.3
582.64	1320.27
582.841	1360.19
583.043	1402.81
583.245	1341.97
583.447	1315.04
583.649	1316.21
583.85	1316.59
584.052	1358.64
584.254	1263.89
584.456	1337.32
584.657	1292.18
584.859	1324.73
585.061	1325.12
585.262	1306.91
585.464	1259.24
585.666	1325.31
585.867	1251.88
586.069	1342.75
586.27	1270.48
586.472	1273
586.674	1255.37
586.875	1253.43
587.077	1267.19
587.278	1261.76
587.48	1216.81
587.681	1353.21
587.883	1292.18
588.084	1227.47
588.285	1241.03
588.487	1210.81
588.688	1246.26
588.89	1183.3
589.091	1179.42
589.292	1170.31
589.494	1138.35
589.695	1143.58
589.896	1072.67
590.098	1008.15
590.299	1127.3
590.5	1077.51
590.702	1108.51
590.903	1147.26
591.104	1185.23
591.305	1165.28
591.507	1237.35
591.708	1208.87
591.909	1151.91
592.11	1245.49
592.311	1229.79
592.512	1184.85
592.714	1126.72
592.915	1150.16
593.116	1185.23
593.317	1174.19
593.518	1166.44
593.719	1159.46
593.92	1200.54
594.121	1235.22
594.322	1203.64
594.523	1170.31
594.724	1145.9
594.925	1167.8
595.126	1202.86
595.327	1183.3
595.528	1202.09
595.729	1179.81
595.929	1170.12
596.13	1174.58
596.331	1179.81
596.532	1180.39
596.733	1248.59
596.934	1235.03
597.135	1190.27
597.335	1210.42
597.536	1138.15
597.737	1191.82
597.938	1125.75
598.138	1194.14
598.339	1161.4
598.54	1191.04
598.74	1188.91
598.941	1197.44
599.142	1249.17
599.342	1173.22
599.543	1146.68
599.744	1167.02
599.944	1151.13
600.145	1153.07
600.345	1188.53
600.546	1260.21
600.746	1206.35
600.947	1219.33
601.147	1182.33
601.348	1196.08
601.548	1158.11
601.749	1193.37
601.949	1145.51
602.15	1143.96
602.35	1191.82
602.551	1210.03
602.751	1116.65
602.951	1137.96
603.152	1110.06
603.352	1170.7
603.552	1181.94
603.753	1215.07
603.953	1188.91
604.153	1156.36
604.354	1154.81
604.554	1166.25
604.754	1194.53
604.954	1130.6
605.155	1186.78
605.355	1137.18
605.555	1229.21
605.755	1220.88
605.955	1160.24
606.155	1217.78
606.356	1185.23
606.556	1194.14
606.756	1173.8
606.956	1143
607.156	1189.88
607.356	1122.65
607.556	1153.26
607.756	1149.58
607.956	1187.17
608.156	1163.73
608.356	1110.25
608.556	1184.65
608.756	1134.08
608.956	1088.36
609.156	1156.17
609.356	1113.16
609.556	1089.33
609.755	1154.04
609.955	1122.85
610.155	1134.66
610.355	1125.56
610.555	1112.38
610.755	1146.68
610.954	1073.25
611.154	1151.13
611.354	1146.68
611.554	1107.15
611.753	1101.73
611.953	1049.61
612.153	1134.66
612.352	1130.98
612.552	1063.37
612.752	1056.58
612.951	1064.33
613.151	1088.75
613.351	1086.81
613.55	1078.67
613.75	1114.13
613.949	1074.8
614.149	1094.17
614.348	1096.69
614.548	1046.7
614.747	979.47
614.947	1040.89
615.146	1012.99
615.346	1087
615.545	1068.02
615.745	1055.62
615.944	1114.71
616.144	1077.51
616.343	1093.78
616.542	1026.55
616.742	1045.73
616.941	1035.66
617.14	989.94
617.34	1052.52
617.539	1025.97
617.738	1008.34
617.938	1088.17
618.137	1061.23
618.336	1024.62
618.535	1076.15
618.734	1056
618.934	1042.25
619.133	1042.05
619.332	1067.24
619.531	1021.9
619.73	1021.32
619.929	1065.3
620.128	1033.92
620.328	1053.1
620.527	1014.73
620.726	1038.37
620.925	1062.78
621.124	1049.03
621.323	1034.3
621.522	970.56
621.721	1005.05
621.92	1019.58
622.119	1042.63
622.318	984.7
622.517	995.17
622.715	1006.02
622.914	960.68
623.113	1014.73
623.312	922.51
623.511	993.23
623.71	1007.57
623.909	949.64
624.107	1014.73
624.306	966.88
624.505	970.75
624.704	974.24
624.902	977.54
625.101	1056.58
625.3	1004.47
625.499	942.66
625.697	950.41
625.896	964.17
626.095	969.01
626.293	920.38
626.492	961.45
626.69	993.81
626.889	922.32
627.088	1013.96
627.286	942.08
627.485	900.42
627.683	926.77
627.882	952.15
628.08	882.21
628.279	894.81
628.477	991.49
628.676	886.28
628.874	931.04
629.073	881.44
629.271	882.21
629.469	917.47
629.668	903.33
629.866	889.38
630.065	906.04
630.263	936.27
630.461	901.39
630.66	924.84
630.858	938.2
631.056	946.73
631.254	954.87
631.453	860.9
631.651	948.09
631.849	920.19
632.047	917.28
632.245	928.9
632.444	934.72
632.642	939.17
632.84	931.42
633.038	910.89
633.236	893.06
633.434	877.37
633.632	882.99
633.83	933.55
634.028	932.59
634.227	911.66
634.425	997.3
634.623	938.2
634.821	940.92
635.019	934.91
635.216	921.93
635.414	926.58
635.612	935.3
635.81	932.59
636.008	972.5
636.206	923.29
636.404	949.64
636.602	881.44
636.8	917.86
636.997	974.82
637.195	952.35
637.393	937.24
637.591	953.32
637.789	913.6
637.986	911.08
638.184	923.67
638.382	936.85
638.58	952.93
638.777	993.42
638.975	948.09
639.173	950.41
639.37	951.38
639.568	942.08
639.765	944.79
639.963	896.36
640.161	962.04
640.358	945.76
640.556	873.49
640.753	861.48
640.951	883.57
641.148	923.48
641.346	871.94
641.543	888.22
641.741	900.23
641.938	855.47
642.136	894.03
642.333	826.41
642.531	944.21
642.728	956.03
642.925	903.72
643.123	887.06
643.32	883.57
643.517	911.66
643.715	875.24
643.912	857.8
644.109	896.16
644.306	884.34
644.504	832.61
644.701	888.8
644.898	905.27
645.095	820.6
645.293	877.56
645.49	868.07
645.687	877.76
645.884	898.68
646.081	835.91
646.278	828.74
646.475	839.78
646.672	804.33
646.87	863.03
647.067	850.63
647.264	841.14
647.461	808.2
647.658	792.12
647.855	831.06
648.052	806.26
648.249	738.84
648.446	811.88
648.642	759.38
648.839	792.12
649.036	801.42
649.233	755.69
649.43	742.52
649.627	750.66
649.824	792.89
650.021	769.84
650.217	773.33
650.414	766.16
650.611	805.1
650.808	815.37
651.004	809.75
651.201	820.21
651.398	859.16
651.595	800.26
651.791	782.24
651.988	806.07
652.185	760.34
652.381	802.58
652.578	720.24
652.775	805.1
652.971	783.98
653.168	790.76
653.364	830.48
653.561	706.68
653.757	783.21
653.954	810.33
654.15	756.08
654.347	836.1
654.543	768.68
654.74	704.16
654.936	726.63
655.133	779.14
655.329	748.53
655.525	748.72
655.722	805.68
655.918	715.59
656.115	768.87
656.311	706.48
656.507	662.31
656.704	612.13
656.9	671.41
657.096	662.12
657.292	641.77
657.489	723.53
657.685	722.95
657.881	700.09
658.077	698.15
658.273	708.03
658.47	767.13
658.666	757.44
658.862	771.39
659.058	712.68
659.254	788.83
659.45	710.36
659.646	755.11
659.842	746.78
660.038	756.66
660.234	698.35
660.43	725.08
660.626	807.23
660.822	783.4
661.018	773.33
661.214	767.13
661.41	721.79
661.606	770.23
661.802	753.95
661.998	725.86
662.194	710.16
662.39	774.49
662.586	755.89
662.781	746.01
662.977	751.43
663.173	790.76
663.369	742.71
663.564	725.86
663.76	762.48
663.956	705.51
664.152	796.96
664.347	683.81
664.543	744.26
664.739	735.55
664.934	688.85
665.13	674.51
665.326	777.98
665.521	715.2
665.717	686.72
665.912	669.28
666.108	635.96
666.304	678
666.499	723.15
666.695	644.1
666.89	691.18
667.086	727.6
667.281	705.9
667.477	773.13
667.672	716.36
667.867	674.32
668.063	717.33
668.258	686.33
668.454	681.88
668.649	750.27
668.844	703.38
669.04	747.75
669.235	701.06
669.43	659.98
669.626	633.05
669.821	684.78
670.016	646.23
670.211	690.4
670.407	644.68
670.602	680.33
670.797	659.6
670.992	709.2
671.187	674.71
671.382	688.08
671.578	649.33
671.773	679.94
671.968	642.93
672.163	656.69
672.358	691.37
672.553	655.92
672.748	661.73
672.943	756.47
673.138	658.82
673.333	680.13
673.528	601.86
673.723	687.88
673.918	658.05
674.113	623.56
674.308	771
674.503	692.15
674.698	698.15
674.892	685.17
675.087	705.9
675.282	669.48
675.477	637.7
675.672	690.79
675.867	641.97
676.061	616.39
676.256	610.97
676.451	622.01
676.646	655.14
676.84	628.4
677.035	624.33
677.23	605.35
677.424	664.83
677.619	693.11
677.814	675.87
678.008	681.3
678.203	599.53
678.397	625.11
678.592	633.83
678.787	671.61
678.981	641.97
679.176	623.75
679.37	643.9
679.565	609.22
679.759	620.27
679.954	678.97
680.148	701.06
680.342	691.76
680.537	672.77
680.731	640.42
680.926	651.85
681.12	665.41
681.314	616.97
681.509	651.65
681.703	634.41
681.897	642.74
682.092	618.13
682.286	635.77
682.48	695.83
682.674	690.6
682.869	641.19
683.063	641.38
683.257	720.24
683.451	590.62
683.645	672.58
683.839	663.66
684.034	621.23
684.228	678
684.422	600.7
684.616	612.52
684.81	654.95
685.004	636.54
685.198	650.3
685.392	675.1
685.586	625.69
685.78	625.69
685.974	668.9
686.168	652.04
686.362	676.06
686.556	603.22
686.75	565.44
686.944	564.66
687.138	604.18
687.331	487.36
687.525	500.53
687.719	440.47
687.913	528.04
688.107	535.99
688.301	471.27
688.494	544.9
688.688	528.43
688.882	479.22
689.076	460.62
689.269	486.19
689.463	609.42
689.657	530.17
689.85	527.07
690.044	555.55
690.238	549.55
690.431	537.92
690.625	537.15
690.818	570.67
691.012	578.42
691.205	628.02
691.399	540.44
691.593	612.13
691.786	638.09
691.98	629.57
692.173	673.55
692.366	631.89
692.56	661.73
692.753	713.65
692.947	622.59
693.14	713.26
693.333	700.86
693.527	637.9
693.72	700.28
693.914	647
694.107	672.19
694.3	658.82
694.493	658.05
694.687	739.81
694.88	646.23
695.073	753.18
695.266	732.64
695.46	709.78
695.653	760.73
695.846	725.08
696.039	671.22
696.232	748.33
696.425	756.66
696.618	800.26
696.812	771.97
697.005	855.47
697.198	893.64
697.391	821.18
697.584	815.37
697.777	885.31
697.97	871.75
698.163	870.78
698.356	872.14
698.549	953.7
698.742	918.64
698.935	885.7
699.127	921.35
699.32	869.81
699.513	868.65
699.706	870.39
699.899	948.09
700.092	885.31
700.285	908.17
700.477	894.42
700.67	949.64
700.863	932.78
701.056	1032.75
701.248	980.05
701.441	999.43
701.634	951.38
701.826	1054.26
702.019	912.82
702.212	1043.02
702.404	964.17
702.597	964.55
702.79	1004.27
702.982	1008.54
703.175	1075.77
703.367	1076.35
703.56	1083.52
703.752	1128.46
703.945	1083.32
704.137	1147.45
704.33	1131.18
704.522	1142.22
704.715	1152.3
704.907	1158.3
705.1	1174.38
705.292	1190.46
705.484	1175.16
705.677	1209.84
705.869	1206.74
706.061	1254.21
706.254	1276.68
706.446	1240.64
706.638	1225.53
706.831	1291.79
707.023	1245.1
707.215	1357.67
707.407	1353.99
707.599	1308.26
707.792	1349.92
707.984	1351.27
708.176	1384.6
708.368	1355.92
708.56	1381.11
708.752	1399.71
708.944	1376.27
709.136	1427.22
709.329	1366.77
709.521	1517.7
709.713	1458.8
709.905	1447.18
710.097	1467.13
710.289	1442.34
710.481	1448.73
710.672	1489.03
710.864	1504.72
711.056	1558.2
711.248	1520.8
711.44	1514.41
711.632	1513.83
711.824	1539.21
712.016	1596.95
712.207	1594.23
712.399	1601.98
712.591	1667.66
712.783	1616.71
712.975	1608.96
713.166	1573.5
713.358	1591.91
713.55	1683.74
713.741	1672.51
713.933	1698.66
714.125	1703.31
714.316	1643.25
714.508	1731.99
714.7	1729.86
714.891	1719.2
715.083	1783.72
715.274	1724.62
715.466	1709.71
715.657	1754.66
715.849	1688.2
716.04	1751.75
716.232	1663.21
716.423	1713
716.615	1641.89
716.806	1632.79
716.998	1577.96
717.189	1566.72
717.381	1498.52
717.572	1445.05
717.763	1489.22
717.955	1473.14
718.146	1411.14
718.337	1423.15
718.528	1351.47
718.72	1279.97
718.911	1388.28
719.102	1356.31
719.293	1418.12
719.485	1355.34
719.676	1347.98
719.867	1278.04
720.058	1323.76
720.249	1329.38
720.44	1343.52
720.632	1399.32
720.823	1443.69
721.014	1508.4
721.205	1536.69
721.396	1598.11
721.587	1667.28
721.778	1660.88
721.969	1696.92
722.16	1804.84
722.351	1776.16
722.542	1855.99
722.733	1854.63
722.924	1808.71
723.115	1890.28
723.305	1845.14
723.496	1866.84
723.687	1753.49
723.878	1766.47
724.069	1749.81
724.26	1757.56
724.45	1706.61
724.641	1744.19
724.832	1732.57
725.023	1746.91
725.213	1756.4
725.404	1651.39
725.595	1728.5
725.785	1677.93
725.976	1785.46
726.167	1742.64
726.357	1759.31
726.548	1839.32
726.739	1731.99
726.929	1777.32
727.12	1843.78
727.31	1880.01
727.501	1816.07
727.691	1836.42
727.882	1853.85
728.072	1885.63
728.263	1856.95
728.453	1901.71
728.644	1878.07
728.834	1878.85
729.024	1863.74
729.215	1845.33
729.405	1862.96
729.596	1973.78
729.786	1977.66
729.976	1966.81
730.167	1968.94
730.357	1924.57
730.547	1954.22
730.737	2032.1
730.928	2026.48
731.118	2063.68
731.308	2010.21
731.498	2034.43
731.688	2091
731.879	2065.43
732.069	2112.12
732.259	2173.34
732.449	2181.29
732.639	2248.13
732.829	2233.41
733.019	2282.62
733.209	2309.55
733.399	2302.38
733.589	2376.58
733.779	2431.61
733.969	2384.14
734.159	2454.86
734.349	2479.46
734.539	2502.52
734.729	2517.83
734.919	2535.84
735.109	2572.27
735.299	2548.44
735.488	2532.94
735.678	2563.16
735.868	2553.86
736.058	2529.45
736.248	2550.76
736.437	2534.49
736.627	2469.58
736.817	2612.96
737.007	2557.16
737.196	2601.52
737.386	2558.9
737.576	2533.52
737.765	2637.17
737.955	2587.77
738.144	2695.1
738.334	2667.59
738.524	2605.4
738.713	2631.36
738.903	2648.02
739.092	2686
739.282	2668.37
739.471	2731.14
739.661	2692.97
739.85	2712.74
740.04	2744.7
740.229	2756.72
740.419	2717.97
740.608	2781.13
740.797	2738.31
740.987	2794.5
741.176	2806.51
741.365	2739.47
741.555	2718.55
741.744	2805.15
741.933	2755.17
742.123	2776.67
742.312	2814.07
742.501	2829.37
742.69	2834.02
742.88	2713.12
743.069	2895.63
743.258	2760.59
743.447	2896.02
743.636	2840.61
743.825	2829.57
744.014	2807.28
744.204	2854.75
744.393	2813.48
744.582	2882.07
744.771	2907.45
744.96	2818.91
745.149	2855.72
745.338	2823.17
745.527	2865.99
745.716	2873.74
745.905	2853.01
746.094	2882.07
746.283	2914.43
746.471	2914.04
746.66	2930.51
746.849	2927.21
747.038	2921.98
747.227	2876.06
747.416	2912.68
747.604	2806.7
747.793	2872.19
747.982	2893.89
748.171	2925.28
748.359	2895.25
748.548	2916.56
748.737	2881.1
748.926	2876.06
749.114	2803.99
749.303	2865.99
749.491	2873.55
749.68	2804.96
749.869	2880.91
750.057	2831.5
750.246	2797.98
750.434	2855.14
750.623	2842.55
750.811	2851.26
751	2871.8
751.188	2872
751.377	2844.48
751.565	2791.78
751.754	2837.12
751.942	2785.78
752.131	2907.26
752.319	2793.92
752.507	2785.97
752.696	2806.51
752.884	2876.84
753.072	2814.26
753.261	2809.61
753.449	2837.7
753.637	2763.11
753.825	2862.31
754.014	2849.91
754.202	2852.62
754.39	2858.63
754.578	2823.95
754.766	2780.93
754.955	2797.21
755.143	2914.43
755.331	2770.28
755.519	2773.18
755.707	2850.68
755.895	2778.8
756.083	2810
756.271	2761.37
756.459	2760.01
756.647	2810
756.835	2766.79
757.023	2741.22
757.211	2720.29
757.399	2746.64
757.587	2711.77
757.775	2693.17
757.963	2733.08
758.151	2695.69
758.339	2665.27
758.526	2656.16
758.714	2689.29
758.902	2586.61
759.09	2532.94
759.278	2362.05
759.465	2181.48
759.653	1912.37
759.841	1730.05
760.028	1448.92
760.216	1234.64
760.404	1192.98
760.591	991.87
760.779	820.02
760.967	731.67
761.154	592.75
761.342	647.78
761.529	667.35
761.717	723.92
761.905	665.41
762.092	725.86
762.28	662.89
762.467	721.21
762.655	635.77
762.842	652.04
763.029	654.56
763.217	681.68
763.404	700.86
763.592	675.68
763.779	655.53
763.966	729.35
764.154	745.81
764.341	830.48
764.528	789.41
764.716	851.6
764.903	891.71
765.09	951.96
765.277	998.65
765.465	1137.18
765.652	1169.15
765.839	1221.66
766.026	1310.39
766.213	1341.2
766.4	1416.18
766.588	1581.06
766.775	1551.41
766.962	1696.92
767.149	1740.32
767.336	1842.04
767.523	1816.65
767.71	1910.62
767.897	1990.06
768.084	2097.01
768.271	2104.95
768.458	2143.89
768.645	2208.02
768.832	2189.42
769.019	2222.36
769.206	2241.15
769.392	2298.89
769.579	2377.55
769.766	2346.94
769.953	2340.35
770.14	2398.28
770.327	2330.47
770.513	2441.68
770.7	2501.16
770.887	2422.11
771.073	2450.79
771.26	2409.13
771.447	2393.63
771.634	2387.05
771.82	2510.08
772.007	2411.46
772.193	2408.17
772.38	2425.21
772.567	2453.31
772.753	2417.46
772.94	2506.01
773.126	2476.75
773.313	2509.3
773.499	2444.2
773.686	2468.61
773.872	2414.56
774.059	2463.77
774.245	2408.55
774.432	2422.11
774.618	2367.87
774.804	2430.64
774.991	2356.24
775.177	2438.78
775.363	2379.88
775.55	2433.35
775.736	2359.73
775.922	2384.92
776.109	2387.05
776.295	2401.97
776.481	2380.85
776.667	2426.57
776.853	2348.68
777.04	2390.34
777.226	2379.1
777.412	2442.85
777.598	2350.82
777.784	2315.36
777.97	2333.38
778.156	2346.94
778.342	2352.17
778.528	2308.97
778.715	2288.43
778.901	2297.92
779.087	2331.63
779.272	2283.2
779.458	2280.87
779.644	2331.25
779.83	2271.57
780.016	2384.33
780.202	2343.07
780.388	2292.11
780.574	2252
780.76	2240.19
780.946	2276.03
781.131	2264.4
781.317	2265.18
781.503	2250.65
781.689	2248.71
781.874	2370.19
782.06	2265.95
782.246	2251.04
782.432	2212.29
782.617	2268.47
782.803	2290.95
782.989	2194.85
783.174	2199.69
783.36	2159.78
783.545	2209.19
783.731	2194.46
783.916	2135.56
784.102	2182.45
784.288	2188.07
784.473	2175.09
784.659	2131.88
784.844	2181.87
785.029	2149.71
785.215	2128.59
785.4	2104.37
785.586	2221.39
785.771	2129.17
785.956	2162.69
786.142	2140.02
786.327	2121.61
786.512	2123.36
786.698	2111.73
786.883	2089.45
787.068	2093.71
787.254	2107.08
787.439	2073.76
787.624	2082.86
787.809	2056.32
787.994	2043.53
788.18	2124.33
788.365	2003.62
788.55	2037.14
788.735	2054
788.92	2056.9
789.105	2011.76
789.29	2040.82
789.475	1972.04
789.66	1972.04
789.845	1930.38
790.03	1961.77
790.215	2041.01
790.4	2024.93
790.585	2074.53
790.77	1997.23
790.955	1898.8
791.14	1992.38
791.325	2057.29
791.51	1910.23
791.695	1958.87
791.879	1956.15
792.064	1949.57
792.249	1986.76
792.434	1930.97
792.618	1913.72
792.803	1983.86
792.988	1956.73
793.173	1961.77
793.357	1951.12
793.542	1898.42
793.727	1948.6
793.911	1998.78
794.096	1980.37
794.281	1992.19
794.465	2066.98
794.65	1962.74
794.834	2011.95
795.019	2005.17
795.203	2014.66
795.388	2016.6
795.572	2049.73
795.757	2020.28
795.941	2019.31
796.126	1978.05
796.31	1939.1
796.494	1999.94
796.679	1976.5
796.863	1910.62
797.048	2045.86
797.232	2014.66
797.416	1956.35
797.601	1985.02
797.785	2053.41
797.969	2025.51
798.153	1965.26
798.338	2021.83
798.522	2020.09
798.706	2042.37
798.89	2055.74
799.074	2120.64
799.258	2073.95
799.443	2034.04
799.627	2016.99
799.811	2070.27
799.995	2003.04
800.179	1978.63
800.363	1978.43
800.547	2050.7
800.731	2012.73
800.915	1926.51
801.099	1948.98
801.283	1973.01
801.467	2007.69
801.651	1999.16
801.835	2015.44
802.019	1995.48
802.202	2018.15
802.386	1949.76
802.57	1948.02
802.754	1973.98
802.938	1955.96
803.121	1961
803.305	2056.32
803.489	1972.04
803.673	2016.8
803.856	1990.45
804.04	1972.43
804.224	1999.55
804.407	2018.93
804.591	1954.99
804.775	1969.72
804.958	2023.19
805.142	2068.33
805.326	1982.31
805.509	2013.31
805.693	2040.43
805.876	2051.67
806.06	2014.08
806.243	2063.49
806.427	2052.83
806.61	2054.38
806.794	1999.55
806.977	2102.63
807.16	2022.61
807.344	1998.97
807.527	2014.47
807.71	1960.8
807.894	1982.89
808.077	2047.99
808.26	2003.62
808.444	1984.63
808.627	2040.24
808.81	1997.61
808.993	1938.72
809.177	1933.87
809.36	1950.53
809.543	1980.76
809.726	1872.07
809.909	1904.23
810.092	1873.23
810.276	1906.75
810.459	1923.22
810.642	1877.1
810.825	1871.29
811.008	1860.64
811.191	1774.42
811.374	1804.84
811.557	1809.49
811.74	1890.47
811.923	1773.84
812.106	1750.2
812.289	1734.31
812.472	1728.5
812.654	1770.93
812.837	1698.66
813.02	1728.11
813.203	1671.93
813.386	1589.78
813.569	1579.7
813.751	1498.72
813.934	1575.83
814.117	1544.44
814.3	1523.9
814.482	1477.21
814.665	1467.13
814.848	1429.35
815.03	1392.15
815.213	1379.95
815.396	1386.34
815.578	1345.46
815.761	1308.84
815.943	1373.36
816.126	1291.21
816.309	1287.34
816.491	1235.8
816.674	1168.96
816.856	1259.05
817.039	1221.46
817.221	1311.56
817.403	1237.35
817.586	1216.81
817.768	1279.2
817.951	1224.95
818.133	1191.24
818.315	1211.78
818.498	1271.64
818.68	1291.41
818.862	1275.71
819.045	1332.87
819.227	1278.42
819.409	1240.45
819.591	1345.27
819.774	1277.46
819.956	1206.93
820.138	1306.32
820.32	1297.99
820.502	1329.19
820.684	1390.22
820.866	1397.39
821.048	1421.8
821.231	1426.84
821.413	1450.86
821.595	1415.6
821.777	1447.18
821.959	1413.66
822.141	1464.42
822.323	1366.77
822.505	1320.08
822.686	1272.81
822.868	1198.99
823.05	1162.95
823.232	1141.45
823.414	1054.45
823.596	1127.3
823.778	1121.68
823.96	1157.72
824.141	1134.47
824.323	1176.51
824.505	1211.97
824.687	1277.07
824.868	1285.21
825.05	1360.57
825.232	1379.75
825.413	1446.21
825.595	1409.01
825.777	1334.03
825.958	1386.15
826.14	1357.47
826.321	1386.34
826.503	1378.2
826.685	1378.2
826.866	1418.7
827.048	1405.72
827.229	1333.84
827.411	1335.77
827.592	1279.59
827.773	1326.47
827.955	1237.54
828.136	1272.81
828.318	1242.58
828.499	1269.51
828.68	1220.3
828.862	1277.84
829.043	1269.71
829.224	1254.79
829.406	1207.71
829.587	1243.16
829.768	1214.88
829.949	1267.19
830.131	1225.34
830.312	1294.7
830.493	1237.54
830.674	1285.21
830.855	1239.09
831.036	1240.84
831.218	1329.38
831.399	1329.57
831.58	1260.41
831.761	1238.51
831.942	1273.19
832.123	1250.33
832.304	1223.98
832.485	1230.96
832.666	1240.26
832.847	1293.54
833.028	1258.47
833.209	1255.56
833.389	1228.05
833.57	1204.61
833.751	1207.51
833.932	1284.43
834.113	1257.11
834.294	1231.15
834.475	1235.99
834.655	1294.89
834.836	1281.33
835.017	1282.88
835.198	1230.76
835.378	1254.21
835.559	1299.93
835.74	1266.99
835.92	1247.23
836.101	1206.35
836.281	1267.77
836.462	1269.9
836.643	1335.39
836.823	1294.51
837.004	1300.12
837.184	1334.81
837.365	1300.51
837.545	1318.34
837.726	1316.79
837.906	1346.82
838.087	1280.56
838.267	1314.46
838.448	1269.13
838.628	1285.98
838.808	1300.71
838.989	1347.4
839.169	1241.42
839.349	1307.1
839.53	1327.64
839.71	1331.71
839.89	1253.63
840.07	1338.68
840.251	1281.52
840.431	1334.03
840.611	1289.27
840.791	1282.3
840.971	1297.02
841.151	1299.93
841.332	1257.69
841.512	1314.46
841.692	1247.23
841.872	1293.73
842.052	1295.67
842.232	1314.07
842.412	1254.59
842.592	1273.39
842.772	1302.26
842.952	1273.39
843.132	1236.19
843.312	1268.16
843.492	1206.74
843.672	1273.78
843.851	1232.31
844.031	1265.44
844.211	1260.79
844.391	1225.53
844.571	1259.24
844.751	1284.62
844.93	1270.09
845.11	1267.38
845.29	1255.76
845.47	1284.24
845.649	1273.39
845.829	1273.78
846.009	1221.66
846.188	1260.41
846.368	1265.25
846.547	1208.09
846.727	1266.99
846.907	1208.48
847.086	1247.81
847.266	1263.7
847.445	1236.19
847.625	1213.33
847.804	1215.46
847.984	1241.03
848.163	1194.14
848.343	1213.13
848.522	1236.58
848.701	1231.34
848.881	1203.25
849.06	1192.79
849.239	1236.77
849.419	1231.73
849.598	1126.72
849.777	1167.41
849.957	1159.27
850.136	1065.88
850.315	1080.8
850.494	1108.31
850.674	1105.99
850.853	1187.56
851.032	1143
851.211	1170.51
851.39	1146.1
851.569	1071.89
851.748	1108.51
851.927	1167.02
852.107	1136.41
852.286	1105.99
852.465	1122.07
852.644	1153.65
852.823	1161.98
853.002	1143.58
853.181	1117.23
853.359	1139.51
853.538	1094.56
853.717	1153.26
853.896	1060.27
854.075	999.04
854.254	996.91
854.433	939.17
854.611	1012.41
854.79	922.12
854.969	998.85
855.148	1017.45
855.327	981.22
855.505	1001.56
855.684	1002.14
855.863	1040.5
856.041	999.24
856.22	1054.65
856.399	991.29
856.577	1096.11
856.756	1090.3
856.934	1217.78
857.113	1171.48
857.291	1085.45
857.47	1065.88
857.648	1081.97
857.827	1084.87
858.005	1101.15
858.184	1049.22
858.362	1154.62
858.541	1082.93
858.719	1111.03
858.898	1048.25
859.076	1071.12
859.254	1150.36
859.433	1043.6
859.611	1042.25
859.789	1018.03
859.967	1104.44
860.146	1101.53
860.324	1031.98
860.502	1041.67
860.68	1031.59
860.859	1005.05
861.037	1043.8
861.215	1054.26
861.393	1051.35
861.571	1076.93
861.749	992.65
861.927	1055.23
862.105	1051.55
862.283	1014.93
862.461	1011.83
862.639	958.55
862.817	1003.89
862.995	1017.83
863.173	976.37
863.351	998.65
863.529	1042.63
863.707	1051.16
863.885	1057.94
864.063	923.87
864.241	987.03
864.418	1076.15
864.596	955.06
864.774	966.3
864.952	994.59
865.129	1017.06
865.307	967.46
865.485	930.26
865.663	992.07
865.84	921.93
866.018	929.87
866.196	836.49
866.373	855.67
866.551	823.89
866.728	796.96
866.906	847.34
867.084	849.08
867.261	897.32
867.439	931.62
867.616	917.67
867.794	916.51
867.971	925.61
868.149	908.17
868.326	974.63
868.503	924.06
868.681	947.7
868.858	882.21
869.035	887.06
869.213	976.18
869.39	932
869.567	1005.44
869.745	895.77
869.922	926.58
870.099	935.69
870.276	947.89
870.454	913.99
870.631	939.37
870.808	938.01
870.985	963
871.162	1005.63
871.339	962.42
871.517	870.78
871.694	851.21
871.871	913.99
872.048	898.1
872.225	883.96
872.402	905.27
872.579	868.46
872.756	889.57
872.933	873.3
873.11	877.17
873.287	887.25
873.463	850.05
873.64	832.23
873.817	907.59
873.994	895.58
874.171	863.22
874.348	908.56
874.524	832.23
874.701	895.77
874.878	793.86
875.055	890.54
875.231	875.04
875.408	873.88
875.585	792.31
875.762	852.96
875.938	824.09
876.115	835.33
876.291	833.78
876.468	840.75
876.645	783.4
876.821	807.04
876.998	837.26
877.174	878.92
877.351	830.48
877.527	780.11
877.704	827.96
877.88	852.76
878.057	818.47
878.233	839.97
878.409	791.15
878.586	814.21
878.762	797.54
878.938	808.2
879.115	752.01
879.291	779.53
879.467	765.58
879.644	787.86
879.82	804.33
879.996	794.44
880.172	721.01
880.349	766.93
880.525	816.92
880.701	763.06
880.877	755.31
881.053	778.75
881.229	781.85
881.405	808.2
881.581	748.14
881.757	764.03
881.933	776.23
882.109	815.76
882.285	799.48
882.461	732.83
882.637	786.5
882.813	716.17
882.989	779.91
883.165	830.68
883.341	734.38
883.517	830.29
883.693	795.99
883.869	799.68
884.044	750.08
884.22	824.48
884.396	820.41
884.572	796.19
884.747	810.33
884.923	801.23
885.099	809.36
885.275	819.83
885.45	751.43
885.626	793.67
885.801	764.03
885.977	773.71
886.153	736.9
886.328	774.68
886.504	755.5
886.679	786.31
886.855	719.46
887.03	804.91
887.206	802.58
887.381	773.52
887.557	794.64
887.732	797.35
887.908	786.69
888.083	800.84
888.258	775.65
888.434	749.11
888.609	761.7
888.784	817.89
888.96	755.31
889.135	741.55
889.31	748.91
889.485	783.01
889.661	759.57
889.836	767.51
890.011	784.18
890.186	766.35
890.361	721.6
890.537	798.51
890.712	807.43
890.887	754.73
891.062	779.33
891.237	792.7
891.412	700.86
891.587	735.74
891.762	783.21
891.937	832.03
892.112	727.8
892.287	750.27
892.462	723.92
892.637	716.56
892.812	701.83
892.987	695.63
893.161	702.61
893.336	671.8
893.511	695.44
893.686	714.62
893.861	712.68
894.035	683.43
894.21	717.91
894.385	642.16
894.56	688.27
894.734	649.33
894.909	650.88
895.084	635.57
895.258	640.61
895.433	641.97
895.608	613.68
895.782	580.35
895.957	596.24
896.131	620.46
896.306	523.2
896.48	530.56
896.655	571.64
896.829	485.61
897.004	519.32
897.178	526.1
897.353	493.55
897.527	529.01
897.701	527.65
897.876	486.39
898.05	547.8
898.224	544.51
898.399	584.23
898.573	541.02
898.747	433.11
898.921	484.45
899.096	398.23
899.27	435.62
899.444	438.92
899.618	432.33
899.792	479.41
899.967	456.74
900.141	485.42
900.315	393.58
900.489	437.17
900.663	442.21
900.837	434.07
901.011	387.77
901.185	486.58
901.359	471.66
901.533	424
901.707	464.88
901.881	457.91
902.055	416.83
902.229	422.64
902.403	499.75
902.576	455.58
902.75	511.77
902.924	571.83
903.098	483.09
903.272	547.42
903.446	569.7
903.619	525.91
903.793	548.39
903.967	525.91
904.14	571.05
904.314	610.19
904.488	548.58
904.661	593.53
904.835	544.7
905.009	618.33
905.182	617.36
905.356	611.35
905.529	578.22
905.703	533.85
905.876	538.5
906.05	528.62
906.223	497.24
906.397	451.9
906.57	453.84
906.744	426.32
906.917	435.24
907.09	438.34
907.264	439.31
907.437	424.19
907.61	392.81
907.784	419.35
907.957	432.72
908.13	394.74
908.304	416.83
908.477	411.99
908.65	414.31
908.823	366.65
908.996	448.61
909.17	398.04
909.343	387.77
909.516	400.17
909.689	393.78
909.862	362
910.035	412.18
910.208	366.46
910.381	371.69
910.554	461.59
910.727	375.56
910.9	386.41
911.073	374.59
911.246	415.67
911.419	421.48
911.592	415.28
911.765	390.29
911.938	377.5
912.11	409.08
912.283	376.14
912.456	457.52
912.629	407.92
912.802	405.98
912.974	335.26
913.147	351.34
913.32	272.1
913.493	320.15
913.665	312.6
913.838	366.26
914.01	328.09
914.183	357.74
914.356	331.58
914.528	375.37
914.701	442.6
914.873	406.37
915.046	341.66
915.218	309.88
915.391	258.93
915.563	287.41
915.736	332.74
915.908	339.91
916.081	350.57
916.253	321.51
916.425	346.5
916.598	339.91
916.77	358.71
916.942	317.44
917.115	261.45
917.287	353.48
917.459	317.83
917.632	281.79
917.804	246.33
917.976	328.09
918.148	305.62
918.32	315.89
918.493	346.5
918.665	391.06
918.837	335.65
919.009	389.71
919.181	395.13
919.353	371.3
919.525	354.64
919.697	332.16
919.869	329.84
920.041	410.05
920.213	460.81
920.385	382.34
920.557	338.75
920.729	367.81
920.901	384.28
921.073	356.77
921.244	345.73
921.416	387.77
921.588	373.04
921.76	347.47
921.932	417.99
922.103	352.12
922.275	370.72
922.447	362.58
922.619	277.14
922.79	355.22
922.962	318.79
923.134	390.68
923.305	314.14
923.477	287.02
923.648	289.93
923.82	316.28
923.991	277.53
924.163	248.27
924.335	283.34
924.506	274.43
924.677	351.54
924.849	277.33
925.02	317.05
925.192	309.3
925.363	297.29
925.535	307.95
925.706	268.61
925.877	365.88
926.049	267.06
926.22	318.99
926.391	318.79
926.562	301.16
926.734	281.79
926.905	327.13
927.076	248.85
927.247	274.81
927.419	231.03
927.59	264.93
927.761	257.18
927.932	253.7
928.103	246.53
928.274	203.52
928.445	172.32
928.616	233.16
928.787	227.54
928.958	231.8
929.129	218.05
929.3	217.66
929.471	191.12
929.642	141.13
929.813	106.45
929.984	203.9
930.155	110.71
930.326	181.04
930.496	126.02
930.667	81.26
930.838	143.84
931.009	101.99
931.18	107.8
931.35	128.15
931.521	131.64
931.692	65.37
931.863	41.74
932.033	119.62
932.204	122.14
932.374	95.99
932.545	58.59
932.716	101.41
932.886	100.83
933.057	32.82
933.227	40.77
933.398	148.68
933.568	27.98
933.739	14.42
933.909	25.85
934.08	85.91
934.25	-5.34
934.421	7.83
934.591	68.28
934.761	1.63
934.932	-30.73
935.102	52.2
935.272	32.05
935.443	27.01
935.613	16.36
935.783	32.24
935.953	17.32
936.123	163.6
936.294	15.77
936.464	-12.13
936.634	10.74
936.804	-25.69
936.974	-18.33
937.144	28.17
937.314	43.67
937.484	30.31
937.655	-11.16
937.825	61.89
937.995	-0.69
938.165	90.56
938.334	24.69
938.504	21.39
938.674	8.41
938.844	54.14
939.014	103.74
939.184	88.04
939.354	125.05
939.524	89.79
939.694	55.88
939.863	45.81
940.033	121.56
940.203	108.19
940.373	59.56
940.542	83.78
940.712	52
940.882	114.78
941.051	98.5
941.221	101.8
941.391	110.71
941.56	43.09
941.73	35.73
941.899	137.84
942.069	49.29
942.238	86.49
942.408	46.97
942.577	101.22
942.747	78.16
942.916	4.54
943.086	36.89
943.255	105.87
943.425	55.1
943.594	33.21
943.763	-22.01
943.933	31.08
944.102	-29.18
944.271	37.47
944.441	57.43
944.61	16.16
944.779	40.38
944.948	131.64
945.117	-2.44
945.287	36.51
945.456	-26.08
945.625	34.96
945.794	52
945.963	15.58
946.132	71.57
946.301	42.71
946.47	75.84
946.639	1.82
946.808	13.26
946.977	65.37
947.146	87.46
947.315	27.4
947.484	60.92
947.653	33.02
947.822	5.12
947.991	0.66
948.16	100.05
948.329	80.29
948.498	46.77
948.666	43.67
948.835	73.32
949.004	-15.42
949.173	18.68
949.341	43.67
949.51	55.49
949.679	89.4
949.847	66.54
950.016	122.53
950.185	93.66
950.353	28.76
950.522	37.28
950.69	62.47
950.859	45.81
951.028	67.7
951.196	54.91
951.365	48.71
951.533	49.87
951.701	80.49
951.87	82.23
952.038	-11.16
952.207	37.67
952.375	89.4
952.543	26.04
952.712	29.72
952.88	11.12
953.048	103.74
953.217	29.14
953.385	25.85
953.553	72.54
953.721	27.98
953.89	38.06
954.058	13.06
954.226	25.27
954.394	46
954.562	-5.34
954.73	52.2
954.898	22.75
955.067	94.44
955.235	36.12
955.403	78.74
955.571	128.15
955.739	43.29
955.907	9.57
956.075	24.3
956.243	48.13
956.41	60.34
956.578	0.47
956.746	-6.7
956.914	9.96
957.082	63.24
957.25	43.67
957.418	7.44
957.585	33.99
957.753	113.81
957.921	5.89
958.089	31.27
958.256	49.1
958.424	56.85
958.592	62.47
958.759	23.14
958.927	64.21
959.095	45.22
959.262	41.16
959.43	62.66
959.597	0.66
959.765	29.53
959.932	27.01
960.1	70.6
960.267	53.75
960.435	33.6
960.602	64.79
960.77	17.13
960.937	10.16
961.104	40.96
961.272	13.45
961.439	26.82
961.606	50.84
961.774	77.97
961.941	69.83
962.108	80.87
962.275	46.39
962.443	78.35
962.61	63.24
962.777	101.8
962.944	61.11
963.111	64.79
963.278	74.87
963.446	52.78
963.613	75.25
963.78	77
963.947	85.14
964.114	54.33
964.281	105.87
964.448	75.45
964.615	40.19
964.782	60.34
964.949	96.76
965.116	82.62
965.282	89.79
965.449	42.51
965.616	14.81
965.783	105.67
965.95	43.29
966.117	38.44
966.283	74.67
966.45	78.74
966.617	49.87
966.784	110.13
966.95	81.26
967.117	83.97
967.284	35.73
967.45	33.6
967.617	116.14
967.784	76.03
967.95	104.9
968.117	57.82
968.283	106.84
968.45	174.65
968.616	69.44
968.783	97.92
968.949	70.6
969.116	118.65
969.282	70.6
969.449	79.9
969.615	54.72
969.781	8.99
969.948	45.42
970.114	25.85
970.28	149.07
970.447	49.1
970.613	125.82
970.779	73.7
970.945	72.54
971.112	63.24
971.278	59.37
971.444	68.67
971.61	106.25
971.776	75.84
971.942	94.05
972.108	79.52
972.275	60.53
972.441	81.07
972.607	140.93
972.773	80.29
972.939	90.56
973.105	51.62
973.271	31.86
973.437	44.26
973.602	83
973.768	83.59
973.934	45.61
974.1	85.91
974.266	38.44
974.432	82.81
974.598	48.32
974.763	85.91
974.929	56.65
975.095	118.65
975.261	37.67
975.426	47.55
975.592	71.96
975.758	112.84
975.923	21.97
976.089	47.16
976.255	95.99
976.42	60.53
976.586	83.59
976.751	70.02
976.917	143.07
977.082	78.94
977.248	26.43
977.413	0.66
977.579	30.5
977.744	66.92
977.91	3.76
978.075	32.24
978.24	95.02
978.406	61.5
978.571	39.8
978.736	40.19
978.902	82.42
979.067	11.9
979.232	13.45
979.397	68.28
979.563	129.89
979.728	19.07
979.893	70.02
980.058	-8.25
980.223	93.47
980.388	60.53
980.554	55.1
980.719	49.68
980.884	79.32
981.049	92.5
981.214	42.32
981.379	69.64
981.544	41.93
981.709	47.55
981.874	54.14
982.039	55.88
982.204	88.62
982.368	37.86
982.533	29.92
982.698	97.73
982.863	87.27
983.028	13.84
983.193	63.44
983.357	83.59
983.522	71.19
983.687	34.37
983.852	51.62
984.016	57.62
984.181	59.56
984.346	79.52
984.51	84.36
984.675	59.56
984.839	78.35
985.004	32.63
985.168	102.57
985.333	78.16
985.498	40.77
985.662	70.6
985.827	67.89
985.991	61.3
986.155	47.36
986.32	85.91
986.484	132.41
986.649	79.71
986.813	22.75
986.977	56.46
987.142	44.26
987.306	28.76
987.47	23.52
987.634	63.63
987.799	72.54
987.963	54.72
988.127	58.59
988.291	134.54
988.455	63.24
988.62	54.52
988.784	88.43
988.948	55.69
989.112	18.68
989.276	50.65
989.44	26.62
989.604	15.58
989.768	33.02
989.932	111.87
990.096	28.56
990.26	15
990.424	30.69
990.588	69.05
990.752	115.36
990.915	92.11
991.079	43.87
991.243	34.18
991.407	66.73
991.571	47.55
991.734	88.04
991.898	79.52
992.062	157.79
992.226	54.91
992.389	-6.12
992.553	7.25
992.717	21.59
992.88	47.94
993.044	70.22
993.207	38.06
993.371	84.75
993.535	76.8
993.698	55.3
993.862	90.17
994.025	80.87
994.189	63.05
994.352	65.57
994.515	63.82
994.679	70.99
994.842	71.57
995.006	66.92
995.169	25.46
995.332	29.92
995.496	77.19
995.659	-6.7
995.822	27.01
995.985	52.39
996.149	71.19
996.312	45.03
996.475	111.87
996.638	29.72
996.801	93.27
996.964	88.82
997.128	47.36
997.291	25.46
997.454	45.42
997.617	-12.51
997.78	67.12
997.943	23.52
998.106	73.32
998.269	28.56
998.432	25.07
998.595	55.88
998.758	4.54
998.92	18.49
999.083	7.64
999.246	34.57
999.409	-4.76
999.572	-25.11
999.735	1.63
999.897	48.71
1000.06	21.97
1000.223	24.49
1000.386	53.36
1000.548	46.39
1000.711	47.94
1000.874	40.38
1001.036	-12.32
1001.199	83.97
1001.361	-10.96
1001.524	30.11
1001.687	86.69
1001.849	13.45
1002.012	43.87
1002.174	28.76
1002.337	105.09
1002.499	24.49
1002.661	68.47
1002.824	-13.68
1002.986	14.42
1003.149	54.91
1003.311	7.83
1003.473	84.17
1003.636	26.62
1003.798	41.93
1003.96	65.95
1004.123	60.53
1004.285	23.14
1004.447	34.37
1004.609	26.24
1004.771	87.65
1004.933	-23.75
1005.096	-4.76
1005.258	5.12
1005.42	2.41
1005.582	75.84
1005.744	32.05
1005.906	-34.99
1006.068	17.91
1006.23	-33.44
1006.392	-28.79
1006.554	4.34
1006.716	50.46
1006.878	64.6
1007.04	-12.32
1007.202	18.68
1007.363	41.54
1007.525	48.13
1007.687	23.14
1007.849	79.71
1008.011	-33.05
1008.172	-12.51
1008.334	25.46
1008.496	52.39
1008.658	-38.67
1008.819	-30.14
1008.981	-12.13
1009.143	-4.18
1009.304	-3.21
1009.466	44.45
1009.627	63.05
1009.789	97.34
1009.95	56.27
1010.112	-3.79
1010.273	44.45
1010.435	-3.02
1010.596	23.72
1010.758	20.23
1010.919	11.9
1011.081	-4.57
1011.242	8.41
1011.403	38.64
1011.565	26.62
1011.726	36.89
1011.887	-15.81
1012.049	24.3
1012.21	42.12
1012.371	73.12
1012.532	-25.69
1012.693	25.27
1012.855	24.3
1013.016	18.68
1013.177	78.55
1013.338	-10.19
1013.499	73.9
1013.66	37.86
1013.821	35.92
1013.982	33.41
1014.143	8.61
1014.304	-14.45
1014.465	43.29
1014.626	27.59
1014.787	-2.44
1014.948	86.49
1015.109	-41.57
1015.27	44.45
1015.431	11.9
1015.592	-10.77
1015.752	48.32
1015.913	26.62
1016.074	17.52
1016.235	21.59
1016.395	37.28
1016.556	20.04
1016.717	18.1
1016.877	60.14
1017.038	-6.31
1017.199	24.49
1017.359	2.02
1017.52	33.99
1017.681	-3.21
1017.841	2.79
1018.002	14.22
1018.162	-4.57
1018.323	62.08
1018.483	17.71
1018.644	-6.31
1018.804	-36.34
1018.964	-50.87
1019.125	2.6
1019.285	8.61
1019.446	-13.09
1019.606	-38.67
1019.766	-28.21
1019.926	30.5
1020.087	22.75
1020.247	-34.02
1020.407	39.22
1020.567	39.99
1020.728	5.31
1020.888	-25.49
1021.048	-20.07
1021.208	-29.56
1021.368	-10.77
1021.528	77.97
1021.688	42.12
1021.848	54.33
1022.008	13.26
1022.168	-3.6
1022.328	0.08
1022.488	31.47
1022.648	21.39
1022.808	7.83
1022.968	35.92
1023.128	-6.7
1023.288	-0.31
1023.448	2.6
1023.608	28.95
1023.767	21.78
1023.927	-22.59
1024.087	-4.76
1024.247	-2.44
1024.406	-24.72
1024.566	-43.32
1024.726	-9.61
1024.885	17.91
1025.045	20.23
1025.205	17.13
1025.364	-2.63
1025.524	12.48
1025.683	-20.84
1025.843	15.58
1026.003	23.33
1026.162	30.11
1026.321	10.93
1026.481	19.65
1026.64	-4.76
1026.8	14.03
1026.959	-22.39
1027.119	14.42
1027.278	-28.98
1027.437	-19.29
1027.597	1.63
1027.756	10.35
1027.915	18.49
1028.074	28.17
1028.234	-22.2
1028.393	5.89
1028.552	-10.77
1028.711	-73.93
1028.87	47.36
1029.03	-36.34
1029.189	3.57
1029.348	-67.34
1029.507	-6.51
1029.666	-11.35
1029.825	-30.14
1029.984	-26.08
1030.143	1.24
1030.302	-37.12
1030.461	-56.69
1030.62	-2.83
1030.779	26.43
1030.938	-34.79
1031.097	-40.22
1031.255	18.1
1031.414	64.6
1031.573	44.06
1031.732	-46.03
1031.891	-13.29
1032.049	34.76
1032.208	16.94
1032.367	-12.32
1032.525	-4.18
1032.684	-11.93
1032.843	-15.81
1033.001	-61.14
1033.16	150.23
1033.319	46.97
1033.477	2.99
1033.636	-0.5
1033.794	-15.81
1033.953	29.14
1034.111	25.07
1034.27	-45.64
1034.428	15.39
1034.587	-20.26
1034.745	38.64
1034.903	-22.2
1035.062	23.91
1035.22	-43.51
1035.378	49.68
1035.537	-30.14
1035.695	41.35
1035.853	9.96
1036.011	64.99
1036.17	27.79
1036.328	-46.81
1036.486	11.71
1036.644	11.12
1036.802	-85.17
1036.96	-15.61
1037.119	-5.34
1037.277	-54.94
1037.435	-32.28
1037.593	-29.76
1037.751	-13.48
1037.909	12.67
1038.067	12.67
