Data from pine_FLMT105791__47__17-20-21-079.txt Node

Date: Mon Mar 20 17:20:21 GMT 2023
User: antho
Spectrometer: FLMT10579
Trigger mode: 0
Integration Time (sec): 1.000000E-1
Scans to average: 10
Electric dark correction enabled: true
Nonlinearity correction enabled: false
Boxcar width: 0
XAxis mode: Wavelengths
Number of Pixels in Spectrum: 3648
>>>>>Begin Spectral Data<<<<<
345.248	-188.32
345.464	-188.32
345.681	-188.32
345.898	-194.52
346.114	-171.66
346.331	-31.19
346.548	36.04
346.764	-20.92
346.981	-8.72
347.197	-6.2
347.414	9.49
347.631	2.32
347.847	21.89
348.064	8.91
348.28	18.02
348.497	-53.47
348.713	23.83
348.93	13.37
349.146	8.14
349.363	-8.72
349.579	11.62
349.796	16.27
350.012	-25.38
350.229	33.32
350.445	-17.63
350.661	-20.34
350.878	-33.13
351.094	-11.04
351.311	23.64
351.527	9.69
351.743	-22.86
351.96	26.35
352.176	33.52
352.392	0.19
352.609	37.39
352.825	-27.71
353.041	-26.54
353.257	-25.38
353.474	31.97
353.69	18.99
353.906	10.46
354.122	-38.75
354.339	19.57
354.555	12.79
354.771	-1.55
354.987	58.12
355.203	48.24
355.42	2.71
355.636	-15.31
355.852	-32.55
356.068	4.07
356.284	-57.16
356.5	18.02
356.716	7.75
356.932	-7.17
357.148	25.77
357.364	-10.27
357.58	20.92
357.796	51.15
358.012	29.84
358.228	23.25
358.444	-43.98
358.66	57.54
358.876	3.29
359.092	-23.06
359.308	7.36
359.524	6.97
359.74	-22.67
359.956	-7.56
360.172	-7.75
360.388	27.32
360.604	-6.78
360.819	48.63
361.035	30.22
361.251	24.22
361.467	-20.34
361.683	32.55
361.898	-10.85
362.114	26.93
362.33	0.19
362.546	30.81
362.762	7.17
362.977	-17.44
363.193	-46.69
363.409	28.09
363.624	-57.16
363.84	-32.16
364.056	-47.08
364.271	1.74
364.487	5.42
364.703	-20.34
364.918	-24.41
365.134	2.32
365.35	-1.16
365.565	112.57
365.781	17.63
365.996	21.31
366.212	89.51
366.427	-13.56
366.643	-18.79
366.858	-6.59
367.074	-52.12
367.289	45.14
367.505	90.29
367.72	-28.87
367.936	-13.17
368.151	29.84
368.367	15.31
368.582	-2.91
368.798	-11.24
369.013	65.87
369.228	-6.2
369.444	8.91
369.659	51.73
369.874	30.22
370.09	22.67
370.305	-43.59
370.52	-12.21
370.736	44.95
370.951	11.04
371.166	40.11
371.381	86.61
371.597	35.26
371.812	-20.34
372.027	-28.29
372.242	10.07
372.458	75.17
372.673	21.89
372.888	3.49
373.103	38.75
373.318	93.58
373.533	15.89
373.749	12.98
373.964	-64.13
374.179	56.57
374.394	-34.29
374.609	31.77
374.824	-16.86
375.039	51.92
375.254	-15.69
375.469	35.84
375.684	14.34
375.899	38.36
376.114	-9.11
376.329	3.68
376.544	42.24
376.759	31.97
376.974	-1.16
377.189	-15.69
377.404	8.33
377.619	46.11
377.834	-32.16
378.049	-17.82
378.264	-35.26
378.478	24.99
378.693	-37.97
378.908	37.97
379.123	-6.59
379.338	16.08
379.553	28.87
379.767	7.94
379.982	9.88
380.197	40.3
380.412	-11.62
380.626	28.87
380.841	93.77
381.056	1.74
381.271	82.92
381.485	-22.86
381.7	-19.96
381.915	19.18
382.129	-16.66
382.344	10.07
382.559	35.46
382.773	46.31
382.988	-56.96
383.202	17.63
383.417	-7.36
383.632	108.11
383.846	17.24
384.061	14.92
384.275	-18.41
384.49	52.51
384.704	46.11
384.919	-9.49
385.133	-12.98
385.348	32.94
385.562	-30.22
385.777	46.31
385.991	12.98
386.206	17.05
386.42	-19.76
386.634	36.23
386.849	35.26
387.063	29.26
387.277	3.1
387.492	-14.53
387.706	-22.86
387.92	-10.46
388.135	33.91
388.349	28.29
388.563	15.11
388.778	8.72
388.992	48.63
389.206	40.69
389.42	83.89
389.635	28.67
389.849	46.11
390.063	39.91
390.277	18.02
390.491	85.64
390.706	7.56
390.92	43.01
391.134	31.19
391.348	31.39
391.562	-23.64
391.776	-9.49
391.99	-1.36
392.205	43.21
392.419	-29.64
392.633	10.07
392.847	79.82
393.061	-6.97
393.275	76.72
393.489	31.39
393.703	40.49
393.917	39.52
394.131	-10.46
394.345	47.86
394.559	63.55
394.773	11.82
394.986	30.81
395.2	6.97
395.414	47.47
395.628	-21.89
395.842	59.48
396.056	21.12
396.27	-61.61
396.484	29.06
396.697	20.34
396.911	71.49
397.125	37.2
397.339	52.89
397.553	42.04
397.766	79.63
397.98	57.35
398.194	64.71
398.408	14.92
398.621	24.41
398.835	20.92
399.049	15.11
399.262	72.85
399.476	43.98
399.69	50.37
399.903	103.07
400.117	6.59
400.331	34.1
400.544	-1.36
400.758	128.26
400.971	35.84
401.185	54.06
401.398	4.26
401.612	83.12
401.826	57.35
402.039	50.37
402.253	11.24
402.466	49.79
402.68	15.31
402.893	51.34
403.106	48.82
403.32	17.82
403.533	55.02
403.747	24.99
403.96	34.49
404.174	52.89
404.387	6.59
404.6	17.05
404.814	58.71
405.027	38.75
405.24	38.56
405.454	7.75
405.667	63.36
405.88	-5.42
406.094	18.99
406.307	76.72
406.52	32.74
406.733	8.14
406.947	-33.52
407.16	81.57
407.373	79.63
407.586	54.83
407.799	9.11
408.012	104.04
408.226	32.74
408.439	86.22
408.652	-16.66
408.865	82.73
409.078	43.59
409.291	37.2
409.504	5.42
409.717	43.79
409.93	41.66
410.143	41.66
410.357	-2.13
410.57	16.47
410.783	27.51
410.996	34.29
411.209	26.16
411.421	68.2
411.634	40.49
411.847	14.34
412.06	43.59
412.273	33.71
412.486	39.91
412.699	112.76
412.912	36.04
413.125	69.75
413.338	59.09
413.55	66.26
413.763	55.8
413.976	52.31
414.189	32.74
414.402	36.62
414.615	88.15
414.827	46.31
415.04	71.11
415.253	69.36
415.466	91.64
415.678	111.99
415.891	44.56
416.104	68.59
416.316	51.92
416.529	23.06
416.742	54.83
416.954	70.33
417.167	49.6
417.38	28.48
417.592	66.26
417.805	7.36
418.017	-12.98
418.23	65.87
418.442	29.06
418.655	28.09
418.868	47.47
419.08	92.03
419.293	95.13
419.505	62.77
419.718	65.1
419.93	90.09
420.142	29.06
420.355	92.42
420.567	122.06
420.78	81.96
420.992	44.17
421.205	100.94
421.417	23.06
421.629	15.31
421.842	19.96
422.054	-12.01
422.266	77.31
422.479	71.3
422.691	36.81
422.903	69.75
423.115	49.99
423.328	66.26
423.54	61.03
423.752	54.44
423.964	16.66
424.177	55.22
424.389	46.69
424.601	185.61
424.813	80.21
425.025	98.62
425.238	78.47
425.45	61.42
425.662	36.62
425.874	360.56
426.086	60.84
426.298	76.53
426.51	77.11
426.722	60.26
426.934	74.01
427.146	93.58
427.358	14.72
427.57	104.82
427.782	67.81
427.994	64.32
428.206	30.42
428.418	23.83
428.63	74.79
428.842	87.96
429.054	89.12
429.266	108.11
429.478	56.77
429.69	108.5
429.902	-1.36
430.114	82.34
430.325	101.52
430.537	37.59
430.749	76.53
430.961	22.09
431.173	48.63
431.384	99
431.596	-8.33
431.808	57.54
432.02	96.29
432.231	84.28
432.443	109.08
432.655	76.72
432.867	44.56
433.078	101.72
433.29	143.76
433.502	98.23
433.713	105.98
433.925	96.49
434.136	110.63
434.348	50.76
434.56	23.44
434.771	166.62
434.983	46.89
435.194	79.24
435.406	83.31
435.617	122.45
435.829	145.5
436.04	101.52
436.252	115.67
436.463	140.27
436.675	121.67
436.886	63.55
437.098	99.97
437.309	152.09
437.521	80.41
437.732	119.35
437.943	106.17
438.155	103.65
438.366	69.75
438.578	151.51
438.789	89.9
439	112.57
439.211	107.92
439.423	110.24
439.634	136.79
439.845	122.84
440.057	125.16
440.268	134.85
440.479	74.4
440.69	125.16
440.902	99
441.113	116.83
441.324	116.25
441.535	116.83
441.746	171.66
441.957	75.37
442.168	93.19
442.38	130.59
442.591	126.52
442.802	96.87
443.013	87.19
443.224	104.62
443.435	109.47
443.646	111.4
443.857	118.77
444.068	81.57
444.279	86.22
444.49	167.98
444.701	121.09
444.912	223.97
445.123	157.71
445.334	134.46
445.545	126.13
445.756	136.98
445.967	62.39
446.178	118.57
446.388	169.92
446.599	166.43
446.81	125.16
447.021	117.41
447.232	175.15
447.443	188.13
447.653	78.66
447.864	152.48
448.075	124.58
448.286	147.44
448.496	133.88
448.707	153.84
448.918	130.97
449.129	225.91
449.339	122.84
449.55	186.19
449.761	140.47
449.971	213.32
450.182	111.02
450.393	154.03
450.603	116.25
450.814	181.93
451.024	155.39
451.235	188.9
451.446	208.47
451.656	220.68
451.867	142.02
452.077	192
452.288	196.85
452.498	219.13
452.709	144.92
452.919	191.23
453.13	134.85
453.34	224.55
453.55	128.07
453.761	187.74
453.971	160.04
454.182	189.29
454.392	191.62
454.602	237.73
454.813	194.52
455.023	210.41
455.233	145.89
455.444	165.85
455.654	102.88
455.864	176.12
456.075	142.79
456.285	133.1
456.495	149.19
456.705	184.64
456.916	220.29
457.126	243.35
457.336	182.7
457.546	97.84
457.756	145.12
457.967	219.13
458.177	146.47
458.387	176.5
458.597	133.1
458.807	172.82
459.017	173.99
459.227	157.9
459.437	150.15
459.647	201.69
459.857	225.52
460.068	148.41
460.278	224.55
460.488	182.12
460.698	241.99
460.908	185.22
461.117	139.3
461.327	148.41
461.537	189.87
461.747	168.17
461.957	196.85
462.167	281.71
462.377	207.12
462.587	166.62
462.797	229.2
463.007	192.2
463.216	184.06
463.426	229.78
463.636	236.18
463.846	157.71
464.056	184.64
464.265	243.15
464.475	179.99
464.685	187.35
464.895	242.57
465.104	206.15
465.314	250.9
465.524	172.24
465.733	179.22
465.943	259.82
466.153	248.77
466.362	239.28
466.572	195.3
466.782	177.08
466.991	186.58
467.201	272.02
467.41	142.4
467.62	228.43
467.829	197.62
468.039	217.97
468.249	193.94
468.458	215.06
468.668	226.1
468.877	239.86
469.086	262.14
469.296	248.77
469.505	181.15
469.715	305.54
469.924	252.65
470.134	260.98
470.343	283.84
470.552	209.63
470.762	239.67
470.971	207.7
471.18	216.03
471.39	230.95
471.599	200.72
471.808	224.75
472.018	203.24
472.227	271.25
472.436	269.31
472.645	239.08
472.855	208.08
473.064	291.01
473.273	229.4
473.482	275.31
473.691	269.89
473.901	270.66
474.11	243.93
474.319	323.95
474.528	246.45
474.737	323.95
474.946	283.26
475.155	264.66
475.364	334.8
475.573	270.28
475.783	275.7
475.992	288.49
476.201	308.06
476.41	238.89
476.619	224.94
476.828	269.31
477.037	267.76
477.245	263.3
477.454	322.01
477.663	248.38
477.872	287.52
478.081	317.16
478.29	243.15
478.499	372.19
478.708	306.51
478.917	360.95
479.125	295.85
479.334	318.71
479.543	273.96
479.752	322.4
479.961	305.35
480.169	335.38
480.378	268.73
480.587	391.95
480.796	335.76
481.004	326.27
481.213	361.92
481.422	340.61
481.63	310.19
481.839	334.02
482.048	374.71
482.256	341.77
482.465	320.65
482.674	361.73
482.882	340.8
483.091	412.49
483.299	347.78
483.508	366.18
483.716	339.45
483.925	372.19
484.134	350.88
484.342	343.51
484.551	380.71
484.759	381.88
484.967	384.2
485.176	355.91
485.384	376.26
485.593	419.85
485.801	392.34
486.01	366.76
486.218	340.41
486.426	302.25
486.635	341
486.843	332.28
487.051	347.78
487.26	342.35
487.468	382.65
487.676	397.96
487.885	328.6
488.093	362.89
488.301	361.73
488.509	394.47
488.717	412.49
488.926	347.39
489.134	380.13
489.342	381.68
489.55	333.25
489.758	384.39
489.967	365.6
490.175	502.58
490.383	363.08
490.591	454.72
490.799	370.06
491.007	437.29
491.215	410.94
491.423	377.03
491.631	384.2
491.839	416.75
492.047	440.19
492.255	389.24
492.463	350.1
492.671	424.31
492.879	441.94
493.087	408.81
493.295	404.54
493.503	450.27
493.711	454.14
493.919	480.69
494.127	476.04
494.334	467.32
494.542	397.38
494.75	440.58
494.958	419.27
495.166	468.48
495.374	441.36
495.581	458.99
495.789	451.43
495.997	488.24
496.205	465.77
496.412	443.68
496.62	440.58
496.828	487.86
497.035	438.26
497.243	487.08
497.451	440.97
497.658	484.56
497.866	461.51
498.074	500.45
498.281	460.73
498.489	545.4
498.696	445.04
498.904	440.19
499.112	468.09
499.319	539.97
499.527	454.53
499.734	513.24
499.942	432.06
500.149	444.26
500.357	512.66
500.564	460.34
500.771	486.11
500.979	449.88
501.186	444.84
501.394	481.27
501.601	461.51
501.808	487.86
502.016	473.52
502.223	455.5
502.43	478.94
502.638	462.86
502.845	441.94
503.052	567.87
503.26	465.38
503.467	578.92
503.674	488.05
503.881	516.14
504.089	570
504.296	537.26
504.503	472.16
504.71	501.22
504.917	456.27
505.125	515.37
505.332	479.72
505.539	519.63
505.746	554.12
505.953	526.8
506.16	528.15
506.367	590.54
506.574	556.05
506.781	571.75
506.988	531.25
507.195	524.47
507.402	524.28
507.609	559.74
507.816	508.2
508.023	546.17
508.23	518.47
508.437	487.86
508.644	544.43
508.851	587.83
509.058	569.04
509.265	580.66
509.472	568.84
509.679	660.87
509.885	552.76
510.092	525.25
510.299	579.69
510.506	547.34
510.713	547.14
510.92	567.68
511.126	575.62
511.333	575.62
511.54	607.98
511.746	650.02
511.953	613.6
512.16	631.81
512.367	553.34
512.573	534.55
512.78	553.92
512.987	564
513.193	576.4
513.4	545.59
513.606	600.42
513.813	606.62
514.02	593.25
514.226	662.23
514.433	612.63
514.639	573.69
514.846	596.94
515.052	556.05
515.259	584.92
515.465	611.47
515.672	617.28
515.878	651.96
516.085	578.14
516.291	640.53
516.497	578.92
516.704	591.9
516.91	548.89
517.117	526.6
517.323	525.83
517.529	548.5
517.736	563.03
517.942	570.2
518.148	549.47
518.354	595.58
518.561	588.99
518.767	589.19
518.973	632.58
519.179	620.57
519.386	575.62
519.592	595.19
519.798	560.32
520.004	651.18
520.21	599.07
520.417	653.32
520.623	679.28
520.829	694.39
521.035	669.4
521.241	672.11
521.447	679.47
521.653	767.24
521.859	664.36
522.065	683.54
522.271	766.46
522.477	693.42
522.683	733.72
522.889	695.55
523.095	715.12
523.301	699.62
523.507	670.95
523.713	706.98
523.919	680.44
524.125	742.63
524.331	691.48
524.537	764.14
524.742	729.65
524.948	761.81
525.154	753.48
525.36	850.55
525.566	744.57
525.772	802.69
525.977	718.61
526.183	763.17
526.389	794.36
526.595	731.78
526.8	752.13
527.006	699.04
527.212	691.1
527.417	683.15
527.623	659.13
527.829	738.95
528.034	756.2
528.24	762.2
528.446	753.48
528.651	800.56
528.857	759.88
529.062	848.61
529.268	769.76
529.473	786.42
529.679	779.06
529.884	827.3
530.09	818.58
530.295	881.16
530.501	825.17
530.706	817.23
530.912	782.55
531.117	802.5
531.323	822.07
531.528	811.03
531.733	829.63
531.939	778.48
532.144	846.29
532.35	782.93
532.555	868.18
532.76	862.18
532.966	848.03
533.171	817.81
533.376	815.68
533.581	765.11
533.787	838.34
533.992	846.87
534.197	901.89
534.402	773.25
534.607	841.25
534.813	928.24
535.018	832.53
535.223	812.77
535.428	840.67
535.633	904.22
535.838	859.66
536.043	856.56
536.249	938.51
536.454	872.06
536.659	878.84
536.864	843.77
537.069	847.26
537.274	870.7
537.479	845.13
537.684	889.3
537.889	827.69
538.094	955.17
538.299	876.9
538.504	887.56
538.708	884.26
538.913	865.28
539.118	887.94
539.323	898.99
539.528	864.89
539.733	899.57
539.938	919.14
540.142	900.92
540.347	854.04
540.552	842.03
540.757	860.04
540.962	880.39
541.166	839.51
541.371	784.1
541.576	838.93
541.781	759.1
541.985	877.09
542.19	858.88
542.395	919.52
542.599	949.36
542.804	932.7
543.008	904.61
543.213	890.07
543.418	855.98
543.622	890.85
543.827	814.13
544.031	941.61
544.236	954.01
544.44	898.21
544.645	1015.62
544.849	916.62
545.054	928.44
545.258	983.65
545.463	934.64
545.667	906.54
545.872	922.24
546.076	915.65
546.281	900.73
546.485	893.17
546.689	936.77
546.894	952.07
547.098	922.82
547.302	871.28
547.507	894.53
547.711	928.82
547.915	974.94
548.119	894.53
548.324	939.67
548.528	988.5
548.732	928.44
548.936	928.44
549.141	950.91
549.345	898.79
549.549	949.36
549.753	908.09
549.957	1016.98
550.161	983.65
550.366	923.59
550.57	892.01
550.774	911
550.978	939.29
551.182	958.08
551.386	934.44
551.59	914.68
551.794	936.96
551.998	955.76
552.202	900.34
552.406	885.62
552.61	941.61
552.814	954.4
553.018	1034.22
553.222	950.72
553.426	902.47
553.63	1026.09
553.833	913.91
554.037	877.29
554.241	987.14
554.445	964.47
554.649	932.89
554.853	916.42
555.056	978.23
555.26	967.77
555.464	937.54
555.668	935.99
555.871	1000.7
556.075	985.98
556.279	920.11
556.483	862.95
556.686	906.35
556.89	944.91
557.094	947.62
557.297	886.39
557.501	969.32
557.704	872.44
557.908	1000.9
558.112	922.24
558.315	964.86
558.519	912.16
558.722	941.03
558.926	950.33
559.129	892.59
559.333	830.21
559.536	880.97
559.74	856.36
559.943	890.66
560.147	852.88
560.35	889.69
560.553	844.74
560.757	847.06
560.96	945.68
561.164	884.07
561.367	931.15
561.57	898.41
561.774	865.47
561.977	877.29
562.18	879.22
562.384	951.49
562.587	871.67
562.79	867.79
562.993	888.52
563.197	935.61
563.4	951.11
563.603	937.54
563.806	987.72
564.009	829.24
564.212	918.17
564.416	830.4
564.619	902.28
564.822	873.03
565.025	926.69
565.228	861.4
565.431	874.77
565.634	761.62
565.837	837.38
566.04	836.99
566.243	865.28
566.446	771.89
566.649	870.89
566.852	828.08
567.055	823.23
567.258	887.56
567.461	929.02
567.664	945.1
567.867	813.74
568.07	868.18
568.273	836.41
568.475	881.36
568.678	820.71
568.881	869.54
569.084	871.28
569.287	738.76
569.489	786.03
569.692	851.91
569.895	861.98
570.098	789.33
570.3	772.28
570.503	737.98
570.706	772.08
570.909	762.59
571.111	757.36
571.314	769.95
571.516	784.1
571.719	795.91
571.922	737.21
572.124	748.45
572.327	790.68
572.529	705.24
572.732	725.2
572.935	766.27
573.137	829.04
573.34	751.93
573.542	811.03
573.745	796.88
573.947	757.75
574.15	745.93
574.352	764.91
574.554	813.93
574.757	750.77
574.959	736.63
575.162	708.15
575.364	735.85
575.566	819.16
575.769	723.65
575.971	765.11
576.173	662.03
576.376	727.13
576.578	769.95
576.78	769.37
576.982	679.47
577.185	730.81
577.387	675.4
577.589	650.41
577.791	735.46
577.993	776.35
578.196	713.38
578.398	793.59
578.6	781.58
578.802	689.93
579.004	689.74
579.206	682.96
579.408	726.55
579.61	689.35
579.812	755.81
580.014	716.48
580.216	703.69
580.418	678.7
580.62	710.08
580.822	651.38
581.024	711.63
581.226	762.2
581.428	719.96
581.63	788.94
581.832	681.02
582.034	749.03
582.236	709.5
582.438	757.36
582.64	772.08
582.841	767.24
583.043	832.92
583.245	736.05
583.447	756.39
583.649	768.6
583.85	731.4
584.052	746.31
584.254	719.19
584.456	779.64
584.657	695.17
584.859	733.53
585.061	704.66
585.262	723.06
585.464	671.53
585.666	722.48
585.867	678.5
586.069	787.58
586.27	744.57
586.472	722.29
586.674	704.85
586.875	673.85
587.077	691.1
587.278	707.18
587.48	707.95
587.681	812.96
587.883	702.14
588.084	628.9
588.285	713.76
588.487	686.25
588.688	684.12
588.89	639.95
589.091	610.3
589.292	669.2
589.494	634.52
589.695	613.4
589.896	587.05
590.098	586.28
590.299	625.42
590.5	613.21
590.702	596.35
590.903	626.97
591.104	706.21
591.305	675.21
591.507	696.13
591.708	656.03
591.909	645.18
592.11	716.28
592.311	678.12
592.512	655.25
592.714	612.63
592.915	642.85
593.116	610.11
593.317	630.26
593.518	651.77
593.719	637.23
593.92	679.28
594.121	715.31
594.322	692.07
594.523	633.36
594.724	600.62
594.925	645.76
595.126	656.42
595.327	660.68
595.528	645.57
595.729	644.21
595.929	661.26
596.13	656.22
596.331	670.95
596.532	651.77
596.733	728.1
596.934	653.7
597.135	655.83
597.335	680.44
597.536	621.73
597.737	648.47
597.938	641.3
598.138	694.78
598.339	640.72
598.54	673.85
598.74	648.86
598.941	670.95
599.142	716.09
599.342	629.87
599.543	632.58
599.744	658.74
599.944	637.23
600.145	624.83
600.345	672.5
600.546	700.78
600.746	698.27
600.947	728.3
601.147	648.47
601.348	667.07
601.548	626.77
601.749	667.65
601.949	619.41
602.15	657.19
602.35	625.03
602.551	675.21
602.751	630.45
602.951	617.28
603.152	581.44
603.352	659.52
603.552	609.14
603.753	664.55
603.953	643.24
604.153	650.99
604.354	621.15
604.554	645.57
604.754	637.62
604.954	582.02
605.155	650.02
605.355	633.17
605.555	694
605.755	698.46
605.955	644.4
606.155	684.9
606.356	631.62
606.556	669.4
606.756	652.15
606.956	586.28
607.156	675.79
607.356	609.53
607.556	647.89
607.756	627.35
607.956	706.01
608.156	636.07
608.356	592.09
608.556	675.79
608.756	640.92
608.956	611.47
609.156	646.92
609.356	614.95
609.556	612.43
609.755	642.27
609.955	609.53
610.155	661.84
610.355	624.25
610.555	589.57
610.755	617.86
610.954	581.82
611.154	655.06
611.354	647.5
611.554	600.04
611.753	584.73
611.953	554.5
612.153	627.35
612.352	606.43
612.552	563.61
612.752	552.57
612.951	606.82
613.151	613.6
613.351	567.29
613.55	589.19
613.75	641.3
613.949	579.89
614.149	629.29
614.348	619.6
614.548	558.96
614.747	570.2
614.947	581.44
615.146	542.69
615.346	612.43
615.545	594.8
615.745	596.55
615.944	598.29
616.144	579.5
616.343	627.74
616.542	591.12
616.742	601.39
616.941	560.9
617.14	538.62
617.34	575.82
617.539	580.08
617.738	516.53
617.938	625.61
618.137	567.1
618.336	540.75
618.535	590.74
618.734	547.92
618.934	581.63
619.133	621.35
619.332	590.74
619.531	545.59
619.73	572.72
619.929	626
620.128	614.57
620.328	596.16
620.527	591.12
620.726	548.89
620.925	603.91
621.124	549.27
621.323	603.14
621.522	527.19
621.721	549.08
621.92	539.59
622.119	602.94
622.318	554.31
622.517	561.29
622.715	563.61
622.914	514.21
623.113	568.65
623.312	493.47
623.511	558.38
623.71	531.06
623.909	528.93
624.107	600.42
624.306	495.99
624.505	517.31
624.704	524.47
624.902	527.77
625.101	602.36
625.3	556.83
625.499	514.59
625.697	511.49
625.896	511.88
626.095	579.5
626.293	521.96
626.492	496.57
626.69	565.16
626.889	489.41
627.088	549.66
627.286	479.52
627.485	501.42
627.683	502.97
627.882	535.52
628.08	468.87
628.279	501.61
628.477	601.2
628.676	465.57
628.874	510.72
629.073	507.62
629.271	469.64
629.469	529.12
629.668	497.35
629.866	491.73
630.065	504.32
630.263	541.33
630.461	488.05
630.66	509.94
630.858	538.04
631.056	540.17
631.254	550.63
631.453	474.68
631.651	551.4
631.849	516.92
632.047	519.44
632.245	452.4
632.444	494.44
632.642	530.67
632.84	536.49
633.038	523.31
633.236	481.07
633.434	492.7
633.632	472.94
633.83	496.96
634.028	520.99
634.227	501.42
634.425	560.7
634.623	509.75
634.821	514.79
635.019	522.92
635.216	531.06
635.414	536.87
635.612	542.88
635.81	514.01
636.008	565.74
636.206	498.71
636.404	526.02
636.602	474.49
636.8	502.97
636.997	522.34
637.195	531.25
637.393	528.35
637.591	535.9
637.789	500.26
637.986	504.52
638.184	508.78
638.382	531.64
638.58	519.44
638.777	550.44
638.975	502.58
639.173	497.74
639.37	520.99
639.568	492.89
639.765	542.49
639.963	488.44
640.161	553.34
640.358	538.81
640.556	506.46
640.753	461.89
640.951	476.04
641.148	513.82
641.346	503.94
641.543	481.46
641.741	502
641.938	466.54
642.136	474.68
642.333	474.49
642.531	515.76
642.728	556.05
642.925	508.59
643.123	475.26
643.32	504.13
643.517	479.72
643.715	506.46
643.912	483.59
644.109	496.96
644.306	478.94
644.504	486.69
644.701	503.55
644.898	515.95
645.095	443.68
645.293	471.97
645.49	495.22
645.687	512.85
645.884	520.02
646.081	426.83
646.278	453.56
646.475	471.77
646.672	444.07
646.87	490.57
647.067	491.34
647.264	497.16
647.461	445.81
647.658	427.02
647.855	477.97
648.052	473.71
648.249	399.12
648.446	469.45
648.642	412.29
648.839	429.73
649.036	425.08
649.233	392.34
649.43	392.92
649.627	398.15
649.824	440.39
650.021	446.97
650.217	415.01
650.414	438.45
650.611	466.54
650.808	425.28
651.004	432.64
651.201	444.26
651.398	480.3
651.595	446.78
651.791	415.98
651.988	464.99
652.185	427.99
652.381	466.16
652.578	376.64
652.775	443.29
652.971	438.45
653.168	451.43
653.364	448.14
653.561	376.84
653.757	441.74
653.954	452.79
654.15	413.46
654.347	500.84
654.543	425.66
654.74	405.32
654.936	407.45
655.133	432.64
655.329	424.31
655.525	445.81
655.722	471.19
655.918	388.08
656.115	447.94
656.311	387.69
656.507	367.93
656.704	319.1
656.9	342.93
657.096	355.91
657.292	381.88
657.489	390.59
657.685	364.83
657.881	378.58
658.077	398.73
658.273	407.26
658.47	474.1
658.666	394.66
658.862	417.72
659.058	368.89
659.254	427.79
659.45	375.09
659.646	424.31
659.842	404.16
660.038	459.37
660.234	384.98
660.43	420.24
660.626	483.4
660.822	426.24
661.018	449.69
661.214	419.85
661.41	380.13
661.606	453.76
661.802	461.12
661.998	405.71
662.194	381.1
662.39	404.16
662.586	437.67
662.781	440
662.977	457.44
663.173	455.31
663.369	409.78
663.564	451.62
663.76	448.33
663.956	419.27
664.152	476.23
664.347	367.15
664.543	434.19
664.739	409.78
664.934	377.03
665.13	352.04
665.326	431.67
665.521	403.77
665.717	348.75
665.912	373.74
666.108	336.54
666.304	389.43
666.499	363.28
666.695	317.36
666.89	389.24
667.086	428.96
667.281	420.24
667.477	458.99
667.672	411.91
667.867	406.87
668.063	397.18
668.258	383.81
668.454	405.51
668.649	457.44
668.844	380.71
669.04	429.93
669.235	398.15
669.43	353.78
669.626	363.66
669.821	405.71
670.016	335.76
670.211	381.88
670.407	372.96
670.602	405.32
670.797	409.58
670.992	431.86
671.187	400.48
671.382	421.4
671.578	385.75
671.773	416.94
671.968	355.72
672.163	388.46
672.358	443.1
672.553	384.98
672.748	394.28
672.943	445.42
673.138	397.18
673.333	413.07
673.528	407.26
673.723	405.13
673.918	401.83
674.113	343.51
674.308	464.02
674.503	436.32
674.698	421.79
674.892	395.44
675.087	403.96
675.282	411.13
675.477	366.38
675.672	388.46
675.867	405.71
676.061	381.49
676.256	369.09
676.451	370.83
676.646	400.09
676.84	371.41
677.035	352.23
677.23	366.96
677.424	447.36
677.619	430.7
677.814	460.92
678.008	436.9
678.203	345.26
678.397	367.54
678.592	419.27
678.787	468.09
678.981	388.66
679.176	418.11
679.37	400.09
679.565	389.24
679.759	392.14
679.954	417.33
680.148	460.34
680.342	431.28
680.537	444.84
680.731	406.09
680.926	427.02
681.12	445.23
681.314	396.41
681.509	391.95
681.703	407.64
681.897	434.96
682.092	424.5
682.286	394.08
682.48	485.34
682.674	454.92
682.869	426.44
683.063	426.24
683.257	480.69
683.451	399.51
683.645	436.9
683.839	408.23
684.034	431.28
684.228	461.7
684.422	371.41
684.616	390.98
684.81	447.56
685.004	431.67
685.198	413.07
685.392	451.82
685.586	425.47
685.78	459.76
685.974	468.87
686.168	436.9
686.362	478.56
686.556	399.51
686.75	365.41
686.944	364.05
687.138	439.61
687.331	323.36
687.525	367.93
687.719	291.2
687.913	359.01
688.107	365.41
688.301	314.65
688.494	384.01
688.688	347.2
688.882	314.65
689.076	318.33
689.269	348.16
689.463	433.61
689.657	373.93
689.85	371.99
690.044	375.68
690.238	367.34
690.431	350.49
690.625	352.04
690.818	377.81
691.012	409
691.205	406.29
691.399	367.15
691.593	409.78
691.786	461.51
691.98	458.02
692.173	446.39
692.366	433.41
692.56	473.71
692.753	490.76
692.947	430.89
693.14	515.76
693.333	531.84
693.527	411.33
693.72	501.03
693.914	469.45
694.107	439.22
694.3	494.25
694.493	485.53
694.687	543.46
694.88	473.13
695.073	519.63
695.266	478.94
695.46	499.87
695.653	557.02
695.846	560.7
696.039	471.77
696.232	527.57
696.425	559.74
696.618	562.45
696.812	558.57
697.005	645.76
697.198	675.98
697.391	629.48
697.584	608.37
697.777	681.41
697.97	641.3
698.163	676.95
698.356	592.48
698.549	716.28
698.742	679.08
698.935	646.73
699.127	677.15
699.32	649.44
699.513	657.38
699.706	680.83
699.899	677.53
700.092	659.52
700.285	696.13
700.477	635.49
700.67	679.08
700.863	710.66
701.056	808.7
701.248	747.86
701.441	772.66
701.634	724.61
701.826	814.71
702.019	696.72
702.212	768.6
702.404	667.65
702.597	713.96
702.79	761.62
702.982	779.83
703.175	774.21
703.367	799.79
703.56	801.92
703.752	906.93
703.945	841.06
704.137	875.16
704.33	845.32
704.522	853.84
704.715	863.92
704.907	901.89
705.1	922.43
705.292	914.87
705.484	894.92
705.677	930.37
705.869	921.46
706.061	972.03
706.254	998.19
706.446	949.56
706.638	951.88
706.831	1018.53
707.023	963.7
707.215	1065.42
707.407	1030.93
707.599	1036.74
707.792	1086.15
707.984	1054.95
708.176	1063.48
708.368	1043.52
708.56	1078.78
708.752	1055.53
708.944	1098.16
709.136	1109.4
709.329	1106.3
709.521	1219.64
709.713	1138.07
709.905	1170.04
710.097	1173.72
710.289	1132.26
710.481	1169.07
710.672	1170.43
710.864	1155.51
711.056	1225.45
711.248	1197.94
711.44	1227.58
711.632	1167.52
711.824	1227.39
712.016	1307.99
712.207	1273.31
712.399	1260.91
712.591	1335.69
712.783	1300.24
712.975	1335.89
713.166	1295.01
713.358	1303.53
713.55	1374.83
713.741	1367.27
713.933	1324.46
714.125	1325.81
714.316	1331.24
714.508	1369.02
714.7	1407.96
714.891	1381.61
715.083	1444.58
715.274	1389.75
715.466	1404.67
715.657	1396.53
715.849	1342.47
716.04	1379.87
716.232	1337.44
716.423	1438.38
716.615	1329.3
716.806	1311.86
716.998	1298.3
717.189	1275.83
717.381	1171.78
717.572	1184.76
717.763	1197.16
717.955	1190.58
718.146	1193.48
718.337	1120.83
718.528	1107.85
718.72	1065.61
718.911	1122.57
719.102	1104.36
719.293	1115.6
719.485	1108.62
719.676	1115.79
719.867	1076.46
720.058	1071.81
720.249	1098.93
720.44	1110.75
720.632	1138.65
720.823	1189.03
721.014	1273.69
721.205	1262.26
721.396	1342.28
721.587	1374.64
721.778	1386.07
721.969	1419.39
722.16	1432.37
722.351	1456.01
722.542	1562.77
722.733	1555.98
722.924	1477.9
723.115	1502.12
723.305	1517.04
723.496	1539.13
723.687	1463.95
723.878	1478.49
724.069	1475.58
724.26	1454.27
724.45	1385.87
724.641	1399.82
724.832	1425.4
725.023	1429.27
725.213	1433.15
725.404	1392.27
725.595	1400.99
725.785	1383.16
725.976	1425.4
726.167	1446.13
726.357	1425.2
726.548	1531.96
726.739	1451.94
726.929	1544.55
727.12	1516.46
727.31	1526.53
727.501	1482.36
727.691	1494.95
727.882	1514.91
728.072	1558.31
728.263	1531.77
728.453	1610.81
728.644	1574.39
728.834	1583.5
729.024	1511.03
729.215	1502.7
729.405	1542.62
729.596	1597.83
729.786	1620.11
729.976	1638.71
730.167	1664.48
730.357	1602.48
730.547	1625.35
730.737	1650.34
730.928	1695.68
731.118	1698.78
731.308	1632.13
731.498	1655.57
731.688	1723.77
731.879	1707.49
732.069	1786.74
732.259	1800.3
732.449	1805.72
732.639	1856.68
732.829	1859.78
733.019	1899.3
733.209	1956.65
733.399	1966.92
733.589	1938.83
733.779	2022.72
733.969	1983.58
734.159	2012.26
734.349	2044.42
734.539	2100.41
734.729	2077.55
734.919	2148.46
735.109	2129.48
735.299	2073.29
735.488	2118.04
735.678	2097.31
735.868	2119.79
736.058	2122.89
736.248	2084.91
736.437	2057.01
736.627	2124.83
736.817	2178.69
737.007	2132.96
737.196	2196.9
737.386	2126.57
737.576	2107.78
737.765	2161.83
737.955	2116.69
738.144	2242.82
738.334	2212.01
738.524	2178.88
738.713	2224.02
738.903	2213.56
739.092	2247.66
739.282	2206.01
739.471	2234.29
739.661	2222.86
739.85	2250.18
740.04	2254.44
740.229	2274.01
740.419	2295.9
740.608	2303.27
740.797	2279.24
740.987	2352.87
741.176	2329.23
741.365	2289.32
741.555	2240.3
741.744	2356.74
741.933	2305.4
742.123	2320.12
742.312	2334.85
742.501	2356.94
742.69	2382.51
742.88	2289.51
743.069	2436.95
743.258	2305.79
743.447	2377.47
743.636	2415.83
743.825	2408.67
744.014	2357.13
744.204	2417.58
744.393	2330.78
744.582	2441.99
744.771	2432.69
744.96	2384.45
745.149	2382.7
745.338	2378.44
745.527	2441.6
745.716	2409.63
745.905	2381.15
746.094	2432.88
746.283	2447.41
746.471	2464.27
746.66	2517.16
746.849	2492.36
747.038	2500.11
747.227	2423.2
747.416	2498.18
747.604	2413.7
747.793	2435.98
747.982	2465.43
748.171	2467.37
748.359	2479.77
748.548	2456.71
748.737	2465.24
748.926	2405.18
749.114	2373.98
749.303	2425.33
749.491	2431.92
749.68	2389.48
749.869	2453.03
750.057	2409.05
750.246	2412.35
750.434	2400.72
750.623	2408.86
750.811	2394.52
751	2421.45
751.188	2398.78
751.377	2407.31
751.565	2375.34
751.754	2339.3
751.942	2399.75
752.131	2430.56
752.319	2396.46
752.507	2307.92
752.696	2418.55
752.884	2442.57
753.072	2364.68
753.261	2398.78
753.449	2356.74
753.637	2387.74
753.825	2455.16
754.014	2401.88
754.202	2366.04
754.39	2432.3
754.578	2412.15
754.766	2383.28
754.955	2301.33
755.143	2420.1
755.331	2317.99
755.519	2371.85
755.707	2365.27
755.895	2356.16
756.083	2350.74
756.271	2329.81
756.459	2321.29
756.647	2398.2
756.835	2309.08
757.023	2318.77
757.211	2292.22
757.399	2327.29
757.587	2320.12
757.775	2274.79
757.963	2284.86
758.151	2331.75
758.339	2249.79
758.526	2247.08
758.714	2301.14
758.902	2194.57
759.09	2176.94
759.278	2043.45
759.465	1895.04
759.653	1628.64
759.841	1473.45
760.028	1240.56
760.216	1111.53
760.404	1053.4
760.591	862.95
760.779	725.97
760.967	608.95
761.154	510.14
761.342	552.37
761.529	537.07
761.717	575.24
761.905	595.58
762.092	629.87
762.28	564.58
762.467	619.41
762.655	536.49
762.842	557.6
763.029	591.9
763.217	582.79
763.404	578.53
763.592	597.9
763.779	540.55
763.966	597.13
764.154	629.29
764.341	679.86
764.528	704.46
764.716	716.67
764.903	793.59
765.09	797.46
765.277	843.38
765.465	981.14
765.652	992.18
765.839	1055.15
766.026	1119.28
766.213	1177.01
766.4	1228.94
766.588	1378.9
766.775	1338.79
766.962	1451.94
767.149	1485.27
767.336	1649.76
767.523	1564.32
767.71	1642.78
767.897	1722.03
768.084	1802.62
768.271	1788.29
768.458	1831.49
768.645	1866.95
768.832	1819.87
769.019	1860.17
769.206	1902.6
769.392	1998.31
769.579	2045.97
769.766	1981.07
769.953	1988.82
770.14	2048.49
770.327	2047.52
770.513	2018.26
770.7	2111.84
770.887	2027.56
771.073	2101.96
771.26	2097.7
771.447	2036.48
771.634	2022.33
771.82	2112.04
772.007	2052.36
772.193	2040.93
772.38	2101.19
772.567	2060.11
772.753	2061.08
772.94	2153.11
773.126	2122.31
773.313	2109.91
773.499	2133.74
773.686	2071.35
773.872	2072.9
774.059	2094.99
774.245	2029.89
774.432	2068.64
774.618	1985.52
774.804	2049.26
774.991	1964.79
775.177	2060.7
775.363	2015.55
775.55	2072.71
775.736	1999.28
775.922	2001.41
776.109	2031.63
776.295	2033.57
776.481	2063.02
776.667	2078.52
776.853	2032.8
777.04	1991.33
777.226	2012.45
777.412	2097.51
777.598	1994.43
777.784	2019.43
777.97	1973.32
778.156	2042.48
778.342	1964.6
778.528	2004.12
778.715	1941.93
778.901	1988.23
779.087	1995.6
779.272	1989.4
779.458	1934.37
779.644	1989.59
779.83	1924.49
780.016	2023.3
780.202	1963.43
780.388	1926.04
780.574	1918.49
780.76	1947.55
780.946	1960.72
781.131	1921.97
781.317	1945.42
781.503	1908.8
781.689	1923.91
781.874	2051.01
782.06	1901.24
782.246	1912.29
782.432	1920.23
782.617	1931.47
782.803	1963.63
782.989	1844.47
783.174	1915.77
783.36	1847.38
783.545	1896.4
783.731	1868.69
783.916	1832.27
784.102	1924.88
784.288	1845.44
784.473	1896.4
784.659	1875.67
784.844	1918.1
785.029	1796.62
785.215	1857.65
785.4	1769.49
785.586	1914.22
785.771	1788.67
785.956	1857.84
786.142	1817.93
786.327	1780.54
786.512	1825.68
786.698	1788.67
786.883	1741.21
787.068	1779.18
787.254	1793.13
787.439	1776.27
787.624	1782.09
787.809	1748.57
787.994	1789.06
788.18	1793.52
788.365	1694.9
788.55	1730.36
788.735	1708.85
788.92	1809.41
789.105	1733.84
789.29	1741.59
789.475	1700.91
789.66	1697.81
789.845	1700.33
790.03	1694.51
790.215	1750.12
790.4	1770.85
790.585	1754.57
790.77	1699.36
790.955	1585.43
791.14	1724.35
791.325	1740.43
791.51	1619.53
791.695	1725.71
791.879	1652.28
792.064	1646.46
792.249	1728.03
792.434	1654.8
792.618	1667.19
792.803	1658.28
792.988	1642.4
793.173	1668.55
793.357	1724.54
793.542	1607.33
793.727	1648.01
793.911	1704.01
794.096	1662.54
794.281	1689.86
794.465	1773.56
794.65	1682.11
794.834	1721.64
795.019	1720.67
795.203	1735.98
795.388	1687.54
795.572	1738.69
795.757	1681.14
795.941	1736.56
796.126	1731.91
796.31	1658.09
796.494	1693.16
796.679	1638.91
796.863	1675.14
797.048	1760
797.232	1731.91
797.416	1716.6
797.601	1698.97
797.785	1778.99
797.969	1745.28
798.153	1654.02
798.338	1699.55
798.522	1736.17
798.706	1701.29
798.89	1709.63
799.074	1797.39
799.258	1737.53
799.443	1710.79
799.627	1685.02
799.811	1723.77
799.995	1673.39
800.179	1705.17
800.363	1709.82
800.547	1728.61
800.731	1722.03
800.915	1650.73
801.099	1690.44
801.283	1696.45
801.467	1685.6
801.651	1664.09
801.835	1740.43
802.019	1704.59
802.202	1703.43
802.386	1663.13
802.57	1675.33
802.754	1637.94
802.938	1663.51
803.121	1655.38
803.305	1755.54
803.489	1694.51
803.673	1679.79
803.856	1722.99
804.04	1709.82
804.224	1735.98
804.407	1680.18
804.591	1667.58
804.775	1709.04
804.958	1695.87
805.142	1786.93
805.326	1685.6
805.509	1716.21
805.693	1734.04
805.876	1737.33
806.06	1707.69
806.243	1745.47
806.427	1742.37
806.61	1776.47
806.794	1711.95
806.977	1774.34
807.16	1715.24
807.344	1731.91
807.527	1735.2
807.71	1720.86
807.894	1744.11
808.077	1762.13
808.26	1687.93
808.444	1685.41
808.627	1739.85
808.81	1691.99
808.993	1652.47
809.177	1596.86
809.36	1679.98
809.543	1686.57
809.726	1631.16
809.909	1590.47
810.092	1612.75
810.276	1595.51
810.459	1627.09
810.642	1599
810.825	1579.62
811.008	1573.42
811.191	1556.95
811.374	1534.67
811.557	1561.22
811.74	1621.86
811.923	1499.02
812.106	1487.01
812.289	1477.9
812.472	1448.26
812.654	1503.67
812.837	1459.11
813.02	1421.72
813.203	1401.18
813.386	1339.18
813.569	1305.86
813.751	1299.46
813.934	1334.53
814.117	1313.02
814.3	1269.43
814.482	1250.25
814.665	1227
814.848	1204.72
815.03	1163.45
815.213	1163.84
815.396	1188.45
815.578	1159.96
815.761	1113.08
815.943	1177.6
816.126	1106.88
816.309	1073.55
816.491	1022.21
816.674	997.02
816.856	1058.05
817.039	1019.3
817.221	1105.33
817.403	1072
817.586	1073.36
817.768	1093.32
817.951	1042.75
818.133	1005.74
818.315	1046.43
818.498	1111.92
818.68	1115.21
818.862	1128.77
819.045	1117.92
819.227	1084.21
819.409	1062.9
819.591	1121.41
819.774	1098.55
819.956	1030.74
820.138	1134.2
820.32	1104.36
820.502	1144.66
820.684	1180.5
820.866	1198.13
821.048	1220.8
821.231	1227.78
821.413	1231.07
821.595	1219.25
821.777	1215.18
821.959	1194.06
822.141	1240.56
822.323	1146.98
822.505	1138.65
822.686	1081.69
822.868	1069.68
823.05	967.38
823.232	969.12
823.414	919.91
823.596	973.77
823.778	942
823.96	947.04
824.141	991.6
824.323	973
824.505	1035.39
824.687	1050.69
824.868	1061.73
825.05	1177.4
825.232	1188.06
825.413	1254.71
825.595	1193.87
825.777	1152.99
825.958	1165
826.14	1184.96
826.321	1211.31
826.503	1192.32
826.685	1171.4
826.866	1220.03
827.048	1159.38
827.229	1183.6
827.411	1110.75
827.592	1098.35
827.773	1091.96
827.955	1056.31
828.136	1053.98
828.318	1046.24
828.499	1074.91
828.68	1024.34
828.862	1069.87
829.043	1120.05
829.224	1083.24
829.406	1033.45
829.587	1035.19
829.768	1007.29
829.949	1066.97
830.131	1087.7
830.312	1108.43
830.493	1058.83
830.674	1052.43
830.855	1046.82
831.036	1061.73
831.218	1097.97
831.399	1105.13
831.58	1056.89
831.761	1072.39
831.942	1072
832.123	1062.32
832.304	1005.55
832.485	1032.67
832.666	1063.87
832.847	1073.36
833.028	1072
833.209	1054.37
833.389	1052.05
833.57	1039.26
833.751	1022.6
833.932	1059.99
834.113	1085.95
834.294	1027.25
834.475	1090.41
834.655	1103.2
834.836	1110.56
835.017	1097.58
835.198	1011.55
835.378	1072.39
835.559	1136.33
835.74	1062.12
835.92	1074.33
836.101	1055.92
836.281	1082.47
836.462	1089.44
836.643	1103.2
836.823	1106.3
837.004	1108.82
837.184	1175.46
837.365	1161.71
837.545	1116.57
837.726	1100.48
837.906	1114.63
838.087	1098.35
838.267	1080.72
838.448	1051.08
838.628	1105.33
838.808	1062.9
838.989	1177.79
839.169	1080.92
839.349	1117.34
839.53	1129.16
839.71	1115.4
839.89	1047.79
840.07	1172.75
840.251	1060.38
840.431	1132.65
840.611	1103.2
840.791	1065.8
840.971	1102.81
841.151	1071.23
841.332	1072.97
841.512	1113.66
841.692	1066.19
841.872	1103
842.052	1088.47
842.232	1112.11
842.412	1041.59
842.592	1098.55
842.772	1100.48
842.952	1090.02
843.132	1043.14
843.312	1051.85
843.492	1051.85
843.672	1114.05
843.851	967.38
844.031	1051.85
844.211	1076.85
844.391	1054.37
844.571	1066.97
844.751	1055.15
844.93	1084.98
845.11	1044.1
845.29	1046.82
845.47	1064.06
845.649	1041.2
845.829	1088.28
846.009	1059.41
846.188	1085.95
846.368	1084.4
846.547	1020.27
846.727	1091.57
846.907	1039.65
847.086	1044.69
847.266	1063.87
847.445	1028.22
847.625	1057.86
847.804	1005.55
847.984	1020.27
848.163	1016.01
848.343	1024.73
848.522	1054.37
848.701	1043.14
848.881	1012.14
849.06	1017.95
849.239	1021.24
849.419	1029.19
849.598	966.22
849.777	1007.1
849.957	985.79
850.136	943.74
850.315	940.45
850.494	928.05
850.674	961.57
850.853	1001.87
851.032	971.84
851.211	995.67
851.39	970.48
851.569	929.21
851.748	906.54
851.927	979.39
852.107	931.15
852.286	891.43
852.465	885.04
852.644	995.47
852.823	959.63
853.002	930.76
853.181	970.48
853.359	978.04
853.538	912.74
853.717	1015.43
853.896	933.09
854.075	847.06
854.254	866.05
854.433	776.15
854.611	829.63
854.79	802.69
854.969	842.41
855.148	887.75
855.327	803.66
855.505	883.49
855.684	814.9
855.863	876.9
856.041	844.35
856.22	889.3
856.399	851.91
856.577	932.7
856.756	898.21
856.934	1030.74
857.113	1006.13
857.291	918.17
857.47	907.71
857.648	916.42
857.827	906.74
858.005	930.18
858.184	867.02
858.362	971.45
858.541	911.77
858.719	913.13
858.898	896.66
859.076	902.86
859.254	965.05
859.433	887.75
859.611	869.15
859.789	831.95
859.967	935.02
860.146	953.62
860.324	830.21
860.502	862.18
860.68	833.11
860.859	873.99
861.037	853.84
861.215	910.42
861.393	893.37
861.571	871.67
861.749	867.79
861.927	902.47
862.105	866.63
862.283	878.06
862.461	849.19
862.639	823.81
862.817	841.25
862.995	895.89
863.173	819.55
863.351	825.36
863.529	843.19
863.707	889.11
863.885	865.28
864.063	803.66
864.241	841.06
864.418	898.21
864.596	798.63
864.774	776.93
864.952	850.36
865.129	837.57
865.307	824.2
865.485	811.8
865.663	858.3
865.84	779.45
866.018	813.35
866.196	681.41
866.373	739.92
866.551	709.7
866.728	668.43
866.906	729.07
867.084	744.38
867.261	777.31
867.439	765.3
867.616	815.48
867.794	769.56
867.971	777.31
868.149	759.49
868.326	824.59
868.503	804.44
868.681	780.61
868.858	746.51
869.035	717.83
869.213	786.61
869.39	746.9
869.567	827.11
869.745	729.07
869.922	763.75
870.099	783.71
870.276	824.2
870.454	832.14
870.631	777.9
870.808	749.03
870.985	803.47
871.162	836.99
871.339	770.53
871.517	715.9
871.694	723.45
871.871	757.94
872.048	749.22
872.225	741.28
872.402	765.3
872.579	713.18
872.756	754.26
872.933	709.7
873.11	734.88
873.287	765.3
873.463	724.61
873.64	729.85
873.817	775.96
873.994	737.79
874.171	711.25
874.348	770.53
874.524	679.67
874.701	726.16
874.878	639.75
875.055	767.05
875.231	731.01
875.408	763.75
875.585	666.88
875.762	733.72
875.938	721.51
876.115	710.28
876.291	705.24
876.468	707.56
876.645	674.82
876.821	693.81
876.998	685.09
877.174	724.42
877.351	680.63
877.527	667.27
877.704	690.71
877.88	697.88
878.057	645.18
878.233	724.61
878.409	706.4
878.586	708.92
878.762	669.4
878.938	631.42
879.115	636.46
879.291	680.83
879.467	630.65
879.644	633.17
879.82	697.1
879.996	669.59
880.172	600.81
880.349	650.22
880.525	696.52
880.701	637.23
880.877	641.69
881.053	664.94
881.229	640.92
881.405	694
881.581	610.69
881.757	660.1
881.933	664.55
882.109	675.6
882.285	673.85
882.461	593.06
882.637	650.8
882.813	627.16
882.989	649.83
883.165	693.81
883.341	602.55
883.517	693.03
883.693	665.72
883.869	658.93
884.044	641.11
884.22	678.89
884.396	688.77
884.572	678.89
884.747	670.75
884.923	634.91
885.099	657.77
885.275	680.44
885.45	641.3
885.626	639.17
885.801	617.67
885.977	616.7
886.153	582.21
886.328	639.56
886.504	638.98
886.679	673.66
886.855	629.87
887.03	680.44
887.206	673.27
887.381	656.22
887.557	648.86
887.732	687.61
887.908	700.98
888.083	663.78
888.258	637.43
888.434	633.36
888.609	642.08
888.784	665.33
888.96	606.24
889.135	624.64
889.31	613.6
889.485	623.48
889.661	612.24
889.836	690.32
890.011	621.54
890.186	624.45
890.361	631.42
890.537	651.77
890.712	660.29
890.887	624.25
891.062	616.5
891.237	702.14
891.412	635.3
891.587	635.1
891.762	670.17
891.937	684.9
892.112	611.66
892.287	613.21
892.462	617.28
892.637	568.45
892.812	594.42
892.987	603.72
893.161	537.65
893.336	583.37
893.511	592.48
893.686	598.68
893.861	583.18
894.035	576.01
894.21	584.34
894.385	533.97
894.56	589.57
894.734	512.85
894.909	530.48
895.084	527.38
895.258	521.37
895.433	548.69
895.608	500.45
895.782	488.24
895.957	482.62
896.131	516.92
896.306	445.04
896.48	458.21
896.655	474.87
896.829	415.01
897.004	389.63
897.178	434.96
897.353	384.39
897.527	457.82
897.701	432.25
897.876	377.23
898.05	479.72
898.224	419.66
898.399	495.22
898.573	433.03
898.747	365.79
898.921	413.26
899.096	356.49
899.27	327.82
899.444	351.65
899.618	362.5
899.792	378.78
899.967	388.08
900.141	400.48
900.315	356.88
900.489	337.31
900.663	385.75
900.837	375.48
901.011	319.68
901.185	409.97
901.359	375.09
901.533	376.64
901.707	383.43
901.881	359.4
902.055	309.41
902.229	371.03
902.403	423.73
902.576	377.42
902.75	371.41
902.924	483.01
903.098	440.58
903.272	436.71
903.446	483.4
903.619	447.75
903.793	458.79
903.967	431.28
904.14	496.57
904.314	471.19
904.488	476.62
904.661	497.93
904.835	475.26
905.009	532.61
905.182	520.41
905.356	505.29
905.529	477.97
905.703	455.5
905.876	438.45
906.05	438.26
906.223	405.71
906.397	370.25
906.57	376.64
906.744	350.29
906.917	328.6
907.09	385.36
907.264	378.19
907.437	355.53
907.61	335.96
907.784	338.48
907.957	372.77
908.13	325.11
908.304	367.34
908.477	320.26
908.65	338.48
908.823	296.63
908.996	387.11
909.17	316.78
909.343	330.53
909.516	357.08
909.689	326.08
909.862	322.98
910.035	322.59
910.208	291.4
910.381	306.51
910.554	381.29
910.727	314.84
910.9	318.71
911.073	306.9
911.246	371.41
911.419	383.81
911.592	347.39
911.765	307.09
911.938	309.61
912.11	322.2
912.283	316
912.456	386.53
912.629	328.01
912.802	298.95
912.974	287.13
913.147	282.29
913.32	233.47
913.493	254.97
913.665	279.58
913.838	292.56
914.01	286.55
914.183	291.2
914.356	266.01
914.528	303.21
914.701	331.11
914.873	308.83
915.046	281.32
915.218	269.31
915.391	233.47
915.563	236.37
915.736	278.8
915.908	302.25
916.081	287.13
916.253	267.18
916.425	254.97
916.598	304.96
916.77	291.2
916.942	268.53
917.115	204.98
917.287	285.97
917.459	259.62
917.632	207.89
917.804	162.94
917.976	246.45
918.148	233.47
918.32	261.56
918.493	288.3
918.665	316.39
918.837	276.48
919.009	322.2
919.181	331.11
919.353	302.25
919.525	295.85
919.697	290.04
919.869	278.61
920.041	355.33
920.213	374.71
920.385	314.65
920.557	298.76
920.729	312.32
920.901	301.47
921.073	287.33
921.244	276.67
921.416	352.81
921.588	314.06
921.76	265.43
921.932	347.97
922.103	300.89
922.275	277.83
922.447	294.88
922.619	253.23
922.79	272.21
922.962	277.45
923.134	311.74
923.305	229.4
923.477	231.33
923.648	229.01
923.82	275.31
923.991	223.39
924.163	203.82
924.335	223.58
924.506	245.28
924.677	312.71
924.849	225.33
925.02	249.93
925.192	271.05
925.363	253.81
925.535	227.46
925.706	228.82
925.877	308.83
926.049	222.81
926.22	273.57
926.391	261.56
926.562	264.08
926.734	213.9
926.905	258.85
927.076	196.65
927.247	208.86
927.419	191.62
927.59	210.22
927.761	197.82
927.932	225.91
928.103	195.88
928.274	160.23
928.445	155.77
928.616	181.15
928.787	193.75
928.958	218.35
929.129	188.52
929.3	184.45
929.471	158.49
929.642	125.16
929.813	80.6
929.984	160.23
930.155	87.57
930.326	140.08
930.496	118.96
930.667	44.95
930.838	107.72
931.009	68.2
931.18	82.34
931.35	76.72
931.521	124.97
931.692	60.26
931.863	4.65
932.033	96.1
932.204	76.34
932.374	71.3
932.545	-3.68
932.716	81.57
932.886	105.79
933.057	-1.94
933.227	28.87
933.398	116.44
933.568	39.14
933.739	-29.26
933.909	13.17
934.08	81.18
934.25	2.52
934.421	-8.14
934.591	53.67
934.761	6.59
934.932	-16.08
935.102	26.74
935.272	-8.72
935.443	6.59
935.613	30.22
935.783	15.69
935.953	-23.06
936.123	155
936.294	-14.92
936.464	-14.14
936.634	7.75
936.804	-17.63
936.974	-4.26
937.144	18.02
937.314	24.41
937.484	1.94
937.655	-21.51
937.825	28.87
937.995	1.94
938.165	53.47
938.334	-3.87
938.504	13.37
938.674	-14.92
938.844	21.12
939.014	76.53
939.184	33.13
939.354	77.11
939.524	58.12
939.694	52.12
939.863	32.16
940.033	91.06
940.203	86.41
940.373	95.32
940.542	103.07
940.712	39.33
940.882	101.33
941.051	71.88
941.221	64.71
941.391	87.57
941.56	31.19
941.73	29.45
941.899	146.67
942.069	26.54
942.238	80.79
942.408	0.58
942.577	74.98
942.747	18.99
942.916	7.75
943.086	12.59
943.255	74.21
943.425	64.71
943.594	20.92
943.763	-24.8
943.933	0.97
944.102	-59.67
944.271	18.21
944.441	38.17
944.61	28.87
944.779	33.91
944.948	133.88
945.117	12.98
945.287	37.59
945.456	-11.62
945.625	16.47
945.794	58.51
945.963	14.92
946.132	30.22
946.301	3.49
946.47	64.52
946.639	-42.43
946.808	3.1
946.977	59.09
947.146	82.54
947.315	37.01
947.484	66.46
947.653	16.86
947.822	15.89
947.991	-12.79
948.16	106.17
948.329	85.83
948.498	23.44
948.666	34.1
948.835	84.47
949.004	7.56
949.173	-5.23
949.341	37.97
949.51	37.97
949.679	73.82
949.847	47.08
950.016	101.91
950.185	63.55
950.353	10.66
950.522	-0.39
950.69	68.97
950.859	16.86
951.028	50.96
951.196	45.34
951.365	1.74
951.533	42.04
951.701	78.86
951.87	49.41
952.038	5.23
952.207	30.03
952.375	91.45
952.543	14.92
952.712	38.75
952.88	5.23
953.048	96.49
953.217	19.18
953.385	22.86
953.553	90.48
953.721	5.81
953.89	34.29
954.058	0.39
954.226	4.26
954.394	22.09
954.562	-15.11
954.73	38.56
954.898	18.99
955.067	48.44
955.235	14.34
955.403	69.94
955.571	120.9
955.739	51.15
955.907	29.45
956.075	19.96
956.243	-6.97
956.41	49.41
956.578	-11.43
956.746	-16.47
956.914	10.66
957.082	50.57
957.25	49.02
957.418	15.69
957.585	43.21
957.753	65.29
957.921	10.07
958.089	54.06
958.256	44.95
958.424	61.03
958.592	51.54
958.759	13.17
958.927	74.21
959.095	14.92
959.262	41.07
959.43	5.42
959.597	11.82
959.765	20.73
959.932	-11.24
960.1	85.06
960.267	46.5
960.435	9.11
960.602	55.8
960.77	-14.34
960.937	1.16
961.104	47.66
961.272	-53.47
961.439	3.49
961.606	35.84
961.774	70.14
961.941	28.87
962.108	44.76
962.275	39.33
962.443	66.26
962.61	59.67
962.777	81.57
962.944	50.37
963.111	58.32
963.278	85.25
963.446	22.67
963.613	63.94
963.78	67.81
963.947	55.61
964.114	25.38
964.281	116.44
964.448	66.65
964.615	26.16
964.782	56.96
964.949	79.05
965.116	43.4
965.282	64.91
965.449	30.61
965.616	17.63
965.783	98.04
965.95	66.84
966.117	21.89
966.283	49.79
966.45	41.07
966.617	58.9
966.784	66.07
966.95	74.59
967.117	73.04
967.284	38.17
967.45	29.84
967.617	80.6
967.784	48.24
967.95	109.08
968.117	44.37
968.283	81.76
968.45	132.72
968.616	67.81
968.783	76.92
968.949	65.68
969.116	79.05
969.282	34.29
969.449	66.07
969.615	45.92
969.781	28.29
969.948	45.92
970.114	3.68
970.28	96.68
970.447	72.46
970.613	113.73
970.779	43.59
970.945	74.01
971.112	67.62
971.278	70.33
971.444	59.29
971.61	84.67
971.776	19.18
971.942	47.08
972.108	79.05
972.275	25.38
972.441	50.57
972.607	118.19
972.773	10.07
972.939	75.17
973.105	57.35
973.271	18.79
973.437	54.83
973.602	35.65
973.768	67.81
973.934	61.81
974.1	81.96
974.266	-24.02
974.432	36.42
974.598	24.41
974.763	55.8
974.929	16.27
975.095	120.9
975.261	31.39
975.426	25.57
975.592	19.57
975.758	102.49
975.923	-13.95
976.089	44.17
976.255	55.41
976.42	44.76
976.586	49.79
976.751	87.57
976.917	141.24
977.082	56.38
977.248	1.94
977.413	-14.92
977.579	39.14
977.744	67.62
977.91	17.05
978.075	36.23
978.24	35.07
978.406	32.55
978.571	15.11
978.736	34.49
978.902	67.81
979.067	3.1
979.232	-13.37
979.397	59.48
979.563	79.44
979.728	12.21
979.893	64.52
980.058	2.13
980.223	50.96
980.388	55.8
980.554	29.84
980.719	4.65
980.884	35.26
981.049	82.15
981.214	38.56
981.379	57.93
981.544	11.43
981.709	39.72
981.874	25.19
982.039	44.95
982.204	67.23
982.368	42.43
982.533	-0.39
982.698	94.55
982.863	79.24
983.028	39.33
983.193	66.26
983.357	42.62
983.522	44.56
983.687	24.22
983.852	40.69
984.016	37.78
984.181	53.28
984.346	58.32
984.51	55.02
984.675	46.89
984.839	40.49
985.004	50.18
985.168	81.57
985.333	51.92
985.498	38.94
985.662	63.36
985.827	59.67
985.991	48.63
986.155	43.01
986.32	68.78
986.484	89.9
986.649	47.08
986.813	-10.07
986.977	35.46
987.142	54.44
987.306	-6.78
987.47	28.29
987.634	41.66
987.799	28.29
987.963	37.78
988.127	69.94
988.291	105.98
988.455	33.71
988.62	24.99
988.784	64.52
988.948	51.73
989.112	49.21
989.276	40.69
989.44	50.37
989.604	29.06
989.768	27.32
989.932	116.05
990.096	27.32
990.26	23.06
990.424	-4.46
990.588	25.38
990.752	92.61
990.915	62.58
991.079	41.27
991.243	-1.55
991.407	43.21
991.571	12.59
991.734	68.97
991.898	50.57
992.062	104.04
992.226	43.01
992.389	1.94
992.553	-8.72
992.717	28.48
992.88	16.08
993.044	22.28
993.207	47.66
993.371	41.66
993.535	49.79
993.698	21.51
993.862	86.41
994.025	130.2
994.189	32.16
994.352	44.37
994.515	62.77
994.679	65.49
994.842	39.52
995.006	72.46
995.169	5.42
995.332	-2.32
995.496	79.05
995.659	3.1
995.822	8.52
995.985	52.12
996.149	94.55
996.312	52.51
996.475	108.69
996.638	34.1
996.801	95.9
996.964	110.44
997.128	11.24
997.291	40.11
997.454	38.56
997.617	-14.14
997.78	85.44
997.943	6.39
998.106	66.26
998.269	1.16
998.432	18.41
998.595	40.69
998.758	-34.49
998.92	-17.05
999.083	-26.74
999.246	33.32
999.409	-5.04
999.572	-10.27
999.735	18.6
999.897	45.92
1000.06	-0.39
1000.223	22.86
1000.386	74.4
1000.548	42.43
1000.711	57.74
1000.874	10.85
1001.036	-9.88
1001.199	66.07
1001.361	16.66
1001.524	25.96
1001.687	42.82
1001.849	12.98
1002.012	17.82
1002.174	37.97
1002.337	25.57
1002.499	7.94
1002.661	67.81
1002.824	-11.24
1002.986	-0.77
1003.149	15.69
1003.311	-5.04
1003.473	94.74
1003.636	12.98
1003.798	49.21
1003.96	18.02
1004.123	26.54
1004.285	20.92
1004.447	42.24
1004.609	22.86
1004.771	58.32
1004.933	-20.92
1005.096	21.12
1005.258	-3.49
1005.42	4.07
1005.582	56.57
1005.744	35.07
1005.906	-5.23
1006.068	19.18
1006.23	-13.17
1006.392	-23.64
1006.554	-12.59
1006.716	20.34
1006.878	26.35
1007.04	-14.92
1007.202	0.77
1007.363	13.95
1007.525	22.09
1007.687	53.09
1007.849	70.14
1008.011	-30.81
1008.172	-20.34
1008.334	-0.58
1008.496	24.41
1008.658	-34.29
1008.819	-15.69
1008.981	-7.17
1009.143	-31.58
1009.304	10.66
1009.466	37.97
1009.627	47.47
1009.789	105.59
1009.95	24.99
1010.112	8.14
1010.273	22.67
1010.435	-4.26
1010.596	30.61
1010.758	5.62
1010.919	9.3
1011.081	-28.48
1011.242	-1.55
1011.403	27.9
1011.565	3.68
1011.726	30.03
1011.887	-31.58
1012.049	33.52
1012.21	26.74
1012.371	45.34
1012.532	-68.39
1012.693	8.91
1012.855	3.87
1013.016	23.06
1013.177	31
1013.338	3.49
1013.499	71.11
1013.66	43.59
1013.821	34.1
1013.982	14.92
1014.143	8.91
1014.304	-13.17
1014.465	49.21
1014.626	29.26
1014.787	-1.74
1014.948	96.1
1015.109	-82.54
1015.27	50.57
1015.431	-16.47
1015.592	-3.49
1015.752	56.38
1015.913	9.88
1016.074	35.26
1016.235	12.4
1016.395	6.2
1016.556	24.41
1016.717	-16.27
1016.877	56.57
1017.038	-27.51
1017.199	3.29
1017.359	22.86
1017.52	21.7
1017.681	5.62
1017.841	-30.61
1018.002	-1.74
1018.162	0.97
1018.323	49.02
1018.483	0.77
1018.644	-18.02
1018.804	-37.97
1018.964	-27.32
1019.125	-15.89
1019.285	40.69
1019.446	-12.01
1019.606	-27.9
1019.766	-51.73
1019.926	25.38
1020.087	27.51
1020.247	-22.47
1020.407	13.56
1020.567	48.44
1020.728	16.08
1020.888	-42.62
1021.048	18.6
1021.208	-27.9
1021.368	1.16
1021.528	50.57
1021.688	50.76
1021.848	34.29
1022.008	17.63
1022.168	-6.2
1022.328	24.61
1022.488	9.49
1022.648	-0.19
1022.808	11.24
1022.968	28.48
1023.128	3.49
1023.288	-11.43
1023.448	5.62
1023.608	2.71
1023.767	9.11
1023.927	-3.68
1024.087	-31.77
1024.247	-24.61
1024.406	-12.4
1024.566	-29.84
1024.726	-12.98
1024.885	2.32
1025.045	38.94
1025.205	-14.72
1025.364	-5.62
1025.524	18.6
1025.683	-8.14
1025.843	16.27
1026.003	0
1026.162	54.06
1026.321	23.06
1026.481	23.25
1026.64	-2.13
1026.8	-4.07
1026.959	-6.59
1027.119	8.91
1027.278	-17.05
1027.437	-35.26
1027.597	10.85
1027.756	18.99
1027.915	41.27
1028.074	19.37
1028.234	-27.9
1028.393	33.32
1028.552	-8.72
1028.711	-55.61
1028.87	45.53
1029.03	-42.43
1029.189	-2.32
1029.348	-60.26
1029.507	-26.74
1029.666	-35.84
1029.825	-28.48
1029.984	-21.31
1030.143	10.07
1030.302	-27.51
1030.461	-55.8
1030.62	-3.68
1030.779	7.56
1030.938	-24.8
1031.097	-56.96
1031.255	23.64
1031.414	62.97
1031.573	35.65
1031.732	-55.02
1031.891	-11.04
1032.049	53.67
1032.208	19.96
1032.367	-2.52
1032.525	-11.24
1032.684	-20.73
1032.843	-12.01
1033.001	-35.46
1033.16	173.79
1033.319	45.34
1033.477	-7.75
1033.636	-18.02
1033.794	-49.41
1033.953	12.4
1034.111	9.49
1034.27	-12.21
1034.428	2.71
1034.587	-46.31
1034.745	-11.43
1034.903	-4.84
1035.062	35.65
1035.22	-42.62
1035.378	15.11
1035.537	-33.13
1035.695	16.47
1035.853	-22.47
1036.011	-9.11
1036.17	2.71
1036.328	-54.06
1036.486	2.52
1036.644	6.2
1036.802	-105.79
1036.96	-30.42
1037.119	-13.17
1037.277	-26.54
1037.435	-45.72
1037.593	-36.42
1037.751	-15.89
1037.909	17.05
1038.067	17.05
