Data from pine_FLMT105791__163__17-23-17-073.txt Node

Date: Mon Mar 20 17:23:17 GMT 2023
User: antho
Spectrometer: FLMT10579
Trigger mode: 0
Integration Time (sec): 1.000000E-1
Scans to average: 10
Electric dark correction enabled: true
Nonlinearity correction enabled: false
Boxcar width: 0
XAxis mode: Wavelengths
Number of Pixels in Spectrum: 3648
>>>>>Begin Spectral Data<<<<<
345.248	-137.61
345.464	-137.61
345.681	-137.61
345.898	-157.56
346.114	-153.88
346.331	-23.1
346.548	8.09
346.764	-7.8
346.981	-14.97
347.197	-15.74
347.414	21.07
347.631	-6.83
347.847	49.94
348.064	-12.06
348.28	30.18
348.497	-22.52
348.713	-6.25
348.93	38.7
349.146	24.17
349.363	20.3
349.579	24.94
349.796	-1.02
350.012	-5.47
350.229	23.01
350.445	3.25
350.661	-4.5
350.878	10.22
351.094	20.1
351.311	27.85
351.527	17.97
351.743	-8.77
351.96	30.56
352.176	38.31
352.392	14.87
352.609	25.14
352.825	-6.25
353.041	8.48
353.257	-9.54
353.474	16.03
353.69	-11.87
353.906	11.58
354.122	-26.4
354.339	29.01
354.555	5.96
354.771	1.11
354.987	37.34
355.203	42.38
355.42	-7.02
355.636	-13.42
355.852	-33.76
356.068	7.7
356.284	-9.15
356.5	63.5
356.716	14.87
356.932	7.7
357.148	57.11
357.364	-13.8
357.58	56.33
357.796	53.43
358.012	45.68
358.228	9.25
358.444	-46.16
358.66	50.33
358.876	22.81
359.092	5.38
359.308	-15.55
359.524	35.41
359.74	5.76
359.956	0.15
360.172	28.04
360.388	76.48
360.604	-20.59
360.819	70.67
361.035	-1.4
361.251	30.76
361.467	4.21
361.683	41.03
361.898	11.19
362.114	37.34
362.33	11.19
362.546	52.26
362.762	12.35
362.977	30.95
363.193	-19.62
363.409	36.18
363.624	-13.03
363.84	-5.28
364.056	-21.55
364.271	43.74
364.487	38.89
364.703	-0.82
364.918	-10.7
365.134	15.45
365.35	14.68
365.565	106.32
365.781	17.58
365.996	53.43
366.212	79
366.427	31.73
366.643	-1.6
366.858	-2.37
367.074	-13.42
367.289	43.16
367.505	84.43
367.72	-29.3
367.936	29.01
368.151	44.51
368.367	33.66
368.582	26.49
368.798	-5.67
369.013	52.26
369.228	26.49
369.444	3.44
369.659	76.29
369.874	47.61
370.09	76.48
370.305	-27.75
370.52	-24.46
370.736	51.68
370.951	3.83
371.166	56.14
371.381	81.91
371.597	62.92
371.812	-11.29
372.027	-29.89
372.242	17.58
372.458	90.82
372.673	-0.05
372.888	0.53
373.103	24.75
373.318	92.56
373.533	46.84
373.749	26.11
373.964	-17.68
374.179	50.71
374.394	22.23
374.609	50.33
374.824	-19.81
375.039	46.45
375.254	17.2
375.469	81.91
375.684	7.31
375.899	73.38
376.114	39.28
376.329	22.81
376.544	36.18
376.759	62.34
376.974	-4.89
377.189	-5.47
377.404	30.76
377.619	46.64
377.834	-32.99
378.049	-1.4
378.264	-42.29
378.478	24.36
378.693	-20.59
378.908	45.48
379.123	-19.23
379.338	75.13
379.553	36.57
379.767	46.45
379.982	40.25
380.197	27.85
380.412	6.73
380.626	34.63
380.841	90.82
381.056	48.58
381.271	84.62
381.485	4.21
381.7	12.74
381.915	27.46
382.129	1.11
382.344	36.18
382.559	24.56
382.773	48.58
382.988	-31.05
383.202	29.59
383.417	-7.41
383.632	101.09
383.846	25.91
384.061	37.34
384.275	7.51
384.49	42.19
384.704	53.62
384.919	50.33
385.133	20.88
385.348	29.4
385.562	-12.06
385.777	43.93
385.991	1.7
386.206	20.88
386.42	-2.76
386.634	68.15
386.849	27.27
387.063	21.26
387.277	-21.36
387.492	1.5
387.706	-0.82
387.92	-9.93
388.135	41.8
388.349	25.72
388.563	37.15
388.778	25.53
388.992	64.66
389.206	47.03
389.42	71.06
389.635	25.91
389.849	53.23
390.063	48.39
390.277	24.94
390.491	79
390.706	39.48
390.92	51.68
391.134	17
391.348	66.6
391.562	-32.21
391.776	10.22
391.99	-20.78
392.205	61.95
392.419	3.25
392.633	22.81
392.847	68.73
393.061	0.34
393.275	91.4
393.489	34.24
393.703	37.54
393.917	51.49
394.131	-0.82
394.345	40.06
394.559	85.78
394.773	-10.12
394.986	42.58
395.2	38.7
395.414	58.66
395.628	-0.24
395.842	31.14
396.056	13.71
396.27	-31.44
396.484	32.11
396.697	33.28
396.911	71.06
397.125	59.04
397.339	59.24
397.553	53.81
397.766	104.19
397.98	28.82
398.194	72.61
398.408	35.41
398.621	43.16
398.835	37.93
399.049	50.33
399.262	51.49
399.476	85.78
399.69	58.85
399.903	84.81
400.117	-5.86
400.331	39.86
400.544	10.03
400.758	135.77
400.971	72.41
401.185	55.75
401.398	-14
401.612	51.49
401.826	48
402.039	36.57
402.253	5.38
402.466	62.73
402.68	15.84
402.893	23.59
403.106	47.61
403.32	13.32
403.533	41.03
403.747	58.08
403.96	62.34
404.174	66.6
404.387	-6.05
404.6	30.76
404.814	43.35
405.027	45.09
405.24	47.42
405.454	31.73
405.667	96.63
405.88	-42.87
406.094	45.68
406.307	83.07
406.52	37.73
406.733	17.39
406.947	4.02
407.16	107.48
407.373	64.28
407.586	-15.35
407.799	-16.9
408.012	61.18
408.226	47.42
408.439	103.61
408.652	-13.61
408.865	21.46
409.078	63.5
409.291	52.65
409.504	3.63
409.717	58.66
409.93	43.93
410.143	47.42
410.357	-8.38
410.57	2.47
410.783	23.01
410.996	26.49
411.209	18.75
411.421	83.07
411.634	4.02
411.847	13.32
412.06	47.03
412.273	42.77
412.486	50.13
412.699	134.22
412.912	14.48
413.125	52.46
413.338	38.89
413.55	57.88
413.763	39.48
413.976	66.79
414.189	19.91
414.402	19.33
414.615	80.16
414.827	-0.24
415.04	63.69
415.253	55.17
415.466	95.47
415.678	89.66
415.891	36.57
416.104	41.22
416.316	24.56
416.529	6.35
416.742	52.07
416.954	80.36
417.167	38.51
417.38	29.59
417.592	86.17
417.805	28.04
418.017	-28.53
418.23	66.02
418.442	13.13
418.655	10.22
418.868	37.34
419.08	107.48
419.293	66.6
419.505	76.87
419.718	60.79
419.93	92.18
420.142	29.59
420.355	60.21
420.567	71.06
420.78	72.22
420.992	18.75
421.205	94.31
421.417	-23.49
421.629	-7.99
421.842	-18.07
422.054	17.97
422.266	55.56
422.479	65.24
422.691	15.26
422.903	90.43
423.115	14.68
423.328	26.11
423.54	59.04
423.752	32.11
423.964	9.64
424.177	42.38
424.389	-2.37
424.601	126.86
424.813	35.02
425.025	85.2
425.238	72.41
425.45	23.39
425.662	43.16
425.874	311.69
426.086	40.83
426.298	50.91
426.51	59.43
426.722	45.09
426.934	19.52
427.146	82.68
427.358	9.06
427.57	88.11
427.782	47.61
427.994	46.64
428.206	21.46
428.418	7.9
428.63	61.18
428.842	81.52
429.054	50.91
429.266	84.04
429.478	35.41
429.69	62.92
429.902	-10.9
430.114	78.03
430.325	66.6
430.537	40.25
430.749	58.66
430.961	5.96
431.173	42.77
431.384	63.69
431.596	-18.45
431.808	41.22
432.02	52.84
432.231	64.86
432.443	86.36
432.655	49.36
432.867	10.61
433.078	50.33
433.29	116.2
433.502	66.02
433.713	100.12
433.925	71.44
434.136	97.79
434.348	-9.15
434.56	-18.07
434.771	127.24
434.983	8.09
435.194	30.37
435.406	51.68
435.617	97.6
435.829	115.42
436.04	88.88
436.252	90.04
436.463	113.68
436.675	95.47
436.886	67.18
437.098	86.75
437.309	102.83
437.521	71.44
437.732	76.09
437.943	58.08
438.155	84.62
438.366	-9.35
438.578	117.75
438.789	75.32
439	101.28
439.211	78.42
439.423	88.88
439.634	81.33
439.845	79.58
440.057	78.42
440.268	90.04
440.479	15.84
440.69	76.48
440.902	50.33
441.113	88.3
441.324	77.64
441.535	82.29
441.746	126.27
441.957	31.92
442.168	60.98
442.38	97.99
442.591	95.28
442.802	20.68
443.013	74.74
443.224	81.52
443.435	60.21
443.646	56.91
443.857	57.3
444.068	63.69
444.279	49.94
444.49	158.63
444.701	97.41
444.912	177.04
445.123	105.74
445.334	91.98
445.545	105.74
445.756	96.63
445.967	65.24
446.178	86.75
446.388	130.73
446.599	138.48
446.81	101.67
447.021	66.02
447.232	135.19
447.443	151.66
447.653	49.74
447.864	128.99
448.075	93.14
448.286	99.73
448.496	91.01
448.707	137.32
448.918	75.32
449.129	148.36
449.339	55.17
449.55	72.61
449.761	92.56
449.971	144.68
450.182	73.38
450.393	98.76
450.603	98.96
450.814	122.59
451.024	102.83
451.235	106.71
451.446	154.17
451.656	166.38
451.867	70.09
452.077	117.17
452.288	147.78
452.498	167.93
452.709	103.22
452.919	124.14
453.13	90.04
453.34	131.12
453.55	77.64
453.761	152.82
453.971	106.71
454.182	150.11
454.392	164.06
454.602	191.18
454.813	132.28
455.023	153.98
455.233	97.41
455.444	107.09
455.654	53.04
455.864	92.37
456.075	102.64
456.285	78.42
456.495	67.38
456.705	135.96
456.916	185.37
457.126	178.97
457.336	121.43
457.546	57.88
457.756	95.47
457.967	161.34
458.177	109.03
458.387	138.09
458.597	76.48
458.807	117.94
459.017	117.94
459.227	111.36
459.437	114.84
459.647	162.89
459.857	145.46
460.068	100.12
460.278	142.16
460.488	163.28
460.698	196.41
460.908	126.27
461.117	74.74
461.327	84.62
461.537	122.59
461.747	129.18
461.957	148.36
462.167	238.45
462.377	161.92
462.587	133.44
462.797	155.53
463.007	104.77
463.216	130.34
463.426	192.34
463.636	167.93
463.846	115.23
464.056	114.46
464.265	158.24
464.475	128.02
464.685	148.56
464.895	172.39
465.104	142.74
465.314	177.42
465.524	137.71
465.733	113.87
465.943	224.7
466.153	196.8
466.362	168.9
466.572	171.61
466.782	134.99
466.991	117.75
467.201	196.8
467.41	100.89
467.62	136.74
467.829	128.02
468.039	149.72
468.249	153.59
468.458	134.61
468.668	136.16
468.877	179.94
469.086	199.7
469.296	184.98
469.505	133.25
469.715	205.13
469.924	177.42
470.134	208.42
470.343	204.55
470.552	157.47
470.762	161.92
470.971	109.03
471.18	174.13
471.39	128.21
471.599	148.56
471.808	192.34
472.018	127.63
472.227	200.87
472.436	174.32
472.645	140.42
472.855	144.49
473.064	211.72
473.273	196.61
473.482	164.06
473.691	212.49
473.901	210.17
474.11	156.11
474.319	255.89
474.528	158.82
474.737	211.33
474.946	169.67
475.155	167.74
475.364	207.84
475.573	194.47
475.783	173.36
475.992	209.39
476.201	227.22
476.41	171.42
476.619	145.26
476.828	176.07
477.037	183.62
477.245	183.82
477.454	203.39
477.663	165.8
477.872	175.68
478.081	251.44
478.29	159.79
478.499	260.15
478.708	217.72
478.917	225.67
479.125	208.04
479.334	199.9
479.543	188.66
479.752	213.27
479.961	205.52
480.169	235.74
480.378	185.95
480.587	294.25
480.796	235.16
481.004	203.97
481.213	208.81
481.422	216.37
481.63	222.37
481.839	235.16
482.048	263.45
482.256	233.42
482.465	219.08
482.674	265.19
482.882	249.89
483.091	275.27
483.299	252.4
483.508	242.72
483.716	244.85
483.925	253.18
484.134	208.04
484.342	214.24
484.551	258.41
484.759	240.59
484.967	235.55
485.176	263.25
485.384	253.37
485.593	262.67
485.801	256.86
486.01	244.85
486.218	247.95
486.426	214.43
486.635	251.82
486.843	218.5
487.051	240.97
487.26	220.05
487.468	265.77
487.676	267.9
487.885	217.92
488.093	251.05
488.301	241.75
488.509	273.33
488.717	280.89
488.926	229.15
489.134	236.32
489.342	255.5
489.55	217.92
489.758	240.59
489.967	200.87
490.175	338.43
490.383	235.16
490.591	308.59
490.799	220.24
491.007	297.93
491.215	271
491.423	241.55
491.631	256.86
491.839	257.05
492.047	295.03
492.255	245.24
492.463	232.06
492.671	254.34
492.879	303.36
493.087	259.77
493.295	291.15
493.503	288.63
493.711	270.42
493.919	321.96
494.127	312.85
494.334	323.32
494.542	223.34
494.75	262.48
494.958	262.09
495.166	308.2
495.374	292.7
495.581	282.24
495.789	288.44
495.997	320.22
496.205	276.82
496.412	273.72
496.62	278.75
496.828	292.7
497.035	292.51
497.243	325.25
497.451	278.37
497.658	282.05
497.866	279.14
498.074	323.7
498.281	293.67
498.489	359.16
498.696	319.63
498.904	304.91
499.112	293.28
499.319	365.55
499.527	288.05
499.734	334.17
499.942	277.2
500.149	276.43
500.357	296.19
500.564	258.22
500.771	316.73
500.979	258.22
501.186	292.32
501.394	310.14
501.601	330.1
501.808	333.39
502.016	323.7
502.223	288.05
502.43	329.52
502.638	291.15
502.845	289.22
503.052	380.47
503.26	292.9
503.467	359.74
503.674	310.92
503.881	333.2
504.089	388.22
504.296	353.73
504.503	285.34
504.71	325.25
504.917	284.95
505.125	333.78
505.332	317.12
505.539	339.2
505.746	377.95
505.953	342.69
506.16	331.26
506.367	367.1
506.574	363.62
506.781	388.61
506.988	307.04
507.195	337.27
507.402	330.68
507.609	351.8
507.816	330.1
508.023	314.79
508.23	306.85
508.437	301.23
508.644	340.56
508.851	402.95
509.058	339.78
509.265	342.5
509.472	354.9
509.679	447.7
509.885	343.85
510.092	364.78
510.299	342.69
510.506	358.19
510.713	357.22
510.92	362.45
511.126	373.69
511.333	369.43
511.54	376.01
511.746	414.38
511.953	403.72
512.16	434.33
512.367	358
512.573	363.23
512.78	379.89
512.987	354.51
513.193	370.4
513.4	333
513.606	353.35
513.813	379.11
514.02	362.07
514.226	414.18
514.433	432.01
514.639	349.86
514.846	362.84
515.052	349.67
515.259	372.33
515.465	351.22
515.672	374.85
515.878	449.83
516.085	358.19
516.291	406.63
516.497	382.8
516.704	366.91
516.91	324.67
517.117	338.62
517.323	308.4
517.529	371.37
517.736	353.35
517.942	363.23
518.148	318.67
518.354	343.27
518.561	380.66
518.767	388.8
518.973	407.21
519.179	407.21
519.386	362.65
519.592	350.63
519.798	365.55
520.004	439.18
520.21	360.9
520.417	387.25
520.623	438.79
520.829	448.86
521.035	409.73
521.241	412.63
521.447	406.82
521.653	497.69
521.859	378.34
522.065	428.91
522.271	474.83
522.477	457.2
522.683	471.73
522.889	464.36
523.095	427.94
523.301	417.09
523.507	408.56
523.713	431.62
523.919	406.43
524.125	446.54
524.331	378.92
524.537	493.62
524.742	470.76
524.948	467.46
525.154	453.51
525.36	554.26
525.566	460.49
525.772	492.46
525.977	413.41
526.183	476.76
526.389	513.38
526.595	434.14
526.8	450.03
527.006	420.38
527.212	426.58
527.417	400.04
527.623	389
527.829	483.35
528.034	457.78
528.24	475.41
528.446	417.28
528.651	489.94
528.857	500.4
529.062	541.86
529.268	495.17
529.473	450.22
529.679	445.96
529.884	488.97
530.09	473.28
530.295	524.23
530.501	516.48
530.706	480.64
530.912	466.3
531.117	483.93
531.323	478.31
531.528	461.26
531.733	489.36
531.939	463.98
532.144	494.98
532.35	503.31
532.555	527.53
532.76	534.89
532.966	542.06
533.171	507.38
533.376	495.56
533.581	479.67
533.787	499.04
533.992	482.77
534.197	546.32
534.402	477.54
534.607	520.74
534.813	622.07
535.018	504.28
535.223	482.19
535.428	521.91
535.633	549.61
535.838	524.43
536.043	494.98
536.249	594.17
536.454	497.69
536.659	543.41
536.864	501.18
537.069	508.15
537.274	527.91
537.479	537.6
537.684	536.05
537.889	497.88
538.094	606.19
538.299	531.21
538.504	548.06
538.708	524.04
538.913	543.61
539.118	546.9
539.323	538.57
539.528	517.84
539.733	515.32
539.938	552.13
540.142	572.09
540.347	525.2
540.552	519.97
540.757	538.38
540.962	527.14
541.166	508.15
541.371	496.91
541.576	531.01
541.781	421.74
541.985	516.29
542.19	531.4
542.395	593.59
542.599	587.97
542.804	566.86
543.008	611.03
543.213	531.79
543.418	539.54
543.622	572.09
543.827	513.38
544.031	591.27
544.236	604.44
544.44	534.89
544.645	632.54
544.849	564.14
545.054	594.17
545.258	612.39
545.463	593.79
545.667	538.96
545.872	563.95
546.076	568.99
546.281	583.71
546.485	521.71
546.689	571.7
546.894	553.29
547.098	540.31
547.302	533.53
547.507	588.75
547.711	593.01
547.915	608.71
548.119	528.49
548.324	579.26
548.528	619.56
548.732	547.09
548.936	603.67
549.141	584.29
549.345	563.17
549.549	560.46
549.753	550
549.957	658.69
550.161	631.18
550.366	523.65
550.57	529.85
550.774	538.18
550.978	534.89
551.182	575.96
551.386	550.19
551.59	541.48
551.794	547.48
551.998	587.01
552.202	541.86
552.406	490.71
552.61	570.34
552.814	560.27
553.018	644.94
553.222	547.29
553.426	548.45
553.63	650.36
553.833	562.21
554.037	533.14
554.241	576.93
554.445	569.57
554.649	575.38
554.853	543.41
555.056	616.84
555.26	603.47
555.464	587.97
555.668	567.44
555.871	617.04
556.075	602.7
556.279	562.98
556.483	542.25
556.686	578.67
556.89	555.62
557.094	588.36
557.297	508.34
557.501	622.46
557.704	523.84
557.908	600.18
558.112	523.65
558.315	602.51
558.519	522.68
558.722	597.08
558.926	551.94
559.129	524.04
559.333	480.44
559.536	527.91
559.74	551.36
559.943	525.98
560.147	495.94
560.35	537.99
560.553	539.15
560.757	462.62
560.96	597.66
561.164	531.79
561.367	612
561.57	517.45
561.774	552.13
561.977	538.18
562.18	521.13
562.384	618.97
562.587	539.15
562.79	529.85
562.993	508.15
563.197	539.73
563.4	592.43
563.603	599.79
563.806	632.92
564.009	531.4
564.212	555.62
564.416	521.52
564.619	531.21
564.822	484.71
565.025	581
565.228	546.9
565.431	531.4
565.634	456.23
565.837	566.86
566.04	520.94
566.243	507.18
566.446	423.48
566.649	590.49
566.852	500.98
567.055	538.18
567.258	557.94
567.461	582.16
567.664	582.74
567.867	457.58
568.07	540.89
568.273	540.51
568.475	601.73
568.678	519.39
568.881	529.27
569.084	533.92
569.287	457
569.489	467.66
569.692	545.54
569.895	532.76
570.098	476.38
570.3	489.74
570.503	445.38
570.706	446.73
570.909	481.8
571.111	478.12
571.314	439.95
571.516	459.71
571.719	494.2
571.922	469.59
572.124	450.41
572.327	496.14
572.529	441.31
572.732	439.56
572.935	503.89
573.137	554.84
573.34	438.01
573.542	505.44
573.745	498.08
573.947	482.19
574.15	476.76
574.352	445.18
574.554	498.27
574.757	421.74
574.959	453.32
575.162	456.81
575.364	446.73
575.566	547.87
575.769	444.41
575.971	475.99
576.173	380.08
576.376	439.37
576.578	518.23
576.78	506.6
576.982	419.8
577.185	445.76
577.387	444.21
577.589	432.59
577.791	489.16
577.993	493.04
578.196	449.83
578.398	482.96
578.6	504.28
578.802	417.28
579.004	445.57
579.206	410.89
579.408	424.45
579.61	442.28
579.812	492.84
580.014	447.31
580.216	457
580.418	442.08
580.62	426.78
580.822	358.97
581.024	434.91
581.226	482.38
581.428	439.37
581.63	506.6
581.832	417.09
582.034	481.8
582.236	452.74
582.438	476.38
582.64	494.78
582.841	498.08
583.043	516.68
583.245	463.2
583.447	488.19
583.649	422.13
583.85	481.61
584.052	514.16
584.254	419.61
584.456	502.73
584.657	426
584.859	441.89
585.061	466.3
585.262	423.68
585.464	415.73
585.666	466.49
585.867	428.13
586.069	506.6
586.27	477.73
586.472	446.73
586.674	433.36
586.875	444.6
587.077	429.68
587.278	453.13
587.48	432.2
587.681	530.43
587.883	432.4
588.084	386.48
588.285	419.61
588.487	477.93
588.688	456.81
588.89	410.7
589.091	396.36
589.292	421.93
589.494	426
589.695	402.75
589.896	361.48
590.098	360.71
590.299	415.35
590.5	373.88
590.702	374.85
590.903	380.66
591.104	455.06
591.305	423.87
591.507	474.44
591.708	407.4
591.909	410.89
592.11	453.51
592.311	438.21
592.512	439.18
592.714	391.51
592.915	369.62
593.116	406.43
593.317	403.14
593.518	404.11
593.719	393.06
593.92	445.96
594.121	445.96
594.322	435.69
594.523	419.22
594.724	368.46
594.925	451.96
595.126	407.21
595.327	456.42
595.528	413.8
595.729	424.26
595.929	415.93
596.13	440.73
596.331	443.25
596.532	445.76
596.733	473.08
596.934	460.88
597.135	448.09
597.335	444.99
597.536	378.15
597.737	435.69
597.938	389.58
598.138	459.52
598.339	385.9
598.54	415.15
598.74	425.23
598.941	436.85
599.142	486.45
599.342	440.73
599.543	400.81
599.744	427.16
599.944	424.65
600.145	403.14
600.345	437.43
600.546	496.33
600.746	474.83
600.947	491.49
601.147	452.55
601.348	454.1
601.548	402.75
601.749	444.02
601.949	415.35
602.15	404.69
602.35	427.94
602.551	472.89
602.751	396.36
602.951	399.65
603.152	343.27
603.352	449.45
603.552	428.33
603.753	445.76
603.953	432.2
604.153	415.54
604.354	422.32
604.554	393.45
604.754	406.05
604.954	360.52
605.155	458.16
605.355	413.02
605.555	452.74
605.755	456.42
605.955	417.48
606.155	436.85
606.356	420.58
606.556	445.38
606.756	449.45
606.956	377.37
607.156	478.12
607.356	371.37
607.556	426.97
607.756	402.36
607.956	452.74
608.156	433.56
608.356	426.97
608.556	455.45
608.756	456.03
608.956	407.4
609.156	430.46
609.356	384.73
609.556	398.1
609.755	430.26
609.955	388.03
610.155	417.28
610.355	440.92
610.555	396.55
610.755	414.57
610.954	349.67
611.154	433.56
611.354	424.26
611.554	417.28
611.753	393.26
611.953	346.57
612.153	436.66
612.352	441.5
612.552	355.09
612.752	364.2
612.951	427.94
613.151	388.03
613.351	356.06
613.55	384.35
613.75	412.83
613.949	414.76
614.149	415.35
614.348	416.9
614.548	382.02
614.747	380.47
614.947	403.53
615.146	325.25
615.346	430.07
615.545	409.92
615.745	379.89
615.944	437.82
616.144	407.79
616.343	419.61
616.542	379.11
616.742	397.52
616.941	382.99
617.14	360.52
617.34	390.35
617.539	376.79
617.738	376.79
617.938	436.66
618.137	371.75
618.336	347.15
618.535	393.45
618.734	346.37
618.934	387.83
619.133	412.44
619.332	392.48
619.531	347.92
619.73	363.62
619.929	434.33
620.128	415.93
620.328	420.19
620.527	361.87
620.726	351.8
620.925	383.18
621.124	350.63
621.323	395.58
621.522	326.42
621.721	352.18
621.92	319.83
622.119	395
622.318	356.45
622.517	362.07
622.715	342.5
622.914	318.08
623.113	357.22
623.312	305.1
623.511	391.13
623.71	351.6
623.909	332.23
624.107	396.55
624.306	335.72
624.505	321.18
624.704	331.45
624.902	357.42
625.101	416.12
625.3	358.77
625.499	316.73
625.697	335.33
625.896	335.13
626.095	384.15
626.293	302.97
626.492	326.8
626.69	368.27
626.889	329.13
627.088	368.85
627.286	320.22
627.485	341.33
627.683	324.67
627.882	371.17
628.08	278.17
628.279	356.25
628.477	413.6
628.676	320.6
628.874	359.16
629.073	329.9
629.271	338.43
629.469	358.58
629.668	340.95
629.866	342.3
630.065	342.88
630.263	358.58
630.461	321.38
630.66	318.86
630.858	378.53
631.056	377.56
631.254	372.33
631.453	306.46
631.651	364.39
631.849	333.2
632.047	352.38
632.245	312.66
632.444	339.59
632.642	377.76
632.84	358.38
633.038	336.68
633.236	327.77
633.434	305.88
633.632	295.42
633.83	311.11
634.028	325.45
634.227	341.14
634.425	380.47
634.623	315.37
634.821	339.2
635.019	333
635.216	317.7
635.414	335.72
635.612	334.55
635.81	325.64
636.008	398.1
636.206	317.89
636.404	349.08
636.602	290.57
636.8	340.17
636.997	362.26
637.195	376.01
637.393	336.3
637.591	400.81
637.789	340.95
637.986	318.08
638.184	380.66
638.382	380.47
638.58	377.95
638.777	389.58
638.975	353.54
639.173	339.59
639.37	363.03
639.568	351.22
639.765	369.04
639.963	326.03
640.161	386.28
640.358	383.38
640.556	297.35
640.753	280.11
640.951	313.43
641.148	372.72
641.346	320.6
641.543	321.96
641.741	350.44
641.938	319.63
642.136	338.62
642.333	298.13
642.531	358.58
642.728	372.14
642.925	347.15
643.123	332.23
643.32	343.66
643.517	310.14
643.715	321.96
643.912	311.69
644.109	349.67
644.306	330.1
644.504	287.86
644.701	336.88
644.898	345.4
645.095	316.73
645.293	314.6
645.49	329.71
645.687	359.55
645.884	371.37
646.081	287.47
646.278	306.85
646.475	307.04
646.672	317.89
646.87	346.37
647.067	361.87
647.264	351.8
647.461	289.22
647.658	309.95
647.855	332.03
648.052	312.27
648.249	266.16
648.446	291.54
648.642	270.23
648.839	291.73
649.036	291.15
649.233	273.14
649.43	259.19
649.627	261.9
649.824	284.37
650.021	271.59
650.217	289.8
650.414	284.18
650.611	297.35
650.808	316.73
651.004	300.65
651.201	350.44
651.398	348.31
651.595	310.72
651.791	278.95
651.988	335.33
652.185	308.2
652.381	321.57
652.578	257.44
652.775	279.72
652.971	278.17
653.168	277.59
653.364	317.89
653.561	248.72
653.757	298.9
653.954	302.97
654.15	297.35
654.347	351.6
654.543	288.83
654.74	254.54
654.936	239.42
655.133	279.72
655.329	293.67
655.525	289.6
655.722	316.53
655.918	264.8
656.115	328.16
656.311	256.86
656.507	225.09
656.704	218.3
656.9	244.27
657.096	228.57
657.292	229.15
657.489	290.77
657.685	254.54
657.881	248.92
658.077	258.22
658.273	249.89
658.47	322.35
658.666	254.73
658.862	256.47
659.058	260.35
659.254	290.18
659.45	256.09
659.646	304.72
659.842	297.16
660.038	308.98
660.234	259.96
660.43	283.99
660.626	328.35
660.822	318.47
661.018	307.23
661.214	282.05
661.41	216.37
661.606	314.02
661.802	277.59
661.998	276.82
662.194	238.07
662.39	293.48
662.586	319.05
662.781	324.67
662.977	324.48
663.173	301.23
663.369	301.62
663.564	259.19
663.76	319.83
663.956	268.87
664.152	317.5
664.347	244.85
664.543	273.52
664.739	281.08
664.934	242.33
665.13	209.78
665.326	311.3
665.521	281.27
665.717	218.11
665.912	239.81
666.108	196.41
666.304	235.35
666.499	243.88
666.695	215.2
666.89	267.9
667.086	279.34
667.281	287.67
667.477	325.64
667.672	266.55
667.867	289.8
668.063	283.79
668.258	259.19
668.454	261.51
668.649	333.58
668.844	283.79
669.04	282.63
669.235	288.25
669.43	235.16
669.626	236.52
669.821	279.34
670.016	235.94
670.211	232.84
670.407	245.04
670.602	256.86
670.797	251.05
670.992	277.79
671.187	221.79
671.382	289.02
671.578	267.52
671.773	308.2
671.968	231.09
672.163	265.77
672.358	279.53
672.553	269.45
672.748	251.63
672.943	320.41
673.138	275.07
673.333	287.47
673.528	253.18
673.723	283.98
673.918	276.82
674.113	215.59
674.308	335.72
674.503	303.36
674.698	289.8
674.892	264.03
675.087	294.25
675.282	255.31
675.477	246.01
675.672	283.4
675.867	239.04
676.061	202.42
676.256	208.42
676.451	224.7
676.646	279.53
676.84	216.37
677.035	221.99
677.23	193.7
677.424	261.9
677.619	297.93
677.814	297.93
678.008	282.24
678.203	197.57
678.397	226.83
678.592	254.15
678.787	280.11
678.981	242.52
679.176	253.95
679.37	252.99
679.565	205.13
679.759	231.29
679.954	260.15
680.148	274.49
680.342	305.3
680.537	280.11
680.731	249.3
680.926	273.33
681.12	268.1
681.314	231.87
681.509	261.12
681.703	244.85
681.897	279.53
682.092	266.74
682.286	237.87
682.48	293.87
682.674	287.47
682.869	209.59
683.063	257.44
683.257	276.24
683.451	222.37
683.645	257.83
683.839	231.29
684.034	240.2
684.228	292.51
684.422	203.97
684.616	231.48
684.81	267.71
685.004	233.03
685.198	218.11
685.392	273.72
685.586	224.89
685.78	268.1
685.974	227.6
686.168	254.34
686.362	335.13
686.556	227.6
686.75	203.19
686.944	237.1
687.138	294.64
687.331	215.59
687.525	216.37
687.719	176.46
687.913	223.73
688.107	201.64
688.301	181.49
688.494	230.51
688.688	192.15
688.882	157.66
689.076	147.39
689.269	173.36
689.463	269.26
689.657	227.02
689.85	191.96
690.044	198.93
690.238	180.72
690.431	205.52
690.625	194.67
690.818	226.44
691.012	199.7
691.205	244.65
691.399	185.37
691.593	207.45
691.786	277.4
691.98	295.42
692.173	257.44
692.366	227.99
692.56	265.58
692.753	309.17
692.947	209.2
693.14	305.68
693.333	283.6
693.527	200.67
693.72	277.59
693.914	244.07
694.107	224.5
694.3	258.41
694.493	248.34
694.687	270.23
694.88	228.77
695.073	302.39
695.266	299.68
695.46	258.22
695.653	306.65
695.846	295.8
696.039	203.77
696.232	241.55
696.425	318.67
696.618	269.26
696.812	237.29
697.005	325.83
697.198	377.37
697.391	274.3
697.584	324.09
697.777	363.23
697.97	314.6
698.163	334.17
698.356	342.5
698.549	396.36
698.742	340.37
698.935	320.22
699.127	323.12
699.32	297.93
699.513	294.25
699.706	348.5
699.899	343.85
700.092	320.99
700.285	371.17
700.477	290.38
700.67	361.29
700.863	350.44
701.056	459.71
701.248	403.33
701.441	419.41
701.634	325.83
701.826	454.1
702.019	314.21
702.212	386.09
702.404	326.42
702.597	333.58
702.79	332.23
702.982	365.94
703.175	397.91
703.367	379.89
703.56	395.2
703.752	439.95
703.945	408.37
704.137	420.38
704.33	405.85
704.522	423.48
704.715	420.96
704.907	421.74
705.1	407.6
705.292	432.98
705.484	432.78
705.677	452.74
705.869	444.8
706.061	461.26
706.254	492.07
706.446	445.57
706.638	426.97
706.831	479.86
707.023	451.96
707.215	518.61
707.407	494.98
707.599	491.49
707.792	507.18
707.984	498.27
708.176	545.16
708.368	465.53
708.56	505.05
708.752	481.03
708.944	447.12
709.136	502.34
709.329	492.26
709.521	624.79
709.713	514.93
709.905	539.34
710.097	562.21
710.289	518.81
710.481	509.89
710.672	549.61
710.864	535.86
711.056	624.21
711.248	561.43
711.44	590.11
711.632	563.56
711.824	600.37
712.016	633.89
712.207	591.66
712.399	614.52
712.591	669.15
712.783	650.55
712.975	645.52
713.166	604.06
713.358	624.4
713.55	677.1
713.741	664.5
713.933	630.41
714.125	654.82
714.316	604.06
714.508	674.39
714.7	675.55
714.891	640.09
715.083	694.15
715.274	656.95
715.466	686.59
715.657	719.34
715.849	586.23
716.04	663.34
716.232	621.69
716.423	716.82
716.615	614.91
716.806	666.64
716.998	637.96
717.189	630.21
717.381	572.09
717.572	585.84
717.763	622.27
717.955	593.01
718.146	561.82
718.337	569.57
718.528	518.23
718.72	492.84
718.911	584.68
719.102	540.31
719.293	595.72
719.485	563.17
719.676	560.46
719.867	518.61
720.058	557.56
720.249	539.54
720.44	531.4
720.632	567.44
720.823	582.94
721.014	656.56
721.205	590.11
721.396	641.64
721.587	672.84
721.778	635.83
721.969	690.47
722.16	700.35
722.351	643.39
722.542	769.32
722.733	756.53
722.924	672.06
723.115	738.71
723.305	743.36
723.496	760.99
723.687	665.67
723.878	708.87
724.069	713.52
724.26	690.47
724.45	681.75
724.641	648.04
724.832	724.18
725.023	737.93
725.213	739.48
725.404	683.88
725.595	705.58
725.785	660.82
725.976	725.92
726.167	719.72
726.357	714.69
726.548	778.04
726.739	714.88
726.929	733.28
727.12	746.46
727.31	788.31
727.501	782.5
727.691	788.5
727.882	786.95
728.072	817.76
728.263	785.79
728.453	801.87
728.644	779.78
728.834	815.43
729.024	785.6
729.215	777.85
729.405	789.08
729.596	851.08
729.786	870.26
729.976	856.9
730.167	872.98
730.357	768.74
730.547	837.91
730.737	857.48
730.928	871.04
731.118	914.24
731.308	855.93
731.498	832.29
731.688	916.96
731.879	898.55
732.069	961.71
732.259	936.72
732.449	904.56
732.639	1005.11
732.829	1017.32
733.019	983.8
733.209	1000.66
733.399	999.49
733.589	1052.97
733.779	1039.41
733.969	1000.07
734.159	1051.03
734.349	1109.74
734.539	1093.65
734.729	1093.27
734.919	1151.78
735.109	1143.64
735.299	1115.74
735.488	1131.63
735.678	1157.98
735.868	1116.9
736.058	1137.05
736.248	1114.97
736.437	1095.98
736.627	1065.17
736.817	1215.33
737.007	1160.3
737.196	1166.7
737.386	1118.65
737.576	1114.19
737.765	1158.56
737.955	1158.37
738.144	1203.12
738.334	1185.1
738.524	1182.2
738.713	1157.4
738.903	1181.23
739.092	1182.58
739.282	1200.6
739.471	1206.42
739.661	1185.88
739.85	1209.13
740.04	1213.39
740.229	1237.42
740.419	1261.05
740.608	1246.71
740.797	1263.18
740.987	1307.55
741.176	1285.46
741.365	1234.32
741.555	1214.36
741.744	1283.91
741.933	1276.55
742.123	1292.25
742.312	1326.73
742.501	1327.12
742.69	1328.67
742.88	1254.08
743.069	1391.25
743.258	1302.13
743.447	1379.82
743.636	1317.63
743.825	1284.11
744.014	1358.31
744.204	1359.86
744.393	1320.34
744.582	1342.04
744.771	1415.66
744.96	1310.46
745.149	1367.61
745.338	1311.04
745.527	1355.79
745.716	1322.86
745.905	1311.81
746.094	1362.58
746.283	1348.24
746.471	1386.02
746.66	1437.17
746.849	1390.48
747.038	1388.34
747.227	1339.52
747.416	1377.49
747.604	1355.41
747.793	1350.95
747.982	1370.13
748.171	1387.96
748.359	1402.88
748.548	1381.76
748.737	1380.4
748.926	1368.39
749.114	1282.56
749.303	1346.69
749.491	1364.9
749.68	1327.31
749.869	1411.59
750.057	1378.46
750.246	1347.27
750.434	1362.38
750.623	1349.98
750.811	1365.09
751	1380.4
751.188	1354.83
751.377	1385.44
751.565	1363.16
751.754	1338.55
751.942	1320.92
752.131	1369.16
752.319	1295.93
752.507	1306.39
752.696	1373.43
752.884	1391.44
753.072	1355.99
753.261	1340.88
753.449	1355.99
753.637	1359.09
753.825	1425.93
754.014	1330.61
754.202	1330.41
754.39	1401.13
754.578	1389.31
754.766	1358.51
754.955	1349.79
755.143	1430.58
755.331	1352.31
755.519	1351.92
755.707	1324.8
755.895	1334.68
756.083	1348.04
756.271	1325.96
756.459	1311.04
756.647	1366.64
756.835	1347.46
757.023	1311.62
757.211	1346.69
757.399	1342.81
757.587	1313.56
757.775	1315.3
757.963	1306.97
758.151	1333.32
758.339	1308.71
758.526	1309.88
758.714	1328.67
758.902	1270.55
759.09	1267.45
759.278	1165.92
759.465	1122.33
759.653	941.95
759.841	921.61
760.028	768.74
760.216	653.07
760.404	686.79
760.591	562.01
760.779	465.53
760.967	411.08
761.154	325.06
761.342	370.01
761.529	369.43
761.717	402.75
761.905	336.88
762.092	361.87
762.28	309.37
762.467	337.27
762.655	289.02
762.842	327.58
763.029	359.93
763.217	347.53
763.404	345.02
763.592	357.61
763.779	298.13
763.966	377.76
764.154	398.3
764.341	417.67
764.528	381.05
764.716	443.25
764.903	436.85
765.09	457.2
765.277	457.97
765.465	580.42
765.652	556.78
765.839	607.16
766.026	663.34
766.213	658.3
766.4	720.89
766.588	806.91
766.775	769.71
766.962	838.68
767.149	826.09
767.336	910.37
767.523	872.4
767.71	942.92
767.897	1022.94
768.084	1045.02
768.271	1019.26
768.458	1071.76
768.645	1112.45
768.832	1045.22
769.019	1053.94
769.206	1079.51
769.392	1126.2
769.579	1240.32
769.766	1127.37
769.953	1154.1
770.14	1183.94
770.327	1173.48
770.513	1214.75
770.7	1270.93
770.887	1175.61
771.073	1252.14
771.26	1214.36
771.447	1122.33
771.634	1173.09
771.82	1277.91
772.007	1132.6
772.193	1218.23
772.38	1238.97
772.567	1195.18
772.753	1217.65
772.94	1263.76
773.126	1260.28
773.313	1222.3
773.499	1280.43
773.686	1236.64
773.872	1237.22
774.059	1239.35
774.245	1157.79
774.432	1200.99
774.618	1139.57
774.804	1247.3
774.991	1153.52
775.177	1238.38
775.363	1188.59
775.55	1221.72
775.736	1171.15
775.922	1170.77
776.109	1203.9
776.295	1204.67
776.481	1193.05
776.667	1241.1
776.853	1210.1
777.04	1175.03
777.226	1179.68
777.412	1223.47
777.598	1192.85
777.784	1162.24
777.97	1151.59
778.156	1200.99
778.342	1181.03
778.528	1195.76
778.715	1138.02
778.901	1139.38
779.087	1158.56
779.272	1137.83
779.458	1124.07
779.644	1175.03
779.83	1129.5
780.016	1224.63
780.202	1127.37
780.388	1099.66
780.574	1110.12
780.76	1141.32
780.946	1176.97
781.131	1136.86
781.317	1137.25
781.503	1119.81
781.689	1113.42
781.874	1229.67
782.06	1134.92
782.246	1135.89
782.432	1078.35
782.617	1139.38
782.803	1195.37
782.989	1083.39
783.174	1130.47
783.36	1078.35
783.545	1132.6
783.731	1145.39
783.916	1054.32
784.102	1115.16
784.288	1099.47
784.473	1106.05
784.659	1086.1
784.844	1159.92
785.029	1044.64
785.215	1063.82
785.4	1057.42
785.586	1142.67
785.771	1043.86
785.956	1107.02
786.142	1052.19
786.327	1082.42
786.512	1088.42
786.698	1057.04
786.883	1035.72
787.068	1022.74
787.254	1066.92
787.439	1066.14
787.624	1079.7
787.809	1055.1
787.994	1052.97
788.18	1116.9
788.365	1010.54
788.55	1059.36
788.735	1015.38
788.92	1044.44
789.105	1043.09
789.29	1052.39
789.475	1024.1
789.66	1050.26
789.845	996.59
790.03	979.73
790.215	1058.2
790.4	1024.49
790.585	1076.99
790.77	1008.99
790.955	912.89
791.14	1021
791.325	1072.54
791.51	957.45
791.695	1000.27
791.879	976.44
792.064	958.81
792.249	1045.22
792.434	992.13
792.618	1013.64
792.803	1041.34
792.988	1001.62
793.173	991.36
793.357	1039.99
793.542	951.64
793.727	995.81
793.911	1046.38
794.096	952.03
794.281	1004.72
794.465	1086.68
794.65	999.49
794.834	1013.83
795.019	1077.38
795.203	1030.69
795.388	1077.38
795.572	1060.72
795.757	1011.7
795.941	997.17
796.126	1034.95
796.31	955.32
796.494	1023.32
796.679	1003.17
796.863	997.17
797.048	1048.12
797.232	1040.76
797.416	1035.34
797.601	976.24
797.785	1046.19
797.969	1025.26
798.153	965.01
798.338	977.41
798.522	1031.27
798.706	1026.04
798.89	1024.1
799.074	1109.15
799.258	1069.82
799.443	1040.96
799.627	1015.77
799.811	1064.59
799.995	1021.58
800.179	1020.22
800.363	1031.07
800.547	1064.4
800.731	1040.18
800.915	996.39
801.099	1000.27
801.283	1037.86
801.467	1017.12
801.651	987.29
801.835	1092.49
802.019	997.94
802.202	1045.22
802.386	984.96
802.57	990.77
802.754	1000.46
802.938	1002.79
803.121	1021.19
803.305	1061.11
803.489	990.77
803.673	1014.99
803.856	1043.09
804.04	1018.87
804.224	1025.26
804.407	1007.44
804.591	1002.79
804.775	1003.56
804.958	1054.32
805.142	1138.41
805.326	1013.44
805.509	1050.45
805.693	1042.7
805.876	1080.48
806.06	1014.41
806.243	1034.17
806.427	1048.12
806.61	1065.95
806.794	1012.86
806.977	1078.54
807.16	1017.9
807.344	1059.75
807.527	1036.31
807.71	987.09
807.894	1065.95
808.077	1062.46
808.26	1000.46
808.444	973.92
808.627	1084.16
808.81	1003.76
808.993	971.98
809.177	978.18
809.36	999.3
809.543	1032.04
809.726	930.91
809.909	953.38
810.092	957.26
810.276	961.13
810.459	998.91
810.642	963.07
810.825	952.61
811.008	943.5
811.191	892.16
811.374	881.31
811.557	918.89
811.74	1020.22
811.923	879.37
812.106	878.4
812.289	835.78
812.472	885.76
812.654	930.13
812.837	861.35
813.02	850.7
813.203	855.54
813.386	785.02
813.569	779.4
813.751	757.7
813.934	809.43
814.117	782.11
814.3	730.96
814.482	767.58
814.665	748.78
814.848	704.61
815.03	699.19
815.213	706.94
815.396	676.32
815.578	720.3
815.761	691.24
815.943	733.28
816.126	652.88
816.309	653.07
816.491	598.24
816.674	578.09
816.856	629.44
817.039	615.68
817.221	657.53
817.403	635.25
817.586	637.57
817.768	690.08
817.951	587.2
818.133	575.96
818.315	618.2
818.498	625.56
818.68	692.6
818.862	662.37
819.045	696.28
819.227	658.11
819.409	643.39
819.591	673.03
819.774	672.25
819.956	607.35
820.138	688.34
820.32	701.7
820.502	666.83
820.684	722.82
820.866	691.05
821.048	742.2
821.231	719.34
821.413	716.62
821.595	683.1
821.777	710.81
821.959	720.11
822.141	771.26
822.323	672.25
822.505	662.76
822.686	664.31
822.868	651.91
823.05	589.72
823.232	623.62
823.414	558.91
823.596	594.17
823.778	569.96
823.96	601.15
824.141	537.79
824.323	589.14
824.505	626.53
824.687	656.17
824.868	621.49
825.05	719.53
825.232	727.86
825.413	784.05
825.595	725.73
825.777	640.67
825.958	693.76
826.14	708.68
826.321	731.54
826.503	713.91
826.685	712.75
826.866	738.13
827.048	716.82
827.229	695.7
827.411	679.81
827.592	661.79
827.773	673.8
827.955	638.74
828.136	696.67
828.318	587.01
828.499	673.8
828.68	588.56
828.862	669.93
829.043	668.19
829.224	667.41
829.406	616.46
829.587	618.97
829.768	615.1
829.949	628.66
830.131	594.17
830.312	704.8
830.493	665.09
830.674	616.84
830.855	628.66
831.036	625.76
831.218	680.59
831.399	678.45
831.58	655.01
831.761	664.5
831.942	679.81
832.123	649.97
832.304	593.79
832.485	616.84
832.666	641.45
832.847	678.26
833.028	636.22
833.209	654.43
833.389	655.79
833.57	599.99
833.751	632.15
833.932	685.04
834.113	658.5
834.294	649.39
834.475	653.07
834.655	689.69
834.836	678.45
835.017	652.88
835.198	597.08
835.378	668.77
835.559	673.03
835.74	626.92
835.92	626.53
836.101	607.74
836.281	643.19
836.462	666.05
836.643	665.47
836.823	680.59
837.004	664.31
837.184	739.68
837.365	706.16
837.545	690.47
837.726	687.37
837.906	740.45
838.087	678.26
838.267	664.89
838.448	644.74
838.628	692.02
838.808	646.87
838.989	731.54
839.169	623.62
839.349	680.2
839.53	706.55
839.71	679.04
839.89	639.12
840.07	691.63
840.251	639.51
840.431	693.76
840.611	675.94
840.791	627.31
840.971	692.02
841.151	673.8
841.332	620.91
841.512	704.42
841.692	605.8
841.872	671.87
842.052	657.14
842.232	650.36
842.412	608.51
842.592	661.79
842.772	674.58
842.952	630.21
843.132	650.55
843.312	645.71
843.492	607.16
843.672	696.86
843.851	613.55
844.031	661.79
844.211	647.65
844.391	638.35
844.571	665.67
844.751	689.69
844.93	651.33
845.11	614.91
845.29	669.54
845.47	672.06
845.649	647.07
845.829	681.55
846.009	627.5
846.188	630.21
846.368	651.72
846.547	633.31
846.727	669.15
846.907	590.69
847.086	639.51
847.266	675.35
847.445	639.32
847.625	654.82
847.804	610.06
847.984	627.5
848.163	589.14
848.343	602.7
848.522	667.41
848.701	635.44
848.881	604.06
849.06	613.55
849.239	653.07
849.419	657.92
849.598	611.22
849.777	623.24
849.957	608.9
850.136	562.59
850.315	600.76
850.494	557.36
850.674	563.37
850.853	654.04
851.032	608.12
851.211	624.4
851.39	627.31
851.569	551.74
851.748	546.32
851.927	617.62
852.107	585.07
852.286	525.98
852.465	525.98
852.644	592.82
852.823	579.26
853.002	583.32
853.181	615.68
853.359	591.07
853.538	548.84
853.717	614.32
853.896	552.91
854.075	531.21
854.254	572.09
854.433	506.21
854.611	566.27
854.79	469.98
854.969	561.24
855.148	553.68
855.327	491.49
855.505	507.18
855.684	510.67
855.863	512.03
856.041	496.91
856.22	526.94
856.399	493.23
856.577	567.82
856.756	563.37
856.934	648.42
857.113	656.17
857.291	554.84
857.47	519.39
857.648	551.36
857.827	559.88
858.005	607.54
858.184	545.74
858.362	603.67
858.541	571.51
858.719	594.76
858.898	535.66
859.076	548.26
859.254	626.92
859.433	538.18
859.611	529.85
859.789	517.06
859.967	599.79
860.146	607.35
860.324	514.54
860.502	520.94
860.68	498.46
860.859	496.33
861.037	545.74
861.215	568.99
861.393	524.81
861.571	518.81
861.749	508.93
861.927	533.53
862.105	531.98
862.283	512.41
862.461	512.03
862.639	510.28
862.817	504.86
862.995	499.24
863.173	490.71
863.351	533.92
863.529	519.58
863.707	572.67
863.885	547.67
864.063	460.49
864.241	485.48
864.418	552.13
864.596	503.5
864.774	488
864.952	524.04
865.129	560.46
865.307	513.38
865.485	489.74
865.663	558.14
865.84	441.31
866.018	534.89
866.196	412.05
866.373	461.07
866.551	456.61
866.728	403.72
866.906	432.59
867.084	457.97
867.261	479.86
867.439	470.76
867.616	489.74
867.794	475.79
867.971	456.42
868.149	448.86
868.326	536.24
868.503	491.49
868.681	488.97
868.858	480.44
869.035	449.64
869.213	494.39
869.39	445.18
869.567	548.84
869.745	446.54
869.922	479.28
870.099	523.26
870.276	515.9
870.454	501.95
870.631	521.13
870.808	463.78
870.985	514.16
871.162	508.34
871.339	508.73
871.517	435.3
871.694	450.22
871.871	472.5
872.048	493.62
872.225	444.6
872.402	489.74
872.579	445.18
872.756	496.53
872.933	424.45
873.11	433.75
873.287	479.09
873.463	442.28
873.64	440.15
873.817	450.41
873.994	465.14
874.171	449.64
874.348	479.67
874.524	380.86
874.701	457.97
874.878	376.21
875.055	491.49
875.231	443.83
875.408	452.16
875.585	426.39
875.762	463.78
875.938	424.65
876.115	430.85
876.291	443.63
876.468	448.48
876.645	405.08
876.821	431.62
876.998	423.87
877.174	418.64
877.351	431.04
877.527	400.62
877.704	448.48
877.88	443.83
878.057	428.13
878.233	458.36
878.409	434.72
878.586	423.87
878.762	437.63
878.938	429.68
879.115	356.06
879.291	418.25
879.467	366.72
879.644	405.27
879.82	431.81
879.996	394.03
880.172	346.95
880.349	387.06
880.525	437.43
880.701	370.2
880.877	371.17
881.053	423.29
881.229	426.2
881.405	450.8
881.581	353.54
881.757	372.91
881.933	427.16
882.109	439.37
882.285	397.91
882.461	349.28
882.637	361.1
882.813	374.85
882.989	410.89
883.165	426.39
883.341	347.53
883.517	421.74
883.693	424.84
883.869	430.07
884.044	355.67
884.22	422.71
884.396	439.18
884.572	415.15
884.747	445.38
884.923	419.22
885.099	411.08
885.275	447.51
885.45	378.73
885.626	395.97
885.801	391.13
885.977	385.12
886.153	347.15
886.328	407.79
886.504	415.15
886.679	426.2
886.855	369.43
887.03	432.78
887.206	407.21
887.381	393.84
887.557	407.4
887.732	417.86
887.908	420.38
888.083	442.86
888.258	385.12
888.434	356.83
888.609	404.11
888.784	444.02
888.96	370.4
889.135	369.62
889.31	358.77
889.485	415.54
889.661	376.98
889.836	442.47
890.011	420.58
890.186	377.56
890.361	370.4
890.537	394.23
890.712	391.51
890.887	408.37
891.062	383.38
891.237	429.88
891.412	369.62
891.587	410.31
891.762	451.77
891.937	455.26
892.112	396.36
892.287	417.86
892.462	365.17
892.637	356.64
892.812	318.28
892.987	398.49
893.161	348.12
893.336	356.83
893.511	368.27
893.686	388.8
893.861	352.77
894.035	380.08
894.21	345.79
894.385	320.22
894.56	376.79
894.734	312.85
894.909	357.8
895.084	334.17
895.258	327.58
895.433	357.61
895.608	322.73
895.782	307.82
895.957	314.02
896.131	331.65
896.306	263.84
896.48	290.96
896.655	320.6
896.829	246.59
897.004	268.68
897.178	278.56
897.353	238.07
897.527	322.54
897.701	284.76
897.876	228.96
898.05	294.25
898.224	259.77
898.399	321.96
898.573	291.15
898.747	216.37
898.921	293.09
899.096	240.39
899.27	240.2
899.444	205.32
899.618	234.58
899.792	226.25
899.967	205.13
900.141	249.5
900.315	190.6
900.489	225.47
900.663	264.22
900.837	252.99
901.011	192.92
901.185	316.34
901.359	243.88
901.533	262.09
901.707	242.14
901.881	218.3
902.055	200.29
902.229	241.55
902.403	273.33
902.576	253.95
902.75	256.47
902.924	316.34
903.098	260.35
903.272	287.47
903.446	314.4
903.619	271.78
903.793	287.47
903.967	252.6
904.14	302.39
904.314	304.52
904.488	314.02
904.661	300.07
904.835	310.92
905.009	313.43
905.182	338.62
905.356	334.36
905.529	313.43
905.703	267.13
905.876	285.15
906.05	272.36
906.223	271
906.397	226.25
906.57	226.64
906.744	226.05
906.917	230.9
907.09	242.72
907.264	230.32
907.437	224.7
907.61	202.42
907.784	233.61
907.957	238.45
908.13	188.47
908.304	267.71
908.477	188.86
908.65	236.71
908.823	195.25
908.996	290.18
909.17	211.91
909.343	227.6
909.516	226.25
909.689	220.63
909.862	184.21
910.035	229.54
910.208	175.68
910.381	200.87
910.554	308.2
910.727	218.3
910.9	214.24
911.073	192.34
911.246	233.8
911.419	245.43
911.592	220.05
911.765	179.36
911.938	191.96
912.11	196.61
912.283	212.1
912.456	230.9
912.629	219.85
912.802	208.81
912.974	170.64
913.147	140.22
913.32	138.87
913.493	159.6
913.665	177.62
913.838	177.81
914.01	162.12
914.183	182.66
914.356	144.29
914.528	202.8
914.701	254.54
914.873	228.77
915.046	159.02
915.218	180.14
915.391	119.69
915.563	137.12
915.736	192.73
915.908	204.16
916.081	178.59
916.253	162.31
916.425	166.38
916.598	189.82
916.77	172.39
916.942	118.91
917.115	111.16
917.287	209.2
917.459	180.52
917.632	155.34
917.804	128.21
917.976	200.09
918.148	179.36
918.32	169.48
918.493	190.21
918.665	214.43
918.837	199.7
919.009	216.75
919.181	227.02
919.353	180.14
919.525	175.49
919.697	182.66
919.869	152.04
920.041	213.46
920.213	241.36
920.385	217.53
920.557	169.48
920.729	188.27
920.901	210.17
921.073	185.37
921.244	159.02
921.416	222.18
921.588	201.64
921.76	171.61
921.932	274.1
922.103	184.79
922.275	169.29
922.447	167.74
922.619	138.09
922.79	189.05
922.962	165.8
923.134	206.87
923.305	120.46
923.477	141.77
923.648	156.5
923.82	172.97
923.991	128.21
924.163	136.54
924.335	168.12
924.506	136.54
924.677	202.03
924.849	118.72
925.02	165.41
925.192	198.15
925.363	168.71
925.535	154.17
925.706	146.62
925.877	186.34
926.049	152.82
926.22	152.62
926.391	159.21
926.562	164.83
926.734	130.34
926.905	177.81
927.076	119.49
927.247	169.09
927.419	101.67
927.59	142.16
927.761	140.81
927.932	130.15
928.103	137.51
928.274	97.99
928.445	102.83
928.616	101.09
928.787	113.1
928.958	168.32
929.129	160.57
929.3	132.28
929.471	112.52
929.642	71.64
929.813	32.11
929.984	132.09
930.155	66.79
930.326	118.72
930.496	85.59
930.667	37.34
930.838	75.71
931.009	38.12
931.18	68.54
931.35	56.14
931.521	90.82
931.692	46.06
931.863	16.42
932.033	92.18
932.204	75.51
932.374	77.64
932.545	20.68
932.716	83.07
932.886	102.64
933.057	8.48
933.227	31.92
933.398	106.9
933.568	28.63
933.739	17.39
933.909	23.98
934.08	63.5
934.25	-6.05
934.421	-7.22
934.591	65.24
934.761	16.23
934.932	-20.97
935.102	6.93
935.272	-4.12
935.443	24.17
935.613	4.99
935.783	37.15
935.953	-31.63
936.123	161.73
936.294	-8.19
936.464	-2.76
936.634	28.24
936.804	-5.47
936.974	2.08
937.144	44.32
937.314	26.11
937.484	6.54
937.655	-3.73
937.825	61.76
937.995	-5.09
938.165	66.99
938.334	-21.36
938.504	4.6
938.674	-12.84
938.844	-16.32
939.014	25.91
939.184	22.81
939.354	63.31
939.524	52.26
939.694	16.03
939.863	15.06
940.033	96.63
940.203	75.9
940.373	43.35
940.542	67.96
940.712	30.18
940.882	69.7
941.051	78.61
941.221	50.33
941.391	91.98
941.56	12.16
941.73	10.22
941.899	120.46
942.069	2.28
942.238	62.53
942.408	28.43
942.577	71.06
942.747	26.49
942.916	7.51
943.086	26.3
943.255	72.99
943.425	49.55
943.594	2.28
943.763	-17.49
943.933	22.81
944.102	-7.99
944.271	29.98
944.441	59.43
944.61	23.01
944.779	25.91
944.948	116.39
945.117	-26.01
945.287	11.19
945.456	-20.97
945.625	3.05
945.794	61.18
945.963	0.15
946.132	46.84
946.301	17
946.47	56.72
946.639	-23.88
946.808	20.1
946.977	34.24
947.146	71.25
947.315	-9.93
947.484	51.88
947.653	-1.79
947.822	2.28
947.991	13.51
948.16	87.91
948.329	55.94
948.498	17
948.666	5.57
948.835	31.73
949.004	-18.84
949.173	-29.89
949.341	36.18
949.51	51.68
949.679	88.69
949.847	62.14
950.016	97.79
950.185	50.91
950.353	11.96
950.522	12.93
950.69	50.52
950.859	13.9
951.028	65.83
951.196	41.03
951.365	9.64
951.533	28.24
951.701	40.83
951.87	53.43
952.038	24.36
952.207	26.49
952.375	87.91
952.543	5.76
952.712	43.74
952.88	10.03
953.048	72.41
953.217	22.62
953.385	33.08
953.553	79.58
953.721	-21.55
953.89	44.9
954.058	-32.99
954.226	-9.93
954.394	20.68
954.562	-17.68
954.73	37.54
954.898	27.08
955.067	40.06
955.235	2.86
955.403	92.95
955.571	88.49
955.739	51.29
955.907	-11.87
956.075	-4.89
956.243	3.63
956.41	51.49
956.578	-17.29
956.746	-47.13
956.914	2.66
957.082	50.33
957.25	37.15
957.418	0.15
957.585	27.46
957.753	60.79
957.921	-3.73
958.089	18.55
958.256	34.83
958.424	29.4
958.592	31.34
958.759	19.91
958.927	61.95
959.095	27.66
959.262	21.07
959.43	24.94
959.597	-27.56
959.765	11.77
959.932	-36.28
960.1	71.64
960.267	41.99
960.435	9.83
960.602	13.32
960.77	-8.96
960.937	-31.44
961.104	36.38
961.272	-14.58
961.439	9.06
961.606	45.48
961.774	40.06
961.941	29.21
962.108	78.61
962.275	23.78
962.443	46.84
962.61	87.33
962.777	96.83
962.944	53.23
963.111	39.48
963.278	57.3
963.446	25.72
963.613	19.91
963.78	45.09
963.947	37.73
964.114	37.73
964.281	117.36
964.448	44.51
964.615	3.44
964.782	52.65
964.949	64.66
965.116	57.3
965.282	72.41
965.449	26.11
965.616	-12.64
965.783	66.99
965.95	36.18
966.117	8.86
966.283	15.84
966.45	37.54
966.617	53.81
966.784	63.89
966.95	52.84
967.117	50.91
967.284	4.21
967.45	5.38
967.617	76.09
967.784	41.22
967.95	74.35
968.117	29.4
968.283	67.76
968.45	138.09
968.616	39.67
968.783	54.01
968.949	49.36
969.116	51.88
969.282	32.89
969.449	35.79
969.615	23.01
969.781	-12.45
969.948	12.55
970.114	-32.6
970.28	81.13
970.447	11.77
970.613	84.81
970.779	15.84
970.945	49.74
971.112	41.8
971.278	13.71
971.444	32.11
971.61	64.08
971.776	2.66
971.942	49.94
972.108	47.61
972.275	46.45
972.441	56.53
972.607	86.94
972.773	16.61
972.939	64.66
973.105	35.02
973.271	0.73
973.437	38.12
973.602	-6.05
973.768	82.88
973.934	32.11
974.1	57.88
974.266	-37.83
974.432	28.24
974.598	22.62
974.763	80.74
974.929	29.4
975.095	92.95
975.261	26.3
975.426	-1.99
975.592	35.41
975.758	98.76
975.923	-3.34
976.089	-0.63
976.255	60.01
976.42	64.08
976.586	59.43
976.751	64.86
976.917	115.62
977.082	41.03
977.248	-19.62
977.413	-30.47
977.579	20.1
977.744	50.13
977.91	20.49
978.075	19.52
978.24	49.36
978.406	24.94
978.571	15.65
978.736	4.21
978.902	31.73
979.067	-14.97
979.232	-36.47
979.397	26.49
979.563	72.03
979.728	21.46
979.893	11.77
980.058	24.17
980.223	58.66
980.388	32.11
980.554	61.37
980.719	27.08
980.884	40.06
981.049	55.17
981.214	10.61
981.379	33.47
981.544	17.39
981.709	37.93
981.874	5.18
982.039	36.76
982.204	74.54
982.368	22.04
982.533	19.71
982.698	67.96
982.863	61.37
983.028	12.35
983.193	50.71
983.357	36.38
983.522	47.81
983.687	0.73
983.852	34.63
984.016	13.9
984.181	52.46
984.346	37.54
984.51	49.16
984.675	33.47
984.839	58.85
985.004	53.23
985.168	66.6
985.333	46.06
985.498	17.97
985.662	66.41
985.827	68.93
985.991	13.13
986.155	5.57
986.32	64.47
986.484	93.34
986.649	51.68
986.813	-20.97
986.977	62.34
987.142	66.6
987.306	-6.83
987.47	30.18
987.634	36.76
987.799	16.61
987.963	25.14
988.127	40.06
988.291	108.64
988.455	25.33
988.62	-5.47
988.784	49.94
988.948	65.63
989.112	-6.83
989.276	37.93
989.44	11.38
989.604	6.93
989.768	14.1
989.932	82.49
990.096	-20
990.26	-14.58
990.424	-19.04
990.588	12.55
990.752	80.55
990.915	44.13
991.079	25.33
991.243	34.24
991.407	47.23
991.571	37.73
991.734	53.81
991.898	49.55
992.062	146.04
992.226	36.76
992.389	23.98
992.553	-16.52
992.717	15.06
992.88	22.62
993.044	52.46
993.207	31.73
993.371	64.28
993.535	34.83
993.698	51.49
993.862	96.63
994.025	67.18
994.189	51.29
994.352	29.4
994.515	71.06
994.679	76.48
994.842	25.91
995.006	61.76
995.169	13.32
995.332	-0.44
995.496	74.54
995.659	3.05
995.822	23.01
995.985	26.11
996.149	82.1
996.312	26.88
996.475	93.73
996.638	19.13
996.801	68.73
996.964	83.65
997.128	21.65
997.291	28.04
997.454	46.45
997.617	-41.12
997.78	63.89
997.943	15.06
998.106	87.72
998.269	11.38
998.432	-9.15
998.595	48.97
998.758	-6.05
998.92	18.75
999.083	-24.27
999.246	14.29
999.409	2.66
999.572	-22.33
999.735	11.38
999.897	44.32
1000.06	-11.67
1000.223	0.73
1000.386	47.81
1000.548	35.02
1000.711	41.03
1000.874	43.16
1001.036	-17.68
1001.199	63.69
1001.361	-1.99
1001.524	35.41
1001.687	81.33
1001.849	-14
1002.012	56.53
1002.174	45.48
1002.337	36.96
1002.499	13.71
1002.661	60.59
1002.824	-30.27
1002.986	-7.41
1003.149	23.39
1003.311	-23.69
1003.473	72.41
1003.636	1.5
1003.798	60.4
1003.96	38.51
1004.123	15.84
1004.285	20.68
1004.447	2.08
1004.609	-0.24
1004.771	87.53
1004.933	-3.15
1005.096	23.01
1005.258	-31.82
1005.42	-20
1005.582	42.58
1005.744	56.14
1005.906	-12.06
1006.068	34.83
1006.23	-11.48
1006.392	-35.7
1006.554	-2.76
1006.716	45.09
1006.878	64.08
1007.04	-20.39
1007.202	-2.37
1007.363	41.61
1007.525	25.91
1007.687	40.06
1007.849	58.08
1008.011	-22.72
1008.172	-19.04
1008.334	44.51
1008.496	29.01
1008.658	-47.13
1008.819	-10.7
1008.981	-16.71
1009.143	-8.96
1009.304	33.08
1009.466	20.1
1009.627	62.14
1009.789	120.85
1009.95	31.92
1010.112	2.86
1010.273	13.32
1010.435	-5.86
1010.596	37.54
1010.758	23.59
1010.919	8.67
1011.081	-27.17
1011.242	-3.54
1011.403	49.16
1011.565	12.74
1011.726	23.59
1011.887	-12.64
1012.049	-0.05
1012.21	42.96
1012.371	34.05
1012.532	-28.53
1012.693	12.35
1012.855	0.92
1013.016	-6.05
1013.177	54.98
1013.338	-10.51
1013.499	96.44
1013.66	47.03
1013.821	20.49
1013.982	22.04
1014.143	26.69
1014.304	17.39
1014.465	37.54
1014.626	39.28
1014.787	-3.34
1014.948	95.28
1015.109	-66.12
1015.27	55.17
1015.431	-6.25
1015.592	-7.22
1015.752	57.88
1015.913	39.09
1016.074	38.7
1016.235	21.84
1016.395	20.1
1016.556	0.15
1016.717	-1.4
1016.877	70.86
1017.038	-7.02
1017.199	35.6
1017.359	29.98
1017.52	18.36
1017.681	-29.11
1017.841	23.78
1018.002	4.41
1018.162	-1.99
1018.323	80.55
1018.483	15.65
1018.644	12.16
1018.804	-22.72
1018.964	-12.25
1019.125	-13.8
1019.285	31.92
1019.446	3.25
1019.606	-11.67
1019.766	-28.92
1019.926	26.49
1020.087	17.78
1020.247	-16.9
1020.407	34.63
1020.567	52.65
1020.728	17.39
1020.888	3.83
1021.048	3.83
1021.208	-22.72
1021.368	-30.08
1021.528	63.69
1021.688	54.39
1021.848	49.16
1022.008	2.47
1022.168	-6.64
1022.328	27.46
1022.488	26.11
1022.648	1.7
1022.808	47.42
1022.968	33.08
1023.128	-7.8
1023.288	10.22
1023.448	36.18
1023.608	50.52
1023.767	28.82
1023.927	-18.45
1024.087	-23.49
1024.247	-40.35
1024.406	-8.19
1024.566	-31.63
1024.726	-17.49
1024.885	10.03
1025.045	3.44
1025.205	-5.67
1025.364	7.31
1025.524	31.14
1025.683	23.59
1025.843	13.32
1026.003	11.77
1026.162	72.41
1026.321	37.93
1026.481	24.56
1026.64	3.05
1026.8	31.14
1026.959	27.66
1027.119	6.54
1027.278	-9.93
1027.437	16.03
1027.597	-10.32
1027.756	25.53
1027.915	35.21
1028.074	39.28
1028.234	-18.45
1028.393	21.84
1028.552	15.06
1028.711	-66.7
1028.87	63.69
1029.03	-15.94
1029.189	13.9
1029.348	-44.22
1029.507	6.35
1029.666	12.16
1029.825	-14
1029.984	-13.8
1030.143	18.36
1030.302	14.29
1030.461	-49.45
1030.62	2.86
1030.779	19.52
1030.938	-5.67
1031.097	-36.86
1031.255	47.23
1031.414	46.45
1031.573	49.74
1031.732	-49.65
1031.891	5.76
1032.049	59.24
1032.208	27.46
1032.367	-8.77
1032.525	13.71
1032.684	-1.79
1032.843	3.05
1033.001	-15.55
1033.16	168.9
1033.319	76.48
1033.477	9.45
1033.636	2.86
1033.794	-40.93
1033.953	39.28
1034.111	40.44
1034.27	-10.12
1034.428	34.24
1034.587	-17.49
1034.745	13.13
1034.903	-14.77
1035.062	15.84
1035.22	-42.87
1035.378	45.48
1035.537	-4.31
1035.695	38.51
1035.853	22.43
1036.011	51.49
1036.17	29.4
1036.328	-67.08
1036.486	11.58
1036.644	18.55
1036.802	-72.9
1036.96	-4.31
1037.119	22.04
1037.277	-18.84
1037.435	-26.2
1037.593	-43.64
1037.751	15.84
1037.909	33.08
1038.067	33.08
