Data from pine_FLMT105791__87__17-21-27-077.txt Node

Date: Mon Mar 20 17:21:27 GMT 2023
User: antho
Spectrometer: FLMT10579
Trigger mode: 0
Integration Time (sec): 1.000000E-1
Scans to average: 10
Electric dark correction enabled: true
Nonlinearity correction enabled: false
Boxcar width: 0
XAxis mode: Wavelengths
Number of Pixels in Spectrum: 3648
>>>>>Begin Spectral Data<<<<<
345.248	-176.96
345.464	-176.96
345.681	-176.96
345.898	-160.1
346.114	-163.39
346.331	-47.73
346.548	8.27
346.764	4.2
346.981	-16.34
347.197	-27.58
347.414	10.4
347.631	8.46
347.847	42.95
348.064	22.22
348.28	21.83
348.497	-17.7
348.713	-8.98
348.93	47.21
349.146	32.29
349.363	2.45
349.579	50.7
349.796	-13.24
350.012	10.79
350.229	25.51
350.445	-4.52
350.661	-30.87
350.878	16.4
351.094	25.12
351.311	25.51
351.527	24.35
351.743	-17.31
351.96	33.26
352.176	46.24
352.392	47.4
352.609	52.05
352.825	-3.55
353.041	3.42
353.257	-2.78
353.474	4.59
353.69	-9.75
353.906	24.93
354.122	-5.88
354.339	51.67
354.555	-2.39
354.771	9.24
354.987	28.8
355.203	36.36
355.42	-2.39
355.636	10.4
355.852	-10.14
356.068	19.7
356.284	-13.63
356.5	54.18
356.716	12.14
356.932	-0.84
357.148	46.63
357.364	15.82
357.58	49.92
357.796	57.67
358.012	70.46
358.228	16.79
358.444	-49.86
358.66	61.93
358.876	4.78
359.092	-2.39
359.308	41.78
359.524	53.99
359.74	-5.68
359.956	-27
360.172	-0.65
360.388	30.55
360.604	-8.78
360.819	68.33
361.035	27.64
361.251	56.32
361.467	-11.3
361.683	47.02
361.898	9.24
362.114	20.09
362.33	19.89
362.546	58.45
362.762	4.78
362.977	23.96
363.193	-24.86
363.409	30.74
363.624	-19.25
363.84	-17.89
364.056	7.88
364.271	19.12
364.487	46.05
364.703	0.32
364.918	-2.58
365.134	13.5
365.35	31.52
365.565	97
365.781	20.09
365.996	16.02
366.212	54.57
366.427	16.02
366.643	-7.04
366.858	6.33
367.074	-15.76
367.289	62.13
367.505	108.82
367.72	6.52
367.936	4.39
368.151	57.87
368.367	44.11
368.582	21.05
368.798	21.44
369.013	49.34
369.228	2.84
369.444	23.96
369.659	64.45
369.874	26.87
370.09	87.12
370.305	-22.35
370.52	9.04
370.736	57.48
370.951	10.4
371.166	61.93
371.381	63.1
371.597	44.88
371.812	-20.8
372.027	-14.4
372.242	11.17
372.458	99.13
372.673	7.1
372.888	6.14
373.103	57.09
373.318	104.37
373.533	44.3
373.749	30.55
373.964	-32.81
374.179	67.36
374.394	-11.88
374.609	84.6
374.824	-4.52
375.039	51.67
375.254	2.07
375.469	67.75
375.684	47.98
375.899	40.23
376.114	24.35
376.329	30.74
376.544	29.77
376.759	68.33
376.974	-9.17
377.189	14.27
377.404	5.36
377.619	39.65
377.834	-15.95
378.049	-51.41
378.264	-27.58
378.478	15.44
378.693	0.9
378.908	45.27
379.123	-10.14
379.338	89.64
379.553	60.77
379.767	42.37
379.982	32.68
380.197	52.25
380.412	16.21
380.626	46.82
380.841	86.15
381.056	46.05
381.271	80.73
381.485	25.12
381.7	-6.07
381.915	31.9
382.129	-3.55
382.344	45.08
382.559	19.5
382.773	65.03
382.988	-25.25
383.202	30.74
383.417	21.44
383.632	106.3
383.846	7.1
384.061	33.07
384.275	-7.23
384.49	32.87
384.704	35
384.919	12.14
385.133	10.01
385.348	55.73
385.562	-18.28
385.777	53.22
385.991	13.11
386.206	9.62
386.42	10.01
386.634	63.68
386.849	12.14
387.063	59.42
387.277	-26.22
387.492	8.27
387.706	3.81
387.92	-13.05
388.135	37.91
388.349	52.25
388.563	37.33
388.778	31.13
388.992	53.99
389.206	51.86
389.42	84.22
389.635	26.87
389.849	47.79
390.063	46.82
390.277	20.47
390.491	84.02
390.706	40.04
390.92	65.23
391.134	45.66
391.348	34.03
391.562	-28.35
391.776	1.49
391.99	7.88
392.205	53.99
392.419	2.65
392.633	28.03
392.847	87.9
393.061	4
393.275	112.89
393.489	54.57
393.703	26.67
393.917	102.23
394.131	3.23
394.345	23.77
394.559	48.37
394.773	15.05
394.986	52.25
395.2	8.07
395.414	44.5
395.628	22.41
395.842	34.62
396.056	18.15
396.27	-27.19
396.484	39.65
396.697	37.91
396.911	72.78
397.125	13.3
397.339	81.12
397.553	29.77
397.766	88.28
397.98	59.03
398.194	63.68
398.408	20.09
398.621	56.9
398.835	56.12
399.049	54.18
399.262	57.48
399.476	61.16
399.69	53.8
399.903	105.14
400.117	33.07
400.331	61.35
400.544	16.21
400.758	160.16
400.971	60.58
401.185	71.82
401.398	32.29
401.612	93.9
401.826	64.84
402.039	76.27
402.253	47.4
402.466	91
402.68	43.53
402.893	40.62
403.106	40.43
403.32	57.67
403.533	81.7
403.747	57.09
403.96	44.11
404.174	64.45
404.387	13.69
404.6	21.83
404.814	72.4
405.027	66.2
405.24	38.68
405.454	37.72
405.667	91.58
405.88	-5.49
406.094	66.39
406.307	84.99
406.52	44.3
406.733	20.86
406.947	10.2
407.16	122.38
407.373	98.36
407.586	19.31
407.799	22.8
408.012	90.22
408.226	54.77
408.439	104.75
408.652	7.1
408.865	71.62
409.078	87.32
409.291	61.55
409.504	6.52
409.717	78.21
409.93	55.35
410.143	62.32
410.357	8.85
410.57	14.85
410.783	50.12
410.996	70.65
411.209	44.5
411.421	106.88
411.634	47.02
411.847	39.46
412.06	61.35
412.273	38.3
412.486	63.68
412.699	151.25
412.912	65.03
413.125	79.37
413.338	83.25
413.55	81.31
413.763	67.94
413.976	75.5
414.189	9.04
414.402	47.98
414.615	109.02
414.827	20.28
415.04	71.43
415.253	78.21
415.466	82.86
415.678	111.53
415.891	55.73
416.104	51.86
416.316	63.68
416.529	28.03
416.742	65.81
416.954	103.78
417.167	61.55
417.38	55.93
417.592	105.92
417.805	34.03
418.017	-0.84
418.23	102.04
418.442	29.77
418.655	54.77
418.868	72.78
419.08	86.73
419.293	82.86
419.505	93.9
419.718	87.51
419.93	113.47
420.142	37.91
420.355	97.2
420.567	115.99
420.78	73.75
420.992	70.46
421.205	120.83
421.417	46.24
421.629	91.77
421.842	37.13
422.054	38.3
422.266	103.4
422.479	100.1
422.691	63.1
422.903	100.1
423.115	78.02
423.328	75.11
423.54	98.75
423.752	78.79
423.964	54.57
424.177	74.72
424.389	73.75
424.601	176.44
424.813	115.8
425.025	119.09
425.238	122.77
425.45	82.08
425.662	63.68
425.874	381.23
426.086	76.08
426.298	110.57
426.51	83.05
426.722	88.67
426.934	74.14
427.146	119.67
427.358	57.48
427.57	126.65
427.782	107.85
427.994	98.17
428.206	77.05
428.418	45.85
428.63	128
428.842	94.29
429.054	107.85
429.266	119.67
429.478	72.98
429.69	85.38
429.902	29
430.114	113.67
430.325	92.74
430.537	115.99
430.749	117.73
430.961	20.67
431.173	93.71
431.384	110.37
431.596	28.42
431.808	82.08
432.02	115.8
432.231	124.32
432.443	144.86
432.655	122.58
432.867	57.09
433.078	145.83
433.29	168.3
433.502	134.78
433.713	162.1
433.925	132.85
434.136	155.13
434.348	95.07
434.56	74.92
434.771	194.26
434.983	60.58
435.194	94.48
435.406	132.46
435.617	166.75
435.829	181.67
436.04	127.61
436.252	161.33
436.463	183.03
436.675	155.51
436.886	179.73
437.098	138.85
437.309	227.39
437.521	170.82
437.732	159.58
437.943	138.85
438.155	135.56
438.366	89.64
438.578	227.01
438.789	161.13
439	179.54
439.211	147.96
439.423	188.06
439.634	161.71
439.845	187.87
440.057	171.21
440.268	196.98
440.479	126.45
440.69	173.92
440.902	160.94
441.113	156.87
441.324	178.76
441.535	156.48
441.746	231.85
441.957	121.22
442.168	155.51
442.38	180.51
442.591	228.94
442.802	167.53
443.013	149.12
443.224	179.73
443.435	185.35
443.646	179.93
443.857	191.55
444.068	154.93
444.279	155.13
444.49	262.08
444.701	174.31
444.912	291.52
445.123	241.73
445.334	224.1
445.545	228.75
445.756	187.1
445.967	142.92
446.178	202.6
446.388	219.64
446.599	231.27
446.81	231.27
447.021	181.28
447.232	227.2
447.443	265.95
447.653	201.63
447.864	241.54
448.075	207.44
448.286	266.92
448.496	223.91
448.707	263.43
448.918	214.03
449.129	302.37
449.339	227.2
449.55	224.1
449.761	216.54
449.971	245.99
450.182	210.54
450.393	250.84
450.603	213.44
450.814	259.56
451.024	273.31
451.235	289.2
451.446	300.44
451.656	293.07
451.867	205.69
452.077	263.43
452.288	290.17
452.498	300.82
452.709	250.45
452.919	292.11
453.13	211.89
453.34	284.36
453.55	183.61
453.761	282.42
453.971	292.88
454.182	305.86
454.392	284.36
454.602	326.21
454.813	279.13
455.023	289.78
455.233	229.91
455.444	282.81
455.654	206.28
455.864	238.63
456.075	264.21
456.285	217.9
456.495	235.92
456.705	261.88
456.916	322.72
457.126	312.64
457.336	288.62
457.546	239.99
457.756	248.71
457.967	301.79
458.177	264.79
458.387	277.58
458.597	253.55
458.807	253.36
459.017	284.16
459.227	273.31
459.437	260.91
459.647	293.46
459.857	310.71
460.068	272.34
460.278	302.57
460.488	307.22
460.698	354.3
460.908	279.9
461.117	213.64
461.327	265.56
461.537	314.97
461.747	282.61
461.957	337.25
462.167	396.34
462.377	350.04
462.587	305.86
462.797	350.04
463.007	309.54
463.216	323.49
463.426	347.91
463.636	336.86
463.846	243.48
464.056	286.29
464.265	351.2
464.475	282.42
464.685	307.99
464.895	333.57
465.104	336.47
465.314	344.42
465.524	308.38
465.733	291.72
465.943	366.31
466.153	378.9
466.362	345
466.572	327.17
466.782	308.57
466.991	346.94
467.201	369.41
467.41	287.46
467.62	328.14
467.829	351.78
468.039	365.34
468.249	329.69
468.458	316.13
468.668	372.51
468.877	373.67
469.086	379.68
469.296	370.96
469.505	326.21
469.715	397.89
469.924	375.61
470.134	408.16
470.343	385.88
470.552	358.76
470.762	379.87
470.971	315.36
471.18	376.39
471.39	360.31
471.599	331.05
471.808	379.49
472.018	347.91
472.227	425.02
472.436	415.72
472.645	388.79
472.855	379.49
473.064	431.8
473.273	401.77
473.482	425.02
473.691	444.59
473.901	407
474.11	371.16
474.319	469.77
474.528	412.04
474.737	466.87
474.946	431.02
475.155	426.57
475.364	465.9
475.573	404.29
475.783	462.22
475.992	471.9
476.201	483.53
476.41	426.37
476.619	419.4
476.828	475.39
477.037	422.3
477.245	425.02
477.454	451.75
477.663	432.77
477.872	431.22
478.081	494.38
478.29	424.44
478.499	533.52
478.708	455.05
478.917	549.98
479.125	460.47
479.334	480.62
479.543	460.86
479.752	520.34
479.961	492.05
480.169	531.77
480.378	483.72
480.587	621.48
480.796	539.72
481.004	509.49
481.213	524.99
481.422	543.01
481.63	494.38
481.839	578.46
482.048	558.51
482.256	520.92
482.465	541.07
482.674	560.45
482.882	558.7
483.091	625.55
483.299	567.23
483.508	596.1
483.716	542.82
483.925	581.76
484.134	547.27
484.342	556.38
484.551	616.83
484.759	564.71
484.967	592.41
485.176	617.8
485.384	599.78
485.593	634.26
485.801	598.81
486.01	559.48
486.218	557.35
486.426	465.12
486.635	531.38
486.843	523.83
487.051	580.79
487.26	517.82
487.468	555.6
487.676	603.46
487.885	564.13
488.093	593.58
488.301	597.45
488.509	582.34
488.717	640.27
488.926	601.52
489.134	601.33
489.342	607.72
489.55	632.91
489.758	609.85
489.967	601.33
490.175	725.52
490.383	614.31
490.591	684.06
490.799	597.45
491.007	640.27
491.215	669.91
491.423	654.8
491.631	658.29
491.839	653.83
492.047	711.57
492.255	617.6
492.463	593.96
492.671	653.83
492.879	680.38
493.087	654.99
493.295	681.54
493.503	713.31
493.711	710.02
493.919	713.51
494.127	750.71
494.334	739.86
494.542	661
494.75	689.87
494.958	698.59
495.166	740.82
495.374	732.69
495.581	741.79
495.789	715.64
495.997	795.27
496.205	721.06
496.412	730.36
496.62	696.26
496.828	750.32
497.035	724.94
497.243	764.27
497.451	717.77
497.658	754
497.866	773.37
498.074	809.22
498.281	711.57
498.489	826.46
498.696	769.11
498.904	712.34
499.112	704.79
499.319	845.25
499.527	754
499.734	807.67
499.942	750.9
500.149	739.66
500.357	758.46
500.564	698.59
500.771	759.42
500.979	740.63
501.186	693.94
501.394	751.67
501.601	738.69
501.808	765.62
502.016	780.54
502.223	726.29
502.43	737.34
502.638	781.71
502.845	728.81
503.052	848.74
503.26	762.52
503.467	853.78
503.674	804.96
503.881	800.5
504.089	865.99
504.296	817.16
504.503	750.12
504.71	784.81
504.917	766.59
505.125	826.27
505.332	813.87
505.539	827.43
505.746	881.29
505.953	868.5
506.16	870.83
506.367	879.74
506.574	929.53
506.781	905.7
506.988	795.27
507.195	850.29
507.402	839.64
507.609	886.52
507.816	853.2
508.023	831.5
508.23	847.97
508.437	792.17
508.644	865.6
508.851	919.46
509.058	884.39
509.265	855.91
509.472	903.57
509.679	981.85
509.885	862.3
510.092	871.22
510.299	885.94
510.506	867.73
510.713	926.63
510.92	891.75
511.126	930.7
511.333	949.88
511.54	930.12
511.746	981.85
511.953	951.23
512.16	971.38
512.367	911.32
512.573	928.57
512.78	920.23
512.987	935.35
513.193	947.17
513.4	864.82
513.606	931.67
513.813	935.54
514.02	925.08
514.226	1010.52
514.433	972.93
514.639	910.55
514.846	953.95
515.052	940.58
515.259	957.63
515.465	960.73
515.672	967.12
515.878	1032.41
516.085	946.39
516.291	1010.33
516.497	944.65
516.704	972.55
516.91	901.05
517.117	902.02
517.323	830.53
517.529	883.23
517.736	897.57
517.942	931.67
518.148	926.43
518.354	903.77
518.561	939.22
518.767	943.87
518.973	985.72
519.179	994.25
519.386	964.6
519.592	974.1
519.798	984.95
520.004	1108.94
520.21	1043.85
520.417	1065.74
520.623	1114.56
520.829	1120.18
521.035	1093.06
521.241	1080.66
521.447	1102.16
521.653	1208.34
521.859	1091.51
522.065	1153.31
522.271	1196.13
522.477	1153.31
522.683	1180.24
522.889	1147.5
523.095	1131.81
523.301	1126.58
523.507	1096.93
523.713	1143.24
523.919	1085.69
524.125	1210.27
524.331	1140.91
524.537	1227.13
524.742	1220.74
524.948	1217.44
525.154	1212.02
525.36	1275.76
525.566	1234.49
525.772	1232.17
525.977	1187.99
526.183	1221.71
526.389	1269.17
526.595	1159.13
526.8	1142.27
527.006	1140.72
527.212	1084.53
527.417	1074.46
527.623	1086.86
527.829	1190.71
528.034	1170.56
528.24	1177.53
528.446	1145.37
528.651	1259.68
528.857	1263.75
529.062	1304.05
529.268	1249.41
529.473	1296.1
529.679	1283.51
529.884	1357.52
530.09	1296.3
530.295	1323.04
530.501	1318.97
530.706	1309.47
530.912	1271.69
531.117	1298.43
531.323	1302.11
531.528	1346.48
531.733	1354.62
531.939	1282.35
532.144	1346.28
532.35	1343.96
532.555	1361.01
532.76	1336.21
532.966	1335.44
533.171	1324.59
533.376	1275.95
533.581	1290.29
533.787	1292.62
533.992	1327.1
534.197	1389.3
534.402	1347.45
534.607	1341.83
534.813	1453.62
535.018	1336.4
535.223	1335.44
535.428	1348.8
535.633	1411
535.838	1444.32
536.043	1389.3
536.249	1510.97
536.454	1421.85
536.659	1425.92
536.864	1398.02
537.069	1378.45
537.274	1386.58
537.479	1409.45
537.684	1419.52
537.889	1348.03
538.094	1445.68
538.299	1420.1
538.504	1415.65
538.708	1417.78
538.913	1465.83
539.118	1426.5
539.323	1464.47
539.528	1398.02
539.733	1383.29
539.938	1430.18
540.142	1432.11
540.347	1394.72
540.552	1353.84
540.757	1365.66
540.962	1357.13
541.166	1329.82
541.371	1327.88
541.576	1371.08
541.781	1297.65
541.985	1398.79
542.19	1408.67
542.395	1456.91
542.599	1476.29
542.804	1428.24
543.008	1507.68
543.213	1427.27
543.418	1392.4
543.622	1476.48
543.827	1366.63
544.031	1473.77
544.236	1477.84
544.44	1434.83
544.645	1496.63
544.849	1453.04
545.054	1499.35
545.258	1505.74
545.463	1513.3
545.667	1436.96
545.872	1501.09
546.076	1436.18
546.281	1486.17
546.485	1429.6
546.689	1497.8
546.894	1482.3
547.098	1449.36
547.302	1450.71
547.507	1471.06
547.711	1494.5
547.915	1541
548.119	1472.03
548.324	1474.74
548.528	1529.18
548.732	1476.29
548.936	1520.27
549.141	1553.98
549.345	1462.53
549.549	1497.21
549.753	1516.59
549.957	1568.13
550.161	1561.34
550.366	1512.13
550.57	1505.93
550.774	1491.98
550.978	1521.63
551.182	1539.26
551.386	1508.65
551.59	1523.37
551.794	1472.03
551.998	1534.99
552.202	1499.15
552.406	1466.02
552.61	1524.73
552.814	1507.48
553.018	1581.69
553.222	1478.03
553.426	1528.99
553.63	1601.26
553.833	1507.68
554.037	1463.5
554.241	1557.28
554.445	1519.3
554.649	1544.88
554.853	1475.51
555.056	1571.61
555.26	1560.57
555.464	1530.15
555.668	1528.02
555.871	1533.83
556.075	1570.45
556.279	1506.9
556.483	1451.68
556.686	1484.43
556.89	1482.88
557.094	1513.1
557.297	1432.11
557.501	1527.05
557.704	1460.4
557.908	1503.03
558.112	1434.05
558.315	1547.98
558.519	1495.08
558.722	1467.76
558.926	1470.67
559.129	1436.18
559.333	1386.97
559.536	1406.35
559.74	1423.98
559.943	1391.62
560.147	1442.96
560.35	1429.21
560.553	1400.15
560.757	1375.54
560.96	1477.65
561.164	1428.05
561.367	1504
561.57	1450.33
561.774	1449.36
561.977	1418.36
562.18	1410.22
562.384	1513.68
562.587	1448.58
562.79	1412.16
562.993	1432.5
563.197	1485.01
563.4	1499.54
563.603	1475.71
563.806	1528.21
564.009	1386.58
564.212	1489.08
564.416	1373.02
564.619	1456.14
564.822	1399.18
565.025	1491.98
565.228	1422.23
565.431	1428.05
565.634	1332.72
565.837	1363.14
566.04	1371.67
566.243	1394.72
566.446	1302.89
566.649	1415.45
566.852	1328.85
567.055	1376.9
567.258	1398.98
567.461	1453.81
567.664	1467.18
567.867	1322.45
568.07	1388.33
568.273	1416.23
568.475	1441.03
568.678	1380.97
568.881	1357.72
569.084	1356.17
569.287	1286.22
569.489	1335.82
569.692	1359.27
569.895	1388.72
570.098	1285.84
570.3	1301.92
570.503	1234.11
570.706	1262.2
570.909	1295.72
571.111	1251.35
571.314	1230.04
571.516	1287
571.719	1300.75
571.922	1258.13
572.124	1245.54
572.327	1282.54
572.529	1185.09
572.732	1240.31
572.935	1305.99
573.137	1336.99
573.34	1223.06
573.542	1308.7
573.745	1301.14
573.947	1283.32
574.15	1228.49
574.352	1232.94
574.554	1347.45
574.757	1241.27
574.959	1242.05
575.162	1235.07
575.364	1220.35
575.566	1317.8
575.769	1164.94
575.971	1231.39
576.173	1151.96
576.376	1219.38
576.578	1268.4
576.78	1311.41
576.982	1164.74
577.185	1234.11
577.387	1184.51
577.589	1160.29
577.791	1208.92
577.993	1204.07
578.196	1184.51
578.398	1201.94
578.6	1245.92
578.802	1139.75
579.004	1151.96
579.206	1170.75
579.408	1209.69
579.61	1131.23
579.812	1217.25
580.014	1169.01
580.216	1182.76
580.418	1152.34
580.62	1175.79
580.822	1113.59
581.024	1177.53
581.226	1220.16
581.428	1210.27
581.63	1259.29
581.832	1155.06
582.034	1243.41
582.236	1194
582.438	1186.83
582.64	1250.77
582.841	1263.36
583.043	1297.46
583.245	1231.78
583.447	1259.87
583.649	1205.62
583.85	1200.01
584.052	1233.33
584.254	1184.7
584.456	1224.61
584.657	1169.2
584.859	1212.02
585.061	1187.22
585.262	1189.54
585.464	1159.13
585.666	1198.07
585.867	1150.79
586.069	1245.92
586.27	1188.57
586.472	1167.46
586.674	1161.26
586.875	1126.58
587.077	1158.35
587.278	1156.8
587.48	1182.96
587.681	1280.02
587.883	1194.39
588.084	1088.6
588.285	1104.88
588.487	1134.13
588.688	1133.16
588.89	1083.37
589.091	1065.16
589.292	1069.42
589.494	1057.41
589.695	983.01
589.896	934.96
590.098	959.18
590.299	1012.26
590.5	971.19
590.702	1009.36
590.903	1045.2
591.104	1086.08
591.305	1067.68
591.507	1131.42
591.708	1067.87
591.909	1041.91
592.11	1136.26
592.311	1075.43
592.512	1067.48
592.714	1030.09
592.915	1046.95
593.116	1070.39
593.317	1062.06
593.518	1046.36
593.719	1078.72
593.92	1088.6
594.121	1102.55
594.322	1065.74
594.523	1063.22
594.724	997.73
594.925	1068.65
595.126	1076.4
595.327	1056.05
595.528	1043.07
595.729	1086.86
595.929	1026.02
596.13	1099.06
596.331	1046.17
596.532	1064.77
596.733	1115.14
596.934	1082.4
597.135	1093.25
597.335	1087.24
597.536	1002.77
597.737	1058.18
597.938	981.46
598.138	1062.83
598.339	1054.31
598.54	1041.71
598.74	1034.93
598.941	1053.53
599.142	1090.34
599.342	1077.56
599.543	1068.84
599.744	1059.35
599.944	1060.31
600.145	1045.2
600.345	1054.31
600.546	1144.59
600.746	1101.39
600.947	1144.01
601.147	1044.62
601.348	1127.16
601.548	998.12
601.749	1078.14
601.949	1024.86
602.15	1022.92
602.35	1027.76
602.551	1095.19
602.751	1039.78
602.951	1037.65
603.152	968.48
603.352	1063.03
603.552	1046.17
603.753	1041.71
603.953	1078.33
604.153	1038.61
604.354	1058.96
604.554	1051.79
604.754	1063.8
604.954	1019.05
605.155	1094.03
605.355	1024.47
605.555	1067.68
605.755	1106.62
605.955	1053.15
606.155	1081.43
606.356	1022.34
606.556	1127.35
606.756	1075.04
606.956	999.67
607.156	1105.46
607.356	1022.15
607.556	1073.49
607.756	1073.88
607.956	1079.69
608.156	1053.34
608.356	1003.93
608.556	1077.17
608.756	1031.83
608.956	999.67
609.156	1045.59
609.356	1001.8
609.556	1023.89
609.755	1042.3
609.955	1017.5
610.155	1034.93
610.355	1063.8
610.555	996.57
610.755	1025.25
610.954	967.12
611.154	1038.42
611.354	1042.3
611.554	975.65
611.753	983.4
611.953	933.41
612.153	1035.71
612.352	1024.08
612.552	967.32
612.752	914.42
612.951	956.66
613.151	974.1
613.351	957.63
613.55	973.71
613.75	1000.06
613.949	959.76
614.149	998.51
614.348	982.23
614.548	954.33
614.747	907.83
614.947	939.42
615.146	891.37
615.346	1018.27
615.545	982.82
615.745	977.78
615.944	983.59
616.144	963.05
616.343	979.33
616.542	915.39
616.742	935.15
616.941	923.33
617.14	857.65
617.34	956.47
617.539	937.67
617.738	908.61
617.938	982.43
618.137	942.52
618.336	940
618.535	961.12
618.734	935.54
618.934	942.9
619.133	910.35
619.332	941.16
619.531	931.86
619.73	933.99
619.929	991.34
620.128	964.99
620.328	998.12
620.527	938.64
620.726	927.02
620.925	956.85
621.124	928.95
621.323	906.67
621.522	909.19
621.721	898.34
621.92	898.73
622.119	966.35
622.318	906.48
622.517	933.41
622.715	935.54
622.914	845.64
623.113	924.69
623.312	851.65
623.511	947.17
623.71	928.37
623.909	905.51
624.107	956.08
624.306	839.25
624.505	870.64
624.704	872.19
624.902	879.74
625.101	960.34
625.3	913.65
625.499	853.39
625.697	859.79
625.896	828.98
626.095	900.67
626.293	862.11
626.492	860.56
626.69	915.78
626.889	888.46
627.088	918.68
627.286	852.23
627.485	848.94
627.683	844.29
627.882	884.78
628.08	800.89
628.279	821.23
628.477	881.68
628.676	796.04
628.874	874.32
629.073	855.14
629.271	809.41
629.469	867.54
629.668	867.73
629.866	831.3
630.065	819.49
630.263	841.57
630.461	804.96
630.66	855.33
630.858	886.52
631.056	877.42
631.254	875.87
631.453	799.92
631.651	871.22
631.849	824.33
632.047	827.43
632.245	835.57
632.444	863.08
632.642	831.11
632.84	866.95
633.038	841.96
633.236	782.48
633.434	816.39
633.632	804.76
633.83	828.01
634.028	876.45
634.227	827.24
634.425	933.99
634.623	798.17
634.821	844.48
635.019	843.51
635.216	817.74
635.414	875.09
635.612	849.9
635.81	831.89
636.008	896.4
636.206	834.79
636.404	868.5
636.602	823.94
636.8	834.79
636.997	872.19
637.195	894.08
637.393	864.44
637.591	908.61
637.789	876.06
637.986	856.88
638.184	864.05
638.382	892.92
638.58	906.87
638.777	917.52
638.975	854.17
639.173	853.97
639.37	862.11
639.568	857.07
639.765	888.27
639.963	845.45
640.161	883.81
640.358	845.25
640.556	814.64
640.753	803.21
640.951	812.32
641.148	856.88
641.346	832.27
641.543	829.75
641.741	833.05
641.938	795.66
642.136	802.44
642.333	795.07
642.531	884
642.728	900.47
642.925	854.55
643.123	799.14
643.32	848.35
643.517	841.96
643.715	865.02
643.912	782.67
644.109	831.5
644.306	803.79
644.504	783.26
644.701	799.53
644.898	869.09
645.095	764.66
645.293	789.84
645.49	826.27
645.687	831.3
645.884	859.98
646.081	723.39
646.278	792.36
646.475	776.09
646.672	780.54
646.87	815.42
647.067	786.36
647.264	807.47
647.461	715.06
647.658	700.14
647.855	739.66
648.052	722.42
648.249	707.11
648.446	727.07
648.642	747.99
648.839	731.52
649.036	696.65
649.233	685.8
649.43	696.07
649.627	689.48
649.824	733.46
650.021	703.82
650.217	710.02
650.414	715.25
650.611	741.99
650.808	754.39
651.004	714.86
651.201	760.2
651.398	813.67
651.595	735.79
651.791	694.91
651.988	768.72
652.185	671.27
652.381	754.19
652.578	656.93
652.775	704.79
652.971	702.27
653.168	737.14
653.364	733.85
653.561	690.84
653.757	710.6
653.954	705.18
654.15	668.94
654.347	762.72
654.543	704.98
654.74	654.22
654.936	654.03
655.133	686.96
655.329	692.58
655.525	680.18
655.722	734.43
655.918	663.91
656.115	698.98
656.311	596.87
656.507	592.41
656.704	568.97
656.9	578.85
657.096	627.68
657.292	593.77
657.489	660.42
657.685	656.93
657.881	629.23
658.077	627.29
658.273	649.96
658.47	741.21
658.666	649.38
658.862	693.55
659.058	648.79
659.254	719.9
659.45	656.35
659.646	724.74
659.842	679.99
660.038	705.18
660.234	627.48
660.43	712.15
660.626	745.67
660.822	740.05
661.018	728.42
661.214	685.8
661.41	640.27
661.606	715.06
661.802	723.78
661.998	687.74
662.194	658.29
662.39	717.58
662.586	693.36
662.781	682.51
662.977	702.66
663.173	700.91
663.369	657.51
663.564	697.62
663.76	726.68
663.956	660.81
664.152	719.71
664.347	624.77
664.543	675.92
664.739	642.21
664.934	631.16
665.13	607.91
665.326	677.86
665.521	686.19
665.717	621.48
665.912	627.68
666.108	565.1
666.304	612.18
666.499	589.7
666.695	569.36
666.89	625.74
667.086	642.79
667.281	657.9
667.477	707.11
667.672	633.1
667.867	651.12
668.063	626.51
668.258	596.29
668.454	615.08
668.649	694.52
668.844	635.62
669.04	620.9
669.235	624.58
669.43	589.7
669.626	583.7
669.821	608.88
670.016	601.52
670.211	611.4
670.407	592.03
670.602	599.58
670.797	615.86
670.992	628.65
671.187	580.6
671.382	647.24
671.578	592.03
671.773	610.43
671.968	554.25
672.163	581.95
672.358	637.56
672.553	576.33
672.748	582.92
672.943	653.64
673.138	581.95
673.333	639.5
673.528	531.19
673.723	590.86
673.918	607.33
674.113	568
674.308	671.85
674.503	592.41
674.698	655.58
674.892	622.83
675.087	623.8
675.282	600.16
675.477	562.38
675.672	618.18
675.867	601.71
676.061	578.27
676.256	573.62
676.451	558.51
676.646	588.73
676.84	563.55
677.035	574.59
677.23	590.86
677.424	593.58
677.619	619.35
677.814	652.67
678.008	639.5
678.203	549.6
678.397	560.06
678.592	648.02
678.787	626.9
678.981	579.05
679.176	605.2
679.37	570.52
679.565	567.03
679.759	605.4
679.954	607.91
680.148	629.42
680.342	644.92
680.537	608.11
680.731	570.71
680.926	626.32
681.12	638.72
681.314	572.26
681.509	591.64
681.703	597.45
681.897	623.03
682.092	604.04
682.286	565.68
682.48	671.66
682.674	633.3
682.869	583.31
683.063	612.18
683.257	677.08
683.451	576.14
683.645	632.33
683.839	600.36
684.034	603.26
684.228	646.28
684.422	580.21
684.616	549.6
684.81	613.34
685.004	591.25
685.198	570.52
685.392	637.56
685.586	536.81
685.78	600.94
685.974	630.39
686.168	642.59
686.362	644.53
686.556	512.78
686.75	499.8
686.944	538.55
687.138	525.38
687.331	445.94
687.525	475.2
687.719	413.78
687.913	469.38
688.107	467.45
688.301	447.69
688.494	518.21
688.688	432.96
688.882	452.14
689.076	441.49
689.269	468.03
689.463	544.17
689.657	463.38
689.85	483.14
690.044	498.25
690.238	516.08
690.431	506.97
690.625	495.15
690.818	504.45
691.012	542.43
691.205	568
691.399	493.6
691.593	580.21
691.786	573.04
691.98	606.17
692.173	619.54
692.366	605.4
692.56	626.51
692.753	660.81
692.947	575.95
693.14	645.89
693.333	663.52
693.527	597.45
693.72	649.38
693.914	617.21
694.107	614.7
694.3	648.99
694.493	608.88
694.687	676.5
694.88	606.17
695.073	697.62
695.266	669.14
695.46	656.93
695.653	697.23
695.846	702.08
696.039	606.56
696.232	665.26
696.425	687.35
696.618	714.09
696.812	723
697.005	767.17
697.198	839.44
697.391	748.77
697.584	770.47
697.777	840.41
697.97	809.61
698.163	812.51
698.356	798.17
698.549	884.39
698.742	816.39
698.935	784.22
699.127	809.41
699.32	795.66
699.513	820.45
699.706	841.38
699.899	878.19
700.092	797.59
700.285	854.94
700.477	782.29
700.67	859.59
700.863	877.22
701.056	951.82
701.248	908.42
701.441	903.96
701.634	871.02
701.826	981.07
702.019	850.49
702.212	943.68
702.404	874.51
702.597	869.67
702.79	923.53
702.982	969.25
703.175	1006.45
703.367	993.86
703.56	1019.05
703.752	1076.4
703.945	1049.66
704.137	1038.61
704.33	1046.75
704.522	1036.68
704.715	1057.41
704.907	1067.29
705.1	1112.82
705.292	1131.03
705.484	1079.3
705.677	1123.48
705.869	1124.83
706.061	1148.08
706.254	1216.86
706.446	1139.17
706.638	1122.7
706.831	1206.21
707.023	1170.75
707.215	1248.83
707.407	1231.59
707.599	1227.52
707.792	1284.48
707.984	1230.62
708.176	1294.75
708.368	1246.89
708.56	1277.12
708.752	1273.24
708.944	1292.23
709.136	1307.54
709.329	1336.02
709.521	1415.26
709.713	1355.97
709.905	1377.48
710.097	1411.38
710.289	1332.92
710.481	1393.56
710.672	1384.65
710.864	1405.77
711.056	1409.25
711.248	1422.04
711.44	1457.69
711.632	1427.08
711.824	1435.21
712.016	1536.16
712.207	1490.63
712.399	1538.29
712.591	1560.18
712.783	1545.46
712.975	1546.04
713.166	1485.4
713.358	1506.51
713.55	1605.52
713.741	1611.91
713.933	1571.03
714.125	1561.73
714.316	1546.23
714.508	1600.68
714.7	1649.5
714.891	1653.96
715.083	1669.07
715.274	1627.41
715.466	1647.56
715.657	1710.92
715.849	1614.82
716.04	1624.12
716.232	1572.39
716.423	1637.29
716.615	1536.16
716.806	1506.71
716.998	1539.84
717.189	1461.37
717.381	1393.95
717.572	1350.35
717.763	1415.45
717.955	1398.79
718.146	1342.22
718.337	1323.81
718.528	1283.32
718.72	1217.06
718.911	1325.17
719.102	1240.11
719.293	1339.89
719.485	1304.82
719.676	1284.09
719.867	1236.62
720.058	1257.35
720.249	1258.52
720.44	1294.17
720.632	1331.17
720.823	1380
721.014	1477.45
721.205	1486.36
721.396	1547.78
721.587	1610.17
721.778	1656.28
721.969	1666.16
722.16	1699.1
722.351	1708.59
722.542	1856.42
722.733	1853.13
722.924	1689.6
723.115	1764.59
723.305	1771.17
723.496	1805.08
723.687	1642.14
723.878	1673.14
724.069	1692.12
724.26	1717.31
724.45	1618.31
724.641	1654.15
724.832	1714.6
725.023	1685.15
725.213	1627.61
725.404	1633.22
725.595	1647.37
725.785	1637.49
725.976	1697.94
726.167	1688.25
726.357	1716.15
726.548	1791.52
726.739	1712.47
726.929	1768.85
727.12	1824.84
727.31	1809.73
727.501	1795.58
727.691	1789.58
727.882	1807.4
728.072	1841.89
728.263	1870.37
728.453	1861.27
728.644	1842.86
728.834	1853.52
729.024	1813.99
729.215	1791.32
729.405	1864.17
729.596	1929.46
729.786	1892.46
729.976	1923.46
730.167	1959.69
730.357	1882.77
730.547	1895.75
730.737	1924.62
730.928	1976.16
731.118	2045.71
731.308	1950
731.498	2010.45
731.688	2082.91
731.879	2060.05
732.069	2107.71
732.259	2138.13
732.449	2165.64
732.639	2208.07
732.829	2243.14
733.019	2212.92
733.209	2296.42
733.399	2297.58
733.589	2362.1
733.779	2379.35
733.969	2338.27
734.159	2391.36
734.349	2470.41
734.539	2473.12
734.729	2434.18
734.919	2491.52
735.109	2518.84
735.299	2510.32
735.488	2519.04
735.678	2518.26
735.868	2553.33
736.058	2516.52
736.248	2527.76
736.437	2434.56
736.627	2437.66
736.817	2589.75
737.007	2481.64
737.196	2582.78
737.386	2525.04
737.576	2517.87
737.765	2580.07
737.955	2551.01
738.144	2640.52
738.334	2613.59
738.524	2589.37
738.713	2630.05
738.903	2610.87
739.092	2644.2
739.282	2661.05
739.471	2599.25
739.661	2620.75
739.85	2678.68
740.04	2637.8
740.229	2680.62
740.419	2720.92
740.608	2731.77
740.797	2697.67
740.987	2759.86
741.176	2758.12
741.365	2729.06
741.555	2684.69
741.744	2754.63
741.933	2743.2
742.123	2781.56
742.312	2750.37
742.501	2758.12
742.69	2818.76
742.88	2752.5
743.069	2842.4
743.258	2799.2
743.447	2833.1
743.636	2795.51
743.825	2797.65
744.014	2827.48
744.204	2823.22
744.393	2782.53
744.582	2857.13
744.771	2899.56
744.96	2811.4
745.149	2872.82
745.338	2825.35
745.527	2830.39
745.716	2848.6
745.905	2809.08
746.094	2869.72
746.283	2923
746.471	2840.46
746.66	2920.87
746.849	2907.11
747.038	2905.76
747.227	2825.16
747.416	2922.03
747.604	2834.26
747.793	2859.45
747.982	2905.56
748.171	2907.31
748.359	2892.19
748.548	2873.01
748.737	2908.47
748.926	2845.89
749.114	2807.33
749.303	2903.04
749.491	2873.98
749.68	2781.18
749.869	2875.53
750.057	2794.35
750.246	2837.17
750.434	2818.38
750.623	2841.24
750.811	2835.81
751	2877.28
751.188	2832.91
751.377	2873.79
751.565	2820.12
751.754	2800.36
751.942	2812.37
752.131	2875.14
752.319	2804.62
752.507	2741.07
752.696	2855.19
752.884	2851.31
753.072	2799.2
753.261	2824.38
753.449	2830.39
753.637	2813.53
753.825	2919.71
754.014	2837.75
754.202	2841.82
754.39	2869.72
754.578	2855.38
754.766	2800.94
754.955	2767.03
755.143	2874.18
755.331	2796.87
755.519	2774.2
755.707	2777.88
755.895	2794.35
756.083	2780.6
756.271	2737.78
756.459	2735.45
756.647	2788.54
756.835	2734.1
757.023	2727.51
757.211	2724.6
757.399	2752.31
757.587	2732.35
757.775	2706.39
757.963	2738.55
758.151	2716.85
758.339	2675.39
758.526	2688.57
758.714	2719.37
758.902	2641.87
759.09	2528.14
759.278	2383.41
759.465	2246.63
759.653	1848.28
759.841	1742.89
760.028	1464.66
760.216	1267.43
760.404	1215.51
760.591	935.93
760.779	800.5
760.967	706.73
761.154	608.3
761.342	659.26
761.529	646.86
761.717	732.3
761.905	680.96
762.092	736.17
762.28	702.66
762.467	714.28
762.655	653.83
762.842	684.25
763.029	684.64
763.217	676.31
763.404	669.72
763.592	701.11
763.779	679.21
763.966	717.38
764.154	754.19
764.341	809.22
764.528	814.64
764.716	878
764.903	918.49
765.09	939.8
765.277	988.82
765.465	1174.82
765.652	1191.87
765.839	1249.41
766.026	1331.95
766.213	1358.49
766.4	1453.81
766.588	1605.91
766.775	1582.85
766.962	1705.69
767.149	1760.71
767.336	1898.85
767.523	1819.61
767.71	1980.81
767.897	2042.03
768.084	2096.47
768.271	2102.67
768.458	2185.4
768.645	2230.16
768.832	2208.65
769.019	2276.27
769.206	2269.68
769.392	2298.36
769.579	2427.2
769.766	2362.88
769.953	2348.54
770.14	2422.94
770.327	2382.06
770.513	2439.6
770.7	2493.66
770.887	2431.66
771.073	2456.84
771.26	2421
771.447	2453.16
771.634	2419.64
771.82	2521.17
772.007	2441.54
772.193	2474.09
772.38	2518.65
772.567	2486.29
772.753	2421.58
772.94	2481.06
773.126	2480.67
773.313	2487.84
773.499	2496.17
773.686	2482.22
773.872	2476.8
774.059	2479.12
774.245	2428.56
774.432	2450.45
774.618	2363.07
774.804	2445.03
774.991	2387.1
775.177	2439.6
775.363	2415.58
775.55	2467.5
775.736	2386.32
775.922	2424.1
776.109	2447.16
776.295	2415.19
776.481	2439.21
776.667	2446.58
776.853	2412.09
777.04	2408.79
777.226	2391.55
777.412	2497.92
777.598	2377.02
777.784	2351.45
777.97	2371.79
778.156	2383.22
778.342	2314.44
778.528	2352.22
778.715	2285.38
778.901	2342.34
779.087	2397.75
779.272	2365.59
779.458	2297.97
779.644	2403.18
779.83	2288.48
780.016	2439.02
780.202	2374.11
780.388	2313.66
780.574	2257.28
780.76	2276.08
780.946	2375.47
781.131	2318.7
781.317	2286.35
781.503	2232.29
781.689	2293.71
781.874	2406.28
782.06	2259.03
782.246	2275.11
782.432	2296.62
782.617	2270.27
782.803	2314.05
782.989	2221.63
783.174	2273.75
783.36	2198.77
783.545	2209.82
783.731	2248.76
783.916	2114.3
784.102	2244.5
784.288	2226.67
784.473	2216.98
784.659	2184.82
784.844	2247.98
785.029	2186.57
785.215	2180.75
785.4	2160.22
785.586	2261.74
785.771	2134.25
785.956	2171.84
786.142	2149.95
786.327	2137.55
786.512	2131.35
786.698	2144.91
786.883	2073.03
787.068	2146.27
787.254	2120.89
787.439	2126.5
787.624	2109.07
787.809	2094.73
787.994	2081.36
788.18	2122.63
788.365	2032.15
788.55	2048.81
788.735	2070.12
788.92	2057.72
789.105	2049.78
789.29	2046.29
789.475	1996.69
789.66	1993.4
789.845	1979.84
790.03	1967.44
790.215	2048.62
790.4	2023.04
790.585	2059.86
790.77	2020.91
790.955	1944.77
791.14	1970.73
791.325	2056.17
791.51	1918.61
791.695	1974.8
791.879	1954.84
792.064	1897.5
792.249	2013.55
792.434	1960.66
792.618	1967.83
792.803	2027.31
792.988	1967.05
793.173	1944.38
793.357	2020.72
793.542	1928.5
793.727	1981.19
793.911	2004.83
794.096	1971.89
794.281	2004.06
794.465	2085.04
794.65	1960.66
794.834	1992.43
795.019	2053.85
795.203	2015.1
795.388	2049.59
795.572	2045.91
795.757	2049.78
795.941	2035.06
796.126	2049.01
796.31	1930.24
796.494	2001.15
796.679	1942.45
796.863	1973.83
797.048	2030.02
797.232	2005.61
797.416	2001.93
797.601	1994.37
797.785	2065.09
797.969	2070.51
798.153	1962.79
798.338	2015.88
798.522	2061.6
798.706	2081.75
798.89	2034.09
799.074	2084.66
799.258	2108.68
799.443	2009.09
799.627	2035.83
799.811	2083.88
799.995	2011.42
800.179	1975.58
800.363	2004.83
800.547	2085.04
800.731	2058.11
800.915	1989.72
801.099	2001.34
801.283	2025.56
801.467	1999.02
801.651	1998.83
801.835	2045.13
802.019	2020.53
802.202	2035.83
802.386	1943.41
802.57	1989.53
802.754	1968.99
802.938	1987.98
803.121	2002.12
803.305	2029.24
803.489	2016.07
803.673	2031.38
803.856	2060.82
804.04	2007.74
804.224	2005.99
804.407	2009.29
804.591	1987.59
804.775	2014.71
804.958	2044.16
805.142	2089.5
805.326	2016.65
805.509	2030.99
805.693	2054.43
805.876	2090.47
806.06	2040.48
806.243	2042.42
806.427	2095.51
806.61	2102.67
806.794	2022.66
806.977	2070.9
807.16	2053.66
807.344	2065.28
807.527	2034.67
807.71	2018.78
807.894	2073.03
808.077	2093.57
808.26	2020.33
808.444	2013.94
808.627	2024.4
808.81	1991.27
808.993	1923.26
809.177	1944.96
809.36	1955.43
809.543	2015.49
809.726	1910.28
809.909	1908.73
810.092	1909.51
810.276	1896.53
810.459	1946.13
810.642	1902.15
810.825	1844.22
811.008	1897.5
811.191	1801.78
811.374	1772.92
811.557	1848.28
811.74	1916.29
811.923	1765.94
812.106	1735.72
812.289	1738.43
812.472	1772.72
812.654	1799.46
812.837	1706.65
813.02	1698.13
813.203	1691.93
813.386	1605.32
813.569	1586.53
813.751	1543.71
813.934	1582.08
814.117	1571.61
814.3	1527.44
814.482	1506.13
814.665	1450.13
814.848	1446.65
815.03	1402.67
815.213	1386.97
815.396	1414.87
815.578	1371.47
815.761	1380.19
815.943	1373.02
816.126	1311.22
816.309	1303.66
816.491	1266.65
816.674	1183.34
816.856	1231.59
817.039	1247.67
817.221	1318.97
817.403	1299.59
817.586	1265.69
817.768	1265.88
817.951	1203.3
818.133	1205.82
818.315	1235.07
818.498	1298.24
818.68	1311.6
818.862	1285.64
819.045	1336.99
819.227	1305.6
819.409	1296.69
819.591	1310.83
819.774	1286.8
819.956	1257.94
820.138	1327.49
820.32	1318.97
820.502	1371.67
820.684	1431.15
820.866	1389.68
821.048	1447.81
821.231	1469.51
821.413	1428.24
821.595	1461.18
821.777	1450.91
821.959	1422.43
822.141	1494.5
822.323	1321.29
822.505	1316.06
822.686	1282.35
822.868	1218.99
823.05	1116.89
823.232	1105.84
823.414	1071.36
823.596	1137.23
823.778	1134.13
823.96	1119.6
824.141	1154.86
824.323	1166.49
824.505	1223.64
824.687	1301.53
824.868	1306.95
825.05	1375.54
825.232	1385.42
825.413	1444.51
825.595	1406.93
825.777	1336.21
825.958	1376.12
826.14	1364.11
826.321	1385.62
826.503	1398.4
826.685	1397.63
826.866	1400.15
827.048	1450.13
827.229	1363.92
827.411	1328.07
827.592	1269.75
827.773	1295.52
827.955	1268.59
828.136	1302.69
828.318	1265.88
828.499	1276.73
828.68	1217.44
828.862	1273.24
829.043	1299.79
829.224	1267.82
829.406	1211.05
829.587	1269.95
829.768	1242.05
829.949	1265.49
830.131	1276.34
830.312	1356.17
830.493	1277.89
830.674	1314.32
830.855	1271.69
831.036	1267.43
831.218	1299.01
831.399	1306.37
831.58	1251.54
831.761	1283.7
831.942	1280.99
832.123	1256.77
832.304	1214.73
832.485	1250.57
832.666	1250.96
832.847	1274.21
833.028	1256.19
833.209	1298.24
833.389	1255.42
833.57	1149.83
833.751	1232.56
833.932	1273.63
834.113	1257.35
834.294	1246.12
834.475	1317.61
834.655	1297.85
834.836	1310.25
835.017	1325.36
835.198	1218.99
835.378	1285.64
835.559	1321.87
835.74	1265.49
835.92	1285.25
836.101	1230.23
836.281	1324.2
836.462	1303.85
836.643	1305.6
836.823	1347.64
837.004	1316.64
837.184	1329.62
837.365	1359.65
837.545	1359.27
837.726	1322.45
837.906	1364.5
838.087	1311.6
838.267	1284.29
838.448	1267.43
838.628	1336.79
838.808	1301.92
838.989	1380.38
839.169	1269.37
839.349	1321.68
839.53	1338.15
839.71	1342.41
839.89	1296.3
840.07	1350.74
840.251	1282.15
840.431	1309.86
840.611	1339.89
840.791	1265.49
840.971	1340.47
841.151	1301.72
841.332	1265.3
841.512	1330.79
841.692	1208.53
841.872	1302.69
842.052	1272.66
842.232	1317.03
842.412	1244.57
842.592	1295.52
842.772	1303.08
842.952	1307.34
843.132	1296.3
843.312	1251.74
843.492	1229.26
843.672	1310.83
843.851	1216.67
844.031	1305.79
844.211	1225.19
844.391	1238.56
844.571	1303.27
844.751	1285.45
844.93	1281.19
845.11	1224.81
845.29	1275.57
845.47	1283.51
845.649	1263.17
845.829	1282.54
846.009	1244.76
846.188	1279.64
846.368	1270.34
846.547	1269.17
846.727	1284.29
846.907	1214.15
847.086	1233.91
847.266	1266.65
847.445	1244.18
847.625	1234.88
847.804	1222.48
847.984	1218.99
848.163	1190.12
848.343	1191.48
848.522	1212.41
848.701	1249.22
848.881	1173.46
849.06	1249.61
849.239	1246.89
849.419	1256.77
849.598	1186.64
849.777	1164.94
849.957	1174.24
850.136	1140.72
850.315	1108.56
850.494	1090.15
850.674	1092.48
850.853	1175.4
851.032	1155.25
851.211	1200.39
851.39	1156.99
851.569	1108.56
851.748	1112.24
851.927	1163.39
852.107	1176.37
852.286	1111.46
852.465	1063.03
852.644	1189.16
852.823	1169.01
853.002	1105.65
853.181	1143.24
853.359	1172.3
853.538	1097.32
853.717	1160.09
853.896	1064.96
854.075	1032.22
854.254	1019.82
854.433	944.84
854.611	992.31
854.79	948.91
854.969	1018.46
855.148	1006.26
855.327	979.13
855.505	1039.2
855.684	957.05
855.863	1049.66
856.041	1013.81
856.22	1044.04
856.399	1020.79
856.577	1119.99
856.756	1067.1
856.934	1168.04
857.113	1187.99
857.291	1078.33
857.47	1080.66
857.648	1081.04
857.827	1108.75
858.005	1129.29
858.184	1052.18
858.362	1123.09
858.541	1093.64
858.719	1096.74
858.898	1107.2
859.076	1066.13
859.254	1137.81
859.433	1062.83
859.611	1056.83
859.789	1002.58
859.967	1134.91
860.146	1151.96
860.324	1006.65
860.502	1032.03
860.68	1033.77
860.859	1037.06
861.037	1047.72
861.215	1033.58
861.393	1039.97
861.571	1059.54
861.749	1017.5
861.927	1070.97
862.105	1088.41
862.283	1056.83
862.461	1011.88
862.639	998.7
862.817	1064.58
862.995	1054.11
863.173	1028.15
863.351	1027.57
863.529	1033.58
863.707	1073.49
863.885	1037.45
864.063	952.01
864.241	962.86
864.418	1074.07
864.596	1006.06
864.774	975.65
864.952	995.41
865.129	1028.35
865.307	970.61
865.485	917.52
865.663	1001.22
865.84	933.99
866.018	958.98
866.196	862.11
866.373	892.34
866.551	855.91
866.728	796.43
866.906	844.09
867.084	866.18
867.261	925.66
867.439	912.29
867.616	929.73
867.794	917.91
867.971	927.21
868.149	928.37
868.326	967.9
868.503	958.98
868.681	926.63
868.858	914.23
869.035	920.23
869.213	946
869.39	933.22
869.567	1004.9
869.745	917.52
869.922	960.34
870.099	973.9
870.276	983.4
870.454	985.53
870.631	954.33
870.808	943.1
870.985	966.35
871.162	999.67
871.339	942.52
871.517	879.35
871.694	889.04
871.871	927.98
872.048	903.57
872.225	912.68
872.402	919.27
872.579	876.45
872.756	939.61
872.933	894.47
873.11	889.43
873.287	917.33
873.463	900.47
873.64	857.07
873.817	928.18
873.994	870.83
874.171	896.4
874.348	920.43
874.524	827.24
874.701	866.95
874.878	845.06
875.055	883.62
875.231	872.96
875.408	902.8
875.585	848.16
875.762	857.46
875.938	862.11
876.115	858.04
876.291	852.42
876.468	859.98
876.645	791.2
876.821	824.72
876.998	839.25
877.174	853.2
877.351	845.84
877.527	832.27
877.704	859.2
877.88	858.62
878.057	808.64
878.233	875.87
878.409	803.99
878.586	843.7
878.762	819.49
878.938	893.11
879.115	754
879.291	820.07
879.467	772.99
879.644	802.63
879.82	825.49
879.996	794.3
880.172	786.74
880.349	806.7
880.525	829.56
880.701	777.25
880.877	776.86
881.053	782.09
881.229	812.9
881.405	837.12
881.581	778.8
881.757	786.74
881.933	799.53
882.109	839.83
882.285	820.45
882.461	758.26
882.637	771.05
882.813	768.14
882.989	802.44
883.165	843.12
883.341	764.66
883.517	847.77
883.693	824.72
883.869	832.85
884.044	754.97
884.22	822.2
884.396	839.05
884.572	807.09
884.747	836.34
884.923	812.12
885.099	849.52
885.275	837.31
885.45	783.06
885.626	779.19
885.801	769.69
885.977	804.76
886.153	748.77
886.328	782.67
886.504	743.15
886.679	784.03
886.855	757.29
887.03	820.84
887.206	835.95
887.381	802.24
887.557	797.01
887.732	812.32
887.908	799.72
888.083	812.9
888.258	785.58
888.434	773.76
888.609	759.81
888.784	826.07
888.96	784.22
889.135	766.79
889.31	762.72
889.485	803.6
889.661	789.26
889.836	817.74
890.011	800.89
890.186	767.17
890.361	747.99
890.537	794.88
890.712	803.6
890.887	802.44
891.062	768.53
891.237	823.94
891.412	713.7
891.587	792.56
891.762	819.87
891.937	833.24
892.112	745.28
892.287	775.89
892.462	728.23
892.637	705.95
892.812	716.99
892.987	736.37
893.161	723.39
893.336	727.84
893.511	723.58
893.686	700.72
893.861	706.53
894.035	720.09
894.21	702.27
894.385	661.78
894.56	671.27
894.734	642.4
894.909	656.54
895.084	679.99
895.258	671.27
895.433	656.16
895.608	622.64
895.782	587.38
895.957	617.02
896.131	594.35
896.306	533.32
896.48	552.12
896.655	564.71
896.829	507.75
897.004	524.8
897.178	526.73
897.353	535.65
897.527	582.34
897.701	546.88
897.876	467.06
898.05	569.75
898.224	553.66
898.399	585.25
898.573	517.63
898.747	439.74
898.921	486.63
899.096	415.72
899.27	422.89
899.444	408.16
899.618	456.79
899.792	450.4
899.967	456.6
900.141	501.74
900.315	425.02
900.489	453.69
900.663	474.42
900.837	461.44
901.011	417.07
901.185	525.57
901.359	466.09
901.533	456.6
901.707	455.82
901.881	480.43
902.055	422.3
902.229	423.66
902.403	526.54
902.576	479.46
902.75	454.85
902.924	580.6
903.098	501.35
903.272	543.59
903.446	568.97
903.619	551.15
903.793	554.25
903.967	556.18
904.14	601.71
904.314	572.26
904.488	564.13
904.661	601.52
904.835	574.59
905.009	595.32
905.182	637.17
905.356	584.08
905.529	591.06
905.703	515.11
905.876	550.18
906.05	531.38
906.223	542.62
906.397	461.44
906.57	461.05
906.744	436.25
906.917	428.12
907.09	451.56
907.264	465.51
907.437	453.3
907.61	385.49
907.784	432.57
907.957	438.19
908.13	441.68
908.304	459.89
908.477	408.74
908.65	448.46
908.823	394.79
908.996	475.97
909.17	401.38
909.343	421.34
909.516	425.99
909.689	406.03
909.862	366.7
910.035	419.4
910.208	370.57
910.381	381.62
910.554	467.25
910.727	398.09
910.9	389.75
911.073	385.88
911.246	450.01
911.419	438.58
911.592	439.55
911.765	387.24
911.938	400.8
912.11	431.22
912.283	412.81
912.456	428.12
912.629	389.95
912.802	414.17
912.974	358.76
913.147	319.23
913.32	294.62
913.493	311.67
913.665	342.29
913.838	352.75
914.01	354.11
914.183	373.48
914.356	329.69
914.528	383.36
914.701	419.01
914.873	385.69
915.046	365.15
915.218	326.79
915.391	269.24
915.563	292.3
915.736	338.22
915.908	349.84
916.081	345.39
916.253	329.31
916.425	335.89
916.598	379.29
916.77	352.75
916.942	328.92
917.115	285.13
917.287	345.58
917.459	319.23
917.632	279.13
917.804	235.92
917.976	317.29
918.148	330.47
918.32	342.48
918.493	367.67
918.665	360.69
918.837	346.55
919.009	412.42
919.181	397.89
919.353	345
919.525	375.03
919.697	362.82
919.869	370.57
920.041	427.15
920.213	489.53
920.385	386.27
920.557	387.04
920.729	410.87
920.901	398.47
921.073	388.2
921.244	331.44
921.416	399.44
921.588	370.57
921.76	364.37
921.932	408.35
922.103	357.4
922.275	355.07
922.447	382.2
922.619	324.66
922.79	364.18
922.962	331.44
923.134	387.62
923.305	303.34
923.477	287.46
923.648	291.91
923.82	332.79
923.991	262.08
924.163	287.46
924.335	311.48
924.506	310.12
924.677	369.61
924.849	266.73
925.02	338.8
925.192	363.02
925.363	318.07
925.535	312.06
925.706	309.35
925.877	355.85
926.049	285.71
926.22	330.08
926.391	330.47
926.562	342.48
926.734	298.11
926.905	344.03
927.076	261.69
927.247	264.21
927.419	247.74
927.59	260.14
927.761	286.68
927.932	266.92
928.103	255.49
928.274	241.93
928.445	226.43
928.616	231.27
928.787	220.23
928.958	235.34
929.129	228.94
929.3	229.91
929.471	173.15
929.642	152.61
929.813	125.29
929.984	197.17
930.155	125.1
930.326	190.97
930.496	138.27
930.667	111.73
930.838	134.01
931.009	101.85
931.18	106.88
931.35	124.51
931.521	140.4
931.692	85.18
931.863	36.55
932.033	123.55
932.204	101.07
932.374	107.66
932.545	55.15
932.716	108.24
932.886	102.82
933.057	29.97
933.227	46.43
933.398	116.38
933.568	57.48
933.739	-9.56
933.909	40.43
934.08	75.5
934.25	5.94
934.421	22.8
934.591	55.54
934.761	17.57
934.932	-11.3
935.102	42.56
935.272	30.55
935.443	30.35
935.613	22.6
935.783	44.88
935.953	-4.91
936.123	166.95
936.294	22.02
936.464	11.95
936.634	34.81
936.804	2.07
936.974	-2.39
937.144	51.67
937.314	39.65
937.484	33.65
937.655	25.32
937.825	75.88
937.995	21.83
938.165	61.16
938.334	0.71
938.504	63.29
938.674	41.98
938.844	19.7
939.014	85.96
939.184	84.41
939.354	138.27
939.524	126.45
939.694	69.49
939.863	49.53
940.033	124.51
940.203	98.36
940.373	70.27
940.542	114.25
940.712	81.5
940.882	109.6
941.051	127.23
941.221	79.95
941.391	128.78
941.56	83.25
941.73	47.98
941.899	165.4
942.069	68.72
942.238	101.27
942.408	67.36
942.577	87.32
942.747	46.43
942.916	32.48
943.086	43.92
943.255	99.91
943.425	80.53
943.594	44.69
943.763	7.88
943.933	32.87
944.102	-4.33
944.271	39.85
944.441	38.68
944.61	45.66
944.779	56.51
944.948	133.04
945.117	-6.65
945.287	63.1
945.456	-7.04
945.625	45.27
945.794	69.3
945.963	35.2
946.132	69.1
946.301	58.25
946.47	87.9
946.639	9.04
946.808	12.92
946.977	98.17
947.146	101.27
947.315	19.89
947.484	119.28
947.653	45.47
947.822	50.7
947.991	9.24
948.16	130.71
948.329	97
948.498	58.64
948.666	50.7
948.835	77.63
949.004	14.08
949.173	9.24
949.341	53.22
949.51	50.89
949.679	102.43
949.847	84.02
950.016	114.25
950.185	112.12
950.353	35
950.522	36.94
950.69	97.97
950.859	36.17
951.028	113.28
951.196	66.2
951.365	43.14
951.533	43.33
951.701	71.43
951.87	73.75
952.038	44.11
952.207	55.73
952.375	101.07
952.543	10.59
952.712	73.75
952.88	41.2
953.048	120.25
953.217	50.5
953.385	48.76
953.553	127.03
953.721	6.91
953.89	50.89
954.058	40.62
954.226	12.34
954.394	69.68
954.562	8.65
954.73	63.29
954.898	28.42
955.067	98.17
955.235	32.1
955.403	71.23
955.571	121.41
955.739	85.77
955.907	42.95
956.075	22.02
956.243	27.84
956.41	89.06
956.578	3.42
956.746	-2.97
956.914	50.5
957.082	61.16
957.25	88.67
957.418	29.38
957.585	44.88
957.753	91.19
957.921	4
958.089	58.83
958.256	68.91
958.424	69.3
958.592	55.35
958.759	47.79
958.927	76.27
959.095	41.4
959.262	48.95
959.43	42.17
959.597	15.63
959.765	35.2
959.932	25.51
960.1	86.15
960.267	44.3
960.435	24.35
960.602	99.91
960.77	42.75
960.937	4.2
961.104	74.33
961.272	-2.58
961.439	54.18
961.606	92.55
961.774	74.92
961.941	30.93
962.108	74.33
962.275	53.6
962.443	108.82
962.61	94.29
962.777	144.28
962.944	99.72
963.111	60.97
963.278	41.4
963.446	85.18
963.613	52.83
963.78	59.42
963.947	94.87
964.114	62.52
964.281	135.56
964.448	61.35
964.615	43.92
964.782	89.64
964.949	90.42
965.116	73.37
965.282	110.18
965.449	71.82
965.616	38.88
965.783	78.79
965.95	62.13
966.117	29.58
966.283	90.61
966.45	66
966.617	61.16
966.784	112.12
966.95	89.45
967.117	114.25
967.284	36.94
967.45	53.02
967.617	129.16
967.784	79.18
967.95	142.15
968.117	56.9
968.283	140.01
968.45	159.2
968.616	74.53
968.783	124.13
968.949	74.53
969.116	134.98
969.282	113.67
969.449	93.9
969.615	90.42
969.781	45.08
969.948	78.98
970.114	50.5
970.28	135.17
970.447	79.37
970.613	118.12
970.779	82.67
970.945	99.72
971.112	88.87
971.278	67.75
971.444	88.48
971.61	106.3
971.776	72.01
971.942	86.15
972.108	103.59
972.275	96.42
972.441	104.37
972.607	128.2
972.773	52.83
972.939	95.45
973.105	59.8
973.271	47.4
973.437	71.43
973.602	40.23
973.768	82.28
973.934	95.65
974.1	90.8
974.266	20.86
974.432	84.41
974.598	67.75
974.763	92.93
974.929	47.6
975.095	151.25
975.261	35
975.426	13.69
975.592	71.82
975.758	133.04
975.923	5.55
976.089	49.73
976.255	98.75
976.42	99.91
976.586	50.5
976.751	89.45
976.917	152.03
977.082	94.29
977.248	41.4
977.413	20.67
977.579	53.41
977.744	61.55
977.91	62.32
978.075	45.08
978.24	94.87
978.406	71.43
978.571	44.69
978.736	10.01
978.902	81.31
979.067	23.19
979.232	23.77
979.397	102.04
979.563	100.88
979.728	41.59
979.893	59.61
980.058	69.68
980.223	110.57
980.388	64.45
980.554	60.77
980.719	44.3
980.884	73.75
981.049	115.6
981.214	34.42
981.379	87.7
981.544	56.51
981.709	65.42
981.874	60.19
982.039	74.72
982.204	107.85
982.368	64.45
982.533	31.32
982.698	99.52
982.863	95.26
983.028	41.4
983.193	89.83
983.357	98.17
983.522	78.98
983.687	27.84
983.852	36.17
984.016	46.05
984.181	88.09
984.346	105.53
984.51	98.55
984.675	42.95
984.839	105.72
985.004	95.84
985.168	121.61
985.333	82.28
985.498	48.57
985.662	90.03
985.827	101.85
985.991	77.63
986.155	41.98
986.32	85.57
986.484	119.67
986.649	106.69
986.813	35
986.977	54.18
987.142	89.64
987.306	25.32
987.47	29.97
987.634	63.29
987.799	56.12
987.963	95.07
988.127	102.23
988.291	131.68
988.455	70.07
988.62	60.19
988.784	98.94
988.948	55.35
989.112	33.45
989.276	92.16
989.44	78.6
989.604	40.43
989.768	48.18
989.932	132.65
990.096	26.29
990.26	42.37
990.424	39.46
990.588	67.55
990.752	103.2
990.915	107.08
991.079	55.73
991.243	16.02
991.407	78.98
991.571	66.39
991.734	77.05
991.898	71.04
992.062	163.46
992.226	66.2
992.389	53.02
992.553	6.72
992.717	28.03
992.88	58.45
993.044	52.44
993.207	47.02
993.371	89.45
993.535	99.13
993.698	54.18
993.862	107.47
994.025	110.76
994.189	68.52
994.352	85.77
994.515	51.86
994.679	88.67
994.842	34.62
995.006	73.17
995.169	26.67
995.332	31.32
995.496	71.23
995.659	7.3
995.822	46.63
995.985	30.16
996.149	92.55
996.312	54.96
996.475	110.95
996.638	35
996.801	105.53
996.964	110.57
997.128	42.17
997.291	65.81
997.454	64.26
997.617	-5.68
997.78	62.13
997.943	31.9
998.106	90.03
998.269	21.44
998.432	46.24
998.595	34.23
998.758	4.39
998.92	22.41
999.083	11.37
999.246	35.39
999.409	-3.55
999.572	-4.13
999.735	36.17
999.897	63.1
1000.06	28.61
1000.223	37.13
1000.386	86.73
1000.548	72.59
1000.711	66.58
1000.874	36.75
1001.036	-2.78
1001.199	69.3
1001.361	47.6
1001.524	42.56
1001.687	81.89
1001.849	19.5
1002.012	81.89
1002.174	31.13
1002.337	95.84
1002.499	44.5
1002.661	67.17
1002.824	17.95
1002.986	6.72
1003.149	35.39
1003.311	6.33
1003.473	105.14
1003.636	21.64
1003.798	57.67
1003.96	61.74
1004.123	56.51
1004.285	35.78
1004.447	24.54
1004.609	18.54
1004.771	86.15
1004.933	-43.66
1005.096	12.92
1005.258	-13.63
1005.42	35.97
1005.582	68.91
1005.744	67.17
1005.906	-9.95
1006.068	46.82
1006.23	-31.65
1006.392	-1.03
1006.554	16.6
1006.716	74.53
1006.878	67.94
1007.04	21.05
1007.202	31.71
1007.363	36.75
1007.525	40.04
1007.687	61.74
1007.849	90.22
1008.011	-32.42
1008.172	-24.67
1008.334	45.08
1008.496	58.64
1008.658	-0.45
1008.819	-7.81
1008.981	7.3
1009.143	-2.78
1009.304	20.86
1009.466	55.73
1009.627	67.17
1009.789	133.43
1009.95	60.97
1010.112	38.1
1010.273	25.32
1010.435	14.08
1010.596	18.54
1010.758	25.51
1010.919	16.21
1011.081	-27.38
1011.242	34.03
1011.403	49.34
1011.565	39.65
1011.726	36.94
1011.887	5.75
1012.049	16.79
1012.21	76.27
1012.371	109.98
1012.532	-58.96
1012.693	29.97
1012.855	5.94
1013.016	27.64
1013.177	52.25
1013.338	22.8
1013.499	95.65
1013.66	61.35
1013.821	61.74
1013.982	28.42
1014.143	25.51
1014.304	26.29
1014.465	25.51
1014.626	72.4
1014.787	15.63
1014.948	83.25
1015.109	-43.27
1015.27	71.23
1015.431	38.68
1015.592	-9.95
1015.752	66.58
1015.913	33.84
1016.074	61.55
1016.235	35.58
1016.395	16.99
1016.556	22.41
1016.717	25.12
1016.877	79.76
1017.038	16.21
1017.199	46.43
1017.359	34.03
1017.52	-2.78
1017.681	20.86
1017.841	34.81
1018.002	-13.63
1018.162	10.98
1018.323	77.43
1018.483	29.97
1018.644	35.97
1018.804	-29.9
1018.964	-14.21
1019.125	3.62
1019.285	27.25
1019.446	-25.64
1019.606	-3.94
1019.766	-27.38
1019.926	37.52
1020.087	45.08
1020.247	-2.58
1020.407	27.64
1020.567	67.55
1020.728	16.02
1020.888	-7.23
1021.048	-8.01
1021.208	9.04
1021.368	-14.21
1021.528	77.63
1021.688	54.18
1021.848	47.4
1022.008	10.01
1022.168	23.19
1022.328	19.12
1022.488	37.72
1022.648	10.01
1022.808	29.77
1022.968	30.16
1023.128	5.75
1023.288	12.14
1023.448	29.19
1023.608	39.46
1023.767	50.89
1023.927	-8.2
1024.087	-8.78
1024.247	-14.6
1024.406	-3.36
1024.566	-10.72
1024.726	1.29
1024.885	12.53
1025.045	43.14
1025.205	6.14
1025.364	-7.62
1025.524	25.51
1025.683	8.65
1025.843	17.95
1026.003	14.66
1026.162	83.05
1026.321	56.12
1026.481	13.5
1026.64	-6.85
1026.8	31.71
1026.959	9.62
1027.119	3.62
1027.278	-6.07
1027.437	11.17
1027.597	25.12
1027.756	21.44
1027.915	47.21
1028.074	22.6
1028.234	-1.81
1028.393	16.79
1028.552	-4.52
1028.711	-60.13
1028.87	69.49
1029.03	-23.7
1029.189	3.81
1029.348	-42.5
1029.507	-2.97
1029.666	1.29
1029.825	-26.03
1029.984	-6.46
1030.143	16.79
1030.302	10.2
1030.461	-36.68
1030.62	-0.65
1030.779	48.76
1030.938	-19.25
1031.097	-17.5
1031.255	19.5
1031.414	49.73
1031.573	38.3
1031.732	-33.58
1031.891	1.49
1032.049	56.7
1032.208	39.46
1032.367	21.05
1032.525	-8.59
1032.684	-14.6
1032.843	24.93
1033.001	-29.51
1033.16	159.97
1033.319	39.46
1033.477	53.99
1033.636	0.13
1033.794	-39.2
1033.953	35.78
1034.111	31.52
1034.27	-17.11
1034.428	31.9
1034.587	-5.88
1034.745	24.74
1034.903	27.64
1035.062	22.22
1035.22	-15.37
1035.378	42.17
1035.537	-17.11
1035.695	18.15
1035.853	19.7
1036.011	35.58
1036.17	18.54
1036.328	-38.23
1036.486	16.4
1036.644	0.32
1036.802	-69.04
1036.96	-47.34
1037.119	19.7
1037.277	-12.27
1037.435	-19.63
1037.593	-14.21
1037.751	24.15
1037.909	22.6
1038.067	22.6
