Data from pine_FLMT105791__175__17-23-29-073.txt Node

Date: Mon Mar 20 17:23:29 GMT 2023
User: antho
Spectrometer: FLMT10579
Trigger mode: 0
Integration Time (sec): 1.000000E-1
Scans to average: 10
Electric dark correction enabled: true
Nonlinearity correction enabled: false
Boxcar width: 0
XAxis mode: Wavelengths
Number of Pixels in Spectrum: 3648
>>>>>Begin Spectral Data<<<<<
345.248	-155.79
345.464	-155.79
345.681	-155.79
345.898	-183.69
346.114	-158.5
346.331	-44.77
346.548	44.35
346.764	-2.73
346.981	-11.06
347.197	10.45
347.414	14.32
347.631	-25.78
347.847	51.33
348.064	6.38
348.28	4.05
348.497	-42.45
348.713	-4.08
348.93	41.64
349.146	26.33
349.363	-6.8
349.579	1.34
349.796	-0.02
350.012	-18.62
350.229	41.45
350.445	18.39
350.661	-29.27
350.878	15.29
351.094	-5.83
351.311	17.81
351.527	31.18
351.743	-16.48
351.96	52.68
352.176	31.56
352.392	12.19
352.609	19.75
352.825	5.41
353.041	25.36
353.257	16.06
353.474	-10.28
353.69	14.13
353.906	-6.6
354.122	-0.21
354.339	59.08
354.555	-10.28
354.771	-9.7
354.987	53.85
355.203	44.16
355.42	-25.2
355.636	-17.84
355.852	-22.88
356.068	4.63
356.284	-46.71
356.5	82.91
356.716	19.94
356.932	-19.58
357.148	30.01
357.364	17.23
357.58	40.67
357.796	50.94
358.012	21.3
358.228	45.71
358.444	-56.4
358.66	51.52
358.876	11.41
359.092	-22.3
359.308	13.55
359.524	25.95
359.74	-5.83
359.956	-13.97
360.172	1.34
360.388	36.6
360.604	5.22
360.819	81.55
361.035	35.63
361.251	26.14
361.467	-15.9
361.683	47.06
361.898	6.57
362.114	21.1
362.33	21.68
362.546	47.45
362.762	15.48
362.977	-2.92
363.193	-18.03
363.409	40.09
363.624	-14.35
363.84	-40.12
364.056	0.18
364.271	23.23
364.487	8.51
364.703	1.34
364.918	-36.83
365.134	-20.17
365.35	12
365.565	70.31
365.781	6.18
365.996	18.39
366.212	93.37
366.427	-3.89
366.643	1.15
366.858	-25.98
367.074	-35.28
367.289	52.3
367.505	103.44
367.72	-28.3
367.936	8.7
368.151	31.37
368.367	26.72
368.582	14.9
368.798	10.25
369.013	78.06
369.228	8.12
369.444	9.09
369.659	40.86
369.874	30.01
370.09	66.63
370.305	-60.08
370.52	-13.77
370.736	41.06
370.951	15.87
371.166	64.11
371.381	57.33
371.597	19.55
371.812	-51.36
372.027	-34.7
372.242	-3.7
372.458	77.29
372.673	21.3
372.888	11.41
373.103	24.2
373.318	98.6
373.533	39.51
373.749	40.67
373.964	-15.13
374.179	54.81
374.394	-7.57
374.609	59.27
374.824	-21.33
375.039	38.73
375.254	-5.25
375.469	55.98
375.684	0.18
375.899	43.19
376.114	37.38
376.329	3.86
376.544	59.85
376.759	32.15
376.974	-19.58
377.189	-5.63
377.404	-5.05
377.619	37.38
377.834	-33.53
378.049	-22.88
378.264	-29.47
378.478	-4.28
378.693	7.35
378.908	20.91
379.123	12.77
379.338	47.45
379.553	40.28
379.767	44.55
379.982	31.76
380.197	24.78
380.412	2.7
380.626	42.8
380.841	90.46
381.056	24.78
381.271	47.06
381.485	-13.58
381.7	-8.93
381.915	13.74
382.129	19.16
382.344	26.53
382.559	25.36
382.773	52.1
382.988	-44.19
383.202	29.05
383.417	-12.22
383.632	111
383.846	25.75
384.061	22.85
384.275	25.75
384.49	32.73
384.704	7.35
384.919	22.65
385.133	-14.93
385.348	35.25
385.562	-22.1
385.777	42.03
385.991	9.09
386.206	-17.07
386.42	-4.47
386.634	41.64
386.849	19.36
387.063	24.01
387.277	-51.75
387.492	6.38
387.706	-25.59
387.92	-33.34
388.135	19.55
388.349	25.56
388.563	22.07
388.778	13.16
388.992	23.81
389.206	50.16
389.42	92.4
389.635	12.96
389.849	32.73
390.063	26.91
390.277	36.02
390.491	84.65
390.706	48.42
390.92	33.11
391.134	28.46
391.348	45.51
391.562	-24.62
391.776	0.76
391.99	-17.26
392.205	34.47
392.419	10.64
392.633	-10.09
392.847	52.88
393.061	-21.52
393.275	57.14
393.489	4.25
393.703	17.03
393.917	75.16
394.131	-2.34
394.345	39.7
394.559	53.26
394.773	-2.53
394.986	24.01
395.2	18
395.414	34.47
395.628	-15.13
395.842	30.4
396.056	-4.67
396.27	-16.48
396.484	29.82
396.697	52.88
396.911	54.62
397.125	69.73
397.339	48.03
397.553	37.18
397.766	54.43
397.98	58.5
398.194	31.37
398.408	27.11
398.621	45.32
398.835	53.26
399.049	25.17
399.262	80.97
399.476	82.91
399.69	46.48
399.903	89.69
400.117	24.4
400.331	29.24
400.544	3.67
400.758	111.78
400.971	51.91
401.185	73.61
401.398	-1.57
401.612	51.13
401.826	64.89
402.039	54.62
402.253	8.31
402.466	28.27
402.68	25.36
402.893	38.93
403.106	3.08
403.32	50.55
403.533	79.03
403.747	37.76
403.96	50.16
404.174	44.55
404.387	3.67
404.6	41.45
404.814	63.73
405.027	49.58
405.24	63.34
405.454	22.46
405.667	68.57
405.88	-33.34
406.094	46.87
406.307	89.3
406.52	41.06
406.733	27.69
406.947	-18.62
407.16	113.91
407.373	104.22
407.586	-9.9
407.799	-19.2
408.012	75.35
408.226	38.73
408.439	91.43
408.652	-23.07
408.865	20.33
409.078	74.19
409.291	50.75
409.504	22.85
409.717	53.46
409.93	62.37
410.143	51.91
410.357	-0.21
410.57	15.48
410.783	23.81
410.996	43
411.209	54.43
411.421	93.37
411.634	39.51
411.847	12.96
412.06	49.58
412.273	51.13
412.486	31.76
412.699	146.84
412.912	26.72
413.125	86.01
413.338	31.18
413.55	76.32
413.763	30.98
413.976	61.21
414.189	29.43
414.402	29.82
414.615	84.26
414.827	11.8
415.04	67.02
415.253	52.49
415.466	100.34
415.678	110.42
415.891	47.65
416.104	30.98
416.316	49
416.529	12.19
416.742	58.3
416.954	92.79
417.167	30.21
417.38	54.43
417.592	98.21
417.805	44.74
418.017	-21.33
418.23	55.98
418.442	22.26
418.655	17.81
418.868	46.68
419.08	76.9
419.293	96.86
419.505	87.17
419.718	74.96
419.93	102.86
420.142	40.67
420.355	109.06
420.567	81.36
420.78	74.58
420.992	53.07
421.205	130.57
421.417	7.73
421.629	51.33
421.842	14.71
422.054	-6.41
422.266	94.34
422.479	94.53
422.691	48.81
422.903	81.94
423.115	31.18
423.328	64.5
423.54	73.8
423.752	54.43
423.964	38.93
424.177	51.91
424.389	63.34
424.601	174.36
424.813	77.29
425.025	94.73
425.238	100.34
425.45	64.31
425.662	45.71
425.874	388.45
426.086	43.38
426.298	51.52
426.51	59.85
426.722	91.82
426.934	47.45
427.146	89.69
427.358	39.9
427.57	109.45
427.782	94.15
427.994	82.13
428.206	52.88
428.418	38.93
428.63	57.91
428.842	91.05
429.054	63.34
429.266	99.57
429.478	56.95
429.69	73.41
429.902	19.55
430.114	106.16
430.325	89.11
430.537	64.31
430.749	60.63
430.961	4.05
431.173	73.8
431.384	117.98
431.596	-9.7
431.808	56.36
432.02	89.69
432.231	89.3
432.443	88.72
432.655	108.29
432.867	63.34
433.078	102.67
433.29	145.29
433.502	93.37
433.713	121.46
433.925	86.01
434.136	130.76
434.348	70.31
434.56	27.88
434.771	163.31
434.983	67.02
435.194	51.52
435.406	81.75
435.617	109.26
435.829	150.72
436.04	130.38
436.252	90.66
436.463	138.9
436.675	137.74
436.886	110.81
437.098	130.18
437.309	188.5
437.521	95.11
437.732	99.38
437.943	146.07
438.155	119.33
438.366	76.32
438.578	157.11
438.789	92.21
439	125.73
439.211	117.98
439.423	147.04
439.634	152.27
439.845	155.18
440.057	114.68
440.268	158.28
440.479	117.2
440.69	143.74
440.902	149.75
441.113	120.88
441.324	129.6
441.535	177.65
441.746	212.33
441.957	74.19
442.168	115.84
442.38	163.89
442.591	167.77
442.802	134.06
443.013	125.14
443.224	130.96
443.435	142
443.646	153.43
443.857	138.13
444.068	116.23
444.279	107.71
444.49	195.09
444.701	144.91
444.912	257.28
445.123	177.65
445.334	185.01
445.545	126.11
445.756	171.64
445.967	109.26
446.178	163.31
446.388	200.51
446.599	187.72
446.81	192.96
447.021	146.26
447.232	206.91
447.443	230.74
447.653	140.84
447.864	200.9
448.075	176.29
448.286	181.53
448.496	185.21
448.707	210.78
448.918	146.65
449.129	260.57
449.339	144.71
449.55	192.37
449.761	186.56
449.971	216.21
450.182	170.09
450.393	210.01
450.603	173.58
450.814	243.14
451.024	191.79
451.235	230.93
451.446	268.91
451.656	267.16
451.867	179.01
452.077	225.12
452.288	234.22
452.498	253.79
452.709	180.17
452.919	222.21
453.13	213.49
453.34	238.1
453.55	142
453.761	235.97
453.971	207.68
454.182	239.26
454.392	216.79
454.602	246.82
454.813	220.08
455.023	252.24
455.233	176.88
455.444	252.24
455.654	164.09
455.864	214.85
456.075	189.08
456.285	187.53
456.495	202.45
456.705	222.99
456.916	268.71
457.126	263.29
457.336	240.81
457.546	184.24
457.756	206.32
457.967	268.13
458.177	191.6
458.387	242.75
458.597	205.36
458.807	209.04
459.017	207.68
459.227	229.19
459.437	232.09
459.647	270.45
459.857	280.14
460.068	205.94
460.278	298.35
460.488	279.56
460.698	290.8
460.908	241.78
461.117	210.2
461.327	258.44
461.537	213.49
461.747	261.74
461.957	243.14
462.167	345.44
462.377	292.74
462.587	259.99
462.797	309.79
463.007	255.15
463.216	262.51
463.426	310.95
463.636	298.74
463.846	231.32
464.056	259.61
464.265	284.99
464.475	216.98
464.685	273.94
464.895	306.3
465.104	271.23
465.314	275.3
465.524	252.44
465.733	230.74
465.943	382.44
466.153	336.91
466.362	310.95
466.572	284.4
466.782	274.33
466.991	272.2
467.201	318.89
467.41	232.29
467.62	277.24
467.829	287.89
468.039	323.35
468.249	306.88
468.458	284.02
468.668	327.8
468.877	325.09
469.086	348.15
469.296	324.51
469.505	267.55
469.715	381.86
469.924	305.33
470.134	335.75
470.343	363.07
470.552	289.83
470.762	321.41
470.971	269.1
471.18	300.87
471.39	313.08
471.599	278.4
471.808	326.06
472.018	284.02
472.227	379.15
472.436	372.17
472.645	323.35
472.855	273.17
473.064	367.91
473.273	340.98
473.482	355.9
473.691	402.59
473.901	383.99
474.11	340.2
474.319	427.97
474.528	369.27
474.737	395.81
474.946	377.79
475.155	373.33
475.364	411.7
475.573	348.73
475.783	377.4
475.992	402.98
476.201	395.81
476.41	368.68
476.619	328
476.828	402.01
477.037	360.55
477.245	376.24
477.454	430.49
477.663	372.56
477.872	376.24
478.081	472.73
478.29	366.17
478.499	472.15
478.708	413.44
478.917	489.39
479.125	436.11
479.334	415.38
479.543	401.43
479.752	432.04
479.961	406.27
480.169	481.45
480.378	413.83
480.587	552.94
480.796	442.5
481.004	458
481.213	465.75
481.422	463.62
481.63	461.3
481.839	492.1
482.048	515.74
482.256	473.31
482.465	520.97
482.674	511.28
482.882	503.34
483.091	573.86
483.299	499.27
483.508	526.01
483.716	500.82
483.925	498.11
484.134	480.28
484.342	499.85
484.551	504.5
484.759	524.65
484.967	529.5
485.176	545.19
485.384	543.25
485.593	560.88
485.801	541.51
486.01	503.34
486.218	516.13
486.426	406.66
486.635	460.71
486.843	458.2
487.051	485.51
487.26	472.73
487.468	484.35
487.676	559.91
487.885	475.63
488.093	539.38
488.301	532.01
488.509	522.13
488.717	565.92
488.926	561.08
489.134	521.55
489.342	571.15
489.55	502.95
489.758	552.74
489.967	540.34
490.175	677.52
490.383	563.01
490.591	672.09
490.799	562.63
491.007	614.36
491.215	597.31
491.423	582.39
491.631	582.39
491.839	571.34
492.047	652.52
492.255	570.18
492.463	536.28
492.671	572.51
492.879	630.24
493.087	602.73
493.295	624.24
493.503	647.68
493.711	633.15
493.919	670.35
494.127	648.84
494.334	663.76
494.542	594.4
494.75	633.92
494.958	655.62
495.166	715.88
495.374	651.36
495.581	661.05
495.789	654.66
495.997	706.97
496.205	650.59
496.412	659.31
496.62	667.06
496.828	691.66
497.035	671.12
497.243	695.92
497.451	668.99
497.658	674.22
497.866	703.67
498.074	747.27
498.281	634.31
498.489	743
498.696	701.16
498.904	676.74
499.112	666.28
499.319	738.94
499.527	662.41
499.734	737.77
499.942	652.72
500.149	672.87
500.357	701.93
500.564	649.04
500.771	708.9
500.979	655.43
501.186	690.31
501.394	684.11
501.601	705.22
501.808	716.46
502.016	703.29
502.223	678.29
502.43	658.92
502.638	685.27
502.845	666.67
503.052	766.45
503.26	683.33
503.467	760.25
503.674	712
503.881	726.54
504.089	798.42
504.296	724.6
504.503	663.76
504.71	717.43
504.917	680.04
505.125	748.62
505.332	734.87
505.539	771.68
505.746	798.61
505.953	775.55
506.16	774.59
506.367	790.47
506.574	832.71
506.781	820.31
506.988	752.5
507.195	777.69
507.402	761.99
507.609	811.78
507.816	724.02
508.023	766.45
508.23	771.49
508.437	761.41
508.644	777.3
508.851	839.68
509.058	818.18
509.265	811.2
509.472	782.53
509.679	904.59
509.885	764.7
510.092	816.05
510.299	782.53
510.506	812.75
510.713	830.77
510.92	803.45
511.126	827.67
511.333	879.79
511.54	825.15
511.746	901.1
511.953	903.62
512.16	908.08
512.367	853.63
512.573	898.97
512.78	864.68
512.987	842.4
513.193	827.09
513.4	793.77
513.606	827.28
513.813	847.82
514.02	850.92
514.226	923.96
514.433	891.8
514.639	845.11
514.846	836
515.052	835.23
515.259	849.18
515.465	900.71
515.672	873.78
515.878	956.71
516.085	866.23
516.291	907.11
516.497	844.72
516.704	855.38
516.91	797.83
517.117	805.78
517.323	726.34
517.529	817.02
517.736	779.24
517.942	787.57
518.148	789.5
518.354	865.65
518.561	819.92
518.767	831.16
518.973	863.32
519.179	916.99
519.386	862.35
519.592	818.57
519.798	845.11
520.004	918.93
520.21	897.81
520.417	947.8
520.623	959.23
520.829	952.64
521.035	950.31
521.241	981.7
521.447	953.03
521.653	1034.21
521.859	953.03
522.065	947.02
522.271	1045.83
522.477	1008.83
522.683	1035.56
522.889	996.04
523.095	987.32
523.301	1017.16
523.507	944.11
523.713	1014.44
523.919	954
524.125	1021.03
524.331	1011.34
524.537	1100.27
524.742	1053.19
524.948	1073.92
525.154	1054.55
525.36	1189.98
525.566	1063.66
525.772	1109.19
525.977	1055.33
526.183	1060.94
526.389	1087.1
526.595	1034.98
526.8	1010.76
527.006	978.6
527.212	977.63
527.417	941.21
527.623	960.97
527.829	1031.49
528.034	1041.38
528.24	1054.16
528.446	1009.21
528.651	1096.59
528.857	1092.91
529.062	1182.23
529.268	1099.5
529.473	1144.25
529.679	1090.97
529.884	1172.74
530.09	1139.22
530.295	1194.82
530.501	1150.07
530.706	1156.07
530.912	1111.9
531.117	1145.42
531.323	1124.88
531.528	1197.54
531.733	1182.81
531.939	1146.58
532.144	1184.17
532.35	1182.42
532.555	1205.48
532.76	1179.13
532.966	1180.68
533.171	1188.43
533.376	1115.77
533.581	1100.47
533.787	1129.92
533.992	1189.98
534.197	1207.8
534.402	1155.3
534.607	1162.27
534.813	1245.58
535.018	1147.74
535.223	1157.43
535.428	1217.3
535.633	1255.27
535.838	1272.13
536.043	1266.51
536.249	1301.19
536.454	1223.11
536.659	1255.47
536.864	1228.54
537.069	1199.86
537.274	1228.54
537.479	1234.93
537.684	1232.8
537.889	1182.23
538.094	1327.35
538.299	1214.2
538.504	1268.64
538.708	1202.19
538.913	1236.48
539.118	1229.12
539.323	1251.59
539.528	1199.67
539.733	1196.18
539.938	1199.86
540.142	1275.23
540.347	1209.94
540.552	1199.09
540.757	1217.1
540.962	1213.62
541.166	1159.75
541.371	1172.15
541.576	1211.87
541.781	1111.32
541.985	1217.49
542.19	1261.47
542.395	1270.19
542.599	1262.44
542.804	1255.66
543.008	1304.1
543.213	1224.66
543.418	1220.59
543.622	1248.68
543.827	1191.53
544.031	1292.47
544.236	1312.62
544.44	1255.47
544.645	1372.68
544.849	1275.23
545.054	1324.25
545.258	1395.93
545.463	1336.45
545.667	1242.68
545.872	1306.03
546.076	1327.93
546.281	1305.26
546.485	1258.37
546.689	1333.55
546.894	1301.38
547.098	1317.27
547.302	1276.97
547.507	1293.44
547.711	1302.35
547.915	1342.65
548.119	1266.9
548.324	1286.08
548.528	1366.68
548.732	1318.05
548.936	1357.96
549.141	1331.61
549.345	1245.78
549.549	1284.14
549.753	1299.83
549.957	1387.41
550.161	1379.46
550.366	1305.26
550.57	1278.91
550.774	1331.41
550.978	1302.16
551.182	1342.65
551.386	1336.65
551.59	1325.02
551.794	1278.13
551.998	1350.4
552.202	1309.72
552.406	1276.39
552.61	1331.41
552.814	1298.67
553.018	1371.13
553.222	1287.43
553.426	1291.12
553.63	1400.39
553.833	1287.63
554.037	1264.38
554.241	1302.93
554.445	1327.93
554.649	1331.22
554.853	1308.36
555.056	1353.7
555.26	1360.28
555.464	1349.82
555.668	1337.23
555.871	1362.03
556.075	1387.02
556.279	1325.21
556.483	1312.43
556.686	1313.59
556.89	1321.34
557.094	1349.05
557.297	1223.3
557.501	1316.69
557.704	1242.29
557.908	1317.08
558.112	1246.94
558.315	1325.21
558.519	1287.43
558.722	1276
558.926	1251.4
559.129	1212.45
559.333	1192.89
559.536	1250.04
559.74	1243.65
559.943	1186.69
560.147	1205.48
560.35	1228.73
560.553	1220.4
560.757	1154.14
560.96	1294.8
561.164	1221.75
561.367	1340.52
561.57	1266.7
561.774	1248.68
561.977	1237.06
562.18	1201.99
562.384	1338.97
562.587	1245.97
562.79	1205.29
562.993	1188.43
563.197	1253.72
563.4	1315.53
563.603	1313.98
563.806	1352.34
564.009	1213.62
564.212	1259.73
564.416	1215.75
564.619	1235.51
564.822	1156.65
565.025	1276.97
565.228	1232.22
565.431	1233.77
565.634	1174.09
565.837	1195.21
566.04	1170.99
566.243	1190.37
566.446	1094.07
566.649	1226.6
566.852	1148.71
567.055	1191.72
567.258	1188.82
567.461	1267.09
567.664	1241.32
567.867	1130.69
568.07	1156.85
568.273	1180.29
568.475	1214.97
568.678	1129.72
568.881	1161.69
569.084	1195.4
569.287	1052.23
569.489	1101.44
569.692	1168.28
569.895	1153.75
570.098	1089.62
570.3	1115.97
570.503	1051.84
570.706	1080.12
570.909	1082.45
571.111	1042.73
571.314	1035.37
571.516	1099.11
571.719	1064.04
571.922	1072.57
572.124	1065.4
572.327	1085.94
572.529	1042.73
572.732	1036.14
572.935	1111.71
573.137	1133.6
573.34	1040.6
573.542	1113.64
573.745	1124.3
573.947	1123.33
574.15	1059.97
574.352	1064.62
574.554	1109.38
574.757	1051.84
574.959	1063.07
575.162	1077.99
575.364	1026.46
575.566	1139.61
575.769	1026.84
575.971	1054.94
576.173	950.31
576.376	1048.35
576.578	1101.44
576.78	1075.28
576.982	941.79
577.185	1032.27
577.387	991.97
577.589	986.16
577.791	1026.46
577.993	1027.81
578.196	1045.25
578.398	1054.74
578.6	1082.26
578.802	982.09
579.004	1005.73
579.206	1031.69
579.408	1014.64
579.61	1013.48
579.812	1085.36
580.014	990.03
580.216	980.93
580.418	995.84
580.62	984.99
580.822	943.53
581.024	975.89
581.226	1074.51
581.428	1026.26
581.63	1066.76
581.832	982.09
582.034	1073.73
582.236	1005.73
582.438	1052.42
582.64	1067.92
582.841	1066.17
583.043	1120.23
583.245	1053
583.447	1065.21
583.649	1052.03
583.85	1027.43
584.052	1096.01
584.254	1019.09
584.456	1073.73
584.657	984.03
584.859	1051.84
585.061	1025.1
585.262	1042.73
585.464	988.48
585.666	1104.15
585.867	1001.27
586.069	1052.03
586.27	1027.23
586.472	1028.39
586.674	1019.09
586.875	1009.41
587.077	959.23
587.278	1021.23
587.48	1018.51
587.681	1098.53
587.883	1054.36
588.084	942.95
588.285	961.16
588.487	990.42
588.688	958.84
588.89	950.51
589.091	885.21
589.292	938.5
589.494	886.57
589.695	884.25
589.896	797.06
590.098	819.34
590.299	901.1
590.5	849.95
590.702	861.77
590.903	904.59
591.104	970.85
591.305	918.93
591.507	1000.49
591.708	935.4
591.909	905.56
592.11	999.72
592.311	968.33
592.512	946.44
592.714	912.53
592.915	890.25
593.116	923.58
593.317	905.17
593.518	903.23
593.719	940.43
593.92	955.74
594.121	979.57
594.322	923.96
594.523	922.61
594.724	883.86
594.925	941.21
595.126	924.55
595.327	939.46
595.528	941.01
595.729	952.45
595.929	903.62
596.13	933.07
596.331	925.71
596.532	912.34
596.733	964.65
596.934	955.55
597.135	934.81
597.335	947.8
597.536	908.08
597.737	950.31
597.938	911.37
598.138	951.67
598.339	943.53
598.54	917.38
598.74	904.78
598.941	944.31
599.142	1027.43
599.342	939.66
599.543	935.2
599.744	934.23
599.944	897.81
600.145	937.53
600.345	960.2
600.546	1005.53
600.746	1010.38
600.947	1032.27
601.147	963.68
601.348	960.39
601.548	936.36
601.749	941.6
601.949	912.53
602.15	910.01
602.35	901.49
602.551	973.76
602.751	879.98
602.951	923
603.152	850.73
603.352	975.11
603.552	920.09
603.753	966.98
603.953	967.95
604.153	948.96
604.354	954.58
604.554	925.13
604.754	923.58
604.954	901.88
605.155	922.03
605.355	909.63
605.555	957.29
605.755	975.89
605.955	918.73
606.155	919.7
606.356	921.83
606.556	973.18
606.756	949.73
606.956	886.38
607.156	997.78
607.356	898.97
607.556	934.23
607.756	939.27
607.956	970.27
608.156	935.98
608.356	897.42
608.556	945.86
608.756	930.16
608.956	893.55
609.156	919.51
609.356	863.52
609.556	907.69
609.755	929.39
609.955	907.3
610.155	911.18
610.355	918.35
610.555	898
610.755	898.58
610.954	816.43
611.154	927.65
611.354	927.65
611.554	855.18
611.753	877.08
611.953	853.25
612.153	945.28
612.352	899.55
612.552	889.67
612.752	819.73
612.951	877.08
613.151	892.96
613.351	846.08
613.55	909.63
613.75	887.15
613.949	888.9
614.149	911.37
614.348	872.82
614.548	856.93
614.747	812.95
614.947	869.72
615.146	785.44
615.346	902.65
615.545	905.56
615.745	864.68
615.944	857.32
616.144	880.76
616.343	863.9
616.542	845.88
616.742	868.17
616.941	837.17
617.14	813.92
617.34	851.12
617.539	840.46
617.738	798.03
617.938	912.34
618.137	844.14
618.336	817.6
618.535	867.58
618.734	850.73
618.934	847.43
619.133	869.72
619.332	852.67
619.531	801.71
619.73	846.27
619.929	888.51
620.128	871.85
620.328	887.54
620.527	836
620.726	815.08
620.925	821.86
621.124	857.9
621.323	851.5
621.522	811.01
621.721	799.19
621.92	763.35
622.119	851.89
622.318	780.98
622.517	823.41
622.715	819.15
622.914	761.41
623.113	785.24
623.312	744.94
623.511	826.51
623.71	781.75
623.909	803.84
624.107	835.42
624.306	730.41
624.505	735.25
624.704	773.42
624.902	773.81
625.101	828.45
625.3	783.11
625.499	736.61
625.697	758.89
625.896	738.74
626.095	778.07
626.293	708.71
626.492	720.72
626.69	784.08
626.889	741.45
627.088	826.51
627.286	744.75
627.485	727.31
627.683	722.66
627.882	758.89
628.08	674.03
628.279	714.33
628.477	788.73
628.676	700.57
628.874	736.8
629.073	704.64
629.271	721.69
629.469	725.76
629.668	738.74
629.866	716.27
630.065	707.55
630.263	752.5
630.461	698.44
630.66	756.76
630.858	757.54
631.056	765.67
631.254	775.36
631.453	705.03
631.651	760.64
631.849	765.29
632.047	763.54
632.245	714.14
632.444	769.55
632.642	743.2
632.84	754.24
633.038	731.19
633.236	693.02
633.434	712
633.632	671.9
633.83	685.07
634.028	770.9
634.227	718.98
634.425	800.74
634.623	728.47
634.821	744.17
635.019	710.84
635.216	739.13
635.414	770.32
635.612	749.98
635.81	757.92
636.008	813.53
636.206	705.42
636.404	723.63
636.602	700.77
636.8	743.39
636.997	776.52
637.195	786.6
637.393	736.03
637.591	783.11
637.789	736.8
637.986	724.4
638.184	744.75
638.382	788.73
638.58	805.97
638.777	804.03
638.975	757.92
639.173	744.94
639.37	747.65
639.568	774.2
639.765	774.2
639.963	727.12
640.161	760.25
640.358	783.5
640.556	710.07
640.753	677.32
640.951	681.39
641.148	758.5
641.346	700.19
641.543	715.69
641.741	748.04
641.938	707.35
642.136	709.87
642.333	686.82
642.531	751.92
642.728	764.7
642.925	717.24
643.123	718.98
643.32	726.15
643.517	676.16
643.715	709.49
643.912	706.97
644.109	696.7
644.306	724.79
644.504	664.73
644.701	738.74
644.898	749.59
645.095	708.52
645.293	689.34
645.49	738.74
645.687	691.86
645.884	771.1
646.081	629.08
646.278	689.72
646.475	668.99
646.672	655.43
646.87	694.18
647.067	707.94
647.264	706
647.461	655.43
647.658	632.37
647.855	703.09
648.052	666.47
648.249	592.08
648.446	661.63
648.642	655.24
648.839	645.74
649.036	647.1
649.233	613.97
649.43	631.79
649.627	588.98
649.824	618.23
650.021	599.63
650.217	615.52
650.414	641.87
650.611	665.31
650.808	650.59
651.004	685.66
651.201	666.47
651.398	713.36
651.595	610.68
651.791	631.02
651.988	690.69
652.185	638.96
652.381	632.76
652.578	605.44
652.775	627.14
652.971	616.29
653.168	619.2
653.364	669.19
653.561	553.71
653.757	625.59
653.954	617.07
654.15	603.51
654.347	677.52
654.543	635.09
654.74	579.09
654.936	575.03
655.133	626.17
655.329	656.21
655.525	616.68
655.722	643.42
655.918	574.25
656.115	632.76
656.311	545.58
656.507	519.42
656.704	497.14
656.9	524.46
657.096	518.06
657.292	519.61
657.489	564.95
657.685	564.56
657.881	535.11
658.077	565.34
658.273	557.2
658.47	651.75
658.666	617.46
658.862	573.86
659.058	553.52
659.254	640.12
659.45	580.26
659.646	609.32
659.842	566.11
660.038	645.55
660.234	593.24
660.43	593.63
660.626	670.74
660.822	593.63
661.018	630.63
661.214	596.73
661.41	554.88
661.606	602.73
661.802	629.27
661.998	600.02
662.194	550.03
662.39	605.83
662.586	612.03
662.781	634.51
662.977	609.13
663.173	644.58
663.369	596.73
663.564	609.13
663.76	599.44
663.956	563.98
664.152	628.69
664.347	512.25
664.543	584.33
664.739	558.94
664.934	529.5
665.13	561.27
665.326	625.79
665.521	589.56
665.717	536.47
665.912	570.57
666.108	520.58
666.304	534.34
666.499	576.38
666.695	512.25
666.89	574.44
667.086	604.28
667.281	561.85
667.477	658.92
667.672	564.18
667.867	577.54
668.063	582.39
668.258	566.11
668.454	555.65
668.649	643.81
668.844	569.99
669.04	619.01
669.235	601.38
669.43	549.45
669.626	509.54
669.821	558.17
670.016	551.58
670.211	558.36
670.407	522.91
670.602	549.84
670.797	539.18
670.992	594.4
671.187	525.04
671.382	599.24
671.578	525.23
671.773	563.59
671.968	532.01
672.163	569.99
672.358	580.06
672.553	526.78
672.748	540.15
672.943	631.6
673.138	573.28
673.333	593.24
673.528	512.25
673.723	575.61
673.918	538.99
674.113	521.55
674.308	590.53
674.503	552.74
674.698	573.28
674.892	545.19
675.087	597.11
675.282	535.89
675.477	523.68
675.672	542.67
675.867	505.66
676.061	502.18
676.256	468.85
676.451	509.15
676.646	542.09
676.84	485.13
677.035	455.48
677.23	487.65
677.424	522.91
677.619	565.53
677.814	558.56
678.008	551.97
678.203	468.27
678.397	457.81
678.592	541.7
678.787	582
678.981	494.04
679.176	546.16
679.37	507.21
679.565	481.25
679.759	484.74
679.954	556.43
680.148	595.37
680.342	597.11
680.537	579.29
680.731	559.72
680.926	521.36
681.12	560.49
681.314	495.2
681.509	500.24
681.703	525.43
681.897	547.71
682.092	521.36
682.286	492.68
682.48	562.43
682.674	562.43
682.869	496.75
683.063	514.19
683.257	598.66
683.451	500.63
683.645	532.98
683.839	514.77
684.034	511.48
684.228	571.73
684.422	475.44
684.616	530.66
684.81	526.78
685.004	499.66
685.198	520.39
685.392	551.78
685.586	499.85
685.78	545.58
685.974	551.39
686.168	518.45
686.362	585.1
686.556	487.84
686.75	429.91
686.944	464.4
687.138	456.06
687.331	369.27
687.525	412.67
687.719	340.4
687.913	388.64
688.107	390.97
688.301	396.58
688.494	443.47
688.688	372.75
688.882	357.64
689.076	368.68
689.269	401.82
689.463	463.81
689.657	432.04
689.85	420.8
690.044	412.47
690.238	407.43
690.431	440.76
690.625	429.91
690.818	444.63
691.012	471.18
691.205	460.71
691.399	429.91
691.593	482.03
691.786	517.68
691.98	520.78
692.173	532.21
692.366	528.33
692.56	528.72
692.753	568.44
692.947	473.31
693.14	574.25
693.333	562.82
693.527	468.66
693.72	536.86
693.914	535.11
694.107	519.81
694.3	537.83
694.493	486.68
694.687	561.46
694.88	498.5
695.073	588.78
695.266	554.88
695.46	533.56
695.653	569.41
695.846	591.88
696.039	510.51
696.232	564.18
696.425	587.04
696.618	600.21
696.812	600.21
697.005	659.5
697.198	711.23
697.391	652.14
697.584	652.14
697.777	700.77
697.97	702.9
698.163	668.02
698.356	663.57
698.549	750.56
698.742	711.23
698.935	652.91
699.127	679.26
699.32	650.97
699.513	679.07
699.706	701.35
699.899	652.33
700.092	684.3
700.285	723.44
700.477	630.82
700.67	708.32
700.863	738.55
701.056	822.83
701.248	759.28
701.441	797.83
701.634	741.45
701.826	822.83
702.019	717.82
702.212	809.65
702.404	742.62
702.597	752.3
702.79	774.39
702.982	802.87
703.175	835.03
703.367	818.57
703.56	853.25
703.752	902.07
703.945	846.08
704.137	857.12
704.33	872.23
704.522	907.3
704.715	911.76
704.907	942.56
705.1	928.61
705.292	913.31
705.484	895.1
705.677	941.79
705.869	949.15
706.061	955.35
706.254	1013.28
706.446	953.8
706.638	965.43
706.831	1027.04
707.023	976.66
707.215	1102.02
707.407	1065.21
707.599	1050.29
707.792	1092.91
707.984	1080.9
708.176	1114.61
708.368	1032.85
708.56	1103.76
708.752	1074.7
708.944	1072.76
709.136	1124.88
709.329	1096.01
709.521	1184.75
709.713	1189.59
709.905	1154.52
710.097	1194.63
710.289	1112.87
710.481	1145.03
710.672	1183.97
710.864	1194.44
711.056	1227.57
711.248	1199.09
711.44	1225.24
711.632	1200.44
711.824	1259.15
712.016	1294.99
712.207	1249.65
712.399	1278.52
712.591	1323.08
712.783	1313.4
712.975	1337.42
713.166	1299.45
713.358	1296.93
713.55	1393.61
713.741	1387.41
713.933	1358.35
714.125	1333.16
714.316	1330.25
714.508	1405.23
714.7	1417.83
714.891	1387.99
715.083	1448.83
715.274	1362.22
715.466	1373.07
715.657	1397.68
715.849	1326.18
716.04	1400.97
716.232	1323.08
716.423	1424.61
716.615	1308.75
716.806	1287.63
716.998	1283.75
717.189	1246.36
717.381	1182.42
717.572	1179.13
717.763	1226.6
717.955	1175.06
718.146	1170.22
718.337	1114.22
718.528	1112.48
718.72	1074.7
718.911	1118.68
719.102	1077.02
719.293	1159.75
719.485	1126.82
719.676	1081.87
719.867	1046.41
720.058	1048.35
720.249	1061.91
720.44	1072.96
720.632	1099.11
720.823	1143.29
721.014	1229.12
721.205	1223.69
721.396	1285.5
721.587	1373.26
721.778	1343.23
721.969	1402.13
722.16	1379.27
722.351	1363.38
722.542	1516.44
722.733	1553.84
722.924	1459.68
723.115	1522.84
723.305	1491.45
723.496	1493.39
723.687	1408.72
723.878	1436.43
724.069	1412.4
724.26	1414.34
724.45	1355.05
724.641	1368.61
724.832	1367.26
725.023	1368.42
725.213	1398.65
725.404	1381.4
725.595	1394
725.785	1338.2
725.976	1380.24
726.167	1369.97
726.357	1383.73
726.548	1461.81
726.739	1442.82
726.929	1436.04
727.12	1452.7
727.31	1484.86
727.501	1421.89
727.691	1454.44
727.882	1507.72
728.072	1502.88
728.263	1475.37
728.453	1535.24
728.644	1546.67
728.834	1514.89
729.024	1477.89
729.215	1464.71
729.405	1499.97
729.596	1587.55
729.786	1583.48
729.976	1587.35
730.167	1585.42
730.357	1583.09
730.547	1579.8
730.737	1605.37
730.928	1662.92
731.118	1676.09
731.308	1605.37
731.498	1632.11
731.688	1654.59
731.879	1678.22
732.069	1722.59
732.259	1747.78
732.449	1763.66
732.639	1795.44
732.829	1802.03
733.019	1835.74
733.209	1885.73
733.399	1855.69
733.589	1886.31
733.779	1891.93
733.969	1900.64
734.159	1959.54
734.349	1998.29
734.539	1987.64
734.729	2017.67
734.919	2068.04
735.109	2028.32
735.299	1993.26
735.488	2058.94
735.678	2083.15
735.868	2093.62
736.058	2038.01
736.248	2004.88
736.437	1977.76
736.627	2012.63
736.817	2129.46
737.007	2074.44
737.196	2084.12
737.386	2069.79
737.576	2032.39
737.765	2114.93
737.955	2054.67
738.144	2174.8
738.334	2144.96
738.524	2090.13
738.713	2105.24
738.903	2085.29
739.092	2145.73
739.282	2121.71
739.471	2143.02
739.661	2099.04
739.85	2159.88
740.04	2165.88
740.229	2206.18
740.419	2240.28
740.608	2272.45
740.797	2199.79
740.987	2268.76
741.176	2276.9
741.365	2218.39
741.555	2205.02
741.744	2257.14
741.933	2199.4
742.123	2232.53
742.312	2288.14
742.501	2333.09
742.69	2245.13
742.88	2231.95
743.069	2349.56
743.258	2244.74
743.447	2302.86
743.636	2294.92
743.825	2264.89
744.014	2303.25
744.204	2320.88
744.393	2270.31
744.582	2335.8
744.771	2341.03
744.96	2327.66
745.149	2351.3
745.338	2311.78
745.527	2339.48
745.716	2317.98
745.905	2291.82
746.094	2350.33
746.283	2318.94
746.471	2377.07
746.66	2416.21
746.849	2383.07
747.038	2396.44
747.227	2295.5
747.416	2373.58
747.604	2320.11
747.793	2320.88
747.982	2385.21
748.171	2351.11
748.359	2378.62
748.548	2339.87
748.737	2332.12
748.926	2346.46
749.114	2266.63
749.303	2350.33
749.491	2314.88
749.68	2293.95
749.869	2354.59
750.057	2304.03
750.246	2287.56
750.434	2321.46
750.623	2312.36
750.811	2301.89
751	2345.1
751.188	2291.04
751.377	2341.61
751.565	2305.19
751.754	2281.74
751.942	2283.88
752.131	2357.31
752.319	2299.96
752.507	2235.25
752.696	2329.41
752.884	2360.02
753.072	2300.34
753.261	2317.39
753.449	2326.69
753.637	2252.88
753.825	2335.8
754.014	2269.73
754.202	2308.87
754.39	2314.49
754.578	2364.09
754.766	2289.3
754.955	2259.66
755.143	2373.58
755.331	2295.31
755.519	2266.44
755.707	2269.35
755.895	2269.73
756.083	2313.91
756.271	2216.45
756.459	2234.86
756.647	2302.86
756.835	2248.81
757.023	2212.38
757.211	2243.77
757.399	2207.73
757.587	2237.18
757.775	2210.25
757.963	2220.71
758.151	2220.13
758.339	2192.81
758.526	2187.2
758.714	2213.74
758.902	2103.69
759.09	2119.19
759.278	1963.42
759.465	1789.82
759.653	1552.29
759.841	1458.32
760.028	1214.97
760.216	1076.06
760.404	999.72
760.591	809.27
760.779	712.97
760.967	596.73
761.154	514
761.342	540.54
761.529	526.4
761.717	554.68
761.905	537.44
762.092	597.89
762.28	550.42
762.467	557.39
762.655	499.85
762.842	513.03
763.029	532.98
763.217	542.48
763.404	529.11
763.592	572.89
763.779	525.62
763.966	569.6
764.154	597.5
764.341	655.82
764.528	610.29
764.716	689.92
764.903	724.4
765.09	758.89
765.277	780.59
765.465	922.8
765.652	941.98
765.839	987.9
766.026	1055.71
766.213	1112.09
766.4	1195.99
766.588	1317.47
766.775	1302.16
766.962	1399.61
767.149	1359.9
767.336	1530.39
767.523	1436.04
767.71	1550.54
767.897	1665.05
768.084	1732.47
768.271	1689.07
768.458	1759.4
768.645	1820.63
768.832	1748.75
769.019	1826.83
769.206	1853.37
769.392	1882.24
769.579	1971.36
769.766	1881.27
769.953	1924.48
770.14	1957.8
770.327	1931.06
770.513	1943.46
770.7	2047.89
770.887	1958.38
771.073	2043.63
771.26	2015.73
771.447	1938.81
771.634	1977.17
771.82	2043.82
772.007	1965.36
772.193	2042.66
772.38	2071.14
772.567	1987.44
772.753	1968.46
772.94	2019.41
773.126	2018.25
773.313	2018.44
773.499	2046.73
773.686	2019.41
773.872	1969.42
774.059	2011.27
774.245	1949.66
774.432	2008.37
774.618	1919.05
774.804	1949.08
774.991	1912.66
775.177	2013.41
775.363	1986.09
775.55	2001.39
775.736	1919.63
775.922	1933.97
776.109	1939.39
776.295	1968.65
776.481	1981.63
776.667	1999.26
776.853	1943.66
777.04	1936.68
777.226	1978.92
777.412	2035.69
777.598	1926.22
777.784	1910.53
777.97	1937.46
778.156	1915.76
778.342	1938.04
778.528	1935.13
778.715	1869.45
778.901	1869.64
779.087	1892.7
779.272	1873.52
779.458	1808.81
779.644	1917.5
779.83	1840.78
780.016	1985.12
780.202	1869.84
780.388	1856.86
780.574	1771.8
780.76	1848.33
780.946	1910.72
781.131	1845.81
781.317	1873.13
781.503	1865.38
781.689	1869.84
781.874	1929.71
782.06	1822.37
782.246	1865.19
782.432	1851.63
782.617	1876.43
782.803	1916.92
782.989	1770.83
783.174	1829.35
783.36	1753.78
783.545	1795.44
783.731	1821.01
783.916	1748.75
784.102	1818.69
784.288	1745.84
784.473	1772.77
784.659	1765.41
784.844	1822.37
785.029	1752.04
785.215	1743.13
785.4	1726.08
785.586	1839.23
785.771	1717.55
785.956	1767.15
786.142	1730.34
786.327	1752.04
786.512	1731.31
786.698	1739.83
786.883	1734.02
787.068	1719.3
787.254	1747.58
787.439	1681.13
787.624	1730.92
787.809	1666.99
787.994	1711.35
788.18	1774.13
788.365	1638.89
788.55	1685
788.735	1717.36
788.92	1662.72
789.105	1661.17
789.29	1656.52
789.475	1655.36
789.66	1655.17
789.845	1607.89
790.03	1592.78
790.215	1660.98
790.4	1679.58
790.585	1702.63
790.77	1635.21
790.955	1543.37
791.14	1618.74
791.325	1700.5
791.51	1590.26
791.695	1629.98
791.879	1594.72
792.064	1542.79
792.249	1687.91
792.434	1609.25
792.618	1621.07
792.803	1637.54
792.988	1593.75
793.173	1600.72
793.357	1626.49
793.542	1583.09
793.727	1596.07
793.911	1631.72
794.096	1595.69
794.281	1646.25
794.465	1715.62
794.65	1601.5
794.834	1634.44
795.019	1637.92
795.203	1649.55
795.388	1670.47
795.572	1697.4
795.757	1649.35
795.941	1661.75
796.126	1658.85
796.31	1571.66
796.494	1620.49
796.679	1617.19
796.863	1547.83
797.048	1656.72
797.232	1644.51
797.416	1653.04
797.601	1600.34
797.785	1703.99
797.969	1682.48
798.153	1615.06
798.338	1627.07
798.522	1650.32
798.706	1670.67
798.89	1679.77
799.074	1783.23
799.258	1694.3
799.443	1666.79
799.627	1639.86
799.811	1718.91
799.995	1656.14
800.179	1628.24
800.363	1661.17
800.547	1684.03
800.731	1725.88
800.915	1613.51
801.099	1626.3
801.283	1671.25
801.467	1640.64
801.651	1624.75
801.835	1698.76
802.019	1671.05
802.202	1680.35
802.386	1630.17
802.57	1597.43
802.754	1623.59
802.938	1607.12
803.121	1601.69
803.305	1686.94
803.489	1634.44
803.673	1647.8
803.856	1651.49
804.04	1662.72
804.224	1653.23
804.407	1633.08
804.591	1633.85
804.775	1651.29
804.958	1659.82
805.142	1745.45
805.326	1658.27
805.509	1658.27
805.693	1687.33
805.876	1720.65
806.06	1670.08
806.243	1704.57
806.427	1712.52
806.61	1702.05
806.794	1631.34
806.977	1653.42
807.16	1638.5
807.344	1686.36
807.527	1658.07
807.71	1619.13
807.894	1663.5
808.077	1673.38
808.26	1626.1
808.444	1618.16
808.627	1677.06
808.81	1629.98
808.993	1568.76
809.177	1561.78
809.36	1568.76
809.543	1628.04
809.726	1529.23
809.909	1567.98
810.092	1530.97
810.276	1569.72
810.459	1540.47
810.642	1530.59
810.825	1525.74
811.008	1514.31
811.191	1452.51
811.374	1468.01
811.557	1471.11
811.74	1541.63
811.923	1429.26
812.106	1423.64
812.289	1405.23
812.472	1426.54
812.654	1464.71
812.837	1434.68
813.02	1386.44
813.203	1354.66
813.386	1254.11
813.569	1257.98
813.751	1230.47
813.934	1272.32
814.117	1288.4
814.3	1222.14
814.482	1205.29
814.665	1182.81
814.848	1173.32
815.03	1105.12
815.213	1134.57
815.396	1120.81
815.578	1098.53
815.761	1070.82
815.943	1166.54
816.126	1058.23
816.309	1044.09
816.491	1003.01
816.674	948.76
816.856	1026.26
817.039	981.12
817.221	1033.63
817.403	1002.24
817.586	981.12
817.768	1034.21
817.951	959.23
818.133	975.31
818.315	1017.16
818.498	1060.75
818.68	1074.12
818.862	1039.05
819.045	1061.33
819.227	1026.07
819.409	1019.87
819.591	1083.22
819.774	1048.93
819.956	1027.43
820.138	1093.69
820.32	1076.25
820.502	1098.34
820.684	1148.52
820.866	1133.21
821.048	1158.2
821.231	1192.5
821.413	1165.37
821.595	1150.26
821.777	1141.93
821.959	1132.05
822.141	1210.71
822.323	1140.19
822.505	1066.95
822.686	1058.42
822.868	1031.11
823.05	936.95
823.232	927.06
823.414	846.66
823.596	912.92
823.778	893.35
823.96	961.75
824.141	927.06
824.323	924.93
824.505	982.48
824.687	1001.27
824.868	1058.81
825.05	1113.26
825.232	1155.49
825.413	1221.56
825.595	1118.29
825.777	1083.81
825.958	1160.72
826.14	1133.6
826.321	1170.99
826.503	1135.15
826.685	1117.32
826.866	1147.35
827.048	1117.91
827.229	1113.45
827.411	1077.02
827.592	1058.04
827.773	1095.62
827.955	1031.3
828.136	1019.09
828.318	973.76
828.499	1044.67
828.68	978.41
828.862	997.01
829.043	1036.92
829.224	1008.44
829.406	948.38
829.587	1012.7
829.768	951.86
829.949	1039.05
830.131	1026.84
830.312	1053
830.493	974.34
830.674	1011.54
830.855	1022.39
831.036	986.54
831.218	1071.21
831.399	1085.74
831.58	1029.17
831.761	1035.95
831.942	1024.33
832.123	993.52
832.304	981.51
832.485	1040.02
832.666	994.49
832.847	1055.33
833.028	1007.66
833.209	1048.16
833.389	1033.04
833.57	965.23
833.751	985.96
833.932	1043.31
834.113	1041.18
834.294	992.16
834.475	1037.11
834.655	1074.12
834.836	1078.96
835.017	1057.84
835.198	982.48
835.378	1007.47
835.559	1085.94
835.74	1024.33
835.92	1014.44
836.101	1014.25
836.281	1076.44
836.462	1060.17
836.643	1053.19
836.823	1112.87
837.004	1072.18
837.184	1133.41
837.365	1077.22
837.545	1098.53
837.726	1040.41
837.906	1132.24
838.087	1059.59
838.267	1025.49
838.448	999.91
838.628	1027.81
838.808	1053
838.989	1127.21
839.169	1038.47
839.349	1052.03
839.53	1076.44
839.71	1066.56
839.89	1049.51
840.07	1129.34
840.251	1014.44
840.431	1085.94
840.611	1064.43
840.791	1054.94
840.971	1061.14
841.151	1035.18
841.332	1013.09
841.512	1087.87
841.692	1011.93
841.872	1083.61
842.052	1036.53
842.232	1075.67
842.412	1019.87
842.592	1044.48
842.772	1047.96
842.952	1081.48
843.132	1040.02
843.312	1013.67
843.492	1021.23
843.672	1059.39
843.851	980.73
844.031	1024.13
844.211	1027.23
844.391	1029.36
844.571	1009.79
844.751	1048.54
844.93	1058.81
845.11	1016.77
845.29	1017.74
845.47	1079.35
845.649	1016.19
845.829	1049.13
846.009	1007.08
846.188	1016.38
846.368	1019.48
846.547	1031.49
846.727	1068.31
846.907	1003.4
847.086	1007.86
847.266	1046.61
847.445	1036.92
847.625	980.54
847.804	985.19
847.984	992.74
848.163	977.83
848.343	1003.98
848.522	999.91
848.701	1002.63
848.881	957.29
849.06	1042.93
849.239	1014.83
849.419	1000.69
849.598	934.23
849.777	939.46
849.957	935.78
850.136	874.95
850.315	888.51
850.494	906.91
850.674	905.75
850.853	956.71
851.032	929
851.211	997.59
851.39	976.86
851.569	903.23
851.748	914.86
851.927	943.73
852.107	933.65
852.286	907.11
852.465	909.43
852.644	960.78
852.823	939.66
853.002	918.93
853.181	899.75
853.359	943.34
853.538	888.9
853.717	978.02
853.896	861.77
854.075	829.42
854.254	861.38
854.433	790.09
854.611	810.62
854.79	743.39
854.969	817.02
855.148	847.63
855.327	813.14
855.505	851.31
855.684	805.2
855.863	851.7
856.041	811.4
856.22	837.94
856.399	817.98
856.577	906.53
856.756	877.08
856.934	998.56
857.113	993.52
857.291	876.11
857.47	850.15
857.648	875.14
857.827	898.58
858.005	907.5
858.184	887.15
858.362	977.05
858.541	869.52
858.719	919.51
858.898	838.91
859.076	840.85
859.254	935.2
859.433	824.57
859.611	872.62
859.789	836.97
859.967	883.66
860.146	914.86
860.324	811.98
860.502	848.21
860.68	807.33
860.859	819.73
861.037	833.1
861.215	888.12
861.393	847.24
861.571	853.25
861.749	834.07
861.927	890.25
862.105	812.75
862.283	857.12
862.461	817.4
862.639	785.44
862.817	793.57
862.995	826.7
863.173	792.41
863.351	829.8
863.529	801.52
863.707	876.5
863.885	856.73
864.063	771.68
864.241	805.2
864.418	880.76
864.596	784.66
864.774	761.22
864.952	799.97
865.129	830.77
865.307	790.28
865.485	752.69
865.663	846.66
865.84	738.74
866.018	766.45
866.196	650.97
866.373	720.14
866.551	689.34
866.728	631.02
866.906	703.87
867.084	723.24
867.261	738.16
867.439	722.47
867.616	743
867.794	724.21
867.971	741.07
868.149	748.04
868.326	783.69
868.503	790.86
868.681	768
868.858	721.5
869.035	727.5
869.213	798.42
869.39	720.14
869.567	809.65
869.745	712
869.922	747.46
870.099	779.43
870.276	786.79
870.454	788.34
870.631	781.17
870.808	734.09
870.985	775.75
871.162	813.33
871.339	758.12
871.517	714.33
871.694	701.16
871.871	732.54
872.048	739.52
872.225	717.62
872.402	724.21
872.579	697.86
872.756	712.97
872.933	673.84
873.11	697.09
873.287	735.45
873.463	722.08
873.64	705.42
873.817	733.12
873.994	725.95
874.171	711.62
874.348	735.45
874.524	654.85
874.701	692.63
874.878	650.59
875.055	727.89
875.231	715.88
875.408	751.72
875.585	661.82
875.762	711.62
875.938	645.36
876.115	655.62
876.291	680.04
876.468	674.61
876.645	638.38
876.821	647.29
876.998	660.08
877.174	694.18
877.351	653.69
877.527	642.06
877.704	699.22
877.88	682.56
878.057	660.08
878.233	717.04
878.409	650.2
878.586	671.32
878.762	642.26
878.938	625.79
879.115	608.16
879.291	677.13
879.467	583.55
879.644	625.21
879.82	652.91
879.996	648.46
880.172	577.35
880.349	611.45
880.525	660.27
880.701	616.88
880.877	607.58
881.053	653.88
881.229	613.39
881.405	689.34
881.581	594.21
881.757	594.79
881.933	636.25
882.109	671.71
882.285	628.11
882.461	574.44
882.637	614.36
882.813	602.73
882.989	625.98
883.165	665.12
883.341	586.84
883.517	660.86
883.693	635.09
883.869	633.92
884.044	619.2
884.22	649.23
884.396	691.66
884.572	652.33
884.747	650.39
884.923	643.22
885.099	642.64
885.275	670.16
885.45	608.54
885.626	620.94
885.801	597.69
885.977	584.91
886.153	579.87
886.328	635.86
886.504	643.81
886.679	631.6
886.855	607.77
887.03	655.82
887.206	625.21
887.381	624.04
887.557	637.8
887.732	629.66
887.908	648.26
888.083	656.79
888.258	624.82
888.434	618.81
888.609	602.73
888.784	645.36
888.96	607.77
889.135	599.63
889.31	607.96
889.485	633.34
889.661	572.51
889.836	647.29
890.011	631.02
890.186	614.16
890.361	579.48
890.537	631.6
890.712	642.06
890.887	609.32
891.062	654.46
891.237	675.19
891.412	611.06
891.587	641.67
891.762	647.49
891.937	683.72
892.112	602.93
892.287	615.52
892.462	560.3
892.637	547.32
892.812	583.16
892.987	568.63
893.161	553.71
893.336	548.09
893.511	555.07
893.686	559.14
893.861	519.42
894.035	557.2
894.21	578.32
894.385	501.01
894.56	557.01
894.734	501.98
894.909	497.72
895.084	507.99
895.258	520.39
895.433	554.29
895.608	518.84
895.782	468.08
895.957	498.11
896.131	498.3
896.306	429.72
896.48	416.93
896.655	446.76
896.829	399.1
897.004	382.05
897.178	434.37
897.353	388.83
897.527	462.46
897.701	429.52
897.876	370.82
898.05	429.72
898.224	438.63
898.399	463.04
898.573	440.37
898.747	350.28
898.921	416.54
899.096	324.7
899.27	328.77
899.444	318.31
899.618	328
899.792	362.87
899.967	337.3
900.141	383.02
900.315	317.34
900.489	333.81
900.663	367.52
900.837	361.32
901.011	304.75
901.185	419.64
901.359	358.42
901.533	342.14
901.707	356.09
901.881	331.68
902.055	308.43
902.229	322.19
902.403	418.09
902.576	368.68
902.75	368.3
902.924	458.78
903.098	436.3
903.272	432.04
903.446	448.7
903.619	424.1
903.793	464.78
903.967	389.22
904.14	456.45
904.314	459.75
904.488	419.83
904.661	466.91
904.835	445.8
905.009	474.28
905.182	510.7
905.356	472.73
905.529	440.76
905.703	422.55
905.876	414.8
906.05	390.19
906.223	388.83
906.397	344.47
906.57	381.47
906.744	321.02
906.917	346.02
907.09	352.99
907.264	347.37
907.437	316.18
907.61	293.32
907.784	334.39
907.957	327.42
908.13	292.74
908.304	361.71
908.477	296.61
908.65	319.47
908.823	283.24
908.996	360.93
909.17	306.1
909.343	297.97
909.516	315.4
909.689	320.44
909.862	278.2
910.035	316.76
910.208	285.57
910.381	270.07
910.554	378.76
910.727	272.97
910.9	280.53
911.073	292.35
911.246	354.74
911.419	339.24
911.592	340.59
911.765	278.4
911.938	294.09
912.11	296.8
912.283	287.5
912.456	345.05
912.629	302.23
912.802	277.62
912.974	268.91
913.147	242.75
913.32	234.03
913.493	253.6
913.665	281.11
913.838	272.39
914.01	250.5
914.183	259.8
914.356	217.56
914.528	299.9
914.701	324.51
914.873	282.66
915.046	278.4
915.218	257.67
915.391	217.37
915.563	222.6
915.736	264.26
915.908	266
916.081	259.99
916.253	235.58
916.425	269.87
916.598	278.98
916.77	231.71
916.942	249.53
917.115	174.74
917.287	271.62
917.459	247.01
917.632	176.49
917.804	201.67
917.976	267.55
918.148	247.98
918.32	254.57
918.493	241.2
918.665	320.25
918.837	265.03
919.009	339.04
919.181	310.75
919.353	283.05
919.525	264.06
919.697	271.23
919.869	286.34
920.041	330.32
920.213	385.73
920.385	302.04
920.557	268.32
920.729	285.57
920.901	278.01
921.073	295.84
921.244	256.89
921.416	304.17
921.588	263.48
921.76	255.15
921.932	353.77
922.103	263.09
922.275	279.17
922.447	267.36
922.619	196.25
922.79	285.57
922.962	249.53
923.134	293.32
923.305	236.74
923.477	197.8
923.648	226.28
923.82	255.54
923.991	196.83
924.163	207.68
924.335	259.02
924.506	192.57
924.677	274.52
924.849	214.85
925.02	219.89
925.192	255.73
925.363	239.07
925.535	255.73
925.706	203.22
925.877	280.34
926.049	207.1
926.22	235
926.391	229.38
926.562	251.08
926.734	204.39
926.905	273.94
927.076	213.3
927.247	237.13
927.419	181.53
927.59	213.88
927.761	210.39
927.932	186.17
928.103	175.33
928.274	152.85
928.445	157.31
928.616	184.62
928.787	160.79
928.958	197.61
929.129	203.42
929.3	176.68
929.471	131.34
929.642	118.56
929.813	48.03
929.984	140.06
930.155	68.18
930.326	111.97
930.496	84.26
930.667	32.73
930.838	109.26
931.009	74.38
931.18	104.99
931.35	115.07
931.521	98.6
931.692	58.69
931.863	39.51
932.033	54.23
932.204	106.54
932.374	86.59
932.545	42.61
932.716	86.98
932.886	94.53
933.057	2.89
933.227	31.18
933.398	107.9
933.568	15.68
933.739	-4.28
933.909	2.89
934.08	61.01
934.25	2.89
934.421	-19
934.591	15.68
934.761	0.37
934.932	6.18
935.102	31.56
935.272	-5.44
935.443	27.11
935.613	20.71
935.783	34.86
935.953	-27.14
936.123	146.46
936.294	3.67
936.464	8.12
936.634	6.57
936.804	10.06
936.974	-12.61
937.144	43.77
937.314	26.91
937.484	-10.87
937.655	-5.63
937.825	50.94
937.995	-14.74
938.165	54.23
938.334	5.99
938.504	31.76
938.674	-1.37
938.844	-5.63
939.014	47.06
939.184	31.56
939.354	78.45
939.524	68.38
939.694	26.91
939.863	20.52
940.033	86.4
940.203	133.09
940.373	62.18
940.542	60.43
940.712	41.06
940.882	82.33
941.051	109.64
941.221	93.76
941.391	104.22
941.56	16.06
941.73	21.49
941.899	133.28
942.069	19.55
942.238	61.4
942.408	17.03
942.577	80
942.747	39.12
942.916	2.89
943.086	20.33
943.255	80.78
943.425	62.18
943.594	10.06
943.763	-15.13
943.933	7.54
944.102	-32.57
944.271	41.64
944.441	57.72
944.61	17.61
944.779	8.7
944.948	89.3
945.117	-12.42
945.287	5.8
945.456	-42.64
945.625	-22.3
945.794	36.6
945.963	-3.7
946.132	64.89
946.301	16.06
946.47	53.07
946.639	-16.68
946.808	24.98
946.977	50.75
947.146	80.39
947.315	15.87
947.484	61.98
947.653	35.83
947.822	5.6
947.991	1.92
948.16	95.69
948.329	63.53
948.498	30.4
948.666	21.3
948.835	34.08
949.004	-10.48
949.173	-31.79
949.341	52.3
949.51	29.82
949.679	95.31
949.847	70.31
950.016	104.03
950.185	101.12
950.353	-1.57
950.522	-1.76
950.69	64.5
950.859	6.57
951.028	56.17
951.196	38.15
951.365	-14.16
951.533	27.11
951.701	38.15
951.87	50.75
952.038	1.53
952.207	40.67
952.375	52.88
952.543	15.68
952.712	22.85
952.88	0.95
953.048	93.56
953.217	26.53
953.385	31.95
953.553	84.46
953.721	-7.77
953.89	30.79
954.058	-6.22
954.226	9.09
954.394	35.25
954.562	-32.76
954.73	26.72
954.898	0.95
955.067	58.88
955.235	25.75
955.403	78.45
955.571	79.03
955.739	57.91
955.907	-3.12
956.075	24.78
956.243	-7.38
956.41	40.48
956.578	-29.27
956.746	-15.71
956.914	28.27
957.082	71.09
957.25	79.81
957.418	-5.83
957.585	16.84
957.753	61.01
957.921	-18.62
958.089	36.41
958.256	43
958.424	20.91
958.592	38.35
958.759	12.38
958.927	65.47
959.095	-1.76
959.262	19.94
959.43	38.54
959.597	6.96
959.765	36.99
959.932	27.5
960.1	68.96
960.267	13.55
960.435	10.06
960.602	68.18
960.77	7.15
960.937	-35.28
961.104	36.21
961.272	-23.85
961.439	13.16
961.606	43.96
961.774	64.31
961.941	8.9
962.108	40.86
962.275	11.03
962.443	60.24
962.61	29.24
962.777	107.71
962.944	24.4
963.111	51.13
963.278	37.57
963.446	37.38
963.613	26.33
963.78	89.3
963.947	75.93
964.114	49.39
964.281	107.9
964.448	67.8
964.615	13.35
964.782	46.1
964.949	88.53
965.116	61.79
965.282	109.06
965.449	20.52
965.616	-11.45
965.783	40.48
965.95	48.03
966.117	2.31
966.283	14.9
966.45	61.6
966.617	57.33
966.784	66.25
966.95	73.41
967.117	69.35
967.284	14.13
967.45	18.58
967.617	99.96
967.784	67.8
967.95	54.81
968.117	35.83
968.283	83.88
968.45	127.08
968.616	73.61
968.783	71.09
968.949	44.93
969.116	92.21
969.282	48.61
969.449	46.68
969.615	61.4
969.781	-22.1
969.948	14.13
970.114	-7.57
970.28	123.79
970.447	45.32
970.613	84.85
970.779	38.93
970.945	84.85
971.112	76.32
971.278	43.19
971.444	61.6
971.61	81.36
971.776	35.25
971.942	44.16
972.108	81.36
972.275	53.07
972.441	57.14
972.607	86.98
972.773	39.7
972.939	52.1
973.105	42.61
973.271	15.1
973.437	25.95
973.602	22.65
973.768	47.06
973.934	54.23
974.1	39.9
974.266	-35.28
974.432	38.15
974.598	36.21
974.763	62.56
974.929	54.81
975.095	108.29
975.261	18
975.426	1.53
975.592	51.71
975.758	126.89
975.923	-15.71
976.089	38.35
976.255	68.57
976.42	60.05
976.586	61.4
976.751	78.26
976.917	139.87
977.082	58.88
977.248	1.15
977.413	-11.25
977.579	7.54
977.744	68.57
977.91	8.51
978.075	58.88
978.24	80.2
978.406	48.03
978.571	14.9
978.736	35.44
978.902	63.34
979.067	11.61
979.232	-10.67
979.397	69.93
979.563	100.73
979.728	9.28
979.893	32.92
980.058	9.67
980.223	87.56
980.388	32.34
980.554	57.53
980.719	30.21
980.884	53.26
981.049	85.04
981.214	17.42
981.379	38.93
981.544	-7.96
981.709	31.37
981.874	26.91
982.039	35.05
982.204	54.62
982.368	75.93
982.533	2.7
982.698	82.52
982.863	62.56
983.028	31.95
983.193	46.68
983.357	39.12
983.522	44.93
983.687	43.96
983.852	26.91
984.016	39.51
984.181	51.13
984.346	50.94
984.51	73.8
984.675	71.09
984.839	69.93
985.004	34.66
985.168	80.39
985.333	61.4
985.498	40.09
985.662	69.15
985.827	42.03
985.991	33.31
986.155	5.02
986.32	74.96
986.484	70.9
986.649	70.9
986.813	-19.39
986.977	17.03
987.142	56.95
987.306	25.75
987.47	22.07
987.634	35.05
987.799	48.42
987.963	39.31
988.127	53.07
988.291	113.91
988.455	29.24
988.62	22.26
988.784	74.19
988.948	78.84
989.112	19.94
989.276	61.79
989.44	59.46
989.604	15.87
989.768	24.4
989.932	120.69
990.096	23.43
990.26	-4.86
990.424	-8.15
990.588	12.58
990.752	83.1
990.915	58.11
991.079	16.84
991.243	6.96
991.407	58.88
991.571	34.86
991.734	57.33
991.898	54.04
992.062	138.13
992.226	38.35
992.389	-19.39
992.553	-13.77
992.717	-5.63
992.88	27.69
993.044	23.81
993.207	21.68
993.371	50.75
993.535	32.73
993.698	20.13
993.862	72.83
994.025	109.64
994.189	53.65
994.352	49.39
994.515	74.19
994.679	80.78
994.842	43.77
995.006	74.19
995.169	32.15
995.332	-4.47
995.496	53.46
995.659	2.7
995.822	23.43
995.985	27.11
996.149	88.53
996.312	13.55
996.475	118.56
996.638	35.05
996.801	103.44
996.964	104.99
997.128	45.51
997.291	46.68
997.454	72.64
997.617	-19.78
997.78	80.58
997.943	7.35
998.106	81.36
998.269	5.22
998.432	28.66
998.595	15.68
998.758	-24.04
998.92	-15.52
999.083	-34.89
999.246	27.69
999.409	-13
999.572	-23.85
999.735	21.3
999.897	45.71
1000.06	19.55
1000.223	10.64
1000.386	63.34
1000.548	61.79
1000.711	41.25
1000.874	45.32
1001.036	-9.32
1001.199	66.25
1001.361	18.97
1001.524	11.61
1001.687	34.66
1001.849	31.37
1002.012	36.21
1002.174	10.45
1002.337	41.06
1002.499	21.49
1002.661	51.52
1002.824	-16.68
1002.986	13.16
1003.149	39.12
1003.311	1.15
1003.473	63.15
1003.636	10.64
1003.798	25.95
1003.96	28.27
1004.123	36.21
1004.285	9.48
1004.447	24.4
1004.609	28.66
1004.771	64.31
1004.933	-41.28
1005.096	2.12
1005.258	-27.92
1005.42	36.99
1005.582	65.47
1005.744	24.78
1005.906	-22.68
1006.068	35.83
1006.23	8.31
1006.392	-30.05
1006.554	-5.83
1006.716	47.06
1006.878	38.93
1007.04	-26.17
1007.202	8.12
1007.363	20.33
1007.525	26.91
1007.687	49.78
1007.849	49.2
1008.011	-28.5
1008.172	-17.84
1008.334	17.42
1008.496	19.75
1008.658	-29.47
1008.819	-18.81
1008.981	3.67
1009.143	-1.18
1009.304	24.59
1009.466	43.58
1009.627	59.66
1009.789	121.66
1009.95	39.31
1010.112	-14.74
1010.273	25.36
1010.435	9.48
1010.596	3.08
1010.758	-8.15
1010.919	14.9
1011.081	-20.36
1011.242	6.18
1011.403	40.28
1011.565	13.35
1011.726	17.42
1011.887	-26.17
1012.049	7.73
1012.21	55.2
1012.371	61.21
1012.532	-63.95
1012.693	25.36
1012.855	-2.15
1013.016	13.74
1013.177	61.01
1013.338	37.57
1013.499	63.73
1013.66	66.05
1013.821	43
1013.982	14.13
1014.143	30.4
1014.304	-2.73
1014.465	22.26
1014.626	50.36
1014.787	-19.2
1014.948	113.13
1015.109	-69.18
1015.27	24.98
1015.431	12
1015.592	-12.8
1015.752	53.85
1015.913	42.61
1016.074	35.44
1016.235	9.86
1016.395	30.21
1016.556	18.97
1016.717	19.94
1016.877	55.78
1017.038	1.73
1017.199	5.99
1017.359	35.05
1017.52	18.78
1017.681	-19.58
1017.841	5.6
1018.002	-31.21
1018.162	-16.68
1018.323	61.98
1018.483	23.62
1018.644	8.12
1018.804	-29.66
1018.964	-22.3
1019.125	1.53
1019.285	12
1019.446	-15.71
1019.606	-43.8
1019.766	-23.65
1019.926	19.16
1020.087	16.65
1020.247	-39.35
1020.407	21.1
1020.567	54.62
1020.728	-4.47
1020.888	-19.78
1021.048	-14.55
1021.208	-18.81
1021.368	12.58
1021.528	21.88
1021.688	31.37
1021.848	38.73
1022.008	8.12
1022.168	-0.98
1022.328	22.85
1022.488	34.86
1022.648	-1.37
1022.808	15.48
1022.968	50.94
1023.128	-6.8
1023.288	-2.15
1023.448	-18.03
1023.608	40.86
1023.767	10.06
1023.927	-11.06
1024.087	-11.45
1024.247	-33.92
1024.406	-1.57
1024.566	-13.58
1024.726	-38.18
1024.885	13.93
1025.045	20.71
1025.205	-11.25
1025.364	-0.79
1025.524	26.33
1025.683	10.06
1025.843	14.51
1026.003	5.6
1026.162	40.48
1026.321	60.24
1026.481	9.28
1026.64	3.28
1026.8	17.03
1026.959	9.48
1027.119	1.73
1027.278	-19
1027.437	-30.05
1027.597	7.54
1027.756	27.11
1027.915	5.41
1028.074	24.78
1028.234	-7.18
1028.393	-2.53
1028.552	-8.54
1028.711	-99.21
1028.87	23.43
1029.03	-20.55
1029.189	-10.67
1029.348	-54.65
1029.507	-8.93
1029.666	4.25
1029.825	-49.42
1029.984	-11.25
1030.143	19.94
1030.302	-23.27
1030.461	-60.08
1030.62	-4.47
1030.779	45.13
1030.938	-18.42
1031.097	-21.52
1031.255	33.11
1031.414	44.55
1031.573	60.82
1031.732	-66.67
1031.891	-1.57
1032.049	54.43
1032.208	10.83
1032.367	-6.41
1032.525	0.95
1032.684	-2.34
1032.843	5.02
1033.001	-11.83
1033.16	135.99
1033.319	41.45
1033.477	11.03
1033.636	-34.89
1033.794	-22.49
1033.953	49
1034.111	37.38
1034.27	-28.3
1034.428	12
1034.587	-31.6
1034.745	16.45
1034.903	8.51
1035.062	6.96
1035.22	-44.97
1035.378	49.39
1035.537	-18.62
1035.695	44.35
1035.853	-8.15
1036.011	31.18
1036.17	9.48
1036.328	-60.47
1036.486	16.06
1036.644	-19.97
1036.802	-92.43
1036.96	-11.06
1037.119	-35.08
1037.277	-28.5
1037.435	-30.82
1037.593	-9.7
1037.751	9.48
1037.909	8.51
1038.067	8.51
