Data from pine_FLMT105791__44__17-20-18-079.txt Node

Date: Mon Mar 20 17:20:18 GMT 2023
User: antho
Spectrometer: FLMT10579
Trigger mode: 0
Integration Time (sec): 1.000000E-1
Scans to average: 10
Electric dark correction enabled: true
Nonlinearity correction enabled: false
Boxcar width: 0
XAxis mode: Wavelengths
Number of Pixels in Spectrum: 3648
>>>>>Begin Spectral Data<<<<<
345.248	-147.34
345.464	-147.34
345.681	-147.34
345.898	-163.81
346.114	-164.59
346.331	-40.2
346.548	7.85
346.764	-3.58
346.981	9.98
347.197	-3.78
347.414	34
347.631	-32.07
347.847	62.48
348.064	-24.9
348.28	26.45
348.497	-42.72
348.713	6.49
348.93	36.72
349.146	19.28
349.363	-12.5
349.579	21.6
349.796	-18.7
350.012	-10.17
350.229	22.18
350.445	-22.96
350.661	-31.87
350.878	12.69
351.094	15.79
351.311	1.26
351.527	13.85
351.743	-4.36
351.96	22.96
352.176	36.52
352.392	12.3
352.609	27.22
352.825	-22.38
353.041	10.56
353.257	18.5
353.474	9.01
353.69	15.02
353.906	-23.54
354.122	-8.43
354.339	45.43
354.555	7.07
354.771	-31.68
354.987	55.7
355.203	55.12
355.42	-12.3
355.636	5.72
355.852	-42.92
356.068	-4.75
356.284	-42.92
356.5	38.07
356.716	34.58
356.932	21.22
357.148	76.82
357.364	-3.78
357.58	49.7
357.796	38.27
358.012	55.31
358.228	50.86
358.444	-60.93
358.66	64.23
358.876	25.28
359.092	-17.53
359.308	14.43
359.524	12.5
359.74	-2.81
359.956	-21.99
360.172	6.68
360.388	59
360.604	-2.23
360.819	90.96
361.035	7.27
361.251	38.85
361.467	1.84
361.683	42.53
361.898	34.58
362.114	39.62
362.33	8.43
362.546	30.9
362.762	7.65
362.977	11.72
363.193	-24.32
363.409	36.91
363.624	-34.39
363.84	3.2
364.056	-9.4
364.271	30.71
364.487	21.41
364.703	-9.98
364.918	-18.5
365.134	-2.81
365.35	4.36
365.565	92.9
365.781	23.93
365.996	21.02
366.212	60.55
366.427	12.11
366.643	-11.92
366.858	12.69
367.074	-11.53
367.289	41.37
367.505	116.54
367.72	-26.83
367.936	-31.87
368.151	45.24
368.367	28.38
368.582	6.3
368.798	-5.91
369.013	56.67
369.228	30.32
369.444	26.64
369.659	57.06
369.874	28.19
370.09	71.4
370.305	-41.17
370.52	-4.55
370.736	58.22
370.951	13.08
371.166	93.29
371.381	67.52
371.597	48.34
371.812	-20.44
372.027	-9.4
372.242	12.5
372.458	51.05
372.673	0.48
372.888	25.28
373.103	55.7
373.318	77.4
373.533	37.3
373.749	19.86
373.964	-48.73
374.179	46.6
374.394	-9.59
374.609	65.39
374.824	-6.3
375.039	48.34
375.254	12.69
375.469	83.41
375.684	34.58
375.899	49.89
376.114	21.02
376.329	19.08
376.544	69.26
376.759	54.54
376.974	-19.86
377.189	4.94
377.404	19.28
377.619	53.18
377.834	-28.58
378.049	-28.77
378.264	-33.62
378.478	33.23
378.693	-11.33
378.908	43.11
379.123	-8.04
379.338	61.13
379.553	-1.65
379.767	48.34
379.982	18.7
380.197	35.17
380.412	4.94
380.626	64.81
380.841	97.75
381.056	9.78
381.271	71.78
381.485	-10.56
381.7	-8.62
381.915	34.2
382.129	1.26
382.344	44.46
382.559	11.53
382.773	46.21
382.988	-37.1
383.202	7.65
383.417	-9.2
383.632	104.72
383.846	17.73
384.061	11.33
384.275	9.2
384.49	19.28
384.704	39.04
384.919	27.22
385.133	34.58
385.348	59.38
385.562	-27.22
385.777	37.1
385.991	-6.88
386.206	0.29
386.42	8.43
386.634	74.88
386.849	46.79
387.063	48.53
387.277	-7.85
387.492	-9.2
387.706	7.65
387.92	-11.92
388.135	46.6
388.349	44.27
388.563	24.12
388.778	25.67
388.992	61.51
389.206	45.05
389.42	107.24
389.635	34.39
389.849	37.49
390.063	55.31
390.277	38.27
390.491	85.93
390.706	62.1
390.92	29.55
391.134	31.1
391.348	40.4
391.562	-20.44
391.776	40.59
391.99	-10.95
392.205	46.4
392.419	3
392.633	7.27
392.847	69.07
393.061	24.7
393.275	95.81
393.489	30.32
393.703	37.49
393.917	70.23
394.131	10.37
394.345	48.92
394.559	66.55
394.773	-6.1
394.986	24.12
395.2	9.01
395.414	31.68
395.628	-8.23
395.842	11.53
396.056	6.68
396.27	-42.92
396.484	27.42
396.697	26.25
396.911	72.75
397.125	24.12
397.339	54.35
397.553	47.18
397.766	97.36
397.98	73.14
398.194	68.68
398.408	11.33
398.621	44.27
398.835	54.15
399.049	35.94
399.262	82.83
399.476	45.63
399.69	56.28
399.903	110.73
400.117	29.35
400.331	43.69
400.544	-3.97
400.758	145.99
400.971	50.28
401.185	68.3
401.398	21.6
401.612	74.69
401.826	59.58
402.039	57.64
402.253	41.56
402.466	58.61
402.68	51.83
402.893	43.3
403.106	74.11
403.32	20.44
403.533	44.46
403.747	34.39
403.96	30.52
404.174	56.28
404.387	3
404.6	65.97
404.814	41.56
405.027	52.6
405.24	58.22
405.454	16.37
405.667	91.55
405.88	-13.27
406.094	40.4
406.307	57.06
406.52	75.46
406.733	33.81
406.947	-0.1
407.16	75.46
407.373	72.95
407.586	4.94
407.799	-3
408.012	70.23
408.226	34.58
408.439	101.81
408.652	8.23
408.865	48.34
409.078	79.53
409.291	73.91
409.504	26.06
409.717	78.76
409.93	36.13
410.143	55.9
410.357	-26.83
410.57	0.29
410.783	39.23
410.996	43.11
411.209	43.88
411.421	94.65
411.634	55.7
411.847	22.96
412.06	41.95
412.273	17.92
412.486	46.4
412.699	126.42
412.912	33.62
413.125	71.59
413.338	44.27
413.55	97.16
413.763	51.44
413.976	75.85
414.189	21.99
414.402	10.56
414.615	68.88
414.827	5.13
415.04	106.85
415.253	89.03
415.466	71.4
415.678	114.21
415.891	45.63
416.104	26.83
416.316	30.13
416.529	50.47
416.742	74.88
416.954	116.15
417.167	60.74
417.38	49.31
417.592	111.11
417.805	28.38
418.017	28.38
418.23	93.1
418.442	58.61
418.655	47.56
418.868	90.38
419.08	100.26
419.293	110.15
419.505	85.54
419.718	57.25
419.93	106.66
420.142	41.95
420.355	90
420.567	108.6
420.78	67.52
420.992	64.03
421.205	126.61
421.417	35.75
421.629	34.2
421.842	31.29
422.054	6.3
422.266	74.11
422.479	110.34
422.691	35.36
422.903	105.3
423.115	62.1
423.328	82.83
423.54	75.66
423.752	62.29
423.964	55.31
424.177	67.33
424.389	77.21
424.601	169.82
424.813	87.48
425.025	101.81
425.238	83.02
425.45	65.2
425.662	65.2
425.874	368.41
426.086	108.21
426.298	106.66
426.51	65.97
426.722	73.33
426.934	55.12
427.146	87.28
427.358	37.68
427.57	99.1
427.782	73.14
427.994	94.06
428.206	71.2
428.418	17.34
428.63	105.88
428.842	97.94
429.054	73.91
429.266	117.31
429.478	46.98
429.69	83.6
429.902	50.86
430.114	118.86
430.325	93.29
430.537	64.61
430.749	59.77
430.961	24.51
431.173	101.43
431.384	100.46
431.596	33.03
431.808	71.78
432.02	91.55
432.231	118.48
432.443	126.61
432.655	109.56
432.867	49.7
433.078	103.95
433.29	161.88
433.502	130.68
433.713	134.56
433.925	101.81
434.136	157.61
434.348	85.35
434.56	36.72
434.771	189.39
434.983	72.95
435.194	84.76
435.406	101.43
435.617	136.69
435.829	148.89
436.04	155.09
436.252	153.16
436.463	174.28
436.675	155.48
436.886	121.58
437.098	135.91
437.309	192.88
437.521	121.96
437.732	145.21
437.943	121.38
438.155	138.82
438.366	58.22
438.578	158.97
438.789	135.91
439	144.24
439.211	131.46
439.423	150.83
439.634	149.28
439.845	177.57
440.057	146.18
440.268	171.95
440.479	124.29
440.69	118.48
440.902	149.48
441.113	115.38
441.324	119.45
441.535	168.85
441.746	213.61
441.957	122.35
442.168	136.11
442.38	146.96
442.591	178.93
442.802	138.24
443.013	113.05
443.224	156.26
443.435	114.99
443.646	146.18
443.857	153.16
444.068	120.03
444.279	115.18
444.49	235.31
444.701	160.13
444.912	258.36
445.123	202.56
445.334	167.3
445.545	165.94
445.756	163.62
445.967	98.71
446.178	179.89
446.388	218.06
446.599	192.88
446.81	177.38
447.021	165.17
447.232	190.36
447.443	213.03
447.653	144.05
447.864	202.95
448.075	184.16
448.286	206.83
448.496	189.19
448.707	200.04
448.918	174.86
449.129	268.24
449.339	138.24
449.55	192.88
449.761	172.73
449.971	235.11
450.182	199.85
450.393	189.39
450.603	167.88
450.814	215.16
451.024	215.74
451.235	222.91
451.446	247.51
451.656	263.4
451.867	176.99
452.077	222.91
452.288	252.16
452.498	238.99
452.709	185.13
452.919	211.28
453.13	183.96
453.34	222.13
453.55	171.56
453.761	234.14
453.971	214.19
454.182	251.39
454.392	222.71
454.602	294.59
454.813	204.31
455.023	259.72
455.233	172.73
455.444	183.58
455.654	127.97
455.864	230.66
456.075	202.56
456.285	211.28
456.495	195.98
456.705	231.62
456.916	258.56
457.126	298.47
457.336	232.4
457.546	177.38
457.756	207.79
457.967	247.9
458.177	201.79
458.387	251.39
458.597	199.46
458.807	221.74
459.017	214.96
459.227	213.03
459.437	195.2
459.647	266.89
459.857	261.46
460.068	206.83
460.278	262.04
460.488	264.95
460.698	302.34
460.908	195.39
461.117	199.46
461.327	189.58
461.537	217.87
461.747	248.29
461.957	236.08
462.167	335.86
462.377	282.58
462.587	230.27
462.797	296.14
463.007	259.91
463.216	265.92
463.426	287.81
463.636	301.96
463.846	232.98
464.056	252.94
464.265	284.52
464.475	220.97
464.685	233.37
464.895	280.45
465.104	262.04
465.314	276.96
465.524	234.53
465.733	188.03
465.943	325.59
466.153	345.35
466.362	286.07
466.572	271.73
466.782	261.46
466.991	271.54
467.201	327.53
467.41	219.22
467.62	270.37
467.829	259.33
468.039	278.9
468.249	266.89
468.458	272.51
468.668	311.64
468.877	298.86
469.086	323.27
469.296	335.47
469.505	236.66
469.715	316.68
469.924	302.92
470.134	334.7
470.343	355.43
470.552	292.46
470.762	300.02
470.971	254.29
471.18	306.6
471.39	255.65
471.599	269.6
471.808	321.33
472.018	278.71
472.227	330.24
472.436	353.1
472.645	316.29
472.855	265.53
473.064	367.05
473.273	309.9
473.482	342.84
473.691	347.68
473.901	339.35
474.11	291.3
474.319	413.17
474.528	339.15
474.737	369.38
474.946	308.54
475.155	329.47
475.364	362.99
475.573	341.87
475.783	354.07
475.992	352.91
476.201	406.38
476.41	318.62
476.619	318.81
476.828	367.25
477.037	329.47
477.245	325.98
477.454	368.6
477.663	354.27
477.872	339.74
478.081	418.78
478.29	317.45
478.499	439.52
478.708	385.65
478.917	437.97
479.125	399.02
479.334	390.89
479.543	366.28
479.752	396.89
479.961	386.24
480.169	412
480.378	352.52
480.587	492.21
480.796	402.9
481.004	394.76
481.213	420.14
481.422	426.73
481.63	408.13
481.839	443.97
482.048	481.95
482.256	455.79
482.465	426.53
482.674	435.45
482.882	464.32
483.091	532.32
483.299	449.01
483.508	457.73
483.716	449.01
483.925	441.65
484.134	456.95
484.342	449.01
484.551	479.82
484.759	449.59
484.967	492.41
485.176	485.43
485.384	474.97
485.593	513.91
485.801	461.22
486.01	455.21
486.218	413.36
486.426	400.18
486.635	417.62
486.843	390.69
487.051	444.94
487.26	407.35
487.468	437.58
487.676	468.97
487.885	439.13
488.093	486.01
488.301	495.7
488.509	472.45
488.717	496.09
488.926	463.93
489.134	489.31
489.342	483.69
489.55	456.57
489.758	498.61
489.967	501.32
490.175	547.43
490.383	483.11
490.591	559.25
490.799	495.51
491.007	536.97
491.215	517.79
491.423	511.01
491.631	516.82
491.839	512.95
492.047	557.7
492.255	477.1
492.463	462.38
492.671	502.68
492.879	549.95
493.087	523.99
493.295	541.04
493.503	550.34
493.711	578.04
493.919	571.26
494.127	561.58
494.334	595.68
494.542	511.01
494.75	555.96
494.958	532.51
495.166	638.11
495.374	558.09
495.581	591.03
495.789	573.98
495.997	620.09
496.205	564.68
496.412	543.17
496.62	537.36
496.828	591.61
497.035	562.16
497.243	601.88
497.451	594.13
497.658	588.31
497.866	584.83
498.074	654.19
498.281	542.78
498.489	672.4
498.696	593.74
498.904	585.02
499.112	564.87
499.319	676.86
499.527	598.78
499.734	630.94
499.942	548.6
500.149	577.46
500.357	613.31
500.564	523.99
500.771	608.46
500.979	590.06
501.186	582.31
501.394	626.09
501.601	619.31
501.808	629.19
502.016	607.88
502.223	594.32
502.43	603.81
502.638	613.89
502.845	559.06
503.052	678.99
503.26	612.73
503.467	694.49
503.674	616.02
503.881	645.08
504.089	691.58
504.296	644.69
504.503	583.28
504.71	658.06
504.917	595.87
505.125	657.48
505.332	647.21
505.539	664.26
505.746	729.17
505.953	662.13
506.16	668.72
506.367	709.6
506.574	753.77
506.781	757.84
506.988	660.19
507.195	671.04
507.402	694.87
507.609	727.04
507.816	673.56
508.023	660.19
508.23	683.44
508.437	631.91
508.644	694.68
508.851	718.9
509.058	709.02
509.265	704.37
509.472	745.64
509.679	806.67
509.885	726.26
510.092	700.11
510.299	723.55
510.506	721.81
510.713	714.83
510.92	733.43
511.126	736.14
511.333	806.86
511.54	784.97
511.746	804.73
511.953	786.13
512.16	808.6
512.367	752.42
512.573	748.15
512.78	776.44
512.987	786.13
513.193	781.29
513.4	683.44
513.606	736.34
513.813	795.24
514.02	796.4
514.226	842.51
514.433	814.8
514.639	730.33
514.846	805.12
515.052	762.1
515.259	809.19
515.465	785.74
515.672	794.46
515.878	884.17
516.085	797.56
516.291	843.67
516.497	782.64
516.704	804.54
516.91	775.47
517.117	722.77
517.323	704.95
517.529	755.71
517.736	742.73
517.942	754.55
518.148	747.77
518.354	795.62
518.561	809.38
518.767	784.39
518.973	831.47
519.179	851.23
519.386	790.39
519.592	794.46
519.798	797.37
520.004	857.62
520.21	845.8
520.417	893.47
520.623	922.14
520.829	913.03
521.035	897.53
521.241	905.67
521.447	927.76
521.653	1008.94
521.859	914.58
522.065	917.68
522.271	1022.89
522.477	1004.48
522.683	985.69
522.889	955.46
523.095	995.76
523.301	973.29
523.507	925.63
523.713	959.92
523.919	915.55
524.125	1004.68
524.331	959.15
524.537	1048.46
524.742	1022.89
524.948	1043.62
525.154	1056.21
525.36	1171.3
525.566	1034.13
525.772	1103.87
525.977	1030.06
526.183	1064.74
526.389	1072.29
526.595	1019.59
526.8	1006.03
527.006	980.46
527.212	928.73
527.417	940.55
527.623	947.71
527.829	1012.62
528.034	1038.58
528.24	1029.09
528.446	988.98
528.651	1098.26
528.857	1080.04
529.062	1082.76
529.268	1066.48
529.473	1126.16
529.679	1110.27
529.884	1177.31
530.09	1147.66
530.295	1178.47
530.501	1163.55
530.706	1145.92
530.912	1103.87
531.117	1136.23
531.323	1131.39
531.528	1174.21
531.733	1151.92
531.939	1110.27
532.144	1183.7
532.35	1146.89
532.555	1183.12
532.76	1176.53
532.966	1190.87
533.171	1161.03
533.376	1128.29
533.581	1074.62
533.787	1145.92
533.992	1161.03
534.197	1194.35
534.402	1136.62
534.607	1178.27
534.813	1264.49
535.018	1169.36
535.223	1177.89
535.428	1179.82
535.633	1230.97
535.838	1227.1
536.043	1193
536.249	1312.35
536.454	1243.76
536.659	1239.89
536.864	1223.42
537.069	1200.55
537.274	1228.26
537.479	1227.49
537.684	1242.02
537.889	1180.21
538.094	1321.07
538.299	1225.35
538.504	1248.8
538.708	1242.79
538.913	1277.67
539.118	1263.14
539.323	1283.09
539.528	1245.7
539.733	1257.9
539.938	1252.29
540.142	1260.23
540.347	1235.43
540.552	1233.49
540.757	1248.6
540.962	1231.94
541.166	1190.87
541.371	1138.75
541.576	1222.06
541.781	1130.42
541.985	1295.3
542.19	1252.87
542.395	1311.77
542.599	1333.66
542.804	1293.17
543.008	1298.2
543.213	1224.58
543.418	1235.04
543.622	1313.7
543.827	1244.73
544.031	1350.32
544.236	1303.82
544.44	1289.48
544.645	1391.01
544.849	1297.43
545.054	1370.86
545.258	1391.59
545.463	1375.31
545.667	1303.63
545.872	1348
546.076	1329.78
546.281	1333.08
546.485	1310.6
546.689	1317.77
546.894	1349.35
547.098	1310.99
547.302	1281.54
547.507	1314.09
547.711	1332.11
547.915	1372.99
548.119	1300.14
548.324	1315.64
548.528	1408.06
548.732	1341.8
548.936	1394.88
549.141	1368.34
549.345	1299.95
549.549	1316.42
549.753	1309.63
549.957	1396.63
550.161	1404.18
550.366	1344.51
550.57	1293.36
550.774	1346.25
550.978	1379.77
551.182	1402.44
551.386	1331.53
551.59	1320.29
551.794	1306.53
551.998	1362.14
552.202	1348.77
552.406	1279.6
552.61	1361.75
552.814	1354.58
553.018	1446.81
553.222	1336.76
553.426	1349.16
553.63	1410.77
553.833	1338.12
554.037	1307.31
554.241	1372.02
554.445	1358.85
554.649	1375.9
554.853	1351.29
555.056	1377.06
555.26	1410
555.464	1373.76
555.668	1368.53
555.871	1376.48
556.075	1375.9
556.279	1294.13
556.483	1306.73
556.686	1350.71
556.89	1294.52
557.094	1370.66
557.297	1271.47
557.501	1416.58
557.704	1268.95
557.908	1367.18
558.112	1320.29
558.315	1397.98
558.519	1345.48
558.722	1336.18
558.926	1344.51
559.129	1259.07
559.333	1244.54
559.536	1292.78
559.74	1269.14
559.943	1236.98
560.147	1242.79
560.35	1313.9
560.553	1256.16
560.757	1200.94
560.96	1349.35
561.164	1238.14
561.367	1397.01
561.57	1288.13
561.774	1308.47
561.977	1264.1
562.18	1246.86
562.384	1344.32
562.587	1287.55
562.79	1235.04
562.993	1275.73
563.197	1281.15
563.4	1329.2
563.603	1311.38
563.806	1361.17
564.009	1248.8
564.212	1299.75
564.416	1224.39
564.619	1276.89
564.822	1216.25
565.025	1287.55
565.228	1219.54
565.431	1247.64
565.634	1141.46
565.837	1181.57
566.04	1166.46
566.243	1181.37
566.446	1112.98
566.649	1220.51
566.852	1162
567.055	1189.9
567.258	1213.54
567.461	1256.35
567.664	1257.71
567.867	1129.26
568.07	1218.38
568.273	1174.01
568.475	1239.11
568.678	1150.57
568.881	1171.49
569.084	1184.47
569.287	1082.56
569.489	1106.78
569.692	1190.09
569.895	1177.69
570.098	1130.81
570.3	1135.07
570.503	1059.7
570.706	1110.27
570.909	1062.22
571.111	1046.91
571.314	1044.01
571.516	1084.5
571.719	1103.29
571.922	1061.25
572.124	1064.54
572.327	1089.15
572.529	1075.39
572.732	1057.57
572.935	1107.75
573.137	1134.29
573.34	1053.89
573.542	1106.39
573.745	1131.39
573.947	1095.93
574.15	1087.99
574.352	1012.43
574.554	1162.97
574.757	1049.04
574.959	1039.94
575.162	1030.06
575.364	1036.26
575.566	1126.16
575.769	1001.38
575.971	1070.55
576.173	957.4
576.376	1054.66
576.578	1092.25
576.78	1092.25
576.982	975.61
577.185	996.73
577.387	1001
577.589	990.92
577.791	1027.93
577.993	1032.96
578.196	993.05
578.398	1022.5
578.6	1062.8
578.802	971.55
579.004	976.2
579.206	977.55
579.408	1018.82
579.61	949.85
579.812	1044.39
580.014	1026.38
580.216	967.28
580.418	1002.74
580.62	980.26
580.822	929.89
581.024	1024.24
581.226	1025.79
581.428	980.85
581.63	1039.16
581.832	977.55
582.034	1050.01
582.236	1011.26
582.438	1025.6
582.64	1042.65
582.841	1067.26
583.043	1096.71
583.245	1020.95
583.447	1022.5
583.649	970.38
583.85	1014.17
584.052	1067.26
584.254	991.11
584.456	1080.63
584.657	950.62
584.859	1028.7
585.061	989.76
585.262	994.6
585.464	955.46
585.666	1039.94
585.867	967.86
586.069	1052.73
586.27	1006.23
586.472	1009.71
586.674	987.05
586.875	978.91
587.077	971.16
587.278	1011.65
587.48	1008.55
587.681	1073.84
587.883	976.78
588.084	923.11
588.285	979.1
588.487	959.73
588.688	935.31
588.89	904.7
589.091	897.53
589.292	895.98
589.494	899.67
589.695	860.53
589.896	833.98
590.098	808.22
590.299	880.48
590.5	842.51
590.702	854.91
590.903	886.68
591.104	965.54
591.305	903.54
591.507	946.94
591.708	927.95
591.909	906.64
592.11	954.5
592.311	940.93
592.512	927.95
592.714	846.97
592.915	849.48
593.116	886.1
593.317	894.05
593.518	919.04
593.719	921.75
593.92	939.77
594.121	955.08
594.322	931.63
594.523	901.8
594.724	865.95
594.925	901.41
595.126	918.65
595.327	920.78
595.528	920.2
595.729	919.04
595.929	883.39
596.13	892.11
596.331	907.61
596.532	888.04
596.733	946.94
596.934	939.38
597.135	928.34
597.335	900.63
597.536	914.97
597.737	936.09
597.938	879.52
598.138	902.18
598.339	900.63
598.54	920.4
598.74	912.84
598.941	864.98
599.142	971.16
599.342	928.15
599.543	872.54
599.744	900.05
599.944	871.38
600.145	891.33
600.345	885.72
600.546	949.65
600.746	946.16
600.947	1001.38
601.147	925.63
601.348	942.87
601.548	899.86
601.749	938.41
601.949	851.03
602.15	888.23
602.35	870.22
602.551	937.83
602.751	860.14
602.951	877.58
603.152	831.08
603.352	933.57
603.552	874.67
603.753	934.93
603.953	904.7
604.153	876.03
604.354	886.49
604.554	896.57
604.754	905.67
604.954	863.05
605.155	953.53
605.355	883.78
605.555	938.22
605.755	955.08
605.955	888.62
606.155	928.15
606.356	915.75
606.556	897.92
606.756	923.88
606.956	847.16
607.156	944.23
607.356	851.42
607.556	910.9
607.756	904.7
607.956	937.25
608.156	893.66
608.356	864.79
608.556	912.84
608.756	852.97
608.956	844.83
609.156	900.05
609.356	850.07
609.556	859.56
609.755	855.1
609.955	818.1
610.155	851.81
610.355	864.4
610.555	825.85
610.755	846.19
610.954	797.56
611.154	840.18
611.354	866.53
611.554	844.64
611.753	831.27
611.953	786.9
612.153	844.06
612.352	877.97
612.552	801.63
612.752	760.36
612.951	809.57
613.151	801.05
613.351	805.89
613.55	836.7
613.75	834.18
613.949	811.51
614.149	831.27
614.348	851.62
614.548	795.62
614.747	766.56
614.947	791.75
615.146	730.33
615.346	827.59
615.545	835.15
615.745	809.38
615.944	819.45
616.144	780.51
616.343	812.09
616.542	772.18
616.742	760.17
616.941	808.41
617.14	727.81
617.34	808.22
617.539	787.68
617.738	750.09
617.938	854.52
618.137	765.59
618.336	742.34
618.535	785.16
618.734	766.95
618.934	769.66
619.133	774.7
619.332	802.4
619.531	770.63
619.73	757.45
619.929	794.46
620.128	810.35
620.328	812.29
620.527	738.27
620.726	760.36
620.925	736.34
621.124	745.44
621.323	783.03
621.522	726.46
621.721	753.77
621.92	761.72
622.119	793.49
622.318	748.93
622.517	761.52
622.715	749.51
622.914	675.89
623.113	733.04
623.312	705.14
623.511	757.65
623.71	752.42
623.909	721.42
624.107	789.62
624.306	701.27
624.505	695.07
624.704	686.93
624.902	740.99
625.101	739.44
625.3	698.36
625.499	686.93
625.697	712.12
625.896	689.64
626.095	714.83
626.293	694.1
626.492	690.22
626.69	726.84
626.889	672.59
627.088	728.78
627.286	669.88
627.485	697.39
627.683	672.21
627.882	718.12
628.08	621.25
628.279	665.81
628.477	776.44
628.676	639.08
628.874	703.79
629.073	659.61
629.271	639.66
629.469	674.14
629.668	674.14
629.866	706.31
630.065	667.94
630.263	692.74
630.461	677.05
630.66	655.93
630.858	714.06
631.056	738.27
631.254	705.92
631.453	651.28
631.651	749.12
631.849	698.75
632.047	702.62
632.245	687.32
632.444	695.46
632.642	716.38
632.84	710.96
633.038	665.04
633.236	651.86
633.434	632.29
633.632	624.93
633.83	661.74
634.028	691.58
634.227	672.79
634.425	728.2
634.623	689.84
634.821	699.72
635.019	667.36
635.216	673.56
635.414	719.29
635.612	678.6
635.81	704.17
636.008	720.84
636.206	680.73
636.404	684.99
636.602	661.74
636.8	661.74
636.997	671.04
637.195	692.55
637.393	681.12
637.591	734.98
637.789	705.34
637.986	703.21
638.184	668.72
638.382	733.24
638.58	703.21
638.777	746.22
638.975	672.21
639.173	700.49
639.37	693.32
639.568	670.07
639.765	733.43
639.963	691
640.161	728.2
640.358	682.47
640.556	625.71
640.753	630.74
640.951	640.43
641.148	654.19
641.346	637.91
641.543	641.21
641.741	667.36
641.938	629.39
642.136	651.09
642.333	635.2
642.531	674.72
642.728	693.71
642.925	672.01
643.123	632.49
643.32	653.99
643.517	635.59
643.715	647.41
643.912	617.96
644.109	652.64
644.306	623.96
644.504	615.44
644.701	648.18
644.898	685.38
645.095	631.91
645.293	645.08
645.49	666.78
645.687	629.19
645.884	660.39
646.081	604.59
646.278	624.35
646.475	614.86
646.672	579.01
646.87	639.08
647.067	600.33
647.264	627.84
647.461	577.08
647.658	550.15
647.855	633.65
648.052	601.29
648.249	537.94
648.446	593.35
648.642	548.6
648.839	561.38
649.036	568.74
649.233	560.61
649.43	552.47
649.627	522.05
649.824	571.65
650.021	563.9
650.217	539.3
650.414	535.42
650.611	571.46
650.808	578.43
651.004	560.8
651.201	567.39
651.398	636.56
651.595	560.41
651.791	555.38
651.988	631.91
652.185	546.85
652.381	585.02
652.578	520.7
652.775	569.33
652.971	574.75
653.168	578.82
653.364	579.21
653.561	503.06
653.757	540.65
653.954	571.46
654.15	528.45
654.347	610.21
654.543	550.15
654.74	542.01
654.936	520.31
655.133	523.21
655.329	577.27
655.525	539.68
655.722	575.53
655.918	536.39
656.115	569.71
656.311	478.27
656.507	455.02
656.704	431.96
656.9	446.49
657.096	453.85
657.292	475.36
657.489	532.51
657.685	514.11
657.881	494.54
658.077	511.78
658.273	511.2
658.47	567.2
658.666	511.78
658.862	536
659.058	491.83
659.254	575.53
659.45	492.8
659.646	548.01
659.842	516.24
660.038	546.46
660.234	485.05
660.43	526.51
660.626	572.81
660.822	541.04
661.018	569.13
661.214	524.76
661.41	519.34
661.606	550.34
661.802	539.1
661.998	496.28
662.194	461.02
662.39	524.96
662.586	553.25
662.781	544.72
662.977	535.61
663.173	551.11
663.369	506.75
663.564	523.02
663.76	559.45
663.956	496.48
664.152	566.23
664.347	457.15
664.543	535.42
664.739	517.21
664.934	437.97
665.13	459.86
665.326	552.28
665.521	538.71
665.717	499.58
665.912	457.15
666.108	450.37
666.304	471.1
666.499	501.32
666.695	443.97
666.89	480.59
667.086	530.19
667.281	515.66
667.477	563.71
667.672	512.75
667.867	460.63
668.063	519.15
668.258	462.57
668.454	483.88
668.649	511.98
668.844	474.2
669.04	526.12
669.235	507.13
669.43	489.11
669.626	457.53
669.821	471.68
670.016	440.87
670.211	511.01
670.407	445.72
670.602	479.23
670.797	460.83
670.992	514.5
671.187	455.21
671.382	512.17
671.578	473.23
671.773	495.51
671.968	441.45
672.163	474
672.358	505.78
672.553	468.77
672.748	457.73
672.943	550.92
673.138	471.68
673.333	539.49
673.528	431.18
673.723	466.83
673.918	502.68
674.113	419.17
674.308	514.88
674.503	501.13
674.698	499.19
674.892	468.58
675.087	507.52
675.282	485.43
675.477	443.78
675.672	467.22
675.867	472.65
676.061	429.83
676.256	431.57
676.451	444.94
676.646	447.46
676.84	433.51
677.035	415.1
677.23	418.78
677.424	442.81
677.619	503.45
677.814	486.01
678.008	504.42
678.203	406.97
678.397	441.07
678.592	453.85
678.787	496.86
678.981	462.96
679.176	455.6
679.37	468.77
679.565	413.36
679.759	453.47
679.954	482.14
680.148	489.5
680.342	522.44
680.537	483.3
680.731	466.06
680.926	463.73
681.12	438.35
681.314	403.48
681.509	438.35
681.703	441.84
681.897	440.29
682.092	409.87
682.286	426.73
682.48	510.04
682.674	475.94
682.869	448.23
683.063	445.33
683.257	502.48
683.451	411.42
683.645	472.65
683.839	476.72
684.034	437.38
684.228	482.33
684.422	404.06
684.616	434.09
684.81	467.03
685.004	431.18
685.198	482.72
685.392	479.04
685.586	447.07
685.78	475.36
685.974	494.15
686.168	479.04
686.362	530.38
686.556	418.59
686.75	386.04
686.944	408.71
687.138	449.01
687.331	346.13
687.525	385.46
687.719	319.78
687.913	382.75
688.107	383.91
688.301	365.89
688.494	391.47
688.688	351.75
688.882	326.95
689.076	344
689.269	387.2
689.463	480.4
689.657	392.24
689.85	385.65
690.044	420.92
690.238	388.75
690.431	382.36
690.625	405.8
690.818	432.93
691.012	448.43
691.205	453.85
691.399	416.07
691.593	446.88
691.786	505.39
691.98	484.66
692.173	520.7
692.366	490.28
692.56	513.14
692.753	545.88
692.947	466.64
693.14	538.52
693.333	541.23
693.527	450.95
693.72	530.19
693.914	511.01
694.107	500.74
694.3	542.4
694.493	540.26
694.687	561
694.88	490.28
695.073	586.76
695.266	566.42
695.46	534.45
695.653	584.63
695.846	605.36
696.039	532.9
696.232	548.01
696.425	606.33
696.618	603.43
696.812	611.37
697.005	659.61
697.198	715.8
697.391	664.84
697.584	700.3
697.777	721.42
697.97	691.97
698.163	710.37
698.356	708.24
698.549	782.64
698.742	748.93
698.935	699.72
699.127	721.42
699.32	711.54
699.513	718.9
699.706	762.3
699.899	754.35
700.092	743.5
700.285	760.75
700.477	718.32
700.67	772.57
700.863	789.81
701.056	870.22
701.248	840.38
701.441	829.34
701.634	802.21
701.826	899.08
702.019	792.72
702.212	851.42
702.404	821.59
702.597	808.02
702.79	857.23
702.982	888.04
703.175	872.73
703.367	916.13
703.56	893.08
703.752	1021.34
703.945	934.15
704.137	987.24
704.33	1005.84
704.522	998.28
704.715	985.11
704.907	1013.39
705.1	1029.67
705.292	1067.64
705.484	1003.32
705.677	1079.66
705.869	1056.21
706.061	1095.35
706.254	1132.55
706.446	1072.68
706.638	1073.07
706.831	1167.04
707.023	1099.81
707.215	1221.29
707.407	1204.04
707.599	1145.14
707.792	1221.09
707.984	1199.59
708.176	1260.81
708.368	1195.52
708.56	1238.14
708.752	1235.62
708.944	1191.06
709.136	1248.41
709.329	1230
709.521	1362.53
709.713	1300.92
709.905	1336.18
710.097	1369.31
710.289	1312.35
710.481	1317
710.672	1345.28
710.864	1341.8
711.056	1397.79
711.248	1376.86
711.44	1396.43
711.632	1399.15
711.824	1419.49
712.016	1448.74
712.207	1430.53
712.399	1450.68
712.591	1480.33
712.783	1464.63
712.975	1481.1
713.166	1453.78
713.358	1495.24
713.55	1564.61
713.741	1554.53
713.933	1529.73
714.125	1480.33
714.316	1521.98
714.508	1594.44
714.7	1593.67
714.891	1550.07
715.083	1632.22
715.274	1568.48
715.466	1599.87
715.657	1612.07
715.849	1537.48
716.04	1575.26
716.232	1510.55
716.423	1616.72
716.615	1529.34
716.806	1498.34
716.998	1477.61
717.189	1415.81
717.381	1355.36
717.572	1336.57
717.763	1380.16
717.955	1365.24
718.146	1317.58
718.337	1317
718.528	1280.38
718.72	1198.23
718.911	1267.01
719.102	1194.16
719.293	1306.92
719.485	1256.74
719.676	1252.29
719.867	1213.34
720.058	1210.24
720.249	1234.46
720.44	1251.7
720.632	1289.1
720.823	1332.11
721.014	1427.05
721.205	1417.16
721.396	1488.46
721.587	1556.27
721.778	1553.17
721.969	1576.04
722.16	1646.37
722.351	1645.01
722.542	1742.66
722.733	1741.5
722.924	1667.87
723.115	1698.87
723.305	1726.97
723.496	1733.94
723.687	1614.98
723.878	1633.77
724.069	1595.99
724.26	1650.82
724.45	1548.14
724.641	1562.09
724.832	1600.64
725.023	1548.91
725.213	1572.74
725.404	1532.06
725.595	1529.73
725.785	1551.43
725.976	1614.79
726.167	1578.36
726.357	1617.69
726.548	1731.81
726.739	1592.7
726.929	1662.25
727.12	1696.16
727.31	1706.62
727.501	1644.82
727.691	1692.09
727.882	1675.43
728.072	1752.93
728.263	1683.37
728.453	1745.95
728.644	1732.2
728.834	1725.03
729.024	1707.2
729.215	1691.12
729.405	1729.29
729.596	1791.87
729.786	1798.26
729.976	1774.05
730.167	1814.15
730.357	1763
730.547	1774.05
730.737	1787.22
730.928	1836.43
731.118	1866.66
731.308	1827.52
731.498	1862.01
731.688	1918.58
731.879	1909.09
732.069	1952.49
732.259	1966.24
732.449	1965.28
732.639	2043.74
732.829	2054.79
733.019	2055.95
733.209	2103.03
733.399	2153.79
733.589	2169.68
733.779	2187.31
733.969	2155.92
734.159	2253.57
734.349	2235.36
734.539	2297.55
734.729	2292.13
734.919	2351.61
735.109	2333.39
735.299	2269.26
735.488	2346.76
735.678	2318.09
735.868	2314.99
736.058	2311.7
736.248	2290.38
736.437	2272.36
736.627	2238.65
736.817	2360.52
737.007	2301.62
737.196	2351.41
737.386	2309.18
737.576	2311.31
737.765	2379.51
737.955	2315.57
738.144	2450.03
738.334	2382.99
738.524	2320.03
738.713	2372.92
738.903	2373.31
739.092	2417.29
739.282	2387.26
739.471	2414.19
739.661	2415.54
739.85	2466.69
740.04	2458.75
740.229	2508.93
740.419	2455.46
740.608	2485.49
740.797	2455.84
740.987	2532.37
741.176	2515.13
741.365	2466.5
741.555	2452.36
741.744	2476.96
741.933	2493.04
742.123	2551.17
742.312	2542.84
742.501	2530.44
742.69	2510.48
742.88	2482.77
743.069	2595.53
743.258	2507.19
743.447	2537.8
743.636	2565.5
743.825	2523.65
744.014	2564.92
744.204	2561.82
744.393	2518.42
744.582	2576.94
744.771	2603.67
744.96	2570.74
745.149	2605.03
745.338	2551.94
745.527	2596.89
745.716	2546.9
745.905	2522.1
746.094	2597.67
746.283	2615.68
746.471	2604.06
746.66	2643
746.849	2642.42
747.038	2686.21
747.227	2575
747.416	2623.63
747.604	2527.34
747.793	2607.35
747.982	2596.12
748.171	2547.1
748.359	2610.84
748.548	2592.63
748.737	2611.03
748.926	2557.17
749.114	2509.12
749.303	2565.5
749.491	2599.99
749.68	2525.2
749.869	2603.67
750.057	2547.1
750.246	2537.8
750.434	2527.92
750.623	2529.08
750.811	2530.82
751	2593.6
751.188	2542.06
751.377	2578.29
751.565	2550
751.754	2526.17
751.942	2478.71
752.131	2581.58
752.319	2450.61
752.507	2490.91
752.696	2543.61
752.884	2562.6
753.072	2507.77
753.261	2521.72
753.449	2496.14
753.637	2517.84
753.825	2600.77
754.014	2510.48
754.202	2498.47
754.39	2559.3
754.578	2586.04
754.766	2521.33
754.955	2490.91
755.143	2579.45
755.331	2481.81
755.519	2477.16
755.707	2506.99
755.895	2485.49
756.083	2508.74
756.271	2431.43
756.459	2477.74
756.647	2512.42
756.835	2475.02
757.023	2442.86
757.211	2475.61
757.399	2451.97
757.587	2392.29
757.775	2421.16
757.963	2388.61
758.151	2394.04
758.339	2375.83
758.526	2382.8
758.714	2392.88
758.902	2330.49
759.09	2264.81
759.278	2132.09
759.465	1981.36
759.653	1686.28
759.841	1553.56
760.028	1337.92
760.216	1127.9
760.404	1108.33
760.591	885.13
760.779	748.54
760.967	671.04
761.154	536
761.342	598.39
761.529	577.27
761.717	645.86
761.905	624.93
762.092	676.08
762.28	605.56
762.467	632.88
762.655	594.51
762.842	586.76
763.029	632.49
763.217	633.84
763.404	632.49
763.592	655.35
763.779	605.36
763.966	648.38
764.154	655.93
764.341	724.71
764.528	692.94
764.716	774.89
764.903	785.94
765.09	846.58
765.277	878.55
765.465	1002.35
765.652	1037.42
765.839	1049.63
766.026	1180.21
766.213	1216.44
766.4	1267.2
766.588	1457.66
766.775	1407.28
766.962	1516.17
767.149	1583.01
767.336	1660.7
767.523	1606.65
767.71	1735.3
767.897	1820.35
768.084	1857.75
768.271	1901.34
768.458	1965.86
768.645	1957.72
768.832	1932.14
769.019	1952.29
769.206	2009.84
769.392	2021.85
769.579	2095.86
769.766	2065.25
769.953	2055.17
770.14	2071.64
770.327	2070.09
770.513	2130.35
770.7	2188.67
770.887	2098.19
771.073	2172.97
771.26	2124.54
771.447	2142.55
771.634	2092.37
771.82	2176.27
772.007	2049.56
772.193	2174.72
772.38	2194.67
772.567	2169.1
772.753	2137.52
772.94	2179.56
773.126	2194.87
773.313	2176.85
773.499	2190.8
773.686	2188.08
773.872	2110.78
774.059	2161.15
774.245	2071.84
774.432	2140.42
774.618	2080.17
774.804	2106.13
774.991	2114.46
775.177	2174.33
775.363	2119.11
775.55	2136.94
775.736	2071.25
775.922	2115.62
776.109	2093.34
776.295	2130.35
776.481	2093.15
776.667	2137.71
776.853	2107.68
777.04	2079.78
777.226	2054.79
777.412	2159.41
777.598	2076.68
777.784	2091.21
777.97	2073.39
778.156	2114.07
778.342	2048.01
778.528	2071.45
778.715	2008.87
778.901	2042.77
779.087	2088.3
779.272	2015.84
779.458	2017.59
779.644	2050.72
779.83	2020.11
780.016	2098.77
780.202	2055.17
780.388	2010.22
780.574	1970.12
780.76	1976.51
780.946	2034.64
781.131	1982.71
781.317	2029.02
781.503	1983.1
781.689	2012.36
781.874	2106.13
782.06	1973.61
782.246	1963.73
782.432	1988.52
782.617	1981.36
782.803	2028.05
782.989	1898.63
783.174	1971.09
783.36	1926.33
783.545	1975.16
783.731	1961.21
783.916	1881.77
784.102	1967.21
784.288	1931.95
784.473	1916.45
784.659	1913.16
784.844	1956.56
785.029	1875.96
785.215	1876.15
785.4	1859.88
785.586	1951.91
785.771	1886.61
785.956	1920.91
786.142	1872.66
786.327	1833.53
786.512	1870.73
786.698	1846.51
786.883	1826.75
787.068	1832.56
787.254	1897.85
787.439	1821.51
787.624	1857.94
787.809	1824.61
787.994	1820.55
788.18	1876.15
788.365	1794.78
788.55	1804.85
788.735	1799.43
788.92	1849.41
789.105	1831.98
789.29	1804.08
789.475	1767.27
789.66	1792.26
789.845	1751.96
790.03	1726.19
790.215	1811.05
790.4	1820.55
790.585	1819.19
790.77	1754.87
790.955	1681.24
791.14	1780.44
791.325	1801.75
791.51	1658.77
791.695	1723.48
791.879	1698.1
792.064	1695.19
792.249	1768.23
792.434	1729.87
792.618	1713.79
792.803	1746.92
792.988	1701.59
793.173	1699.26
793.357	1768.62
793.542	1648.5
793.727	1737.04
793.911	1764.94
794.096	1707.01
794.281	1763
794.465	1864.72
794.65	1750.02
794.834	1787.22
795.019	1756.03
795.203	1786.06
795.388	1763.2
795.572	1815.9
795.757	1756.22
795.941	1775.02
796.126	1770.56
796.31	1740.92
796.494	1734.13
796.679	1732.58
796.863	1701.2
797.048	1801.17
797.232	1773.08
797.416	1726.77
797.601	1726.77
797.785	1828.88
797.969	1804.08
798.153	1729.48
798.338	1773.66
798.522	1784.7
798.706	1786.06
798.89	1787.03
799.074	1876.93
799.258	1793.81
799.443	1795.36
799.627	1767.27
799.811	1822.48
799.995	1771.53
800.179	1747.7
800.363	1758.74
800.547	1777.73
800.731	1805.43
800.915	1734.72
801.099	1735.3
801.283	1748.67
801.467	1797.3
801.651	1759.71
801.835	1836.05
802.019	1736.65
802.202	1768.62
802.386	1718.44
802.57	1717.08
802.754	1718.63
802.938	1722.7
803.121	1714.76
803.305	1817.45
803.489	1728.13
803.673	1749.63
803.856	1753.12
804.04	1762.62
804.224	1737.82
804.407	1805.63
804.591	1716.31
804.775	1762.81
804.958	1762.03
805.142	1861.43
805.326	1753.32
805.509	1780.83
805.693	1781.41
805.876	1805.24
806.06	1768.04
806.243	1766.3
806.427	1802.53
806.61	1821.13
806.794	1760.48
806.977	1813.96
807.16	1810.47
807.344	1756.61
807.527	1787.22
807.71	1760.48
807.894	1761.26
808.077	1796.52
808.26	1728.13
808.444	1735.88
808.627	1791.68
808.81	1747.89
808.993	1705.27
809.177	1668.84
809.36	1711.47
809.543	1755.25
809.726	1640.17
809.909	1695
810.092	1670.59
810.276	1660.9
810.459	1659.74
810.642	1662.84
810.825	1602.39
811.008	1640.17
811.191	1576.62
811.374	1573.32
811.557	1607.81
811.74	1668.26
811.923	1571.77
812.106	1567.51
812.289	1516.17
812.472	1519.66
812.654	1540.19
812.837	1521.01
813.02	1478
813.203	1455.14
813.386	1409.03
813.569	1358.26
813.751	1345.48
813.934	1390.62
814.117	1361.17
814.3	1315.83
814.482	1307.5
814.665	1266.43
814.848	1238.92
815.03	1207.72
815.213	1222.84
815.396	1242.02
815.578	1183.31
815.761	1157.35
815.943	1237.37
816.126	1138.94
816.309	1123.25
816.491	1069.78
816.674	1034.13
816.856	1079.85
817.039	1054.28
817.221	1153.09
817.403	1100.58
817.586	1092.44
817.768	1090.89
817.951	1055.83
818.133	1037.61
818.315	1056.99
818.498	1093.8
818.68	1174.79
818.862	1160.84
819.045	1174.4
819.227	1142.62
819.409	1100.19
819.591	1161.42
819.774	1133.52
819.956	1082.37
820.138	1167.81
820.32	1164.52
820.502	1175.17
820.684	1257.71
820.866	1253.25
821.048	1278.05
821.231	1279.6
821.413	1263.52
821.595	1229.81
821.777	1240.66
821.959	1255
822.141	1308.86
822.323	1190.29
822.505	1157.16
822.686	1125.77
822.868	1087.79
823.05	1009.91
823.232	996.35
823.414	925.63
823.596	1013.98
823.778	982.98
823.96	1024.24
824.141	1004.68
824.323	1008.74
824.505	1072.49
824.687	1101.74
824.868	1138.56
825.05	1228.65
825.232	1253.84
825.413	1305.37
825.595	1263.52
825.777	1183.31
825.958	1229.62
826.14	1218.38
826.321	1218.77
826.503	1231.36
826.685	1250.35
826.866	1250.74
827.048	1254.8
827.229	1197.84
827.411	1151.92
827.592	1139.91
827.773	1160.84
827.955	1094.96
828.136	1115.31
828.318	1108.91
828.499	1135.65
828.68	1036.45
828.862	1112.21
829.043	1113.76
829.224	1101.94
829.406	1059.31
829.587	1068.42
829.768	1043.62
829.949	1100
830.131	1098.06
830.312	1144.56
830.493	1077.91
830.674	1119.37
830.855	1088.76
831.036	1058.93
831.218	1151.15
831.399	1182.73
831.58	1105.42
831.761	1104.26
831.942	1108.72
832.123	1093.41
832.304	1036.26
832.485	1028.51
832.666	1082.95
832.847	1090.7
833.028	1100.39
833.209	1095.54
833.389	1079.08
833.57	1044.01
833.751	1077.91
833.932	1129.64
834.113	1104.26
834.294	1081.79
834.475	1128.09
834.655	1132.74
834.836	1155.61
835.017	1127.32
835.198	1047.11
835.378	1134.1
835.559	1139.33
835.74	1130.81
835.92	1101.36
836.101	1073.84
836.281	1127.9
836.462	1098.64
836.643	1145.53
836.823	1140.3
837.004	1135.26
837.184	1197.65
837.365	1201.33
837.545	1184.47
837.726	1124.02
837.906	1195.71
838.087	1138.36
838.267	1146.69
838.448	1098.26
838.628	1135.65
838.808	1144.95
838.989	1174.59
839.169	1123.83
839.349	1194.55
839.53	1148.63
839.71	1192.42
839.89	1137.97
840.07	1197.84
840.251	1104.65
840.431	1169.56
840.611	1143.59
840.791	1127.71
840.971	1167.81
841.151	1111.24
841.332	1120.15
841.512	1169.17
841.692	1116.86
841.872	1123.64
842.052	1109.49
842.232	1155.8
842.412	1115.5
842.592	1123.44
842.772	1158.9
842.952	1129.26
843.132	1120.15
843.312	1126.54
843.492	1088.96
843.672	1127.71
843.851	1061.06
844.031	1082.37
844.211	1123.25
844.391	1079.08
844.571	1124.22
844.751	1146.89
844.93	1120.54
845.11	1086.83
845.29	1122.09
845.47	1126.74
845.649	1086.83
845.829	1123.83
846.009	1090.51
846.188	1096.51
846.368	1095.93
846.547	1092.06
846.727	1142.82
846.907	1071.71
847.086	1084.5
847.266	1138.36
847.445	1094.77
847.625	1076.75
847.804	1079.27
847.984	1092.06
848.163	1082.56
848.343	1065.51
848.522	1113.37
848.701	1116.86
848.881	1035.87
849.06	1087.6
849.239	1084.69
849.419	1083.92
849.598	1040.52
849.777	1030.64
849.957	1017.85
850.136	979.3
850.315	940.16
850.494	981.23
850.674	978.71
850.853	1057.38
851.032	979.88
851.211	1051.18
851.39	1028.7
851.569	960.31
851.748	947.33
851.927	1014.17
852.107	995.18
852.286	957.79
852.465	980.46
852.644	1029.48
852.823	1020.56
853.002	1013.98
853.181	974.26
853.359	1005.26
853.538	948.88
853.717	1027.54
853.896	946.94
854.075	928.92
854.254	850.84
854.433	816.74
854.611	876.03
854.79	812.09
854.969	879.9
855.148	905.67
855.327	868.08
855.505	892.69
855.684	882.42
855.863	875.64
856.041	882.03
856.22	902.18
856.399	882.42
856.577	1005.45
856.756	960.7
856.934	1041.88
857.113	1022.5
857.291	914.78
857.47	901.41
857.648	929.89
857.827	966.7
858.005	994.6
858.184	944.42
858.362	1029.67
858.541	946.55
858.719	930.86
858.898	964.96
859.076	918.65
859.254	996.15
859.433	940.55
859.611	911.1
859.789	870.99
859.967	981.81
860.146	996.35
860.324	874.48
860.502	912.07
860.68	884.36
860.859	905.87
861.037	924.66
861.215	933.76
861.393	900.83
861.571	896.37
861.749	883.58
861.927	908.58
862.105	921.36
862.283	904.7
862.461	889.01
862.639	862.27
862.817	866.53
862.995	882.81
863.173	895.79
863.351	890.56
863.529	883
863.707	941.71
863.885	911.68
864.063	835.53
864.241	880.48
864.418	949.85
864.596	842.9
864.774	849.48
864.952	860.53
865.129	872.15
865.307	845.22
865.485	816.94
865.663	906.64
865.84	801.82
866.018	848.9
866.196	707.86
866.373	792.33
866.551	752.42
866.728	686.93
866.906	750.67
867.084	767.92
867.261	774.7
867.439	820.23
867.616	835.73
867.794	784.58
867.971	808.99
868.149	813.84
868.326	829.92
868.503	829.72
868.681	802.99
868.858	789.23
869.035	735.37
869.213	829.72
869.39	814.42
869.567	869.63
869.745	762.3
869.922	830.69
870.099	853.75
870.276	832.63
870.454	846
870.631	847.55
870.808	788.84
870.985	812.29
871.162	860.92
871.339	812.87
871.517	770.82
871.694	769.47
871.871	799.5
872.048	806.28
872.225	764.24
872.402	802.4
872.579	748.74
872.756	788.26
872.933	735.37
873.11	746.41
873.287	786.71
873.463	767.14
873.64	749.9
873.817	783.22
873.994	771.99
874.171	759
874.348	772.57
874.524	730.52
874.701	750.67
874.878	671.62
875.055	771.4
875.231	737.11
875.408	782.84
875.585	698.75
875.762	758.62
875.938	738.08
876.115	735.76
876.291	748.15
876.468	730.33
876.645	692.94
876.821	709.21
876.998	698.36
877.174	730.52
877.351	711.92
877.527	697.59
877.704	725.87
877.88	693.91
878.057	703.59
878.233	748.54
878.409	715.02
878.586	723.36
878.762	705.92
878.938	717.93
879.115	665.81
879.291	727.04
879.467	670.27
879.644	700.11
879.82	711.34
879.996	675.31
880.172	618.15
880.349	681.31
880.525	700.11
880.701	663.68
880.877	668.72
881.053	685.19
881.229	648.76
881.405	747.57
881.581	665.42
881.757	681.12
881.933	695.84
882.109	712.89
882.285	693.91
882.461	641.79
882.637	692.16
882.813	656.71
882.989	661.36
883.165	709.02
883.341	644.89
883.517	708.24
883.693	660.19
883.869	697.59
884.044	647.41
884.22	720.26
884.396	715.02
884.572	714.83
884.747	709.02
884.923	688.48
885.099	698.17
885.275	703.21
885.45	703.01
885.626	651.28
885.801	648.57
885.977	662.52
886.153	629.39
886.328	681.89
886.504	654.38
886.679	696.81
886.855	660.97
887.03	710.96
887.206	706.31
887.381	690.22
887.557	676.27
887.732	697.2
887.908	691.39
888.083	680.92
888.258	653.41
888.434	635.2
888.609	656.51
888.784	689.26
888.96	647.99
889.135	653.8
889.31	613.69
889.485	653.8
889.661	644.89
889.836	686.54
890.011	675.69
890.186	650.31
890.361	627.84
890.537	681.31
890.712	646.83
890.887	668.14
891.062	637.72
891.237	707.86
891.412	633.46
891.587	679.57
891.762	688.67
891.937	710.37
892.112	627.06
892.287	653.03
892.462	622.41
892.637	577.27
892.812	578.63
892.987	623.96
893.161	620.09
893.336	628.23
893.511	628.23
893.686	629.78
893.861	605.17
894.035	620.48
894.21	580.37
894.385	576.11
894.56	616.6
894.734	551.5
894.909	529.22
895.084	574.17
895.258	565.65
895.433	559.64
895.608	511.4
895.782	514.11
895.957	514.5
896.131	513.91
896.306	459.67
896.48	478.07
896.655	460.83
896.829	431.38
897.004	437.77
897.178	436.42
897.353	441.84
897.527	474
897.701	476.91
897.876	395.73
898.05	487.76
898.224	429.05
898.399	496.09
898.573	453.66
898.747	387.59
898.921	440.1
899.096	351.36
899.27	361.05
899.444	358.92
899.618	362.02
899.792	391.66
899.967	379.65
900.141	425.76
900.315	360.08
900.489	350
900.663	394.57
900.837	384.1
901.011	356.98
901.185	468.97
901.359	423.05
901.533	393.6
901.707	414.72
901.881	379.65
902.055	350.97
902.229	374.42
902.403	459.28
902.576	391.08
902.75	392.44
902.924	521.66
903.098	432.73
903.272	474.97
903.446	488.92
903.619	455.79
903.793	492.02
903.967	450.56
904.14	508.68
904.314	512.56
904.488	499.77
904.661	509.65
904.835	482.14
905.009	539.49
905.182	539.68
905.356	509.07
905.529	503.84
905.703	482.14
905.876	481.75
906.05	448.04
906.223	443.58
906.397	423.05
906.57	401.73
906.744	377.52
906.917	374.61
907.09	384.88
907.264	406.38
907.437	392.05
907.61	341.09
907.784	364.34
907.957	391.27
908.13	348.07
908.304	415.49
908.477	336.64
908.65	368.02
908.823	332.37
908.996	390.5
909.17	351.36
909.343	390.3
909.516	353.69
909.689	349.42
909.862	321.72
910.035	356.4
910.208	332.76
910.381	318.42
910.554	429.63
910.727	349.62
910.9	324.24
911.073	322.69
911.246	393.4
911.419	400.38
911.592	390.5
911.765	319.39
911.938	300.41
912.11	356.98
912.283	350.78
912.456	393.6
912.629	370.35
912.802	315.9
912.974	293.82
913.147	266.89
913.32	227.17
913.493	301.96
913.665	276.77
913.838	317.84
914.01	283.36
914.183	297.11
914.356	271.73
914.528	329.27
914.701	380.23
914.873	344.19
915.046	297.31
915.218	260.3
915.391	245.38
915.563	256.23
915.736	299.24
915.908	304.86
916.081	276.38
916.253	261.07
916.425	285.87
916.598	306.22
916.77	292.46
916.942	247.32
917.115	234.92
917.287	325.2
917.459	289.75
917.632	235.69
917.804	198.88
917.976	265.72
918.148	265.53
918.32	258.75
918.493	301.76
918.665	329.08
918.837	271.92
919.009	352.14
919.181	329.47
919.353	294.21
919.525	337.02
919.697	302.92
919.869	278.32
920.041	353.69
920.213	381.78
920.385	328.69
920.557	286.46
920.729	329.27
920.901	310.87
921.073	323.07
921.244	311.06
921.416	320.17
921.588	311.64
921.76	283.74
921.932	360.85
922.103	301.76
922.275	319.39
922.447	322.88
922.619	244.22
922.79	298.08
922.962	271.34
923.134	307.57
923.305	262.82
923.477	216.13
923.648	241.89
923.82	290.72
923.991	204.11
924.163	209.34
924.335	263.79
924.506	244.02
924.677	310.87
924.849	221.94
925.02	278.32
925.192	267.08
925.363	290.52
925.535	271.15
925.706	232.21
925.877	329.66
926.049	246.93
926.22	262.04
926.391	257.97
926.562	281.03
926.734	250.03
926.905	293.24
927.076	212.06
927.247	236.66
927.419	214.19
927.59	206.63
927.761	231.43
927.932	202.76
928.103	228.14
928.274	205.47
928.445	182.99
928.616	197.72
928.787	192.88
928.958	234.14
929.129	224.84
929.3	185.51
929.471	165.56
929.642	115.96
929.813	84.76
929.984	186.09
930.155	114.02
930.326	152.38
930.496	136.11
930.667	76.43
930.838	110.53
931.009	66.55
931.18	98.91
931.35	107.43
931.521	89.03
931.692	82.83
931.863	43.69
932.033	81.47
932.204	79.53
932.374	87.48
932.545	38.27
932.716	79.53
932.886	87.28
933.057	27.22
933.227	39.23
933.398	118.67
933.568	26.83
933.739	11.72
933.909	22.57
934.08	70.81
934.25	-7.27
934.421	1.26
934.591	44.27
934.761	-14.43
934.932	-32.07
935.102	35.36
935.272	24.51
935.443	-22.18
935.613	6.49
935.783	46.79
935.953	8.82
936.123	162.07
936.294	-7.46
936.464	2.81
936.634	25.87
936.804	-12.5
936.974	-20.44
937.144	56.28
937.314	50.47
937.484	15.21
937.655	-21.99
937.825	53.38
937.995	-8.04
938.165	73.33
938.334	16.95
938.504	40.98
938.674	5.13
938.844	29.55
939.014	49.5
939.184	43.69
939.354	119.25
939.524	66.16
939.694	41.95
939.863	61.13
940.033	103.56
940.203	81.66
940.373	80.5
940.542	108.21
940.712	62.1
940.882	102.2
941.051	99.88
941.221	86.12
941.391	122.16
941.56	29.74
941.73	39.62
941.899	148.51
942.069	38.07
942.238	84.76
942.408	60.55
942.577	113.05
942.747	48.15
942.916	8.04
943.086	26.64
943.255	100.85
943.425	34.78
943.594	48.53
943.763	-19.08
943.933	0.29
944.102	-39.04
944.271	36.52
944.441	51.05
944.61	1.26
944.779	23.93
944.948	136.49
945.117	13.08
945.287	34.97
945.456	-34
945.625	15.6
945.794	51.83
945.963	1.07
946.132	87.67
946.301	29.74
946.47	33.23
946.639	-15.6
946.808	15.6
946.977	54.35
947.146	90.77
947.315	38.65
947.484	67.71
947.653	50.86
947.822	34.2
947.991	28.58
948.16	103.95
948.329	114.02
948.498	29.74
948.666	56.86
948.835	46.4
949.004	10.37
949.173	-3.78
949.341	23.93
949.51	71.59
949.679	80.89
949.847	83.41
950.016	121.77
950.185	108.21
950.353	-11.33
950.522	31.68
950.69	78.18
950.859	35.17
951.028	55.31
951.196	49.11
951.365	24.51
951.533	46.79
951.701	91.93
951.87	79.53
952.038	0.48
952.207	5.13
952.375	99.49
952.543	16.18
952.712	37.68
952.88	27.03
953.048	88.06
953.217	31.1
953.385	45.24
953.553	105.3
953.721	2.23
953.89	21.6
954.058	1.45
954.226	21.99
954.394	44.08
954.562	-28.19
954.73	43.88
954.898	33.81
955.067	63.84
955.235	45.82
955.403	78.56
955.571	109.76
955.739	73.14
955.907	7.07
956.075	12.69
956.243	23.15
956.41	89.22
956.578	2.03
956.746	-11.72
956.914	15.98
957.082	83.41
957.25	51.83
957.418	44.46
957.585	43.11
957.753	92.71
957.921	1.26
958.089	29.55
958.256	54.15
958.424	65
958.592	56.48
958.759	11.53
958.927	60.93
959.095	3
959.262	58.8
959.43	41.75
959.597	15.79
959.765	70.43
959.932	4.75
960.1	80.7
960.267	61.9
960.435	39.62
960.602	55.12
960.77	17.15
960.937	4.36
961.104	34.78
961.272	-20.83
961.439	15.4
961.606	63.45
961.774	86.9
961.941	80.11
962.108	56.09
962.275	72.36
962.443	60.55
962.61	82.05
962.777	96.58
962.944	60.93
963.111	63.06
963.278	59.38
963.446	56.67
963.613	58.8
963.78	79.73
963.947	65.2
964.114	45.05
964.281	129.13
964.448	74.3
964.615	48.92
964.782	76.24
964.949	87.67
965.116	87.09
965.282	93.87
965.449	75.27
965.616	21.41
965.783	81.47
965.95	82.83
966.117	0.29
966.283	43.11
966.45	40.59
966.617	55.9
966.784	102.4
966.95	92.71
967.117	64.42
967.284	25.28
967.45	55.31
967.617	113.63
967.784	97.94
967.95	108.01
968.117	53.76
968.283	70.62
968.45	152.58
968.616	46.79
968.783	67.71
968.949	82.83
969.116	93.48
969.282	28.19
969.449	69.07
969.615	56.86
969.781	27.03
969.948	61.32
970.114	10.56
970.28	102.2
970.447	53.18
970.613	101.04
970.779	31.87
970.945	74.88
971.112	80.11
971.278	58.61
971.444	55.31
971.61	94.26
971.776	44.46
971.942	71.59
972.108	72.56
972.275	85.73
972.441	80.5
972.607	141.53
972.773	27.8
972.939	71.4
973.105	47.95
973.271	15.79
973.437	62.1
973.602	37.68
973.768	78.18
973.934	74.11
974.1	81.47
974.266	-35.36
974.432	71.59
974.598	53.18
974.763	113.63
974.929	49.7
975.095	94.84
975.261	5.72
975.426	39.82
975.592	42.72
975.758	146.18
975.923	5.33
976.089	27.22
976.255	90.38
976.42	70.04
976.586	83.21
976.751	72.75
976.917	142.31
977.082	58.22
977.248	25.87
977.413	7.46
977.579	57.45
977.744	96.58
977.91	23.73
978.075	42.14
978.24	71.78
978.406	52.6
978.571	37.1
978.736	48.34
978.902	77.79
979.067	32.07
979.232	22.38
979.397	78.95
979.563	100.46
979.728	16.37
979.893	25.28
980.058	31.48
980.223	78.18
980.388	80.89
980.554	60.74
980.719	38.65
980.884	66.75
981.049	83.02
981.214	49.7
981.379	59.19
981.544	20.63
981.709	50.28
981.874	39.23
982.039	51.05
982.204	70.23
982.368	42.14
982.533	35.36
982.698	86.12
982.863	86.51
983.028	16.76
983.193	53.38
983.357	55.31
983.522	43.69
983.687	53.57
983.852	49.11
984.016	50.66
984.181	65.78
984.346	86.51
984.51	82.05
984.675	65
984.839	73.91
985.004	61.9
985.168	72.17
985.333	60.74
985.498	39.82
985.662	86.31
985.827	30.52
985.991	64.23
986.155	51.44
986.32	49.7
986.484	114.6
986.649	77.21
986.813	-3.58
986.977	58.41
987.142	71.2
987.306	28.97
987.47	9.01
987.634	36.52
987.799	56.09
987.963	66.94
988.127	70.23
988.291	124.87
988.455	53.38
988.62	46.21
988.784	67.33
988.948	72.17
989.112	29.16
989.276	56.86
989.44	54.73
989.604	22.18
989.768	34.2
989.932	114.99
990.096	6.3
990.26	19.28
990.424	14.63
990.588	12.5
990.752	120.41
990.915	111.31
991.079	40.59
991.243	23.15
991.407	79.15
991.571	36.72
991.734	71.01
991.898	74.3
992.062	135.33
992.226	35.75
992.389	35.94
992.553	-15.21
992.717	15.21
992.88	21.8
993.044	33.81
993.207	22.96
993.371	103.75
993.535	60.35
993.698	67.52
993.862	82.44
994.025	114.8
994.189	55.51
994.352	55.12
994.515	89.8
994.679	101.04
994.842	17.15
995.006	71.4
995.169	15.21
995.332	27.03
995.496	51.05
995.659	-8.23
995.822	27.22
995.985	38.07
996.149	78.95
996.312	61.71
996.475	110.73
996.638	41.75
996.801	94.65
996.964	106.46
997.128	20.05
997.291	26.45
997.454	43.11
997.617	6.49
997.78	76.43
997.943	25.87
998.106	71.2
998.269	6.49
998.432	53.96
998.595	74.3
998.758	-9.01
998.92	1.07
999.083	-9.4
999.246	40.59
999.409	10.37
999.572	-10.95
999.735	24.51
999.897	45.05
1000.06	23.15
1000.223	19.86
1000.386	49.31
1000.548	69.85
1000.711	39.62
1000.874	22.18
1001.036	8.82
1001.199	67.52
1001.361	24.9
1001.524	28.58
1001.687	62.48
1001.849	23.15
1002.012	57.64
1002.174	41.56
1002.337	61.32
1002.499	24.32
1002.661	60.55
1002.824	1.26
1002.986	-9.98
1003.149	17.53
1003.311	10.37
1003.473	96.78
1003.636	19.47
1003.798	59.38
1003.96	63.26
1004.123	42.53
1004.285	30.71
1004.447	29.55
1004.609	8.04
1004.771	103.17
1004.933	0.1
1005.096	-20.44
1005.258	-19.67
1005.42	-12.11
1005.582	56.28
1005.744	30.32
1005.906	-2.81
1006.068	34.97
1006.23	-2.23
1006.392	-41.37
1006.554	-10.56
1006.716	58.22
1006.878	58.03
1007.04	-24.51
1007.202	12.5
1007.363	32.07
1007.525	64.23
1007.687	35.94
1007.849	70.23
1008.011	-35.94
1008.172	-3.78
1008.334	13.27
1008.496	32.26
1008.658	-29.55
1008.819	-0.68
1008.981	-15.6
1009.143	-15.02
1009.304	-5.33
1009.466	64.03
1009.627	80.31
1009.789	107.43
1009.95	42.14
1010.112	10.75
1010.273	45.05
1010.435	-3.58
1010.596	3.97
1010.758	6.68
1010.919	21.41
1011.081	3.97
1011.242	21.99
1011.403	56.48
1011.565	-1.26
1011.726	35.17
1011.887	-18.5
1012.049	13.27
1012.21	26.25
1012.371	76.43
1012.532	-35.75
1012.693	16.18
1012.855	10.17
1013.016	21.22
1013.177	56.28
1013.338	-13.85
1013.499	86.31
1013.66	36.72
1013.821	44.27
1013.982	32.65
1014.143	51.44
1014.304	-4.17
1014.465	73.91
1014.626	45.43
1014.787	22.38
1014.948	92.13
1015.109	-39.62
1015.27	68.68
1015.431	-1.65
1015.592	2.62
1015.752	57.83
1015.913	14.43
1016.074	23.15
1016.235	29.93
1016.395	5.52
1016.556	17.15
1016.717	9.98
1016.877	90
1017.038	-6.49
1017.199	33.23
1017.359	20.63
1017.52	23.93
1017.681	-17.34
1017.841	-6.49
1018.002	40.59
1018.162	17.34
1018.323	59.19
1018.483	16.37
1018.644	-1.26
1018.804	-3.97
1018.964	-10.75
1019.125	-4.17
1019.285	15.21
1019.446	3.78
1019.606	-16.95
1019.766	-37.49
1019.926	50.86
1020.087	28.19
1020.247	-22.57
1020.407	24.51
1020.567	58.22
1020.728	-5.72
1020.888	-32.84
1021.048	-0.1
1021.208	13.08
1021.368	-18.89
1021.528	64.81
1021.688	48.34
1021.848	49.89
1022.008	24.32
1022.168	5.52
1022.328	43.5
1022.488	15.6
1022.648	4.94
1022.808	18.12
1022.968	21.6
1023.128	-18.12
1023.288	10.56
1023.448	-9.01
1023.608	12.3
1023.767	23.54
1023.927	-10.75
1024.087	-26.06
1024.247	-31.48
1024.406	3.97
1024.566	-30.71
1024.726	-7.46
1024.885	12.5
1025.045	43.69
1025.205	15.6
1025.364	25.48
1025.524	27.03
1025.683	-0.87
1025.843	12.3
1026.003	35.94
1026.162	76.24
1026.321	51.44
1026.481	5.33
1026.64	-39.23
1026.8	9.98
1026.959	2.03
1027.119	9.2
1027.278	9.98
1027.437	-15.21
1027.597	20.63
1027.756	32.65
1027.915	40.4
1028.074	33.03
1028.234	-43.3
1028.393	29.93
1028.552	-20.44
1028.711	-48.53
1028.87	61.9
1029.03	-48.34
1029.189	11.53
1029.348	-49.5
1029.507	-21.22
1029.666	-1.84
1029.825	-41.37
1029.984	-18.12
1030.143	31.87
1030.302	-16.57
1030.461	-44.27
1030.62	24.51
1030.779	29.93
1030.938	-8.62
1031.097	-19.47
1031.255	66.94
1031.414	57.64
1031.573	62.1
1031.732	-37.88
1031.891	-19.67
1032.049	39.62
1032.208	53.76
1032.367	-10.95
1032.525	12.11
1032.684	-4.17
1032.843	27.8
1033.001	-42.92
1033.16	147.54
1033.319	28.77
1033.477	39.62
1033.636	-3.78
1033.794	-27.03
1033.953	19.28
1034.111	42.72
1034.27	-5.33
1034.428	28
1034.587	-26.83
1034.745	24.32
1034.903	15.6
1035.062	47.18
1035.22	-41.56
1035.378	18.89
1035.537	-8.82
1035.695	42.92
1035.853	-9.01
1036.011	31.1
1036.17	10.75
1036.328	-54.93
1036.486	3.97
1036.644	7.65
1036.802	-81.08
1036.96	-13.08
1037.119	-9.4
1037.277	2.81
1037.435	-30.71
1037.593	-18.5
1037.751	-16.18
1037.909	9.59
1038.067	9.59
