Data from pine_FLMT105791__28__17-20-02-079.txt Node

Date: Mon Mar 20 17:20:02 GMT 2023
User: antho
Spectrometer: FLMT10579
Trigger mode: 0
Integration Time (sec): 1.000000E-1
Scans to average: 10
Electric dark correction enabled: true
Nonlinearity correction enabled: false
Boxcar width: 0
XAxis mode: Wavelengths
Number of Pixels in Spectrum: 3648
>>>>>Begin Spectral Data<<<<<
345.248	-164.77
345.464	-164.77
345.681	-164.77
345.898	-176
346.114	-178.91
346.331	-46.19
346.548	11.93
346.764	9.22
346.981	-7.83
347.197	-6.09
347.414	30.34
347.631	-16.55
347.847	46.03
348.064	4.96
348.28	26.46
348.497	-54.91
348.713	2.63
348.93	42.54
349.146	16.78
349.363	-6.28
349.579	40.41
349.796	11.35
350.012	-6.28
350.229	23.75
350.445	13.87
350.661	-22.17
350.878	-4.34
351.094	-16.55
351.311	7.09
351.527	29.76
351.743	-18.49
351.96	26.27
352.176	64.63
352.392	31.31
352.609	34.41
352.825	-1.24
353.041	-1.05
353.257	1.47
353.474	14.84
353.69	34.79
353.906	27.63
354.122	-22.36
354.339	65.79
354.555	5.15
354.771	5.15
354.987	65.21
355.203	53.01
355.42	-0.27
355.636	-16.36
355.852	-24.49
356.068	13.09
356.284	-39.41
356.5	67.15
356.716	15.03
356.932	18.33
357.148	32.47
357.364	-6.09
357.58	78.77
357.796	56.11
358.012	67.15
358.228	46.81
358.444	-48.91
358.66	40.61
358.876	22.59
359.092	7.48
359.308	14.84
359.524	35.38
359.74	3.79
359.956	-5.89
360.172	16.78
360.388	46.42
360.604	-6.09
360.819	80.52
361.035	21.23
361.251	21.23
361.467	-15.39
361.683	49.71
361.898	22.78
362.114	40.99
362.33	5.93
362.546	53.59
362.762	7.09
362.977	9.22
363.193	9.03
363.409	46.03
363.624	-14.03
363.84	3.02
364.056	4.96
364.271	52.42
364.487	15.42
364.703	16.19
364.918	0.11
365.134	0.5
365.35	-0.47
365.565	121.21
365.781	11.35
365.996	22.01
366.212	77.42
366.427	29.37
366.643	-13.84
366.858	20.07
367.074	-2.99
367.289	31.69
367.505	103.77
367.72	-15.97
367.936	16.78
368.151	34.02
368.367	22.2
368.582	3.41
368.798	4.76
369.013	76.64
369.228	4.38
369.444	19.1
369.659	72.19
369.874	22.78
370.09	77.22
370.305	-13.26
370.52	6.31
370.736	74.12
370.951	9.03
371.166	64.63
371.381	89.04
371.597	50.49
371.812	-1.24
372.027	-3.18
372.242	38.86
372.458	91.37
372.673	5.73
372.888	26.85
373.103	37.51
373.318	93.31
373.533	35.57
373.749	28.98
373.964	-45.03
374.179	79.94
374.394	-31.86
374.609	64.63
374.824	-25.07
375.039	54.94
375.254	-14.42
375.469	65.99
375.684	27.43
375.899	68.89
376.114	23.94
376.329	13.68
376.544	59.01
376.759	46.61
376.974	11.35
377.189	17.16
377.404	26.85
377.619	58.62
377.834	-18.49
378.049	-3.37
378.264	-19.46
378.478	46.61
378.693	-3.76
378.908	30.92
379.123	6.7
379.338	62.11
379.553	41.57
379.767	37.7
379.982	58.24
380.197	40.8
380.412	9.8
380.626	39.25
380.841	94.86
381.056	32.08
381.271	96.02
381.485	13.09
381.7	-6.86
381.915	50.87
382.129	-0.27
382.344	32.66
382.559	12.9
382.773	60.56
382.988	-22.17
383.202	17.55
383.417	3.21
383.632	124.11
383.846	19.1
384.061	21.43
384.275	18.52
384.49	52.42
384.704	71.8
384.919	20.65
385.133	38.09
385.348	64.05
385.562	4.96
385.777	44.87
385.991	39.06
386.206	8.25
386.42	15.81
386.634	58.82
386.849	32.08
387.063	63.27
387.277	-15.77
387.492	26.08
387.706	-20.62
387.92	-4.15
388.135	49.71
388.349	50.29
388.563	27.24
388.778	33.05
388.992	46.03
389.206	55.91
389.42	108.22
389.635	40.22
389.849	55.14
390.063	57.85
390.277	45.26
390.491	101.83
390.706	56.88
390.92	34.41
391.134	30.34
391.348	47.39
391.562	-26.04
391.776	42.93
391.99	-5.89
392.205	73.93
392.419	13.87
392.633	31.89
392.847	81.49
393.061	20.65
393.275	113.26
393.489	43.51
393.703	48.16
393.917	76.84
394.131	12.9
394.345	42.74
394.559	71.41
394.773	5.54
394.986	57.46
395.2	42.54
395.414	62.31
395.628	-0.66
395.842	45.64
396.056	7.28
396.27	-11.51
396.484	42.54
396.697	40.22
396.911	107.06
397.125	66.76
397.339	72.77
397.553	36.34
397.766	120.43
397.98	81.1
398.194	94.27
398.408	23.36
398.621	68.7
398.835	72.19
399.049	47
399.262	84.97
399.476	74.9
399.69	68.31
399.903	127.79
400.117	58.04
400.331	53.59
400.544	23.75
400.758	160.92
400.971	68.31
401.185	87.69
401.398	31.89
401.612	110.55
401.826	84.01
402.039	77.22
402.253	54.94
402.466	91.76
402.68	87.49
402.893	76.64
403.106	78.19
403.32	30.73
403.533	94.66
403.747	57.07
403.96	71.8
404.174	101.25
404.387	19.1
404.6	44.87
404.814	120.82
405.027	55.91
405.24	52.23
405.454	53.78
405.667	92.72
405.88	10.58
406.094	84.59
406.307	107.45
406.52	105.32
406.733	66.76
406.947	14.64
407.16	124.89
407.373	123.92
407.586	39.64
407.799	26.85
408.012	89.43
408.226	72.38
408.439	102.61
408.652	31.5
408.865	73.35
409.078	114.42
409.291	90.21
409.504	25.49
409.717	71.02
409.93	112.1
410.143	87.69
410.357	25.3
410.57	58.04
410.783	72.77
410.996	74.12
411.209	96.41
411.421	115.97
411.634	73.54
411.847	61.92
412.06	94.08
412.273	78.58
412.486	95.82
412.699	165.19
412.912	72.38
413.125	95.63
413.338	59.98
413.55	122.37
413.763	79.74
413.976	93.69
414.189	50.68
414.402	56.69
414.615	132.44
414.827	49.52
415.04	107.45
415.253	102.61
415.466	106.87
415.678	148.52
415.891	86.91
416.104	96.41
416.316	98.73
416.529	53.97
416.742	120.04
416.954	112.87
417.167	84.78
417.38	67.73
417.592	123.34
417.805	57.27
418.017	40.61
418.23	138.06
418.442	86.14
418.655	76.84
418.868	111.71
419.08	148.33
419.293	121.01
419.505	117.14
419.718	100.47
419.93	154.34
420.142	98.92
420.355	153.95
420.567	145.62
420.78	135.35
420.992	116.56
421.205	172.55
421.417	62.5
421.629	97.96
421.842	85.56
422.054	62.11
422.266	132.25
422.479	129.54
422.691	91.95
422.903	127.21
423.115	111.91
423.328	118.88
423.54	109.39
423.752	96.79
423.964	88.46
424.177	117.52
424.389	106.48
424.601	215.17
424.813	141.55
425.025	169.84
425.238	159.18
425.45	102.02
425.662	95.24
425.874	417.64
426.086	128.37
426.298	121.79
426.51	134.77
426.722	149.69
426.934	123.14
427.146	146.78
427.358	64.44
427.57	166.35
427.782	118.88
427.994	122.76
428.206	122.56
428.418	74.51
428.63	156.85
428.842	188.82
429.054	148.91
429.266	166.74
429.478	120.24
429.69	131.67
429.902	97.18
430.114	132.64
430.325	118.88
430.537	120.62
430.749	134.57
430.961	96.02
431.173	112.49
431.384	148.91
431.596	53.01
431.808	110.55
432.02	118.3
432.231	170.42
432.443	193.09
432.655	174.29
432.867	122.95
433.078	148.72
433.29	219.05
433.502	173.32
433.713	169.45
433.925	162.28
434.136	178.36
434.348	133.99
434.56	108.03
434.771	265.55
434.983	106.29
435.194	145.62
435.406	148.91
435.617	187.66
435.829	241.13
436.04	196.57
436.252	191.54
436.463	236.1
436.675	208.59
436.886	179.14
437.098	203.16
437.309	247.92
437.521	171.19
437.732	182.82
437.943	189.4
438.155	180.3
438.366	154.92
438.578	261.87
438.789	205.49
439	217.69
439.211	186.5
439.423	182.62
439.634	248.3
439.845	213.23
440.057	229.12
440.268	224.86
440.479	194.83
440.69	211.3
440.902	187.66
441.113	200.06
441.324	207.04
441.535	219.05
441.746	273.68
441.957	204.52
442.168	208.39
442.38	264.97
442.591	254.7
442.802	177
443.013	238.03
443.224	237.26
443.435	209.36
443.646	228.73
443.857	223.12
444.068	218.66
444.279	195.41
444.49	301.2
444.701	253.92
444.912	351.38
445.123	304.49
445.334	284.53
445.545	250.82
445.756	244.04
445.967	231.06
446.178	239.97
446.388	268.26
446.599	271.55
446.81	269.62
447.021	237.07
447.232	303.33
447.443	311.27
447.653	268.84
447.864	302.75
448.075	269.23
448.286	302.75
448.496	281.24
448.707	314.37
448.918	252.76
449.129	353.7
449.339	245.4
449.55	310.3
449.761	257.99
449.971	362.03
450.182	278.92
450.393	304.3
450.603	274.46
450.814	321.73
451.024	308.36
451.235	326.19
451.446	359.51
451.656	363.39
451.867	287.25
452.077	328.51
452.288	372.11
452.498	377.73
452.709	289.77
452.919	313.79
453.13	290.93
453.34	333.55
453.55	236.1
453.761	352.73
453.971	321.35
454.182	350.21
454.392	351.57
454.602	366.68
454.813	325.61
455.023	348.28
455.233	277.95
455.444	314.56
455.654	231.25
455.864	332.39
456.075	303.33
456.285	298.48
456.495	313.4
456.705	318.63
456.916	393.23
457.126	384.31
457.336	334.13
457.546	258.38
457.756	316.31
457.967	365.52
458.177	304.49
458.387	333.94
458.597	318.44
458.807	315.34
459.017	320.18
459.227	312.82
459.437	321.54
459.647	360.68
459.857	383.35
460.068	303.33
460.278	371.33
460.488	324.64
460.698	422.09
460.908	353.31
461.117	309.72
461.327	304.88
461.537	364.55
461.747	365.91
461.957	354.28
462.167	424.81
462.377	390.13
462.587	356.61
462.797	407.37
463.007	357.96
463.216	384.7
463.426	411.63
463.636	393.61
463.846	303.71
464.056	344.21
464.265	409.89
464.475	345.76
464.685	357
464.895	375.4
465.104	359.51
465.314	414.15
465.524	356.8
465.733	355.64
465.943	429.26
466.153	449.99
466.362	412.41
466.572	379.66
466.782	346.73
466.991	400.59
467.201	437.98
467.41	336.07
467.62	403.11
467.829	385.09
468.039	409.69
468.249	385.28
468.458	403.11
468.668	431.01
468.877	408.92
469.086	449.41
469.296	434.88
469.505	404.27
469.715	492.42
469.924	404.85
470.134	458.13
470.343	473.63
470.552	423.26
470.762	414.93
470.971	400.2
471.18	417.83
471.39	400.2
471.599	391.68
471.808	443.6
472.018	413.38
472.227	477.7
472.436	471.5
472.645	416.28
472.855	443.02
473.064	493.97
473.273	474.02
473.482	491.84
473.691	513.35
473.901	480.22
474.11	440.69
474.319	572.83
474.528	465.69
474.737	532.53
474.946	493.59
475.155	505.6
475.364	542.41
475.573	526.91
475.783	508.51
475.992	527.11
476.201	545.32
476.41	475.37
476.619	455.42
476.828	489.13
477.037	486.03
477.245	499.4
477.454	536.99
477.663	545.32
477.872	529.82
478.081	578.25
478.29	511.22
478.499	603.83
478.708	541.06
478.917	614.87
479.125	572.64
479.334	553.07
479.543	516.45
479.752	579.8
479.961	594.72
480.169	603.44
480.378	566.05
480.587	699.73
480.796	645.87
481.004	585.81
481.213	638.7
481.422	626.3
481.63	625.34
481.839	636.19
482.048	665.25
482.256	632.89
482.465	647.81
482.674	656.72
482.882	655.75
483.091	711.55
483.299	652.65
483.508	657.11
483.716	656.72
483.925	676.29
484.134	648.78
484.342	681.91
484.551	682.3
484.759	679.58
484.967	700.9
485.176	709.62
485.384	712.91
485.593	691.02
485.801	691.6
486.01	662.53
486.218	648.78
486.426	531.95
486.635	568.76
486.843	594.72
487.051	635.99
487.26	618.17
487.468	675.9
487.676	686.95
487.885	657.5
488.093	694.7
488.301	668.35
488.509	742.55
488.717	756.31
488.926	713.88
489.134	680.36
489.342	700.9
489.55	673.19
489.758	706.32
489.967	686.75
490.175	828.77
490.383	736.16
490.591	804.55
490.799	688.69
491.007	809.2
491.215	757.28
491.423	744.68
491.631	745.07
491.839	750.11
492.047	793.12
492.255	724.92
492.463	710.58
492.671	704.77
492.879	802.61
493.087	756.7
493.295	786.34
493.503	834.19
493.711	829.16
493.919	829.74
494.127	847.95
494.334	822.76
494.542	778.01
494.75	817.15
494.958	801.84
495.166	859.96
495.374	860.16
495.581	831.09
495.789	821.6
495.997	910.14
496.205	818.7
496.412	825.67
496.62	834
496.828	832.84
497.035	834.78
497.243	878.95
497.451	838.07
497.658	835.94
497.866	862.48
498.074	908.98
498.281	819.66
498.489	945.21
498.696	863.26
498.904	824.89
499.112	822.96
499.319	927.58
499.527	852.21
499.734	907.04
499.942	844.85
500.149	858.61
500.357	863.45
500.564	836.33
500.771	880.89
500.979	842.72
501.186	831.87
501.394	884.96
501.601	865.19
501.808	924.67
502.016	890.38
502.223	868.1
502.43	874.88
502.638	859.58
502.845	879.34
503.052	964.78
503.26	896
503.467	987.26
503.674	905.49
503.881	920.02
504.089	991.13
504.296	955.29
504.503	845.43
504.71	908.59
504.917	856.28
505.125	905.3
505.332	911.69
505.539	943.08
505.746	983.77
505.953	975.63
506.16	953.74
506.367	1021.74
506.574	999.46
506.781	1013.22
506.988	950.06
507.195	986.48
507.402	944.44
507.609	1042.09
507.816	966.91
508.023	948.51
508.23	951.8
508.437	913.05
508.644	995.97
508.851	1035.69
509.058	1000.04
509.265	996.36
509.472	1016.7
509.679	1087.62
509.885	1035.89
510.092	1033.56
510.299	1008.18
510.506	1020.39
510.713	986.48
510.92	1032.79
511.126	1032.2
511.333	1095.75
511.54	1060.69
511.746	1118.23
511.953	1069.02
512.16	1113.97
512.367	1042.67
512.573	1026.78
512.78	1057.59
512.987	1046.74
513.193	1060.49
513.4	974.08
513.606	1036.47
513.813	1055.26
514.02	1059.91
514.226	1121.91
514.433	1117.26
514.639	1028.33
514.846	1067.27
515.052	1058.36
515.259	1065.92
515.465	1093.82
515.672	1075.22
515.878	1183.13
516.085	1099.05
516.291	1144.38
516.497	1063.01
516.704	1059.33
516.91	1017.29
517.117	975.44
517.323	943.86
517.529	1019.8
517.736	987.84
517.942	1032.2
518.148	1043.44
518.354	1048.48
518.561	1063.59
518.767	1051.19
518.973	1082.39
519.179	1113.19
519.386	1082
519.592	1083.16
519.798	1061.07
520.004	1175.96
520.21	1121.33
520.417	1147.29
520.623	1156.59
520.829	1182.55
521.035	1189.72
521.241	1211.61
521.447	1206.38
521.653	1314.11
521.859	1211.42
522.065	1208.13
522.271	1323.02
522.477	1231.57
522.683	1330.38
522.889	1275.55
523.095	1216.07
523.301	1250.56
523.507	1227.89
523.713	1268.77
523.919	1194.95
524.125	1331.54
524.331	1293.38
524.537	1356.15
524.742	1329.03
524.948	1361.57
525.154	1338.91
525.36	1440.82
525.566	1312.75
525.772	1407.49
525.977	1292.99
526.183	1384.24
526.389	1377.07
526.595	1310.04
526.8	1304.42
527.006	1226.92
527.212	1220.91
527.417	1208.51
527.623	1230.02
527.829	1309.84
528.034	1293.96
528.24	1296.67
528.446	1335.23
528.651	1427.45
528.857	1382.5
529.062	1413.69
529.268	1394.9
529.473	1386.57
529.679	1409.62
529.884	1492.94
530.09	1397.81
530.295	1447.79
530.501	1451.86
530.706	1445.66
530.912	1364.67
531.117	1432.68
531.323	1430.36
531.528	1471.24
531.733	1466
531.939	1428.61
532.144	1426.87
532.35	1460.77
532.555	1492.55
532.76	1448.18
532.966	1446.82
533.171	1450.7
533.376	1411.95
533.581	1370.49
533.787	1464.07
533.992	1476.27
534.197	1489.45
534.402	1464.84
534.607	1451.67
534.813	1549.9
535.018	1446.63
535.223	1481.7
535.428	1508.05
535.633	1534.01
535.838	1534.4
536.043	1534.59
536.249	1592.33
536.454	1521.22
536.659	1565.01
536.864	1492.55
537.069	1514.05
537.274	1524.52
537.479	1542.34
537.684	1537.3
537.889	1480.92
538.094	1603.57
538.299	1562.68
538.504	1532.65
538.708	1574.12
538.913	1588.84
539.118	1533.23
539.323	1560.55
539.528	1513.28
539.733	1546.41
539.938	1548.54
540.142	1546.02
540.347	1519.09
540.552	1511.54
540.757	1511.92
540.962	1502.04
541.166	1471.62
541.371	1466.97
541.576	1489.06
541.781	1427.06
541.985	1545.25
542.19	1494.68
542.395	1602.98
542.599	1612.09
542.804	1577.41
543.008	1590.2
543.213	1520.25
543.418	1514.25
543.622	1544.47
543.827	1520.64
544.031	1617.9
544.236	1616.74
544.44	1562.49
544.645	1665.37
544.849	1574.7
545.054	1608.41
545.258	1683.39
545.463	1643.09
545.667	1572.57
545.872	1623.71
546.076	1598.72
546.281	1630.69
546.485	1568.3
546.689	1598.72
546.894	1616.74
547.098	1626.23
547.302	1582.45
547.507	1592.72
547.711	1621.78
547.915	1667.89
548.119	1572.57
548.324	1583.42
548.528	1683.58
548.732	1632.43
548.936	1650.45
549.141	1648.71
549.345	1615.38
549.549	1647.16
549.753	1636.31
549.957	1726.21
550.161	1722.33
550.366	1604.73
550.57	1614.61
550.774	1650.84
550.978	1670.99
551.182	1643.48
551.386	1641.54
551.59	1613.83
551.794	1597.75
551.998	1675.64
552.202	1616.55
552.406	1610.73
552.61	1654.71
552.814	1649.68
553.018	1684.75
553.222	1633.98
553.426	1625.65
553.63	1763.21
553.833	1632.63
554.037	1588.65
554.241	1634.56
554.445	1670.99
554.649	1649.29
554.853	1639.41
555.056	1663.24
555.26	1685.91
555.464	1634.56
555.668	1652.58
555.871	1674.86
556.075	1711.87
556.279	1611.7
556.483	1596.2
556.686	1621
556.89	1634.37
557.094	1645.03
557.297	1560.75
557.501	1670.21
557.704	1544.86
557.908	1663.24
558.112	1582.83
558.315	1638.63
558.519	1576.25
558.722	1579.15
558.926	1584.58
559.129	1544.86
559.333	1501.07
559.536	1507.08
559.74	1524.71
559.943	1511.92
560.147	1526.65
560.35	1517.74
560.553	1532.46
560.757	1506.5
560.96	1611.31
561.164	1566.56
561.367	1613.06
561.57	1558.23
561.774	1592.91
561.977	1586.32
562.18	1533.62
562.384	1615.38
562.587	1553
562.79	1530.72
562.993	1537.88
563.197	1580.9
563.4	1631.27
563.603	1604.73
563.806	1617.71
564.009	1535.37
564.212	1559.39
564.416	1493.13
564.619	1535.17
564.822	1450.89
565.025	1603.95
565.228	1486.15
565.431	1505.72
565.634	1444.69
565.837	1488.48
566.04	1446.63
566.243	1485.38
566.446	1407.88
566.649	1490.61
566.852	1418.73
567.055	1464.07
567.258	1497.97
567.461	1555.13
567.664	1531.1
567.867	1445.27
568.07	1496.04
568.273	1490.8
568.475	1506.11
568.678	1428.81
568.881	1435.2
569.084	1461.94
569.287	1381.14
569.489	1387.34
569.692	1457.67
569.895	1430.16
570.098	1392.38
570.3	1384.24
570.503	1318.18
570.706	1368.36
570.909	1367.19
571.111	1327.86
571.314	1324.96
571.516	1343.17
571.719	1368.36
571.922	1377.66
572.124	1339.68
572.327	1347.04
572.529	1283.3
572.732	1341.62
572.935	1400.13
573.137	1445.27
573.34	1342.98
573.542	1367.19
573.745	1389.67
573.947	1349.95
574.15	1351.69
574.352	1289.89
574.554	1384.63
574.757	1272.06
574.959	1305.97
575.162	1307.52
575.364	1282.33
575.566	1453.99
575.769	1280.01
575.971	1347.04
576.173	1226.73
576.376	1313.33
576.578	1342.39
576.78	1355.18
576.982	1258.11
577.185	1322.24
577.387	1246.3
577.589	1281.56
577.791	1330.19
577.993	1354.02
578.196	1281.75
578.398	1272.26
578.6	1318.37
578.802	1272.84
579.004	1258.11
579.206	1240.29
579.408	1282.14
579.61	1238.16
579.812	1332.51
580.014	1278.84
580.216	1236.61
580.418	1271.48
580.62	1256.95
580.822	1213.36
581.024	1271.87
581.226	1311.59
581.428	1264.7
581.63	1359.83
581.832	1248.23
582.034	1300.74
582.236	1289.89
582.438	1284.66
582.64	1331.35
582.841	1349.56
583.043	1403.62
583.245	1297.06
583.447	1322.83
583.649	1302.29
583.85	1321.47
584.052	1330.96
584.254	1266.83
584.456	1363.51
584.657	1263.73
584.859	1323.6
585.061	1261.6
585.262	1223.43
585.464	1249.78
585.666	1288.92
585.867	1248.81
586.069	1303.64
586.27	1245.71
586.472	1296.28
586.674	1235.25
586.875	1225.37
587.077	1228.86
587.278	1255.6
587.48	1247.07
587.681	1361.96
587.883	1259.47
588.084	1208.51
588.285	1255.98
588.487	1220.33
588.688	1260.05
588.89	1163.18
589.091	1128.3
589.292	1155.04
589.494	1117.65
589.695	1095.56
589.896	1010.12
590.098	1086.45
590.299	1122.49
590.5	1032.4
590.702	1077.54
590.903	1152.33
591.104	1211.23
591.305	1181.78
591.507	1214.52
591.708	1196.11
591.909	1140.12
592.11	1221.69
592.311	1170.35
592.512	1118.62
592.714	1124.82
592.915	1126.95
593.116	1123.46
593.317	1153.88
593.518	1161.24
593.719	1135.86
593.92	1189.14
594.121	1201.93
594.322	1171.51
594.523	1159.69
594.724	1088.39
594.925	1122.49
595.126	1164.92
595.327	1169.57
595.528	1154.27
595.729	1144
595.929	1124.04
596.13	1147.48
596.331	1133.34
596.532	1125.2
596.733	1204.25
596.934	1224.01
597.135	1164.92
597.335	1174.61
597.536	1151.94
597.737	1150.2
597.938	1103.12
598.138	1151.75
598.339	1128.11
598.54	1171.51
598.74	1143.61
598.941	1125.78
599.142	1240.1
599.342	1158.92
599.543	1160.08
599.744	1153.49
599.944	1140.9
600.145	1127.33
600.345	1134.89
600.546	1228.28
600.746	1183.33
600.947	1203.67
601.147	1135.67
601.348	1196.31
601.548	1152.33
601.749	1148.07
601.949	1102.15
602.15	1111.83
602.35	1117.45
602.551	1155.04
602.751	1141.67
602.951	1117.45
603.152	1054.87
603.352	1159.11
603.552	1138.96
603.753	1164.34
603.953	1174.8
604.153	1172.48
604.354	1132.57
604.554	1166.67
604.754	1155.23
604.954	1106.6
605.155	1171.7
605.355	1146.52
605.555	1195.92
605.755	1170.54
605.955	1192.63
606.155	1173.06
606.356	1149.81
606.556	1184.49
606.756	1171.51
606.956	1095.37
607.156	1173.45
607.356	1119.97
607.556	1149.62
607.756	1166.86
607.956	1188.75
608.156	1124.04
608.356	1076.38
608.556	1152.33
608.756	1169.57
608.956	1063.01
609.156	1142.64
609.356	1071.15
609.556	1081.22
609.755	1136.05
609.955	1091.88
610.155	1138.96
610.355	1099.43
610.555	1104.47
610.755	1058.17
610.954	1031.62
611.154	1092.46
611.354	1164.73
611.554	1076.38
611.753	1069.6
611.953	1022.71
612.153	1121.91
612.352	1096.14
612.552	1001.01
612.752	1036.08
612.951	1066.5
613.151	1084.52
613.351	1063.2
613.55	1067.66
613.75	1092.46
613.949	1045.96
614.149	1060.69
614.348	1019.8
614.548	1006.82
614.747	1008.57
614.947	1013.22
615.146	991.13
615.346	1084.71
615.545	1046.35
615.745	1035.89
615.944	1095.75
616.144	1046.35
616.343	1052.35
616.542	1008.57
616.742	1027.55
616.941	1037.44
617.14	970.21
617.34	1041.12
617.539	1021.35
617.738	979.31
617.938	1064.56
618.137	1037.24
618.336	1005.47
618.535	1061.85
618.734	1033.75
618.934	1066.11
619.133	1037.63
619.332	1066.89
619.531	1003.92
619.73	1031.04
619.929	1060.1
620.128	1042.67
620.328	1087.62
620.527	965.75
620.726	1024.07
620.925	1026.97
621.124	1040.73
621.323	1001.2
621.522	970.4
621.721	963.42
621.92	965.17
622.119	1051.19
622.318	979.12
622.517	1009.15
622.715	1005.08
622.914	971.95
623.113	950.64
623.312	965.17
623.511	1005.08
623.71	979.89
623.909	934.17
624.107	1016.12
624.306	908.59
624.505	911.5
624.704	954.12
624.902	950.83
625.101	1012.25
625.3	935.33
625.499	909.76
625.697	928.94
625.896	914.21
626.095	977.18
626.293	935.52
626.492	933.78
626.69	934.94
626.889	917.51
627.088	997.14
627.286	907.82
627.485	910.72
627.683	900.65
627.882	931.46
628.08	842.33
628.279	870.04
628.477	943.47
628.676	865
628.874	927.19
629.073	892.13
629.271	854.15
629.469	926.22
629.668	881.86
629.866	880.89
630.065	879.73
630.263	912.08
630.461	853.76
630.66	907.24
630.858	915.18
631.056	918.86
631.254	948.51
631.453	850.86
631.651	936.69
631.849	900.07
632.047	880.11
632.245	884.38
632.444	922.16
632.642	959.55
632.84	942.5
633.038	894.64
633.236	874.88
633.434	891.93
633.632	858.8
633.83	912.08
634.028	923.71
634.227	880.89
634.425	995.2
634.623	913.05
634.821	928.55
635.019	922.74
635.216	902.98
635.414	928.55
635.612	943.86
635.81	901.04
636.008	989.77
636.206	911.11
636.404	960.91
636.602	895.23
636.8	938.62
636.997	961.49
637.195	942.5
637.393	906.46
637.591	986.09
637.789	950.83
637.986	894.64
638.184	923.12
638.382	947.92
638.58	947.15
638.777	985.71
638.975	897.74
639.173	908.4
639.37	924.67
639.568	934.75
639.765	921.96
639.963	927.19
640.161	945.6
640.358	930.87
640.556	897.74
640.753	896.19
640.951	880.11
641.148	927.77
641.346	882.63
641.543	868.1
641.741	905.3
641.938	883.02
642.136	888.06
642.333	836.52
642.531	924.09
642.728	946.18
642.925	894.26
643.123	899.29
643.32	887.28
643.517	859.58
643.715	896.97
643.912	899.68
644.109	895.61
644.306	879.14
644.504	854.54
644.701	873.91
644.898	916.15
645.095	853.57
645.293	866.94
645.49	898.13
645.687	877.79
645.884	916.92
646.081	796.41
646.278	818.89
646.475	829.16
646.672	845.43
646.87	883.21
647.067	839.81
647.264	831.29
647.461	800.68
647.658	758.83
647.855	842.72
648.052	819.66
648.249	741.78
648.446	794.86
648.642	776.65
648.839	780.33
649.036	784.4
649.233	772.58
649.43	738.87
649.627	731.7
649.824	785.76
650.021	753.98
650.217	770.06
650.414	766.38
650.611	785.56
650.808	814.05
651.004	781.88
651.201	781.69
651.398	855.89
651.595	805.91
651.791	767.35
651.988	803.78
652.185	774.52
652.381	797.19
652.578	715.82
652.775	779.17
652.971	761.15
653.168	735
653.364	800.68
653.561	744.3
653.757	761.54
653.954	799.9
654.15	739.84
654.347	837.88
654.543	780.14
654.74	736.35
654.936	723.37
655.133	731.12
655.329	765.41
655.525	759.6
655.722	786.73
655.918	725.89
656.115	785.56
656.311	660.21
656.507	642.19
656.704	599.95
656.9	634.83
657.096	636.77
657.292	649.17
657.489	706.71
657.685	700.51
657.881	687.33
658.077	694.31
658.273	729.77
658.47	764.45
658.666	725.89
658.862	739.45
659.058	691.02
659.254	756.7
659.45	694.7
659.646	733.64
659.842	726.86
660.038	748.95
660.234	699.93
660.43	713.88
660.626	819.47
660.822	773.94
661.018	796.03
661.214	723.37
661.41	723.57
661.606	789.05
661.802	776.85
661.998	751.66
662.194	714.07
662.39	737.51
662.586	739.65
662.781	782.08
662.977	784.98
663.173	805.33
663.369	714.07
663.564	760.18
663.76	765.22
663.956	696.83
664.152	741.78
664.347	673.58
664.543	736.35
664.739	722.6
664.934	685.98
665.13	666.99
665.326	760.76
665.521	727.05
665.717	673.19
665.912	672.42
666.108	644.13
666.304	674.93
666.499	720.27
666.695	657.88
666.89	672.42
667.086	740.81
667.281	714.46
667.477	778.78
667.672	664.08
667.867	708.07
668.063	728.8
668.258	643.16
668.454	704.38
668.649	751.66
668.844	671.25
669.04	751.66
669.235	660.79
669.43	684.43
669.626	663.7
669.821	695.28
670.016	661.18
670.211	672.03
670.407	666.99
670.602	697.41
670.797	687.72
670.992	750.5
671.187	638.9
671.382	706.52
671.578	663.5
671.773	698.18
671.968	651.88
672.163	691.21
672.358	659.63
672.553	663.12
672.748	666.41
672.943	739.84
673.138	660.6
673.333	704.58
673.528	637.74
673.723	697.99
673.918	673.58
674.113	604.22
674.308	740.61
674.503	676.48
674.698	727.44
674.892	699.73
675.087	722.21
675.282	657.11
675.477	664.28
675.672	697.41
675.867	644.32
676.061	653.04
676.256	589.49
676.451	653.23
676.646	668.73
676.84	653.04
677.035	607.7
677.23	608.48
677.424	674.93
677.619	678.42
677.814	697.41
678.008	705.16
678.203	603.44
678.397	641.61
678.592	673.97
678.787	750.88
678.981	651.49
679.176	666.41
679.37	654.98
679.565	652.46
679.759	654.78
679.954	659.24
680.148	722.02
680.342	710.39
680.537	688.88
680.731	657.3
680.926	697.02
681.12	693.34
681.314	627.66
681.509	671.06
681.703	666.02
681.897	693.15
682.092	661.76
682.286	644.13
682.48	736.55
682.674	694.12
682.869	645.1
683.063	660.6
683.257	730.73
683.451	625.34
683.645	678.42
683.839	667.18
684.034	680.17
684.228	673.97
684.422	642.77
684.616	633.47
684.81	697.41
685.004	681.72
685.198	645.87
685.392	709.42
685.586	625.72
685.78	684.82
685.974	679.97
686.168	702.64
686.362	720.08
686.556	625.72
686.75	589.88
686.944	583.87
687.138	598.6
687.331	498.82
687.525	528.07
687.719	460.84
687.913	535.24
688.107	526.72
688.301	535.82
688.494	583.1
688.688	528.27
688.882	495.91
689.076	519.55
689.269	520.71
689.463	603.44
689.657	565.08
689.85	573.02
690.044	572.25
690.238	586.78
690.431	567.21
690.625	584.07
690.818	585.62
691.012	599.95
691.205	641.22
691.399	590.65
691.593	622.04
691.786	686.75
691.98	695.08
692.173	696.83
692.366	676.87
692.56	679.2
692.753	721.82
692.947	655.37
693.14	734.03
693.333	701.87
693.527	667.57
693.72	724.53
693.914	696.63
694.107	700.7
694.3	689.27
694.493	689.08
694.687	737.9
694.88	675.71
695.073	783.24
695.266	741.2
695.46	743.13
695.653	784.4
695.846	807.65
696.039	712.13
696.232	759.8
696.425	792.54
696.618	813.27
696.812	810.75
697.005	871.39
697.198	910.92
697.391	881.47
697.584	893.09
697.777	925.64
697.97	894.26
698.163	919.44
698.356	885.34
698.549	978.54
698.742	938.04
698.935	894.84
699.127	929.71
699.32	890.58
699.513	905.88
699.706	928.16
699.899	960.32
700.092	928.74
700.285	961.1
700.477	921.77
700.67	959.55
700.863	977.76
701.056	1063.2
701.248	1013.22
701.441	1029.69
701.634	1001.59
701.826	1078.51
702.019	979.31
702.212	1059.14
702.404	964.2
702.597	1002.17
702.79	1020.19
702.982	1047.51
703.175	1091.49
703.367	1111.06
703.56	1092.65
703.752	1221.69
703.945	1140.51
704.137	1147.1
704.33	1170.73
704.522	1176.16
704.715	1198.44
704.907	1208.13
705.1	1262.96
705.292	1238.93
705.484	1218.2
705.677	1239.32
705.869	1243.97
706.061	1276.33
706.254	1309.84
706.446	1264.7
706.638	1246.3
706.831	1325.34
707.023	1265.86
707.215	1386.96
707.407	1360.8
707.599	1359.25
707.792	1410.01
707.984	1379.21
708.176	1422.22
708.368	1403.04
708.56	1427.84
708.752	1428.03
708.944	1389.86
709.136	1420.86
709.329	1390.06
709.521	1520.84
709.713	1460.97
709.905	1497
710.097	1538.85
710.289	1457.48
710.481	1469.49
710.672	1512.7
710.864	1569.66
711.056	1588.07
711.248	1567.53
711.44	1537.3
711.632	1566.17
711.824	1588.45
712.016	1645.22
712.207	1655.68
712.399	1634.37
712.591	1696.18
712.783	1629.33
712.975	1686.1
713.166	1633.79
713.358	1677.19
713.55	1724.08
713.741	1737.64
713.933	1716.13
714.125	1713.61
714.316	1663.82
714.508	1763.99
714.7	1772.13
714.891	1752.94
715.083	1833.54
715.274	1777.16
715.466	1773.09
715.657	1771.93
715.849	1742.48
716.04	1770.58
716.232	1738.61
716.423	1774.06
716.615	1707.22
716.806	1653.75
716.998	1595.04
717.189	1554.16
717.381	1548.15
717.572	1487.12
717.763	1530.33
717.955	1477.63
718.146	1468.52
718.337	1426.87
718.528	1381.34
718.72	1341.04
718.911	1413.69
719.102	1369.52
719.293	1373.97
719.485	1390.83
719.676	1390.06
719.867	1366.03
720.058	1353.44
720.249	1381.34
720.44	1360.22
720.632	1419.7
720.823	1453.8
721.014	1543.89
721.205	1575.28
721.396	1639.6
721.587	1725.82
721.778	1757.98
721.969	1809.91
722.16	1782.98
722.351	1803.12
722.542	1900.39
722.733	1932.35
722.924	1831.41
723.115	1914.34
723.305	1870.74
723.496	1884.89
723.687	1781.04
723.878	1778.71
724.069	1762.24
724.26	1768.06
724.45	1749.46
724.641	1711.29
724.832	1774.45
725.023	1744.61
725.213	1720.2
725.404	1700.24
725.595	1718.46
725.785	1721.17
725.976	1769.99
726.167	1764.96
726.357	1793.24
726.548	1848.27
726.739	1767.67
726.929	1853.31
727.12	1869.77
727.31	1898.84
727.501	1843.81
727.691	1880.24
727.882	1842.65
728.072	1917.24
728.263	1876.17
728.453	1923.83
728.644	1929.25
728.834	1895.15
729.024	1903.68
729.215	1883.14
729.405	1904.26
729.596	2020.7
729.786	1962.97
729.976	2012.18
730.167	1990.28
730.357	1937.97
730.547	1977.88
730.737	1989.12
730.928	2030.97
731.118	2110.8
731.308	1978.85
731.498	2029.62
731.688	2147.8
731.879	2116.61
732.069	2185.58
732.259	2204.76
732.449	2216.78
732.639	2252.81
732.829	2251.46
733.019	2300.28
733.209	2351.43
733.399	2328.95
733.589	2416.72
733.779	2444.04
733.969	2435.52
734.159	2456.63
734.349	2531.81
734.539	2549.63
734.729	2571.33
734.919	2538.2
735.109	2615.7
735.299	2555.25
735.488	2578.69
735.678	2544.6
735.868	2559.71
736.058	2536.46
736.248	2546.15
736.437	2522.31
736.627	2518.63
736.817	2620.93
737.007	2584.12
737.196	2570.17
737.386	2571.72
737.576	2570.75
737.765	2630.62
737.955	2595.16
738.144	2704.44
738.334	2677.7
738.524	2607.76
738.713	2629.07
738.903	2638.56
739.092	2682.93
739.282	2672.86
739.471	2647.67
739.661	2677.12
739.85	2761.59
740.04	2724.39
740.229	2688.94
740.419	2746.29
740.608	2768.18
740.797	2756.75
740.987	2808.29
741.176	2786
741.365	2730.4
741.555	2693.2
741.744	2797.63
741.933	2761.01
742.123	2796.85
742.312	2803.25
742.501	2855.37
742.69	2838.32
742.88	2732.92
743.069	2833.86
743.258	2776.12
743.447	2867.96
743.636	2829.79
743.825	2828.05
744.014	2850.13
744.204	2875.71
744.393	2804.6
744.582	2870.87
744.771	2883.85
744.96	2817.59
745.149	2894.7
745.338	2851.3
745.527	2843.55
745.716	2845.1
745.905	2854.78
746.094	2939.65
746.283	2858.47
746.471	2880.94
746.66	2928.6
746.849	2905.55
747.038	2934.41
747.227	2908.84
747.416	2891.79
747.604	2868.54
747.793	2866.6
747.982	2868.73
748.171	2840.45
748.359	2937.51
748.548	2892.95
748.737	2894.5
748.926	2874.55
749.114	2780.97
749.303	2879.39
749.491	2850.91
749.68	2838.12
749.869	2912.13
750.057	2840.83
750.246	2815.65
750.434	2815.07
750.623	2825.14
750.811	2799.57
751	2832.12
751.188	2837.73
751.377	2876.87
751.565	2792.59
751.754	2802.09
751.942	2780.39
752.131	2885.2
752.319	2775.54
752.507	2791.24
752.696	2812.74
752.884	2846.07
753.072	2848.78
753.261	2815.65
753.449	2831.54
753.637	2790.46
753.825	2882.88
754.014	2821.27
754.202	2808.67
754.39	2822.24
754.578	2834.44
754.766	2796.85
754.955	2766.24
755.143	2854.4
755.331	2782.52
755.519	2805.38
755.707	2778.84
755.895	2770.31
756.083	2741.64
756.271	2740.47
756.459	2754.62
756.647	2789.69
756.835	2747.06
757.023	2749.39
757.211	2719.74
757.399	2732.92
757.587	2747.25
757.775	2708.51
757.963	2716.64
758.151	2689.52
758.339	2649.8
758.526	2658.91
758.714	2710.25
758.902	2565.91
759.09	2482.98
759.278	2368.29
759.465	2184.81
759.653	1889.54
759.841	1731.83
760.028	1472.79
760.216	1255.01
760.404	1210.65
760.591	970.98
760.779	809.59
760.967	728.99
761.154	611
761.342	660.21
761.529	671.45
761.717	691.6
761.905	700.32
762.092	766.58
762.28	722.02
762.467	706.32
762.655	647.62
762.842	677.26
763.029	689.27
763.217	663.12
763.404	684.23
763.592	704.38
763.779	669.51
763.966	728.02
764.154	766
764.341	793.9
764.528	790.99
764.716	843.69
764.903	906.66
765.09	962.26
765.277	993.26
765.465	1154.27
765.652	1174.03
765.839	1218.4
766.026	1337.94
766.213	1337.55
766.4	1454.57
766.588	1627.78
766.775	1606.28
766.962	1694.82
767.149	1767.09
767.336	1867.45
767.523	1837.22
767.71	1961.61
767.897	2069.14
768.084	2105.76
768.271	2091.03
768.458	2162.33
768.645	2240.02
768.832	2155.94
769.019	2177.06
769.206	2248.36
769.392	2284.01
769.579	2380.49
769.766	2338.06
769.953	2335.93
770.14	2368.09
770.327	2367.7
770.513	2420.98
770.7	2481.24
770.887	2384.95
771.073	2430.87
771.26	2414.78
771.447	2399.48
771.634	2389.99
771.82	2506.81
772.007	2393.09
772.193	2421.95
772.38	2432.42
772.567	2426.8
772.753	2422.92
772.94	2435.71
773.126	2470.78
773.313	2450.82
773.499	2430.67
773.686	2459.15
773.872	2407.42
774.059	2435.13
774.245	2392.12
774.432	2425.25
774.618	2329.54
774.804	2443.27
774.991	2349.3
775.177	2460.12
775.363	2372.16
775.55	2430.67
775.736	2346.2
775.922	2341.55
776.109	2391.92
776.295	2389.21
776.481	2376.23
776.667	2427.38
776.853	2373.32
777.04	2348.52
777.226	2348.14
777.412	2445.98
777.598	2334.38
777.784	2355.3
777.97	2318.1
778.156	2362.47
778.342	2287.88
778.528	2318.88
778.715	2269.86
778.901	2301.44
779.087	2323.53
779.272	2279.36
779.458	2264.82
779.644	2349.1
779.83	2319.65
780.016	2374.29
780.202	2313.07
780.388	2274.71
780.574	2224.14
780.76	2264.05
780.946	2275.87
781.131	2270.64
781.317	2269.86
781.503	2225.69
781.689	2205.15
781.874	2332.64
782.06	2256.88
782.246	2245.06
782.432	2237.12
782.617	2222.39
782.803	2313.45
782.989	2150.71
783.174	2194.88
783.36	2175.31
783.545	2183.06
783.731	2199.14
783.916	2120.87
784.102	2222.2
784.288	2141.41
784.473	2153.03
784.659	2120.29
784.844	2216
785.029	2150.32
785.215	2138.69
785.4	2099.95
785.586	2219.1
785.771	2110.41
785.956	2173.18
786.142	2122.23
786.327	2106.53
786.512	2084.64
786.698	2106.53
786.883	2054.03
787.068	2055
787.254	2100.72
787.439	2056.74
787.624	2076.5
787.809	2030.2
787.994	2048.99
788.18	2123.97
788.365	1983.31
788.55	2043.37
788.735	2032.91
788.92	2030.39
789.105	2025.55
789.29	2035.43
789.475	1999.78
789.66	1971.1
789.845	1974.78
790.03	1976.33
790.215	1984.47
790.4	1992.61
790.585	2035.82
790.77	1996.68
790.955	1902.13
791.14	1929.64
791.325	2005.78
791.51	1875.2
791.695	1945.92
791.879	1925.19
792.064	1925.19
792.249	1992.03
792.434	1929.06
792.618	1951.73
792.803	1996.48
792.988	1924.6
793.173	1967.42
793.357	1978.85
793.542	1919.37
793.727	1907.17
793.911	1993.97
794.096	1922.28
794.281	1976.53
794.465	2008.11
794.65	1934.68
794.834	1954.05
795.019	2000.17
795.203	2019.73
795.388	1998.23
795.572	2023.42
795.757	1983.7
795.941	1990.28
796.126	1968.97
796.31	1893.02
796.494	1939.14
796.679	1962.58
796.863	1919.57
797.048	2014.5
797.232	1995.13
797.416	1971.88
797.601	1956.77
797.785	2029.62
797.969	2035.62
798.153	1978.85
798.338	1979.82
798.522	2009.47
798.706	2007.33
798.89	1997.26
799.074	2089.68
799.258	2041.63
799.443	2029.03
799.627	1963.93
799.811	2046.47
799.995	1995.9
800.179	1948.63
800.363	1991.83
800.547	2029.42
800.731	2008.3
800.915	1938.55
801.099	1940.88
801.283	1943.4
801.467	1981.76
801.651	1973.62
801.835	2034.46
802.019	1968
802.202	1965.87
802.386	1900.97
802.57	1940.1
802.754	1953.67
802.938	1888.76
803.121	1937.59
803.305	2023.03
803.489	1952.31
803.673	1991.64
803.856	1973.82
804.04	1961.8
804.224	1997.84
804.407	1941.85
804.591	1961.8
804.775	1981.37
804.958	1953.28
805.142	2092
805.326	2003.65
805.509	2004.04
805.693	2002.88
805.876	2058.48
806.06	1995.52
806.243	2017.41
806.427	2016.83
806.61	2020.51
806.794	1953.28
806.977	2036.98
807.16	2024.97
807.344	2022.06
807.527	1992.22
807.71	1963.35
807.894	2008.88
808.077	2030.39
808.26	1943.79
808.444	1955.99
808.627	2069.72
808.81	1963.35
808.993	1897.48
809.177	1892.25
809.36	1904.45
809.543	1975.17
809.726	1872.87
809.909	1860.67
810.092	1900.77
810.276	1884.3
810.459	1873.84
810.642	1864.54
810.825	1885.08
811.008	1838.77
811.191	1764.18
811.374	1815.72
811.557	1781.62
811.74	1861.64
811.923	1743.06
812.106	1768.06
812.289	1720.78
812.472	1732.79
812.654	1770.38
812.837	1693.66
813.02	1643.09
813.203	1639.6
813.386	1570.63
813.569	1549.12
813.751	1509.4
813.934	1565.59
814.117	1526.07
814.3	1487.51
814.482	1460.97
814.665	1466.97
814.848	1417.96
815.03	1358.86
815.213	1371.07
815.396	1386.18
815.578	1369.32
815.761	1348.4
815.943	1372.04
816.126	1301.71
816.309	1256.95
816.491	1233.31
816.674	1188.95
816.856	1236.61
817.039	1223.24
817.221	1303.06
817.403	1235.64
817.586	1240.68
817.768	1242.03
817.951	1174.61
818.133	1150.78
818.315	1215.1
818.498	1271.48
818.68	1315.85
818.862	1218.98
819.045	1304.61
819.227	1281.36
819.409	1229.63
819.591	1275.36
819.774	1255.01
819.956	1214.71
820.138	1315.08
820.32	1293.96
820.502	1299.38
820.684	1412.14
820.866	1403.81
821.048	1412.92
821.231	1413.89
821.413	1394.9
821.595	1384.63
821.777	1422.41
821.959	1382.11
822.141	1446.24
822.323	1354.99
822.505	1285.82
822.686	1224.21
822.868	1217.23
823.05	1113.19
823.232	1106.8
823.414	1057
823.596	1113.19
823.778	1106.41
823.96	1129.47
824.141	1146.13
824.323	1128.3
824.505	1212.39
824.687	1245.33
824.868	1252.69
825.05	1356.34
825.232	1379.01
825.413	1472.59
825.595	1376.88
825.777	1335.81
825.958	1368.74
826.14	1342.78
826.321	1381.92
826.503	1351.5
826.685	1366.42
826.866	1437.52
827.048	1413.5
827.229	1334.64
827.411	1306.55
827.592	1300.93
827.773	1273.81
827.955	1268.38
828.136	1230.02
828.318	1225.56
828.499	1280.78
828.68	1214.52
828.862	1274.97
829.043	1287.18
829.224	1266.06
829.406	1210.84
829.587	1233.12
829.768	1219.75
829.949	1238.55
830.131	1215.3
830.312	1305.19
830.493	1238.35
830.674	1236.22
830.855	1245.71
831.036	1258.7
831.218	1277.29
831.399	1277.29
831.58	1251.53
831.761	1259.86
831.942	1255.01
832.123	1240.87
832.304	1198.44
832.485	1193.98
832.666	1238.16
832.847	1248.43
833.028	1250.75
833.209	1222.66
833.389	1219.75
833.57	1172.86
833.751	1170.15
833.932	1268.58
834.113	1225.37
834.294	1238.74
834.475	1275.16
834.655	1267.61
834.836	1278.26
835.017	1284.08
835.198	1199.02
835.378	1236.03
835.559	1308.88
835.74	1233.51
835.92	1232.54
836.101	1227.89
836.281	1254.63
836.462	1252.69
836.643	1302.48
836.823	1322.63
837.004	1292.6
837.184	1340.84
837.365	1309.84
837.545	1335.42
837.726	1254.63
837.906	1341.23
838.087	1271.29
838.267	1311.01
838.448	1255.98
838.628	1317.98
838.808	1280.39
838.989	1318.76
839.169	1252.88
839.349	1307.91
839.53	1333.09
839.71	1337.36
839.89	1293.96
840.07	1328.83
840.251	1241.84
840.431	1308.29
840.611	1261.6
840.791	1242.23
840.971	1312.17
841.151	1263.34
841.332	1241.26
841.512	1356.15
841.692	1186.81
841.872	1280.39
842.052	1274.78
842.232	1273.23
842.412	1196.7
842.592	1270.9
842.772	1281.17
842.952	1282.33
843.132	1244.36
843.312	1248.62
843.492	1236.61
843.672	1295.51
843.851	1174.61
844.031	1264.89
844.211	1234.09
844.391	1207.55
844.571	1266.64
844.751	1287.76
844.93	1261.41
845.11	1249.2
845.29	1253.46
845.47	1283.3
845.649	1253.46
845.829	1284.27
846.009	1189.72
846.188	1269.93
846.368	1245.52
846.547	1205.61
846.727	1283.3
846.907	1204.06
847.086	1228.28
847.266	1247.85
847.445	1211.81
847.625	1225.76
847.804	1183.52
847.984	1221.88
848.163	1211.23
848.343	1202.9
848.522	1216.26
848.701	1223.63
848.881	1166.08
849.06	1195.53
849.239	1182.55
849.419	1195.34
849.598	1152.13
849.777	1153.88
849.957	1153.49
850.136	1111.25
850.315	1062.62
850.494	1113
850.674	1091.49
850.853	1181.2
851.032	1107.38
851.211	1171.7
851.39	1123.46
851.569	1092.65
851.748	1077.74
851.927	1145.16
852.107	1128.69
852.286	1077.35
852.465	1086.07
852.644	1152.13
852.823	1119.58
853.002	1115.9
853.181	1131.98
853.359	1141.87
853.538	1087.81
853.717	1161.05
853.896	1031.62
854.075	1023.68
854.254	971.37
854.433	927.19
854.611	947.92
854.79	932.42
854.969	969.43
855.148	989.39
855.327	954.51
855.505	995.59
855.684	1025.23
855.863	1012.25
856.041	995.97
856.22	1038.21
856.399	1002.75
856.577	1065.14
856.756	1066.89
856.934	1164.15
857.113	1182.36
857.291	1058.94
857.47	1029.88
857.648	1022.32
857.827	1076.38
858.005	1094.2
858.184	1022.13
858.362	1133.73
858.541	1098.85
858.719	1071.34
858.898	1023.49
859.076	1047.9
859.254	1130.43
859.433	1049.25
859.611	1029.49
859.789	974.27
859.967	1115.32
860.146	1123.65
860.324	1013.99
860.502	1047.32
860.68	1002.56
860.859	1022.13
861.037	1047.32
861.215	1044.99
861.393	1027.17
861.571	999.85
861.749	1007.6
861.927	1070.76
862.105	1034.53
862.283	1007.21
862.461	996.36
862.639	981.64
862.817	988.42
862.995	988.03
863.173	1003.92
863.351	983.77
863.529	1004.69
863.707	1022.32
863.885	1041.12
864.063	932.04
864.241	966.33
864.418	1048.87
864.596	960.52
864.774	902.98
864.952	981.64
865.129	1007.79
865.307	990.55
865.485	936.11
865.663	994.23
865.84	918.28
866.018	950.06
866.196	837.49
866.373	854.15
866.551	844.66
866.728	785.37
866.906	835.36
867.084	864.81
867.261	890.19
867.439	906.46
867.616	907.04
867.794	915.37
867.971	910.14
868.149	916.34
868.326	921.57
868.503	929.13
868.681	903.17
868.858	907.82
869.035	864.23
869.213	947.92
869.39	915.18
869.567	995.2
869.745	906.66
869.922	919.25
870.099	948.12
870.276	930.29
870.454	937.46
870.631	942.69
870.808	910.14
870.985	917.7
871.162	976.41
871.339	900.84
871.517	866.94
871.694	886.31
871.871	919.06
872.048	880.11
872.225	871.2
872.402	867.33
872.579	818.5
872.756	922.93
872.933	860.93
873.11	866.74
873.287	895.23
873.463	872.36
873.64	836.13
873.817	903.17
873.994	848.14
874.171	865
874.348	888.64
874.524	802.61
874.701	858.8
874.878	775.1
875.055	835.94
875.231	847.95
875.408	894.06
875.585	806.3
875.762	809.2
875.938	855.7
876.115	839.43
876.291	806.3
876.468	827.8
876.645	797.38
876.821	813.66
876.998	807.46
877.174	822.18
877.351	805.91
877.527	786.34
877.704	840.39
877.88	802.42
878.057	785.37
878.233	852.02
878.409	800.48
878.586	814.63
878.762	801.45
878.938	816.95
879.115	742.55
879.291	808.43
879.467	759.41
879.644	761.54
879.82	802.61
879.996	765.61
880.172	710.2
880.349	787.89
880.525	815.6
880.701	729.77
880.877	766
881.053	780.91
881.229	753.01
881.405	834.58
881.581	735.19
881.757	758.83
881.933	760.96
882.109	775.88
882.285	780.14
882.461	721.82
882.637	745.46
882.813	731.12
882.989	743.33
883.165	806.1
883.341	768.32
883.517	808.43
883.693	784.01
883.869	780.91
884.044	735.38
884.22	793.31
884.396	817.34
884.572	788.08
884.747	817.92
884.923	755.92
885.099	807.65
885.275	807.26
885.45	734.42
885.626	753.79
885.801	748.36
885.977	763.86
886.153	718.92
886.328	786.73
886.504	730.35
886.679	761.73
886.855	750.88
887.03	786.92
887.206	779.75
887.381	785.18
887.557	768.9
887.732	759.41
887.908	765.61
888.083	758.44
888.258	735.19
888.434	744.49
888.609	765.61
888.784	802.42
888.96	743.91
889.135	716.01
889.31	704.38
889.485	752.24
889.661	744.88
889.836	750.3
890.011	776.26
890.186	749.14
890.361	703.61
890.537	742.75
890.712	776.46
890.887	782.08
891.062	720.27
891.237	811.72
891.412	701.67
891.587	736.55
891.762	796.61
891.937	782.46
892.112	705.16
892.287	753.98
892.462	710.97
892.637	693.92
892.812	678.81
892.987	702.64
893.161	670.09
893.336	695.08
893.511	709.03
893.686	722.98
893.861	694.89
894.035	694.5
894.21	706.32
894.385	633.09
894.56	692.37
894.734	615.65
894.909	637.93
895.084	637.54
895.258	631.54
895.433	617
895.608	625.92
895.782	570.7
895.957	578.25
896.131	598.02
896.306	533.5
896.48	550.74
896.655	533.69
896.829	528.46
897.004	516.84
897.178	499.98
897.353	497.85
897.527	554.04
897.701	504.82
897.876	487
898.05	546.48
898.224	529.62
898.399	561.79
898.573	517.03
898.747	440.11
898.921	492.42
899.096	373.66
899.27	422.09
899.444	414.73
899.618	424.42
899.792	448.06
899.967	426.36
900.141	469.37
900.315	415.51
900.489	448.44
900.663	465.11
900.837	456.39
901.011	398.84
901.185	503.86
901.359	450.38
901.533	443.21
901.707	465.49
901.881	451.35
902.055	363.58
902.229	441.08
902.403	514.71
902.576	469.37
902.75	465.88
902.924	549.97
903.098	494.36
903.272	555.59
903.446	579.42
903.619	526.72
903.793	549.58
903.967	531.37
904.14	590.65
904.314	577.09
904.488	559.27
904.661	604.02
904.835	549.97
905.009	594.53
905.182	619.91
905.356	571.09
905.529	579.8
905.703	514.51
905.876	546.67
906.05	506.18
906.223	505.21
906.397	439.14
906.57	443.41
906.744	429.46
906.917	445.54
907.09	460.26
907.264	472.08
907.437	422.29
907.61	399.43
907.784	399.23
907.957	403.49
908.13	400.01
908.304	451.93
908.477	388.58
908.65	422.87
908.823	384.12
908.996	433.72
909.17	393.61
909.343	401.56
909.516	410.08
909.689	390.71
909.862	387.22
910.035	379.86
910.208	359.9
910.381	370.56
910.554	454.84
910.727	399.81
910.9	396.33
911.073	358.55
911.246	431.39
911.419	455.42
911.592	393.42
911.765	378.11
911.938	348.66
912.11	369.01
912.283	400.98
912.456	427.91
912.629	377.53
912.802	359.51
912.974	352.93
913.147	343.43
913.32	251.21
913.493	300.61
913.665	322.9
913.838	341.5
914.01	326.58
914.183	349.63
914.356	323.48
914.528	352.73
914.701	435.08
914.873	383.93
915.046	337.81
915.218	305.26
915.391	277.95
915.563	278.53
915.736	324.64
915.908	388.77
916.081	332.2
916.253	341.69
916.425	343.05
916.598	350.02
916.77	348.66
916.942	320.18
917.115	244.04
917.287	351.18
917.459	322.9
917.632	296.55
917.804	236.1
917.976	312.05
918.148	328.13
918.32	308.36
918.493	331.61
918.665	381.8
918.837	348.66
919.009	415.51
919.181	385.86
919.353	364.75
919.525	339.17
919.697	350.8
919.869	335.88
920.041	389.93
920.213	470.14
920.385	367.07
920.557	357.38
920.729	389.93
920.901	356.8
921.073	347.11
921.244	345.76
921.416	400.98
921.588	348.86
921.76	338.78
921.932	424.23
922.103	360.68
922.275	340.14
922.447	353.31
922.619	270.97
922.79	346.34
922.962	306.43
923.134	359.13
923.305	312.82
923.477	306.81
923.648	290.15
923.82	306.23
923.991	245.78
924.163	258.38
924.335	310.88
924.506	293.45
924.677	349.44
924.849	275.04
925.02	303.52
925.192	308.56
925.363	296.35
925.535	316.7
925.706	256.25
925.877	352.93
926.049	260.7
926.22	336.07
926.391	308.75
926.562	323.67
926.734	278.72
926.905	326.19
927.076	243.27
927.247	285.31
927.419	259.73
927.59	224.86
927.761	252.18
927.932	215.17
928.103	274.07
928.274	215.95
928.445	214.78
928.616	211.88
928.787	219.05
928.958	225.44
929.129	243.46
929.3	204.71
929.471	165.96
929.642	143.49
929.813	94.47
929.984	189.6
930.155	120.24
930.326	181.65
930.496	146.2
930.667	89.62
930.838	142.52
931.009	79.55
931.18	129.73
931.35	127.02
931.521	141.74
931.692	80.32
931.863	69.47
932.033	101.83
932.204	122.56
932.374	75.48
932.545	83.42
932.716	139.03
932.886	108.03
933.057	31.5
933.227	49.91
933.398	132.25
933.568	72.77
933.739	11.35
933.909	21.04
934.08	85.36
934.25	18.33
934.421	22.59
934.591	56.69
934.761	25.3
934.932	1.86
935.102	21.43
935.272	24.72
935.443	31.69
935.613	38.67
935.783	61.72
935.953	0.89
936.123	179.33
936.294	-6.67
936.464	22.78
936.634	16
936.804	-18.87
936.974	-3.37
937.144	59.21
937.314	34.79
937.484	15.42
937.655	5.54
937.825	80.52
937.995	-33.99
938.165	72.57
938.334	23.36
938.504	55.52
938.674	21.23
938.844	30.73
939.014	71.61
939.184	57.46
939.354	94.47
939.524	98.73
939.694	64.63
939.863	60.17
940.033	122.76
940.203	116.94
940.373	77.81
940.542	97.57
940.712	61.14
940.882	92.92
941.051	118.49
941.221	109.19
941.391	113.46
941.56	60.17
941.73	46.42
941.899	157.05
942.069	86.33
942.238	76.84
942.408	50.29
942.577	124.5
942.747	73.16
942.916	1.47
943.086	46.42
943.255	111.71
943.425	100.67
943.594	24.72
943.763	-12.67
943.933	27.24
944.102	-9.38
944.271	47.39
944.441	41.57
944.61	24.53
944.779	24.14
944.948	130.7
945.117	-1.05
945.287	58.43
945.456	-15
945.625	22.01
945.794	48.36
945.963	18.52
946.132	76.64
946.301	25.11
946.47	87.49
946.639	3.99
946.808	8.83
946.977	58.43
947.146	79.16
947.315	34.6
947.484	66.76
947.653	24.72
947.822	39.25
947.991	7.48
948.16	117.52
948.329	84.78
948.498	22.59
948.666	54.75
948.835	107.45
949.004	24.33
949.173	13.68
949.341	65.79
949.51	60.17
949.679	106.87
949.847	71.8
950.016	140.39
950.185	129.15
950.353	20.07
950.522	19.49
950.69	79.55
950.859	12.13
951.028	80.52
951.196	67.34
951.365	34.02
951.533	48.55
951.701	77.22
951.87	85.17
952.038	6.51
952.207	45.45
952.375	102.8
952.543	40.22
952.712	33.63
952.88	9.8
953.048	93.31
953.217	60.76
953.385	34.79
953.553	97.57
953.721	6.7
953.89	68.12
954.058	1.86
954.226	24.91
954.394	76.06
954.562	3.79
954.73	47.97
954.898	62.31
955.067	95.24
955.235	45.64
955.403	64.24
955.571	136.12
955.739	65.41
955.907	32.28
956.075	28.98
956.243	36.15
956.41	53.01
956.578	17.55
956.746	26.85
956.914	7.09
957.082	70.83
957.25	60.95
957.418	43.32
957.585	70.64
957.753	112.87
957.921	9.8
958.089	44.48
958.256	73.35
958.424	47.97
958.592	87.88
958.759	33.83
958.927	67.15
959.095	28.01
959.262	48.74
959.43	46.61
959.597	8.44
959.765	26.27
959.932	28.59
960.1	90.21
960.267	54.56
960.435	77.61
960.602	86.72
960.77	34.79
960.937	26.46
961.104	60.76
961.272	7.67
961.439	16.39
961.606	75.09
961.774	84.01
961.941	41.57
962.108	66.57
962.275	57.85
962.443	71.8
962.61	81.29
962.777	144.45
962.944	94.08
963.111	47.39
963.278	71.99
963.446	48.16
963.613	56.88
963.78	86.91
963.947	65.99
964.114	78.19
964.281	150.46
964.448	94.66
964.615	45.84
964.782	53.59
964.949	100.09
965.116	100.09
965.282	113.65
965.449	59.01
965.616	36.92
965.783	101.64
965.95	66.18
966.117	9.8
966.283	56.3
966.45	100.67
966.617	56.88
966.784	116.56
966.95	87.69
967.117	79.74
967.284	27.04
967.45	53.01
967.617	128.37
967.784	88.07
967.95	110.16
968.117	66.76
968.283	116.56
968.45	188.82
968.616	76.45
968.783	119.85
968.949	89.24
969.116	123.34
969.282	82.65
969.449	109.39
969.615	78.97
969.781	-1.05
969.948	46.22
970.114	18.33
970.28	132.05
970.447	39.44
970.613	108.42
970.779	75.29
970.945	90.01
971.112	62.31
971.278	78.97
971.444	73.54
971.61	116.56
971.776	78.39
971.942	75.48
972.108	106.29
972.275	51.65
972.441	99.12
972.607	143.49
972.773	66.76
972.939	104.74
973.105	74.51
973.271	30.14
973.437	45.45
973.602	36.92
973.768	77.81
973.934	37.51
974.1	87.88
974.266	6.51
974.432	94.86
974.598	32.47
974.763	124.11
974.929	50.68
975.095	120.04
975.261	44.29
975.426	54.56
975.592	66.76
975.758	167.32
975.923	36.15
976.089	33.83
976.255	79.55
976.42	74.12
976.586	75.48
976.751	87.69
976.917	132.83
977.082	107.06
977.248	17.55
977.413	3.99
977.579	71.22
977.744	66.18
977.91	34.21
978.075	67.15
978.24	96.99
978.406	54.17
978.571	38.09
978.736	21.04
978.902	96.99
979.067	33.05
979.232	22.01
979.397	86.72
979.563	108.42
979.728	46.61
979.893	71.61
980.058	45.45
980.223	90.98
980.388	71.41
980.554	62.69
980.719	39.06
980.884	62.5
981.049	93.31
981.214	25.49
981.379	87.88
981.544	30.73
981.709	40.99
981.874	79.36
982.039	76.26
982.204	79.16
982.368	72.57
982.533	22.01
982.698	87.3
982.863	79.74
983.028	46.03
983.193	102.99
983.357	75.09
983.522	64.05
983.687	61.92
983.852	57.27
984.016	64.63
984.181	85.17
984.346	64.05
984.51	90.79
984.675	59.4
984.839	82.65
985.004	81.68
985.168	111.13
985.333	68.7
985.498	70.64
985.662	103.38
985.827	89.43
985.991	51.07
986.155	66.37
986.32	81.87
986.484	106.09
986.649	83.04
986.813	18.52
986.977	55.52
987.142	81.68
987.306	13.29
987.47	42.35
987.634	67.34
987.799	64.44
987.963	77.42
988.127	81.29
988.291	155.3
988.455	67.54
988.62	62.31
988.784	78.58
988.948	87.3
989.112	7.28
989.276	76.45
989.44	65.41
989.604	22.39
989.768	64.63
989.932	112.68
990.096	53.2
990.26	21.04
990.424	-15.19
990.588	74.71
990.752	106.09
990.915	108.03
991.079	61.72
991.243	16
991.407	63.27
991.571	34.02
991.734	73.35
991.898	71.61
992.062	155.3
992.226	72.19
992.389	31.11
992.553	-2.21
992.717	36.54
992.88	25.11
993.044	65.79
993.207	74.51
993.371	78.58
993.535	56.69
993.698	75.09
993.862	100.28
994.025	126.82
994.189	56.49
994.352	47.97
994.515	62.11
994.679	108.03
994.842	56.49
995.006	70.83
995.169	22.39
995.332	14.45
995.496	71.99
995.659	8.25
995.822	43.9
995.985	58.04
996.149	111.91
996.312	33.83
996.475	133.99
996.638	37.12
996.801	102.02
996.964	132.64
997.128	44.48
997.291	39.06
997.454	67.54
997.617	34.99
997.78	102.8
997.943	27.24
998.106	69.47
998.269	50.87
998.432	60.17
998.595	44.48
998.758	12.13
998.92	35.57
999.083	8.64
999.246	31.69
999.409	10.96
999.572	6.7
999.735	20.46
999.897	57.85
1000.06	38.09
1000.223	38.86
1000.386	58.24
1000.548	69.67
1000.711	63.66
1000.874	63.86
1001.036	34.6
1001.199	69.28
1001.361	22.39
1001.524	57.46
1001.687	72.19
1001.849	24.53
1002.012	70.64
1002.174	63.08
1002.337	47.39
1002.499	56.49
1002.661	70.44
1002.824	17.74
1002.986	-3.96
1003.149	26.85
1003.311	10.58
1003.473	91.56
1003.636	26.46
1003.798	44.87
1003.96	78.77
1004.123	34.79
1004.285	23.75
1004.447	13.48
1004.609	58.82
1004.771	110.74
1004.933	-12.67
1005.096	19.1
1005.258	-17.91
1005.42	19.68
1005.582	71.02
1005.744	48.74
1005.906	-6.09
1006.068	36.34
1006.23	3.21
1006.392	-7.83
1006.554	7.86
1006.716	65.02
1006.878	35.18
1007.04	-19.84
1007.202	22.59
1007.363	55.33
1007.525	40.02
1007.687	47.58
1007.849	85.94
1008.011	-25.27
1008.172	-2.6
1008.334	50.68
1008.496	59.21
1008.658	-17.52
1008.819	0.89
1008.981	3.79
1009.143	14.84
1009.304	21.81
1009.466	75.09
1009.627	89.82
1009.789	149.1
1009.95	68.12
1010.112	8.83
1010.273	33.24
1010.435	-14.61
1010.596	7.67
1010.758	9.99
1010.919	18.71
1011.081	-19.07
1011.242	25.11
1011.403	48.55
1011.565	25.88
1011.726	58.82
1011.887	-10.74
1012.049	24.14
1012.21	50.68
1012.371	74.32
1012.532	-33.6
1012.693	1.86
1012.855	4.76
1013.016	24.53
1013.177	50.68
1013.338	35.96
1013.499	70.64
1013.66	51.26
1013.821	47.39
1013.982	38.28
1014.143	21.81
1014.304	23.75
1014.465	28.4
1014.626	73.74
1014.787	33.83
1014.948	123.34
1015.109	-25.85
1015.27	69.86
1015.431	2.05
1015.592	-8.22
1015.752	86.14
1015.913	40.61
1016.074	7.48
1016.235	38.09
1016.395	19.68
1016.556	6.31
1016.717	42.74
1016.877	96.41
1017.038	2.05
1017.199	28.21
1017.359	-5.89
1017.52	32.08
1017.681	12.51
1017.841	5.93
1018.002	27.82
1018.162	35.38
1018.323	52.81
1018.483	11.74
1018.644	18.33
1018.804	-23.52
1018.964	6.7
1019.125	-7.06
1019.285	28.79
1019.446	1.86
1019.606	-4.73
1019.766	-27.4
1019.926	40.8
1020.087	36.92
1020.247	-0.66
1020.407	35.76
1020.567	49.32
1020.728	-0.47
1020.888	-8.8
1021.048	-6.67
1021.208	-17.91
1021.368	4.96
1021.528	33.05
1021.688	50.87
1021.848	41.19
1022.008	29.37
1022.168	18.33
1022.328	5.93
1022.488	47.39
1022.648	-12.09
1022.808	20.65
1022.968	46.03
1023.128	14.84
1023.288	8.64
1023.448	-17.13
1023.608	36.34
1023.767	50.87
1023.927	-16.94
1024.087	-8.02
1024.247	-23.72
1024.406	-3.76
1024.566	-17.52
1024.726	2.44
1024.885	10.38
1025.045	28.21
1025.205	18.91
1025.364	-6.28
1025.524	24.33
1025.683	-4.15
1025.843	28.79
1026.003	33.63
1026.162	70.44
1026.321	62.11
1026.481	22.01
1026.64	17.74
1026.8	2.05
1026.959	33.83
1027.119	6.12
1027.278	3.21
1027.437	-0.86
1027.597	10.77
1027.756	27.04
1027.915	63.27
1028.074	24.72
1028.234	7.28
1028.393	20.46
1028.552	20.26
1028.711	-72.93
1028.87	53.59
1029.03	-40.19
1029.189	25.49
1029.348	-53.94
1029.507	5.93
1029.666	-21.39
1029.825	-11.12
1029.984	-15.77
1030.143	21.04
1030.302	7.09
1030.461	-26.04
1030.62	30.73
1030.779	22.59
1030.938	-3.96
1031.097	-15
1031.255	-9.38
1031.414	75.48
1031.573	45.84
1031.732	-33.6
1031.891	8.83
1032.049	57.27
1032.208	33.05
1032.367	-27.98
1032.525	2.83
1032.684	18.33
1032.843	-10.54
1033.001	-49.49
1033.16	124.5
1033.319	47.58
1033.477	56.69
1033.636	-26.82
1033.794	-44.84
1033.953	30.53
1034.111	25.69
1034.27	-7.25
1034.428	18.33
1034.587	-14.22
1034.745	26.27
1034.903	22.59
1035.062	0.11
1035.22	-9.38
1035.378	28.01
1035.537	-38.44
1035.695	23.36
1035.853	-5.7
1036.011	33.24
1036.17	19.1
1036.328	-55.69
1036.486	15.23
1036.644	43.51
1036.802	-27.4
1036.96	1.28
1037.119	3.02
1037.277	-18.29
1037.435	-21.39
1037.593	-15.97
1037.751	-17.71
1037.909	44.09
1038.067	44.09
