Data from pine_FLMT105791__188__17-23-42-073.txt Node

Date: Mon Mar 20 17:23:42 GMT 2023
User: antho
Spectrometer: FLMT10579
Trigger mode: 0
Integration Time (sec): 1.000000E-1
Scans to average: 10
Electric dark correction enabled: true
Nonlinearity correction enabled: false
Boxcar width: 0
XAxis mode: Wavelengths
Number of Pixels in Spectrum: 3648
>>>>>Begin Spectral Data<<<<<
345.248	-187.22
345.464	-187.22
345.681	-187.22
345.898	-177.34
346.114	-178.51
346.331	-34.55
346.548	26.48
346.764	-14.98
346.981	-14.6
347.197	-23.9
347.414	15.05
347.631	-1.23
347.847	62.52
348.064	-4.33
348.28	42.37
348.497	-61.48
348.713	8.65
348.93	20.47
349.146	18.34
349.363	-38.23
349.579	21.05
349.796	-2.2
350.012	-9.56
350.229	35.2
350.445	-0.65
350.661	-11.69
350.878	-2.2
351.094	24.54
351.311	2.84
351.527	25.32
351.743	1.1
351.96	36.55
352.176	22.02
352.392	24.74
352.609	8.27
352.825	-8.78
353.041	20.09
353.257	-33.97
353.474	-5.1
353.69	-5.1
353.906	25.7
354.122	-41.72
354.339	15.44
354.555	7.49
354.771	-17.31
354.987	48.37
355.203	63.68
355.42	-7.81
355.636	-17.11
355.852	-18.47
356.068	4.59
356.284	-29.32
356.5	41.4
356.716	20.28
356.932	-1.61
357.148	57.87
357.364	-2.2
357.58	55.73
357.796	47.79
358.012	40.43
358.228	5.36
358.444	-42.11
358.66	31.52
358.876	17.37
359.092	-10.33
359.308	4.39
359.524	17.57
359.74	-16.92
359.956	-16.15
360.172	5.36
360.388	37.33
360.604	-19.63
360.819	94.29
361.035	16.6
361.251	24.74
361.467	-22.15
361.683	46.82
361.898	3.04
362.114	-4.52
362.33	17.95
362.546	25.32
362.762	0.13
362.977	21.05
363.193	-30.48
363.409	54.77
363.624	-37.07
363.84	-19.25
364.056	-18.47
364.271	22.02
364.487	16.79
364.703	-0.26
364.918	-19.83
365.134	-35.52
365.35	-12.66
365.565	84.41
365.781	28.61
365.996	24.74
366.212	61.16
366.427	-1.81
366.643	-20.8
366.858	-2.39
367.074	-30.29
367.289	49.92
367.505	109.4
367.72	-43.27
367.936	-4.91
368.151	45.85
368.367	17.95
368.582	9.43
368.798	-1.03
369.013	53.8
369.228	-10.33
369.444	16.79
369.659	41.98
369.874	15.63
370.09	57.48
370.305	-71.17
370.52	-29.51
370.736	49.53
370.951	-2.97
371.166	78.98
371.381	42.95
371.597	38.49
371.812	-30.68
372.027	-18.66
372.242	15.44
372.458	74.33
372.673	1.1
372.888	-8.01
373.103	23.38
373.318	114.83
373.533	12.92
373.749	33.65
373.964	-59.54
374.179	39.27
374.394	-29.9
374.609	40.82
374.824	-8.4
375.039	44.3
375.254	-9.36
375.469	75.11
375.684	0.13
375.899	45.08
376.114	-1.03
376.329	40.43
376.544	38.49
376.759	24.54
376.974	-20.6
377.189	-21.96
377.404	-31.65
377.619	51.86
377.834	-13.63
378.049	-43.85
378.264	7.49
378.478	7.69
378.693	-14.6
378.908	29.19
379.123	0.9
379.338	48.18
379.553	19.89
379.767	19.31
379.982	26.67
380.197	22.02
380.412	-4.13
380.626	62.32
380.841	94.1
381.056	30.74
381.271	67.17
381.485	-28.55
381.7	-8.2
381.915	12.92
382.129	-12.66
382.344	24.54
382.559	3.42
382.773	58.06
382.988	-53.93
383.202	21.44
383.417	-11.69
383.632	99.72
383.846	-8.2
384.061	47.02
384.275	-14.21
384.49	26.29
384.704	39.46
384.919	22.02
385.133	8.46
385.348	45.85
385.562	-18.86
385.777	49.34
385.991	-2.78
386.206	5.75
386.42	3.81
386.634	45.47
386.849	21.05
387.063	34.42
387.277	-7.43
387.492	-20.21
387.706	-45.79
387.92	-26.03
388.135	25.7
388.349	-10.14
388.563	1.1
388.778	9.24
388.992	24.54
389.206	38.1
389.42	63.48
389.635	34.42
389.849	47.4
390.063	35.97
390.277	35.97
390.491	80.53
390.706	38.68
390.92	45.66
391.134	12.72
391.348	24.74
391.562	-38.81
391.776	11.37
391.99	11.17
392.205	22.02
392.419	-35.52
392.633	19.5
392.847	36.75
393.061	-21.96
393.275	52.05
393.489	7.69
393.703	28.61
393.917	35.58
394.131	-6.07
394.345	48.76
394.559	31.9
394.773	-11.11
394.986	29.19
395.2	11.56
395.414	34.23
395.628	-24.67
395.842	17.95
396.056	-2.58
396.27	-31.65
396.484	33.26
396.697	14.47
396.911	44.69
397.125	32.68
397.339	22.02
397.553	24.15
397.766	78.79
397.98	49.34
398.194	45.47
398.408	6.14
398.621	19.31
398.835	37.13
399.049	28.42
399.262	43.33
399.476	46.24
399.69	16.21
399.903	80.92
400.117	-6.46
400.331	22.22
400.544	10.4
400.758	109.02
400.971	32.29
401.185	37.13
401.398	5.17
401.612	57.09
401.826	24.35
402.039	23.19
402.253	7.1
402.466	31.9
402.68	14.27
402.893	57.48
403.106	-5.88
403.32	17.76
403.533	25.12
403.747	18.15
403.96	7.88
404.174	54.18
404.387	-30.29
404.6	10.98
404.814	48.95
405.027	23.96
405.24	14.47
405.454	-17.31
405.667	79.57
405.88	-55.67
406.094	-1.81
406.307	55.15
406.52	31.13
406.733	10.4
406.947	-41.72
407.16	64.65
407.373	47.4
407.586	-29.71
407.799	-0.84
408.012	40.82
408.226	30.55
408.439	66.39
408.652	-2.78
408.865	32.29
409.078	66.39
409.291	18.34
409.504	-16.34
409.717	35.78
409.93	46.63
410.143	7.49
410.357	-29.13
410.57	-4.52
410.783	28.42
410.996	31.9
411.209	7.88
411.421	54.96
411.634	25.32
411.847	-21.38
412.06	23.57
412.273	16.79
412.486	-7.62
412.699	81.89
412.912	10.79
413.125	56.9
413.338	9.62
413.55	39.85
413.763	22.99
413.976	45.27
414.189	-26.8
414.402	-29.71
414.615	55.15
414.827	-14.79
415.04	73.17
415.253	13.3
415.466	54.77
415.678	87.51
415.891	10.59
416.104	8.85
416.316	-13.43
416.529	8.85
416.742	53.6
416.954	48.95
417.167	18.92
417.38	-2.39
417.592	66.97
417.805	-14.01
418.017	-37.65
418.23	47.4
418.442	-1.61
418.655	-2.97
418.868	24.93
419.08	55.93
419.293	68.13
419.505	14.47
419.718	54.57
419.93	51.67
420.142	4.97
420.355	30.35
420.567	87.7
420.78	5.36
420.992	20.47
421.205	73.17
421.417	-40.75
421.629	-11.5
421.842	-27
422.054	-26.41
422.266	24.35
422.479	70.65
422.691	24.15
422.903	34.03
423.115	-9.95
423.328	29.77
423.54	24.93
423.752	8.85
423.964	-0.06
424.177	25.32
424.389	-2.78
424.601	120.45
424.813	25.51
425.025	65.03
425.238	7.49
425.45	-16.15
425.662	37.52
425.874	287.84
426.086	35
426.298	38.68
426.51	37.91
426.722	23.77
426.934	-2.39
427.146	26.48
427.358	14.27
427.57	62.13
427.782	3.62
427.994	29
428.206	15.44
428.418	-34.94
428.63	29.19
428.842	43.14
429.054	31.13
429.266	66.39
429.478	13.89
429.69	24.15
429.902	4.97
430.114	56.51
430.325	36.94
430.537	24.74
430.749	43.14
430.961	-10.72
431.173	32.68
431.384	83.44
431.596	-47.15
431.808	-5.88
432.02	29.77
432.231	47.21
432.443	51.67
432.655	43.14
432.867	-15.95
433.078	40.62
433.29	98.36
433.502	46.43
433.713	32.48
433.925	9.04
434.136	48.76
434.348	-7.23
434.56	-30.68
434.771	111.34
434.983	-28.16
435.194	1.68
435.406	-15.18
435.617	73.37
435.829	62.71
436.04	52.83
436.252	66.39
436.463	48.76
436.675	73.17
436.886	18.92
437.098	19.31
437.309	81.31
437.521	21.05
437.732	68.52
437.943	60
438.155	10.98
438.366	-36.3
438.578	63.87
438.789	33.45
439	76.27
439.211	35.58
439.423	48.37
439.634	50.12
439.845	54.57
440.057	34.03
440.268	58.64
440.479	-6.26
440.69	42.56
440.902	-4.91
441.113	34.62
441.324	20.47
441.535	30.93
441.746	81.12
441.957	-1.42
442.168	5.75
442.38	58.25
442.591	49.73
442.802	-20.8
443.013	-5.88
443.224	32.29
443.435	10.59
443.646	13.89
443.857	35.39
444.068	-7.81
444.279	9.62
444.49	100.49
444.701	22.99
444.912	110.57
445.123	52.83
445.334	72.59
445.545	31.13
445.756	23.96
445.967	2.07
446.178	49.15
446.388	97
446.599	54.18
446.81	67.94
447.021	31.52
447.232	73.37
447.443	69.3
447.653	23.19
447.864	58.64
448.075	11.75
448.286	64.84
448.496	29.19
448.707	49.53
448.918	41.59
449.129	119.48
449.339	27.45
449.55	44.11
449.761	25.7
449.971	86.15
450.182	15.63
450.393	58.83
450.603	-0.26
450.814	58.83
451.024	46.05
451.235	56.9
451.446	80.15
451.656	91.58
451.867	28.61
452.077	70.46
452.288	111.53
452.498	99.72
452.709	42.17
452.919	83.25
453.13	31.9
453.34	66.58
453.55	9.04
453.761	76.85
453.971	51.67
454.182	69.3
454.392	54.38
454.602	119.28
454.813	58.45
455.023	73.17
455.233	5.17
455.444	50.31
455.654	7.49
455.864	63.48
456.075	52.44
456.285	28.22
456.495	58.64
456.705	61.35
456.916	90.22
457.126	82.08
457.336	34.23
457.546	2.84
457.756	16.79
457.967	102.43
458.177	42.17
458.387	67.17
458.597	-2.78
458.807	35.58
459.017	35.78
459.227	66.58
459.437	47.4
459.647	82.86
459.857	68.13
460.068	41.98
460.278	87.51
460.488	75.88
460.698	134.01
460.908	50.7
461.117	22.41
461.327	39.27
461.537	65.23
461.747	53.8
461.957	40.43
462.167	172.37
462.377	78.98
462.587	47.4
462.797	71.62
463.007	77.24
463.216	72.01
463.426	111.34
463.636	82.67
463.846	-4.52
464.056	40.62
464.265	94.87
464.475	37.72
464.685	54.77
464.895	33.84
465.104	57.48
465.314	69.68
465.524	57.09
465.733	30.74
465.943	129.75
466.153	122.38
466.362	99.33
466.572	70.27
466.782	58.06
466.991	53.6
467.201	124.51
467.41	23.77
467.62	47.21
467.829	70.07
468.039	68.91
468.249	47.4
468.458	52.25
468.668	94.1
468.877	89.45
469.086	97.39
469.296	93.71
469.505	61.16
469.715	143.11
469.924	55.73
470.134	89.64
470.343	144.66
470.552	69.49
470.762	68.52
470.971	61.35
471.18	84.02
471.39	64.84
471.599	47.79
471.808	104.37
472.018	58.83
472.227	101.46
472.436	106.5
472.645	66.97
472.855	39.85
473.064	119.09
473.273	71.82
473.482	96.03
473.691	108.43
473.901	103.2
474.11	79.18
474.319	164.81
474.528	74.53
474.737	120.06
474.946	87.32
475.155	104.56
475.364	106.5
475.573	89.64
475.783	91
475.992	113.47
476.201	126.84
476.41	83.63
476.619	45.27
476.828	89.45
477.037	70.07
477.245	59.42
477.454	105.92
477.663	66.2
477.872	62.32
478.081	123.35
478.29	22.8
478.499	152.8
478.708	96.03
478.917	104.95
479.125	95.84
479.334	102.62
479.543	44.69
479.752	90.61
479.961	76.85
480.169	108.24
480.378	73.37
480.587	195.04
480.796	119.48
481.004	52.83
481.213	110.18
481.422	90.22
481.63	58.64
481.839	114.25
482.048	145.25
482.256	109.02
482.465	104.95
482.674	105.92
482.882	140.4
483.091	154.55
483.299	103.01
483.508	113.67
483.716	99.72
483.925	99.72
484.134	86.35
484.342	72.78
484.551	163.85
484.759	114.44
484.967	110.37
485.176	124.9
485.384	134.59
485.593	156.68
485.801	160.55
486.01	113.47
486.218	143.11
486.426	51.86
486.635	114.83
486.843	98.94
487.051	131.1
487.26	122.77
487.468	131.88
487.676	148.93
487.885	104.56
488.093	119.09
488.301	90.22
488.509	117.35
488.717	143.7
488.926	126.26
489.134	96.03
489.342	107.66
489.55	91.58
489.758	109.6
489.967	84.6
490.175	233.21
490.383	72.59
490.591	151.45
490.799	76.47
491.007	159.97
491.215	115.02
491.423	97.78
491.631	120.83
491.839	157.26
492.047	155.9
492.255	107.47
492.463	62.52
492.671	116.38
492.879	156.1
493.087	126.45
493.295	107.27
493.503	132.65
493.711	157.45
493.919	175.66
494.127	155.71
494.334	165.2
494.542	100.68
494.75	131.3
494.958	125.1
495.166	178.57
495.374	140.6
495.581	140.98
495.789	133.81
495.997	183.8
496.205	160.94
496.412	143.11
496.62	112.12
496.828	158.42
497.035	109.21
497.243	141.56
497.451	134.4
497.658	151.25
497.866	167.33
498.074	197.56
498.281	88.87
498.489	197.56
498.696	175.08
498.904	116.76
499.112	147.96
499.319	199.69
499.527	115.8
499.734	172.18
499.942	123.35
500.149	134.98
500.357	137.11
500.564	126.65
500.771	158.81
500.979	120.25
501.186	120.64
501.394	149.9
501.601	144.47
501.808	178.38
502.016	137.3
502.223	156.87
502.43	152.61
502.638	166.36
502.845	124.9
503.052	193.1
503.26	142.73
503.467	208.99
503.674	134.59
503.881	181.28
504.089	225.46
504.296	182.06
504.503	148.15
504.71	154.16
504.917	137.88
505.125	139.82
505.332	165.01
505.539	165.4
505.746	208.79
505.953	165.2
506.16	170.82
506.367	205.11
506.574	190.97
506.781	184.96
506.988	158.42
507.195	183.8
507.402	146.8
507.609	214.99
507.816	157.45
508.023	147.76
508.23	180.7
508.437	106.5
508.644	191.75
508.851	228.94
509.058	204.92
509.265	160.16
509.472	174.11
509.679	255.68
509.885	138.46
510.092	164.81
510.299	179.93
510.506	182.06
510.713	199.3
510.92	179.73
511.126	202.21
511.333	219.64
511.54	223.13
511.746	228.56
511.953	218.48
512.16	220.61
512.367	159.39
512.573	201.82
512.78	191.75
512.987	200.27
513.193	198.33
513.4	120.83
513.606	192.71
513.813	203.37
514.02	233.21
514.226	281.84
514.433	228.75
514.639	180.31
514.846	194.85
515.052	187.87
515.259	198.53
515.465	184
515.672	190.78
515.878	284.36
516.085	191.94
516.291	232.24
516.497	189.23
516.704	154.55
516.91	178.96
517.117	156.68
517.323	147.96
517.529	203.37
517.736	185.74
517.942	225.26
518.148	185.16
518.354	195.43
518.561	192.71
518.767	223.33
518.973	245.22
519.179	233.21
519.386	190.97
519.592	184
519.798	186.51
520.004	224.1
520.21	182.06
520.417	200.66
520.623	229.33
520.829	232.24
521.035	225.84
521.241	240.57
521.447	253.36
521.653	298.11
521.859	225.26
522.065	229.91
522.271	314.77
522.477	224.68
522.683	296.95
522.889	293.46
523.095	243.86
523.301	259.17
523.507	220.81
523.713	251.03
523.919	214.61
524.125	281.06
524.331	214.22
524.537	294.04
524.742	227.98
524.948	273.89
525.154	261.88
525.36	369.22
525.566	296.95
525.772	305.47
525.977	231.66
526.183	311.09
526.389	292.11
526.595	245.22
526.8	285.33
527.006	254.52
527.212	229.91
527.417	213.64
527.623	238.24
527.829	276.22
528.034	257.23
528.24	306.83
528.446	234.95
528.651	326.59
528.857	277.58
529.062	324.07
529.268	273.31
529.473	252.78
529.679	250.06
529.884	332.79
530.09	291.33
530.295	327.37
530.501	302.37
530.706	286.29
530.912	215.77
531.117	269.44
531.323	276.99
531.528	281.06
531.733	274.67
531.939	275.25
532.144	289.59
532.35	287.07
532.555	344.42
532.76	342.29
532.966	345.58
533.171	342.29
533.376	283.19
533.581	270.21
533.787	280.09
533.992	320.59
534.197	345.39
534.402	289.39
534.607	285.13
534.813	398.67
535.018	275.83
535.223	267.89
535.428	324.85
535.633	319.04
535.838	295.4
536.043	294.04
536.249	372.32
536.454	284.74
536.659	342.29
536.864	256.65
537.069	281.26
537.274	299.66
537.479	322.52
537.684	332.41
537.889	270.79
538.094	397.5
538.299	328.92
538.504	314.58
538.708	326.79
538.913	330.27
539.118	280.87
539.323	345.19
539.528	306.25
539.733	304.12
539.938	351.39
540.142	363.41
540.347	310.9
540.552	343.26
540.757	341.32
540.962	323.88
541.166	282.81
541.371	286.68
541.576	326.79
541.781	237.66
541.985	312.45
542.19	339.57
542.395	332.41
542.599	387.82
542.804	355.46
543.008	379.1
543.213	302.96
543.418	277.38
543.622	344.61
543.827	291.72
544.031	403.12
544.236	396.54
544.44	310.12
544.645	391.69
544.849	316.13
545.054	346.55
545.258	403.51
545.463	385.88
545.667	327.17
545.872	356.24
546.076	356.04
546.281	349.46
546.485	329.69
546.689	362.44
546.894	382.39
547.098	369.99
547.302	308.19
547.507	338.61
547.711	374.84
547.915	406.03
548.119	319.42
548.324	336.09
548.528	393.24
548.732	351.59
548.936	392.47
549.141	401.38
549.345	337.44
549.549	345.77
549.753	328.92
549.957	439.94
550.161	412.04
550.366	341.9
550.57	322.91
550.774	340.93
550.978	324.66
551.182	374.64
551.386	365.54
551.59	326.01
551.794	327.56
551.998	375.22
552.202	334.73
552.406	328.14
552.61	354.88
552.814	339.96
553.018	393.05
553.222	356.24
553.426	320.01
553.63	434.9
553.833	306.83
554.037	326.21
554.241	367.86
554.445	326.21
554.649	340.35
554.853	337.06
555.056	352.36
555.26	383.17
555.464	375.81
555.668	375.03
555.871	407.19
556.075	388.98
556.279	324.66
556.483	315.55
556.686	363.41
556.89	359.53
557.094	373.48
557.297	308.38
557.501	411.07
557.704	319.62
557.908	393.24
558.112	341.51
558.315	414.94
558.519	352.75
558.722	380.65
558.926	365.92
559.129	308.77
559.333	315.74
559.536	316.91
559.74	329.69
559.943	336.09
560.147	301.79
560.35	357.01
560.553	334.92
560.757	254.33
560.96	390.92
561.164	325.24
561.367	395.37
561.57	300.63
561.774	371.74
561.977	334.92
562.18	355.85
562.384	417.07
562.587	324.27
562.79	313.22
562.993	328.53
563.197	358.95
563.4	397.12
563.603	401.77
563.806	427.73
564.009	298.31
564.212	359.72
564.416	296.37
564.619	369.41
564.822	319.62
565.025	364.37
565.228	348.68
565.431	325.82
565.634	260.91
565.837	327.17
566.04	301.6
566.243	351.97
566.446	263.24
566.649	350.23
566.852	304.31
567.055	328.53
567.258	343.84
567.461	399.83
567.664	404.09
567.867	261.88
568.07	363.21
568.273	328.53
568.475	382.2
568.678	307.22
568.881	326.79
569.084	349.84
569.287	257.62
569.489	313.03
569.692	363.79
569.895	363.99
570.098	277.58
570.3	275.83
570.503	249.87
570.706	263.63
570.909	284.55
571.111	278.54
571.314	287.65
571.516	297.92
571.719	306.06
571.922	268.47
572.124	268.66
572.327	311.09
572.529	235.53
572.732	231.08
572.935	278.54
573.137	331.24
573.34	273.12
573.542	305.67
573.745	310.9
573.947	312.26
574.15	286.88
574.352	244.44
574.554	337.44
574.757	235.73
574.959	264.59
575.162	262.85
575.364	266.14
575.566	400.8
575.769	226.81
575.971	295.21
576.173	205.5
576.376	295.98
576.578	312.26
576.78	346.16
576.982	186.13
577.185	267.89
577.387	239.99
577.589	202.79
577.791	302.18
577.993	307.8
578.196	270.41
578.398	326.79
578.6	337.44
578.802	264.98
579.004	243.09
579.206	256.65
579.408	287.26
579.61	253.74
579.812	302.18
580.014	258.78
580.216	258.2
580.418	270.6
580.62	271.38
580.822	207.63
581.024	263.24
581.226	284.16
581.428	246.38
581.63	320.78
581.832	235.34
582.034	314
582.236	244.44
582.438	274.86
582.64	314.19
582.841	319.62
583.043	348.29
583.245	295.4
583.447	298.11
583.649	251.81
583.85	300.63
584.052	308.38
584.254	263.43
584.456	290.94
584.657	220.81
584.859	261.88
585.061	251.42
585.262	249.09
585.464	222.94
585.666	286.88
585.867	250.45
586.069	340.16
586.27	295.4
586.472	284.36
586.674	256.26
586.875	258.2
587.077	261.88
587.278	274.86
587.48	247.54
587.681	368.83
587.883	286.68
588.084	229.53
588.285	260.33
588.487	253.74
588.688	270.21
588.89	231.85
589.091	225.26
589.292	260.53
589.494	252
589.695	266.34
589.896	182.45
590.098	193.3
590.299	245.99
590.5	216.93
590.702	203.18
590.903	241.73
591.104	272.34
591.305	246.19
591.507	288.43
591.708	281.84
591.909	240.96
592.11	322.91
592.311	279.32
592.512	243.67
592.714	203.95
592.915	195.43
593.116	235.34
593.317	229.33
593.518	226.62
593.719	230.69
593.92	277.58
594.121	312.45
594.322	272.73
594.523	262.66
594.724	204.92
594.925	249.68
595.126	261.11
595.327	281.45
595.528	239.99
595.729	242.7
595.929	251.03
596.13	273.12
596.331	236.69
596.532	236.5
596.733	282.81
596.934	293.07
597.135	264.79
597.335	280.09
597.536	213.44
597.737	238.24
597.938	219.64
598.138	272.54
598.339	264.21
598.54	274.67
598.74	236.31
598.941	266.53
599.142	299.08
599.342	265.76
599.543	196.98
599.744	247.54
599.944	223.33
600.145	224.68
600.345	234.37
600.546	324.27
600.746	312.26
600.947	305.67
601.147	304.31
601.348	280.09
601.548	209.76
601.749	248.9
601.949	218.87
602.15	227.39
602.35	271.76
602.551	292.49
602.751	237.66
602.951	236.5
603.152	170.82
603.352	292.3
603.552	235.73
603.753	260.14
603.953	255.29
604.153	247.35
604.354	230.11
604.554	235.92
604.754	238.44
604.954	198.72
605.155	250.45
605.355	220.23
605.555	291.33
605.755	309.35
605.955	244.83
606.155	285.33
606.356	250.84
606.556	260.72
606.756	298.11
606.956	185.74
607.156	271.96
607.356	212.48
607.556	283
607.756	246.19
607.956	267.89
608.156	270.41
608.356	208.02
608.556	292.69
608.756	268.47
608.956	205.11
609.156	256.65
609.356	240.76
609.556	193.68
609.755	227.2
609.955	232.24
610.155	239.6
610.355	236.31
610.555	238.63
610.755	252.78
610.954	193.88
611.154	245.8
611.354	291.14
611.554	240.38
611.753	197.75
611.953	190
612.153	256.84
612.352	231.85
612.552	218.09
612.752	174.7
612.951	232.63
613.151	277.96
613.351	189.42
613.55	246.58
613.75	263.82
613.949	261.49
614.149	259.75
614.348	249.29
614.548	228.56
614.747	180.51
614.947	234.37
615.146	146.21
615.346	266.92
615.545	251.42
615.745	244.25
615.944	248.9
616.144	247.35
616.343	270.6
616.542	213.06
616.742	235.34
616.941	217.71
617.14	196.98
617.34	258.2
617.539	253.74
617.738	217.51
617.938	264.79
618.137	221.19
618.336	193.88
618.535	224.88
618.734	198.33
618.934	247.74
619.133	225.84
619.332	239.41
619.531	177.8
619.73	220.61
619.929	269.05
620.128	229.91
620.328	281.26
620.527	198.72
620.726	192.33
620.925	218.48
621.124	165.59
621.323	239.79
621.522	180.51
621.721	180.31
621.92	175.28
622.119	248.9
622.318	209.38
622.517	181.09
622.715	206.66
622.914	160.94
623.113	229.53
623.312	174.89
623.511	219.26
623.71	205.11
623.909	175.47
624.107	252.97
624.306	164.62
624.505	156.1
624.704	211.51
624.902	201.82
625.101	241.54
625.3	232.63
625.499	198.72
625.697	200.27
625.896	216.74
626.095	238.05
626.293	180.12
626.492	175.08
626.69	225.65
626.889	177.21
627.088	248.13
627.286	168.69
627.485	176.05
627.683	198.91
627.882	206.86
628.08	156.68
628.279	189.42
628.477	271.38
628.676	170.82
628.874	225.26
629.073	176.83
629.271	161.33
629.469	220.42
629.668	181.28
629.866	176.44
630.065	207.63
630.263	237.66
630.461	163.46
630.66	193.88
630.858	227.39
631.056	225.65
631.254	240.18
631.453	172.76
631.651	214.41
631.849	193.1
632.047	210.93
632.245	187.48
632.444	191.16
632.642	204.92
632.84	215.77
633.038	209.18
633.236	164.62
633.434	163.65
633.632	150.67
633.83	187.87
634.028	211.12
634.227	194.26
634.425	243.48
634.623	178.18
634.821	215.38
635.019	191.36
635.216	192.13
635.414	209.96
635.612	181.28
635.81	192.33
636.008	252.39
636.206	182.45
636.404	211.51
636.602	164.23
636.8	176.83
636.997	227.78
637.195	234.18
637.393	192.52
637.591	254.33
637.789	200.66
637.986	185.74
638.184	193.88
638.382	220.42
638.58	230.88
638.777	253.74
638.975	212.09
639.173	190.58
639.37	200.27
639.568	204.73
639.765	206.66
639.963	176.83
640.161	254.91
640.358	220.42
640.556	202.4
640.753	157.65
640.951	140.21
641.148	237.47
641.346	191.55
641.543	195.23
641.741	216.93
641.938	178.96
642.136	209.57
642.333	160.75
642.531	236.5
642.728	253.16
642.925	198.33
643.123	171.21
643.32	227.39
643.517	180.7
643.715	200.08
643.912	185.35
644.109	177.8
644.306	177.41
644.504	166.56
644.701	173.92
644.898	224.1
645.095	177.21
645.293	204.34
645.49	214.61
645.687	197.17
645.884	245.8
646.081	173.73
646.278	170.43
646.475	180.31
646.672	179.93
646.87	210.34
647.067	211.12
647.264	179.54
647.461	161.13
647.658	146.41
647.855	205.31
648.052	190.58
648.249	86.35
648.446	187.48
648.642	158.03
648.839	159.58
649.036	157.06
649.233	129.75
649.43	146.02
649.627	161.91
649.824	190.97
650.021	160.36
650.217	136.91
650.414	167.33
650.611	183.03
650.808	159.78
651.004	168.3
651.201	220.61
651.398	232.43
651.595	177.99
651.791	142.73
651.988	202.01
652.185	166.17
652.381	177.6
652.578	130.33
652.775	167.53
652.971	154.35
653.168	179.15
653.364	175.86
653.561	104.37
653.757	143.89
653.954	155.32
654.15	162.88
654.347	222.16
654.543	167.72
654.74	121.41
654.936	111.92
655.133	176.05
655.329	171.21
655.525	164.81
655.722	190.97
655.918	153.19
656.115	194.26
656.311	148.35
656.507	127.03
656.704	118.31
656.9	132.65
657.096	117.35
657.292	127.23
657.489	173.34
657.685	144.08
657.881	128
658.077	145.44
658.273	114.83
658.47	217.9
658.666	137.3
658.862	179.54
659.058	137.3
659.254	187.1
659.45	123.93
659.646	162.68
659.842	151.45
660.038	178.18
660.234	109.6
660.43	157.45
660.626	212.86
660.822	203.37
661.018	197.75
661.214	171.6
661.41	114.44
661.606	193.49
661.802	183.41
661.998	152.03
662.194	103.59
662.39	150.86
662.586	175.86
662.781	196.59
662.977	197.36
663.173	182.25
663.369	183.41
663.564	163.07
663.76	180.9
663.956	171.98
664.152	211.31
664.347	109.79
664.543	171.4
664.739	157.26
664.934	94.87
665.13	121.03
665.326	179.54
665.521	157.26
665.717	120.83
665.912	75.69
666.108	94.48
666.304	135.75
666.499	137.69
666.695	86.54
666.89	120.83
667.086	183.41
667.281	173.34
667.477	212.67
667.672	164.43
667.867	154.93
668.063	156.87
668.258	115.02
668.454	153.77
668.649	211.89
668.844	157.26
669.04	159.2
669.235	152.61
669.43	111.34
669.626	121.22
669.821	117.93
670.016	120.06
670.211	143.5
670.407	119.09
670.602	148.73
670.797	121.03
670.992	183.61
671.187	158.81
671.382	170.24
671.578	126.45
671.773	181.48
671.968	113.67
672.163	139.43
672.358	158.23
672.553	120.06
672.748	150.86
672.943	208.99
673.138	158.61
673.333	160.16
673.528	117.93
673.723	144.47
673.918	155.51
674.113	96.42
674.308	239.41
674.503	162.68
674.698	160.55
674.892	154.74
675.087	161.33
675.282	178.18
675.477	167.91
675.672	153.96
675.867	163.46
676.061	82.47
676.256	95.84
676.451	115.41
676.646	158.61
676.84	116.96
677.035	106.88
677.23	107.85
677.424	129.36
677.619	157.06
677.814	149.31
678.008	163.85
678.203	86.93
678.397	104.56
678.592	127.23
678.787	191.75
678.981	146.8
679.176	177.41
679.37	170.43
679.565	110.76
679.759	101.27
679.954	165.98
680.148	199.3
680.342	223.52
680.537	181.86
680.731	132.26
680.926	146.41
681.12	166.17
681.314	119.48
681.509	134.2
681.703	149.31
681.897	163.07
682.092	93.52
682.286	135.75
682.48	205.11
682.674	168.11
682.869	130.52
683.063	118.9
683.257	204.73
683.451	123.55
683.645	153.19
683.839	143.11
684.034	128.58
684.228	184.38
684.422	96.03
684.616	135.95
684.81	148.93
685.004	129.16
685.198	134.59
685.392	188.26
685.586	126.45
685.78	159.97
685.974	134.4
686.168	156.1
686.362	206.66
686.556	128
686.75	96.81
686.944	149.51
687.138	189.42
687.331	69.3
687.525	133.62
687.719	79.18
687.913	125.1
688.107	119.48
688.301	105.92
688.494	161.13
688.688	113.08
688.882	79.18
689.076	84.8
689.269	115.8
689.463	192.52
689.657	143.31
689.85	114.05
690.044	141.37
690.238	109.79
690.431	108.82
690.625	82.86
690.818	139.05
691.012	149.31
691.205	132.07
691.399	90.22
691.593	120.64
691.786	172.56
691.98	156.1
692.173	167.14
692.366	142.92
692.56	157.84
692.753	209.38
692.947	84.41
693.14	175.66
693.333	174.11
693.527	89.25
693.72	145.25
693.914	151.64
694.107	154.55
694.3	146.6
694.493	136.33
694.687	180.12
694.88	135.36
695.073	215.77
695.266	181.67
695.46	107.85
695.653	214.41
695.846	192.33
696.039	120.06
696.232	140.79
696.425	183.8
696.618	156.1
696.812	148.35
697.005	214.03
697.198	266.34
697.391	202.01
697.584	186.51
697.777	257.23
697.97	227.01
698.163	221.39
698.356	207.63
698.549	264.21
698.742	231.27
698.935	216.74
699.127	232.24
699.32	183.8
699.513	190
699.706	253.55
699.899	207.63
700.092	194.85
700.285	237.47
700.477	170.24
700.67	207.44
700.863	219.84
701.056	318.07
701.248	274.09
701.441	268.08
701.634	233.59
701.826	335.7
702.019	204.53
702.212	283.58
702.404	215.58
702.597	236.5
702.79	270.6
702.982	295.59
703.175	291.72
703.367	292.11
703.56	282.03
703.752	348.49
703.945	303.54
704.137	300.24
704.33	311.87
704.522	301.79
704.715	304.89
704.907	335.12
705.1	343.64
705.292	309.16
705.484	299.27
705.677	358.76
705.869	334.15
706.061	345.77
706.254	400.02
706.446	344.22
706.638	333.37
706.831	394.79
707.023	338.61
707.215	423.47
707.407	398.28
707.599	405.64
707.792	411.65
707.984	386.65
708.176	431.6
708.368	381.81
708.56	394.4
708.752	378.13
708.944	376
709.136	420.95
709.329	385.69
709.521	500
709.713	441.68
709.905	434.9
710.097	451.37
710.289	435.67
710.481	437.8
710.672	443.81
710.864	436.45
711.056	512.59
711.248	472.29
711.44	478.49
711.632	447.69
711.824	470.55
712.016	537
712.207	498.06
712.399	526.73
712.591	557.73
712.783	534.87
712.975	574.78
713.166	512.4
713.358	488.57
713.55	592.03
713.741	555.41
713.933	574.2
714.125	558.12
714.316	529.25
714.508	630
714.7	603.26
714.891	600.16
715.083	657.32
715.274	615.08
715.466	586.21
715.657	633.1
715.849	550.57
716.04	602.49
716.232	537.58
716.423	647.24
716.615	586.8
716.806	580.79
716.998	570.91
717.189	569.36
717.381	512.4
717.572	508.72
717.763	542.82
717.955	540.3
718.146	560.45
718.337	490.89
718.528	507.94
718.72	458.92
718.911	538.94
719.102	490.7
719.293	514.53
719.485	505.62
719.676	520.15
719.867	481.98
720.058	493.6
720.249	515.5
720.44	518.79
720.632	563.74
720.823	534.29
721.014	617.99
721.205	571.68
721.396	624.77
721.587	673.79
721.778	660.23
721.969	657.13
722.16	694.91
722.351	644.73
722.542	776.28
722.733	800.89
722.924	683.28
723.115	733.66
723.305	776.09
723.496	774.54
723.687	723.97
723.878	709.63
724.069	735.98
724.26	725.52
724.45	672.04
724.641	669.33
724.832	732.11
725.023	705.56
725.213	677.47
725.404	718.74
725.595	702.85
725.785	702.66
725.976	751.67
726.167	721.06
726.357	724.16
726.548	802.63
726.739	753.61
726.929	769.89
727.12	802.05
727.31	813.48
727.501	763.49
727.691	836.54
727.882	827.04
728.072	843.9
728.263	835.76
728.453	840.22
728.644	841.77
728.834	832.47
729.024	828.98
729.215	840.02
729.405	862.69
729.596	917.52
729.786	887.49
729.976	876.25
730.167	931.67
730.357	885.94
730.547	855.91
730.737	909
730.928	922.75
731.118	954.53
731.308	898.15
731.498	906.28
731.688	989.6
731.879	960.34
732.069	1017.3
732.259	992.7
732.449	978.94
732.639	1075.04
732.829	1057.41
733.019	1067.1
733.209	1094.8
733.399	1100.03
733.589	1141.3
733.779	1102.36
733.969	1119.41
734.159	1138.2
734.349	1163.19
734.539	1195.16
734.729	1186.83
734.919	1269.75
735.109	1255.22
735.299	1225.58
735.488	1262.2
735.678	1244.18
735.868	1241.08
736.058	1273.63
736.248	1215.12
736.437	1215.31
736.627	1195.16
736.817	1323.42
737.007	1264.91
737.196	1284.09
737.386	1239.72
737.576	1224.22
737.765	1287.97
737.955	1265.88
738.144	1376.51
738.334	1346.28
738.524	1267.24
738.713	1299.98
738.903	1325.94
739.092	1347.83
739.282	1366.43
739.471	1367.98
739.661	1351.52
739.85	1397.63
740.04	1368.37
740.229	1401.5
740.419	1410.61
740.608	1404.6
740.797	1408.48
740.987	1451.49
741.176	1442.38
741.365	1391.43
741.555	1384.26
741.744	1467.18
741.933	1432.7
742.123	1453.04
742.312	1457.88
742.501	1482.49
742.69	1494.5
742.88	1386
743.069	1517.36
743.258	1445.48
743.447	1462.73
743.636	1479.78
743.825	1464.28
744.014	1452.26
744.204	1480.75
744.393	1466.02
744.582	1511.94
744.771	1556.11
744.96	1467.96
745.149	1482.88
745.338	1476.29
745.527	1502.45
745.716	1516.98
745.905	1512.13
746.094	1509.23
746.283	1557.66
746.471	1527.24
746.66	1597.19
746.849	1544.29
747.038	1602.61
747.227	1523.76
747.416	1604.94
747.604	1532.28
747.793	1543.13
747.982	1556.5
748.171	1520.27
748.359	1584.79
748.548	1577.04
748.737	1570.64
748.926	1542.94
749.114	1491.98
749.303	1535.77
749.491	1542.36
749.68	1498.96
749.869	1566.77
750.057	1562.7
750.246	1534.8
750.434	1545.84
750.623	1561.34
750.811	1512.91
751	1598.35
751.188	1584.01
751.377	1567.35
751.565	1512.33
751.754	1517.75
751.942	1518.33
752.131	1595.44
752.319	1510.2
752.507	1501.86
752.696	1569.09
752.884	1590.02
753.072	1553.59
753.261	1530.93
753.449	1540.42
753.637	1543.33
753.825	1642.33
754.014	1541.19
754.202	1544.1
754.39	1590.21
754.578	1587.31
754.766	1516.2
754.955	1485.2
755.143	1659.57
755.331	1528.99
755.519	1558.83
755.707	1535.77
755.895	1504.38
756.083	1546.81
756.271	1549.14
756.459	1537.13
756.647	1572
756.835	1523.37
757.023	1547.78
757.211	1546.43
757.399	1530.93
757.587	1529.57
757.775	1483.65
757.963	1518.53
758.151	1540.03
758.339	1469.9
758.526	1506.9
758.714	1517.17
758.902	1490.05
759.09	1423.78
759.278	1329.82
759.465	1206.4
759.653	1049.08
759.841	1014.78
760.028	810.57
760.216	710.02
760.404	725.71
760.591	564.9
760.779	463.57
760.967	450.98
761.154	334.34
761.342	371.74
761.529	361.47
761.717	415.91
761.905	364.37
762.092	406.22
762.28	349.26
762.467	384.72
762.655	348.87
762.842	380.65
763.029	369.8
763.217	376.97
763.404	375.81
763.592	431.41
763.779	331.44
763.966	381.42
764.154	405.64
764.341	451.17
764.528	419.4
764.716	470.16
764.903	478.3
765.09	524.8
765.277	509.68
765.465	656.16
765.652	639.88
765.839	702.85
766.026	771.24
766.213	760.97
766.4	820.07
766.588	970.61
766.775	855.72
766.962	957.24
767.149	971.77
767.336	1078.33
767.523	985.72
767.71	1081.63
767.897	1144.59
768.084	1162.03
768.271	1170.94
768.458	1248.64
768.645	1295.91
768.832	1213.96
769.019	1223.06
769.206	1280.41
769.392	1310.25
769.579	1404.41
769.766	1316.84
769.953	1358.88
770.14	1361.01
770.327	1330.2
770.513	1431.34
770.7	1461.95
770.887	1335.24
771.073	1423.4
771.26	1395.11
771.447	1366.63
771.634	1353.45
771.82	1445.29
772.007	1356.36
772.193	1388.52
772.38	1432.89
772.567	1383.29
772.753	1382.13
772.94	1410.22
773.126	1437.35
773.313	1417.58
773.499	1412.74
773.686	1424.17
773.872	1404.02
774.059	1375.54
774.245	1346.28
774.432	1382.9
774.618	1310.25
774.804	1403.44
774.991	1328.07
775.177	1419.33
775.363	1334.85
775.55	1390.07
775.736	1380.97
775.922	1330.2
776.109	1375.54
776.295	1381.35
776.481	1382.71
776.667	1417
776.853	1344.93
777.04	1333.69
777.226	1332.53
777.412	1418.94
777.598	1297.65
777.784	1325.75
777.97	1328.85
778.156	1379.61
778.342	1359.85
778.528	1351.13
778.715	1305.4
778.901	1307.73
779.087	1361.2
779.272	1339.12
779.458	1290.1
779.644	1340.47
779.83	1335.44
780.016	1389.68
780.202	1335.63
780.388	1279.25
780.574	1274.79
780.76	1294.36
780.946	1355.97
781.131	1282.54
781.317	1335.82
781.503	1268.4
781.689	1267.24
781.874	1370.89
782.06	1307.73
782.246	1306.18
782.432	1290.49
782.617	1315.87
782.803	1369.73
782.989	1225.97
783.174	1292.81
783.36	1221.9
783.545	1290.29
783.731	1284.87
783.916	1222.87
784.102	1281.96
784.288	1237.59
784.473	1270.72
784.659	1217.83
784.844	1288.74
785.029	1235.07
785.215	1273.82
785.4	1212.99
785.586	1248.64
785.771	1219.77
785.956	1266.65
786.142	1265.1
786.327	1214.34
786.512	1248.44
786.698	1224.22
786.883	1168.81
787.068	1226.74
787.254	1213.57
787.439	1158.16
787.624	1216.86
787.809	1198.46
787.994	1232.94
788.18	1233.72
788.365	1157.58
788.55	1170.56
788.735	1160.48
788.92	1195.16
789.105	1194.77
789.29	1184.51
789.475	1156.22
789.66	1154.86
789.845	1144.21
790.03	1159.71
790.215	1193.42
790.4	1203.69
790.585	1246.31
790.77	1151.96
790.955	1086.86
791.14	1154.86
791.325	1218.99
791.51	1092.67
791.695	1132.19
791.879	1090.54
792.064	1066.51
792.249	1177.92
792.434	1143.82
792.618	1139.36
792.803	1145.18
792.988	1116.5
793.173	1110.11
793.357	1167.26
793.542	1091.89
793.727	1132
793.911	1170.36
794.096	1126.19
794.281	1188.38
794.465	1229.46
794.65	1149.24
794.834	1164.16
795.019	1161.26
795.203	1181.6
795.388	1167.26
795.572	1211.05
795.757	1154.67
795.941	1197.68
796.126	1180.63
796.31	1111.46
796.494	1158.54
796.679	1123.48
796.863	1138.78
797.048	1196.52
797.232	1154.67
797.416	1171.91
797.601	1121.73
797.785	1215.12
797.969	1180.05
798.153	1157.77
798.338	1162.42
798.522	1194.97
798.706	1212.02
798.89	1169.78
799.074	1241.66
799.258	1198.46
799.443	1134.33
799.627	1158.16
799.811	1225.19
799.995	1205.43
800.179	1127.54
800.363	1152.34
800.547	1144.79
800.731	1187.99
800.915	1112.04
801.099	1153.31
801.283	1132.19
801.467	1151.18
801.651	1126.58
801.835	1229.26
802.019	1170.36
802.202	1144.79
802.386	1121.93
802.57	1144.59
802.754	1108.36
802.938	1093.25
803.121	1145.76
803.305	1206.79
803.489	1139.56
803.673	1159.32
803.856	1167.26
804.04	1143.43
804.224	1186.64
804.407	1153.7
804.591	1132.97
804.775	1183.54
804.958	1199.81
805.142	1238.56
805.326	1159.9
805.509	1178.89
805.693	1197.1
805.876	1198.84
806.06	1172.88
806.243	1180.82
806.427	1219.19
806.61	1184.51
806.794	1178.11
806.977	1202.14
807.16	1187.8
807.344	1152.15
807.527	1167.84
807.71	1157.58
807.894	1188.96
808.077	1203.3
808.26	1114.76
808.444	1152.15
808.627	1200.59
808.81	1148.66
808.993	1094.8
809.177	1116.31
809.36	1159.51
809.543	1171.52
809.726	1079.3
809.909	1100.03
810.092	1134.13
810.276	1096.74
810.459	1102.74
810.642	1096.35
810.825	1040.16
811.008	1087.83
811.191	1018.66
811.374	1026.21
811.557	1069.03
811.74	1146.73
811.923	1002.96
812.106	1015.95
812.289	983.4
812.472	1005.29
812.654	1066.13
812.837	995.41
813.02	964.6
813.203	993.47
813.386	904.54
813.569	918.49
813.751	894.66
813.934	910.55
814.117	953.17
814.3	870.05
814.482	865.79
814.665	869.47
814.848	859.2
815.03	793.91
815.213	816
815.396	811.54
815.578	801.66
815.761	777.64
815.943	850.29
816.126	762.72
816.309	755.16
816.491	751.87
816.674	669.91
816.856	750.32
817.039	693.74
817.221	779.57
817.403	683.09
817.586	739.47
817.768	753.42
817.951	686.58
818.133	677.66
818.315	736.95
818.498	728.81
818.68	813.48
818.862	740.24
819.045	759.81
819.227	756.52
819.409	742.18
819.591	774.34
819.774	746.44
819.956	680.96
820.138	774.92
820.32	743.73
820.502	753.81
820.684	795.07
820.866	813.29
821.048	859.2
821.231	843.7
821.413	815.61
821.595	831.69
821.777	824.14
821.959	805.34
822.141	860.17
822.323	757.87
822.505	772.79
822.686	781.51
822.868	735.4
823.05	661.97
823.232	676.69
823.414	622.06
823.596	662.16
823.778	653.83
823.96	641.04
824.141	645.5
824.323	677.08
824.505	678.63
824.687	724.36
824.868	735.4
825.05	801.08
825.232	844.29
825.413	883.62
825.595	798.76
825.777	756.71
825.958	813.67
826.14	803.21
826.321	810.77
826.503	810.38
826.685	778.61
826.866	844.09
827.048	819.29
827.229	797.79
827.411	777.25
827.592	752.06
827.773	758.84
827.955	738.31
828.136	730.56
828.318	699.56
828.499	758.07
828.68	693.94
828.862	752.45
829.043	799.92
829.224	727.26
829.406	700.91
829.587	704.21
829.768	685.99
829.949	744.31
830.131	736.95
830.312	792.36
830.493	717.58
830.674	735.01
830.855	728.62
831.036	724.36
831.218	780.74
831.399	812.9
831.58	717.96
831.761	738.89
831.942	743.54
832.123	727.26
832.304	699.17
832.485	705.76
832.666	731.52
832.847	748.96
833.028	730.17
833.209	753.81
833.389	710.41
833.57	698.01
833.751	729.59
833.932	758.46
834.113	724.94
834.294	722.23
834.475	741.02
834.655	766.21
834.836	775.31
835.017	764.85
835.198	689.09
835.378	729.59
835.559	757.49
835.74	720.09
835.92	713.51
836.101	682.51
836.281	761.36
836.462	740.44
836.643	773.18
836.823	771.05
837.004	763.49
837.184	793.91
837.365	765.62
837.545	802.24
837.726	773.76
837.906	804.96
838.087	785.77
838.267	784.42
838.448	702.27
838.628	779.19
838.808	757.68
838.989	830.34
839.169	716.61
839.349	760.01
839.53	775.89
839.71	782.87
839.89	758.65
840.07	828.79
840.251	748.57
840.431	775.7
840.611	784.03
840.791	727.46
840.971	762.52
841.151	773.76
841.332	743.73
841.512	788.29
841.692	723.19
841.872	767.17
842.052	757.87
842.232	790.42
842.412	677.08
842.592	730.56
842.772	751.87
842.952	750.12
843.132	731.52
843.312	732.11
843.492	735.01
843.672	751.87
843.851	705.18
844.031	747.8
844.211	700.53
844.391	724.36
844.571	748.19
844.751	770.27
844.93	742.57
845.11	717.96
845.29	733.66
845.47	754.77
845.649	741.21
845.829	759.04
846.009	682.7
846.188	718.35
846.368	738.89
846.547	730.36
846.727	790.04
846.907	705.56
847.086	702.85
847.266	742.57
847.445	730.17
847.625	701.69
847.804	706.73
847.984	708.08
848.163	697.81
848.343	683.86
848.522	730.17
848.701	746.83
848.881	699.56
849.06	716.61
849.239	716.41
849.419	717.96
849.598	682.51
849.777	693.55
849.957	696.46
850.136	645.31
850.315	648.02
850.494	624
850.674	640.66
850.853	709.63
851.032	663.52
851.211	738.11
851.39	690.84
851.569	636.78
851.748	639.3
851.927	677.86
852.107	672.04
852.286	618.18
852.465	637.56
852.644	687.74
852.823	702.46
853.002	672.04
853.181	662.16
853.359	674.56
853.538	632.52
853.717	711.18
853.896	605.59
854.075	586.8
854.254	609.08
854.433	573.23
854.611	618.18
854.79	561.61
854.969	595.71
855.148	606.36
855.327	542.82
855.505	610.05
855.684	580.98
855.863	583.5
856.041	556.96
856.22	611.01
856.399	583.7
856.577	649.76
856.756	616.05
856.934	749.54
857.113	716.61
857.291	624.38
857.47	617.02
857.648	616.44
857.827	657.32
858.005	636.78
858.184	606.36
858.362	708.66
858.541	633.3
858.719	660.23
858.898	625.93
859.076	596.29
859.254	702.46
859.433	624.38
859.611	621.09
859.789	567.03
859.967	675.14
860.146	673.4
860.324	589.7
860.502	620.7
860.68	565.87
860.859	568.58
861.037	596.68
861.215	635.43
861.393	628.65
861.571	626.13
861.749	575.17
861.927	621.67
862.105	608.11
862.283	625.35
862.461	559.28
862.639	558.51
862.817	575.75
862.995	587.76
863.173	594.16
863.351	575.56
863.529	589.9
863.707	625.74
863.885	620.12
864.063	542.23
864.241	561.8
864.418	633.1
864.596	551.34
864.774	548.63
864.952	593.77
865.129	616.83
865.307	576.33
865.485	521.31
865.663	630.78
865.84	536.81
866.018	569.16
866.196	450.2
866.373	509.3
866.551	502.32
866.728	466.67
866.906	479.65
867.084	509.68
867.261	535.07
867.439	538.55
867.616	562.96
867.794	524.02
867.971	549.6
868.149	549.6
868.326	591.64
868.503	569.55
868.681	550.37
868.858	536.62
869.035	515.88
869.213	606.75
869.39	520.92
869.567	604.62
869.745	536.03
869.922	555.21
870.099	562.38
870.276	605.78
870.454	574.59
870.631	590.09
870.808	552.5
870.985	591.06
871.162	596.29
871.339	552.7
871.517	504.84
871.694	530.42
871.871	551.34
872.048	537.39
872.225	516.47
872.402	551.73
872.579	482.56
872.756	563.55
872.933	465.7
873.11	527.32
873.287	558.7
873.463	544.95
873.64	500.58
873.817	572.65
873.994	505.81
874.171	501.55
874.348	534.87
874.524	483.53
874.701	556.38
874.878	438.97
875.055	525.18
875.231	517.63
875.408	542.43
875.585	469
875.762	510.65
875.938	482.95
876.115	494.57
876.291	506.2
876.468	476.17
876.645	469.97
876.821	480.23
876.998	485.08
877.174	505.62
877.351	493.99
877.527	455.05
877.704	529.06
877.88	503.48
878.057	462.22
878.233	505.23
878.409	503.68
878.586	502.52
878.762	478.1
878.938	477.72
879.115	404.29
879.291	465.51
879.467	432.19
879.644	437.61
879.82	506.78
879.996	443.42
880.172	430.05
880.349	442.45
880.525	515.69
880.701	428.31
880.877	438.39
881.053	474.42
881.229	473.07
881.405	482.75
881.581	436.64
881.757	462.99
881.933	481.2
882.109	505.23
882.285	492.05
882.461	403.9
882.637	448.46
882.813	420.56
882.989	434.32
883.165	513.37
883.341	430.05
883.517	506.2
883.693	475
883.869	480.23
884.044	415.72
884.22	465.9
884.396	512.2
884.572	474.23
884.747	485.08
884.923	452.14
885.099	497.09
885.275	517.24
885.45	432.38
885.626	412.42
885.801	445.75
885.977	448.85
886.153	409.71
886.328	475.39
886.504	433.93
886.679	457.57
886.855	418.04
887.03	494.77
887.206	490.5
887.381	455.63
887.557	482.17
887.732	454.47
887.908	487.4
888.083	465.7
888.258	460.67
888.434	447.3
888.609	433.54
888.784	493.41
888.96	441.87
889.135	429.86
889.31	435.67
889.485	453.69
889.661	423.85
889.836	480.43
890.011	471.32
890.186	425.4
890.361	436.25
890.537	473.07
890.712	454.27
890.887	456.21
891.062	450.4
891.237	498.45
891.412	407.97
891.587	431.8
891.762	488.76
891.937	497.87
892.112	415.14
892.287	471.13
892.462	406.22
892.637	389.75
892.812	384.52
892.987	410.29
893.161	398.09
893.336	413.78
893.511	404.09
893.686	424.63
893.861	416.1
894.035	426.76
894.21	430.64
894.385	371.54
894.56	408.35
894.734	360.69
894.909	378.9
895.084	370.19
895.258	361.86
895.433	414.36
895.608	370.96
895.782	312.84
895.957	375.61
896.131	354.49
896.306	309.93
896.48	330.08
896.655	330.47
896.829	263.43
897.004	297.53
897.178	299.86
897.353	317.87
897.527	359.92
897.701	313.22
897.876	263.82
898.05	342.87
898.224	311.29
898.399	340.93
898.573	295.21
898.747	233.01
898.921	326.59
899.096	225.65
899.27	223.52
899.444	241.93
899.618	240.18
899.792	253.94
899.967	225.84
900.141	294.04
900.315	233.21
900.489	253.16
900.663	291.52
900.837	282.61
901.011	221
901.185	324.27
901.359	263.24
901.533	252.58
901.707	275.83
901.881	242.7
902.055	217.13
902.229	252.39
902.403	288.81
902.576	272.93
902.75	267.11
902.924	371.54
903.098	285.13
903.272	309.93
903.446	351.78
903.619	290.56
903.793	331.63
903.967	303.15
904.14	331.63
904.314	341.71
904.488	333.57
904.661	374.64
904.835	324.46
905.009	350.62
905.182	374.84
905.356	338.61
905.529	322.91
905.703	292.3
905.876	336.67
906.05	288.23
906.223	323.69
906.397	242.7
906.57	249.68
906.744	265.76
906.917	250.64
907.09	250.64
907.264	289.2
907.437	249.68
907.61	219.45
907.784	252.58
907.957	248.51
908.13	231.08
908.304	284.74
908.477	237.66
908.65	239.02
908.823	207.83
908.996	291.72
909.17	225.84
909.343	209.96
909.516	271.76
909.689	229.14
909.862	200.27
910.035	246.96
910.208	226.62
910.381	209.18
910.554	311.87
910.727	225.84
910.9	206.47
911.073	204.14
911.246	247.93
911.419	272.34
911.592	258.78
911.765	206.66
911.938	195.81
912.11	230.3
912.283	241.93
912.456	275.06
912.629	230.88
912.802	213.44
912.974	210.54
913.147	199.88
913.32	151.06
913.493	190.2
913.665	228.75
913.838	217.13
914.01	186.32
914.183	194.26
914.356	154.93
914.528	207.83
914.701	252
914.873	246.19
915.046	198.91
915.218	183.41
915.391	116.76
915.563	164.23
915.736	209.18
915.908	225.07
916.081	180.31
916.253	189.81
916.425	190.97
916.598	204.53
916.77	188.65
916.942	171.01
917.115	133.81
917.287	216.54
917.459	178.96
917.632	168.11
917.804	110.57
917.976	193.1
918.148	185.93
918.32	191.75
918.493	188.84
918.665	237.08
918.837	167.53
919.009	247.35
919.181	239.99
919.353	214.22
919.525	199.11
919.697	165.78
919.869	172.37
920.041	255.49
920.213	294.24
920.385	217.71
920.557	177.99
920.729	213.44
920.901	222.36
921.073	202.4
921.244	197.95
921.416	218.87
921.588	183.22
921.76	182.06
921.932	258.98
922.103	202.98
922.275	214.03
922.447	207.44
922.619	141.37
922.79	190.39
922.962	190.97
923.134	251.81
923.305	180.12
923.477	161.91
923.648	167.14
923.82	167.72
923.991	139.05
924.163	147.76
924.335	151.25
924.506	135.56
924.677	219.84
924.849	150.09
925.02	173.34
925.192	211.31
925.363	165.78
925.535	182.25
925.706	151.06
925.877	210.93
926.049	131.68
926.22	159
926.391	201.24
926.562	187.68
926.734	134.4
926.905	214.41
927.076	106.88
927.247	176.05
927.419	99.13
927.59	144.28
927.761	160.94
927.932	127.61
928.103	151.45
928.274	133.43
928.445	110.18
928.616	134.2
928.787	130.91
928.958	176.83
929.129	142.92
929.3	146.6
929.471	101.85
929.642	55.73
929.813	51.86
929.984	120.06
930.155	46.24
930.326	115.41
930.496	48.76
930.667	18.73
930.838	104.95
931.009	57.67
931.18	41.01
931.35	75.11
931.521	73.37
931.692	32.1
931.863	20.47
932.033	43.14
932.204	64.84
932.374	85.57
932.545	3.42
932.716	114.05
932.886	72.4
933.057	11.95
933.227	-1.23
933.398	109.79
933.568	15.44
933.739	-12.27
933.909	7.3
934.08	77.24
934.25	-26.22
934.421	12.53
934.591	22.99
934.761	-17.31
934.932	-38.43
935.102	6.72
935.272	8.85
935.443	19.89
935.613	2.84
935.783	26.48
935.953	-26.41
936.123	136.91
936.294	-40.75
936.464	-2.97
936.634	38.88
936.804	-31.65
936.974	-50.05
937.144	8.46
937.314	23.38
937.484	-10.14
937.655	-40.75
937.825	35.58
937.995	-33.2
938.165	43.72
938.334	-8.4
938.504	12.92
938.674	-15.18
938.844	-20.41
939.014	15.44
939.184	22.8
939.354	57.48
939.524	54.18
939.694	11.56
939.863	-7.62
940.033	58.06
940.203	95.26
940.373	58.64
940.542	51.47
940.712	42.17
940.882	61.93
941.051	55.54
941.221	52.05
941.391	70.65
941.56	6.14
941.73	15.05
941.899	136.53
942.069	32.48
942.238	58.25
942.408	18.73
942.577	67.55
942.747	37.13
942.916	-7.23
943.086	-3.36
943.255	73.75
943.425	34.23
943.594	5.17
943.763	-18.47
943.933	11.37
944.102	-31.65
944.271	20.28
944.441	50.12
944.61	-12.46
944.779	16.21
944.948	116.96
945.117	13.89
945.287	-4.33
945.456	-27.58
945.625	15.24
945.794	49.34
945.963	14.66
946.132	40.04
946.301	11.95
946.47	60
946.639	-57.61
946.808	1.68
946.977	46.43
947.146	55.93
947.315	-13.82
947.484	49.34
947.653	9.43
947.822	0.52
947.991	-2.58
948.16	74.92
948.329	82.08
948.498	23.19
948.666	3.04
948.835	26.87
949.004	-27.38
949.173	-20.8
949.341	24.35
949.51	53.41
949.679	89.25
949.847	40.04
950.016	97.2
950.185	48.18
950.353	-4.52
950.522	13.5
950.69	60.58
950.859	-14.21
951.028	57.09
951.196	27.84
951.365	21.44
951.533	27.25
951.701	55.15
951.87	53.22
952.038	-12.08
952.207	5.36
952.375	96.81
952.543	-3.94
952.712	16.6
952.88	12.72
953.048	92.55
953.217	12.34
953.385	8.65
953.553	53.02
953.721	-23.9
953.89	-13.05
954.058	-11.5
954.226	19.12
954.394	22.99
954.562	-17.7
954.73	22.8
954.898	5.75
955.067	58.25
955.235	24.54
955.403	39.85
955.571	58.25
955.739	48.76
955.907	-9.36
956.075	-5.49
956.243	-32.42
956.41	35.39
956.578	-12.66
956.746	-26.61
956.914	-1.03
957.082	44.11
957.25	27.25
957.418	-34.16
957.585	30.35
957.753	63.87
957.921	-1.81
958.089	29.97
958.256	48.57
958.424	35.58
958.592	42.95
958.759	-17.7
958.927	68.52
959.095	2.45
959.262	18.73
959.43	17.76
959.597	-2.2
959.765	25.12
959.932	-22.93
960.1	53.02
960.267	10.01
960.435	28.03
960.602	65.23
960.77	-7.04
960.937	-39.78
961.104	12.34
961.272	-32.61
961.439	-15.95
961.606	33.65
961.774	55.54
961.941	4.97
962.108	41.01
962.275	25.51
962.443	66.78
962.61	55.15
962.777	89.83
962.944	41.2
963.111	41.59
963.278	13.69
963.446	6.91
963.613	26.87
963.78	41.01
963.947	21.83
964.114	23.19
964.281	106.11
964.448	51.67
964.615	13.69
964.782	28.22
964.949	76.47
965.116	46.05
965.282	78.4
965.449	16.21
965.616	-19.25
965.783	61.74
965.95	44.5
966.117	-4.71
966.283	17.76
966.45	32.29
966.617	44.69
966.784	72.59
966.95	70.85
967.117	63.48
967.284	4
967.45	24.35
967.617	83.63
967.784	36.75
967.95	54.38
968.117	28.42
968.283	59.61
968.45	146.6
968.616	48.18
968.783	68.91
968.949	44.5
969.116	58.06
969.282	31.71
969.449	35
969.615	40.43
969.781	-15.95
969.948	11.95
970.114	-2
970.28	78.21
970.447	29
970.613	82.08
970.779	22.8
970.945	43.92
971.112	33.84
971.278	45.08
971.444	36.36
971.61	77.43
971.776	31.32
971.942	52.05
972.108	59.42
972.275	14.08
972.441	83.83
972.607	112.7
972.773	22.8
972.939	72.59
973.105	34.03
973.271	-3.16
973.437	28.42
973.602	-12.08
973.768	51.86
973.934	29.19
974.1	41.59
974.266	-57.22
974.432	18.34
974.598	23.19
974.763	41.4
974.929	27.06
975.095	95.65
975.261	1.49
975.426	-21.76
975.592	18.92
975.758	93.71
975.923	-23.7
976.089	1.68
976.255	65.03
976.42	29.77
976.586	69.1
976.751	44.3
976.917	118.7
977.082	40.82
977.248	-30.87
977.413	-19.63
977.579	12.53
977.744	38.3
977.91	-1.61
978.075	42.37
978.24	65.81
978.406	13.5
978.571	4.97
978.736	7.88
978.902	47.4
979.067	-4.13
979.232	-27
979.397	25.32
979.563	78.79
979.728	-2.39
979.893	33.84
980.058	26.09
980.223	58.25
980.388	27.06
980.554	39.46
980.719	13.3
980.884	31.9
981.049	57.87
981.214	-4.91
981.379	46.82
981.544	-7.04
981.709	9.82
981.874	32.29
982.039	15.24
982.204	35.58
982.368	32.1
982.533	-3.55
982.698	72.78
982.863	73.75
983.028	37.72
983.193	52.44
983.357	46.05
983.522	38.1
983.687	-3.75
983.852	22.41
984.016	3.04
984.181	36.36
984.346	46.63
984.51	80.92
984.675	29.38
984.839	46.63
985.004	18.15
985.168	42.56
985.333	40.82
985.498	29.38
985.662	63.48
985.827	36.75
985.991	4.97
986.155	22.02
986.32	38.88
986.484	85.57
986.649	42.17
986.813	-22.93
986.977	25.9
987.142	45.08
987.306	-19.63
987.47	31.9
987.634	30.55
987.799	34.03
987.963	37.52
988.127	56.32
988.291	106.3
988.455	52.44
988.62	9.04
988.784	61.74
988.948	84.6
989.112	15.24
989.276	57.09
989.44	49.53
989.604	15.24
989.768	11.37
989.932	97.2
990.096	16.02
990.26	-17.31
990.424	1.87
990.588	17.18
990.752	85.57
990.915	50.7
991.079	11.56
991.243	0.32
991.407	51.86
991.571	32.1
991.734	53.8
991.898	58.45
992.062	105.72
992.226	3.62
992.389	24.15
992.553	-45.98
992.717	-5.3
992.88	22.6
993.044	22.41
993.207	4.78
993.371	36.94
993.535	44.3
993.698	30.35
993.862	45.08
994.025	58.25
994.189	41.98
994.352	39.07
994.515	18.34
994.679	62.32
994.842	8.27
995.006	61.74
995.169	-2.97
995.332	5.94
995.496	58.64
995.659	-23.12
995.822	7.69
995.985	13.89
996.149	54.18
996.312	21.05
996.475	86.93
996.638	6.91
996.801	63.29
996.964	72.59
997.128	5.75
997.291	7.88
997.454	19.89
997.617	-4.52
997.78	48.57
997.943	22.41
998.106	50.89
998.269	-7.43
998.432	18.92
998.595	22.6
998.758	-27.19
998.92	-2.97
999.083	-32.81
999.246	11.37
999.409	-33.39
999.572	-38.81
999.735	35.2
999.897	41.01
1000.06	-8.2
1000.223	13.3
1000.386	40.04
1000.548	44.69
1000.711	38.88
1000.874	7.49
1001.036	-38.23
1001.199	51.08
1001.361	-17.31
1001.524	25.9
1001.687	36.94
1001.849	-12.08
1002.012	35.78
1002.174	25.32
1002.337	41.98
1002.499	27.06
1002.661	45.47
1002.824	-15.56
1002.986	12.72
1003.149	26.67
1003.311	-14.01
1003.473	60.58
1003.636	-2.58
1003.798	30.16
1003.96	36.75
1004.123	6.14
1004.285	-4.13
1004.447	19.89
1004.609	14.08
1004.771	68.91
1004.933	-16.92
1005.096	-1.23
1005.258	-12.08
1005.42	-0.06
1005.582	60.77
1005.744	10.2
1005.906	-8.59
1006.068	9.62
1006.23	-14.98
1006.392	-23.31
1006.554	5.17
1006.716	62.32
1006.878	48.95
1007.04	-28.35
1007.202	-4.71
1007.363	35.39
1007.525	16.99
1007.687	30.55
1007.849	60.38
1008.011	-47.73
1008.172	-12.08
1008.334	-7.04
1008.496	25.7
1008.658	-46.18
1008.819	-32.42
1008.981	-32.61
1009.143	-4.91
1009.304	18.54
1009.466	17.95
1009.627	70.65
1009.789	125.68
1009.95	27.25
1010.112	-23.7
1010.273	39.46
1010.435	1.49
1010.596	-3.94
1010.758	-9.95
1010.919	-9.56
1011.081	-15.37
1011.242	-14.6
1011.403	56.12
1011.565	20.67
1011.726	31.13
1011.887	-17.7
1012.049	1.49
1012.21	10.98
1012.371	66.2
1012.532	-33.78
1012.693	26.29
1012.855	-4.71
1013.016	13.11
1013.177	30.74
1013.338	10.79
1013.499	62.52
1013.66	36.36
1013.821	43.33
1013.982	26.29
1014.143	26.87
1014.304	-17.5
1014.465	47.6
1014.626	27.06
1014.787	1.68
1014.948	106.11
1015.109	-63.03
1015.27	36.17
1015.431	-0.84
1015.592	1.1
1015.752	60.19
1015.913	33.26
1016.074	33.84
1016.235	-0.45
1016.395	16.79
1016.556	-8.78
1016.717	10.01
1016.877	40.43
1017.038	-2
1017.199	21.25
1017.359	7.88
1017.52	30.16
1017.681	-17.11
1017.841	5.94
1018.002	1.29
1018.162	-10.14
1018.323	43.72
1018.483	16.4
1018.644	6.52
1018.804	-40.17
1018.964	-28.55
1019.125	-9.36
1019.285	5.55
1019.446	5.94
1019.606	-14.01
1019.766	-55.09
1019.926	30.16
1020.087	24.54
1020.247	-19.63
1020.407	3.62
1020.567	19.7
1020.728	5.55
1020.888	-18.86
1021.048	-6.46
1021.208	-28.16
1021.368	-4.52
1021.528	17.37
1021.688	40.04
1021.848	20.47
1022.008	34.62
1022.168	5.17
1022.328	25.51
1022.488	33.07
1022.648	-25.45
1022.808	2.45
1022.968	0.13
1023.128	-32.81
1023.288	-11.69
1023.448	-14.79
1023.608	0.71
1023.767	24.74
1023.927	-2.39
1024.087	-18.28
1024.247	-25.45
1024.406	-1.81
1024.566	-37.26
1024.726	-27.77
1024.885	3.23
1025.045	41.01
1025.205	31.52
1025.364	-9.75
1025.524	3.81
1025.683	-20.41
1025.843	17.57
1026.003	-10.72
1026.162	69.88
1026.321	54.18
1026.481	21.05
1026.64	-6.46
1026.8	20.09
1026.959	7.3
1027.119	-4.71
1027.278	17.18
1027.437	-32.42
1027.597	26.09
1027.756	18.15
1027.915	26.29
1028.074	1.29
1028.234	-17.7
1028.393	17.95
1028.552	2.07
1028.711	-68.46
1028.87	44.11
1029.03	-21.57
1029.189	-16.15
1029.348	-77.56
1029.507	-3.55
1029.666	-35.52
1029.825	-29.9
1029.984	-22.35
1030.143	21.05
1030.302	0.13
1030.461	-75.24
1030.62	-10.53
1030.779	32.48
1030.938	-15.56
1031.097	-18.28
1031.255	22.41
1031.414	72.01
1031.573	29.58
1031.732	-30.29
1031.891	14.66
1032.049	36.17
1032.208	25.7
1032.367	-35.71
1032.525	2.84
1032.684	2.45
1032.843	0.52
1033.001	-46.56
1033.16	137.3
1033.319	38.88
1033.477	25.12
1033.636	-28.16
1033.794	-21.76
1033.953	11.56
1034.111	28.61
1034.27	-39.2
1034.428	14.08
1034.587	-38.23
1034.745	17.18
1034.903	25.7
1035.062	10.79
1035.22	-44.05
1035.378	11.75
1035.537	-34.75
1035.695	39.07
1035.853	7.88
1036.011	36.17
1036.17	-8.78
1036.328	-51.99
1036.486	21.64
1036.644	11.37
1036.802	-91.71
1036.96	-23.12
1037.119	-18.86
1037.277	-37.65
1037.435	-42.11
1037.593	-17.5
1037.751	-9.17
1037.909	20.09
1038.067	20.09
