Data from pine_FLMT105791__23__17-19-57-080.txt Node

Date: Mon Mar 20 17:19:57 GMT 2023
User: antho
Spectrometer: FLMT10579
Trigger mode: 0
Integration Time (sec): 1.000000E-1
Scans to average: 10
Electric dark correction enabled: true
Nonlinearity correction enabled: false
Boxcar width: 0
XAxis mode: Wavelengths
Number of Pixels in Spectrum: 3648
>>>>>Begin Spectral Data<<<<<
345.248	-145.62
345.464	-145.62
345.681	-145.62
345.898	-171.97
346.114	-175.45
346.331	-33.63
346.548	29.53
346.764	11.32
346.981	-22.01
347.197	-21.23
347.414	19.26
347.631	-26.27
347.847	65.37
348.064	7.64
348.28	32.44
348.497	-34.99
348.713	-27.43
348.93	5.31
349.146	1.82
349.363	-17.55
349.579	22.56
349.796	-5.34
350.012	-5.73
350.229	28.76
350.445	-5.54
350.661	-14.45
350.878	-6.51
351.094	15.97
351.311	25.27
351.527	25.66
351.743	-22.39
351.96	13.64
352.176	44.45
352.392	28.76
352.609	39.41
352.825	-15.03
353.041	11.12
353.257	18.68
353.474	11.51
353.69	30.31
353.906	11.71
354.122	-11.35
354.339	47.94
354.555	8.41
354.771	-22.2
354.987	52
355.203	56.46
355.42	2.21
355.636	-20.84
355.852	-28.4
356.068	7.25
356.284	-42.93
356.5	62.47
356.716	-6.51
356.932	17.32
357.148	36.89
357.364	21.2
357.58	57.24
357.796	56.07
358.012	22.75
358.228	27.4
358.444	-58.24
358.66	38.83
358.876	-0.31
359.092	-12.13
359.308	14.22
359.524	27.59
359.74	-0.5
359.956	-27.04
360.172	6.67
360.388	64.02
360.604	7.83
360.819	84.94
361.035	9.77
361.251	39.8
361.467	11.9
361.683	35.15
361.898	12.48
362.114	27.4
362.33	6.67
362.546	36.7
362.762	3.57
362.977	15.97
363.193	-25.11
363.409	70.02
363.624	-11.35
363.84	-1.86
364.056	-7.09
364.271	20.62
364.487	20.23
364.703	13.84
364.918	19.84
365.134	-0.89
365.35	22.17
365.565	141.52
365.781	40.77
365.996	35.15
366.212	71.96
366.427	35.92
366.643	7.25
366.858	5.89
367.074	5.7
367.289	58.4
367.505	103.74
367.72	-46.42
367.936	-15.61
368.151	52.2
368.367	39.02
368.582	18.29
368.798	-0.69
369.013	60.72
369.228	49.68
369.444	10.54
369.659	57.04
369.874	57.24
370.09	42.12
370.305	-45.26
370.52	6.86
370.736	54.14
370.951	23.52
371.166	46.77
371.381	88.82
371.597	41.35
371.812	-10.77
372.027	2.79
372.242	15.77
372.458	81.65
372.673	-10.77
372.888	28.76
373.103	57.62
373.318	88.62
373.533	32.44
373.749	40.38
373.964	-40.22
374.179	59.75
374.394	-0.5
374.609	58.01
374.824	14.22
375.039	51.62
375.254	17.52
375.469	72.54
375.684	19.26
375.899	64.79
376.114	20.42
376.329	25.66
376.544	63.44
376.759	55.88
376.974	8.22
377.189	-5.15
377.404	-14.26
377.619	35.92
377.834	-27.82
378.049	-8.64
378.264	-21.43
378.478	25.85
378.693	-11.74
378.908	56.07
379.123	-17.55
379.338	73.9
379.553	39.41
379.767	1.82
379.982	58.01
380.197	49.1
380.412	51.81
380.626	49.29
380.841	97.92
381.056	44.45
381.271	91.34
381.485	3.37
381.7	-23.56
381.915	34.96
382.129	-8.44
382.344	33.6
382.559	9.57
382.773	75.45
382.988	-24.33
383.202	36.7
383.417	15.58
383.632	122.92
383.846	8.22
384.061	29.53
384.275	3.18
384.49	37.28
384.704	50.07
384.919	31.08
385.133	26.43
385.348	37.09
385.562	-18.13
385.777	51.23
385.991	35.54
386.206	3.96
386.42	-7.86
386.634	43.29
386.849	35.54
387.063	35.15
387.277	-18.33
387.492	4.92
387.706	-5.15
387.92	7.44
388.135	43.67
388.349	35.73
388.563	30.11
388.778	24.88
388.992	48.13
389.206	66.34
389.42	98.5
389.635	7.06
389.849	56.27
390.063	68.86
390.277	24.11
390.491	85.33
390.706	11.32
390.92	52.78
391.134	30.5
391.348	58.98
391.562	-30.34
391.776	19.46
391.99	-16.19
392.205	46.58
392.419	-1.47
392.633	32.05
392.847	76.42
393.061	-1.28
393.275	83.97
393.489	12.67
393.703	33.41
393.917	59.56
394.131	27.98
394.345	60.14
394.559	72.93
394.773	40.19
394.986	32.24
395.2	59.37
395.414	52.2
395.628	5.89
395.842	46.77
396.056	9.38
396.27	-3.6
396.484	51.81
396.697	64.02
396.911	89.01
397.125	46.97
397.339	60.34
397.553	59.37
397.766	104.12
397.98	61.69
398.194	71.96
398.408	9.96
398.621	62.08
398.835	47.16
399.049	66.73
399.262	65.76
399.476	65.37
399.69	67.5
399.903	120.59
400.117	33.41
400.331	57.82
400.544	29.72
400.758	151.78
400.971	81.26
401.185	66.34
401.398	7.44
401.612	85.33
401.826	92.11
402.039	63.82
402.253	49.49
402.466	89.79
402.68	40.96
402.893	79.32
403.106	70.22
403.32	48.13
403.533	80.29
403.747	61.5
403.96	71.96
404.174	100.83
404.387	22.17
404.6	73.12
404.814	92.89
405.027	62.08
405.24	58.79
405.454	51.81
405.667	100.25
405.88	-24.14
406.094	75.45
406.307	103.74
406.52	90.95
406.733	22.36
406.947	11.9
407.16	112.07
407.373	100.05
407.586	34.96
407.799	33.99
408.012	114.2
408.226	90.95
408.439	101.41
408.652	51.04
408.865	95.79
409.078	114.59
409.291	88.43
409.504	12.29
409.717	94.63
409.93	71.77
410.143	58.2
410.357	32.44
410.57	36.51
410.783	32.24
410.996	78.35
411.209	67.12
411.421	119.04
411.634	82.23
411.847	70.41
412.06	55.69
412.273	68.86
412.486	78.55
412.699	162.25
412.912	68.47
413.125	88.43
413.338	89.59
413.55	72.35
413.763	59.37
413.976	83.97
414.189	36.7
414.402	59.17
414.615	155.47
414.827	36.31
415.04	131.25
415.253	96.95
415.466	105.09
415.678	143.65
415.891	62.47
416.104	60.53
416.316	85.33
416.529	75.84
416.742	114.2
416.954	129.7
417.167	59.37
417.38	74.87
417.592	119.04
417.805	42.12
418.017	39.41
418.23	91.92
418.442	63.63
418.655	68.47
418.868	117.1
419.08	94.82
419.293	111.1
419.505	105.48
419.718	96.57
419.93	114.78
420.142	89.01
420.355	153.53
420.567	133.77
420.78	112.84
420.992	116.91
421.205	143.26
421.417	66.92
421.629	109.94
421.842	80.87
422.054	51.42
422.266	119.24
422.479	121.95
422.691	72.74
422.903	112.84
423.115	99.47
423.328	61.69
423.54	130.67
423.752	118.46
423.964	77.58
424.177	113.62
424.389	95.21
424.601	216.88
424.813	111.1
425.025	141.9
425.238	136.87
425.45	92.89
425.662	106.45
425.874	430.01
426.086	121.56
426.298	136.09
426.51	138.42
426.722	115.94
426.934	98.5
427.146	159.34
427.358	76.8
427.57	155.27
427.782	119.43
427.994	105.67
428.206	110.9
428.418	96.57
428.63	134.15
428.842	136.09
429.054	127.57
429.266	157.6
429.478	111.87
429.69	120.4
429.902	94.82
430.114	151.2
430.325	130.09
430.537	111.1
430.749	127.95
430.961	41.74
431.173	138.22
431.384	133.96
431.596	43.48
431.808	135.32
432.02	154.69
432.231	149.46
432.443	196.93
432.655	179.68
432.867	108
433.078	162.05
433.29	232.77
433.502	184.53
433.713	201.97
433.925	164.18
434.136	202.93
434.348	81.65
434.56	109.74
434.771	242.85
434.983	110.52
435.194	133.38
435.406	149.65
435.617	193.05
435.829	226.38
436.04	219.98
436.252	236.26
436.463	200.22
436.675	205.26
436.886	193.25
437.098	191.5
437.309	254.47
437.521	202.74
437.732	203.9
437.943	199.25
438.155	193.63
438.366	138.8
438.578	226.76
438.789	216.88
439	204.48
439.211	196.35
439.423	171.35
439.634	198.28
439.845	226.38
440.057	221.15
440.268	246.53
440.479	200.42
440.69	203.32
440.902	199.06
441.113	208.36
441.324	230.64
441.535	225.22
441.746	256.02
441.957	182.59
442.168	195.57
442.38	235.68
442.591	256.41
442.802	171.16
443.013	203.9
443.224	238
443.435	222.89
443.646	216.5
443.857	230.45
444.068	183.17
444.279	198.48
444.49	299.03
444.701	247.11
444.912	323.06
445.123	285.28
445.334	266.68
445.545	236.26
445.756	244.4
445.967	218.05
446.178	243.23
446.388	271.71
446.599	258.15
446.81	293.61
447.021	214.95
447.232	267.26
447.443	299.23
447.653	234.13
447.864	299.81
448.075	264.16
448.286	301.36
448.496	272.68
448.707	312.21
448.918	234.71
449.129	351.54
449.339	259.7
449.55	288.18
449.761	256.41
449.971	319.96
450.182	265.9
450.393	318.41
450.603	264.55
450.814	324.03
451.024	310.66
451.235	327.32
451.446	339.91
451.656	343.21
451.867	268.81
452.077	313.37
452.288	341.66
452.498	343.01
452.709	301.36
452.919	313.76
453.13	284.11
453.34	319.38
453.55	251.18
453.761	313.37
453.971	287.41
454.182	323.25
454.392	306.78
454.602	381.18
454.813	301.75
455.023	345.73
455.233	270.55
455.444	314.73
455.654	222.89
455.864	287.21
456.075	308.53
456.285	318.6
456.495	297.29
456.705	333.91
456.916	347.66
457.126	364.13
457.336	297.68
457.546	258.54
457.756	294.96
457.967	367.62
458.177	312.6
458.387	304.85
458.597	306.01
458.807	290.31
459.017	333.33
459.227	330.61
459.437	317.24
459.647	356.77
459.857	337.78
460.068	310.66
460.278	375.56
460.488	343.79
460.698	395.71
460.908	327.9
461.117	271.71
461.327	319.57
461.537	337.2
461.747	338.94
461.957	341.66
462.167	434.46
462.377	371.88
462.587	372.27
462.797	392.42
463.007	357.16
463.216	382.15
463.426	399.39
463.636	400.17
463.846	313.76
464.056	323.06
464.265	412.57
464.475	330.81
464.685	370.14
464.895	378.47
465.104	354.83
465.314	383.89
465.524	359.68
465.733	342.63
465.943	425.36
466.153	402.3
466.362	403.66
466.572	388.35
466.782	343.01
466.991	392.23
467.201	415.86
467.41	332.36
467.62	423.22
467.829	393.97
468.039	396.1
468.249	361.61
468.458	370.72
468.668	405.4
468.877	387.19
469.086	443.37
469.296	402.49
469.505	377.5
469.715	458.49
469.924	418.77
470.134	442.79
470.343	452.48
470.552	405.4
470.762	394.94
470.971	366.07
471.18	424.58
471.39	436.01
471.599	379.63
471.808	456.94
472.018	414.51
472.227	499.95
472.436	505.57
472.645	410.24
472.855	435.24
473.064	509.25
473.273	469.72
473.482	479.8
473.691	487.74
473.901	490.07
474.11	415.09
474.319	570.09
474.528	476.31
474.737	539.28
474.946	464.11
475.155	476.51
475.364	511.77
475.573	499.17
475.783	495.88
475.992	492.2
476.201	535.6
476.41	470.31
476.619	437.76
476.828	472.63
477.037	466.04
477.245	503.05
477.454	516.22
477.663	521.07
477.872	507.5
478.081	580.93
478.29	461.39
478.499	608.64
478.708	542.57
478.917	609.03
479.125	504.79
479.334	545.09
479.543	538.89
479.752	569.5
479.961	572.8
480.169	594.69
480.378	544.51
480.587	692.34
480.796	582.1
481.004	587.13
481.213	602.05
481.422	573.77
481.63	580.16
481.839	645.07
482.048	641.97
482.256	592.17
482.465	619.49
482.674	641
482.882	642.16
483.091	687.11
483.299	654.17
483.508	667.35
483.716	623.56
483.925	652.82
484.134	628.98
484.342	644.48
484.551	674.9
484.759	655.33
484.967	669.09
485.176	667.54
485.384	667.93
485.593	677.81
485.801	663.08
486.01	664.44
486.218	610.38
486.426	585.2
486.635	551.1
486.843	564.66
487.051	621.62
487.26	598.57
487.468	632.08
487.676	643.52
487.885	641.38
488.093	658.82
488.301	700.28
488.509	713.65
488.717	681.68
488.926	680.91
489.134	663.08
489.342	715.01
489.55	659.79
489.758	706.1
489.967	698.54
490.175	782.63
490.383	720.63
490.591	799.09
490.799	688.27
491.007	771.19
491.215	735.74
491.423	734.77
491.631	725.86
491.839	761.31
492.047	802.19
492.255	701.64
492.463	686.53
492.671	717.33
492.879	765.96
493.087	727.6
493.295	767.71
493.503	789.02
493.711	783.79
493.919	828.16
494.127	767.51
494.334	800.26
494.542	770.61
494.75	811.11
494.958	750.08
495.166	840.36
495.374	817.5
495.581	803.55
495.789	822.93
495.997	873.11
496.205	806.46
496.412	787.86
496.62	808.01
496.828	810.91
497.035	811.49
497.243	852.18
497.451	814.59
497.658	839.39
497.866	808.78
498.074	849.66
498.281	816.14
498.489	919.99
498.696	847.34
498.904	817.11
499.112	798.13
499.319	915.54
499.527	837.65
499.734	892.87
499.942	830.29
500.149	863.42
500.357	882.41
500.564	831.06
500.771	852.76
500.979	823.31
501.186	808.01
501.394	834.94
501.601	851.41
501.808	877.37
502.016	836.49
502.223	857.61
502.43	835.13
502.638	845.4
502.845	839.78
503.052	911.47
503.26	828.54
503.467	960.1
503.674	895.39
503.881	878.53
504.089	963
504.296	924.84
504.503	862.26
504.71	905.85
504.917	866.13
505.125	897.91
505.332	889.96
505.539	895
505.746	958.16
505.953	945.18
506.16	938.79
506.367	992.07
506.574	979.28
506.781	989.74
506.988	948.28
507.195	952.15
507.402	939.37
507.609	1001.75
507.816	905.46
508.023	961.26
508.23	925.22
508.437	890.16
508.644	962.04
508.851	1001.75
509.058	991.68
509.265	971.72
509.472	1006.21
509.679	1055.62
509.885	965.72
510.092	1001.17
510.299	990.71
510.506	1015.12
510.713	989.74
510.92	976.37
511.126	1019.19
511.333	1030.62
511.54	1051.74
511.746	1082.35
511.953	1087.39
512.16	1074.99
512.367	1003.11
512.573	1031.78
512.78	1006.99
512.987	1049.61
513.193	1021.52
513.4	970.17
513.606	1002.14
513.813	1064.14
514.02	1046.12
514.226	1082.35
514.433	1112
514.639	984.7
514.846	1040.7
515.052	1045.73
515.259	1047.28
515.465	1092.04
515.672	1053.87
515.878	1136.41
516.085	1075.57
516.291	1112.58
516.497	1037.98
516.704	1073.83
516.91	991.1
517.117	951.57
517.323	926.39
517.529	942.85
517.736	993.81
517.942	987.8
518.148	977.92
518.354	1038.18
518.561	1031.98
518.767	1041.67
518.973	1044.18
519.179	1090.68
519.386	1069.76
519.592	1040.5
519.798	1082.55
520.004	1149.58
520.21	1070.34
520.417	1166.83
520.623	1160.05
520.829	1186.4
521.035	1163.34
521.241	1163.53
521.447	1178.26
521.653	1301.29
521.859	1189.11
522.065	1227.08
522.271	1300.51
522.477	1239.09
522.683	1281.72
522.889	1222.82
523.095	1223.79
523.301	1215.84
523.507	1171.67
523.713	1246.84
523.919	1183.3
524.125	1277.07
524.331	1221.46
524.537	1360.19
524.742	1297.41
524.948	1326.67
525.154	1304
525.36	1428.19
525.566	1306.32
525.772	1345.07
525.977	1277.26
526.183	1337.71
526.389	1340.04
526.595	1273.39
526.8	1285.79
527.006	1212.16
527.212	1205.19
527.417	1196.86
527.623	1166.63
527.829	1265.64
528.034	1286.56
528.24	1301.48
528.446	1294.31
528.651	1338.1
528.857	1362.7
529.062	1411.53
529.268	1354.57
529.473	1352.24
529.679	1352.05
529.884	1456.48
530.09	1390.22
530.295	1420.64
530.501	1437.1
530.706	1383.44
530.912	1359.8
531.117	1405.91
531.323	1352.05
531.528	1429.94
531.733	1445.05
531.939	1411.92
532.144	1417.73
532.35	1407.07
532.555	1466.17
532.76	1431.87
532.966	1406.69
533.171	1414.05
533.376	1359.02
533.581	1339.84
533.787	1409.59
533.992	1472.17
534.197	1423.93
534.402	1436.14
534.607	1441.17
534.813	1520.22
535.018	1454.73
535.223	1406.1
535.428	1467.13
535.633	1491.74
535.838	1474.5
536.043	1476.43
536.249	1580.67
536.454	1484.77
536.659	1498.33
536.864	1444.27
537.069	1475.66
537.274	1482.44
537.479	1501.62
537.684	1484.38
537.889	1455.9
538.094	1595.2
538.299	1463.45
538.504	1533.4
538.708	1524.48
538.913	1531.65
539.118	1472.56
539.323	1522.74
539.528	1467.13
539.733	1499.1
539.938	1520.22
540.142	1512.28
540.347	1514.22
540.552	1486.9
540.757	1485.93
540.962	1479.73
541.166	1432.45
541.371	1446.6
541.576	1456.48
541.781	1388.86
541.985	1480.7
542.19	1517.7
542.395	1604.5
542.599	1599.08
542.804	1516.35
543.008	1561.3
543.213	1492.52
543.418	1506.66
543.622	1529.91
543.827	1466.94
544.031	1557.61
544.236	1583.58
544.44	1563.43
544.645	1629.3
544.849	1500.85
545.054	1591.52
545.258	1642.67
545.463	1629.88
545.667	1515.38
545.872	1595.2
546.076	1563.62
546.281	1576.21
546.485	1537.27
546.689	1608.96
546.894	1598.3
547.098	1585.9
547.302	1540.56
547.507	1551.41
547.711	1598.88
547.915	1648.48
548.119	1562.85
548.324	1605.08
548.528	1623.88
548.732	1605.66
548.936	1605.08
549.141	1620.2
549.345	1588.23
549.549	1629.3
549.753	1586.29
549.957	1672.51
550.161	1664.95
550.366	1611.48
550.57	1588.42
550.774	1608.57
550.978	1613.03
551.182	1610.51
551.386	1610.51
551.59	1607.6
551.794	1568.85
551.998	1634.53
552.202	1601.01
552.406	1585.13
552.61	1652.94
552.814	1585.71
553.018	1695.56
553.222	1621.94
553.426	1600.43
553.63	1702.93
553.833	1610.9
554.037	1566.14
554.241	1625.43
554.445	1639.38
554.649	1638.02
554.853	1591.13
555.056	1631.43
555.26	1657.98
555.464	1610.9
555.668	1623.68
555.871	1655.84
556.075	1629.11
556.279	1586.68
556.483	1557.42
556.686	1584.93
556.89	1598.11
557.094	1639.38
557.297	1555.68
557.501	1588.81
557.704	1522.55
557.908	1623.3
558.112	1517.12
558.315	1633.95
558.519	1571.18
558.722	1574.08
558.926	1555.68
559.129	1492.13
559.333	1485.15
559.536	1483.6
559.74	1451.44
559.943	1477.6
560.147	1493.48
560.35	1509.18
560.553	1510.53
560.757	1465
560.96	1595.4
561.164	1518.67
561.367	1564.59
561.57	1563.43
561.774	1536.69
561.977	1496.97
562.18	1465
562.384	1603.34
562.587	1519.45
562.79	1491.74
562.993	1517.32
563.197	1572.15
563.4	1579.9
563.603	1589.97
563.806	1583.58
564.009	1499.68
564.212	1514.02
564.416	1446.4
564.619	1530.88
564.822	1470.62
565.025	1565.56
565.228	1472.75
565.431	1534.37
565.634	1404.36
565.837	1459.38
566.04	1429.74
566.243	1458.42
566.446	1360.77
566.649	1514.8
566.852	1399.71
567.055	1444.27
567.258	1512.86
567.461	1495.81
567.664	1499.3
567.867	1403
568.07	1456.09
568.273	1440.98
568.475	1467.91
568.678	1414.82
568.881	1428
569.084	1429.74
569.287	1316.79
569.489	1366.58
569.692	1410.56
569.895	1401.45
570.098	1357.47
570.3	1349.14
570.503	1286.56
570.706	1355.34
570.909	1353.02
571.111	1272.42
571.314	1310.39
571.516	1295.28
571.719	1351.66
571.922	1338.49
572.124	1335
572.327	1327.44
572.529	1280.17
572.732	1304.97
572.935	1343.72
573.137	1417.73
573.34	1334.42
573.542	1380.53
573.745	1358.64
573.947	1330.54
574.15	1297.22
574.352	1278.62
574.554	1368.9
574.757	1246.46
574.959	1258.47
575.162	1264.28
575.364	1252.46
575.566	1339.84
575.769	1266.8
575.971	1289.27
576.173	1155.4
576.376	1295.67
576.578	1316.59
576.78	1346.04
576.982	1212.36
577.185	1252.27
577.387	1251.69
577.589	1232.7
577.791	1286.95
577.993	1257.11
578.196	1254.59
578.398	1263.31
578.6	1311.75
578.802	1193.37
579.004	1200.15
579.206	1242
579.408	1257.5
579.61	1204.8
579.812	1258.47
580.014	1219.53
580.216	1223.59
580.418	1195.11
580.62	1200.93
580.822	1187.17
581.024	1265.44
581.226	1276.49
581.428	1257.11
581.63	1323.76
581.832	1233.67
582.034	1282.88
582.236	1251.11
582.438	1280.75
582.64	1283.66
582.841	1328.41
583.043	1339.65
583.245	1294.7
583.447	1320.27
583.649	1262.54
583.85	1282.49
584.052	1309.81
584.254	1265.44
584.456	1319.89
584.657	1258.47
584.859	1283.27
585.061	1252.46
585.262	1234.25
585.464	1194.53
585.666	1264.09
585.867	1195.69
586.069	1290.63
586.27	1237.93
586.472	1256.92
586.674	1214.68
586.875	1208.48
587.077	1219.91
587.278	1235.99
587.48	1212.94
587.681	1315.04
587.883	1260.21
588.084	1138.54
588.285	1191.04
588.487	1208.68
588.688	1230.57
588.89	1106.96
589.091	1118.58
589.292	1111.41
589.494	1099.79
589.695	1067.43
589.896	990.52
590.098	1015.7
590.299	1116.65
590.5	1038.95
590.702	1091.46
590.903	1093.98
591.104	1157.91
591.305	1116.06
591.507	1213.91
591.708	1154.81
591.909	1093.78
592.11	1203.83
592.311	1154.62
592.512	1116.84
592.714	1075.77
592.915	1078.48
593.116	1115.48
593.317	1115.68
593.518	1102.31
593.719	1148.81
593.92	1170.9
594.121	1202.48
594.322	1140.86
594.523	1137.38
594.724	1078.87
594.925	1120.33
595.126	1148.81
595.327	1127.88
595.528	1155.2
595.729	1116.26
595.929	1140.28
596.13	1121.49
596.331	1143.38
596.532	1117.61
596.733	1176.71
596.934	1156.95
597.135	1169.35
597.335	1145.71
597.536	1082.16
597.737	1178.45
597.938	1138.73
598.138	1134.28
598.339	1125.56
598.54	1132.53
598.74	1114.32
598.941	1099.21
599.142	1194.34
599.342	1122.65
599.543	1096.5
599.744	1113.55
599.944	1117.61
600.145	1131.56
600.345	1140.09
600.546	1201.7
600.746	1157.91
600.947	1206.16
601.147	1148.42
601.348	1174.19
601.548	1105.02
601.749	1135.44
601.949	1092.04
602.15	1071.7
602.35	1120.71
602.551	1163.15
602.751	1076.35
602.951	1074.99
603.152	1056.2
603.352	1128.46
603.552	1096.5
603.753	1140.67
603.953	1114.9
604.153	1141.45
604.354	1135.05
604.554	1142.22
604.754	1101.53
604.954	1078.09
605.155	1153.26
605.355	1094.95
605.555	1169.35
605.755	1157.53
605.955	1150.94
606.155	1157.72
606.356	1125.75
606.556	1145.51
606.756	1128.08
606.956	1053.48
607.156	1149.78
607.356	1093.98
607.556	1115.68
607.756	1128.27
607.956	1153.85
608.156	1138.54
608.356	1092.43
608.556	1142.8
608.756	1105.02
608.956	1053.87
609.156	1105.6
609.356	1055.23
609.556	1056.2
609.755	1090.88
609.955	1032.17
610.155	1081.58
610.355	1088.75
610.555	1083.9
610.755	1085.84
610.954	971.92
611.154	1050
611.354	1114.71
611.554	1062.98
611.753	1052.52
611.953	1001.56
612.153	1108.9
612.352	1098.82
612.552	1020.74
612.752	973.66
612.951	1010.47
613.151	1018.61
613.351	1037.21
613.55	1010.28
613.75	1073.25
613.949	1023.07
614.149	1035.08
614.348	1052.32
614.548	1006.99
614.747	977.92
614.947	983.35
615.146	975.02
615.346	1053.48
615.545	999.62
615.745	1044.18
615.944	1087.78
616.144	1033.72
616.343	1025.78
616.542	998.85
616.742	981.8
616.941	1017.45
617.14	933.17
617.34	1039.34
617.539	998.85
617.738	971.92
617.938	1030.62
618.137	980.83
618.336	968.62
618.535	1007.57
618.734	1009.12
618.934	1033.33
619.133	990.71
619.332	1029.65
619.531	989.94
619.73	997.49
619.929	1018.42
620.128	1015.12
620.328	1056.97
620.527	964.17
620.726	1001.95
620.925	1015.12
621.124	980.83
621.323	1047.67
621.522	943.05
621.721	951.19
621.92	966.88
622.119	1023.07
622.318	928.32
622.517	989.94
622.715	979.86
622.914	929.87
623.113	978.89
623.312	899.84
623.511	983.35
623.71	948.28
623.909	952.54
624.107	1044.18
624.306	904.49
624.505	928.52
624.704	936.07
624.902	949.83
625.101	989.74
625.3	930.45
625.499	921.54
625.697	940.14
625.896	914.96
626.095	961.26
626.293	897.32
626.492	930.65
626.69	969.59
626.889	911.27
627.088	973.27
627.286	888.22
627.485	892.67
627.683	902.75
627.882	914.96
628.08	825.83
628.279	906.43
628.477	954.09
628.676	855.28
628.874	928.13
629.073	869.62
629.271	833.97
629.469	895.58
629.668	899.65
629.866	897.13
630.065	845.98
630.263	900.62
630.461	859.74
630.66	900.81
630.858	876.79
631.056	934.14
631.254	908.37
631.453	879.31
631.651	939.37
631.849	926.97
632.047	885.12
632.245	864.97
632.444	904.69
632.642	930.65
632.84	904.11
633.038	860.32
633.236	838.23
633.434	854.89
633.632	855.28
633.83	856.44
634.028	883.37
634.227	886.67
634.425	911.47
634.623	905.85
634.821	893.45
635.019	889.19
635.216	849.66
635.414	933.55
635.612	900.42
635.81	903.52
636.008	935.69
636.206	876.98
636.404	900.23
636.602	846.76
636.8	866.71
636.997	917.09
637.195	930.84
637.393	901.2
637.591	955.06
637.789	911.08
637.986	876.59
638.184	875.43
638.382	946.15
638.58	951.38
638.777	938.98
638.975	876.21
639.173	905.07
639.37	922.9
639.568	885.12
639.765	940.72
639.963	852.57
640.161	917.28
640.358	907.4
640.556	849.66
640.753	840.36
640.951	838.04
641.148	871.75
641.346	869.42
641.543	861.48
641.741	917.28
641.938	836.29
642.136	857.61
642.333	804.33
642.531	912.82
642.728	919.8
642.925	877.76
643.123	839.01
643.32	867.1
643.517	871.75
643.715	886.09
643.912	832.03
644.109	887.44
644.306	849.27
644.504	847.53
644.701	851.02
644.898	897.32
645.095	854.7
645.293	847.14
645.49	859.93
645.687	853.34
645.884	898.87
646.081	775.65
646.278	826.8
646.475	808.39
646.672	806.26
646.87	848.5
647.067	833.39
647.264	838.04
647.461	798.13
647.658	769.64
647.855	830.68
648.052	767.9
648.249	705.13
648.446	766.35
648.642	759.96
648.839	772.36
649.036	780.88
649.233	708.42
649.43	729.93
649.627	710.75
649.824	746.59
650.021	732.64
650.217	716.75
650.414	759.76
650.611	783.79
650.808	771.78
651.004	746.4
651.201	777.01
651.398	807.43
651.595	790.18
651.791	740.58
651.988	790.38
652.185	739.42
652.381	777.39
652.578	723.73
652.775	781.66
652.971	759.76
653.168	760.93
653.364	795.8
653.561	723.53
653.757	742.71
653.954	773.13
654.15	729.54
654.347	794.44
654.543	736.13
654.74	713.46
654.936	704.93
655.133	737.48
655.329	734.96
655.525	691.95
655.722	775.46
655.918	664.63
656.115	737.1
656.311	622.4
656.507	626.27
656.704	616.97
656.9	639.83
657.096	645.26
657.292	631.12
657.489	730.51
657.685	715.98
657.881	689.63
658.077	704.93
658.273	693.11
658.47	760.93
658.666	719.46
658.862	736.13
659.058	699.7
659.254	758.02
659.45	685.75
659.646	730.7
659.842	702.03
660.038	739.42
660.234	688.46
660.43	721.79
660.626	775.46
660.822	744.85
661.018	778.56
661.214	757.63
661.41	672.77
661.606	754.34
661.802	757.63
661.998	730.31
662.194	693.31
662.39	752.59
662.586	741.75
662.781	752.98
662.977	755.89
663.173	766.54
663.369	734
663.564	717.53
663.76	769.64
663.956	737.48
664.152	748.14
664.347	640.8
664.543	680.13
664.739	710.75
664.934	653.78
665.13	655.14
665.326	730.31
665.521	725.86
665.717	675.87
665.912	692.73
666.108	616.2
666.304	654.37
666.499	681.88
666.695	628.6
666.89	686.53
667.086	713.07
667.281	697.76
667.477	741.36
667.672	682.85
667.867	685.17
668.063	708.42
668.258	668.12
668.454	697.18
668.649	774.1
668.844	686.72
669.04	702.8
669.235	653.2
669.43	677.23
669.626	640.42
669.821	657.66
670.016	656.69
670.211	663.47
670.407	651.85
670.602	681.49
670.797	644.48
670.992	716.95
671.187	608.45
671.382	693.5
671.578	633.44
671.773	683.81
671.968	611.55
672.163	659.02
672.358	699.51
672.553	641
672.748	634.8
672.943	701.25
673.138	668.12
673.333	690.4
673.528	618.52
673.723	673.74
673.918	706.48
674.113	602.05
674.308	734
674.503	667.15
674.698	674.32
674.892	653.4
675.087	676.26
675.282	670.83
675.477	631.12
675.672	665.21
675.867	658.24
676.061	631.89
676.256	621.82
676.451	659.6
676.646	662.12
676.84	624.72
677.035	650.49
677.23	638.09
677.424	666.96
677.619	680.71
677.814	703.19
678.008	696.21
678.203	574.93
678.397	628.02
678.592	656.69
678.787	681.1
678.981	660.18
679.176	654.95
679.37	619.49
679.565	626.27
679.759	636.54
679.954	670.64
680.148	701.25
680.342	706.1
680.537	656.11
680.731	640.8
680.926	659.21
681.12	699.7
681.314	625.3
681.509	627.82
681.703	631.31
681.897	670.45
682.092	641
682.286	625.3
682.48	722.76
682.674	706.87
682.869	650.68
683.063	645.26
683.257	704.55
683.451	629.57
683.645	706.87
683.839	660.18
684.034	655.53
684.228	689.82
684.422	600.89
684.616	625.69
684.81	708.23
685.004	656.5
685.198	680.13
685.392	673.35
685.586	654.95
685.78	651.85
685.974	683.04
686.168	678
686.362	718.11
686.556	633.05
686.75	576.67
686.944	561.95
687.138	591.59
687.331	500.72
687.525	522.42
687.719	448.22
687.913	516.61
688.107	531.53
688.301	498.4
688.494	584.81
688.688	513.51
688.882	501.5
689.076	474.96
689.269	505.18
689.463	622.59
689.657	544.9
689.85	548.77
690.044	569.31
690.238	537.54
690.431	547.03
690.625	550.32
690.818	584.42
691.012	600.12
691.205	602.63
691.399	578.61
691.593	635.96
691.786	680.91
691.98	660.37
692.173	662.31
692.366	626.08
692.56	677.23
692.753	727.41
692.947	630.73
693.14	704.16
693.333	686.91
693.527	642.74
693.72	700.48
693.914	690.01
694.107	698.54
694.3	667.54
694.493	694.08
694.687	752.01
694.88	708.03
695.073	761.12
695.266	727.41
695.46	709.2
695.653	796.38
695.846	758.99
696.039	680.52
696.232	742.52
696.425	816.92
696.618	786.5
696.812	787.28
697.005	874.27
697.198	933.55
697.391	873.3
697.584	849.27
697.777	909.14
697.97	902.75
698.163	916.51
698.356	878.92
698.549	973.47
698.742	937.24
698.935	911.47
699.127	910.5
699.32	888.22
699.513	901.2
699.706	931.62
699.899	927.35
700.092	916.7
700.285	944.4
700.477	885.12
700.67	937.24
700.863	965.14
701.056	1034.88
701.248	1021.52
701.441	1031.4
701.634	977.34
701.826	1064.72
702.019	972.69
702.212	1027.33
702.404	983.35
702.597	1021.9
702.79	1002.34
702.982	1042.25
703.175	1079.64
703.367	1095.72
703.56	1090.68
703.752	1166.25
703.945	1105.02
704.137	1115.68
704.33	1183.49
704.522	1183.1
704.715	1168.76
704.907	1204.41
705.1	1234.06
705.292	1221.27
705.484	1262.73
705.677	1245.49
705.869	1253.82
706.061	1283.66
706.254	1281.72
706.446	1265.25
706.638	1302.45
706.831	1324.92
707.023	1301.09
707.215	1373.75
707.407	1345.85
707.599	1347.01
707.792	1410.95
707.984	1384.02
708.176	1410.17
708.368	1348.37
708.56	1402.23
708.752	1416.18
708.944	1400.87
709.136	1431.49
709.329	1400.29
709.521	1532.43
709.713	1464.23
709.905	1473.92
710.097	1530.68
710.289	1479.53
710.481	1499.49
710.672	1538.63
710.864	1534.75
711.056	1566.14
711.248	1559.94
711.44	1581.83
711.632	1558.2
711.824	1604.89
712.016	1615.55
712.207	1630.46
712.399	1634.14
712.591	1692.46
712.783	1650.81
712.975	1683.94
713.166	1591.71
713.358	1631.63
713.55	1712.42
713.741	1719.59
713.933	1742.45
714.125	1710.09
714.316	1661.46
714.508	1740.12
714.7	1764.34
714.891	1725.4
715.083	1804.06
715.274	1768.61
715.466	1763.57
715.657	1768.8
715.849	1702.54
716.04	1786.43
716.232	1679.87
716.423	1775.77
716.615	1679.29
716.806	1649.45
716.998	1655.26
717.189	1528.55
717.381	1522.55
717.572	1461.9
717.763	1485.15
717.955	1467.52
718.146	1449.7
718.337	1425.29
718.528	1377.24
718.72	1355.54
718.911	1410.56
719.102	1357.86
719.293	1394.67
719.485	1350.11
719.676	1363.48
719.867	1340.81
720.058	1379.75
720.249	1375.3
720.44	1424.32
720.632	1395.45
720.823	1439.43
721.014	1572.73
721.205	1592.68
721.396	1639.96
721.587	1710.68
721.778	1734.12
721.969	1762.41
722.16	1831.38
722.351	1797.86
722.542	1928.83
722.733	1929.42
722.924	1832.15
723.115	1888.73
723.305	1894.15
723.496	1873.23
723.687	1754.27
723.878	1786.62
724.069	1757.76
724.26	1801.74
724.45	1731.6
724.641	1749.81
724.832	1768.02
725.023	1718.04
725.213	1743.81
725.404	1767.83
725.595	1729.66
725.785	1689.94
725.976	1801.93
726.167	1805.03
726.357	1766.09
726.548	1842.42
726.739	1776.94
726.929	1879.04
727.12	1854.82
727.31	1906.75
727.501	1833.7
727.691	1855.4
727.882	1863.54
728.072	1897.83
728.263	1911.59
728.453	1983.86
728.644	1940.27
728.834	1919.15
729.024	1904.23
729.215	1880.98
729.405	1910.23
729.596	1991.61
729.786	1998
729.976	1987.93
730.167	2000.33
730.357	1954.41
730.547	1944.33
730.737	2023.77
730.928	2050.9
731.118	2098.17
731.308	2041.79
731.498	2033.26
731.688	2143.7
731.879	2152.81
732.069	2172.96
732.259	2160.94
732.449	2197.17
732.639	2323.69
732.829	2310.9
733.019	2312.45
733.209	2345.39
733.399	2363.8
733.589	2402.93
733.779	2435.29
733.969	2424.25
734.159	2494.58
734.349	2499.61
734.539	2542.63
734.729	2531
734.919	2611.99
735.109	2611.79
735.299	2559.09
735.488	2605.4
735.678	2548.05
735.868	2568.2
736.058	2550.76
736.248	2572.46
736.437	2525.58
736.627	2549.6
736.817	2637.76
737.007	2573.82
737.196	2645.7
737.386	2614.51
737.576	2573.63
737.765	2623.61
737.955	2615.67
738.144	2715.25
738.334	2672.82
738.524	2654.81
738.713	2636.4
738.903	2668.76
739.092	2675.34
739.282	2688.71
739.471	2680.19
739.661	2667.59
739.85	2729.4
740.04	2735.99
740.229	2700.14
740.419	2766.79
740.608	2776.09
740.797	2734.24
740.987	2832.86
741.176	2787.52
741.365	2732.3
741.555	2727.27
741.744	2817.36
741.933	2784.62
742.123	2787.72
742.312	2801.47
742.501	2852.81
742.69	2849.71
742.88	2730.17
743.069	2887.88
743.258	2787.33
743.447	2870.25
743.636	2887.11
743.825	2819.88
744.014	2869.48
744.204	2880.71
744.393	2821.82
744.582	2897.57
744.771	2932.83
744.96	2810.19
745.149	2877.81
745.338	2845.26
745.527	2877.61
745.716	2837.51
745.905	2836.93
746.094	2938.45
746.283	2924.5
746.471	2926.05
746.66	2942.71
746.849	2902.41
747.038	2972.16
747.227	2890.98
747.416	2918.3
747.604	2878.58
747.793	2878.39
747.982	2894.66
748.171	2865.6
748.359	2944.84
748.548	2884.98
748.737	2908.42
748.926	2859.6
749.114	2802.83
749.303	2903.58
749.491	2886.91
749.68	2845.45
749.869	2932.25
750.057	2846.42
750.246	2841.19
750.434	2841
750.623	2881.49
750.811	2844.29
751	2912.1
751.188	2832.67
751.377	2882.07
751.565	2850.1
751.754	2803.8
751.942	2804.57
752.131	2876.06
752.319	2830.15
752.507	2773.18
752.696	2857.08
752.884	2875.87
753.072	2803.6
753.261	2832.67
753.449	2811.93
753.637	2810
753.825	2892.34
754.014	2856.69
754.202	2856.5
754.39	2886.91
754.578	2840.61
754.766	2778.22
754.955	2796.63
755.143	2897.96
755.331	2819.88
755.519	2821.62
755.707	2769.89
755.895	2793.33
756.083	2779.58
756.271	2785
756.459	2774.54
756.647	2774.15
756.835	2780.35
757.023	2753.62
757.211	2742.19
757.399	2770.28
757.587	2749.74
757.775	2659.26
757.963	2697.82
758.151	2753.42
758.339	2680.77
758.526	2660.62
758.714	2699.95
758.902	2602.49
759.09	2517.63
759.278	2383.95
759.465	2224.88
759.653	1907.91
759.841	1731.21
760.028	1459.19
760.216	1303.03
760.404	1218.75
760.591	977.54
760.779	813.43
760.967	685.56
761.154	616.97
761.342	650.88
761.529	650.68
761.717	714.23
761.905	661.92
762.092	741.75
762.28	691.56
762.467	732.64
762.655	644.87
762.842	666.96
763.029	684.4
763.217	696.02
763.404	690.4
763.592	725.28
763.779	688.46
763.966	724.89
764.154	740.2
764.341	792.51
764.528	820.99
764.716	868.46
764.903	941.5
765.09	954.09
765.277	1037.21
765.465	1163.92
765.652	1173.8
765.839	1236.96
766.026	1344.88
766.213	1379.56
766.4	1468.88
766.588	1620
766.775	1608.96
766.962	1703.7
767.149	1760.66
767.336	1919.73
767.523	1865.67
767.71	1943.56
767.897	2070.27
768.084	2104.95
768.271	2113.67
768.458	2172.96
768.645	2216.55
768.832	2180.12
769.019	2201.24
769.206	2230.31
769.392	2301.22
769.579	2392.86
769.766	2359.53
769.953	2341.13
770.14	2388.98
770.327	2397.12
770.513	2426.76
770.7	2492.06
770.887	2380.46
771.073	2480.05
771.26	2442.46
771.447	2414.17
771.634	2440.52
771.82	2495.16
772.007	2393.05
772.193	2476.36
772.38	2507.56
772.567	2456.8
772.753	2414.56
772.94	2474.04
773.126	2467.26
773.313	2480.24
773.499	2495.35
773.686	2465.51
773.872	2430.25
774.059	2462.22
774.245	2381.62
774.432	2453.7
774.618	2370.38
774.804	2423.47
774.991	2358.76
775.177	2456.21
775.363	2418.82
775.55	2461.45
775.736	2355.27
775.922	2380.46
776.109	2369.03
776.295	2424.83
776.481	2418.05
776.667	2412.04
776.853	2361.67
777.04	2369.42
777.226	2347.13
777.412	2467.45
777.598	2351.4
777.784	2349.27
777.97	2354.88
778.156	2377.94
778.342	2341.13
778.528	2315.94
778.715	2268.86
778.901	2296.37
779.087	2362.63
779.272	2284.55
779.458	2277.77
779.644	2315.36
779.83	2281.07
780.016	2394.02
780.202	2314.39
780.388	2291.14
780.574	2199.5
780.76	2261.11
780.946	2295.6
781.131	2296.57
781.317	2274.48
781.503	2251.81
781.689	2241.54
781.874	2374.45
782.06	2259.75
782.246	2272.93
782.432	2251.04
782.617	2250.45
782.803	2295.79
782.989	2174.89
783.174	2235.34
783.36	2164.43
783.545	2222.75
783.731	2207.25
783.916	2109.99
784.102	2188.26
784.288	2199.31
784.473	2185.94
784.659	2139.05
784.844	2209.77
785.029	2153.97
785.215	2133.43
785.4	2102.43
785.586	2221.2
785.771	2089.45
785.956	2190.59
786.142	2173.34
786.327	2099.14
786.512	2103.21
786.698	2089.45
786.883	2039.46
787.068	1988.51
787.254	2105.34
787.439	2042.95
787.624	2069.11
787.809	2054.38
787.994	2072.21
788.18	2126.26
788.365	2055.93
788.55	2036.36
788.735	2042.95
788.92	2039.85
789.105	2010.98
789.29	2041.6
789.475	2012.73
789.66	2004.78
789.845	1983.86
790.03	1932.32
790.215	2035.78
790.4	2013.5
790.585	2034.23
790.77	2036.56
790.955	1906.55
791.14	2002.26
791.325	2044.89
791.51	1887.18
791.695	1989.48
791.879	1962.93
792.064	1912.56
792.249	2004.78
792.434	1918.18
792.618	1964.87
792.803	1999.55
792.988	1928.06
793.173	1915.66
793.357	1993.16
793.542	1932.9
793.727	1942.59
793.911	1982.89
794.096	1923.41
794.281	1998.78
794.465	2045.86
794.65	1978.24
794.834	1974.75
795.019	1986.76
795.203	2020.28
795.388	1977.27
795.572	2073.18
795.757	2018.93
795.941	2002.46
796.126	1989.28
796.31	1933.1
796.494	1999.75
796.679	1979.01
796.863	1935.42
797.048	1976.88
797.232	1968.94
797.416	1984.63
797.601	1934.26
797.785	2076.47
797.969	2001.3
798.153	1962.16
798.338	2010.4
798.522	2044.31
798.706	2012.53
798.89	2013.11
799.074	2120.64
799.258	2078.41
799.443	2037.33
799.627	2028.23
799.811	2040.43
799.995	2002.65
800.179	1981.92
800.363	1971.85
800.547	2044.89
800.731	2071.82
800.915	1959.25
801.099	1984.83
801.283	1979.01
801.467	1972.04
801.651	1985.6
801.835	2053.22
802.019	2013.5
802.202	2008.46
802.386	1941.23
802.57	1949.18
802.754	1963.9
802.938	1932.9
803.121	1994.13
803.305	2056.9
803.489	2001.68
803.673	1978.82
803.856	1984.83
804.04	2001.68
804.224	1997.42
804.407	1985.99
804.591	1948.4
804.775	1989.86
804.958	2016.02
805.142	2094.49
805.326	1996.65
805.509	2010.4
805.693	2031.71
805.876	2052.45
806.06	2030.55
806.243	2015.83
806.427	2016.6
806.61	2020.48
806.794	2006.14
806.977	2032.68
807.16	2020.48
807.344	2007.69
807.527	2032.68
807.71	1980.37
807.894	2032.49
808.077	2044.11
808.26	1949.18
808.444	1997.23
808.627	2040.82
808.81	1937.75
808.993	1927.67
809.177	1950.73
809.36	1978.43
809.543	1965.65
809.726	1865.48
809.909	1905.39
810.092	1881.75
810.276	1886.79
810.459	1936.2
810.642	1858.12
810.825	1792.24
811.008	1832.74
811.191	1774.03
811.374	1790.69
811.557	1791.47
811.74	1873.81
811.923	1777.91
812.106	1755.24
812.289	1707.58
812.472	1736.44
812.654	1786.62
812.837	1723.85
813.02	1663.01
813.203	1646.35
813.386	1577.57
813.569	1555.48
813.751	1550.45
813.934	1570.01
814.117	1563.43
814.3	1492.71
814.482	1493.29
814.665	1450.47
814.848	1425.67
815.03	1377.62
815.213	1383.05
815.396	1392.74
815.578	1352.63
815.761	1296.06
815.943	1386.92
816.126	1294.89
816.309	1258.28
816.491	1236.58
816.674	1141.25
816.856	1246.65
817.039	1194.92
817.221	1324.92
817.403	1252.27
817.586	1275.91
817.768	1261.57
817.951	1160.43
818.133	1207.32
818.315	1203.64
818.498	1252.46
818.68	1302.64
818.862	1281.14
819.045	1281.72
819.227	1277.65
819.409	1240.84
819.591	1273.97
819.774	1255.37
819.956	1224.18
820.138	1288.89
820.32	1316.21
820.502	1319.5
820.684	1392.54
820.866	1395.06
821.048	1408.04
821.231	1425.29
821.413	1412.3
821.595	1425.67
821.777	1414.24
821.959	1409.79
822.141	1474.5
822.323	1356.12
822.505	1293.73
822.686	1247.43
822.868	1196.28
823.05	1136.41
823.232	1128.66
823.414	1053.68
823.596	1128.46
823.778	1120.13
823.96	1152.49
824.141	1100.76
824.323	1145.9
824.505	1217.59
824.687	1256.53
824.868	1306.52
825.05	1396.03
825.232	1372.78
825.413	1454.54
825.595	1396.42
825.777	1328.61
825.958	1362.7
826.14	1384.6
826.321	1403.97
826.503	1384.4
826.685	1364.06
826.866	1391.38
827.048	1409.4
827.229	1359.99
827.411	1338.49
827.592	1297.99
827.773	1293.54
827.955	1278.04
828.136	1256.14
828.318	1195.31
828.499	1285.4
828.68	1216.04
828.862	1269.32
829.043	1276.68
829.224	1245.88
829.406	1233.48
829.587	1226.11
829.768	1217.98
829.949	1243.94
830.131	1261.96
830.312	1298.38
830.493	1221.08
830.674	1271.45
830.855	1233.28
831.036	1236.38
831.218	1316.21
831.399	1313.49
831.58	1265.06
831.761	1240.64
831.942	1243.55
832.123	1248.59
832.304	1174.38
832.485	1205.58
832.666	1229.41
832.847	1272.61
833.028	1225.92
833.209	1231.93
833.389	1227.08
833.57	1156.17
833.751	1235.03
833.932	1255.56
834.113	1270.09
834.294	1215.07
834.475	1245.49
834.655	1307.68
834.836	1293.54
835.017	1263.12
835.198	1220.49
835.378	1243.94
835.559	1306.71
835.74	1250.91
835.92	1238.32
836.101	1236.38
836.281	1276.49
836.462	1266.03
836.643	1289.08
836.823	1311.56
837.004	1291.02
837.184	1368.9
837.365	1293.34
837.545	1351.27
837.726	1281.91
837.906	1341.01
838.087	1290.44
838.267	1284.43
838.448	1224.18
838.628	1304
838.808	1272.03
838.989	1340.23
839.169	1244.33
839.349	1326.47
839.53	1325.89
839.71	1342.56
839.89	1296.06
840.07	1360.77
840.251	1223.4
840.431	1294.12
840.611	1292.37
840.791	1254.59
840.971	1320.47
841.151	1259.05
841.332	1240.84
841.512	1308.46
841.692	1233.28
841.872	1286.17
842.052	1260.99
842.232	1292.96
842.412	1259.24
842.592	1278.42
842.772	1298.19
842.952	1284.04
843.132	1269.51
843.312	1260.02
843.492	1232.7
843.672	1286.76
843.851	1190.66
844.031	1260.6
844.211	1248.01
844.391	1178.06
844.571	1247.23
844.751	1269.32
844.93	1256.73
845.11	1206.74
845.29	1258.08
845.47	1265.25
845.649	1250.72
845.829	1269.9
846.009	1191.43
846.188	1250.14
846.368	1213.91
846.547	1245.1
846.727	1281.33
846.907	1202.09
847.086	1237.35
847.266	1251.49
847.445	1239.87
847.625	1243.36
847.804	1211.39
847.984	1254.4
848.163	1206.35
848.343	1218.56
848.522	1222.82
848.701	1223.01
848.881	1172.25
849.06	1200.34
849.239	1214.88
849.419	1219.14
849.598	1158.88
849.777	1163.53
849.957	1144.16
850.136	1102.7
850.315	1068.21
850.494	1116.26
850.674	1125.56
850.853	1192.98
851.032	1124.2
851.211	1173.03
851.39	1155.01
851.569	1051.55
851.748	1095.72
851.927	1138.35
852.107	1104.63
852.286	1086.42
852.465	1067.82
852.644	1124.59
852.823	1125.56
853.002	1114.13
853.181	1125.75
853.359	1118
853.538	1089.72
853.717	1132.53
853.896	1044.18
854.075	996.72
854.254	996.33
854.433	912.24
854.611	1019.19
854.79	909.92
854.969	986.45
855.148	1020.16
855.327	951.77
855.505	1019.38
855.684	994.97
855.863	1001.75
856.041	985.87
856.22	1015.32
856.399	1005.24
856.577	1107.73
856.756	1083.52
856.934	1155.4
857.113	1176.13
857.291	1074.8
857.47	1052.13
857.648	1052.32
857.827	1088.36
858.005	1099.4
858.184	1066.66
858.362	1138.73
858.541	1074.6
858.719	1062.2
858.898	1085.26
859.076	1070.53
859.254	1124.98
859.433	1035.47
859.611	1036.63
859.789	1002.92
859.967	1102.7
860.146	1127.5
860.324	992.84
860.502	1049.22
860.68	999.43
860.859	1023.26
861.037	1015.9
861.215	1026.36
861.393	1040.31
861.571	1016.67
861.749	1019.97
861.927	1066.08
862.105	1042.44
862.283	1029.65
862.461	1009.5
862.639	970.95
862.817	974.24
862.995	999.24
863.173	973.85
863.351	1007.37
863.529	1017.06
863.707	1045.93
863.885	1019
864.063	950.02
864.241	950.99
864.418	1054.84
864.596	953.51
864.774	953.9
864.952	992.07
865.129	1019.77
865.307	988.58
865.485	926.19
865.663	1009.7
865.84	891.12
866.018	939.56
866.196	845.59
866.373	873.11
866.551	841.52
866.728	795.61
866.906	841.91
867.084	859.74
867.261	862.06
867.439	883.57
867.616	916.12
867.794	905.66
867.971	930.07
868.149	900.62
868.326	967.46
868.503	937.04
868.681	927.94
868.858	926.97
869.035	897.52
869.213	974.05
869.39	891.71
869.567	981.99
869.745	901.59
869.922	936.85
870.099	929.49
870.276	901.2
870.454	949.44
870.631	955.64
870.808	914.76
870.985	944.4
871.162	965.52
871.339	939.95
871.517	885.7
871.694	895
871.871	877.76
872.048	907.98
872.225	877.56
872.402	885.89
872.579	851.21
872.756	874.46
872.933	819.24
873.11	880.08
873.287	871.94
873.463	882.02
873.64	847.14
873.817	892.29
873.994	846.95
874.171	854.51
874.348	900.04
874.524	831.45
874.701	859.16
874.878	784.76
875.055	861.29
875.231	871.56
875.408	894.61
875.585	789.41
875.762	839.97
875.938	855.09
876.115	859.93
876.291	840.56
876.468	824.09
876.645	785.53
876.821	817.31
876.998	831.06
877.174	804.71
877.351	810.33
877.527	823.12
877.704	847.34
877.88	838.42
878.057	790.18
878.233	885.51
878.409	807.23
878.586	812.27
878.762	787.28
878.938	774.68
879.115	760.73
879.291	804.33
879.467	733.03
879.644	768.29
879.82	817.31
879.996	794.83
880.172	736.9
880.349	779.72
880.525	785.53
880.701	756.86
880.877	783.21
881.053	774.1
881.229	806.46
881.405	793.48
881.581	749.5
881.757	770.23
881.933	779.33
882.109	800.84
882.285	768.29
882.461	744.46
882.637	744.26
882.813	704.16
882.989	740.97
883.165	818.08
883.341	743.1
883.517	822.15
883.693	784.56
883.869	794.64
884.044	730.51
884.22	807.23
884.396	792.12
884.572	763.64
884.747	810.72
884.923	761.7
885.099	771.19
885.275	826.03
885.45	798.9
885.626	769.45
885.801	760.93
885.977	750.46
886.153	712.3
886.328	755.69
886.504	723.92
886.679	779.14
886.855	760.34
887.03	752.01
887.206	820.21
887.381	772.55
887.557	782.24
887.732	794.83
887.908	737.68
888.083	813.63
888.258	770.61
888.434	730.7
888.609	748.72
888.784	798.9
888.96	764.8
889.135	721.4
889.31	711.52
889.485	740
889.661	749.11
889.836	787.08
890.011	758.99
890.186	781.46
890.361	757.83
890.537	786.89
890.712	782.82
890.887	775.26
891.062	722.37
891.237	810.91
891.412	720.43
891.587	762.48
891.762	768.48
891.937	794.83
892.112	722.56
892.287	731.67
892.462	693.11
892.637	693.7
892.812	670.06
892.987	686.53
893.161	678
893.336	703.38
893.511	709.78
893.686	701.45
893.861	685.56
894.035	663.28
894.21	723.34
894.385	667.35
894.56	686.14
894.734	618.52
894.909	645.84
895.084	620.27
895.258	633.05
895.433	637.32
895.608	607.87
895.782	579.38
895.957	601.08
896.131	597.98
896.306	540.44
896.48	543.15
896.655	559.62
896.829	503.44
897.004	488.13
897.178	520.87
897.353	501.11
897.527	540.83
897.701	506.92
897.876	483.29
898.05	559.04
898.224	527.85
898.399	552.65
898.573	532.3
898.747	418.77
898.921	488.71
899.096	400.94
899.27	405.79
899.444	396.1
899.618	446.67
899.792	467.21
899.967	456.36
900.141	469.92
900.315	445.89
900.489	427.87
900.663	460.23
900.837	448.41
901.011	415.09
901.185	515.45
901.359	437.56
901.533	442.6
901.707	465.85
901.881	457.71
902.055	408.89
902.229	444.54
902.403	500.34
902.576	448.99
902.75	456.55
902.924	561.56
903.098	502.85
903.272	514.67
903.446	565.05
903.619	546.25
903.793	551.29
903.967	553.04
904.14	582.87
904.314	590.82
904.488	516.22
904.661	604.38
904.835	542.57
905.009	611.35
905.182	626.66
905.356	587.91
905.529	571.64
905.703	525.91
905.876	558.85
906.05	511.19
906.223	504.21
906.397	428.07
906.57	442.21
906.744	470.5
906.917	445.31
907.09	475.15
907.264	448.02
907.437	434.46
907.61	410.63
907.784	405.79
907.957	413.34
908.13	395.71
908.304	453.45
908.477	386.61
908.65	399.01
908.823	371.11
908.996	442.02
909.17	410.44
909.343	405.59
909.516	403.46
909.689	369.36
909.862	358.51
910.035	407.34
910.208	362.97
910.381	355.41
910.554	472.05
910.727	386.99
910.9	377.5
911.073	368.59
911.246	426.71
911.419	420.71
911.592	403.46
911.765	382.73
911.938	365.68
912.11	387.19
912.283	383.7
912.456	435.43
912.629	398.62
912.802	335.26
912.974	332.36
913.147	334.88
913.32	268.81
913.493	287.99
913.665	314.14
913.838	336.43
914.01	336.62
914.183	321.7
914.356	324.03
914.528	368.2
914.701	427.87
914.873	387.19
915.046	342.04
915.218	329.64
915.391	260.86
915.563	288.57
915.736	333.71
915.908	338.36
916.081	342.82
916.253	324.03
916.425	347.47
916.598	353.09
916.77	313.95
916.942	334.29
917.115	249.05
917.287	326.16
917.459	291.28
917.632	306.4
917.804	243.23
917.976	306.4
918.148	289.93
918.32	286.63
918.493	359.68
918.665	394.55
918.837	327.71
919.009	397.84
919.181	375.56
919.353	346.11
919.525	333.13
919.697	331.39
919.869	331
920.041	397.26
920.213	458.29
920.385	392.81
920.557	348.44
920.729	378.28
920.901	386.99
921.073	350.57
921.244	332.55
921.416	400.36
921.588	372.08
921.76	332.16
921.932	408.31
922.103	341.46
922.275	368.78
922.447	355.8
922.619	272.88
922.79	347.47
922.962	313.56
923.134	361.81
923.305	290.31
923.477	286.83
923.648	288.76
923.82	309.11
923.991	288.57
924.163	263
924.335	294.58
924.506	259.9
924.677	355.41
924.849	283.53
925.02	316.28
925.192	317.24
925.363	282.76
925.535	306.59
925.706	300.2
925.877	327.9
926.049	272.68
926.22	292.06
926.391	324.03
926.562	320.93
926.734	268.23
926.905	327.71
927.076	269.2
927.247	277.14
927.419	231.22
927.59	251.37
927.761	270.36
927.932	246.33
928.103	259.12
928.274	243.43
928.445	199.45
928.616	230.45
928.787	218.05
928.958	242.46
929.129	251.18
929.3	217.85
929.471	189.57
929.642	151.78
929.813	102.19
929.984	206.23
930.155	127.18
930.326	175.03
930.496	127.37
930.667	77.77
930.838	123.5
931.009	109.74
931.18	125.24
931.35	113.62
931.521	125.44
931.692	98.89
931.863	52
932.033	105.29
932.204	109.74
932.374	117.88
932.545	66.15
932.716	118.65
932.886	101.41
933.057	38.64
933.227	38.64
933.398	130.47
933.568	41.74
933.739	28.76
933.909	25.46
934.08	59.75
934.25	-11.35
934.421	3.76
934.591	42.32
934.761	21.97
934.932	-0.89
935.102	32.82
935.272	42.51
935.443	40.77
935.613	10.54
935.783	47.74
935.953	3.57
936.123	165.93
936.294	-14.64
936.464	17.91
936.634	25.85
936.804	-2.63
936.974	-16.39
937.144	36.51
937.314	50.46
937.484	15.77
937.655	5.51
937.825	82.81
937.995	-4.38
938.165	52
938.334	3.96
938.504	44.64
938.674	19.84
938.844	33.21
939.014	85.33
939.184	55.3
939.354	138.22
939.524	97.54
939.694	41.16
939.863	63.24
940.033	147.33
940.203	98.5
940.373	82.04
940.542	95.02
940.712	57.62
940.882	118.85
941.051	96.18
941.221	87.65
941.391	127.57
941.56	47.16
941.73	42.71
941.899	155.85
942.069	45.61
942.238	89.79
942.408	52.78
942.577	59.17
942.747	57.04
942.916	1.05
943.086	31.86
943.255	111.49
943.425	77.39
943.594	51.42
943.763	-7.09
943.933	9.38
944.102	-29.18
944.271	48.52
944.441	74.29
944.61	42.32
944.779	58.2
944.948	114.59
945.117	11.9
945.287	34.37
945.456	-5.73
945.625	-4.18
945.794	43.48
945.963	33.99
946.132	79.52
946.301	26.82
946.47	54.91
946.639	-14.84
946.808	50.65
946.977	64.21
947.146	87.65
947.315	13.84
947.484	71.38
947.653	47.16
947.822	42.32
947.991	36.7
948.16	109.55
948.329	78.16
948.498	66.34
948.666	64.79
948.835	67.7
949.004	12.67
949.173	24.3
949.341	70.02
949.51	62.66
949.679	96.37
949.847	81.84
950.016	128.73
950.185	96.18
950.353	11.12
950.522	47.94
950.69	89.98
950.859	54.52
951.028	72.54
951.196	55.69
951.365	34.76
951.533	49.49
951.701	56.07
951.87	81.07
952.038	23.91
952.207	60.34
952.375	94.44
952.543	33.02
952.712	40.96
952.88	-1.66
953.048	108.97
953.217	61.69
953.385	50.07
953.553	90.17
953.721	-4.76
953.89	53.75
954.058	27.4
954.226	9.19
954.394	45.03
954.562	-5.73
954.73	80.87
954.898	55.3
955.067	70.99
955.235	31.27
955.403	93.85
955.571	116.14
955.739	62.85
955.907	10.16
956.075	25.07
956.243	13.84
956.41	61.69
956.578	2.41
956.746	12.09
956.914	35.92
957.082	86.3
957.25	60.34
957.418	6.86
957.585	40.96
957.753	85.72
957.921	25.27
958.089	59.56
958.256	37.86
958.424	67.12
958.592	51.42
958.759	32.24
958.927	69.83
959.095	12.29
959.262	50.26
959.43	60.72
959.597	26.82
959.765	47.74
959.932	16.16
960.1	57.04
960.267	50.65
960.435	42.9
960.602	86.3
960.77	25.07
960.937	20.04
961.104	57.82
961.272	-3.02
961.439	37.47
961.606	70.41
961.774	73.32
961.941	36.31
962.108	54.72
962.275	52.39
962.443	87.46
962.61	58.2
962.777	104.7
962.944	80.49
963.111	78.16
963.278	74.67
963.446	69.64
963.613	45.03
963.78	73.7
963.947	71.57
964.114	59.37
964.281	130.86
964.448	93.47
964.615	51.23
964.782	68.86
964.949	81.26
965.116	76.03
965.282	94.82
965.449	61.69
965.616	35.73
965.783	93.27
965.95	44.26
966.117	41.93
966.283	62.85
966.45	66.73
966.617	75.25
966.784	84.36
966.95	109.16
967.117	107.42
967.284	25.07
967.45	52.97
967.617	123.3
967.784	69.83
967.95	144.42
968.117	69.64
968.283	113.62
968.45	147.33
968.616	52.2
968.783	117.88
968.949	78.74
969.116	150.23
969.282	74.48
969.449	97.34
969.615	100.83
969.781	38.83
969.948	58.4
970.114	33.41
970.28	130.28
970.447	51.42
970.613	143.65
970.779	59.37
970.945	107.42
971.112	58.59
971.278	80.68
971.444	66.54
971.61	131.44
971.776	58.4
971.942	115.17
972.108	102.96
972.275	60.53
972.441	82.23
972.607	156.63
972.773	18.68
972.939	108.58
973.105	72.54
973.271	33.6
973.437	72.15
973.602	28.95
973.768	104.32
973.934	71.38
974.1	75.25
974.266	13.45
974.432	88.82
974.598	51.81
974.763	109.94
974.929	66.73
975.095	130.09
975.261	31.86
975.426	49.49
975.592	64.21
975.758	100.64
975.923	32.82
976.089	34.18
976.255	95.99
976.42	103.54
976.586	94.24
976.751	74.48
976.917	144.42
977.082	86.49
977.248	25.85
977.413	-8.25
977.579	50.46
977.744	88.24
977.91	41.74
978.075	57.82
978.24	100.25
978.406	70.6
978.571	40.77
978.736	32.24
978.902	65.37
979.067	30.11
979.232	-12.32
979.397	43.67
979.563	122.53
979.728	36.7
979.893	55.49
980.058	35.54
980.223	85.33
980.388	59.95
980.554	58.4
980.719	36.12
980.884	56.07
981.049	107.8
981.214	31.86
981.379	78.35
981.544	38.44
981.709	53.17
981.874	32.24
982.039	66.54
982.204	89.59
982.368	66.15
982.533	43.29
982.698	102.19
982.863	96.57
983.028	47.74
983.193	69.25
983.357	71.19
983.522	59.17
983.687	30.5
983.852	35.92
984.016	34.37
984.181	60.53
984.346	89.2
984.51	71.38
984.675	64.21
984.839	72.54
985.004	82.42
985.168	100.05
985.333	82.62
985.498	54.72
985.662	95.6
985.827	76.42
985.991	36.7
986.155	15.58
986.32	90.17
986.484	92.5
986.649	74.29
986.813	2.79
986.977	67.31
987.142	84.75
987.306	32.63
987.47	35.34
987.634	38.83
987.799	72.35
987.963	90.95
988.127	86.3
988.291	138.22
988.455	62.08
988.62	52.97
988.784	89.4
988.948	78.35
989.112	44.45
989.276	71.57
989.44	58.2
989.604	57.24
989.768	36.31
989.932	132.8
990.096	45.81
990.26	22.75
990.424	29.34
990.588	48.52
990.752	108.19
990.915	70.6
991.079	14.61
991.243	33.21
991.407	75.84
991.571	35.15
991.734	54.91
991.898	86.1
992.062	131.25
992.226	45.03
992.389	30.31
992.553	13.26
992.717	2.79
992.88	35.73
993.044	48.52
993.207	46.19
993.371	93.47
993.535	61.5
993.698	52.97
993.862	78.74
994.025	107.03
994.189	65.95
994.352	39.02
994.515	43.29
994.679	82.42
994.842	38.64
995.006	89.79
995.169	8.61
995.332	19.84
995.496	66.15
995.659	-4.57
995.822	46.39
995.985	22.56
996.149	100.25
996.312	42.32
996.475	99.67
996.638	50.46
996.801	99.67
996.964	112.45
997.128	37.47
997.291	36.7
997.454	59.37
997.617	6.47
997.78	83.2
997.943	32.44
998.106	77.39
998.269	52.59
998.432	65.18
998.595	58.98
998.758	-10.58
998.92	-9.03
999.083	-0.31
999.246	20.62
999.409	-11.74
999.572	-26.85
999.735	33.99
999.897	69.25
1000.06	22.94
1000.223	7.25
1000.386	84.17
1000.548	65.95
1000.711	61.89
1000.874	58.4
1001.036	-10.77
1001.199	82.23
1001.361	9.77
1001.524	48.32
1001.687	46.97
1001.849	6.28
1002.012	52.59
1002.174	70.02
1002.337	77.58
1002.499	25.46
1002.661	78.74
1002.824	8.02
1002.986	11.71
1003.149	72.74
1003.311	16.94
1003.473	90.75
1003.636	33.6
1003.798	38.06
1003.96	45.61
1004.123	33.41
1004.285	5.51
1004.447	25.07
1004.609	43.87
1004.771	103.74
1004.933	-1.28
1005.096	15
1005.258	-9.99
1005.42	19.46
1005.582	52.78
1005.744	66.92
1005.906	-8.83
1006.068	44.26
1006.23	1.82
1006.392	-27.24
1006.554	15.39
1006.716	51.81
1006.878	58.2
1007.04	-27.82
1007.202	9.38
1007.363	56.07
1007.525	28.17
1007.687	65.37
1007.849	69.05
1008.011	-16.97
1008.172	-16.19
1008.334	-0.89
1008.496	45.42
1008.658	-21.43
1008.819	-4.38
1008.981	-43.51
1009.143	5.7
1009.304	4.54
1009.466	19.84
1009.627	75.25
1009.789	147.72
1009.95	33.99
1010.112	15
1010.273	57.82
1010.435	8.8
1010.596	-3.99
1010.758	11.12
1010.919	4.54
1011.081	5.31
1011.242	36.31
1011.403	38.64
1011.565	21.97
1011.726	40.57
1011.887	-11.35
1012.049	23.33
1012.21	41.35
1012.371	62.85
1012.532	-39.25
1012.693	39.99
1012.855	2.41
1013.016	22.36
1013.177	63.05
1013.338	15.77
1013.499	100.25
1013.66	27.4
1013.821	45.03
1013.982	17.13
1014.143	14.03
1014.304	48.71
1014.465	53.55
1014.626	58.59
1014.787	12.87
1014.948	106.25
1015.109	-63.08
1015.27	61.3
1015.431	11.71
1015.592	-6.7
1015.752	69.44
1015.913	23.91
1016.074	40.19
1016.235	20.81
1016.395	8.99
1016.556	23.33
1016.717	9.96
1016.877	49.1
1017.038	-0.69
1017.199	46.58
1017.359	18.1
1017.52	27.79
1017.681	3.76
1017.841	22.75
1018.002	20.23
1018.162	29.92
1018.323	70.8
1018.483	14.81
1018.644	7.44
1018.804	-11.16
1018.964	-13.87
1019.125	-4.76
1019.285	33.79
1019.446	-24.14
1019.606	-23.17
1019.766	-14.06
1019.926	47.16
1020.087	20.42
1020.247	-24.72
1020.407	39.8
1020.567	58.98
1020.728	8.41
1020.888	6.67
1021.048	-5.54
1021.208	-23.36
1021.368	-14.64
1021.528	52.2
1021.688	52.2
1021.848	53.55
1022.008	20.23
1022.168	10.16
1022.328	21.97
1022.488	38.06
1022.648	1.82
1022.808	21.39
1022.968	43.67
1023.128	-5.54
1023.288	12.67
1023.448	32.63
1023.608	21.59
1023.767	59.56
1023.927	-20.84
1024.087	-27.24
1024.247	-21.04
1024.406	-1.28
1024.566	-26.08
1024.726	-20.84
1024.885	28.76
1025.045	21.39
1025.205	5.12
1025.364	18.29
1025.524	33.21
1025.683	-7.09
1025.843	28.17
1026.003	15.58
1026.162	67.7
1026.321	31.66
1026.481	-18.71
1026.64	-1.08
1026.8	40.57
1026.959	-0.11
1027.119	31.08
1027.278	8.61
1027.437	-3.41
1027.597	17.52
1027.756	44.64
1027.915	46.39
1028.074	21.39
1028.234	1.44
1028.393	37.09
1028.552	-9.03
1028.711	-64.24
1028.87	40.77
1029.03	-24.14
1029.189	0.66
1029.348	-57.85
1029.507	-8.25
1029.666	-23.94
1029.825	-13.09
1029.984	-14.45
1030.143	27.79
1030.302	3.57
1030.461	-64.63
1030.62	7.44
1030.779	36.7
1030.938	-19.88
1031.097	-25.88
1031.255	32.63
1031.414	45.61
1031.573	49.68
1031.732	-38.47
1031.891	4.73
1032.049	75.84
1032.208	39.02
1032.367	-15.61
1032.525	-4.18
1032.684	-22.2
1032.843	-19.1
1033.001	-70.83
1033.16	152.17
1033.319	61.11
1033.477	18.68
1033.636	-0.11
1033.794	-30.92
1033.953	22.36
1034.111	30.11
1034.27	-25.69
1034.428	19.65
1034.587	-36.34
1034.745	10.35
1034.903	-7.28
1035.062	33.41
1035.22	-28.01
1035.378	7.64
1035.537	-5.93
1035.695	26.43
1035.853	13.45
1036.011	32.05
1036.17	0.47
1036.328	-63.08
1036.486	6.67
1036.644	0.86
1036.802	-90.59
1036.96	-8.83
1037.119	-9.61
1037.277	-21.04
1037.435	-22.98
1037.593	-22.01
1037.751	17.32
1037.909	50.46
1038.067	50.46
