Data from pine_FLMT105791__49__17-20-23-079.txt Node

Date: Mon Mar 20 17:20:23 GMT 2023
User: antho
Spectrometer: FLMT10579
Trigger mode: 0
Integration Time (sec): 1.000000E-1
Scans to average: 10
Electric dark correction enabled: true
Nonlinearity correction enabled: false
Boxcar width: 0
XAxis mode: Wavelengths
Number of Pixels in Spectrum: 3648
>>>>>Begin Spectral Data<<<<<
345.248	-144.62
345.464	-144.62
345.681	-144.62
345.898	-164.18
346.114	-162.25
346.331	-53.55
346.548	22.01
346.764	-2.99
346.981	-8.41
347.197	15.42
347.414	12.71
347.631	-12.29
347.847	63.86
348.064	-16.16
348.28	16.97
348.497	-45.42
348.713	7.86
348.93	44.67
349.146	1.66
349.363	-1.24
349.579	39.25
349.796	-25.66
350.012	4.18
350.229	18.33
350.445	20.84
350.661	-12.29
350.878	11.93
351.094	21.43
351.311	34.02
351.527	26.85
351.743	3.79
351.96	50.1
352.176	51.46
352.392	37.31
352.609	43.51
352.825	21.62
353.041	21.62
353.257	13.29
353.474	4.76
353.69	34.41
353.906	21.62
354.122	-7.06
354.339	55.14
354.555	14.26
354.771	-2.99
354.987	52.42
355.203	52.81
355.42	18.13
355.636	-12.09
355.852	4.96
356.068	0.31
356.284	-33.79
356.5	59.98
356.716	35.18
356.932	13.48
357.148	56.11
357.364	0.89
357.58	60.56
357.796	59.21
358.012	60.56
358.228	35.18
358.444	-63.44
358.66	59.59
358.876	40.99
359.092	-2.79
359.308	13.29
359.524	28.98
359.74	21.81
359.956	-2.79
360.172	25.11
360.388	29.37
360.604	-10.16
360.819	82.65
361.035	38.47
361.251	51.65
361.467	-14.22
361.683	55.91
361.898	43.51
362.114	39.44
362.33	9.99
362.546	65.21
362.762	22.98
362.977	17.74
363.193	-25.66
363.409	30.92
363.624	-18.49
363.84	-0.08
364.056	10.38
364.271	13.68
364.487	60.76
364.703	-2.02
364.918	-40.96
365.134	-12.09
365.35	8.25
365.565	93.31
365.781	29.37
365.996	2.24
366.212	90.01
366.427	12.9
366.643	-7.64
366.858	0.31
367.074	-3.96
367.289	39.25
367.505	105.32
367.72	-35.54
367.936	1.86
368.151	59.98
368.367	29.37
368.582	17.16
368.798	2.05
369.013	67.54
369.228	26.85
369.444	2.05
369.659	49.71
369.874	-7.64
370.09	59.59
370.305	-49.68
370.52	10.19
370.736	65.41
370.951	17.74
371.166	51.84
371.381	85.94
371.597	17.36
371.812	-27.98
372.027	-5.7
372.242	21.81
372.458	73.93
372.673	15.03
372.888	14.06
373.103	20.46
373.318	93.69
373.533	43.32
373.749	14.64
373.964	-9.96
374.179	49.32
374.394	-24.69
374.609	87.3
374.824	-12.87
375.039	68.12
375.254	10.58
375.469	76.84
375.684	29.18
375.899	78.19
376.114	5.15
376.329	48.55
376.544	65.6
376.759	64.24
376.974	-20.62
377.189	0.5
377.404	1.47
377.619	65.6
377.834	-21.97
378.049	-11.51
378.264	-16.36
378.478	46.61
378.693	14.26
378.908	42.16
379.123	-11.71
379.338	79.55
379.553	38.28
379.767	28.21
379.982	38.09
380.197	43.32
380.412	16.58
380.626	24.33
380.841	107.06
381.056	9.8
381.271	94.47
381.485	-16.36
381.7	-9.38
381.915	47
382.129	0.5
382.344	55.33
382.559	31.5
382.773	54.94
382.988	-10.93
383.202	44.29
383.417	9.22
383.632	111.32
383.846	41.77
384.061	45.64
384.275	10.58
384.49	48.16
384.704	51.65
384.919	-2.21
385.133	17.94
385.348	49.91
385.562	-7.44
385.777	71.22
385.991	18.33
386.206	-7.06
386.42	13.87
386.634	71.99
386.849	42.54
387.063	43.51
387.277	-7.25
387.492	11.54
387.706	-4.54
387.92	0.11
388.135	49.32
388.349	45.64
388.563	34.02
388.778	15.23
388.992	43.12
389.206	82.46
389.42	120.43
389.635	2.83
389.849	37.31
390.063	52.23
390.277	20.07
390.491	100.67
390.706	46.03
390.92	41.96
391.134	18.71
391.348	42.54
391.562	-30.5
391.776	25.88
391.99	4.96
392.205	54.75
392.419	-3.76
392.633	10.58
392.847	94.47
393.061	10.38
393.275	80.52
393.489	40.02
393.703	27.82
393.917	77.61
394.131	-4.34
394.345	69.47
394.559	68.51
394.773	16.78
394.986	10.77
395.2	13.09
395.414	47
395.628	-7.06
395.842	52.23
396.056	29.95
396.27	-28.56
396.484	16.97
396.697	36.15
396.911	85.36
397.125	26.66
397.339	81.29
397.553	51.46
397.766	101.44
397.98	87.11
398.194	79.36
398.408	2.44
398.621	28.21
398.835	75.87
399.049	61.92
399.262	82.07
399.476	80.91
399.69	50.68
399.903	94.27
400.117	35.76
400.331	38.47
400.544	17.94
400.758	153.95
400.971	54.94
401.185	84.2
401.398	13.68
401.612	90.01
401.826	75.29
402.039	72.38
402.253	42.16
402.466	79.94
402.68	28.4
402.893	46.22
403.106	41.77
403.32	33.05
403.533	67.54
403.747	39.83
403.96	35.38
404.174	90.4
404.387	21.43
404.6	41.77
404.814	87.11
405.027	32.08
405.24	41.19
405.454	33.83
405.667	81.68
405.88	-19.26
406.094	60.95
406.307	89.82
406.52	40.02
406.733	30.14
406.947	22.39
407.16	102.41
407.373	99.51
407.586	10.38
407.799	22.39
408.012	85.75
408.226	61.72
408.439	88.85
408.652	10.58
408.865	73.74
409.078	74.32
409.291	65.79
409.504	8.06
409.717	37.89
409.93	80.52
410.143	55.33
410.357	2.83
410.57	12.9
410.783	55.91
410.996	74.51
411.209	53.59
411.421	82.46
411.634	38.09
411.847	2.44
412.06	56.3
412.273	64.44
412.486	62.69
412.699	148.33
412.912	60.76
413.125	81.68
413.338	47.39
413.55	55.52
413.763	75.48
413.976	78.97
414.189	50.29
414.402	31.89
414.615	91.56
414.827	23.75
415.04	83.23
415.253	68.51
415.466	68.89
415.678	102.41
415.891	57.07
416.104	64.24
416.316	46.61
416.529	26.46
416.742	51.07
416.954	83.42
417.167	75.09
417.38	58.43
417.592	83.62
417.805	41.57
418.017	15.03
418.23	78.97
418.442	39.64
418.655	39.44
418.868	73.16
419.08	115.78
419.293	99.51
419.505	90.98
419.718	83.23
419.93	84.01
420.142	46.81
420.355	94.47
420.567	97.18
420.78	94.27
420.992	59.79
421.205	117.52
421.417	24.14
421.629	70.64
421.842	18.91
422.054	23.36
422.266	94.47
422.479	125.47
422.691	52.42
422.903	98.92
423.115	45.06
423.328	79.55
423.54	71.8
423.752	69.67
423.964	59.01
424.177	78.39
424.389	93.89
424.601	184.56
424.813	90.4
425.025	112.49
425.238	111.32
425.45	60.37
425.662	71.99
425.874	389.74
426.086	76.06
426.298	103.57
426.51	106.48
426.722	83.04
426.934	65.02
427.146	102.41
427.358	39.64
427.57	116.94
427.782	85.17
427.994	71.8
428.206	71.8
428.418	32.86
428.63	100.47
428.842	128.37
429.054	96.02
429.266	140.39
429.478	52.81
429.69	80.71
429.902	70.25
430.114	113.46
430.325	108.42
430.537	48.36
430.749	70.44
430.961	57.66
431.173	81.49
431.384	107.45
431.596	17.36
431.808	70.06
432.02	103.96
432.231	99.7
432.443	126.24
432.655	96.21
432.867	56.11
433.078	122.17
433.29	149.3
433.502	146.59
433.713	129.92
433.925	112.1
434.136	132.64
434.348	96.02
434.56	70.25
434.771	187.47
434.983	61.53
435.194	68.12
435.406	78
435.617	153.95
435.829	166.15
436.04	137.48
436.252	130.7
436.463	177.78
436.675	120.62
436.886	111.91
437.098	128.76
437.309	163.64
437.521	117.33
437.732	115.01
437.943	127.21
438.155	141.35
438.366	62.89
438.578	169.45
438.789	121.79
439	133.99
439.211	115.59
439.423	123.14
439.634	156.66
439.845	143.68
440.057	154.53
440.268	159.95
440.479	117.91
440.69	127.79
440.902	121.4
441.113	112.49
441.324	118.11
441.535	130.12
441.746	192.5
441.957	90.79
442.168	126.82
442.38	173.52
442.591	168.29
442.802	112.49
443.013	122.37
443.224	149.3
443.435	98.34
443.646	134.38
443.857	147.75
444.068	113.84
444.279	106.09
444.49	223.5
444.701	155.11
444.912	224.67
445.123	192.89
445.334	187.66
445.545	148.33
445.756	155.89
445.967	139.61
446.178	180.88
446.388	211.49
446.599	202.19
446.81	207.23
447.021	174.49
447.232	197.35
447.443	207.42
447.653	155.5
447.864	188.82
448.075	159.18
448.286	211.3
448.496	187.27
448.707	201.61
448.918	154.34
449.129	252.95
449.339	151.43
449.55	188.44
449.761	160.92
449.971	233.38
450.182	167.51
450.393	178.17
450.603	172.94
450.814	233
451.024	201.42
451.235	204.9
451.446	245.4
451.656	230.48
451.867	178.17
452.077	217.69
452.288	244.62
452.498	245.78
452.709	170.42
452.919	217.5
453.13	151.24
453.34	232.8
453.55	157.82
453.761	221.57
453.971	234.35
454.182	230.67
454.392	220.02
454.602	269.23
454.813	233
455.023	264.58
455.233	159.37
455.444	205.87
455.654	157.44
455.864	192.5
456.075	192.7
456.285	189.21
456.495	204.32
456.705	233.58
456.916	254.89
457.126	274.27
457.336	207.04
457.546	151.62
457.756	168.67
457.967	253.53
458.177	185.34
458.387	214.98
458.597	210.91
458.807	221.76
459.017	209.75
459.227	216.33
459.437	178.75
459.647	245.01
459.857	244.43
460.068	198.51
460.278	260.7
460.488	234.74
460.698	296.93
460.908	200.45
461.117	165.77
461.327	163.05
461.537	206.07
461.747	211.49
461.957	222.73
462.167	301.78
462.377	247.53
462.587	237.26
462.797	270.2
463.007	222.34
463.216	250.05
463.426	274.46
463.636	266.13
463.846	207.81
464.056	199.67
464.265	253.15
464.475	210.33
464.685	240.36
464.895	261.87
465.104	243.07
465.314	273.68
465.524	197.15
465.733	223.31
465.943	287.44
466.153	294.03
466.362	276.4
466.572	255.47
466.782	243.46
466.991	241.91
467.201	296.35
467.41	216.14
467.62	268.65
467.829	233.38
468.039	280.27
468.249	247.72
468.458	265.55
468.668	305.07
468.877	277.37
469.086	333.16
469.296	321.73
469.505	228.93
469.715	324.25
469.924	326.77
470.134	344.21
470.343	318.25
470.552	266.52
470.762	268.65
470.971	242.68
471.18	238.23
471.39	284.73
471.599	218.66
471.808	309.53
472.018	249.08
472.227	307.01
472.436	328.51
472.645	268.07
472.855	253.53
473.064	319.8
473.273	301.2
473.482	333.55
473.691	338.98
473.901	333.75
474.11	289.96
474.319	370.56
474.528	322.12
474.737	378.11
474.946	318.05
475.155	312.63
475.364	356.61
475.573	314.76
475.783	327.16
475.992	330.45
476.201	369.01
476.41	324.83
476.619	303.13
476.828	300.03
477.037	286.08
477.245	324.06
477.454	350.8
477.663	337.04
477.872	315.34
478.081	365.33
478.29	306.04
478.499	418.61
478.708	330.06
478.917	414.93
479.125	382.18
479.334	370.75
479.543	329.68
479.752	372.3
479.961	369.59
480.169	383.15
480.378	358.74
480.587	481.19
480.796	401.56
481.004	362.81
481.213	425.78
481.422	376.37
481.63	344.6
481.839	414.34
482.048	442.63
482.256	384.31
482.465	410.28
482.674	426.94
482.882	416.28
483.091	470.34
483.299	463.17
483.508	394.97
483.716	417.44
483.925	429.84
484.134	397.68
484.342	398.65
484.551	456.58
484.759	438.37
484.967	432.17
485.176	463.94
485.384	433.14
485.593	472.66
485.801	447.28
486.01	448.44
486.218	432.56
486.426	371.14
486.635	418.22
486.843	421.13
487.051	388.58
487.26	387.8
487.468	413.38
487.676	447.28
487.885	392.06
488.093	418.61
488.301	435.46
488.509	441.47
488.717	459.29
488.926	407.18
489.134	425.19
489.342	451.16
489.55	423.06
489.758	443.41
489.967	410.28
490.175	564.5
490.383	439.53
490.591	540.86
490.799	442.05
491.007	528.46
491.215	439.53
491.423	468.79
491.631	479.06
491.839	483.9
492.047	508.12
492.255	450.19
492.463	403.11
492.671	467.63
492.879	486.22
493.087	479.25
493.295	496.49
493.503	493.39
493.711	493.01
493.919	535.63
494.127	509.67
494.334	569.73
494.542	470.34
494.75	529.82
494.958	514.32
495.166	577.09
495.374	524.01
495.581	536.21
495.789	526.14
495.997	576.32
496.205	523.81
496.412	526.14
496.62	516.06
496.828	545.9
497.035	505.99
497.243	554.81
497.451	560.04
497.658	551.32
497.866	540.86
498.074	583.1
498.281	545.12
498.489	603.44
498.696	567.79
498.904	513.16
499.112	526.52
499.319	606.54
499.527	560.04
499.734	611.39
499.942	500.76
500.149	505.6
500.357	547.45
500.564	520.91
500.771	578.64
500.979	524.01
501.186	541.64
501.394	567.02
501.601	549.58
501.808	582.13
502.016	544.74
502.223	534.47
502.43	584.45
502.638	549.39
502.845	535.24
503.052	628.44
503.26	564.5
503.467	662.53
503.674	575.35
503.881	592.59
504.089	658.08
504.296	614.68
504.503	561.2
504.71	621.07
504.917	584.84
505.125	604.99
505.332	594.72
505.539	607.51
505.746	661.37
505.953	632.12
506.16	607.7
506.367	671.45
506.574	679.97
506.781	657.3
506.988	600.73
507.195	630.57
507.402	611.97
507.609	663.7
507.816	599.95
508.023	602.86
508.23	614.29
508.437	578.06
508.644	656.72
508.851	695.08
509.058	696.44
509.265	633.47
509.472	665.05
509.679	732.48
509.885	647.62
510.092	654.78
510.299	638.9
510.506	635.02
510.713	666.8
510.92	646.84
511.126	704.38
511.333	689.85
511.54	726.08
511.746	750.88
511.953	725.12
512.16	746.62
512.367	685.98
512.573	686.17
512.78	700.12
512.987	711.75
513.193	716.98
513.4	659.82
513.606	658.66
513.813	725.89
514.02	714.46
514.226	769.29
514.433	728.02
514.639	665.63
514.846	708.65
515.052	701.28
515.259	701.48
515.465	722.98
515.672	732.87
515.878	810.56
516.085	731.9
516.291	796.03
516.497	732.09
516.704	719.3
516.91	664.47
517.117	677.26
517.323	623.59
517.529	681.13
517.736	714.85
517.942	690.63
518.148	689.08
518.354	715.82
518.561	701.09
518.767	737.32
518.973	734.61
519.179	761.15
519.386	717.56
519.592	735.96
519.798	743.13
520.004	825.48
520.21	742.36
520.417	823.34
520.623	809.2
520.829	824.31
521.035	826.06
521.241	802.81
521.447	833.42
521.653	895.81
521.859	847.95
522.065	833.61
522.271	938.62
522.477	859.19
522.683	889.61
522.889	864.81
523.095	915.76
523.301	826.06
523.507	838.84
523.713	866.94
523.919	834.39
524.125	916.34
524.331	871.01
524.537	974.86
524.742	924.09
524.948	932.04
525.154	922.74
525.36	1025.62
525.566	949.09
525.772	997.72
525.977	889.61
526.183	961.1
526.389	967.11
526.595	904.33
526.8	913.24
527.006	869.65
527.212	829.16
527.417	836.13
527.623	857.64
527.829	947.92
528.034	922.35
528.24	934.75
528.446	921.77
528.651	961.49
528.857	966.33
529.062	1022.52
529.268	952.19
529.473	982.99
529.679	980.28
529.884	1052.16
530.09	1031.24
530.295	1040.73
530.501	1033.95
530.706	1011.86
530.912	978.15
531.117	1001.01
531.323	1024.84
531.528	1052.35
531.733	1064.56
531.939	1001.79
532.144	1040.92
532.35	1022.52
532.555	1049.25
532.76	1053.32
532.966	1044.99
533.171	1047.9
533.376	1003.14
533.581	986.29
533.787	1008.76
533.992	1032.4
534.197	1063.4
534.402	999.46
534.607	1053.9
534.813	1142.06
535.018	1023.87
535.223	1031.24
535.428	1076.38
535.633	1078.9
535.838	1070.18
536.043	1082.19
536.249	1160.66
536.454	1073.28
536.659	1072.12
536.864	1059.33
537.069	1071.73
537.274	1104.47
537.479	1130.05
537.684	1127.53
537.889	1054.29
538.094	1174.03
538.299	1098.66
538.504	1133.73
538.708	1152.52
538.913	1124.23
539.118	1095.75
539.323	1139.73
539.528	1101.76
539.733	1101.95
539.938	1151.94
540.142	1142.45
540.347	1102.34
540.552	1058.36
540.757	1086.65
540.962	1082
541.166	1054.49
541.371	1069.79
541.576	1092.07
541.781	985.32
541.985	1105.83
542.19	1114.16
542.395	1155.82
542.599	1195.73
542.804	1161.63
543.008	1186.62
543.213	1112.03
543.418	1094.4
543.622	1140.9
543.827	1085.48
544.031	1195.92
544.236	1171.12
544.44	1147.29
544.645	1243.2
544.849	1133.15
545.054	1188.75
545.258	1243.97
545.463	1162.79
545.667	1162.6
545.872	1176.35
546.076	1180.42
546.281	1177.9
546.485	1171.12
546.689	1181.2
546.894	1230.41
547.098	1170.73
547.302	1124.82
547.507	1152.72
547.711	1186.62
547.915	1204.64
548.119	1147.87
548.324	1181
548.528	1247.85
548.732	1187.4
548.936	1213.94
549.141	1230.02
549.345	1165.31
549.549	1209.48
549.753	1224.98
549.957	1279.81
550.161	1261.6
550.366	1199.6
550.57	1154.27
550.774	1198.44
550.978	1165.12
551.182	1211.81
551.386	1191.46
551.59	1183.13
551.794	1192.63
551.998	1219.75
552.202	1171.12
552.406	1116.48
552.61	1192.24
552.814	1190.3
553.018	1255.79
553.222	1189.72
553.426	1195.53
553.63	1275.74
553.833	1202.12
554.037	1143.03
554.241	1216.07
554.445	1229.44
554.649	1216.65
554.853	1162.4
555.056	1259.47
555.26	1234.67
555.464	1239.32
555.668	1231.38
555.871	1274.19
556.075	1243.78
556.279	1196.11
556.483	1162.6
556.686	1189.33
556.89	1207.35
557.094	1243.2
557.297	1146.9
557.501	1209.68
557.704	1128.69
557.908	1215.88
558.112	1177.51
558.315	1255.21
558.519	1168.6
558.722	1171.9
558.926	1130.63
559.129	1097.11
559.333	1105.83
559.536	1141.87
559.74	1110.09
559.943	1128.69
560.147	1094.2
560.35	1130.43
560.553	1125.98
560.757	1075.8
560.96	1207.93
561.164	1141.48
561.367	1171.12
561.57	1148.26
561.774	1185.26
561.977	1156.01
562.18	1122.88
562.384	1190.5
562.587	1128.11
562.79	1142.25
562.993	1120.36
563.197	1137.99
563.4	1203.86
563.603	1199.21
563.806	1216.26
564.009	1082.77
564.212	1134.89
564.416	1060.3
564.619	1163.76
564.822	1082.19
565.025	1149.81
565.228	1130.63
565.431	1137.02
565.634	1032.4
565.837	1089.75
566.04	1065.34
566.243	1071.92
566.446	978.54
566.649	1119.78
566.852	1043.44
567.055	1056.81
567.258	1095.17
567.461	1154.07
567.664	1119
567.867	1028.14
568.07	1101.95
568.273	1086.26
568.475	1110.87
568.678	1042.47
568.881	1057.39
569.084	1084.32
569.287	979.31
569.489	976.6
569.692	1069.79
569.895	1056.23
570.098	997.91
570.3	996.94
570.503	958.77
570.706	983.57
570.909	972.72
571.111	953.93
571.314	957.42
571.516	953.35
571.719	1007.79
571.922	955.87
572.124	973.31
572.327	995.2
572.529	945.41
572.732	957.42
572.935	980.67
573.137	1048.87
573.34	955.48
573.542	1023.68
573.745	994.04
573.947	1017.09
574.15	973.69
574.352	943.47
574.554	1017.29
574.757	942.89
574.959	954.32
575.162	938.24
575.364	938.04
575.566	1025.23
575.769	910.53
575.971	942.5
576.173	861.13
576.376	924.67
576.578	960.91
576.78	1003.53
576.982	835.55
577.185	914.21
577.387	902.78
577.589	923.51
577.791	951.02
577.993	938.24
578.196	905.88
578.398	958.77
578.6	961.49
578.802	883.02
579.004	878.76
579.206	871.39
579.408	925.84
579.61	910.34
579.812	945.41
580.014	904.14
580.216	893.09
580.418	895.81
580.62	870.62
580.822	843.88
581.024	927.97
581.226	933.39
581.428	899.49
581.63	995.01
581.832	903.75
582.034	939.01
582.236	886.7
582.438	962.84
582.64	962.84
582.841	988.61
583.043	1020.39
583.245	948.31
583.447	971.37
583.649	922.93
583.85	924.48
584.052	977.57
584.254	891.35
584.456	943.66
584.657	855.12
584.859	906.08
585.061	924.87
585.262	879.73
585.464	846.79
585.666	941.72
585.867	877.98
586.069	973.11
586.27	891.16
586.472	922.74
586.674	865.19
586.875	883.79
587.077	892.32
587.278	919.64
587.48	864.81
587.681	1016.32
587.883	922.93
588.084	824.12
588.285	855.89
588.487	827.8
588.688	863.64
588.89	808.62
589.091	805.33
589.292	822.76
589.494	786.92
589.695	790.02
589.896	731.7
590.098	735.77
590.299	823.34
590.5	762.7
590.702	731.9
590.903	785.76
591.104	853.57
591.305	788.28
591.507	844.27
591.708	846.21
591.909	793.7
592.11	860.35
592.311	856.28
592.512	806.1
592.714	796.03
592.915	808.62
593.116	811.91
593.317	823.54
593.518	821.21
593.719	807.07
593.92	852.21
594.121	875.27
594.322	844.85
594.523	821.99
594.724	784.01
594.925	801.45
595.126	838.26
595.327	849.11
595.528	828.38
595.729	797
595.929	819.28
596.13	817.34
596.331	811.14
596.532	841.94
596.733	868.1
596.934	827.41
597.135	873.14
597.335	823.93
597.536	806.1
597.737	825.09
597.938	821.02
598.138	846.59
598.339	828.19
598.54	812.11
598.74	803.97
598.941	812.69
599.142	850.86
599.342	820.44
599.543	796.8
599.744	779.36
599.944	819.47
600.145	800.1
600.345	829.35
600.546	889.22
600.746	875.66
600.947	917.89
601.147	810.75
601.348	890.19
601.548	772.58
601.749	806.49
601.949	763.09
602.15	800.29
602.35	809.01
602.551	876.43
602.751	749.53
602.951	777.04
603.152	745.65
603.352	829.74
603.552	823.93
603.753	850.86
603.953	831.29
604.153	797.38
604.354	799.32
604.554	841.94
604.754	823.15
604.954	784.01
605.155	832.84
605.355	812.88
605.555	866.74
605.755	871.78
605.955	796.03
606.155	872.75
606.356	782.85
606.556	813.66
606.756	809.4
606.956	745.07
607.156	839.81
607.356	759.02
607.556	843.11
607.756	811.91
607.956	830.13
608.156	824.51
608.356	756.5
608.556	845.04
608.756	808.04
608.956	802.42
609.156	800.87
609.356	741.2
609.556	754.76
609.755	781.88
609.955	731.12
610.155	786.15
610.355	769.1
610.555	746.23
610.755	791.57
610.954	723.76
611.154	751.66
611.354	819.86
611.554	752.43
611.753	747.98
611.953	719.3
612.153	798.74
612.352	822.18
612.552	701.09
612.752	711.17
612.951	761.35
613.151	759.02
613.351	688.88
613.55	742.55
613.75	771.42
613.949	727.44
614.149	728.6
614.348	759.99
614.548	735.58
614.747	681.33
614.947	727.44
615.146	650.33
615.346	737.9
615.545	723.95
615.745	719.69
615.944	758.83
616.144	754.37
616.343	734.22
616.542	677.65
616.742	698.96
616.941	706.52
617.14	682.1
617.34	734.8
617.539	720.27
617.738	704.77
617.938	771.42
618.137	725.5
618.336	666.41
618.535	735.19
618.734	705.16
618.934	742.55
619.133	712.33
619.332	742.16
619.531	678.23
619.73	704.58
619.929	728.6
620.128	708.84
620.328	789.44
620.527	687.33
620.726	683.07
620.925	733.83
621.124	689.47
621.323	690.05
621.522	642
621.721	668.35
621.92	635.8
622.119	737.71
622.318	680.36
622.517	667.57
622.715	665.44
622.914	636.96
623.113	662.53
623.312	598.6
623.511	714.27
623.71	651.3
623.909	677.84
624.107	709.62
624.306	638.32
624.505	629.79
624.704	650.33
624.902	639.67
625.101	711.36
625.3	654.01
625.499	643.16
625.697	658.08
625.896	654.2
626.095	648.58
626.293	621.27
626.492	632.12
626.69	682.49
626.889	632.12
627.088	690.82
627.286	618.17
627.485	631.34
627.683	642.77
627.882	673.38
628.08	594.92
628.279	645.1
628.477	720.47
628.676	588.14
628.874	618.94
629.073	602.67
629.271	581.94
629.469	638.12
629.668	599.37
629.866	639.48
630.065	622.24
630.263	656.33
630.461	595.3
630.66	618.94
630.858	649.55
631.056	657.88
631.254	675.52
631.453	563.72
631.651	672.8
631.849	644.52
632.047	620.1
632.245	614.1
632.444	642.19
632.642	659.63
632.84	650.52
633.038	634.25
633.236	585.42
633.434	592.98
633.632	584.84
633.83	607.12
634.028	647.81
634.227	633.86
634.425	682.1
634.623	639.48
634.821	603.83
635.019	644.32
635.216	612.16
635.414	653.23
635.612	608.48
635.81	606.74
636.008	675.71
636.206	623.98
636.404	632.31
636.602	610.61
636.8	623.59
636.997	656.92
637.195	625.14
637.393	621.85
637.591	669.12
637.789	643.94
637.986	652.46
638.184	618.55
638.382	657.88
638.58	636.96
638.777	673.77
638.975	633.86
639.173	612.94
639.37	626.11
639.568	611.77
639.765	650.13
639.963	607.12
640.161	661.95
640.358	655.75
640.556	569.34
640.753	573.22
640.951	587.17
641.148	647.23
641.346	599.76
641.543	611.77
641.741	633.47
641.938	586.97
642.136	634.25
642.333	572.05
642.531	671.83
642.728	681.72
642.925	593.37
643.123	596.66
643.32	606.15
643.517	580.19
643.715	590.27
643.912	596.85
644.109	611.97
644.306	610.42
644.504	549
644.701	621.07
644.898	620.69
645.095	568.18
645.293	595.3
645.49	631.73
645.687	595.5
645.884	619.14
646.081	518
646.278	582.13
646.475	580.58
646.672	557.91
646.87	613.13
647.067	578.06
647.264	572.05
647.461	545.71
647.658	543.77
647.855	596.85
648.052	548.22
648.249	482.16
648.446	538.73
648.642	541.06
648.839	543.19
649.036	547.06
649.233	485.06
649.43	507.54
649.627	480.02
649.824	528.46
650.021	504.44
650.217	505.6
650.414	505.6
650.611	512.96
650.808	554.04
651.004	518.97
651.201	558.88
651.398	573.8
651.595	538.54
651.791	494.94
651.988	537.76
652.185	525.56
652.381	533.11
652.578	487.97
652.775	543.38
652.971	505.6
653.168	507.54
653.364	556.36
653.561	494.36
653.757	508.51
653.954	505.02
654.15	488.74
654.347	598.02
654.543	520.91
654.74	468.59
654.936	480.61
655.133	528.66
655.329	531.17
655.525	501.72
655.722	521.68
655.918	459.49
656.115	520.52
656.311	440.69
656.507	431.2
656.704	396.71
656.9	432.36
657.096	410.86
657.292	407.37
657.489	525.36
657.685	478.86
657.881	456.19
658.077	447.48
658.273	471.11
658.47	540.47
658.666	461.62
658.862	500.76
659.058	468.59
659.254	520.13
659.45	454.26
659.646	502.5
659.842	490.87
660.038	522.46
660.234	442.63
660.43	489.71
660.626	533.69
660.822	505.02
661.018	534.66
661.214	517.22
661.41	426.16
661.606	524.59
661.802	530.98
661.998	497.07
662.194	457.36
662.39	493.39
662.586	510.44
662.781	495.52
662.977	502.5
663.173	508.31
663.369	509.09
663.564	498.82
663.76	509.28
663.956	461.81
664.152	525.75
664.347	456.19
664.543	454.84
664.739	461.23
664.934	436.04
665.13	415.51
665.326	498.43
665.521	462.59
665.717	460.65
665.912	437.21
666.108	382.76
666.304	452.71
666.499	466.85
666.695	383.73
666.89	451.74
667.086	510.25
667.281	472.28
667.477	506.76
667.672	457.74
667.867	455.23
668.063	473.82
668.258	435.66
668.454	442.44
668.649	513.16
668.844	437.98
669.04	492.81
669.235	439.92
669.43	426.94
669.626	404.66
669.821	442.83
670.016	414.93
670.211	453.48
670.407	436.04
670.602	429.65
670.797	426.94
670.992	474.6
671.187	411.83
671.382	473.63
671.578	437.01
671.773	472.47
671.968	404.08
672.163	430.62
672.358	470.53
672.553	406.21
672.748	427.52
672.943	491.65
673.138	429.46
673.333	444.57
673.528	421.71
673.723	443.6
673.918	438.18
674.113	373.08
674.308	513.54
674.503	460.46
674.698	477.7
674.892	437.98
675.087	465.3
675.282	452.9
675.477	420.54
675.672	449.8
675.867	426.74
676.061	391.68
676.256	385.86
676.451	434.69
676.646	420.54
676.84	399.81
677.035	379.86
677.23	401.36
677.424	420.16
677.619	443.02
677.814	475.76
678.008	484.67
678.203	354.09
678.397	399.43
678.592	447.48
678.787	466.46
678.981	412.79
679.176	425.58
679.37	428.88
679.565	399.23
679.759	414.73
679.954	435.66
680.148	445.93
680.342	470.34
680.537	435.27
680.731	417.25
680.926	439.34
681.12	448.06
681.314	409.89
681.509	405.24
681.703	411.44
681.897	432.56
682.092	420.93
682.286	395.16
682.48	483.12
682.674	460.46
682.869	418.22
683.063	413.57
683.257	481.57
683.451	401.36
683.645	441.08
683.839	428.29
684.034	403.88
684.228	445.93
684.422	359.9
684.616	401.36
684.81	467.82
685.004	413.96
685.198	419.38
685.392	455.81
685.586	401.56
685.78	457.74
685.974	450.96
686.168	421.13
686.362	487
686.556	389.93
686.75	382.38
686.944	387.99
687.138	425.39
687.331	343.63
687.525	392.06
687.719	299.84
687.913	364.36
688.107	361.06
688.301	349.83
688.494	398.26
688.688	344.01
688.882	302.55
689.076	325.8
689.269	338.2
689.463	431.2
689.657	359.71
689.85	369.78
690.044	351.96
690.238	371.14
690.431	373.46
690.625	379.28
690.818	378.5
691.012	413.96
691.205	442.05
691.399	384.31
691.593	419.77
691.786	478.09
691.98	465.11
692.173	479.25
692.366	462.01
692.56	476.34
692.753	525.75
692.947	394.19
693.14	525.17
693.333	499.59
693.527	414.73
693.72	475.18
693.914	467.63
694.107	467.24
694.3	474.21
694.493	471.5
694.687	533.5
694.88	455.61
695.073	537.57
695.266	501.72
695.46	508.51
695.653	558.49
695.846	541.06
696.039	460.07
696.232	507.92
696.425	553.65
696.618	569.92
696.812	537.18
697.005	608.87
697.198	665.83
697.391	580.58
697.584	595.5
697.777	646.84
697.97	622.82
698.163	619.14
698.356	604.41
698.549	682.68
698.742	673.97
698.935	617.78
699.127	671.64
699.32	598.21
699.513	629.4
699.706	683.07
699.899	663.89
700.092	632.7
700.285	666.6
700.477	639.67
700.67	692.37
700.863	708.26
701.056	767.93
701.248	722.21
701.441	779.17
701.634	720.08
701.826	796.61
702.019	681.72
702.212	762.31
702.404	703.42
702.597	712.52
702.79	754.76
702.982	770.65
703.175	791.57
703.367	793.9
703.56	802.03
703.752	906.46
703.945	851.24
704.137	819.47
704.33	839.23
704.522	881.86
704.715	846.21
704.907	873.91
705.1	914.79
705.292	895.61
705.484	888.25
705.677	926.61
705.869	890.38
706.061	925.45
706.254	964.78
706.446	932.42
706.638	930.29
706.831	1018.64
707.023	988.81
707.215	1039.95
707.407	1025.04
707.599	1014.96
707.792	1023.1
707.984	996.56
708.176	1051
708.368	1051
708.56	1047.32
708.752	1014.96
708.944	1017.67
709.136	1086.84
709.329	1073.47
709.521	1183.33
709.713	1078.12
709.905	1131.79
710.097	1158.53
710.289	1126.95
710.481	1142.25
710.672	1144.19
710.864	1143.03
711.056	1210.26
711.248	1185.65
711.44	1186.62
711.632	1183.33
711.824	1216.26
712.016	1254.63
712.207	1256.95
712.399	1253.27
712.591	1280.78
712.783	1286.59
712.975	1271.48
713.166	1230.41
713.358	1252.11
713.55	1330.38
713.741	1336.39
713.933	1323.21
714.125	1301.9
714.316	1275.74
714.508	1359.83
714.7	1369.91
714.891	1324.18
715.083	1433.26
715.274	1352.66
715.466	1366.03
715.657	1395.29
715.849	1298.8
716.04	1360.22
716.232	1301.13
716.423	1373.78
716.615	1293.38
716.806	1280.98
716.998	1267.8
717.189	1226.15
717.381	1184.68
717.572	1155.62
717.763	1177.71
717.955	1157.37
718.146	1147.68
718.337	1106.22
718.528	1096.14
718.72	1044.6
718.911	1099.63
719.102	1047.9
719.293	1121.33
719.485	1118.23
719.676	1115.71
719.867	1039.76
720.058	1087.42
720.249	1074.64
720.44	1057.59
720.632	1119
720.823	1148.45
721.014	1231.18
721.205	1238.74
721.396	1272.06
721.587	1361.57
721.778	1350.34
721.969	1391.22
722.16	1441.4
722.351	1423.19
722.542	1515.02
722.733	1476.85
722.924	1422.22
723.115	1469.49
723.305	1468.14
723.496	1471.43
723.687	1395.87
723.878	1385.79
724.069	1414.27
724.26	1437.14
724.45	1350.53
724.641	1352.08
724.832	1398.77
725.023	1391.8
725.213	1375.33
725.404	1358.28
725.595	1349.76
725.785	1335.61
725.976	1409.82
726.167	1404.97
726.357	1371.07
726.548	1453.99
726.739	1389.09
726.929	1435.59
727.12	1470.85
727.31	1478.6
727.501	1441.79
727.691	1477.63
727.882	1483.44
728.072	1494.49
728.263	1479.37
728.453	1537.11
728.644	1519.48
728.834	1521.61
729.024	1473.75
729.215	1479.76
729.405	1547.38
729.596	1561.91
729.786	1577.02
729.976	1574.31
730.167	1586.52
730.357	1532.85
730.547	1550.28
730.737	1580.32
730.928	1639.21
731.118	1662.66
731.308	1592.52
731.498	1622.94
731.688	1683
731.879	1636.7
732.069	1704.89
732.259	1724.46
732.449	1699.47
732.639	1813.01
732.829	1794.02
733.019	1827.54
733.209	1856.02
733.399	1899.03
733.589	1890.5
733.779	1907.55
733.969	1891.86
734.159	1954.83
734.349	1986.22
734.539	2021.67
734.729	1968.97
734.919	2026.71
735.109	2036.59
735.299	1979.05
735.488	2034.65
735.678	2052.28
735.868	2027.68
736.058	2066.23
736.248	2023.8
736.437	1944.95
736.627	1984.86
736.817	2081.73
737.007	2029.23
737.196	2049.38
737.386	2035.23
737.576	2023.61
737.765	2121.84
737.955	2028.65
738.144	2171.44
738.334	2097.62
738.524	2040.66
738.713	2097.23
738.903	2107.5
739.092	2160.98
739.282	2138.89
739.471	2118.16
739.661	2102.85
739.85	2166.4
740.04	2142.76
740.229	2194.3
740.419	2196.63
740.608	2218.71
740.797	2178.99
740.987	2248.16
741.176	2232.66
741.365	2155.94
741.555	2113.9
741.744	2219.49
741.933	2202.24
742.123	2237.89
742.312	2234.21
742.501	2240.41
742.69	2243.32
742.88	2203.21
743.069	2298.54
743.258	2222.97
743.447	2277.61
743.636	2283.04
743.825	2236.34
744.014	2238.67
744.204	2290.01
744.393	2232.08
744.582	2273.16
744.771	2304.16
744.96	2272.57
745.149	2294.47
745.338	2239.44
745.527	2298.92
745.716	2256.3
745.905	2274.71
746.094	2324.5
746.283	2335.54
746.471	2314.23
746.66	2337.29
746.849	2329.34
747.038	2376.62
747.227	2284.78
747.416	2342.71
747.604	2258.04
747.793	2296.02
747.982	2306.67
748.171	2274.9
748.359	2326.63
748.548	2330.12
748.737	2311.13
748.926	2295.05
749.114	2212.51
749.303	2307.26
749.491	2276.64
749.68	2228.21
749.869	2338.84
750.057	2291.76
750.246	2259.59
750.434	2291.17
750.623	2289.43
750.811	2289.82
751	2297.18
751.188	2288.66
751.377	2295.82
751.565	2239.64
751.754	2243.32
751.942	2212.71
752.131	2293.31
752.319	2190.81
752.507	2226.66
752.696	2248.16
752.884	2302.02
753.072	2214.84
753.261	2279.55
753.449	2271.61
753.637	2209.8
753.825	2321.4
754.014	2220.26
754.202	2227.82
754.39	2310.74
754.578	2293.31
754.766	2255.72
754.955	2242.16
755.143	2296.21
755.331	2232.47
755.519	2254.75
755.707	2201.66
755.895	2195.66
756.083	2219.88
756.271	2172.6
756.459	2194.69
756.647	2246.03
756.835	2179.96
757.023	2162.72
757.211	2167.18
757.399	2185.58
757.587	2160.2
757.775	2122.03
757.963	2147.22
758.151	2178.41
758.339	2133.85
758.526	2145.09
758.714	2158.26
758.902	2059.26
759.09	2046.86
759.278	1888.57
759.465	1772.13
759.653	1530.52
759.841	1422.22
760.028	1193.6
760.216	1056.42
760.404	1025.81
760.591	820.25
760.779	675.71
760.967	615.07
761.154	465.3
761.342	523.42
761.529	545.9
761.717	593.56
761.905	535.05
762.092	623.2
762.28	564.3
762.467	562.95
762.655	509.47
762.842	532.92
763.029	562.56
763.217	551.71
763.404	573.6
763.592	573.22
763.779	551.71
763.966	576.9
764.154	622.04
764.341	664.47
764.528	638.32
764.716	692.37
764.903	711.75
765.09	779.75
765.277	797.96
765.465	888.25
765.652	934.17
765.839	995.97
766.026	1071.15
766.213	1077.54
766.4	1155.43
766.588	1318.76
766.775	1293.38
766.962	1385.79
767.149	1382.31
767.336	1488.09
767.523	1443.92
767.71	1530.91
767.897	1583.42
768.084	1665.37
768.271	1695.79
768.458	1741.9
768.645	1734.34
768.832	1746.74
769.019	1768.25
769.206	1776.78
769.392	1832.77
769.579	1930.8
769.766	1902.13
769.953	1853.11
770.14	1917.44
770.327	1859.7
770.513	1929.25
770.7	1987.57
770.887	1886.44
771.073	1944.37
771.26	1891.09
771.447	1899.03
771.634	1921.31
771.82	1981.18
772.007	1875.97
772.193	1955.99
772.38	1981.95
772.567	1956.19
772.753	1933.71
772.94	1955.22
773.126	1948.82
773.313	1977.3
773.499	1991.83
773.686	1985.83
773.872	1943.59
774.059	1970.33
774.245	1888.18
774.432	1912.59
774.618	1853.69
774.804	1938.75
774.991	1868.22
775.177	1956.96
775.363	1939.14
775.55	1972.65
775.736	1888.57
775.922	1904.07
776.109	1907.55
776.295	1952.89
776.481	1903.49
776.667	1912.79
776.853	1898.64
777.04	1882.17
777.226	1886.82
777.412	1957.15
777.598	1879.65
777.784	1888.18
777.97	1877.14
778.156	1867.26
778.342	1879.07
778.528	1870.16
778.715	1812.42
778.901	1821.53
779.087	1883.53
779.272	1786.27
779.458	1777.94
779.644	1837.42
779.83	1795.96
780.016	1888.57
780.202	1837.61
780.388	1819.79
780.574	1780.46
780.76	1806.03
780.946	1835.67
781.131	1829.86
781.317	1833.35
781.503	1798.09
781.689	1783.17
781.874	1894.77
782.06	1810.29
782.246	1769.8
782.432	1770.38
782.617	1801.57
782.803	1839.36
782.989	1725.43
783.174	1757.21
783.36	1754.49
783.545	1739.38
783.731	1746.55
783.916	1706.25
784.102	1775.03
784.288	1756.82
784.473	1737.44
784.659	1706.64
784.844	1773.87
785.029	1698.11
785.215	1689.4
785.4	1692.11
785.586	1753.14
785.771	1692.5
785.956	1761.47
786.142	1720.39
786.327	1660.33
786.512	1712.06
786.698	1680.87
786.883	1647.93
787.068	1621
787.254	1694.05
787.439	1639.21
787.624	1688.81
787.809	1659.95
787.994	1621.97
788.18	1671.76
788.365	1595.62
788.55	1629.72
788.735	1648.32
788.92	1617.13
789.105	1626.62
789.29	1673.9
789.475	1576.44
789.66	1600.08
789.845	1581.48
790.03	1565.98
790.215	1621.97
790.4	1643.86
790.585	1644.83
790.77	1580.7
790.955	1518.7
791.14	1569.08
791.325	1623.33
791.51	1492.94
791.695	1575.67
791.879	1544.67
792.064	1520.84
792.249	1612.48
792.434	1538.85
792.618	1565.98
792.803	1591.36
792.988	1578.57
793.173	1563.27
793.357	1583.8
793.542	1521.42
793.727	1549.12
793.911	1553
794.096	1522.58
794.281	1597.17
794.465	1651.61
794.65	1566.17
794.834	1561.13
795.019	1638.05
795.203	1604.53
795.388	1626.43
795.572	1640.18
795.757	1580.7
795.941	1613.64
796.126	1606.28
796.31	1526.45
796.494	1599.3
796.679	1522.38
796.863	1532.46
797.048	1620.81
797.232	1589.23
797.416	1600.27
797.601	1590.97
797.785	1627.01
797.969	1612.67
798.153	1571.4
798.338	1590.78
798.522	1601.05
798.706	1620.81
798.89	1612.09
799.074	1710.9
799.258	1644.64
799.443	1578.57
799.627	1603.76
799.811	1663.05
799.995	1588.84
800.179	1572.37
800.363	1575.28
800.547	1603.95
800.731	1615.77
800.915	1540.98
801.099	1562.3
801.283	1564.23
801.467	1584.97
801.651	1584.97
801.835	1633.98
802.019	1617.51
802.202	1590.58
802.386	1537.88
802.57	1569.47
802.754	1539.82
802.938	1541.57
803.121	1553.77
803.305	1644.45
803.489	1560.75
803.673	1592.52
803.856	1581.28
804.04	1570.43
804.224	1620.23
804.407	1552.22
804.591	1569.08
804.775	1617.9
804.958	1581.67
805.142	1687.46
805.326	1593.1
805.509	1628.17
805.693	1648.32
805.876	1657.81
806.06	1602.79
806.243	1608.02
806.427	1650.84
806.61	1633.79
806.794	1558.62
806.977	1637.47
807.16	1606.86
807.344	1629.91
807.527	1617.32
807.71	1620.61
807.894	1605.12
808.077	1653.55
808.26	1605.31
808.444	1570.63
808.627	1637.47
808.81	1595.82
808.993	1499.33
809.177	1539.82
809.36	1555.52
809.543	1584.58
809.726	1479.95
809.909	1519.87
810.092	1491.39
810.276	1495.45
810.459	1554.74
810.642	1492.74
810.825	1475.5
811.008	1449.54
811.191	1411.17
811.374	1439.65
811.557	1439.65
811.74	1529.36
811.923	1407.88
812.106	1404.2
812.289	1358.09
812.472	1384.24
812.654	1425.12
812.837	1358.47
813.02	1342.78
813.203	1352.08
813.386	1250.95
813.569	1259.08
813.751	1199.21
813.934	1228.47
814.117	1234.86
814.3	1185.46
814.482	1175.38
814.665	1133.34
814.848	1130.63
815.03	1110.87
815.213	1106.6
815.396	1136.83
815.578	1094.59
815.761	1076.19
815.943	1118.81
816.126	1032.59
816.309	1031.62
816.491	987.84
816.674	948.7
816.856	997.52
817.039	956.06
817.221	1045.77
817.403	1001.2
817.586	993.65
817.768	977.96
817.951	953.35
818.133	955.09
818.315	983.38
818.498	983.57
818.68	1056.42
818.862	1000.43
819.045	1059.72
819.227	1065.34
819.409	1026.2
819.591	1002.56
819.774	1010.12
819.956	985.32
820.138	1076.19
820.32	1045.57
820.502	1078.9
820.684	1115.52
820.866	1110.67
821.048	1123.07
821.231	1141.09
821.413	1145.74
821.595	1111.06
821.777	1139.35
821.959	1108.15
822.141	1162.4
822.323	1091.3
822.505	1057.2
822.686	1008.57
822.868	978.54
823.05	917.51
823.232	887.09
823.414	851.63
823.596	929.52
823.778	885.34
823.96	910.53
824.141	883.99
824.323	926.81
824.505	970.21
824.687	1018.25
824.868	1029.3
825.05	1105.63
825.232	1098.27
825.413	1184.88
825.595	1109.9
825.777	1066.3
825.958	1093.62
826.14	1075.22
826.321	1142.45
826.503	1084.9
826.685	1135.08
826.866	1149.42
827.048	1151.17
827.229	1079.48
827.411	1060.1
827.592	1026.59
827.773	1044.99
827.955	997.91
828.136	1005.85
828.318	995.59
828.499	1026.97
828.68	958.19
828.862	990.74
829.043	1040.34
829.224	1014.38
829.406	946.96
829.587	977.37
829.768	966.72
829.949	1000.43
830.131	987.64
830.312	1069.02
830.493	976.79
830.674	1030.27
830.855	1005.27
831.036	976.6
831.218	1059.33
831.399	1079.09
831.58	991.91
831.761	1006.05
831.942	1028.33
832.123	977.57
832.304	977.96
832.485	968.85
832.666	986.29
832.847	986.09
833.028	1003.14
833.209	985.51
833.389	972.72
833.57	944.63
833.751	963.42
833.932	1025.81
834.113	983.38
834.294	963.42
834.475	1012.25
834.655	1049.45
834.836	1030.65
835.017	1014.77
835.198	943.66
835.378	1010.89
835.559	1062.82
835.74	1012.05
835.92	975.05
836.101	967.3
836.281	1017.87
836.462	1024.45
836.643	1060.88
836.823	1056.81
837.004	1040.34
837.184	1077.74
837.365	1045.77
837.545	1096.33
837.726	1034.34
837.906	1095.95
838.087	1031.62
838.267	1046.74
838.448	1019.61
838.628	1033.37
838.808	1031.82
838.989	1074.83
839.169	983.57
839.349	1073.09
839.53	1064.17
839.71	1083.74
839.89	1017.09
840.07	1113.19
840.251	1001.4
840.431	1040.34
840.611	1037.24
840.791	1010.12
840.971	1043.64
841.151	1008.57
841.332	970.98
841.512	1080.25
841.692	996.75
841.872	1009.73
842.052	1010.7
842.232	1064.56
842.412	963.42
842.592	1012.83
842.772	1041.89
842.952	1029.1
843.132	1010.89
843.312	978.73
843.492	966.72
843.672	1015.15
843.851	958.97
844.031	1019.03
844.211	1030.27
844.391	971.17
844.571	988.22
844.751	1058.55
844.93	1019.03
845.11	952.19
845.29	1051
845.47	1034.92
845.649	1007.02
845.829	1005.27
846.009	964.78
846.188	1031.62
846.368	977.57
846.547	982.22
846.727	1045.38
846.907	962.84
847.086	995.2
847.266	978.54
847.445	1007.6
847.625	967.3
847.804	976.21
847.984	996.36
848.163	942.11
848.343	989.58
848.522	991.52
848.701	980.47
848.881	941.14
849.06	990.16
849.239	1003.92
849.419	970.4
849.598	923.32
849.777	945.6
849.957	954.51
850.136	887.67
850.315	852.79
850.494	887.86
850.674	891.93
850.853	934.75
851.032	900.46
851.211	960.13
851.39	907.82
851.569	878.95
851.748	869.65
851.927	923.9
852.107	901.04
852.286	887.67
852.465	876.04
852.644	934.36
852.823	937.46
853.002	906.66
853.181	920.99
853.359	938.04
853.538	843.88
853.717	925.64
853.896	828.58
854.075	811.14
854.254	801.65
854.433	762.7
854.611	813.46
854.79	736.16
854.969	804.75
855.148	799.13
855.327	774.13
855.505	831.48
855.684	771.03
855.863	798.16
856.041	786.34
856.22	835.36
856.399	776.46
856.577	848.34
856.756	841.56
856.934	954.9
857.113	960.13
857.291	864.42
857.47	862.29
857.648	838.26
857.827	882.63
858.005	908.59
858.184	825.48
858.362	941.34
858.541	863.45
858.719	840.2
858.898	851.24
859.076	852.21
859.254	925.06
859.433	862.29
859.611	840.01
859.789	815.01
859.967	893.09
860.146	903.36
860.324	795.25
860.502	777.43
860.68	790.99
860.859	823.73
861.037	806.68
861.215	830.9
861.393	838.26
861.571	822.57
861.749	821.6
861.927	845.04
862.105	820.44
862.283	815.98
862.461	802.42
862.639	758.44
862.817	796.22
862.995	819.28
863.173	775.1
863.351	795.06
863.529	817.92
863.707	859.96
863.885	792.35
864.063	762.51
864.241	742.55
864.418	862.09
864.596	770.06
864.774	767.55
864.952	807.46
865.129	790.99
865.307	745.85
865.485	735.96
865.663	800.29
865.84	740.03
866.018	777.23
866.196	666.41
866.373	707.29
866.551	694.89
866.728	646.84
866.906	669.51
867.084	711.55
867.261	725.12
867.439	739.65
867.616	755.34
867.794	735.19
867.971	736.35
868.149	739.84
868.326	741
868.503	744.68
868.681	735.77
868.858	716.59
869.035	710
869.213	759.6
869.39	720.27
869.567	809.98
869.745	723.95
869.922	735.77
870.099	751.27
870.276	779.56
870.454	762.9
870.631	763.67
870.808	749.33
870.985	769.29
871.162	807.65
871.339	731.7
871.517	680.94
871.694	663.89
871.871	698.57
872.048	694.89
872.225	671.25
872.402	756.7
872.579	681.13
872.756	710.39
872.933	673.77
873.11	709.42
873.287	733.06
873.463	694.89
873.64	690.24
873.817	730.54
873.994	718.33
874.171	656.72
874.348	707.68
874.524	653.82
874.701	698.38
874.878	608.29
875.055	696.63
875.231	704
875.408	712.33
875.585	655.37
875.762	694.7
875.938	664.67
876.115	656.14
876.291	664.67
876.468	662.15
876.645	613.9
876.821	639.48
876.998	651.49
877.174	685.78
877.351	631.54
877.527	611
877.704	671.83
877.88	648.58
878.057	643.16
878.233	684.43
878.409	627.27
878.586	666.41
878.762	605.96
878.938	657.88
879.115	596.66
879.291	614.1
879.467	581.55
879.644	642.58
879.82	644.9
879.996	607.7
880.172	576.12
880.349	631.92
880.525	649.94
880.701	577.87
880.877	605.57
881.053	634.25
881.229	636.96
881.405	666.41
881.581	569.34
881.757	601.5
881.933	623.2
882.109	656.33
882.285	635.6
882.461	589.49
882.637	585.42
882.813	607.32
882.989	629.79
883.165	667.77
883.341	575.54
883.517	657.5
883.693	609.45
883.869	624.17
884.044	595.89
884.22	649.36
884.396	665.44
884.572	638.51
884.747	671.25
884.923	629.6
885.099	666.8
885.275	642.58
885.45	576.51
885.626	577.67
885.801	599.76
885.977	596.27
886.153	533.69
886.328	641.03
886.504	579.8
886.679	624.37
886.855	586.78
887.03	620.3
887.206	659.24
887.381	621.46
887.557	620.3
887.732	634.25
887.908	629.4
888.083	634.83
888.258	608.67
888.434	603.44
888.609	616.81
888.784	661.37
888.96	596.85
889.135	580.58
889.31	567.4
889.485	587.94
889.661	606.74
889.836	657.3
890.011	633.86
890.186	621.46
890.361	573.41
890.537	640.25
890.712	615.07
890.887	602.86
891.062	617.78
891.237	661.37
891.412	573.22
891.587	601.31
891.762	612.94
891.937	669.12
892.112	568.57
892.287	583.68
892.462	559.07
892.637	540.67
892.812	568.95
892.987	585.04
893.161	551.32
893.336	552.68
893.511	553.65
893.686	554.62
893.861	538.54
894.035	563.53
894.21	552.49
894.385	506.37
894.56	571.86
894.734	475.18
894.909	509.67
895.084	510.25
895.258	524.59
895.433	505.21
895.608	490.29
895.782	466.46
895.957	464.14
896.131	480.02
896.306	428.68
896.48	456.58
896.655	437.98
896.829	395.36
897.004	408.34
897.178	407.76
897.353	392.64
897.527	447.09
897.701	408.73
897.876	354.09
898.05	443.99
898.224	432.56
898.399	466.08
898.573	428.1
898.747	326.58
898.921	406.98
899.096	335.49
899.27	355.25
899.444	345.18
899.618	335.68
899.792	371.72
899.967	344.01
900.141	393.61
900.315	316.11
900.489	331.61
900.663	356.22
900.837	357.96
901.011	332.2
901.185	418.61
901.359	393.42
901.533	366.49
901.707	369.2
901.881	372.11
902.055	332
902.229	341.5
902.403	433.72
902.576	385.86
902.75	382.76
902.924	501.92
903.098	409.69
903.272	432.36
903.446	438.95
903.619	439.73
903.793	447.67
903.967	414.93
904.14	450.19
904.314	467.82
904.488	428.49
904.661	479.06
904.835	431.2
905.009	523.23
905.182	530.4
905.356	481.57
905.529	440.11
905.703	428.29
905.876	439.92
906.05	417.64
906.223	387.61
906.397	361.65
906.57	364.55
906.744	338.78
906.917	373.85
907.09	390.32
907.264	356.8
907.437	351.76
907.61	311.46
907.784	329.48
907.957	380.63
908.13	316.7
908.304	375.6
908.477	326.58
908.65	342.85
908.823	293.64
908.996	409.11
909.17	332.58
909.343	330.45
909.516	336.26
909.689	321.93
909.862	306.23
910.035	338.01
910.208	298.1
910.381	313.6
910.554	391.09
910.727	317.28
910.9	285.89
911.073	280.85
911.246	352.35
911.419	386.64
911.592	335.49
911.765	301.78
911.938	282.4
912.11	324.83
912.283	302.94
912.456	366.1
912.629	329.29
912.802	286.47
912.974	246.75
913.147	255.47
913.32	226.8
913.493	269.23
913.665	295.58
913.838	290.54
914.01	266.52
914.183	284.53
914.356	257.41
914.528	310.69
914.701	359.9
914.873	318.44
915.046	274.27
915.218	250.05
915.391	215.95
915.563	247.53
915.736	271.75
915.908	308.75
916.081	306.62
916.253	274.07
916.425	277.75
916.598	289.38
916.77	271.36
916.942	255.67
917.115	203.16
917.287	279.11
917.459	251.79
917.632	228.54
917.804	194.64
917.976	249.85
918.148	271.94
918.32	264.77
918.493	309.14
918.665	311.46
918.837	273.3
919.009	310.69
919.181	325.03
919.353	288.02
919.525	308.17
919.697	271.94
919.869	294.8
920.041	321.35
920.213	370.95
920.385	292.48
920.557	276.4
920.729	316.31
920.901	320.76
921.073	286.08
921.244	267.48
921.416	324.64
921.588	294.22
921.76	284.53
921.932	340.33
922.103	292.28
922.275	288.41
922.447	302.36
922.619	198.12
922.79	285.7
922.962	274.85
923.134	283.37
923.305	235.13
923.477	245.01
923.648	233.19
923.82	272.52
923.991	213.43
924.163	191.15
924.335	229.51
924.506	206.26
924.677	291.12
924.849	218.66
925.02	251.98
925.192	272.91
925.363	232.22
925.535	258.57
925.706	220.79
925.877	272.52
926.049	222.53
926.22	265.16
926.391	252.37
926.562	272.52
926.734	210.52
926.905	265.55
927.076	190.57
927.247	248.5
927.419	171.19
927.59	210.33
927.761	217.69
927.932	210.72
928.103	241.91
928.274	166.54
928.445	170.61
928.616	177.59
928.787	187.27
928.958	208.97
929.129	200.84
929.3	147.36
929.471	143.29
929.642	109.39
929.813	86.14
929.984	173.9
930.155	106.29
930.326	141.16
930.496	107.06
930.667	67.15
930.838	119.66
931.009	83.81
931.18	97.57
931.35	103.96
931.521	115.78
931.692	70.64
931.863	47.19
932.033	84.2
932.204	95.24
932.374	89.24
932.545	40.61
932.716	112.87
932.886	93.5
933.057	34.99
933.227	43.71
933.398	134.19
933.568	38.09
933.739	7.86
933.909	36.15
934.08	79.94
934.25	-12.09
934.421	21.43
934.591	67.34
934.761	2.05
934.932	-20.23
935.102	34.41
935.272	16.19
935.443	45.26
935.613	6.89
935.783	70.83
935.953	-4.34
936.123	144.84
936.294	30.92
936.464	24.72
936.634	44.29
936.804	-31.47
936.974	-24.49
937.144	35.38
937.314	30.34
937.484	7.28
937.655	5.15
937.825	50.49
937.995	7.28
938.165	83.81
938.334	-24.11
938.504	30.92
938.674	-3.57
938.844	14.84
939.014	70.83
939.184	56.69
939.354	109.39
939.524	89.62
939.694	50.1
939.863	31.89
940.033	92.72
940.203	90.01
940.373	68.89
940.542	98.15
940.712	54.36
940.882	95.44
941.051	113.84
941.221	87.3
941.391	103.57
941.56	54.36
941.73	23.36
941.899	132.25
942.069	37.12
942.238	69.47
942.408	63.86
942.577	80.91
942.747	61.34
942.916	14.64
943.086	34.99
943.255	80.52
943.425	62.5
943.594	16
943.763	-6.09
943.933	13.29
944.102	-16.36
944.271	27.63
944.441	55.52
944.61	19.68
944.779	49.13
944.948	103.57
945.117	6.31
945.287	53.78
945.456	0.11
945.625	8.25
945.794	54.17
945.963	9.03
946.132	40.22
946.301	23.75
946.47	81.1
946.639	-25.85
946.808	29.37
946.977	58.04
947.146	92.53
947.315	38.47
947.484	68.12
947.653	36.92
947.822	20.84
947.991	31.5
948.16	110.94
948.329	69.47
948.498	27.04
948.666	50.1
948.835	70.83
949.004	5.54
949.173	0.11
949.341	28.01
949.51	55.52
949.679	78.39
949.847	59.21
950.016	127.4
950.185	102.41
950.353	38.67
950.522	29.76
950.69	98.34
950.859	5.34
951.028	66.57
951.196	46.22
951.365	5.34
951.533	32.47
951.701	73.16
951.87	50.1
952.038	19.68
952.207	61.92
952.375	103.57
952.543	14.64
952.712	33.63
952.88	44.29
953.048	101.06
953.217	52.04
953.385	52.42
953.553	97.57
953.721	34.41
953.89	47.39
954.058	3.6
954.226	2.44
954.394	69.67
954.562	-18.87
954.73	46.22
954.898	33.24
955.067	83.81
955.235	11.74
955.403	79.36
955.571	126.24
955.739	82.65
955.907	23.75
956.075	28.4
956.243	39.64
956.41	69.47
956.578	-12.67
956.746	-6.86
956.914	32.08
957.082	60.56
957.25	90.79
957.418	37.12
957.585	26.46
957.753	96.79
957.921	6.12
958.089	54.56
958.256	47
958.424	68.31
958.592	43.9
958.759	19.88
958.927	91.56
959.095	9.41
959.262	32.47
959.43	28.4
959.597	18.91
959.765	16.97
959.932	16.39
960.1	62.11
960.267	51.65
960.435	54.36
960.602	54.94
960.77	21.43
960.937	7.48
961.104	12.9
961.272	-1.05
961.439	16.97
961.606	71.8
961.774	58.04
961.941	46.03
962.108	77.42
962.275	-0.86
962.443	74.9
962.61	62.5
962.777	121.79
962.944	99.51
963.111	57.46
963.278	78.97
963.446	58.24
963.613	33.44
963.78	61.53
963.947	82.07
964.114	60.17
964.281	133.6
964.448	62.89
964.615	33.44
964.782	55.33
964.949	113.26
965.116	94.08
965.282	115.59
965.449	32.08
965.616	38.47
965.783	80.91
965.95	66.37
966.117	5.73
966.283	55.72
966.45	56.11
966.617	61.92
966.784	92.72
966.95	89.82
967.117	91.76
967.284	3.21
967.45	23.36
967.617	101.83
967.784	97.76
967.95	101.25
968.117	40.22
968.283	90.79
968.45	179.91
968.616	103.19
968.783	84.39
968.949	74.71
969.116	76.26
969.282	55.72
969.449	64.24
969.615	46.03
969.781	22.39
969.948	64.44
970.114	20.84
970.28	112.1
970.447	54.17
970.613	107.84
970.779	58.24
970.945	69.09
971.112	71.61
971.278	56.69
971.444	84.59
971.61	112.87
971.776	26.08
971.942	72.57
972.108	90.01
972.275	70.44
972.441	58.82
972.607	150.27
972.773	26.66
972.939	98.92
973.105	72.96
973.271	26.08
973.437	55.91
973.602	31.31
973.768	73.35
973.934	76.64
974.1	77.81
974.266	1.86
974.432	67.15
974.598	62.31
974.763	81.29
974.929	58.62
975.095	127.21
975.261	37.12
975.426	29.18
975.592	75.29
975.758	112.49
975.923	4.57
976.089	49.52
976.255	102.99
976.42	56.69
976.586	73.16
976.751	74.71
976.917	133.6
977.082	84.2
977.248	14.26
977.413	8.25
977.579	36.34
977.744	80.32
977.91	29.37
978.075	34.02
978.24	81.1
978.406	34.99
978.571	19.49
978.736	26.27
978.902	110.94
979.067	14.45
979.232	16.39
979.397	40.61
979.563	103.77
979.728	32.47
979.893	48.74
980.058	22.39
980.223	83.42
980.388	72.57
980.554	47.19
980.719	43.71
980.884	55.52
981.049	94.47
981.214	32.86
981.379	80.52
981.544	35.96
981.709	61.72
981.874	35.76
982.039	56.11
982.204	77.81
982.368	67.73
982.533	49.32
982.698	100.09
982.863	106.09
983.028	51.84
983.193	77.42
983.357	59.98
983.522	28.4
983.687	43.51
983.852	47.97
984.016	40.99
984.181	59.4
984.346	71.99
984.51	90.4
984.675	58.24
984.839	48.55
985.004	66.18
985.168	84.97
985.333	54.17
985.498	33.63
985.662	77.61
985.827	87.49
985.991	42.93
986.155	53.39
986.32	89.04
986.484	136.12
986.649	69.67
986.813	14.26
986.977	59.79
987.142	78.97
987.306	25.49
987.47	9.41
987.634	43.32
987.799	40.41
987.963	80.32
988.127	96.41
988.291	111.71
988.455	58.82
988.62	41.38
988.784	72.96
988.948	73.16
989.112	28.4
989.276	67.54
989.44	71.8
989.604	35.38
989.768	53.01
989.932	129.92
990.096	49.13
990.26	-0.27
990.424	-5.7
990.588	19.1
990.752	122.56
990.915	96.21
991.079	29.95
991.243	14.45
991.407	67.34
991.571	29.95
991.734	66.76
991.898	73.74
992.062	146.39
992.226	53.59
992.389	43.51
992.553	10.58
992.717	49.52
992.88	39.25
993.044	57.27
993.207	46.61
993.371	53.01
993.535	73.74
993.698	42.54
993.862	104.93
994.025	106.67
994.189	52.23
994.352	69.47
994.515	50.87
994.679	96.99
994.842	9.41
995.006	110.74
995.169	26.08
995.332	17.55
995.496	52.62
995.659	1.08
995.822	24.53
995.985	64.44
996.149	90.21
996.312	52.23
996.475	100.86
996.638	20.07
996.801	104.16
996.964	108.03
997.128	49.13
997.291	27.04
997.454	49.32
997.617	3.99
997.78	78
997.943	0.31
998.106	88.85
998.269	34.02
998.432	38.09
998.595	61.14
998.758	-4.54
998.92	34.6
999.083	-29.34
999.246	26.66
999.409	8.25
999.572	-20.62
999.735	17.55
999.897	59.59
1000.06	13.68
1000.223	23.36
1000.386	86.91
1000.548	90.21
1000.711	52.04
1000.874	58.62
1001.036	13.09
1001.199	73.16
1001.361	26.27
1001.524	46.81
1001.687	74.12
1001.849	19.29
1002.012	42.16
1002.174	85.17
1002.337	44.87
1002.499	23.75
1002.661	67.34
1002.824	27.82
1002.986	26.08
1003.149	27.82
1003.311	19.29
1003.473	80.52
1003.636	11.54
1003.798	36.92
1003.96	56.88
1004.123	16.97
1004.285	28.4
1004.447	54.36
1004.609	58.24
1004.771	90.59
1004.933	23.56
1005.096	12.13
1005.258	-1.24
1005.42	26.08
1005.582	77.61
1005.744	32.86
1005.906	26.85
1006.068	7.28
1006.23	-3.37
1006.392	3.6
1006.554	6.31
1006.716	87.3
1006.878	53.2
1007.04	-7.44
1007.202	27.63
1007.363	32.47
1007.525	60.17
1007.687	50.87
1007.849	79.55
1008.011	2.63
1008.172	-0.47
1008.334	31.69
1008.496	46.42
1008.658	-16.55
1008.819	23.75
1008.981	-14.03
1009.143	0.5
1009.304	13.29
1009.466	65.21
1009.627	87.11
1009.789	96.02
1009.95	11.35
1010.112	20.46
1010.273	55.91
1010.435	-9.57
1010.596	34.79
1010.758	11.74
1010.919	32.86
1011.081	-13.26
1011.242	40.8
1011.403	25.49
1011.565	21.23
1011.726	40.61
1011.887	-24.11
1012.049	22.98
1012.21	37.12
1012.371	79.74
1012.532	-60.72
1012.693	34.99
1012.855	-11.9
1013.016	24.33
1013.177	51.46
1013.338	25.88
1013.499	93.5
1013.66	49.71
1013.821	22.01
1013.982	37.31
1014.143	17.16
1014.304	-3.76
1014.465	39.44
1014.626	50.87
1014.787	39.64
1014.948	131.09
1015.109	-21.59
1015.27	74.71
1015.431	-11.51
1015.592	14.64
1015.752	70.25
1015.913	26.08
1016.074	54.75
1016.235	14.26
1016.395	22.39
1016.556	7.67
1016.717	30.53
1016.877	74.71
1017.038	-4.34
1017.199	30.92
1017.359	22.2
1017.52	11.35
1017.681	8.64
1017.841	26.66
1018.002	29.76
1018.162	21.04
1018.323	93.89
1018.483	19.68
1018.644	17.16
1018.804	-5.51
1018.964	-2.99
1019.125	10.77
1019.285	16.97
1019.446	10.58
1019.606	-4.34
1019.766	-34.96
1019.926	44.09
1020.087	15.81
1020.247	-27.79
1020.407	48.16
1020.567	45.45
1020.728	-3.37
1020.888	-20.62
1021.048	13.48
1021.208	-18.29
1021.368	-3.96
1021.528	56.49
1021.688	49.32
1021.848	33.24
1022.008	20.65
1022.168	-6.47
1022.328	52.62
1022.488	34.79
1022.648	-9.38
1022.808	13.29
1022.968	42.74
1023.128	21.04
1023.288	-0.27
1023.448	7.67
1023.608	41.19
1023.767	22.78
1023.927	-12.09
1024.087	-17.52
1024.247	-22.36
1024.406	-8.99
1024.566	-29.14
1024.726	-8.22
1024.885	29.18
1025.045	45.84
1025.205	18.13
1025.364	15.61
1025.524	16.19
1025.683	6.7
1025.843	50.49
1026.003	-0.08
1026.162	64.63
1026.321	46.81
1026.481	22.01
1026.64	-2.79
1026.8	-4.54
1026.959	30.14
1027.119	19.49
1027.278	13.87
1027.437	-11.9
1027.597	22.39
1027.756	35.18
1027.915	52.04
1028.074	59.01
1028.234	3.79
1028.393	16.58
1028.552	20.46
1028.711	-61.5
1028.87	54.36
1029.03	1.08
1029.189	36.73
1029.348	-29.34
1029.507	-10.35
1029.666	-10.93
1029.825	-27.21
1029.984	-11.51
1030.143	2.05
1030.302	1.08
1030.461	-45.22
1030.62	3.02
1030.779	15.81
1030.938	-21.39
1031.097	-13.26
1031.255	11.35
1031.414	37.31
1031.573	52.23
1031.732	-42.9
1031.891	3.41
1032.049	64.24
1032.208	33.63
1032.367	-31.86
1032.525	-9.57
1032.684	1.47
1032.843	7.09
1033.001	-56.65
1033.16	152.4
1033.319	30.53
1033.477	37.31
1033.636	4.18
1033.794	-42.12
1033.953	40.41
1034.111	34.41
1034.27	-6.09
1034.428	11.16
1034.587	-21.59
1034.745	26.66
1034.903	34.79
1035.062	16.39
1035.22	-10.35
1035.378	63.47
1035.537	-10.74
1035.695	34.79
1035.853	19.1
1036.011	39.44
1036.17	31.11
1036.328	-65.18
1036.486	47.58
1036.644	0.69
1036.802	-59.75
1036.96	12.32
1037.119	25.88
1037.277	-8.22
1037.435	-35.15
1037.593	-21.2
1037.751	5.54
1037.909	59.98
1038.067	59.98
