Data from pine_FLMT105791__100__17-21-59-076.txt Node

Date: Mon Mar 20 17:21:59 GMT 2023
User: antho
Spectrometer: FLMT10579
Trigger mode: 0
Integration Time (sec): 1.000000E-1
Scans to average: 10
Electric dark correction enabled: true
Nonlinearity correction enabled: false
Boxcar width: 0
XAxis mode: Wavelengths
Number of Pixels in Spectrum: 3648
>>>>>Begin Spectral Data<<<<<
345.248	-184.88
345.464	-184.88
345.681	-184.88
345.898	-193.8
346.114	-151.95
346.331	-21.94
346.548	34.44
346.764	-9.93
346.981	-9.15
347.197	-18.07
347.414	26.88
347.631	-30.08
347.847	64.47
348.064	-15.16
348.28	22.23
348.497	-38.41
348.713	-5.28
348.93	40.44
349.146	14.1
349.363	-8.77
349.579	20.49
349.796	11.19
350.012	-18.45
350.229	28.82
350.445	27.85
350.661	-21.36
350.878	6.35
351.094	15.45
351.311	22.62
351.527	7.7
351.743	-13.8
351.96	14.29
352.176	19.52
352.392	35.02
352.609	28.04
352.825	-15.94
353.041	-4.89
353.257	-18.65
353.474	29.01
353.69	17.2
353.906	30.95
354.122	-23.1
354.339	30.56
354.555	-1.99
354.771	0.53
354.987	60.79
355.203	76.48
355.42	-17.87
355.636	-4.89
355.852	-22.72
356.068	29.01
356.284	-42.67
356.5	67.38
356.716	3.05
356.932	13.9
357.148	22.62
357.364	15.06
357.58	46.84
357.796	68.73
358.012	53.04
358.228	17.58
358.444	-27.37
358.66	38.12
358.876	44.13
359.092	5.38
359.308	-11.87
359.524	-4.12
359.74	30.37
359.956	-17.1
360.172	13.9
360.388	42.19
360.604	9.06
360.819	58.27
361.035	16.23
361.251	41.8
361.467	-20
361.683	65.63
361.898	20.1
362.114	48.19
362.33	28.04
362.546	41.22
362.762	6.35
362.977	-9.74
363.193	4.02
363.409	38.31
363.624	-22.91
363.84	-15.94
364.056	-13.03
364.271	32.89
364.487	12.74
364.703	-14.39
364.918	-52.75
365.134	17
365.35	1.89
365.565	95.28
365.781	18.36
365.996	23.59
366.212	71.44
366.427	25.53
366.643	-14.97
366.858	-14.58
367.074	-40.54
367.289	61.56
367.505	98.18
367.72	-25.24
367.936	9.83
368.151	30.56
368.367	21.84
368.582	34.44
368.798	-5.47
369.013	63.31
369.228	6.35
369.444	13.51
369.659	54.78
369.874	36.96
370.09	60.59
370.305	-47.52
370.52	-8.96
370.736	56.72
370.951	16.23
371.166	66.99
371.381	63.89
371.597	34.24
371.812	-36.47
372.027	-26.79
372.242	14.48
372.458	62.73
372.673	8.86
372.888	14.29
373.103	41.41
373.318	82.88
373.533	26.11
373.749	26.88
373.964	-45.77
374.179	61.76
374.394	3.63
374.609	51.68
374.824	-38.8
375.039	63.69
375.254	-6.64
375.469	57.11
375.684	32.89
375.899	58.27
376.114	27.46
376.329	19.33
376.544	66.02
376.759	57.11
376.974	-0.63
377.189	17.58
377.404	9.83
377.619	49.94
377.834	-31.24
378.049	-8.38
378.264	-27.56
378.478	3.44
378.693	-7.6
378.908	29.59
379.123	6.35
379.338	46.45
379.553	17
379.767	24.17
379.982	11.96
380.197	37.93
380.412	4.6
380.626	52.65
380.841	97.6
381.056	50.52
381.271	78.03
381.485	-10.51
381.7	-7.8
381.915	25.33
382.129	5.96
382.344	15.84
382.559	8.67
382.773	53.23
382.988	-35.89
383.202	35.99
383.417	-16.52
383.632	116.59
383.846	16.61
384.061	25.91
384.275	27.08
384.49	24.17
384.704	38.51
384.919	36.18
385.133	11.58
385.348	50.52
385.562	0.15
385.777	65.05
385.991	41.41
386.206	26.11
386.42	-1.6
386.634	47.42
386.849	38.31
387.063	45.87
387.277	2.47
387.492	11
387.706	-45.39
387.92	-11.67
388.135	52.84
388.349	3.05
388.563	17.58
388.778	17.39
388.992	56.33
389.206	42.19
389.42	65.05
389.635	18.94
389.849	50.33
390.063	56.33
390.277	2.47
390.491	77.26
390.706	48.39
390.92	45.87
391.134	20.68
391.348	46.45
391.562	-19.42
391.776	29.79
391.99	2.08
392.205	49.94
392.419	0.73
392.633	32.11
392.847	65.24
393.061	23.78
393.275	79
393.489	29.4
393.703	34.05
393.917	52.65
394.131	26.11
394.345	37.15
394.559	45.87
394.773	29.01
394.986	18.55
395.2	29.01
395.414	80.55
395.628	-19.62
395.842	39.28
396.056	4.02
396.27	-25.24
396.484	36.76
396.697	52.65
396.911	80.74
397.125	53.62
397.339	56.53
397.553	51.49
397.766	103.03
397.98	89.66
398.194	55.36
398.408	17.39
398.621	64.86
398.835	39.09
399.049	46.26
399.262	57.3
399.476	63.89
399.69	65.24
399.903	82.1
400.117	39.67
400.331	59.24
400.544	25.53
400.758	158.82
400.971	84.04
401.185	81.71
401.398	36.76
401.612	92.18
401.826	71.64
402.039	75.32
402.253	36.76
402.466	40.64
402.68	42.19
402.893	49.36
403.106	47.03
403.32	41.99
403.533	66.02
403.747	42.19
403.96	69.31
404.174	59.04
404.387	31.92
404.6	61.76
404.814	80.16
405.027	32.11
405.24	45.48
405.454	41.03
405.667	72.99
405.88	0.15
406.094	95.86
406.307	105.93
406.52	77.64
406.733	47.61
406.947	13.71
407.16	113.29
407.373	91.01
407.586	34.44
407.799	-19.42
408.012	87.91
408.226	66.02
408.439	108.45
408.652	8.09
408.865	80.74
409.078	87.14
409.291	87.14
409.504	29.79
409.717	59.24
409.93	67.57
410.143	76.48
410.357	-20.2
410.57	19.91
410.783	52.26
410.996	74.54
411.209	54.39
411.421	105.35
411.634	81.13
411.847	20.3
412.06	103.61
412.273	71.64
412.486	74.35
412.699	149.33
412.912	59.24
413.125	87.33
413.338	79.19
413.55	88.11
413.763	64.86
413.976	96.24
414.189	47.23
414.402	47.81
414.615	105.35
414.827	27.85
415.04	84.62
415.253	81.52
415.466	101.48
415.678	123.56
415.891	92.37
416.104	51.68
416.316	52.46
416.529	48.19
416.742	113.1
416.954	85.98
417.167	86.36
417.38	69.51
417.592	107.48
417.805	66.21
418.017	17.58
418.23	120.07
418.442	49.74
418.655	55.94
418.868	66.99
419.08	108.64
419.293	104.96
419.505	66.79
419.718	109.42
419.93	97.6
420.142	77.64
420.355	122.79
420.567	155.92
420.78	99.15
420.992	90.24
421.205	141.19
421.417	65.44
421.629	76.29
421.842	43.35
422.054	34.83
422.266	106.13
422.479	133.06
422.691	74.93
422.903	128.21
423.115	70.48
423.328	74.16
423.54	86.17
423.752	60.98
423.964	51.1
424.177	118.52
424.389	76.09
424.601	196.22
424.813	110.58
425.025	130.15
425.238	110.39
425.45	94.5
425.662	93.92
425.874	392.68
426.086	98.18
426.298	98.18
426.51	113.1
426.722	114.07
426.934	83.84
427.146	136.35
427.358	65.44
427.57	157.47
427.782	112.32
427.994	85.39
428.206	79.78
428.418	56.14
428.63	148.75
428.842	162.7
429.054	133.83
429.266	128.6
429.478	79.39
429.69	128.6
429.902	73.96
430.114	146.42
430.325	127.05
430.537	98.76
430.749	87.91
430.961	31.92
431.173	110.39
431.384	139.64
431.596	38.12
431.808	104.38
432.02	119.69
432.231	139.26
432.443	183.82
432.655	163.09
432.867	103.03
433.078	112.13
433.29	178.97
433.502	191.18
433.713	198.74
433.925	159.41
434.136	166.38
434.348	97.21
434.56	78.03
434.771	230.7
434.983	96.63
435.194	108.26
435.406	119.49
435.617	165.41
435.829	186.92
436.04	174.71
436.252	199.7
436.463	216.56
436.675	162.7
436.886	168.32
437.098	189.24
437.309	212.49
437.521	165.41
437.732	179.56
437.943	172.97
438.155	164.64
438.366	106.51
438.578	227.41
438.789	164.83
439	189.24
439.211	172.58
439.423	202.42
439.634	204.94
439.845	213.27
440.057	181.88
440.268	214.24
440.479	129.18
440.69	187.89
440.902	175.1
441.113	153.79
441.324	174.52
441.535	176.84
441.746	253.76
441.957	178.97
442.168	184.79
442.38	215.98
442.591	238.84
442.802	174.52
443.013	183.62
443.224	225.47
443.435	173.94
443.646	208.42
443.857	200.29
444.068	184.98
444.279	202.22
444.49	266.35
444.701	222.95
444.912	292.32
445.123	249.3
445.334	241.75
445.545	226.05
445.756	208.42
445.967	196.8
446.178	218.5
446.388	250.85
446.599	286.7
446.81	231.29
447.021	223.92
447.232	261.12
447.443	278.56
447.653	190.21
447.864	291.73
448.075	216.17
448.286	252.4
448.496	268.68
448.707	284.37
448.918	233.42
449.129	345.6
449.339	251.63
449.55	269.65
449.761	240.78
449.971	278.56
450.182	251.63
450.393	265.39
450.603	249.69
450.814	286.31
451.024	280.11
451.235	296.19
451.446	346.57
451.656	292.51
451.867	270.23
452.077	298.13
452.288	333
452.498	329.9
452.709	269.07
452.919	289.41
453.13	266.94
453.34	287.67
453.55	212.88
453.761	305.3
453.971	271.2
454.182	325.06
454.392	320.41
454.602	341.72
454.813	324.28
455.023	330.87
455.233	258.8
455.444	313.82
455.654	220.63
455.864	305.1
456.075	279.34
456.285	257.44
456.495	261.7
456.705	304.33
456.916	327
457.126	353.93
457.336	310.14
457.546	242.52
457.756	265.77
457.967	322.54
458.177	298.32
458.387	276.43
458.597	278.95
458.807	277.4
459.017	311.3
459.227	282.63
459.437	292.7
459.647	332.23
459.857	317.5
460.068	279.14
460.278	368.07
460.488	317.7
460.698	362.07
460.908	303.55
461.117	289.6
461.327	282.44
461.537	320.02
461.747	315.95
461.957	324.09
462.167	439.18
462.377	344.05
462.587	337.27
462.797	350.05
463.007	337.46
463.216	344.43
463.426	377.95
463.636	351.6
463.846	274.3
464.056	306.07
464.265	397.71
464.475	302
464.685	329.9
464.895	358
465.104	335.13
465.314	386.86
465.524	346.76
465.733	283.6
465.943	405.27
466.153	411.08
466.362	375.24
466.572	364.58
466.782	349.47
466.991	357.61
467.201	422.13
467.41	326.03
467.62	400.81
467.829	370.78
468.039	369.04
468.249	356.06
468.458	336.1
468.668	390.93
468.877	405.85
469.086	415.35
469.296	389
469.505	353.35
469.715	428.52
469.924	427.16
470.134	424.06
470.343	418.64
470.552	348.7
470.762	376.4
470.971	354.12
471.18	396.16
471.39	393.06
471.599	391.71
471.808	395.97
472.018	388.61
472.227	447.9
472.436	424.65
472.645	397.33
472.855	380.47
473.064	470.76
473.273	449.45
473.482	422.71
473.691	475.02
473.901	460.88
474.11	426.58
474.319	494.2
474.528	435.11
474.737	470.76
474.946	464.56
475.155	457.58
475.364	492.26
475.573	472.31
475.783	479.28
475.992	510.86
476.201	501.56
476.41	493.62
476.619	432.01
476.828	450.41
477.037	447.7
477.245	449.45
477.454	531.79
477.663	487.61
477.872	475.79
478.081	539.15
478.29	468.24
478.499	578.48
478.708	498.85
478.917	570.34
479.125	507.96
479.334	537.99
479.543	523.46
479.752	531.4
479.961	551.74
480.169	551.94
480.378	531.79
480.587	683.3
480.796	580.81
481.004	552.32
481.213	562.98
481.422	536.83
481.63	577.71
481.839	576.74
482.048	617.42
482.256	571.7
482.465	613.94
482.674	614.32
482.882	615.1
483.091	668.57
483.299	592.62
483.508	626.14
483.716	586.81
483.925	625.56
484.134	568.21
484.342	587.78
484.551	647.45
484.759	600.96
484.967	628.27
485.176	640.87
485.384	649
485.593	673.22
485.801	626.92
486.01	608.32
486.218	628.08
486.426	517.26
486.635	554.65
486.843	579.26
487.051	582.55
487.26	575.19
487.468	591.85
487.676	640.29
487.885	613.94
488.093	648.62
488.301	662.37
488.509	632.15
488.717	711
488.926	669.15
489.134	632.73
489.342	638.93
489.55	634.67
489.758	653.46
489.967	631.76
490.175	757.31
490.383	670.12
490.591	746.85
490.799	688.92
491.007	737.16
491.215	742.39
491.423	686.01
491.631	723.02
491.839	691.05
492.047	738.52
492.255	673.61
492.463	665.09
492.671	684.65
492.879	753.43
493.087	717.4
493.295	749.17
493.503	747.43
493.711	743.94
493.919	783.27
494.127	753.43
494.334	784.24
494.542	735.42
494.75	772.23
494.958	751.11
495.166	788.31
495.374	791.22
495.581	810.4
495.789	760.6
495.997	823.38
496.205	796.25
496.412	788.5
496.62	781.92
496.828	798.97
497.035	777.46
497.243	793.35
497.451	775.52
497.658	787.15
497.866	750.92
498.074	835.39
498.281	777.65
498.489	862.32
498.696	800.9
498.904	764.28
499.112	794.7
499.319	880.73
499.527	793.93
499.734	874.91
499.942	781.33
500.149	801.1
500.357	799.74
500.564	781.33
500.771	818.73
500.979	796.83
501.186	787.15
501.394	814.66
501.601	828.8
501.808	825.7
502.016	782.69
502.223	779.4
502.43	832.29
502.638	819.11
502.845	796.64
503.052	897.78
503.26	866.97
503.467	901.65
503.674	826.09
503.881	863.87
504.089	923.74
504.296	882.47
504.503	791.22
504.71	859.8
504.917	814.66
505.125	851.08
505.332	832.29
505.539	876.85
505.746	937.88
505.953	938.85
506.16	916.76
506.367	979.54
506.574	952.8
506.781	965.2
506.988	872.4
507.195	935.17
507.402	884.6
507.609	938.66
507.816	895.45
508.023	894.87
508.23	881.7
508.437	908.04
508.644	929.74
508.851	985.35
509.058	972.95
509.265	986.71
509.472	963.07
509.679	1027.97
509.885	943.69
510.092	962.88
510.299	947.57
510.506	963.07
510.713	983.99
510.92	957.06
511.126	991.74
511.333	1020.03
511.54	995.81
511.746	1085.71
511.953	1076.99
512.16	1068.47
512.367	1003.95
512.573	986.9
512.78	1004.53
512.987	1015.96
513.193	1037.08
513.4	969.85
513.606	1015.57
513.813	1034.76
514.02	1064.01
514.226	1063.82
514.433	1082.8
514.639	995.42
514.846	1029.52
515.052	1035.92
515.259	1036.89
515.465	1055.49
515.672	1047.54
515.878	1139.77
516.085	1071.57
516.291	1133.37
516.497	1047.54
516.704	1007.05
516.91	1019.64
517.117	994.65
517.323	945.24
517.529	1000.66
517.736	972.56
517.942	1019.06
518.148	1002.59
518.354	1032.82
518.561	1036.69
518.767	1041.15
518.973	1059.17
519.179	1073.5
519.386	1055.87
519.592	1059.17
519.798	1085.9
520.004	1142.09
520.21	1102.57
520.417	1164.37
520.623	1186.46
520.829	1185.3
521.035	1188.2
521.241	1192.66
521.447	1215.52
521.653	1295.35
521.859	1169.41
522.065	1218.43
522.271	1320.34
522.477	1262.41
522.683	1309.49
522.889	1244.58
523.095	1230.63
523.301	1225.98
523.507	1207.19
523.713	1269.96
523.919	1187.04
524.125	1297.86
524.331	1261.83
524.537	1314.33
524.742	1329.64
524.948	1333.71
525.154	1351.53
525.36	1418.18
525.566	1353.86
525.772	1384.28
525.977	1300.96
526.183	1333.32
526.389	1361.03
526.595	1282.17
526.8	1331
527.006	1266.86
527.212	1217.65
527.417	1207.77
527.623	1211.45
527.829	1317.82
528.034	1357.73
528.24	1334.87
528.446	1311.23
528.651	1418.76
528.857	1376.91
529.062	1489.87
529.268	1423.02
529.473	1440.66
529.679	1418.38
529.884	1511.57
530.09	1423.02
530.295	1477.08
530.501	1483.28
530.706	1432.32
530.912	1395.13
531.117	1422.83
531.323	1445.11
531.528	1490.06
531.733	1511.95
531.939	1478.44
532.144	1510.6
532.35	1469.72
532.555	1530.75
532.76	1464.29
532.966	1521.06
533.171	1440.27
533.376	1425.93
533.581	1402.1
533.787	1471.07
533.992	1465.07
534.197	1535.59
534.402	1467.01
534.607	1497.62
534.813	1570.08
535.018	1489.67
535.223	1542.37
535.428	1504.98
535.633	1600.88
535.838	1579.19
536.043	1546.64
536.249	1640.02
536.454	1557.87
536.659	1612.9
536.864	1547.8
537.069	1514.09
537.274	1578.99
537.479	1560
537.684	1568.92
537.889	1529.2
538.094	1635.76
538.299	1564.65
538.504	1603.21
538.708	1606.12
538.913	1642.15
539.118	1616.38
539.323	1619.1
539.528	1577.44
539.733	1565.82
539.938	1598.95
540.142	1574.15
540.347	1610.18
540.552	1536.37
540.757	1528.81
540.962	1564.46
541.166	1521.06
541.371	1488.51
541.576	1559.04
541.781	1481.73
541.985	1612.32
542.19	1600.69
542.395	1648.35
542.599	1660.75
542.804	1663.27
543.008	1650.87
543.213	1553.8
543.418	1559.42
543.622	1598.56
543.827	1553.8
544.031	1627.62
544.236	1670.44
544.44	1624.13
544.645	1710.74
544.849	1615.42
545.054	1635.57
545.258	1756.27
545.463	1705.9
545.667	1615.42
545.872	1691.17
546.076	1653.2
546.281	1670.44
546.485	1645.64
546.689	1664.24
546.894	1671.8
547.098	1682.65
547.302	1634.79
547.507	1661.53
547.711	1696.21
547.915	1711.32
548.119	1614.45
548.324	1633.82
548.528	1711.71
548.732	1650.29
548.936	1678.19
549.141	1699.89
549.345	1660.56
549.549	1702.21
549.753	1702.99
549.957	1757.63
550.161	1783.01
550.366	1709
550.57	1679.93
550.774	1712.87
550.978	1679.35
551.182	1690.98
551.386	1690.2
551.59	1683.61
551.794	1676.83
551.998	1737.86
552.202	1694.66
552.406	1646.03
552.61	1747.16
552.814	1735.35
553.018	1765.18
553.222	1662.3
553.426	1684.78
553.63	1767.31
553.833	1692.53
554.037	1630.33
554.241	1695.82
554.445	1708.41
554.649	1676.25
554.853	1680.52
555.056	1737.86
555.26	1770.61
555.464	1741.74
555.668	1724.69
555.871	1754.53
556.075	1741.16
556.279	1683.61
556.483	1636.53
556.686	1684.39
556.89	1687.1
557.094	1691.17
557.297	1643.12
557.501	1689.04
557.704	1611.73
557.908	1692.91
558.112	1639.05
558.315	1718.68
558.519	1671.22
558.722	1663.47
558.926	1630.33
559.129	1582.48
559.333	1574.34
559.536	1554.39
559.74	1598.75
559.943	1562.52
560.147	1579.96
560.35	1609.22
560.553	1623.94
560.757	1562.91
560.96	1663.85
561.164	1580.93
561.367	1676.06
561.57	1608.25
561.774	1627.82
561.977	1602.43
562.18	1577.25
562.384	1675.87
562.587	1574.15
562.79	1536.56
562.993	1582.29
563.197	1647
563.4	1674.51
563.603	1660.17
563.806	1689.62
564.009	1570.27
564.212	1614.45
564.416	1506.53
564.619	1636.53
564.822	1541.99
565.025	1610.77
565.228	1537.72
565.431	1592.75
565.634	1519.12
565.837	1533.85
566.04	1498.78
566.243	1493.16
566.446	1421.09
566.649	1537.72
566.852	1471.85
567.055	1502.85
567.258	1562.91
567.461	1586.35
567.664	1574.92
567.867	1476.5
568.07	1528.81
568.273	1552.45
568.475	1550.9
568.678	1468.36
568.881	1508.47
569.084	1498.59
569.287	1415.66
569.489	1457.9
569.692	1476.5
569.895	1495.87
570.098	1411.21
570.3	1467.97
570.503	1364.71
570.706	1389.31
570.909	1367.61
571.111	1365.87
571.314	1371.49
571.516	1374.2
571.719	1380.79
571.922	1388.73
572.124	1390.09
572.327	1380.79
572.529	1334.09
572.732	1376.14
572.935	1375.36
573.137	1476.11
573.34	1345.33
573.542	1418.76
573.745	1402.1
573.947	1382.92
574.15	1352.89
574.352	1350.18
574.554	1404.62
574.757	1317.63
574.959	1315.88
575.162	1343.01
575.364	1321.11
575.566	1426.51
575.769	1321.11
575.971	1338.16
576.173	1236.83
576.376	1330.22
576.578	1338.94
576.78	1374.59
576.982	1265.31
577.185	1316.08
577.387	1261.05
577.589	1260.08
577.791	1324.02
577.993	1307.94
578.196	1288.95
578.398	1308.71
578.6	1356.38
578.802	1247.88
579.004	1257.56
579.206	1209.13
579.408	1284.11
579.61	1283.91
579.812	1299.8
580.014	1254.66
580.216	1280.23
580.418	1273.84
580.62	1254.27
580.822	1227.15
581.024	1268.03
581.226	1305.42
581.428	1250.78
581.63	1337.78
581.832	1273.84
582.034	1306.97
582.236	1326.35
582.438	1333.51
582.64	1344.56
582.841	1337.58
583.043	1366.45
583.245	1318.4
583.447	1359.86
583.649	1287.01
583.85	1323.25
584.052	1372.26
584.254	1262.21
584.456	1326.15
584.657	1238
584.859	1311.43
585.061	1279.26
585.262	1273.84
585.464	1281.98
585.666	1316.85
585.867	1253.69
586.069	1307.16
586.27	1288.37
586.472	1285.85
586.674	1253.88
586.875	1264.54
587.077	1230.83
587.278	1295.93
587.48	1266.86
587.681	1349.98
587.883	1294.18
588.084	1200.6
588.285	1238
588.487	1231.22
588.688	1249.43
588.89	1184.52
589.091	1153.14
589.292	1136.67
589.494	1130.85
589.695	1088.42
589.896	1033.98
590.098	1035.92
590.299	1099.08
590.5	1082.8
590.702	1095.79
590.903	1140.93
591.104	1184.52
591.305	1194.98
591.507	1198.67
591.708	1179.1
591.909	1142.48
592.11	1255.43
592.311	1172.51
592.512	1138.99
592.714	1099.47
592.915	1124.85
593.116	1138.6
593.317	1135.12
593.518	1147.71
593.719	1159.92
593.92	1161.27
594.121	1210.29
594.322	1150.23
594.523	1152.55
594.724	1085.71
594.925	1137.44
595.126	1138.41
595.327	1148.29
595.528	1139.19
595.729	1130.08
595.929	1140.15
596.13	1156.43
596.331	1179.87
596.532	1186.07
596.733	1200.99
596.934	1213
597.135	1179.48
597.335	1204.87
597.536	1131.63
597.737	1199.05
597.938	1088.62
598.138	1180.84
598.339	1136.47
598.54	1135.7
598.74	1145.58
598.941	1113.61
599.142	1208.55
599.342	1146.35
599.543	1138.41
599.744	1143.06
599.944	1145
600.145	1147.32
600.345	1142.87
600.546	1213.2
600.746	1141.12
600.947	1211.26
601.147	1173.87
601.348	1194.98
601.548	1120.39
601.749	1159.92
601.949	1082.42
602.15	1134.54
602.35	1107.99
602.551	1188.59
602.751	1114
602.951	1091.91
603.152	1064.98
603.352	1178.13
603.552	1108.77
603.753	1161.47
603.953	1166.89
604.153	1144.03
604.354	1129.11
604.554	1140.93
604.754	1122.52
604.954	1095.98
605.155	1168.44
605.355	1138.02
605.555	1186.85
605.755	1178.9
605.955	1126.4
606.155	1157.2
606.356	1126.79
606.556	1194.6
606.756	1157.98
606.956	1100.24
607.156	1154.1
607.356	1128.72
607.556	1158.37
607.756	1162.82
607.956	1183.75
608.156	1128.53
608.356	1083.97
608.556	1140.54
608.756	1115.55
608.956	1071.57
609.156	1114
609.356	1085.71
609.556	1077.38
609.755	1149.45
609.955	1052.77
610.155	1099.08
610.355	1073.89
610.555	1084.16
610.755	1094.24
610.954	1029.33
611.154	1096.37
611.354	1125.62
611.554	1084.16
611.753	1064.79
611.953	1024.29
612.153	1068.66
612.352	1058.39
612.552	1007.24
612.752	993.1
612.951	1024.49
613.151	1052
613.351	1008.41
613.55	1057.04
613.75	1087.45
613.949	1050.26
614.149	1030.69
614.348	1032.04
614.548	1027.39
614.747	987.48
614.947	1039.79
615.146	959
615.346	1064.21
615.545	1042.7
615.745	1040.57
615.944	1052.77
616.144	1028.75
616.343	1064.4
616.542	1004.53
616.742	1029.52
616.941	1015.77
617.14	949.12
617.34	1002.01
617.539	970.63
617.738	940.79
617.938	1055.68
618.137	1003.56
618.336	926.64
618.535	1021.97
618.734	1005.31
618.934	982.83
619.133	1009.76
619.332	1051.81
619.531	985.74
619.73	985.54
619.929	1046.57
620.128	1022.94
620.328	1046.57
620.527	1002.21
620.726	999.3
620.925	1017.12
621.124	998.72
621.323	1006.66
621.522	946.02
621.721	961.13
621.92	927.23
622.119	979.54
622.318	952.8
622.517	954.16
622.715	992.71
622.914	894.87
623.113	956.68
623.312	880.15
623.511	1002.4
623.71	913.08
623.909	963.26
624.107	996.2
624.306	926.84
624.505	913.08
624.704	941.95
624.902	946.99
625.101	1008.02
625.3	936.33
625.499	943.31
625.697	954.16
625.896	937.69
626.095	927.42
626.293	874.72
626.492	907.46
626.69	929.94
626.889	907.46
627.088	973.53
627.286	886.93
627.485	885.38
627.683	892.35
627.882	912.5
628.08	803.62
628.279	900.88
628.477	943.69
628.676	828.41
628.874	893.13
629.073	868.91
629.271	865.81
629.469	886.35
629.668	869.88
629.866	882.66
630.065	835.2
630.263	904.75
630.461	829.38
630.66	872.78
630.858	907.66
631.056	918.7
631.254	946.99
631.453	864.45
631.651	892.16
631.849	885.57
632.047	878.4
632.245	880.53
632.444	878.98
632.642	913.86
632.84	927.23
633.038	868.91
633.236	874.72
633.434	879.76
633.632	870.26
633.83	857.86
634.028	912.89
634.227	875.69
634.425	953.38
634.623	894.48
634.821	926.84
635.019	912.31
635.216	885.76
635.414	926.84
635.612	901.26
635.81	889.25
636.008	940.01
636.206	888.86
636.404	920.83
636.602	841.01
636.8	875.5
636.997	925.29
637.195	892.35
637.393	884.8
637.591	932.84
637.789	926.45
637.986	900.88
638.184	900.88
638.382	915.6
638.58	921.61
638.777	950.86
638.975	891.19
639.173	897.97
639.37	903.78
639.568	881.11
639.765	911.92
639.963	867.16
640.161	944.47
640.358	906.49
640.556	847.21
640.753	847.79
640.951	836.16
641.148	901.65
641.346	870.65
641.543	886.93
641.741	893.32
641.938	824.15
642.136	858.06
642.333	817.18
642.531	895.84
642.728	912.69
642.925	855.15
643.123	835.97
643.32	884.41
643.517	843.72
643.715	840.04
643.912	845.66
644.109	863.1
644.306	831.9
644.504	799.35
644.701	839.46
644.898	871.04
645.095	822.21
645.293	803.23
645.49	861.35
645.687	849.92
645.884	879.37
646.081	757.89
646.278	803.42
646.475	802.45
646.672	822.21
646.87	839.46
647.067	795.67
647.264	797.22
647.461	772.23
647.658	760.41
647.855	818.73
648.052	773.39
648.249	669.35
648.446	785.98
648.642	748.4
648.839	746.27
649.036	751.11
649.233	708.87
649.43	722.43
649.627	652.88
649.824	747.23
650.021	726.12
650.217	701.32
650.414	736.38
650.611	761.96
650.808	764.87
651.004	764.67
651.201	751.11
651.398	812.53
651.595	739.68
651.791	713.72
651.988	766.22
652.185	743.55
652.381	746.07
652.578	700.74
652.775	739.68
652.971	767.19
653.168	719.53
653.364	757.31
653.561	691.44
653.757	744.72
653.954	729.22
654.15	690.27
654.347	793.93
654.543	734.45
654.74	686.4
654.936	655.2
655.133	726.7
655.329	714.3
655.525	686.01
655.722	752.27
655.918	650.17
656.115	709.45
656.311	620.33
656.507	610.45
656.704	599.41
656.9	620.52
657.096	604.25
657.292	608.32
657.489	670.32
657.685	684.65
657.881	667.99
658.077	671.29
658.273	663.34
658.47	707.71
658.666	684.85
658.862	707.52
659.058	673.61
659.254	743.75
659.45	663.54
659.646	725.15
659.842	683.88
660.038	757.31
660.234	674.97
660.43	702.09
660.626	775.33
660.822	734.64
661.018	743.36
661.214	688.53
661.41	664.7
661.606	680.97
661.802	736.97
661.998	712.55
662.194	676.32
662.39	732.7
662.586	734.06
662.781	731.15
662.977	730.57
663.173	731.73
663.369	727.47
663.564	712.75
663.76	717.2
663.956	682.91
664.152	720.69
664.347	655.4
664.543	659.85
664.739	670.12
664.934	616.07
665.13	608.51
665.326	736.97
665.521	665.09
665.717	636.6
665.912	648.04
666.108	617.42
666.304	647.84
666.499	668.19
666.695	614.71
666.89	664.5
667.086	666.05
667.281	673.42
667.477	701.12
667.672	662.57
667.867	667.41
668.063	657.53
668.258	602.31
668.454	622.66
668.649	719.92
668.844	623.04
669.04	659.08
669.235	631.18
669.43	626.53
669.626	605.61
669.821	638.93
670.016	599.02
670.211	631.57
670.407	603.47
670.602	614.71
670.797	632.92
670.992	686.01
671.187	608.12
671.382	669.93
671.578	581.19
671.773	614.52
671.968	609.67
672.163	637.38
672.358	657.14
672.553	594.76
672.748	607.16
672.943	685.62
673.138	623.43
673.333	664.31
673.528	568.6
673.723	640.67
673.918	644.55
674.113	593.01
674.308	675.16
674.503	656.17
674.698	649.78
674.892	631.57
675.087	649.39
675.282	642.22
675.477	600.37
675.672	646.29
675.867	622.27
676.061	573.06
676.256	543.61
676.451	578.67
676.646	610.84
676.84	583.52
677.035	532.56
677.23	578.48
677.424	628.66
677.619	662.57
677.814	639.12
678.008	668.77
678.203	564.34
678.397	599.6
678.592	606.96
678.787	643
678.981	611.42
679.176	630.02
679.37	608.71
679.565	581.97
679.759	604.44
679.954	629.05
680.148	678.45
680.342	675.74
680.537	634.09
680.731	603.67
680.926	614.52
681.12	640.67
681.314	585.65
681.509	613.74
681.703	602.51
681.897	643.58
682.092	629.63
682.286	597.47
682.48	691.63
682.674	652.3
682.869	606.38
683.063	616.65
683.257	655.2
683.451	587.78
683.645	629.63
683.839	596.5
684.034	594.95
684.228	645.13
684.422	553.49
684.616	560.46
684.81	635.64
685.004	579.45
685.198	596.11
685.392	627.11
685.586	591.66
685.78	603.86
685.974	616.07
686.168	630.02
686.362	656.17
686.556	584.87
686.75	536.44
686.944	539.34
687.138	517.84
687.331	475.79
687.525	461.46
687.719	401.2
687.913	490.91
688.107	506.79
688.301	473.86
688.494	524.43
688.688	479.09
688.882	435.69
689.076	435.88
689.269	498.08
689.463	570.15
689.657	494.2
689.85	507.96
690.044	503.89
690.238	512.99
690.431	512.03
690.625	523.26
690.818	552.13
691.012	535.08
691.205	561.82
691.399	513.96
691.593	555.62
691.786	630.21
691.98	634.09
692.173	644.16
692.366	625.95
692.56	636.6
692.753	638.54
692.947	598.24
693.14	675.74
693.333	652.88
693.527	606.57
693.72	670.9
693.914	616.46
694.107	632.73
694.3	650.36
694.493	662.95
694.687	702.87
694.88	670.12
695.073	718.56
695.266	709.07
695.46	704.42
695.653	718.37
695.846	713.91
696.039	636.6
696.232	691.05
696.425	755.57
696.618	749.95
696.812	763.32
697.005	815.24
697.198	888.09
697.391	811.95
697.584	856.9
697.777	886.93
697.97	872.2
698.163	880.92
698.356	864.06
698.549	961.13
698.742	898.74
698.935	846.43
699.127	927.81
699.32	864.84
699.513	885.57
699.706	912.89
699.899	949.7
700.092	868.33
700.285	937.88
700.477	900.88
700.67	947.38
700.863	972.95
701.056	1020.22
701.248	1023.91
701.441	1007.05
701.634	981.09
701.826	1068.66
702.019	971.21
702.212	1072.54
702.404	986.71
702.597	996.39
702.79	1062.46
702.982	1050.26
703.175	1124.46
703.367	1077.38
703.56	1096.56
703.752	1193.24
703.945	1173.67
704.137	1166.89
704.33	1198.08
704.522	1214.36
704.715	1188.98
704.907	1229.67
705.1	1245.75
705.292	1271.9
705.484	1238
705.677	1272.68
705.869	1268.41
706.061	1285.66
706.254	1341.46
706.446	1316.85
706.638	1312.78
706.831	1368.78
707.023	1299.03
707.215	1435.42
707.407	1403.07
707.599	1407.72
707.792	1478.63
707.984	1410.82
708.176	1455.38
708.368	1417.02
708.56	1488.32
708.752	1422.25
708.944	1494.71
709.136	1479.79
709.329	1470.3
709.521	1595.85
709.713	1570.85
709.905	1554.97
710.097	1589.26
710.289	1522.22
710.481	1578.99
710.672	1595.07
710.864	1621.81
711.056	1670.83
711.248	1669.47
711.44	1635.95
711.632	1637.89
711.824	1658.04
712.016	1737.48
712.207	1709.38
712.399	1722.95
712.591	1769.44
712.783	1733.8
712.975	1778.55
713.166	1697.56
713.358	1689.62
713.55	1827.96
713.741	1785.72
713.933	1788.82
714.125	1777.39
714.316	1813.23
714.508	1889.76
714.7	1828.34
714.891	1851.21
715.083	1927.16
715.274	1833.77
715.466	1862.06
715.657	1934.32
715.849	1834.54
716.04	1849.46
716.232	1801.22
716.423	1875.42
716.615	1814.2
716.806	1746
716.998	1726.05
717.189	1682.45
717.381	1612.32
717.572	1563.69
717.763	1575.12
717.955	1561.94
718.146	1549.35
718.337	1499.56
718.528	1486.96
718.72	1430.97
718.911	1485.99
719.102	1436.97
719.293	1498.39
719.485	1478.82
719.676	1465.26
719.867	1447.63
720.058	1434.26
720.249	1445.69
720.44	1457.71
720.632	1524.74
720.823	1582.29
721.014	1698.73
721.205	1650.29
721.396	1731.47
721.587	1833.77
721.778	1853.14
721.969	1891.51
722.16	1960.09
722.351	1951.18
722.542	2066.65
722.733	2022.67
722.924	1944.01
723.115	2040.3
723.305	2000
723.496	2061.23
723.687	1878.14
723.878	1917.08
724.069	1894.99
724.26	1922.89
724.45	1838.23
724.641	1844.23
724.832	1863.02
725.023	1875.42
725.213	1870.97
725.404	1854.69
725.595	1867.09
725.785	1830.86
725.976	1938.97
726.167	1897.32
726.357	1885.69
726.548	1994.19
726.739	1903.52
726.929	1996.71
727.12	1986.25
727.31	2037.98
727.501	1952.92
727.691	1950.99
727.882	1939.36
728.072	2022.09
728.263	2039.53
728.453	2085.83
728.644	2083.12
728.834	2058.9
729.024	2014.15
729.215	2009.69
729.405	2041.08
729.596	2132.72
729.786	2101.33
729.976	2111.02
730.167	2142.8
730.357	2113.93
730.547	2129.23
730.737	2134.27
730.928	2220.1
731.118	2223.01
731.308	2176.12
731.498	2219.33
731.688	2266.99
731.879	2259.63
732.069	2298.57
732.259	2329.18
732.449	2362.12
732.639	2399.51
732.829	2453.57
733.019	2478.56
733.209	2508.4
733.399	2548.12
733.589	2604.5
733.779	2612.25
733.969	2614.38
734.159	2631.81
734.349	2721.13
734.539	2720.16
734.729	2729.66
734.919	2771.89
735.109	2787.78
735.299	2710.28
735.488	2762.98
735.678	2745.16
735.868	2782.94
736.058	2768.21
736.248	2737.6
736.437	2673.66
736.627	2708.54
736.817	2831.37
737.007	2733.53
737.196	2839.9
737.386	2797.47
737.576	2757.17
737.765	2823.82
737.955	2784.68
738.144	2907.52
738.334	2887.17
738.524	2785.46
738.713	2868.77
738.903	2803.86
739.092	2891.24
739.282	2837.19
739.471	2872.64
739.661	2894.34
739.85	2921.85
740.04	2927.08
740.229	2944.13
740.419	2986.37
740.608	3000.51
740.797	2946.27
740.987	3005.94
741.176	3008.85
741.365	2956.73
741.555	2953.43
741.744	2988.5
741.933	2981.33
742.123	2986.18
742.312	3018.73
742.501	3065.42
742.69	3036.94
742.88	2952.85
743.069	3126.06
743.258	2980.37
743.447	3061.93
743.636	3053.8
743.825	3018.73
744.014	3074.33
744.204	3067.36
744.393	3016.6
744.582	3109.98
744.771	3120.06
744.96	3076.66
745.149	3109.98
745.338	3050.31
745.527	3089.25
745.716	3072.78
745.905	3066.97
746.094	3120.44
746.283	3141.37
746.471	3105.91
746.66	3184.19
746.849	3146.99
747.038	3143.89
747.227	3135.56
747.416	3159.78
747.604	3094.09
747.793	3076.66
747.982	3110.18
748.171	3161.33
748.359	3128.78
748.548	3111.14
748.737	3051.28
748.926	3091.58
749.114	3018.73
749.303	3097
749.491	3112.89
749.68	3031.71
749.869	3140.01
750.057	3079.95
750.246	3054.96
750.434	3103.98
750.623	3043.72
750.811	3072.78
751	3089.83
751.188	3047.01
751.377	3049.15
751.565	3039.26
751.754	3009.62
751.942	3036.16
752.131	3088.48
752.319	3020.08
752.507	2979.78
752.696	3052.63
752.884	3068.33
753.072	3038.1
753.261	3054.96
753.449	3027.25
753.637	2962.15
753.825	3071.23
754.014	3028.41
754.202	3041.59
754.39	3078.01
754.578	3040.43
754.766	3026.28
754.955	2976.88
755.143	3090.22
755.331	3013.5
755.519	2991.6
755.707	2964.28
755.895	2942.58
756.083	3008.46
756.271	2950.14
756.459	2946.65
756.647	3049.53
756.835	2981.33
757.023	2965.06
757.211	2977.46
757.399	2959.83
757.587	2909.45
757.775	2903.25
757.963	2897.05
758.151	2935.8
758.339	2877.29
758.526	2877.49
758.714	2912.55
758.902	2841.84
759.09	2694.01
759.278	2567.49
759.465	2344.49
759.653	2012.79
759.841	1840.36
760.028	1561.75
760.216	1343.78
760.404	1243.81
760.591	1034.95
760.779	887.51
760.967	753.63
761.154	634.28
761.342	671.29
761.529	656.37
761.717	757.12
761.905	734.64
762.092	774.36
762.28	743.36
762.467	755.37
762.655	693.95
762.842	722.82
763.029	718.37
763.217	721.08
763.404	743.17
763.592	755.57
763.779	703.06
763.966	771.45
764.154	806.13
764.341	860.96
764.528	840.04
764.716	916.76
764.903	980.7
765.09	1030.11
765.277	1043.28
765.465	1205.25
765.652	1236.25
765.839	1323.05
766.026	1435.62
766.213	1456.54
766.4	1548.38
766.588	1762.66
766.775	1699.89
766.962	1809.74
767.149	1930.06
767.336	2032.55
767.523	1977.72
767.71	2078.28
767.897	2216.42
768.084	2276.29
768.271	2272.61
768.458	2340.42
768.645	2374.71
768.832	2341.97
769.019	2383.24
769.206	2440
769.392	2489.6
769.579	2536.1
769.766	2504.91
769.953	2503.36
770.14	2583.38
770.327	2538.04
770.513	2577.18
770.7	2642.86
770.887	2613.41
771.073	2644.99
771.26	2623.48
771.447	2583.38
771.634	2578.34
771.82	2703.89
772.007	2540.75
772.193	2596.94
772.38	2671.73
772.567	2623.48
772.753	2614.18
772.94	2692.46
773.126	2637.63
773.313	2658.16
773.499	2676.57
773.686	2680.25
773.872	2604.69
774.059	2635.69
774.245	2597.13
774.432	2622.13
774.618	2547.73
774.804	2614.76
774.991	2557.8
775.177	2583.96
775.363	2587.45
775.55	2596.16
775.736	2519.63
775.922	2570.2
776.109	2575.82
776.295	2545.98
776.481	2609.92
776.667	2608.18
776.853	2555.86
777.04	2527.97
777.226	2537.65
777.412	2622.13
777.598	2486.31
777.784	2535.52
777.97	2494.45
778.156	2532.62
778.342	2530.29
778.528	2521.18
778.715	2458.02
778.901	2497.35
779.087	2489.02
779.272	2499.29
779.458	2429.93
779.644	2501.03
779.83	2442.91
780.016	2553.93
780.202	2447.75
780.388	2452.99
780.574	2391.18
780.76	2451.63
780.946	2477.98
781.131	2414.82
781.317	2409.2
781.503	2387.89
781.689	2438.07
781.874	2522.15
782.06	2419.08
782.246	2422.57
782.432	2367.54
782.617	2396.02
782.803	2450.85
782.989	2344.1
783.174	2371.22
783.36	2325.31
783.545	2400.29
783.731	2380.52
783.916	2323.37
784.102	2342.16
784.288	2340.81
784.473	2375.1
784.659	2313.1
784.844	2368.9
785.029	2293.92
785.215	2282.1
785.4	2271.83
785.586	2365.22
785.771	2271.25
785.956	2355.92
786.142	2315.62
786.327	2257.3
786.512	2268.15
786.698	2281.13
786.883	2192.59
787.068	2250.52
787.254	2292.18
787.439	2206.54
787.624	2215.06
787.809	2232.89
787.994	2201.5
788.18	2273.58
788.365	2166.05
788.55	2158.3
788.735	2170.5
788.92	2217.58
789.105	2171.86
789.29	2213.9
789.475	2139.7
789.66	2117.8
789.845	2108.89
790.03	2089.13
790.215	2157.33
790.4	2155
790.585	2218.36
790.77	2131.75
790.955	2040.69
791.14	2105.98
791.325	2169.53
791.51	2036.82
791.695	2118.38
791.879	2072.08
792.064	2056.97
792.249	2173.6
792.434	2097.07
792.618	2103.27
792.803	2158.49
792.988	2066.27
793.173	2075.95
793.357	2128.65
793.542	2071.69
793.727	2103.27
793.911	2101.53
794.096	2080.41
794.281	2127.1
794.465	2215.84
794.65	2087.38
794.834	2131.75
795.019	2157.33
795.203	2170.5
795.388	2144.73
795.572	2169.34
795.757	2111.6
795.941	2124.97
796.126	2164.69
796.31	2124.97
796.494	2140.47
796.679	2104.05
796.863	2096.1
797.048	2167.98
797.232	2120.71
797.416	2124.39
797.601	2113.15
797.785	2196.66
797.969	2172.05
798.153	2118.38
798.338	2175.73
798.522	2179.03
798.706	2162.75
798.89	2186.39
799.074	2270.86
799.258	2216.42
799.443	2147.45
799.627	2162.36
799.811	2218.55
799.995	2160.43
800.179	2153.45
800.363	2134.66
800.547	2145.7
800.731	2185.42
800.915	2093.58
801.099	2110.05
801.283	2126.33
801.467	2127.49
801.651	2131.56
801.835	2186
802.019	2165.46
802.202	2145.51
802.386	2102.69
802.57	2115.09
802.754	2138.92
802.938	2076.15
803.121	2118.58
803.305	2213.71
803.489	2118.77
803.673	2106.57
803.856	2133.88
804.04	2129.23
804.224	2133.3
804.407	2111.41
804.591	2110.05
804.775	2116.83
804.958	2115.87
805.142	2223.98
805.326	2131.56
805.509	2170.31
805.693	2213.71
805.876	2169.73
806.06	2177.86
806.243	2189.88
806.427	2198.79
806.61	2213.9
806.794	2167.4
806.977	2198.6
807.16	2179.41
807.344	2206.15
807.527	2177.86
807.71	2165.08
807.894	2155
808.077	2222.04
808.26	2098.82
808.444	2135.63
808.627	2214.48
808.81	2121.87
808.993	2100.95
809.177	2090.68
809.36	2105.79
809.543	2119.55
809.726	2016.09
809.909	2024.22
810.092	2040.11
810.276	2041.66
810.459	2020.54
810.642	2026.74
810.825	1960.87
811.008	2001.75
811.191	1943.04
811.374	1920.57
811.557	1930.06
811.74	2008.53
811.923	1887.24
812.106	1866.71
812.289	1867.09
812.472	1863.61
812.654	1855.66
812.837	1838.23
813.02	1744.45
813.203	1819.63
813.386	1699.89
813.569	1699.31
813.751	1650.29
813.934	1687.49
814.117	1636.53
814.3	1619.48
814.482	1582.48
814.665	1555.74
814.848	1508.85
815.03	1495.29
815.213	1462.94
815.396	1471.46
815.578	1431.16
815.761	1436.97
815.943	1479.6
816.126	1398.42
816.309	1372.26
816.491	1294.38
816.674	1269
816.856	1313.17
817.039	1304.26
817.221	1385.05
817.403	1372.65
817.586	1336.81
817.768	1415.28
817.951	1288.56
818.133	1298.25
818.315	1335.64
818.498	1319.56
818.68	1398.42
818.862	1388.34
819.045	1388.54
819.227	1374.39
819.409	1346.88
819.591	1375.56
819.774	1356.76
819.956	1321.11
820.138	1418.18
820.32	1420.7
820.502	1423.8
820.684	1497.81
820.866	1501.88
821.048	1536.75
821.231	1535.59
821.413	1529.78
821.595	1488.12
821.777	1498.97
821.959	1512.15
822.141	1544.89
822.323	1438.33
822.505	1418.38
822.686	1346.11
822.868	1318.79
823.05	1185.49
823.232	1156.43
823.414	1159.53
823.596	1169.8
823.778	1176.38
823.96	1201.96
824.141	1240.9
824.323	1244.78
824.505	1290.11
824.687	1342.23
824.868	1359.67
825.05	1455.77
825.232	1493.36
825.413	1561.36
825.595	1489.87
825.777	1437.56
825.958	1473.59
826.14	1491.42
826.321	1485.22
826.503	1472.62
826.685	1455.19
826.866	1508.47
827.048	1537.34
827.229	1446.08
827.411	1419.15
827.592	1389.89
827.773	1389.51
827.955	1342.23
828.136	1338.74
828.318	1315.88
828.499	1363.93
828.68	1321.31
828.862	1355.79
829.043	1372.46
829.224	1341.65
829.406	1286.43
829.587	1329.25
829.768	1341.65
829.949	1357.34
830.131	1295.93
830.312	1411.79
830.493	1340.68
830.674	1355.79
830.855	1333.51
831.036	1367.61
831.218	1385.24
831.399	1397.26
831.58	1336.42
831.761	1371.1
831.942	1356.57
832.123	1322.28
832.304	1273.84
832.485	1299.41
832.666	1324.6
832.847	1362.58
833.028	1344.36
833.209	1309.3
833.389	1322.28
833.57	1281.01
833.751	1334.29
833.932	1364.13
834.113	1338.16
834.294	1330.41
834.475	1377.69
834.655	1401.13
834.836	1426.51
835.017	1394.54
835.198	1310.65
835.378	1344.17
835.559	1391.44
835.74	1348.82
835.92	1337.78
836.101	1332.16
836.281	1384.66
836.462	1375.94
836.643	1411.79
836.823	1431.94
837.004	1393.96
837.184	1448.79
837.365	1393.96
837.545	1449.57
837.726	1394.93
837.906	1460.61
838.087	1368.97
838.267	1402.49
838.448	1364.51
838.628	1389.89
838.808	1366.06
838.989	1431.36
839.169	1330.61
839.349	1408.11
839.53	1451.31
839.71	1448.41
839.89	1375.94
840.07	1452.86
840.251	1381.37
840.431	1428.64
840.611	1375.94
840.791	1358.7
840.971	1396.09
841.151	1374.01
841.332	1317.63
841.512	1425.54
841.692	1354.05
841.872	1420.7
842.052	1413.34
842.232	1396.09
842.412	1311.81
842.592	1388.54
842.772	1365.29
842.952	1386.79
843.132	1347.46
843.312	1329.06
843.492	1334.09
843.672	1364.9
843.851	1306
844.031	1357.93
844.211	1347.46
844.391	1313.36
844.571	1383.31
844.751	1325.57
844.93	1352.11
845.11	1348.24
845.29	1370.33
845.47	1373.43
845.649	1346.49
845.829	1366.45
846.009	1313.17
846.188	1372.07
846.368	1300.58
846.547	1335.06
846.727	1349.59
846.907	1298.83
847.086	1350.18
847.266	1380.59
847.445	1345.53
847.625	1307.55
847.804	1306.2
847.984	1309.3
848.163	1300.58
848.343	1281.2
848.522	1310.46
848.701	1305.42
848.881	1275
849.06	1313.56
849.239	1315.5
849.419	1320.73
849.598	1257.37
849.777	1256.79
849.957	1256.21
850.136	1159.14
850.315	1213.39
850.494	1184.91
850.674	1188.98
850.853	1228.31
851.032	1212.23
851.211	1266.09
851.39	1226.37
851.569	1158.37
851.748	1167.28
851.927	1255.43
852.107	1224.24
852.286	1169.8
852.465	1169.99
852.644	1232.96
852.823	1242.84
853.002	1198.28
853.181	1200.99
853.359	1228.89
853.538	1171.93
853.717	1266.28
853.896	1131.05
854.075	1072.54
854.254	1065.37
854.433	993.29
854.611	1071.57
854.79	1002.4
854.969	1086.1
855.148	1075.05
855.327	1066.14
855.505	1067.31
855.684	1107.99
855.863	1080.48
856.041	1096.37
856.22	1133.76
856.399	1080.67
856.577	1198.86
856.756	1144.61
856.934	1279.26
857.113	1239.93
857.291	1167.67
857.47	1141.7
857.648	1190.33
857.827	1167.08
858.005	1173.28
858.184	1133.37
858.362	1243.03
858.541	1143.06
858.719	1165.53
858.898	1146.55
859.076	1154.88
859.254	1241.48
859.433	1157.01
859.611	1142.48
859.789	1101.4
859.967	1188.2
860.146	1199.63
860.324	1093.07
860.502	1123.3
860.68	1087.45
860.859	1126.01
861.037	1115.74
861.215	1138.02
861.393	1125.04
861.571	1118.45
861.749	1104.7
861.927	1156.24
862.105	1138.6
862.283	1058.39
862.461	1066.53
862.639	1053.74
862.817	1080.48
862.995	1110.12
863.173	1077.77
863.351	1070.02
863.529	1101.4
863.707	1146.94
863.885	1139.19
864.063	1015.57
864.241	1063.62
864.418	1125.62
864.596	1066.34
864.774	1023.13
864.952	1086.87
865.129	1096.56
865.307	1023.32
865.485	992.91
865.663	1063.04
865.84	980.7
866.018	1013.83
866.196	903.98
866.373	967.14
866.551	907.66
866.728	884.8
866.906	919.86
867.084	946.79
867.261	956.09
867.439	976.05
867.616	1017.51
867.794	985.35
867.971	1005.89
868.149	1014.22
868.326	1025.07
868.503	1042.51
868.681	1024.49
868.858	973.14
869.035	971.98
869.213	1010.15
869.39	1007.82
869.567	1038.05
869.745	964.62
869.922	999.11
870.099	1014.8
870.276	996.39
870.454	986.32
870.631	998.14
870.808	996.01
870.985	1035.53
871.162	1054.13
871.339	989.81
871.517	969.46
871.694	953.96
871.871	1004.14
872.048	971.4
872.225	953.58
872.402	958.61
872.579	932.26
872.756	1009.57
872.933	894.48
873.11	953.77
873.287	956.68
873.463	945.83
873.64	916.76
873.817	983.8
873.994	959.58
874.171	940.59
874.348	943.31
874.524	910.37
874.701	927.42
874.878	879.37
875.055	924.51
875.231	957.26
875.408	940.01
875.585	879.95
875.762	919.67
875.938	919.67
876.115	918.12
876.291	899.71
876.468	903.01
876.645	859.8
876.821	874.53
876.998	904.75
877.174	915.99
877.351	897.39
877.527	886.54
877.704	911.92
877.88	902.43
878.057	878.4
878.233	952.03
878.409	860
878.586	901.07
878.762	852.63
878.938	901.65
879.115	805.36
879.291	878.4
879.467	822.8
879.644	833.26
879.82	880.73
879.996	841.2
880.172	805.55
880.349	842.95
880.525	883.05
880.701	804.58
880.877	821.83
881.053	830.55
881.229	826.28
881.405	876.66
881.581	835.39
881.757	809.62
881.933	852.25
882.109	874.14
882.285	850.5
882.461	785.79
882.637	833.06
882.813	792.38
882.989	804.58
883.165	889.64
883.341	796.64
883.517	875.88
883.693	836.36
883.869	877.24
884.044	827.25
884.22	856.7
884.396	864.26
884.572	842.36
884.747	849.73
884.923	847.79
885.099	870.46
885.275	884.99
885.45	826.48
885.626	823.96
885.801	799.16
885.977	794.12
886.153	755.57
886.328	838.1
886.504	827.06
886.679	846.05
886.855	789.28
887.03	799.55
887.206	847.6
887.381	838.3
887.557	850.11
887.732	826.28
887.908	858.25
888.083	867.94
888.258	776.49
888.434	824.73
888.609	813.88
888.784	872.59
888.96	811.36
889.135	803.42
889.31	793.35
889.485	826.67
889.661	807.49
889.836	859.03
890.011	855.93
890.186	817.18
890.361	818.15
890.537	848.95
890.712	849.92
890.887	789.86
891.062	852.25
891.237	866.78
891.412	814.46
891.587	821.25
891.762	865.61
891.937	882.86
892.112	773.78
892.287	814.46
892.462	772.62
892.637	774.75
892.812	730.77
892.987	775.13
893.161	738.13
893.336	761.38
893.511	742
893.686	767.97
893.861	747.43
894.035	751.88
894.21	749.37
894.385	684.07
894.56	722.63
894.734	671.67
894.909	695.89
895.084	690.85
895.258	666.44
895.433	687.17
895.608	641.45
895.782	621.49
895.957	645.9
896.131	626.72
896.306	599.02
896.48	587.39
896.655	580.22
896.829	540.12
897.004	524.23
897.178	558.52
897.353	537.02
897.527	584.87
897.701	550.77
897.876	531.59
898.05	606.96
898.224	571.89
898.399	597.08
898.573	592.43
898.747	482.38
898.921	519.78
899.096	440.53
899.27	433.56
899.444	437.43
899.618	473.66
899.792	493.23
899.967	455.06
900.141	545.35
900.315	449.25
900.489	495.75
900.663	489.94
900.837	482.58
901.011	414.38
901.185	550
901.359	479.28
901.533	494.98
901.707	492.65
901.881	500.4
902.055	460.68
902.229	465.53
902.403	528.88
902.576	489.55
902.75	505.24
902.924	607.74
903.098	519.39
903.272	562.98
903.446	619.94
903.619	579.84
903.793	593.59
903.967	599.6
904.14	592.82
904.314	643
904.488	624.79
904.661	634.09
904.835	603.86
905.009	644.55
905.182	700.54
905.356	641.45
905.529	605.02
905.703	584.29
905.876	577.32
906.05	564.34
906.223	530.43
906.397	485.09
906.57	490.52
906.744	495.94
906.917	456.23
907.09	474.05
907.264	463.78
907.437	455.06
907.61	402.75
907.784	469.59
907.957	474.63
908.13	437.82
908.304	469.4
908.477	429.68
908.65	463.59
908.823	408.56
908.996	504.86
909.17	411.66
909.343	414.76
909.516	439.18
909.689	425.42
909.862	415.15
910.035	434.14
910.208	396.16
910.381	411.47
910.554	476.38
910.727	432.01
910.9	407.6
911.073	396.16
911.246	483.74
911.419	472.89
911.592	441.5
911.765	391.71
911.938	413.8
912.11	423.1
912.283	425.61
912.456	429.68
912.629	432.59
912.802	419.03
912.974	351.22
913.147	355.48
913.32	304.52
913.493	332.42
913.665	351.22
913.838	365.94
914.01	365.75
914.183	367.68
914.356	368.27
914.528	388.61
914.701	458.16
914.873	407.79
915.046	398.3
915.218	351.02
915.391	299.29
915.563	299.87
915.736	361.87
915.908	374.27
916.081	367.68
916.253	344.63
916.425	385.9
916.598	365.94
916.77	365.75
916.942	334.55
917.115	285.53
917.287	375.05
917.459	323.7
917.632	311.11
917.804	278.75
917.976	328.16
918.148	356.25
918.32	314.4
918.493	380.08
918.665	399.65
918.837	372.14
919.009	416.9
919.181	429.88
919.353	384.54
919.525	383.76
919.697	375.05
919.869	381.05
920.041	447.12
920.213	476.38
920.385	411.47
920.557	394.81
920.729	422.32
920.901	391.32
921.073	370.98
921.244	377.56
921.416	409.73
921.588	376.98
921.76	379.7
921.932	464.56
922.103	361.29
922.275	389.96
922.447	405.85
922.619	322.15
922.79	338.82
922.962	348.12
923.134	384.15
923.305	369.62
923.477	304.91
923.648	311.3
923.82	337.85
923.991	291.73
924.163	295.61
924.335	324.48
924.506	298.32
924.677	389.19
924.849	310.33
925.02	340.17
925.192	356.06
925.363	333.2
925.535	350.25
925.706	311.11
925.877	347.15
926.049	298.32
926.22	341.72
926.391	353.54
926.562	388.8
926.734	305.49
926.905	365.17
927.076	290.57
927.247	303.36
927.419	280.69
927.59	240
927.761	266.35
927.932	255.7
928.103	278.17
928.274	219.47
928.445	219.27
928.616	234
928.787	221.4
928.958	252.21
929.129	223.34
929.3	223.73
929.471	173.36
929.642	173.36
929.813	110.58
929.984	218.3
930.155	102.64
930.326	199.51
930.496	136.35
930.667	92.37
930.838	140.22
931.009	101.48
931.18	130.34
931.35	132.47
931.521	141.77
931.692	76.29
931.863	56.14
932.033	101.67
932.204	79.97
932.374	94.31
932.545	72.22
932.716	126.08
932.886	94.11
933.057	13.32
933.227	42.96
933.398	150.49
933.568	50.52
933.739	19.52
933.909	-1.21
934.08	79
934.25	-3.54
934.421	15.45
934.591	51.68
934.761	31.92
934.932	-4.12
935.102	51.29
935.272	16.03
935.443	1.89
935.613	29.21
935.783	36.76
935.953	3.05
936.123	162.31
936.294	5.57
936.464	1.31
936.634	42.19
936.804	-8.38
936.974	-21.36
937.144	42.19
937.314	35.41
937.484	7.31
937.655	-3.92
937.825	47.61
937.995	13.13
938.165	66.41
938.334	30.18
938.504	23.98
938.674	10.03
938.844	42.38
939.014	94.69
939.184	67.76
939.354	116.78
939.524	96.44
939.694	57.11
939.863	44.9
940.033	111.94
940.203	124.72
940.373	97.41
940.542	84.62
940.712	44.13
940.882	119.88
941.051	99.73
941.221	85.78
941.391	98.18
941.56	61.56
941.73	44.32
941.899	162.31
942.069	63.31
942.238	97.79
942.408	60.4
942.577	122.79
942.747	58.85
942.916	20.3
943.086	31.92
943.255	74.74
943.425	60.4
943.594	31.34
943.763	-4.89
943.933	13.51
944.102	-15.94
944.271	45.29
944.441	49.74
944.61	37.73
944.779	67.18
944.948	149.14
945.117	26.88
945.287	60.01
945.456	-31.63
945.625	33.28
945.794	37.54
945.963	48.58
946.132	40.83
946.301	35.21
946.47	65.05
946.639	6.54
946.808	35.99
946.977	57.11
947.146	96.05
947.315	38.7
947.484	57.3
947.653	29.21
947.822	30.76
947.991	38.31
948.16	116.2
948.329	99.54
948.498	35.6
948.666	27.46
948.835	93.14
949.004	-0.82
949.173	8.86
949.341	56.14
949.51	61.37
949.679	89.66
949.847	75.51
950.016	127.63
950.185	108.45
950.353	50.33
950.522	43.54
950.69	104.58
950.859	44.71
951.028	86.94
951.196	49.94
951.365	36.76
951.533	41.8
951.701	81.52
951.87	63.5
952.038	-7.02
952.207	64.47
952.375	126.08
952.543	60.01
952.712	60.21
952.88	41.22
953.048	91.01
953.217	59.24
953.385	51.1
953.553	104.38
953.721	26.49
953.89	52.65
954.058	-1.02
954.226	12.55
954.394	73.77
954.562	14.68
954.73	76.48
954.898	29.59
955.067	54.98
955.235	10.41
955.403	87.14
955.571	108.26
955.739	68.34
955.907	14.87
956.075	32.5
956.243	19.13
956.41	78.03
956.578	-9.93
956.746	-6.44
956.914	33.28
957.082	70.86
957.25	54.59
957.418	30.18
957.585	51.68
957.753	96.63
957.921	37.73
958.089	26.69
958.256	75.9
958.424	85.01
958.592	96.24
958.759	36.57
958.927	94.5
959.095	19.71
959.262	34.05
959.43	63.5
959.597	15.84
959.765	44.13
959.932	15.26
960.1	47.81
960.267	74.74
960.435	46.64
960.602	95.66
960.77	18.94
960.937	1.89
961.104	55.94
961.272	10.03
961.439	46.84
961.606	69.7
961.774	79
961.941	25.53
962.108	69.89
962.275	70.86
962.443	95.28
962.61	60.01
962.777	114.65
962.944	67.38
963.111	81.13
963.278	66.41
963.446	67.57
963.613	46.84
963.78	49.94
963.947	93.14
964.114	72.61
964.281	118.91
964.448	64.86
964.615	61.18
964.782	78.61
964.949	117.56
965.116	72.99
965.282	105.35
965.449	62.92
965.616	15.65
965.783	97.6
965.95	69.89
966.117	33.08
966.283	72.8
966.45	67.18
966.617	60.59
966.784	110.39
966.95	99.93
967.117	86.36
967.284	47.23
967.45	45.29
967.617	107.48
967.784	74.74
967.95	115.23
968.117	83.84
968.283	123.17
968.45	156.31
968.616	89.27
968.783	123.17
968.949	98.18
969.116	111.36
969.282	68.73
969.449	73.38
969.615	97.41
969.781	49.74
969.948	46.64
970.114	46.64
970.28	114.46
970.447	74.93
970.613	115.42
970.779	47.23
970.945	86.94
971.112	100.51
971.278	63.11
971.444	66.41
971.61	109.61
971.776	66.41
971.942	74.93
972.108	121.43
972.275	69.89
972.441	85.39
972.607	167.16
972.773	68.73
972.939	110.77
973.105	91.21
973.271	33.47
973.437	78.03
973.602	47.03
973.768	111.74
973.934	72.22
974.1	85.78
974.266	3.44
974.432	108.45
974.598	52.84
974.763	73.19
974.929	60.98
975.095	127.24
975.261	45.68
975.426	35.6
975.592	71.06
975.758	117.36
975.923	3.25
976.089	57.11
976.255	117.94
976.42	78.03
976.586	59.63
976.751	72.22
976.917	147.39
977.082	103.03
977.248	23.01
977.413	22.62
977.579	68.34
977.744	57.49
977.91	4.6
978.075	53.43
978.24	96.63
978.406	68.73
978.571	42.58
978.736	43.16
978.902	95.47
979.067	56.14
979.232	-2.57
979.397	70.67
979.563	101.48
979.728	14.48
979.893	61.56
980.058	60.21
980.223	92.56
980.388	78.03
980.554	54.01
980.719	52.46
980.884	87.72
981.049	96.24
981.214	47.61
981.379	68.34
981.544	39.09
981.709	58.08
981.874	59.82
982.039	55.36
982.204	102.83
982.368	69.51
982.533	5.18
982.698	107.87
982.863	89.66
983.028	35.79
983.193	79.19
983.357	76.48
983.522	77.45
983.687	66.99
983.852	60.4
984.016	73.96
984.181	67.18
984.346	93.73
984.51	78.42
984.675	61.76
984.839	96.05
985.004	76.48
985.168	108.84
985.333	74.54
985.498	54.78
985.662	103.99
985.827	81.33
985.991	65.63
986.155	24.36
986.32	93.92
986.484	87.33
986.649	79.19
986.813	45.87
986.977	64.47
987.142	92.56
987.306	24.36
987.47	50.33
987.634	56.72
987.799	75.9
987.963	64.47
988.127	80.55
988.291	141.58
988.455	69.51
988.62	48.58
988.784	67.76
988.948	54.2
989.112	29.21
989.276	81.71
989.44	73.96
989.604	25.72
989.768	54.2
989.932	116.2
990.096	12.93
990.26	8.48
990.424	32.69
990.588	50.13
990.752	122.4
990.915	111.94
991.079	46.06
991.243	64.66
991.407	112.13
991.571	85.59
991.734	82.49
991.898	87.91
992.062	154.76
992.226	51.88
992.389	39.86
992.553	6.15
992.717	30.76
992.88	59.04
993.044	44.32
993.207	30.37
993.371	53.23
993.535	80.36
993.698	38.89
993.862	90.43
994.025	96.44
994.189	53.23
994.352	58.27
994.515	72.8
994.679	79.39
994.842	30.76
995.006	97.21
995.169	36.18
995.332	47.81
995.496	70.86
995.659	5.76
995.822	66.02
995.985	47.03
996.149	115.42
996.312	38.7
996.475	95.28
996.638	11.58
996.801	108.26
996.964	102.83
997.128	43.93
997.291	32.69
997.454	66.02
997.617	-5.47
997.78	64.86
997.943	50.13
998.106	55.94
998.269	20.88
998.432	52.07
998.595	46.64
998.758	-4.31
998.92	24.17
999.083	-0.63
999.246	41.41
999.409	11
999.572	5.38
999.735	9.83
999.897	40.64
1000.06	16.61
1000.223	27.66
1000.386	75.9
1000.548	74.35
1000.711	58.08
1000.874	62.92
1001.036	-21.55
1001.199	69.7
1001.361	26.49
1001.524	47.42
1001.687	48.39
1001.849	33.28
1002.012	31.92
1002.174	50.52
1002.337	77.64
1002.499	5.18
1002.661	72.61
1002.824	-3.73
1002.986	35.02
1003.149	58.46
1003.311	0.73
1003.473	113.1
1003.636	25.72
1003.798	48.97
1003.96	71.83
1004.123	55.94
1004.285	7.31
1004.447	32.89
1004.609	40.25
1004.771	100.12
1004.933	-2.18
1005.096	9.06
1005.258	-6.83
1005.42	2.66
1005.582	89.27
1005.744	58.08
1005.906	0.34
1006.068	21.07
1006.23	-31.63
1006.392	-25.82
1006.554	-16.52
1006.716	66.6
1006.878	62.34
1007.04	-14
1007.202	34.83
1007.363	30.18
1007.525	48
1007.687	57.49
1007.849	89.08
1008.011	-27.95
1008.172	-12.45
1008.334	0.73
1008.496	38.31
1008.658	16.61
1008.819	-9.93
1008.981	9.64
1009.143	-4.5
1009.304	25.14
1009.466	47.81
1009.627	77.26
1009.789	118.52
1009.95	39.09
1010.112	-9.54
1010.273	33.66
1010.435	6.15
1010.596	22.81
1010.758	14.48
1010.919	3.25
1011.081	-3.73
1011.242	29.01
1011.403	41.61
1011.565	37.73
1011.726	44.9
1011.887	0.15
1012.049	3.25
1012.21	52.07
1012.371	83.65
1012.532	-35.12
1012.693	8.48
1012.855	8.86
1013.016	2.28
1013.177	66.02
1013.338	18.75
1013.499	73.96
1013.66	64.08
1013.821	31.92
1013.982	12.93
1014.143	19.33
1014.304	-4.31
1014.465	51.1
1014.626	37.93
1014.787	19.71
1014.948	106.32
1015.109	-65.34
1015.27	45.09
1015.431	-1.79
1015.592	-1.4
1015.752	75.13
1015.913	17
1016.074	15.26
1016.235	-0.44
1016.395	12.93
1016.556	17
1016.717	-2.76
1016.877	61.18
1017.038	-6.44
1017.199	2.47
1017.359	32.69
1017.52	30.18
1017.681	-12.06
1017.841	8.09
1018.002	20.1
1018.162	2.86
1018.323	90.04
1018.483	-5.09
1018.644	9.25
1018.804	1.11
1018.964	-26.98
1019.125	0.53
1019.285	19.71
1019.446	-39.19
1019.606	1.7
1019.766	-29.69
1019.926	33.66
1020.087	35.6
1020.247	-17.68
1020.407	27.46
1020.567	46.06
1020.728	37.15
1020.888	-22.52
1021.048	12.35
1021.208	-15.55
1021.368	-1.21
1021.528	65.63
1021.688	49.16
1021.848	44.9
1022.008	16.42
1022.168	6.54
1022.328	13.9
1022.488	46.45
1022.648	12.35
1022.808	17.97
1022.968	20.49
1023.128	-24.27
1023.288	-3.54
1023.448	11
1023.608	35.99
1023.767	13.71
1023.927	-6.44
1024.087	-26.2
1024.247	4.21
1024.406	-10.7
1024.566	-18.45
1024.726	-56.43
1024.885	-7.6
1025.045	44.51
1025.205	21.46
1025.364	-2.18
1025.524	47.03
1025.683	-5.28
1025.843	25.33
1026.003	10.41
1026.162	45.48
1026.321	27.08
1026.481	4.02
1026.64	-12.45
1026.8	20.49
1026.959	20.88
1027.119	-6.25
1027.278	19.71
1027.437	-17.68
1027.597	14.29
1027.756	35.21
1027.915	7.51
1028.074	12.16
1028.234	-10.51
1028.393	20.3
1028.552	24.36
1028.711	-60.69
1028.87	36.18
1029.03	-32.21
1029.189	17.2
1029.348	-57.98
1029.507	-11.67
1029.666	2.08
1029.825	-27.17
1029.984	-28.72
1030.143	35.6
1030.302	-25.82
1030.461	-54.3
1030.62	4.8
1030.779	12.55
1030.938	-20.59
1031.097	-4.89
1031.255	31.53
1031.414	64.08
1031.573	64.28
1031.732	-41.32
1031.891	-8.77
1032.049	49.94
1032.208	22.04
1032.367	-14.58
1032.525	-10.7
1032.684	-33.18
1032.843	7.9
1033.001	-59.53
1033.16	138.87
1033.319	46.06
1033.477	12.55
1033.636	0.34
1033.794	-36.86
1033.953	46.26
1034.111	20.88
1034.27	-30.85
1034.428	20.3
1034.587	-22.72
1034.745	23.78
1034.903	19.71
1035.062	15.06
1035.22	-62.63
1035.378	29.98
1035.537	-29.69
1035.695	23.98
1035.853	-13.03
1036.011	24.75
1036.17	23.59
1036.328	-47.52
1036.486	16.03
1036.644	9.45
1036.802	-65.15
1036.96	-26.2
1037.119	-7.8
1037.277	-25.82
1037.435	-27.37
1037.593	-16.52
1037.751	8.48
1037.909	24.56
1038.067	24.56
