Data from pine_FLMT105791__111__17-22-10-076.txt Node

Date: Mon Mar 20 17:22:10 GMT 2023
User: antho
Spectrometer: FLMT10579
Trigger mode: 0
Integration Time (sec): 1.000000E-1
Scans to average: 10
Electric dark correction enabled: true
Nonlinearity correction enabled: false
Boxcar width: 0
XAxis mode: Wavelengths
Number of Pixels in Spectrum: 3648
>>>>>Begin Spectral Data<<<<<
345.248	-173.45
345.464	-173.45
345.681	-173.45
345.898	-184.69
346.114	-144
346.331	-22.52
346.548	51.29
346.764	-4.31
346.981	-31.24
347.197	-11.09
347.414	15.84
347.631	-22.14
347.847	49.36
348.064	-1.21
348.28	28.82
348.497	-66.7
348.713	13.9
348.93	24.17
349.146	32.5
349.363	0.15
349.579	23.98
349.796	-3.73
350.012	-5.67
350.229	37.93
350.445	22.62
350.661	-37.25
350.878	8.09
351.094	-20.78
351.311	39.86
351.527	19.91
351.743	-11.48
351.96	51.88
352.176	44.13
352.392	35.79
352.609	50.71
352.825	11.96
353.041	7.9
353.257	-0.24
353.474	11.19
353.69	4.21
353.906	32.11
354.122	-3.34
354.339	52.84
354.555	2.08
354.771	-12.45
354.987	48.78
355.203	49.94
355.42	-1.02
355.636	-3.92
355.852	-10.9
356.068	0.34
356.284	-35.5
356.5	45.68
356.716	8.86
356.932	-32.79
357.148	46.06
357.364	0.34
357.58	56.91
357.796	45.68
358.012	47.81
358.228	48.78
358.444	-37.05
358.66	36.18
358.876	18.75
359.092	-28.14
359.308	19.52
359.524	14.1
359.74	-3.73
359.956	-12.64
360.172	0.92
360.388	22.43
360.604	-25.62
360.819	57.49
361.035	35.41
361.251	26.3
361.467	-13.61
361.683	58.85
361.898	26.3
362.114	25.91
362.33	3.63
362.546	40.64
362.762	-14.97
362.977	24.75
363.193	-25.43
363.409	42.19
363.624	-6.83
363.84	-7.41
364.056	0.34
364.271	29.4
364.487	29.01
364.703	-6.64
364.918	-23.69
365.134	19.13
365.35	28.82
365.565	117.75
365.781	15.65
365.996	10.8
366.212	46.64
366.427	31.92
366.643	-16.71
366.858	8.48
367.074	-21.94
367.289	49.94
367.505	124.92
367.72	-35.12
367.936	-32.4
368.151	32.69
368.367	7.51
368.582	46.64
368.798	8.09
369.013	56.33
369.228	25.14
369.444	25.14
369.659	41.41
369.874	11.77
370.09	60.98
370.305	-41.9
370.52	-39.96
370.736	51.68
370.951	-17.29
371.166	61.18
371.381	64.66
371.597	23.78
371.812	-34.15
372.027	-20.97
372.242	29.98
372.458	94.11
372.673	-17.68
372.888	12.35
373.103	45.68
373.318	116.59
373.533	61.37
373.749	32.89
373.964	-46.35
374.179	38.7
374.394	-13.42
374.609	72.22
374.824	-3.34
375.039	27.85
375.254	-9.93
375.469	75.13
375.684	17.97
375.899	71.25
376.114	9.83
376.329	26.3
376.544	66.21
376.759	67.76
376.974	5.76
377.189	11.19
377.404	-9.93
377.619	84.62
377.834	-34.15
378.049	-6.05
378.264	-10.7
378.478	12.74
378.693	17.2
378.908	42.38
379.123	2.47
379.338	74.74
379.553	50.91
379.767	28.04
379.982	28.24
380.197	53.62
380.412	-2.18
380.626	45.87
380.841	93.14
381.056	52.07
381.271	81.71
381.485	5.18
381.7	-15.16
381.915	32.11
382.129	9.45
382.344	35.41
382.559	17.39
382.773	65.83
382.988	-24.85
383.202	20.1
383.417	-12.84
383.632	115.42
383.846	13.71
384.061	14.48
384.275	-4.7
384.49	25.91
384.704	41.41
384.919	30.56
385.133	16.23
385.348	26.49
385.562	6.54
385.777	53.04
385.991	17.58
386.206	-10.12
386.42	14.48
386.634	53.43
386.849	25.91
387.063	21.07
387.277	-18.26
387.492	27.66
387.706	-1.4
387.92	-7.41
388.135	69.31
388.349	12.74
388.563	51.29
388.778	33.08
388.992	53.43
389.206	46.26
389.42	93.14
389.635	8.48
389.849	31.34
390.063	53.62
390.277	34.05
390.491	73.58
390.706	30.56
390.92	41.41
391.134	45.48
391.348	24.94
391.562	-24.07
391.776	39.48
391.99	3.83
392.205	31.53
392.419	8.86
392.633	29.01
392.847	76.09
393.061	11.38
393.275	88.11
393.489	34.24
393.703	15.45
393.917	56.14
394.131	8.86
394.345	53.43
394.559	74.93
394.773	11.58
394.986	32.11
395.2	16.23
395.414	40.44
395.628	-7.8
395.842	31.53
396.056	14.1
396.27	-23.3
396.484	43.93
396.697	40.83
396.911	91.98
397.125	44.13
397.339	59.63
397.553	65.05
397.766	121.43
397.98	52.84
398.194	82.88
398.408	-2.57
398.621	50.13
398.835	72.99
399.049	21.65
399.262	92.76
399.476	78.23
399.69	51.88
399.903	112.13
400.117	22.23
400.331	45.68
400.544	35.79
400.758	149.14
400.971	38.31
401.185	78.23
401.398	15.45
401.612	82.68
401.826	64.86
402.039	70.67
402.253	24.17
402.466	64.47
402.68	29.98
402.893	42.19
403.106	25.91
403.32	35.99
403.533	63.69
403.747	30.76
403.96	56.91
404.174	45.48
404.387	10.8
404.6	42.96
404.814	98.57
405.027	50.71
405.24	42.96
405.454	35.41
405.667	85.2
405.88	-43.64
406.094	66.6
406.307	91.98
406.52	49.74
406.733	6.35
406.947	-0.82
407.16	101.48
407.373	88.69
407.586	50.52
407.799	26.88
408.012	81.52
408.226	92.76
408.439	97.79
408.652	-3.15
408.865	45.29
409.078	82.68
409.291	49.55
409.504	0.34
409.717	78.23
409.93	60.01
410.143	54.59
410.357	-3.54
410.57	22.23
410.783	43.16
410.996	65.24
411.209	54.98
411.421	98.96
411.634	56.33
411.847	25.33
412.06	39.67
412.273	63.31
412.486	60.21
412.699	112.52
412.912	65.44
413.125	84.04
413.338	67.57
413.55	75.71
413.763	69.7
413.976	64.66
414.189	47.23
414.402	45.09
414.615	91.01
414.827	42.58
415.04	98.76
415.253	61.76
415.466	88.11
415.678	111.74
415.891	59.04
416.104	53.04
416.316	40.64
416.529	31.92
416.742	75.13
416.954	126.27
417.167	45.68
417.38	45.68
417.592	102.83
417.805	40.83
418.017	36.76
418.23	71.44
418.442	32.11
418.655	57.49
418.868	69.89
419.08	105.54
419.293	85.59
419.505	84.81
419.718	83.46
419.93	91.21
420.142	48.97
420.355	117.56
420.567	141
420.78	107.09
420.992	62.53
421.205	136.74
421.417	21.65
421.629	73.19
421.842	55.56
422.054	18.94
422.266	100.12
422.479	110.19
422.691	40.64
422.903	96.44
423.115	52.46
423.328	66.41
423.54	85.98
423.752	58.66
423.964	48.58
424.177	63.31
424.389	61.95
424.601	171.03
424.813	90.43
425.025	111.16
425.238	80.74
425.45	79
425.662	87.53
425.874	338.62
426.086	88.88
426.298	80.74
426.51	90.04
426.722	62.73
426.934	55.17
427.146	111.55
427.358	53.43
427.57	128.02
427.782	88.3
427.994	87.33
428.206	53.43
428.418	36.38
428.63	109.23
428.842	134.61
429.054	88.88
429.266	79
429.478	50.33
429.69	104.58
429.902	63.11
430.114	103.99
430.325	113.87
430.537	60.21
430.749	89.27
430.961	62.53
431.173	81.13
431.384	128.02
431.596	-2.37
431.808	60.98
432.02	89.46
432.231	104.96
432.443	121.62
432.655	112.91
432.867	74.93
433.078	108.45
433.29	195.06
433.502	137.32
433.713	155.14
433.925	116.2
434.136	151.27
434.348	60.59
434.56	60.4
434.771	219.47
434.983	72.41
435.194	82.29
435.406	91.4
435.617	115.23
435.829	173.16
436.04	128.6
436.252	141.19
436.463	166.96
436.675	138.09
436.886	109.61
437.098	134.99
437.309	159.41
437.521	129.96
437.732	145.65
437.943	139.06
438.155	117.36
438.366	85.78
438.578	161.73
438.789	139.06
439	178.59
439.211	142.55
439.423	126.27
439.634	156.31
439.845	143.91
440.057	153.21
440.268	148.94
440.479	110.19
440.69	156.5
440.902	126.66
441.113	136.35
441.324	116.39
441.535	158.24
441.746	205.13
441.957	112.32
442.168	114.84
442.38	129.57
442.591	174.52
442.802	132.28
443.013	124.53
443.224	158.24
443.435	141.39
443.646	154.76
443.857	157.47
444.068	107.68
444.279	134.22
444.49	231.48
444.701	154.76
444.912	244.07
445.123	187.89
445.334	188.47
445.545	170.64
445.756	147.01
445.967	143.91
446.178	167.54
446.388	203.58
446.599	169.87
446.81	190.21
447.021	131.31
447.232	205.52
447.443	218.5
447.653	139.06
447.864	173.94
448.075	163.67
448.286	206.1
448.496	162.7
448.707	195.25
448.918	167.74
449.129	253.76
449.339	168.32
449.55	188.47
449.761	160.57
449.971	232.06
450.182	194.67
450.393	201.64
450.603	165.02
450.814	209.2
451.024	205.71
451.235	227.41
451.446	241.55
451.656	253.18
451.867	165.8
452.077	212.3
452.288	238.65
452.498	252.79
452.709	210.17
452.919	208.42
453.13	177.81
453.34	229.15
453.55	170.84
453.761	227.41
453.971	214.04
454.182	246.2
454.392	193.89
454.602	231.48
454.813	199.12
455.023	233.61
455.233	166.57
455.444	221.4
455.654	125.31
455.864	216.56
456.075	233.42
456.285	167.93
456.495	213.46
456.705	224.5
456.916	224.5
457.126	280.3
457.336	233.03
457.546	146.04
457.756	199.32
457.967	239.81
458.177	221.21
458.387	232.45
458.597	185.56
458.807	218.69
459.017	212.88
459.227	227.02
459.437	221.4
459.647	249.3
459.857	243.49
460.068	185.76
460.278	277.2
460.488	256.47
460.698	281.27
460.908	208.81
461.117	166.19
461.327	194.09
461.537	238.65
461.747	211.33
461.957	234
462.167	331.07
462.377	288.63
462.587	210.55
462.797	263.84
463.007	238.45
463.216	269.65
463.426	270.23
463.636	277.2
463.846	186.72
464.056	198.74
464.265	267.32
464.475	198.15
464.685	234.77
464.895	262.29
465.104	231.09
465.314	256.28
465.524	228.77
465.733	212.69
465.943	294.45
466.153	301.81
466.362	287.67
466.572	258.41
466.782	234.19
466.991	249.3
467.201	305.1
467.41	192.34
467.62	266.35
467.829	264.03
468.039	269.84
468.249	246.01
468.458	240.97
468.668	266.35
468.877	290.77
469.086	296.19
469.296	304.13
469.505	255.31
469.715	340.95
469.924	295.42
470.134	298.13
470.343	319.83
470.552	253.95
470.762	283.02
470.971	224.12
471.18	281.27
471.39	253.18
471.599	232.84
471.808	297.35
472.018	251.05
472.227	301.03
472.436	325.06
472.645	271.97
472.855	281.47
473.064	331.07
473.273	316.53
473.482	305.1
473.691	319.44
473.901	299.68
474.11	295.8
474.319	381.05
474.528	299.68
474.737	350.05
474.946	315.57
475.155	319.63
475.364	326.22
475.573	321.96
475.783	326.03
475.992	356.83
476.201	367.49
476.41	303.55
476.619	313.63
476.828	343.27
477.037	283.4
477.245	318.86
477.454	370.98
477.663	314.4
477.872	341.33
478.081	373.88
478.29	309.95
478.499	404.69
478.708	348.7
478.917	416.12
479.125	336.3
479.334	357.22
479.543	330.87
479.752	358.97
479.961	372.14
480.169	382.99
480.378	358.19
480.587	463.78
480.796	378.34
481.004	363.42
481.213	407.4
481.422	386.86
481.63	370.01
481.839	389.96
482.048	445.76
482.256	390.16
482.465	397.91
482.674	388.8
482.882	396.94
483.091	463.2
483.299	421.93
483.508	400.62
483.716	379.89
483.925	381.25
484.134	363.03
484.342	369.43
484.551	439.18
484.759	395.78
484.967	421.93
485.176	451.96
485.384	438.21
485.593	451.96
485.801	449.25
486.01	420
486.218	399.46
486.426	351.8
486.635	367.68
486.843	383.57
487.051	381.05
487.26	394.42
487.468	407.4
487.676	446.93
487.885	379.5
488.093	414.38
488.301	423.1
488.509	437.43
488.717	440.53
488.926	450.61
489.134	431.43
489.342	433.36
489.55	409.34
489.758	447.12
489.967	416.7
490.175	561.24
490.383	454.48
490.591	515.32
490.799	422.51
491.007	498.08
491.215	446.35
491.423	476.96
491.631	487.23
491.839	457.97
492.047	500.79
492.255	429.3
492.463	421.74
492.671	457.2
492.879	520.94
493.087	465.91
493.295	496.91
493.503	510.28
493.711	509.31
493.919	536.05
494.127	531.4
494.334	542.25
494.542	433.95
494.75	512.61
494.958	495.17
495.166	557.36
495.374	542.44
495.581	503.5
495.789	508.34
495.997	579.06
496.205	492.07
496.412	495.17
496.62	536.44
496.828	535.66
497.035	523.65
497.243	561.62
497.451	520.94
497.658	537.79
497.866	534.11
498.074	569.76
498.281	496.72
498.489	625.37
498.696	567.82
498.904	539.73
499.112	524.43
499.319	586.42
499.527	558.52
499.734	599.99
499.942	507.57
500.149	554.65
500.357	544.58
500.564	505.05
500.771	548.84
500.979	514.93
501.186	537.02
501.394	556.2
501.601	520.94
501.808	560.27
502.016	540.89
502.223	532.95
502.43	573.83
502.638	563.37
502.845	519.58
503.052	640.29
503.26	552.52
503.467	612.58
503.674	557.75
503.881	562.98
504.089	667.02
504.296	613.36
504.503	534.89
504.71	569.96
504.917	547.87
505.125	589.52
505.332	570.73
505.539	573.25
505.746	655.01
505.953	609.87
506.16	611.22
506.367	648.62
506.574	674
506.781	681.94
506.988	574.99
507.195	607.54
507.402	608.9
507.609	656.17
507.816	590.88
508.023	589.33
508.23	580.81
508.437	589.72
508.644	634.09
508.851	672.84
509.058	658.89
509.265	638.35
509.472	643.58
509.679	770.68
509.885	618.78
510.092	648.81
510.299	624.98
510.506	650.17
510.713	646.68
510.92	646.1
511.126	665.09
511.333	681.75
511.54	693.18
511.746	720.11
511.953	723.6
512.16	739.48
512.367	652.1
512.573	677.87
512.78	684.46
512.987	666.83
513.193	675.94
513.4	601.54
513.606	659.27
513.813	665.28
514.02	667.8
514.226	746.07
514.433	716.62
514.639	661.99
514.846	689.3
515.052	648.23
515.259	700.74
515.465	718.56
515.672	686.01
515.878	789.86
516.085	718.56
516.291	769.52
516.497	682.72
516.704	686.79
516.91	670.12
517.117	645.13
517.323	588.94
517.529	642.03
517.736	647.84
517.942	661.79
518.148	652.3
518.354	674.77
518.561	681.94
518.767	716.43
518.973	718.17
519.179	755.57
519.386	698.8
519.592	706.55
519.798	695.89
520.004	788.31
520.21	706.55
520.417	777.27
520.623	796.25
520.829	793.73
521.035	795.28
521.241	810.98
521.447	816.6
521.653	890.8
521.859	798.38
522.065	803.03
522.271	868.33
522.477	822.21
522.683	846.82
522.889	854.57
523.095	838.49
523.301	849.15
523.507	796.25
523.713	839.26
523.919	782.11
524.125	837.71
524.331	827.64
524.537	923.74
524.742	871.81
524.948	891.19
525.154	886.35
525.36	974.89
525.566	902.23
525.772	953.96
525.977	858.64
526.183	922.38
526.389	938.66
526.595	870.65
526.8	863.29
527.006	842.17
527.212	804.39
527.417	832.1
527.623	809.43
527.829	911.34
528.034	840.62
528.24	878.79
528.446	858.64
528.651	914.44
528.857	932.65
529.062	975.47
529.268	936.53
529.473	933.04
529.679	913.08
529.884	993.49
530.09	937.88
530.295	1004.53
530.501	965.59
530.706	1020.22
530.912	910.37
531.117	950.86
531.323	960.36
531.528	965.59
531.733	972.18
531.939	957.26
532.144	989.81
532.35	984.19
532.555	993.49
532.76	995.42
532.966	980.7
533.171	976.63
533.376	937.3
533.581	927.81
533.787	959.78
533.992	995.81
534.197	1001.24
534.402	1002.4
534.607	1006.08
534.813	1079.51
535.018	1010.54
535.223	980.51
535.428	996.97
535.633	1015.96
535.838	1042.89
536.043	1018.09
536.249	1111.67
536.454	1005.89
536.659	1081.25
536.864	1019.06
537.069	991.74
537.274	1051.03
537.479	1038.44
537.684	1050.26
537.889	977.6
538.094	1104.5
538.299	1031.66
538.504	1017.12
538.708	1054.52
538.913	1083.77
539.118	1052.97
539.323	1065.56
539.528	1004.34
539.733	1051.61
539.938	1069.82
540.142	1083.77
540.347	1045.02
540.552	1023.13
540.757	1028.75
540.962	1044.83
541.166	1022.55
541.371	967.91
541.576	1033.98
541.781	945.44
541.985	1057.04
542.19	1051.61
542.395	1080.87
542.599	1133.57
542.804	1060.91
543.008	1119.81
543.213	1041.92
543.418	1014.61
543.622	1106.83
543.827	1035.14
544.031	1168.63
544.236	1140.54
544.44	1086.1
544.645	1158.17
544.849	1081.84
545.054	1114.97
545.258	1175.22
545.463	1142.48
545.667	1078.93
545.872	1104.7
546.076	1100.82
546.281	1122.14
546.485	1085.71
546.689	1128.53
546.894	1145.19
547.098	1094.82
547.302	1063.24
547.507	1130.47
547.711	1107.99
547.915	1139.38
548.119	1069.24
548.324	1112.64
548.528	1147.52
548.732	1114.77
548.936	1122.33
549.141	1132.21
549.345	1108.77
549.549	1118.45
549.753	1137.64
549.957	1178.52
550.161	1174.45
550.366	1118.26
550.57	1108.77
550.774	1127.37
550.978	1135.31
551.182	1153.33
551.386	1103.34
551.59	1091.72
551.794	1092.1
551.998	1134.54
552.202	1126.79
552.406	1062.27
552.61	1125.24
552.814	1142.67
553.018	1185.3
553.222	1115.74
553.426	1100.05
553.63	1197.89
553.833	1137.83
554.037	1055.1
554.241	1176
554.445	1132.6
554.649	1116.52
554.853	1120.97
555.056	1162.05
555.26	1151.78
555.464	1151.97
555.668	1176.77
555.871	1192.27
556.075	1197.5
556.279	1098.89
556.483	1078.93
556.686	1144.03
556.89	1123.69
557.094	1139.57
557.297	1079.51
557.501	1185.88
557.704	1074.28
557.908	1156.62
558.112	1070.41
558.315	1169.02
558.519	1108.19
558.722	1127.37
558.926	1086.68
559.129	1045.22
559.333	1020.61
559.536	1070.6
559.74	1059.75
559.943	1046.96
560.147	1038.44
560.35	1058.01
560.553	1061.88
560.757	1016.35
560.96	1128.92
561.164	1058.97
561.367	1148.1
561.57	1035.92
561.774	1106.05
561.977	1095.59
562.18	1022.74
562.384	1126.79
562.587	1075.25
562.79	1035.53
562.993	1058.59
563.197	1075.25
563.4	1151
563.603	1153.72
563.806	1158.37
564.009	1048.71
564.212	1084.35
564.416	1024.87
564.619	1085.71
564.822	1004.14
565.025	1083.97
565.228	1030.3
565.431	1040.37
565.634	946.02
565.837	1005.11
566.04	992.71
566.243	1021.97
566.446	930.52
566.649	1017.12
566.852	975.86
567.055	983.22
567.258	1038.44
567.461	1088.04
567.664	1060.91
567.867	976.05
568.07	1022.74
568.273	1005.69
568.475	1041.92
568.678	971.4
568.881	982.83
569.084	1004.53
569.287	907.46
569.489	917.34
569.692	1022.94
569.895	996.78
570.098	909.4
570.3	935.36
570.503	908.24
570.706	916.38
570.909	937.11
571.111	883.05
571.314	900.49
571.516	922.96
571.719	929.55
571.922	914.24
572.124	913.08
572.327	933.43
572.529	837.52
572.732	883.63
572.935	925.68
573.137	987.48
573.34	897
573.542	924.71
573.745	920.64
573.947	918.31
574.15	910.37
574.352	865.81
574.554	940.21
574.757	901.26
574.959	897.58
575.162	866.39
575.364	899.91
575.566	974.5
575.769	855.15
575.971	899.91
576.173	773.39
576.376	856.51
576.578	920.44
576.78	952.41
576.982	819.5
577.185	856.7
577.387	839.26
577.589	828.41
577.791	884.8
577.993	879.37
578.196	866.97
578.398	876.08
578.6	927.23
578.802	804.2
579.004	845.27
579.206	826.28
579.408	893.9
579.61	815.43
579.812	902.23
580.014	820.47
580.216	832.29
580.418	829.58
580.62	843.91
580.822	794.9
581.024	844.69
581.226	902.81
581.428	840.23
581.63	917.73
581.832	826.48
582.034	905.53
582.236	837.91
582.438	871.62
582.64	921.99
582.841	914.63
583.043	962.29
583.245	866.39
583.447	879.76
583.649	854.57
583.85	858.06
584.052	909.01
584.254	810.59
584.456	912.31
584.657	811.56
584.859	819.7
585.061	845.27
585.262	840.62
585.464	816.79
585.666	879.95
585.867	831.51
586.069	889.83
586.27	882.28
586.472	870.46
586.674	855.54
586.875	836.36
587.077	819.7
587.278	878.01
587.48	831.13
587.681	917.73
587.883	878.01
588.084	807.88
588.285	821.63
588.487	815.82
588.688	836.75
588.89	771.84
589.091	745.68
589.292	799.93
589.494	771.07
589.695	732.7
589.896	670.9
590.098	673.22
590.299	789.47
590.5	682.91
590.702	755.95
590.903	730.57
591.104	800.32
591.305	787.53
591.507	841.98
591.708	765.64
591.909	743.36
592.11	848.56
592.311	793.15
592.512	797.42
592.714	719.53
592.915	765.06
593.116	761.57
593.317	781.33
593.518	767.58
593.719	799.35
593.92	783.08
594.121	839.85
594.322	757.5
594.523	773.97
594.724	738.32
594.925	753.63
595.126	774.36
595.327	800.52
595.528	807.1
595.729	780.95
595.929	775.91
596.13	755.76
596.331	750.14
596.532	773.39
596.733	826.86
596.934	823.96
597.135	800.52
597.335	806.91
597.536	744.13
597.737	769.71
597.938	751.5
598.138	814.66
598.339	765.83
598.54	772.03
598.74	793.15
598.941	764.67
599.142	831.9
599.342	800.13
599.543	762.93
599.744	792.18
599.944	791.22
600.145	775.72
600.345	803.03
600.546	836.75
600.746	835.58
600.947	847.21
601.147	794.51
601.348	825.9
601.548	720.69
601.749	796.83
601.949	741.23
602.15	744.52
602.35	748.2
602.551	813.69
602.751	754.4
602.951	748.2
603.152	708.1
603.352	798.19
603.552	794.51
603.753	783.47
603.953	789.08
604.153	777.46
604.354	786.57
604.554	781.53
604.754	768.35
604.954	742.58
605.155	778.23
605.355	779.59
605.555	815.63
605.755	837.71
605.955	763.9
606.155	796.64
606.356	798.77
606.556	796.83
606.756	783.66
606.956	693.57
607.156	813.11
607.356	737.74
607.556	775.52
607.756	749.75
607.956	803.03
608.156	795.67
608.356	761.18
608.556	794.7
608.756	778.43
608.956	739.48
609.156	754.6
609.356	732.9
609.556	731.73
609.755	756.34
609.955	704.61
610.155	758.86
610.355	755.76
610.555	731.15
610.755	720.88
610.954	667.22
611.154	764.67
611.354	771.26
611.554	723.4
611.753	729.8
611.953	688.34
612.153	762.73
612.352	758.08
612.552	702.09
612.752	668.96
612.951	726.7
613.151	720.11
613.351	700.93
613.55	713.91
613.75	739.1
613.949	715.65
614.149	731.35
614.348	697.83
614.548	683.1
614.747	645.71
614.947	705.77
615.146	637.77
615.346	712.36
615.545	727.86
615.745	698.6
615.944	748.98
616.144	698.6
616.343	735.8
616.542	700.35
616.742	692.79
616.941	708.49
617.14	638.15
617.34	687.37
617.539	684.85
617.738	682.91
617.938	763.7
618.137	728.83
618.336	638.54
618.535	716.04
618.734	694.92
618.934	693.18
619.133	732.32
619.332	710.04
619.531	653.27
619.73	656.75
619.929	759.83
620.128	719.14
620.328	753.82
620.527	664.7
620.726	673.42
620.925	682.52
621.124	679.62
621.323	711.2
621.522	666.25
621.721	661.79
621.92	667.99
622.119	672.06
622.318	641.25
622.517	651.91
622.715	675.94
622.914	623.82
623.113	626.72
623.312	643.58
623.511	672.64
623.71	643.19
623.909	657.14
624.107	748.98
624.306	603.09
624.505	596.31
624.704	641.45
624.902	632.92
625.101	717.2
625.3	656.37
625.499	614.32
625.697	620.52
625.896	623.82
626.095	654.04
626.293	632.92
626.492	581.58
626.69	618.78
626.889	604.64
627.088	670.32
627.286	594.76
627.485	596.31
627.683	608.9
627.882	646.29
628.08	549.22
628.279	573.83
628.477	676.9
628.676	596.89
628.874	609.48
629.073	606.19
629.271	562.59
629.469	612.97
629.668	616.26
629.866	568.41
630.065	581.77
630.263	639.7
630.461	585.26
630.66	628.86
630.858	647.07
631.056	650.55
631.254	668.77
631.453	558.33
631.651	632.34
631.849	601.54
632.047	631.76
632.245	591.27
632.444	594.95
632.642	624.4
632.84	632.34
633.038	601.73
633.236	554.84
633.434	567.82
633.632	555.81
633.83	578.87
634.028	640.87
634.227	593.59
634.425	651.14
634.623	599.99
634.821	610.45
635.019	637.96
635.216	592.82
635.414	623.24
635.612	636.99
635.81	576.16
636.008	655.2
636.206	580.61
636.404	625.95
636.602	584.68
636.8	587.39
636.997	606.77
637.195	653.27
637.393	620.14
637.591	665.86
637.789	614.71
637.986	598.44
638.184	636.99
638.382	643.77
638.58	634.47
638.777	639.51
638.975	622.46
639.173	597.66
639.37	628.47
639.568	621.3
639.765	645.13
639.963	582.16
640.161	636.6
640.358	610.84
640.556	564.72
640.753	560.46
640.951	554.46
641.148	610.45
641.346	615.49
641.543	595.53
641.741	617.42
641.938	582.94
642.136	588.36
642.333	548.26
642.531	621.69
642.728	630.02
642.925	592.82
643.123	578.29
643.32	595.14
643.517	587.01
643.715	610.06
643.912	554.07
644.109	584.49
644.306	574.8
644.504	575.96
644.701	567.82
644.898	624.98
645.095	558.52
645.293	560.85
645.49	593.59
645.687	571.51
645.884	608.32
646.081	534.31
646.278	564.14
646.475	534.5
646.672	546.51
646.87	587.01
647.067	575.19
647.264	567.24
647.461	532.37
647.658	509.12
647.855	593.59
648.052	545.16
648.249	476.18
648.446	544.58
648.642	513.77
648.839	533.73
649.036	527.72
649.233	467.85
649.43	485.09
649.627	492.46
649.824	508.34
650.021	498.85
650.217	503.5
650.414	500.59
650.611	511.44
650.808	536.05
651.004	531.79
651.201	532.76
651.398	585.46
651.595	529.08
651.791	512.22
651.988	548.84
652.185	457.97
652.381	554.07
652.578	464.56
652.775	520.94
652.971	492.46
653.168	519
653.364	543.03
653.561	451.58
653.757	496.91
653.954	518.03
654.15	474.05
654.347	580.61
654.543	500.4
654.74	462.62
654.936	460.88
655.133	534.31
655.329	518.23
655.525	506.02
655.722	513.58
655.918	502.92
656.115	541.67
656.311	452.35
656.507	461.65
656.704	414.57
656.9	431.81
657.096	437.24
657.292	415.35
657.489	500.01
657.685	476.57
657.881	488.39
658.077	471.92
658.273	479.86
658.47	525.01
658.666	467.66
658.862	470.18
659.058	439.18
659.254	532.37
659.45	473.66
659.646	508.93
659.842	487.23
660.038	525.2
660.234	479.48
660.43	488.97
660.626	535.86
660.822	517.84
661.018	514.54
661.214	499.82
661.41	432.4
661.606	480.06
661.802	514.16
661.998	473.28
662.194	426.78
662.39	514.74
662.586	520.16
662.781	500.79
662.977	483.16
663.173	530.04
663.369	476.38
663.564	490.52
663.76	525.01
663.956	463.78
664.152	542.25
664.347	467.66
664.543	483.93
664.739	498.08
664.934	423.68
665.13	444.41
665.326	487.42
665.521	491.29
665.717	421.35
665.912	446.73
666.108	407.21
666.304	437.63
666.499	448.86
666.695	415.15
666.89	461.07
667.086	484.71
667.281	503.5
667.477	504.66
667.672	507.57
667.867	451
668.063	526.94
668.258	433.75
668.454	474.44
668.649	523.07
668.844	475.02
669.04	463.78
669.235	488
669.43	445.96
669.626	386.48
669.821	479.86
670.016	407.4
670.211	436.66
670.407	447.12
670.602	484.32
670.797	464.36
670.992	479.09
671.187	434.91
671.382	489.94
671.578	447.9
671.773	459.33
671.968	412.25
672.163	468.24
672.358	464.36
672.553	431.04
672.748	448.48
672.943	506.41
673.138	453.13
673.333	482.19
673.528	422.9
673.723	473.47
673.918	401.98
674.113	425.03
674.308	506.6
674.503	469.79
674.698	472.89
674.892	483.74
675.087	486.06
675.282	437.63
675.477	422.51
675.672	469.98
675.867	430.26
676.061	418.83
676.256	397.71
676.451	413.99
676.646	458.36
676.84	389.58
677.035	382.8
677.23	397.33
677.424	413.8
677.619	474.24
677.814	476.38
678.008	465.91
678.203	388.61
678.397	404.3
678.592	426.39
678.787	481.22
678.981	449.64
679.176	443.25
679.37	440.92
679.565	413.02
679.759	422.32
679.954	455.45
680.148	488.97
680.342	470.18
680.537	462.04
680.731	449.06
680.926	468.82
681.12	478.51
681.314	420.96
681.509	417.86
681.703	435.3
681.897	453.71
682.092	420
682.286	417.86
682.48	518.81
682.674	473.86
682.869	401.4
683.063	420
683.257	487.03
683.451	405.08
683.645	444.02
683.839	438.4
684.034	440.15
684.228	466.3
684.422	393.65
684.616	380.66
684.81	462.23
685.004	455.26
685.198	417.09
685.392	459.71
685.586	410.11
685.78	458.94
685.974	440.34
686.168	452.35
686.362	465.91
686.556	400.62
686.75	371.95
686.944	397.52
687.138	427.16
687.331	349.47
687.525	346.76
687.719	304.72
687.913	364.97
688.107	374.46
688.301	316.73
688.494	383.76
688.688	364.39
688.882	333.78
689.076	310.14
689.269	348.31
689.463	466.49
689.657	369.04
689.85	369.43
690.044	379.31
690.238	390.16
690.431	386.28
690.625	368.07
690.818	400.04
691.012	412.44
691.205	408.18
691.399	371.37
691.593	424.26
691.786	445.57
691.98	452.16
692.173	476.57
692.366	449.25
692.56	477.73
692.753	484.9
692.947	452.16
693.14	498.66
693.333	523.46
693.527	431.04
693.72	480.64
693.914	461.07
694.107	459.33
694.3	469.21
694.493	465.14
694.687	501.95
694.88	461.46
695.073	516.29
695.266	518.61
695.46	489.16
695.653	547.87
695.846	519.39
696.039	460.49
696.232	501.18
696.425	530.43
696.618	545.74
696.812	550.58
697.005	614.32
697.198	645.71
697.391	599.02
697.584	605.41
697.777	625.95
697.97	608.12
698.163	669.93
698.356	617.23
698.549	675.55
698.742	635.25
698.935	622.27
699.127	669.93
699.32	619.17
699.513	605.61
699.706	621.69
699.899	632.54
700.092	605.99
700.285	698.99
700.477	600.76
700.67	677.1
700.863	680.78
701.056	783.27
701.248	722.05
701.441	702.87
701.634	712.55
701.826	780.37
702.019	674.97
702.212	729.41
702.404	675.16
702.597	696.09
702.79	714.49
702.982	723.21
703.175	770.29
703.367	758.86
703.56	767.38
703.752	853.6
703.945	817.37
704.137	827.83
704.33	855.15
704.522	851.47
704.715	876.46
704.907	848.76
705.1	885.76
705.292	891.96
705.484	886.54
705.677	887.31
705.869	897.19
706.061	937.11
706.254	976.44
706.446	874.33
706.638	921.61
706.831	1002.21
707.023	961.52
707.215	1065.56
707.407	995.62
707.599	999.11
707.792	1013.25
707.984	1019.06
708.176	1036.89
708.368	994.65
708.56	1041.15
708.752	1021.77
708.944	1019.64
709.136	1073.5
709.329	1056.07
709.521	1160.5
709.713	1124.27
709.905	1148.49
710.097	1173.09
710.289	1097.14
710.481	1146.94
710.672	1119.81
710.864	1151.97
711.056	1204.09
711.248	1193.82
711.44	1180.84
711.632	1169.02
711.824	1230.25
712.016	1259.7
712.207	1250.98
712.399	1230.83
712.591	1331.77
712.783	1283.33
712.975	1316.27
713.166	1247.88
713.358	1292.44
713.55	1354.44
713.741	1365.68
713.933	1337.58
714.125	1353.66
714.316	1323.83
714.508	1434.46
714.7	1385.24
714.891	1392.03
715.083	1418.38
715.274	1338.94
715.466	1371.68
715.657	1454.8
715.849	1374.98
716.04	1416.24
716.232	1327.7
716.423	1423.41
716.615	1323.44
716.806	1322.47
716.998	1318.79
717.189	1257.56
717.381	1195.18
717.572	1218.04
717.763	1254.85
717.955	1219.01
718.146	1207.19
718.337	1151.97
718.528	1139.96
718.72	1091.52
718.911	1121.55
719.102	1072.92
719.293	1165.73
719.485	1125.82
719.676	1166.5
719.867	1101.6
720.058	1115.55
720.249	1078.74
720.44	1141.9
720.632	1172.12
720.823	1204.87
721.014	1291.28
721.205	1267.45
721.396	1327.9
721.587	1406.36
721.778	1399.58
721.969	1400.36
722.16	1460.61
722.351	1432.91
722.542	1554
722.733	1589.84
722.924	1489.67
723.115	1545.86
723.305	1563.49
723.496	1555.16
723.687	1496.84
723.878	1509.44
724.069	1469.14
724.26	1488.9
724.45	1441.24
724.641	1418.96
724.832	1470.49
725.023	1460.61
725.213	1467.59
725.404	1459.26
725.595	1473.01
725.785	1392.22
725.976	1453.83
726.167	1470.88
726.357	1462.74
726.548	1604.95
726.739	1474.56
726.929	1529.59
727.12	1536.56
727.31	1554.58
727.501	1526.68
727.691	1586.74
727.882	1568.34
728.072	1608.25
728.263	1593.72
728.453	1639.63
728.644	1608.44
728.834	1621.03
729.024	1581.9
729.215	1585.58
729.405	1634.6
729.596	1674.7
729.786	1677.03
729.976	1676.06
730.167	1694.08
730.357	1645.45
730.547	1676.64
730.737	1737.48
730.928	1770.61
731.118	1780.29
731.308	1725.66
731.498	1714.81
731.688	1783.39
731.879	1803.93
732.069	1845.39
732.259	1865.54
732.449	1877.36
732.639	1947.11
732.829	1900.42
733.019	1960.09
733.209	2010.27
733.399	2021.51
733.589	2062.2
733.779	2074.79
733.969	2042.82
734.159	2121.48
734.349	2131.56
734.539	2175.15
734.729	2166.24
734.919	2230.76
735.109	2226.49
735.299	2182.9
735.488	2210.8
735.678	2238.51
735.868	2212.54
736.058	2246.64
736.248	2204.41
736.437	2178.45
736.627	2153.45
736.817	2298.76
737.007	2221.46
737.196	2268.15
737.386	2240.83
737.576	2238.31
737.765	2289.08
737.955	2281.71
738.144	2374.52
738.334	2303.22
738.524	2268.54
738.713	2294.89
738.903	2279
739.092	2347.39
739.282	2361.92
739.471	2360.18
739.661	2341.39
739.85	2361.34
740.04	2372
740.229	2416.17
740.419	2386.53
740.608	2393.89
740.797	2377.42
740.987	2451.82
741.176	2406.68
741.365	2374.52
741.555	2334.02
741.744	2468.87
741.933	2427.6
742.123	2499.1
742.312	2465.39
742.501	2497.93
742.69	2492.32
742.88	2423.54
743.069	2541.33
743.258	2505.3
743.447	2499.29
743.636	2501.03
743.825	2510.33
744.014	2543.66
744.204	2533.58
744.393	2486.12
744.582	2596.94
744.771	2606.43
744.96	2524.09
745.149	2542.11
745.338	2506.27
745.527	2563.81
745.716	2527.58
745.905	2523.12
746.094	2544.24
746.283	2562.06
746.471	2561.29
746.66	2617.67
746.849	2581.63
747.038	2676.38
747.227	2521.38
747.416	2589.38
747.604	2539.78
747.793	2601.98
747.982	2584.54
748.171	2561.87
748.359	2611.66
748.548	2563.81
748.737	2590.55
748.926	2598.1
749.114	2485.73
749.303	2607.98
749.491	2583.96
749.68	2499.48
749.869	2611.86
750.057	2582.41
750.246	2529.71
750.434	2514.4
750.623	2571.17
750.811	2526.22
751	2593.65
751.188	2540.37
751.377	2580.47
751.565	2524.87
751.754	2512.27
751.942	2525.25
752.131	2588.61
752.319	2515.57
752.507	2520.22
752.696	2559.55
752.884	2547.34
753.072	2526.03
753.261	2542.5
753.449	2546.18
753.637	2525.83
753.825	2557.22
754.014	2521.38
754.202	2529.52
754.39	2588.41
754.578	2569.23
754.766	2520.6
754.955	2515.95
755.143	2621.16
755.331	2499.48
755.519	2477.98
755.707	2494.83
755.895	2482.82
756.083	2495.22
756.271	2481.66
756.459	2481.27
756.647	2508.2
756.835	2518.67
757.023	2472.55
757.211	2456.28
757.399	2502
757.587	2488.05
757.775	2454.15
757.963	2463.25
758.151	2460.93
758.339	2425.47
758.526	2426.64
758.714	2465.77
758.902	2383.82
759.09	2319.88
759.278	2140.47
759.465	2017.83
759.653	1749.88
759.841	1635.18
760.028	1384.08
760.216	1248.26
760.404	1185.68
760.591	919.09
760.779	800.32
760.967	745.3
761.154	579.06
761.342	610.26
761.529	618.39
761.717	623.43
761.905	608.51
762.092	694.73
762.28	597.08
762.467	625.37
762.655	590.3
762.842	608.9
763.029	601.15
763.217	618.97
763.404	636.8
763.592	653.85
763.779	610.26
763.966	671.48
764.154	689.11
764.341	748.4
764.528	711.39
764.716	773.39
764.903	757.89
765.09	866.2
765.277	903.39
765.465	992.91
765.652	1050.26
765.839	1108.38
766.026	1175.42
766.213	1248.46
766.4	1292.63
766.588	1467.59
766.775	1419.93
766.962	1540.82
767.149	1557.1
767.336	1675.09
767.523	1651.84
767.71	1727.79
767.897	1792.69
768.084	1870.19
768.271	1914.56
768.458	1958.54
768.645	1975.79
768.832	1983.73
769.019	2009.3
769.206	2050.38
769.392	2105.79
769.579	2147.25
769.766	2110.63
769.953	2145.9
770.14	2189.3
770.327	2152.29
770.513	2174.76
770.7	2265.24
770.887	2145.31
771.073	2214.29
771.26	2179.22
771.447	2151.9
771.634	2161.2
771.82	2226.69
772.007	2169.73
772.193	2203.83
772.38	2217.19
772.567	2185.03
772.753	2189.49
772.94	2255.75
773.126	2230.76
773.313	2240.64
773.499	2239.67
773.686	2250.13
773.872	2174.38
774.059	2217
774.245	2163.91
774.432	2186.78
774.618	2127.1
774.804	2197.82
774.991	2152.1
775.177	2215.26
775.363	2162.95
775.55	2186.2
775.736	2105.6
775.922	2143.38
776.109	2168.37
776.295	2177.28
776.481	2180.58
776.667	2217.78
776.853	2137.37
777.04	2145.7
777.226	2157.91
777.412	2240.06
777.598	2138.73
777.784	2142.02
777.97	2121.87
778.156	2147.25
778.342	2147.64
778.528	2129.23
778.715	2069.95
778.901	2086.03
779.087	2161.98
779.272	2068.2
779.458	2094.36
779.644	2088.93
779.83	2067.62
780.016	2179.41
780.202	2112.96
780.388	2063.36
780.574	2013.37
780.76	2079.44
780.946	2111.8
781.131	2046.7
781.317	2087.97
781.503	2044.37
781.689	2057.93
781.874	2124.97
782.06	2016.86
782.246	2063.36
782.432	2066.65
782.617	2044.37
782.803	2103.85
782.989	1997.87
783.174	2018.99
783.36	1971.33
783.545	1991.87
783.731	1979.47
783.916	1944.98
784.102	2015.5
784.288	1978.11
784.473	1945.56
784.659	1956.99
784.844	2010.85
785.029	1949.05
785.215	1957.96
785.4	1913.79
785.586	2010.27
785.771	1913.01
785.956	1950.02
786.142	1951.76
786.327	1948.66
786.512	1954.28
786.698	1944.01
786.883	1925.99
787.068	1861.28
787.254	1926.38
787.439	1929.67
787.624	1866.71
787.809	1851.01
787.994	1878.52
788.18	1940.14
788.365	1853.14
788.55	1900.03
788.735	1846.36
788.92	1861.28
789.105	1796.76
789.29	1893.83
789.475	1812.46
789.66	1851.79
789.845	1825.83
790.03	1795.79
790.215	1855.66
790.4	1833.19
790.585	1887.82
790.77	1802.19
790.955	1757.82
791.14	1818.08
791.325	1868.64
791.51	1719.85
791.695	1792.5
791.879	1803.93
792.064	1739.8
792.249	1840.74
792.434	1784.56
792.618	1807.81
792.803	1806.45
792.988	1770.8
793.173	1795.41
793.357	1870.19
793.542	1790.56
793.727	1810.71
793.911	1835.32
794.096	1807.23
794.281	1823.11
794.465	1875.42
794.65	1785.72
794.834	1824.28
795.019	1830.67
795.203	1825.83
795.388	1849.27
795.572	1877.36
795.757	1839.39
795.941	1856.82
796.126	1822.14
796.31	1746.2
796.494	1825.05
796.679	1803.16
796.863	1799.67
797.048	1877.56
797.232	1820.4
797.416	1833.77
797.601	1824.66
797.785	1856.63
797.969	1860.31
798.153	1778.55
798.338	1826.99
798.522	1858.18
798.706	1843.07
798.89	1891.31
799.074	1930.26
799.258	1900.03
799.443	1873.68
799.627	1847.33
799.811	1898.67
799.995	1845.78
800.179	1783.39
800.363	1841.13
800.547	1839.78
800.731	1907.2
800.915	1764.6
801.099	1817.11
801.283	1854.31
801.467	1825.83
801.651	1804.71
801.835	1898.09
802.019	1838.42
802.202	1856.44
802.386	1807.42
802.57	1795.79
802.754	1789.98
802.938	1771.19
803.121	1787.46
803.305	1887.44
803.489	1783.39
803.673	1837.84
803.856	1864.77
804.04	1820.79
804.224	1845.98
804.407	1810.52
804.591	1824.47
804.775	1786.88
804.958	1836.87
805.142	1941.11
805.326	1842.68
805.509	1847.14
805.693	1898.67
805.876	1855.66
806.06	1815.17
806.243	1867.48
806.427	1901.39
806.61	1851.4
806.794	1801.22
806.977	1879.88
807.16	1870.58
807.344	1852.76
807.527	1843.07
807.71	1821.95
807.894	1841.13
808.077	1874.46
808.26	1793.66
808.444	1811.1
808.627	1863.99
808.81	1793.86
808.993	1756.46
809.177	1753.36
809.36	1798.31
809.543	1802.77
809.726	1702.41
809.909	1721.01
810.092	1697.76
810.276	1726.05
810.459	1740.19
810.642	1698.53
810.825	1684
811.008	1696.6
811.191	1643.51
811.374	1643.32
811.557	1636.34
811.74	1741.93
811.923	1611.54
812.106	1604.95
812.289	1572.02
812.472	1593.91
812.654	1645.25
812.837	1573.76
813.02	1546.44
813.203	1538.5
813.386	1415.28
813.569	1423.41
813.751	1391.64
813.934	1441.62
814.117	1414.31
814.3	1338.74
814.482	1319.18
814.665	1312.4
814.848	1316.08
815.03	1239.35
815.213	1243.42
815.396	1252.72
815.578	1240.52
815.761	1208.93
815.943	1302.32
816.126	1195.37
816.309	1150.23
816.491	1111.09
816.674	1053.94
816.856	1158.37
817.039	1122.33
817.221	1177.35
817.403	1140.35
817.586	1155.65
817.768	1179.87
817.951	1108.19
818.133	1087.07
818.315	1113.42
818.498	1149.65
818.68	1212.03
818.862	1198.67
819.045	1215.52
819.227	1200.02
819.409	1182.39
819.591	1181.42
819.774	1170.96
819.956	1160.88
820.138	1219.2
820.32	1172.7
820.502	1233.54
820.684	1262.41
820.866	1271.71
821.048	1330.61
821.231	1316.08
821.413	1295.93
821.595	1308.91
821.777	1317.63
821.959	1285.66
822.141	1371.68
822.323	1243.23
822.505	1212.81
822.686	1202.93
822.868	1171.73
823.05	1077.57
823.232	1045.02
823.414	1019.45
823.596	1066.72
823.778	1027.2
823.96	1051.42
824.141	1056.84
824.323	1061.88
824.505	1114.97
824.687	1149.45
824.868	1153.33
825.05	1240.13
825.232	1284.69
825.413	1343.59
825.595	1315.5
825.777	1227.15
825.958	1291.28
826.14	1236.06
826.321	1279.46
826.503	1268.22
826.685	1298.64
826.866	1312.98
827.048	1325.96
827.229	1246.33
827.411	1226.76
827.592	1180.26
827.773	1170.57
827.955	1146.74
828.136	1144.8
828.318	1108.77
828.499	1172.9
828.68	1107.02
828.862	1148.49
829.043	1198.86
829.224	1141.9
829.406	1110.51
829.587	1124.65
829.768	1123.1
829.949	1139.57
830.131	1145
830.312	1213.58
830.493	1140.54
830.674	1154.49
830.855	1103.73
831.036	1115.55
831.218	1182.97
831.399	1186.27
831.58	1141.12
831.761	1155.65
831.942	1179.68
832.123	1168.83
832.304	1142.09
832.485	1111.48
832.666	1155.27
832.847	1161.85
833.028	1168.25
833.209	1131.05
833.389	1114.77
833.57	1098.3
833.751	1103.34
833.932	1203.12
834.113	1173.09
834.294	1129.3
834.475	1195.95
834.655	1161.85
834.836	1192.08
835.017	1180.84
835.198	1103.34
835.378	1199.63
835.559	1175.61
835.74	1149.84
835.92	1131.44
836.101	1120
836.281	1193.82
836.462	1175.61
836.643	1185.3
836.823	1210.87
837.004	1188.2
837.184	1292.05
837.365	1218.82
837.545	1218.43
837.726	1179.29
837.906	1232.57
838.087	1196.92
838.267	1189.56
838.448	1147.9
838.628	1166.7
838.808	1195.76
838.989	1259.31
839.169	1134.15
839.349	1214.55
839.53	1200.99
839.71	1207
839.89	1184.91
840.07	1273.84
840.251	1140.15
840.431	1243.42
840.611	1202.93
840.791	1169.8
840.971	1202.54
841.151	1180.45
841.332	1155.65
841.512	1234.51
841.692	1148.87
841.872	1208.74
842.052	1173.87
842.232	1192.08
842.412	1143.25
842.592	1162.43
842.772	1169.02
842.952	1185.1
843.132	1138.8
843.312	1144.03
843.492	1154.88
843.672	1190.72
843.851	1109.15
844.031	1145
844.211	1166.89
844.391	1139.96
844.571	1157.4
844.751	1179.29
844.93	1177.35
845.11	1134.15
845.29	1166.12
845.47	1152.94
845.649	1152.55
845.829	1174.06
846.009	1098.3
846.188	1156.04
846.368	1175.61
846.547	1147.13
846.727	1201.77
846.907	1100.44
847.086	1174.83
847.266	1164.95
847.445	1165.92
847.625	1107.8
847.804	1091.52
847.984	1124.65
848.163	1124.65
848.343	1121.17
848.522	1142.67
848.701	1154.3
848.881	1092.49
849.06	1125.62
849.239	1134.15
849.419	1135.31
849.598	1061.49
849.777	1073.89
849.957	1063.62
850.136	1044.64
850.315	1012.09
850.494	1004.72
850.674	1020.61
850.853	1050.06
851.032	1069.24
851.211	1090.36
851.39	1067.11
851.569	1020.22
851.748	1009.18
851.927	1089.39
852.107	1051.03
852.286	1020.81
852.465	1000.27
852.644	1083.58
852.823	1048.51
853.002	1070.21
853.181	1050.84
853.359	1069.24
853.538	997.94
853.717	1064.59
853.896	971.79
854.075	928.19
854.254	944.08
854.433	875.69
854.611	926.45
854.79	880.34
854.969	922.38
855.148	938.08
855.327	915.99
855.505	942.14
855.684	913.08
855.863	959.97
856.041	916.96
856.22	964.04
856.399	900.1
856.577	1018.29
856.756	990.19
856.934	1085.52
857.113	1114.19
857.291	1015.38
857.47	978.57
857.648	990.58
857.827	1009.96
858.005	1020.22
858.184	970.24
858.362	1055.49
858.541	1012.28
858.719	1006.08
858.898	997.17
859.076	995.42
859.254	1041.92
859.433	1002.79
859.611	991.36
859.789	942.92
859.967	1029.52
860.146	1069.24
860.324	930.91
860.502	961.52
860.68	916.57
860.859	960.36
861.037	950.67
861.215	974.5
861.393	979.93
861.571	942.34
861.749	933.81
861.927	1006.47
862.105	957.64
862.283	935.56
862.461	923.54
862.639	909.59
862.817	937.11
862.995	902.23
863.173	922.77
863.351	957.26
863.529	962.29
863.707	978.18
863.885	938.46
864.063	876.08
864.241	897.78
864.418	977.02
864.596	916.38
864.774	853.6
864.952	901.26
865.129	918.51
865.307	903.39
865.485	851.47
865.663	949.31
865.84	838.3
866.018	889.06
866.196	763.51
866.373	799.35
866.551	785.4
866.728	731.93
866.906	764.09
867.084	782.69
867.261	817.18
867.439	855.54
867.616	835.39
867.794	839.85
867.971	838.68
868.149	844.11
868.326	892.55
868.503	856.31
868.681	862.13
868.858	860
869.035	818.15
869.213	880.53
869.39	843.33
869.567	906.88
869.745	827.25
869.922	839.65
870.099	847.21
870.276	878.6
870.454	854.96
870.631	882.08
870.808	865.61
870.985	873.36
871.162	926.84
871.339	855.54
871.517	786.57
871.694	818.53
871.871	832.87
872.048	858.06
872.225	808.65
872.402	877.43
872.579	808.46
872.756	853.21
872.933	796.06
873.11	799.16
873.287	845.46
873.463	807.88
873.64	791.02
873.817	857.28
873.994	798.97
874.171	799.16
874.348	830.93
874.524	740.45
874.701	800.71
874.878	749.17
875.055	804.2
875.231	828.8
875.408	805.55
875.585	741.81
875.762	779.4
875.938	754.6
876.115	786.76
876.291	786.95
876.468	747.04
876.645	750.92
876.821	701.7
876.998	759.05
877.174	791.22
877.351	761.96
877.527	741.23
877.704	772.42
877.88	772.62
878.057	757.12
878.233	794.32
878.409	756.34
878.586	767.19
878.762	726.12
878.938	763.9
879.115	705.39
879.291	757.31
879.467	713.33
879.644	718.56
879.82	760.41
879.996	702.48
880.172	665.86
880.349	731.73
880.525	750.72
880.701	692.02
880.877	704.03
881.053	745.49
881.229	708.1
881.405	770.29
881.581	687.95
881.757	670.12
881.933	730.38
882.109	757.31
882.285	739.29
882.461	678.84
882.637	700.93
882.813	675.94
882.989	722.43
883.165	736
883.341	701.12
883.517	733.87
883.693	729.99
883.869	721.85
884.044	680.39
884.22	731.54
884.396	739.87
884.572	746.07
884.747	784.05
884.923	728.63
885.099	749.56
885.275	750.92
885.45	710.42
885.626	693.95
885.801	702.09
885.977	683.1
886.153	617.81
886.328	708.29
886.504	682.91
886.679	692.6
886.855	655.4
887.03	727.08
887.206	739.68
887.381	697.64
887.557	703.84
887.732	741.42
887.908	729.6
888.083	746.65
888.258	701.51
888.434	691.05
888.609	691.05
888.784	732.32
888.96	649.39
889.135	691.05
889.31	679.62
889.485	714.3
889.661	691.63
889.836	734.83
890.011	715.07
890.186	686.59
890.361	705
890.537	713.33
890.712	728.63
890.887	716.04
891.062	711.2
891.237	781.92
891.412	686.2
891.587	715.07
891.762	750.72
891.937	748.01
892.112	678.84
892.287	706.94
892.462	646.49
892.637	657.72
892.812	666.25
892.987	659.85
893.161	630.79
893.336	639.51
893.511	644.55
893.686	636.41
893.861	652.1
894.035	638.93
894.21	643.97
894.385	610.84
894.56	634.09
894.734	599.6
894.909	567.44
895.084	576.35
895.258	578.09
895.433	616.84
895.608	588.36
895.782	541.86
895.957	553.49
896.131	561.04
896.306	499.43
896.48	524.43
896.655	506.79
896.829	458.16
897.004	478.31
897.178	464.94
897.353	455.84
897.527	519.39
897.701	487.61
897.876	427.16
898.05	504.28
898.224	503.5
898.399	525.59
898.573	495.36
898.747	365.36
898.921	478.51
899.096	347.34
899.27	404.69
899.444	392.1
899.618	415.54
899.792	415.54
899.967	395.39
900.141	445.76
900.315	396.75
900.489	410.31
900.663	435.3
900.837	421.16
901.011	382.02
901.185	475.02
901.359	419.22
901.533	429.88
901.707	417.67
901.881	391.32
902.055	351.02
902.229	430.85
902.403	480.06
902.576	425.23
902.75	415.54
902.924	529.27
903.098	456.61
903.272	505.63
903.446	494.39
903.619	483.93
903.793	498.46
903.967	479.67
904.14	530.63
904.314	513.19
904.488	503.69
904.661	531.59
904.835	524.23
905.009	562.79
905.182	606.77
905.356	574.02
905.529	531.59
905.703	489.36
905.876	467.46
906.05	459.52
906.223	485.09
906.397	430.65
906.57	409.34
906.744	411.08
906.917	454.48
907.09	429.49
907.264	432.78
907.437	388.8
907.61	361.29
907.784	376.98
907.957	370.59
908.13	356.06
908.304	400.23
908.477	354.7
908.65	363.23
908.823	351.99
908.996	455.65
909.17	372.91
909.343	367.88
909.516	353.35
909.689	383.57
909.862	337.07
910.035	399.46
910.208	371.17
910.381	332.23
910.554	459.13
910.727	362.45
910.9	358.77
911.073	347.53
911.246	398.88
911.419	391.71
911.592	395.58
911.765	359.93
911.938	322.54
912.11	380.86
912.283	348.7
912.456	419.8
912.629	379.5
912.802	331.84
912.974	314.6
913.147	311.88
913.32	244.46
913.493	302.39
913.665	333.78
913.838	336.3
914.01	297.93
914.183	322.54
914.356	315.76
914.528	354.7
914.701	395.39
914.873	369.23
915.046	309.17
915.218	295.22
915.391	230.12
915.563	248.92
915.736	315.95
915.908	334.75
916.081	292.51
916.253	290.18
916.425	325.64
916.598	330.29
916.77	317.89
916.942	312.47
917.115	280.69
917.287	327.97
917.459	293.87
917.632	234.77
917.804	208.62
917.976	292.51
918.148	295.61
918.32	289.99
918.493	307.62
918.665	352.96
918.837	318.67
919.009	363.23
919.181	378.15
919.353	331.84
919.525	309.75
919.697	314.6
919.869	324.87
920.041	376.4
920.213	402.36
920.385	355.48
920.557	338.82
920.729	365.75
920.901	347.15
921.073	326.22
921.244	312.27
921.416	375.24
921.588	336.3
921.76	314.79
921.932	414.96
922.103	314.21
922.275	353.35
922.447	324.67
922.619	249.11
922.79	341.14
922.962	314.98
923.134	327.77
923.305	275.85
923.477	284.76
923.648	268.87
923.82	297.55
923.991	245.82
924.163	242.14
924.335	266.55
924.506	238.45
924.677	310.14
924.849	275.65
925.02	304.13
925.192	302
925.363	292.9
925.535	298.13
925.706	270.62
925.877	322.73
926.049	266.35
926.22	300.26
926.391	304.52
926.562	303.55
926.734	253.37
926.905	298.71
927.076	236.52
927.247	278.95
927.419	240.2
927.59	213.07
927.761	207.45
927.932	247.95
928.103	267.71
928.274	189.44
928.445	220.24
928.616	210.55
928.787	217.14
928.958	227.41
929.129	214.82
929.3	188.86
929.471	164.25
929.642	134.8
929.813	108.06
929.984	188.08
930.155	91.79
930.326	174.32
930.496	124.72
930.667	109.61
930.838	151.07
931.009	107.29
931.18	114.26
931.35	123.37
931.521	131.12
931.692	85.2
931.863	35.99
932.033	108.64
932.204	99.73
932.374	107.09
932.545	49.36
932.716	121.43
932.886	107.29
933.057	19.71
933.227	49.55
933.398	127.24
933.568	33.86
933.739	13.71
933.909	15.84
934.08	67.38
934.25	-27.37
934.421	25.53
934.591	34.83
934.761	14.68
934.932	-7.8
935.102	33.47
935.272	23.01
935.443	27.85
935.613	21.07
935.783	40.64
935.953	12.16
936.123	171.03
936.294	-0.44
936.464	17
936.634	42.77
936.804	14.1
936.974	4.8
937.144	64.47
937.314	40.83
937.484	13.71
937.655	7.12
937.825	67.57
937.995	8.86
938.165	60.79
938.334	34.83
938.504	48.97
938.674	27.85
938.844	40.06
939.014	76.87
939.184	94.89
939.354	104.96
939.524	97.02
939.694	39.67
939.863	48.78
940.033	116.59
940.203	122.59
940.373	88.69
940.542	103.61
940.712	55.17
940.882	83.26
941.051	69.7
941.221	96.44
941.391	132.09
941.56	61.95
941.73	58.66
941.899	155.53
942.069	62.92
942.238	112.91
942.408	68.54
942.577	83.84
942.747	52.26
942.916	6.15
943.086	69.89
943.255	98.76
943.425	72.61
943.594	70.86
943.763	-9.93
943.933	11.19
944.102	-19.04
944.271	55.94
944.441	63.11
944.61	38.31
944.779	52.07
944.948	149.72
945.117	16.61
945.287	36.38
945.456	-5.28
945.625	31.92
945.794	47.03
945.963	39.86
946.132	53.23
946.301	37.54
946.47	72.22
946.639	-10.9
946.808	32.89
946.977	74.74
947.146	91.98
947.315	27.66
947.484	97.02
947.653	74.54
947.822	30.56
947.991	46.84
948.16	122.4
948.329	77.84
948.498	68.15
948.666	36.57
948.835	75.51
949.004	33.47
949.173	23.2
949.341	28.04
949.51	68.73
949.679	75.71
949.847	74.74
950.016	139.26
950.185	106.71
950.353	40.83
950.522	48
950.69	105.93
950.859	34.24
951.028	87.33
951.196	48.19
951.365	46.45
951.533	63.31
951.701	82.29
951.87	83.84
952.038	12.74
952.207	32.89
952.375	100.51
952.543	47.61
952.712	61.37
952.88	29.59
953.048	113.68
953.217	32.5
953.385	29.59
953.553	98.57
953.721	13.51
953.89	32.89
954.058	-2.95
954.226	20.3
954.394	53.43
954.562	3.05
954.73	60.98
954.898	33.66
955.067	87.33
955.235	29.4
955.403	95.28
955.571	119.49
955.739	60.98
955.907	12.55
956.075	15.06
956.243	29.79
956.41	64.08
956.578	-10.51
956.746	15.65
956.914	50.13
957.082	72.41
957.25	61.56
957.418	8.48
957.585	61.76
957.753	93.34
957.921	7.12
958.089	44.51
958.256	91.21
958.424	84.04
958.592	61.56
958.759	39.67
958.927	54.39
959.095	34.83
959.262	66.99
959.43	84.23
959.597	21.07
959.765	53.23
959.932	15.65
960.1	84.43
960.267	54.59
960.435	24.17
960.602	69.7
960.77	34.83
960.937	8.67
961.104	53.23
961.272	2.08
961.439	33.28
961.606	58.66
961.774	87.72
961.941	25.72
962.108	54.01
962.275	71.25
962.443	102.64
962.61	76.09
962.777	131.31
962.944	74.93
963.111	63.5
963.278	91.21
963.446	93.53
963.613	58.46
963.78	71.44
963.947	79.19
964.114	32.5
964.281	146.42
964.448	100.31
964.615	33.28
964.782	60.21
964.949	80.74
965.116	97.02
965.282	117.36
965.449	49.94
965.616	28.82
965.783	77.84
965.95	72.22
966.117	11
966.283	58.46
966.45	61.18
966.617	100.89
966.784	87.72
966.95	84.23
967.117	96.83
967.284	33.28
967.45	45.68
967.617	108.45
967.784	68.15
967.95	143.91
968.117	68.34
968.283	106.51
968.45	159.02
968.616	91.98
968.783	98.96
968.949	91.21
969.116	120.66
969.282	60.79
969.449	71.64
969.615	89.66
969.781	29.79
969.948	55.36
970.114	7.12
970.28	112.32
970.447	69.51
970.613	102.44
970.779	81.52
970.945	91.59
971.112	101.67
971.278	66.21
971.444	68.54
971.61	109.81
971.776	53.23
971.942	75.9
972.108	91.01
972.275	58.85
972.441	76.87
972.607	125.5
972.773	64.28
972.939	75.32
973.105	69.89
973.271	39.86
973.437	58.08
973.602	46.45
973.768	86.75
973.934	67.76
974.1	88.49
974.266	4.21
974.432	97.41
974.598	40.64
974.763	99.93
974.929	48.58
975.095	151.27
975.261	51.1
975.426	37.73
975.592	34.05
975.758	130.34
975.923	11.77
976.089	52.07
976.255	91.01
976.42	70.09
976.586	81.33
976.751	76.48
976.917	131.31
977.082	78.03
977.248	8.67
977.413	1.11
977.579	39.86
977.744	86.56
977.91	29.01
978.075	50.91
978.24	103.22
978.406	71.25
978.571	56.91
978.736	13.71
978.902	80.16
979.067	42.96
979.232	-12.64
979.397	59.04
979.563	103.8
979.728	52.84
979.893	40.44
980.058	38.89
980.223	100.12
980.388	75.32
980.554	61.95
980.719	65.24
980.884	92.18
981.049	87.53
981.214	60.59
981.379	59.24
981.544	28.24
981.709	48.19
981.874	55.75
982.039	73.96
982.204	86.17
982.368	62.73
982.533	50.71
982.698	108.84
982.863	90.24
983.028	47.42
983.193	58.46
983.357	84.43
983.522	62.73
983.687	36.96
983.852	43.35
984.016	62.73
984.181	82.29
984.346	75.9
984.51	103.99
984.675	53.43
984.839	77.84
985.004	62.34
985.168	106.13
985.333	74.35
985.498	74.74
985.662	77.06
985.827	70.86
985.991	70.09
986.155	50.33
986.32	77.26
986.484	148.36
986.649	93.53
986.813	7.7
986.977	60.79
987.142	109.42
987.306	19.52
987.47	34.44
987.634	50.33
987.799	72.41
987.963	53.43
988.127	80.74
988.291	110.97
988.455	73.19
988.62	43.54
988.784	85.98
988.948	76.68
989.112	42.96
989.276	65.44
989.44	54.2
989.604	37.15
989.768	40.64
989.932	111.36
990.096	34.05
990.26	0.53
990.424	26.49
990.588	68.15
990.752	145.26
990.915	78.03
991.079	43.35
991.243	50.52
991.407	95.08
991.571	50.71
991.734	69.12
991.898	83.46
992.062	147.2
992.226	52.26
992.389	24.17
992.553	21.26
992.717	30.37
992.88	47.61
993.044	48.39
993.207	40.25
993.371	85.59
993.535	88.88
993.698	79
993.862	81.52
994.025	91.01
994.189	82.88
994.352	67.18
994.515	56.53
994.679	87.53
994.842	55.94
995.006	66.21
995.169	32.89
995.332	9.64
995.496	88.69
995.659	14.68
995.822	40.83
995.985	42.96
996.149	97.21
996.312	40.83
996.475	105.93
996.638	46.84
996.801	94.69
996.964	122.01
997.128	62.14
997.291	48.39
997.454	50.52
997.617	4.8
997.78	84.04
997.943	56.53
998.106	85.98
998.269	57.3
998.432	21.26
998.595	64.28
998.758	0.34
998.92	11
999.083	16.61
999.246	22.04
999.409	-5.67
999.572	-33.37
999.735	42.58
999.897	59.24
1000.06	19.91
1000.223	26.69
1000.386	73.58
1000.548	81.13
1000.711	59.04
1000.874	72.61
1001.036	4.02
1001.199	82.1
1001.361	41.41
1001.524	31.53
1001.687	78.81
1001.849	26.69
1002.012	57.3
1002.174	60.4
1002.337	66.99
1002.499	13.71
1002.661	101.09
1002.824	0.34
1002.986	19.71
1003.149	52.65
1003.311	18.55
1003.473	97.02
1003.636	30.76
1003.798	69.31
1003.96	64.66
1004.123	20.88
1004.285	28.43
1004.447	37.34
1004.609	54.59
1004.771	72.22
1004.933	-8.77
1005.096	11.19
1005.258	-6.44
1005.42	32.89
1005.582	48.97
1005.744	61.76
1005.906	6.54
1006.068	47.03
1006.23	22.04
1006.392	-1.21
1006.554	-23.88
1006.716	64.66
1006.878	29.4
1007.04	-8.77
1007.202	16.42
1007.363	60.79
1007.525	38.12
1007.687	54.39
1007.849	102.06
1008.011	-29.69
1008.172	20.49
1008.334	17
1008.496	45.29
1008.658	-6.64
1008.819	8.86
1008.981	17.58
1009.143	5.96
1009.304	25.91
1009.466	34.05
1009.627	83.65
1009.789	131.89
1009.95	30.18
1010.112	5.38
1010.273	38.31
1010.435	15.06
1010.596	-0.05
1010.758	52.46
1010.919	10.41
1011.081	11.58
1011.242	55.75
1011.403	50.91
1011.565	13.51
1011.726	47.42
1011.887	-2.18
1012.049	35.02
1012.21	52.65
1012.371	104.19
1012.532	-54.49
1012.693	31.92
1012.855	13.13
1013.016	25.33
1013.177	66.41
1013.338	31.92
1013.499	86.75
1013.66	39.48
1013.821	47.42
1013.982	39.86
1014.143	28.63
1014.304	19.91
1014.465	50.71
1014.626	34.05
1014.787	3.25
1014.948	90.82
1015.109	-39.19
1015.27	46.64
1015.431	-4.31
1015.592	28.04
1015.752	62.53
1015.913	10.22
1016.074	29.4
1016.235	33.86
1016.395	14.29
1016.556	2.28
1016.717	11.58
1016.877	50.13
1017.038	-1.02
1017.199	17.2
1017.359	22.81
1017.52	29.4
1017.681	3.44
1017.841	36.76
1018.002	-8.57
1018.162	8.09
1018.323	29.79
1018.483	9.06
1018.644	22.81
1018.804	-12.06
1018.964	-10.32
1019.125	13.32
1019.285	17.39
1019.446	9.45
1019.606	-7.6
1019.766	-18.65
1019.926	39.28
1020.087	19.33
1020.247	-30.47
1020.407	24.56
1020.567	58.66
1020.728	17.97
1020.888	-8.77
1021.048	9.06
1021.208	-39.38
1021.368	-5.86
1021.528	46.84
1021.688	34.44
1021.848	53.04
1022.008	4.8
1022.168	25.14
1022.328	35.21
1022.488	38.7
1022.648	-13.03
1022.808	1.89
1022.968	14.29
1023.128	-7.02
1023.288	11.58
1023.448	32.5
1023.608	54.01
1023.767	11.77
1023.927	-17.1
1024.087	-40.15
1024.247	-32.99
1024.406	10.41
1024.566	-31.82
1024.726	-2.37
1024.885	37.73
1025.045	38.51
1025.205	-4.12
1025.364	5.38
1025.524	32.31
1025.683	13.9
1025.843	54.98
1026.003	10.61
1026.162	45.87
1026.321	30.56
1026.481	-3.15
1026.64	24.56
1026.8	60.79
1026.959	-4.31
1027.119	9.06
1027.278	2.08
1027.437	-24.46
1027.597	12.35
1027.756	35.41
1027.915	25.53
1028.074	28.82
1028.234	-19.42
1028.393	32.31
1028.552	14.48
1028.711	-68.83
1028.87	56.72
1029.03	-27.56
1029.189	1.31
1029.348	-43.84
1029.507	-1.6
1029.666	6.73
1029.825	-20.97
1029.984	-3.73
1030.143	10.41
1030.302	-23.69
1030.461	-62.05
1030.62	22.81
1030.779	2.47
1030.938	-1.21
1031.097	-27.75
1031.255	43.74
1031.414	68.93
1031.573	36.57
1031.732	-31.63
1031.891	-0.63
1032.049	58.46
1032.208	43.16
1032.367	-9.74
1032.525	-1.4
1032.684	8.09
1032.843	14.87
1033.001	-48.87
1033.16	166.57
1033.319	63.89
1033.477	33.47
1033.636	-3.34
1033.794	-57.4
1033.953	40.44
1034.111	22.43
1034.27	-18.84
1034.428	34.83
1034.587	-19.62
1034.745	-2.95
1034.903	17.39
1035.062	26.3
1035.22	-18.07
1035.378	25.33
1035.537	-20
1035.695	38.31
1035.853	-5.67
1036.011	37.34
1036.17	-3.73
1036.328	-42.48
1036.486	25.33
1036.644	22.81
1036.802	-78.9
1036.96	-27.75
1037.119	21.46
1037.277	-17.1
1037.435	-54.69
1037.593	-20.78
1037.751	-13.42
1037.909	45.87
1038.067	45.87
