Data from pine_FLMT105791__66__17-21-06-077.txt Node

Date: Mon Mar 20 17:21:06 GMT 2023
User: antho
Spectrometer: FLMT10579
Trigger mode: 0
Integration Time (sec): 1.000000E-1
Scans to average: 10
Electric dark correction enabled: true
Nonlinearity correction enabled: false
Boxcar width: 0
XAxis mode: Wavelengths
Number of Pixels in Spectrum: 3648
>>>>>Begin Spectral Data<<<<<
345.248	-153.21
345.464	-153.21
345.681	-153.21
345.898	-154.56
346.114	-162.89
346.331	-40.44
346.548	23.3
346.764	0.05
346.981	-9.64
347.197	-15.84
347.414	17.1
347.631	1.21
347.847	68.44
348.064	-1.89
348.28	15.55
348.497	-39.86
348.713	-17.97
348.93	25.43
349.146	8.77
349.363	-30.76
349.579	0.82
349.796	8.96
350.012	10.9
350.229	12.84
350.445	-4.6
350.661	-40.64
350.878	-20.49
351.094	36.09
351.311	1.99
351.527	-5.18
351.743	-17.2
351.96	18.65
352.176	32.6
352.392	10.9
352.609	24.65
352.825	-13.9
353.041	5.86
353.257	9.54
353.474	-8.67
353.69	-12.93
353.906	16.9
354.122	-37.15
354.339	63.4
354.555	-1.7
354.771	-12.55
354.987	54.3
355.203	60.89
355.42	-11.96
355.636	-11.19
355.852	-15.06
356.068	4.31
356.284	-35.79
356.5	38.22
356.716	11.29
356.932	11.09
357.148	44.42
357.364	-10.61
357.58	27.95
357.796	48.87
358.012	42.29
358.228	21.17
358.444	-36.18
358.66	51.97
358.876	47.52
359.092	-14.68
359.308	-6.54
359.524	-1.7
359.74	-35.79
359.956	-24.56
360.172	-5.18
360.388	43.06
360.604	-5.76
360.819	54.69
361.035	9.54
361.251	45.19
361.467	-28.63
361.683	65.92
361.898	24.07
362.114	32.4
362.33	18.07
362.546	23.1
362.762	13.8
362.977	8.38
363.193	-27.66
363.409	27.17
363.624	-42.58
363.84	-16.03
364.056	-11.19
364.271	22.14
364.487	13.42
364.703	-2.08
364.918	-22.81
365.134	-6.35
365.35	-4.02
365.565	98.28
365.781	4.12
365.996	21.94
366.212	47.32
366.427	24.27
366.643	-19.91
366.858	-12.16
367.074	-24.94
367.289	52.94
367.505	109.71
367.72	-32.11
367.936	-20.49
368.151	40.54
368.367	34.34
368.582	10.51
368.798	-1.5
369.013	78.32
369.228	1.99
369.444	8.38
369.659	27.56
369.874	32.21
370.09	38.41
370.305	-64.47
370.52	-12.74
370.736	36.86
370.951	20.78
371.166	67.08
371.381	52.36
371.597	33.57
371.812	-6.15
372.027	-16.61
372.242	3.73
372.458	92.85
372.673	-5.18
372.888	28.14
373.103	48.68
373.318	81.81
373.533	30.85
373.749	37.83
373.964	-36.76
374.179	26.59
374.394	-10.8
374.609	63.6
374.824	7.6
375.039	68.44
375.254	-7.7
375.469	58.95
375.684	28.34
375.899	49.65
376.114	7.02
376.329	20.59
376.544	55.46
376.759	54.69
376.974	-2.28
377.189	-11.77
377.404	6.05
377.619	62.82
377.834	-32.5
378.049	-28.43
378.264	-24.75
378.478	-7.7
378.693	14.39
378.908	34.15
379.123	-6.35
379.338	55.07
379.553	13.61
379.767	20
379.982	34.15
380.197	31.63
380.412	2.95
380.626	-1.5
380.841	88.78
381.056	33.37
381.271	53.14
381.485	-29.01
381.7	-33.66
381.915	10.32
382.129	-12.93
382.344	24.46
382.559	5.28
382.773	65.54
382.988	-43.74
383.202	12.45
383.417	-13.32
383.632	110.48
383.846	-17.2
384.061	33.76
384.275	13.61
384.49	36.86
384.704	16.71
384.919	26.98
385.133	-1.11
385.348	41.51
385.562	-11.77
385.777	23.49
385.991	18.26
386.206	-4.99
386.42	-4.6
386.634	63.79
386.849	24.27
387.063	12.06
387.277	-33.28
387.492	-14.48
387.706	-28.63
387.92	-9.06
388.135	45.58
388.349	29.11
388.563	13.42
388.778	47.13
388.992	44.61
389.206	34.34
389.42	119.01
389.635	21.17
389.849	52.36
390.063	72.51
390.277	38.41
390.491	91.3
390.706	24.85
390.92	16.52
391.134	-16.42
391.348	43.64
391.562	-30.37
391.776	6.25
391.99	-25.72
392.205	15.94
392.419	-15.45
392.633	-27.66
392.847	50.04
393.061	-12.35
393.275	70.18
393.489	30.27
393.703	51.59
393.917	50.42
394.131	-3.25
394.345	41.32
394.559	76.97
394.773	1.6
394.986	30.47
395.2	18.07
395.414	47.32
395.628	2.57
395.842	15.16
396.056	20.78
396.27	-36.38
396.484	28.14
396.697	39.57
396.911	47.13
397.125	61.66
397.339	47.32
397.553	48.49
397.766	105.83
397.98	69.22
398.194	70.18
398.408	-2.28
398.621	20.59
398.835	50.23
399.049	13.03
399.262	71.54
399.476	63.4
399.69	47.32
399.903	108.55
400.117	12.84
400.331	40.74
400.544	4.12
400.758	133.54
400.971	57.98
401.185	104.09
401.398	-7.12
401.612	74.64
401.826	56.04
402.039	61.27
402.253	24.65
402.466	69.8
402.68	38.6
402.893	45
403.106	34.15
403.32	24.27
403.533	41.7
403.747	51
403.96	38.22
404.174	54.69
404.387	0.24
404.6	32.79
404.814	66.89
405.027	23.3
405.24	42.09
405.454	1.4
405.667	46.74
405.88	-30.18
406.094	47.32
406.307	78.32
406.52	45.39
406.733	5.67
406.947	-12.74
407.16	78.13
407.373	58.75
407.586	22.33
407.799	0.05
408.012	71.35
408.226	38.6
408.439	89.37
408.652	1.99
408.865	30.85
409.078	58.56
409.291	71.35
409.504	6.83
409.717	45.58
409.93	39.19
410.143	52.36
410.357	11.48
410.57	6.44
410.783	29.3
410.996	35.12
411.209	25.24
411.421	78.13
411.634	31.05
411.847	18.07
412.06	39.96
412.273	21.94
412.486	20
412.699	102.15
412.912	24.07
413.125	41.7
413.338	34.54
413.55	65.54
413.763	42.48
413.976	33.37
414.189	19.42
414.402	23.1
414.615	94.98
414.827	25.82
415.04	58.56
415.253	73.48
415.466	83.55
415.678	93.82
415.891	38.6
416.104	77.55
416.316	42.48
416.529	30.85
416.742	56.43
416.954	99.83
417.167	29.11
417.38	26.2
417.592	83.94
417.805	12.06
418.017	12.25
418.23	69.02
418.442	39.96
418.655	27.17
418.868	59.72
419.08	90.33
419.293	89.17
419.505	49.84
419.718	45.19
419.93	94.79
420.142	27.95
420.355	113.2
420.567	72.12
420.78	90.14
420.992	68.05
421.205	104.67
421.417	11.87
421.629	29.89
421.842	34.73
422.054	25.24
422.266	80.26
422.479	97.31
422.691	47.32
422.903	69.99
423.115	48.1
423.328	60.69
423.54	76.38
423.752	48.87
423.964	49.26
424.177	56.82
424.389	58.37
424.601	157.56
424.813	37.83
425.025	97.5
425.238	102.93
425.45	71.93
425.662	75.03
425.874	358.09
426.086	61.66
426.298	82.39
426.51	85.1
426.722	73.87
426.934	45.77
427.146	64.95
427.358	37.25
427.57	104.87
427.782	50.42
427.994	75.42
428.206	56.82
428.418	-7.31
428.63	82
428.842	127.73
429.054	64.95
429.266	113.78
429.478	50.04
429.69	81.81
429.902	-0.34
430.114	112.03
430.325	87.23
430.537	44.8
430.749	82
430.961	32.6
431.173	68.44
431.384	83.17
431.596	-8.67
431.808	47.32
432.02	71.15
432.231	118.04
432.443	119.59
432.655	102.15
432.867	48.1
433.078	103.12
433.29	143.42
433.502	148.85
433.713	166.48
433.925	104.28
434.136	137.42
434.348	74.64
434.56	52.55
434.771	219.76
434.983	43.06
435.194	77.74
435.406	79.68
435.617	104.67
435.829	176.75
436.04	119.01
436.252	131.6
436.463	154.46
436.675	169.77
436.886	107
437.098	132.38
437.309	163.18
437.521	119.98
437.732	96.73
437.943	120.37
438.155	109.32
438.366	61.85
438.578	194.18
438.789	140.52
439	173.26
439.211	110.29
439.423	171.13
439.634	128.89
439.845	158.92
440.057	142.07
440.268	182.95
440.479	109.52
440.69	162.6
440.902	131.22
441.113	119.98
441.324	118.62
441.535	158.73
441.746	198.83
441.957	115.52
442.168	132.77
442.38	152.72
442.591	171.51
442.802	118.82
443.013	129.08
443.224	171.51
443.435	147.88
443.646	180.04
443.857	162.21
444.068	145.75
444.279	111.84
444.49	229.25
444.701	158.53
444.912	264.51
445.123	216.46
445.334	198.06
445.545	190.5
445.756	156.21
445.967	164.93
446.178	160.86
446.388	223.83
446.599	203.1
446.81	194.57
447.021	200.77
447.232	216.85
447.443	241.84
447.653	145.75
447.864	203.1
448.075	163.96
448.286	199.8
448.496	175.2
448.707	207.94
448.918	202.71
449.129	286.02
449.339	161.63
449.55	220.92
449.761	180.23
449.971	242.62
450.182	185.66
450.393	222.66
450.603	190.11
450.814	240.88
451.024	229.25
451.235	238.55
451.446	248.04
451.656	244.75
451.867	204.06
452.077	253.08
452.288	263.16
452.498	279.24
452.709	204.65
452.919	242.43
453.13	171.32
453.34	268.78
453.55	196.31
453.761	244.94
453.971	221.5
454.182	246.88
454.392	265.09
454.602	318.57
454.813	255.02
455.023	252.89
455.233	201.35
455.444	225.38
455.654	167.06
455.864	223.25
456.075	223.83
456.285	208.52
456.495	229.06
456.705	245.72
456.916	298.23
457.126	287.18
457.336	250.37
457.546	163.76
457.756	230.41
457.967	270.71
458.177	231.38
458.387	278.27
458.597	241.07
458.807	240.1
459.017	218.6
459.227	240.1
459.437	228.67
459.647	262.58
459.857	265.68
460.068	235.06
460.278	291.64
460.488	274.98
460.698	328.26
460.908	276.33
461.117	192.63
461.327	226.54
461.537	274.98
461.747	258.51
461.957	279.43
462.167	367.39
462.377	325.35
462.587	269.16
462.797	290.48
463.007	275.75
463.216	314.89
463.426	293.19
463.636	310.04
463.846	235.06
464.056	259.09
464.265	306.75
464.475	244.56
464.685	267.23
464.895	281.37
465.104	274.39
465.314	316.83
465.524	271.49
465.733	256.38
465.943	344.34
466.153	354.8
466.362	330.97
466.572	317.6
466.782	281.18
466.991	293.58
467.201	350.15
467.41	234.29
467.62	326.32
467.829	275.56
468.039	341.04
468.249	296.29
468.458	317.41
468.668	336.78
468.877	334.26
469.086	374.95
469.296	337.17
469.505	311.01
469.715	365.84
469.924	329.03
470.134	369.52
470.343	367.59
470.552	330.97
470.762	318.57
470.971	282.73
471.18	334.07
471.39	325.54
471.599	302.1
471.808	368.56
472.018	302.29
472.227	348.99
472.436	359.45
472.645	307.91
472.855	324.19
473.064	387.54
473.273	337.56
473.482	349.18
473.691	378.05
473.901	376.31
474.11	342.98
474.319	460.2
474.528	355.38
474.737	423.97
474.946	402.85
475.155	389.87
475.364	421.84
475.573	424.35
475.783	415.06
475.992	395.68
476.201	459.23
476.41	378.24
476.619	341.43
476.828	401.49
477.037	375.72
477.245	386.57
477.454	429
477.663	425.71
477.872	398.59
478.081	450.9
478.29	388.51
478.499	506.89
478.708	417.77
478.917	475.89
479.125	404.59
479.334	431.72
479.543	422.03
479.752	450.32
479.961	464.46
480.169	470.66
480.378	415.83
480.587	558.23
480.796	473.18
481.004	468.53
481.213	470.47
481.422	467.37
481.63	469.89
481.839	491.97
482.048	522.39
482.256	487.13
482.465	507.67
482.674	516.77
482.882	516.97
483.091	576.83
483.299	516.38
483.508	531.11
483.716	493.72
483.925	521.62
484.134	503.4
484.342	499.92
484.551	538.08
484.759	537.31
484.967	561.53
485.176	568.12
485.384	548.16
485.593	564.24
485.801	548.93
486.01	543.32
486.218	493.14
486.426	439.27
486.635	462.33
486.843	475.31
487.051	495.85
487.26	490.04
487.468	534.4
487.676	531.11
487.885	501.08
488.093	509.02
488.301	545.83
488.509	551.65
488.717	556.68
488.926	550.29
489.134	559.78
489.342	543.51
489.55	534.79
489.758	558.23
489.967	556.88
490.175	670.8
490.383	550.1
490.591	616.36
490.799	535.76
491.007	629.73
491.215	622.36
491.423	571.99
491.631	573.54
491.839	617.91
492.047	644.65
492.255	537.12
492.463	540.8
492.671	548.93
492.879	623.91
493.087	604.73
493.295	640.19
493.503	648.13
493.711	638.25
493.919	680.49
494.127	683.59
494.334	667.31
494.542	606.28
494.75	636.31
494.958	593.3
495.166	702.77
495.374	665.96
495.581	675.26
495.789	683.78
495.997	727.57
496.205	626.24
496.412	658.98
496.62	671.38
496.828	661.89
497.035	677.39
497.243	709.94
497.451	670.8
497.658	667.7
497.866	683.39
498.074	748.11
498.281	659.37
498.489	725.05
498.696	657.43
498.904	678.55
499.112	673.32
499.319	758.38
499.527	681.65
499.734	743.65
499.942	658.6
500.149	680.68
500.357	694.83
500.564	632.44
500.771	706.26
500.979	645.23
501.186	669.25
501.394	716.53
501.601	681.84
501.808	728.73
502.016	686.69
502.223	686.3
502.43	680.68
502.638	704.32
502.845	670.22
503.052	766.32
503.26	687.46
503.467	784.53
503.674	729.89
503.881	714.39
504.089	766.51
504.296	774.07
504.503	683.78
504.71	735.71
504.917	665.38
505.125	752.76
505.332	734.35
505.539	747.53
505.746	831.61
505.953	794.99
506.16	798.09
506.367	801.58
506.574	850.99
506.781	842.66
506.988	770.39
507.195	781.82
507.402	787.24
507.609	788.99
507.816	762.83
508.023	764.19
508.23	760.31
508.437	732.61
508.644	808.17
508.851	844.01
509.058	827.74
509.265	791.51
509.472	836.46
509.679	900.97
509.885	810.88
510.092	850.21
510.299	820.18
510.506	817.47
510.713	842.66
510.92	802.36
511.126	828.71
511.333	876.95
511.54	840.33
511.746	901.94
511.953	924.22
512.16	906.4
512.367	842.85
512.573	845.76
512.78	872.3
512.987	868.04
513.193	867.45
513.4	770.77
513.606	861.64
513.813	854.47
514.02	862.42
514.226	943.21
514.433	948.63
514.639	842.27
514.846	866.68
515.052	847.11
515.259	887.6
515.465	921.12
515.672	908.72
515.878	986.42
516.085	907.17
516.291	950.18
516.497	902.14
516.704	887.99
516.91	849.24
517.117	822.12
517.323	746.36
517.529	835.49
517.736	826.19
517.942	856.8
518.148	808.56
518.354	894.97
518.561	878.69
518.767	875.59
518.973	935.85
519.179	951.73
519.386	868.62
519.592	892.06
519.798	902.91
520.004	980.22
520.21	919.96
520.417	980.8
520.623	1006.37
520.829	990.87
521.035	999.2
521.241	987.58
521.447	1029.43
521.653	1111.58
521.859	979.83
522.065	1047.64
522.271	1110.8
522.477	1071.86
522.683	1105.76
522.889	1052.29
523.095	1038.34
523.301	1042.41
523.507	1011.99
523.713	1070.11
523.919	1016.83
524.125	1088.13
524.331	1077.28
524.537	1137.73
524.742	1114.87
524.948	1135.79
525.154	1148.78
525.36	1220.27
525.566	1113.13
525.772	1173.96
525.977	1087.94
526.183	1133.86
526.389	1193.53
526.595	1109.45
526.8	1097.82
527.006	1083.68
527.212	1033.5
527.417	1034.66
527.623	987.19
527.829	1096.46
528.034	1129.98
528.24	1085.03
528.446	1093.95
528.651	1168.15
528.857	1180.94
529.062	1229.96
529.268	1176.87
529.473	1193.53
529.679	1161.18
529.884	1247.01
530.09	1182.1
530.295	1245.46
530.501	1250.69
530.706	1233.25
530.912	1183.26
531.117	1209.61
531.323	1198.18
531.528	1262.7
531.733	1260.18
531.939	1221.04
532.144	1248.56
532.35	1227.44
532.555	1243.91
532.76	1269.29
532.966	1226.27
533.171	1220.46
533.376	1188.3
533.581	1184.23
533.787	1215.04
533.992	1265.02
534.197	1307.26
534.402	1220.27
534.607	1266.96
534.813	1337.1
535.018	1246.04
535.223	1296.6
535.428	1289.44
535.633	1339.23
535.838	1314.62
536.043	1324.12
536.249	1375.85
536.454	1305.52
536.659	1377.4
536.864	1313.07
537.069	1292.73
537.274	1306.1
537.479	1306.29
537.684	1339.81
537.889	1301.25
538.094	1406.85
538.299	1311.33
538.504	1358.99
538.708	1345.24
538.913	1352.6
539.118	1302.42
539.323	1337.29
539.528	1311.52
539.733	1314.62
539.938	1334.58
540.142	1356.86
540.347	1316.17
540.552	1293.7
540.757	1320.05
540.962	1289.05
541.166	1236.74
541.371	1243.91
541.576	1318.69
541.781	1247.39
541.985	1294.09
542.19	1314.24
542.395	1371.2
542.599	1385.53
542.804	1359.19
543.008	1410.53
543.213	1327.99
543.418	1306.49
543.622	1362.87
543.827	1303.39
544.031	1403.94
544.236	1384.76
544.44	1360.93
544.645	1464.78
544.849	1367.52
545.054	1396
545.258	1440.75
545.463	1443.47
545.667	1331.48
545.872	1440.17
546.076	1405.68
546.281	1400.26
546.485	1375.07
546.689	1388.63
546.894	1403.75
547.098	1391.54
547.302	1377.98
547.507	1429.71
547.711	1413.82
547.915	1405.88
548.119	1353.95
548.324	1375.46
548.528	1461.1
548.732	1371.97
548.936	1438.23
549.141	1462.07
549.345	1380.5
549.549	1440.56
549.753	1433.39
549.957	1483.38
550.161	1467.3
550.366	1437.07
550.57	1402.2
550.774	1414.6
550.978	1394.64
551.182	1420.99
551.386	1369.84
551.59	1404.52
551.794	1369.26
551.998	1455.87
552.202	1400.65
552.406	1367.9
552.61	1452.96
552.814	1423.32
553.018	1485.9
553.222	1428.16
553.426	1460.9
553.63	1533.95
553.833	1428.35
554.037	1400.84
554.241	1452.77
554.445	1430.48
554.649	1458.58
554.853	1402.2
555.056	1457.22
555.26	1462.45
555.464	1470.4
555.668	1465.36
555.871	1460.32
556.075	1449.47
556.279	1392.12
556.483	1420.6
556.686	1407.82
556.89	1429.71
557.094	1421.96
557.297	1398.71
557.501	1441.33
557.704	1354.34
557.908	1443.08
558.112	1387.28
558.315	1470.4
558.519	1396.97
558.722	1410.33
558.926	1353.37
559.129	1341.94
559.333	1291.37
559.536	1289.24
559.74	1321.4
559.943	1314.82
560.147	1331.09
560.35	1348.72
560.553	1337.68
560.757	1283.04
560.96	1392.12
561.164	1325.86
561.367	1438.43
561.57	1333.22
561.774	1355.31
561.977	1309.39
562.18	1365
562.384	1431.65
562.587	1368.87
562.79	1321.99
562.993	1319.47
563.197	1389.02
563.4	1431.45
563.603	1379.14
563.806	1429.52
564.009	1325.47
564.212	1358.22
564.416	1292.54
564.619	1346.98
564.822	1306.87
565.025	1365.58
565.228	1308.23
565.431	1348.92
565.634	1249.52
565.837	1317.53
566.04	1275.68
566.243	1283.04
566.446	1231.51
566.649	1320.63
566.852	1245.84
567.055	1252.62
567.258	1324.89
567.461	1345.62
567.664	1355.12
567.867	1224.72
568.07	1290.4
568.273	1301.45
568.475	1325.09
568.678	1284.98
568.881	1266.57
569.084	1236.74
569.287	1162.73
569.489	1199.54
569.692	1280.33
569.895	1264.25
570.098	1192.56
570.3	1160.98
570.503	1141.99
570.706	1157.69
570.909	1162.53
571.111	1168.34
571.314	1171.83
571.516	1178.61
571.719	1197.41
571.922	1178.61
572.124	1154.59
572.327	1179.78
572.529	1136.76
572.732	1165.83
572.935	1228.02
573.137	1230.34
573.34	1172.22
573.542	1195.08
573.745	1214.65
573.947	1229.57
574.15	1173.19
574.352	1190.82
574.554	1217.56
574.757	1129.21
574.959	1156.14
575.162	1130.37
575.364	1097.05
575.566	1250.11
575.769	1135.6
575.971	1122.81
576.173	1079.61
576.376	1136.38
576.578	1169.89
576.78	1205.74
576.982	1053.26
577.185	1129.98
577.387	1065.85
577.589	1080.96
577.791	1132.5
577.993	1142.77
578.196	1094.91
578.398	1123.39
578.6	1164.66
578.802	1068.56
579.004	1088.52
579.206	1113.13
579.408	1128.24
579.61	1107.12
579.812	1135.79
580.014	1101.5
580.216	1091.43
580.418	1091.04
580.62	1099.37
580.822	1093.56
581.024	1111.58
581.226	1142.96
581.428	1076.7
581.63	1183.46
581.832	1099.76
582.034	1134.83
582.236	1123.59
582.438	1155.75
582.64	1141.61
582.841	1204.57
583.043	1195.66
583.245	1144.32
583.447	1166.02
583.649	1134.63
583.85	1125.72
584.052	1150.52
584.254	1052.68
584.456	1138.12
584.657	1075.15
584.859	1161.56
585.061	1158.46
585.262	1103.83
585.464	1061.4
585.666	1153.43
585.867	1102.66
586.069	1163.11
586.27	1144.51
586.472	1089.68
586.674	1069.34
586.875	1092.2
587.077	1070.11
587.278	1124.56
587.48	1085.81
587.681	1233.06
587.883	1150.33
588.084	1026.33
588.285	1059.46
588.487	1063.33
588.688	1077.86
588.89	1000.95
589.091	992.23
589.292	993.58
589.494	983.7
589.695	962.97
589.896	880.24
590.098	888.57
590.299	954.06
590.5	934.1
590.702	913.76
590.903	1011.99
591.104	1042.02
591.305	1012.57
591.507	1055.78
591.708	1022.07
591.909	1013.93
592.11	1063.53
592.311	1052.29
592.512	995.33
592.714	943.98
592.915	961.23
593.116	998.62
593.317	1004.43
593.518	1015.87
593.719	993
593.92	1011.99
594.121	1042.6
594.322	998.43
594.523	976.34
594.724	971.11
594.925	992.81
595.126	1027.68
595.327	1020.52
595.528	1005.79
595.729	1000.56
595.929	979.63
596.13	1032.53
596.331	1020.13
596.532	1040.47
596.733	1059.46
596.934	1042.02
597.135	1028.65
597.335	1002.5
597.536	974.02
597.737	1015.67
597.938	988.16
598.138	1037.56
598.339	982.93
598.54	998.23
598.74	1008.31
598.941	1005.6
599.142	1063.53
599.342	1018.19
599.543	994.55
599.744	999.59
599.944	975.18
600.145	999.78
600.345	1045.31
600.546	1070.31
600.746	1031.36
600.947	1102.86
601.147	1019.74
601.348	1065.85
601.548	994.94
601.749	1004.05
601.949	986.42
602.15	975.57
602.35	977.7
602.551	1006.37
602.751	972.47
602.951	1018.38
603.152	927.52
603.352	1025.94
603.552	984.87
603.753	1042.6
603.953	1031.75
604.153	1025.75
604.354	982.73
604.554	1008.12
604.754	1002.88
604.954	950.77
605.155	970.92
605.355	967.43
605.555	1023.23
605.755	1066.43
605.955	1002.3
606.155	1036.79
606.356	983.51
606.556	1038.15
606.756	1018.77
606.956	937.98
607.156	1047.45
607.356	931.2
607.556	1013.15
607.756	1003.66
607.956	1013.93
608.156	1000.56
608.356	954.06
608.556	1037.18
608.756	998.43
608.956	972.66
609.156	964.91
609.356	944.18
609.556	943.98
609.755	974.02
609.955	954.06
610.155	975.18
610.355	975.37
610.555	943.21
610.755	953.67
610.954	889.15
611.154	962.39
611.354	966.65
611.554	932.36
611.753	923.06
611.953	910.66
612.153	964.52
612.352	966.27
612.552	931.39
612.752	887.8
612.951	935.07
613.151	958.9
613.351	887.8
613.55	939.53
613.75	924.61
613.949	907.95
614.149	944.57
614.348	927.52
614.548	862.8
614.747	859.7
614.947	859.9
615.146	851.95
615.346	963.55
615.545	910.47
615.745	922.48
615.944	932.17
616.144	912.4
616.343	930.23
616.542	854.09
616.742	884.12
616.941	848.86
617.14	802.16
617.34	847.69
617.539	857.19
617.738	818.44
617.938	935.27
618.137	876.75
618.336	794.02
618.535	900.2
618.734	862.03
618.934	869.39
619.133	863
619.332	895.74
619.531	869.97
619.73	913.37
619.929	924.8
620.128	912.6
620.328	950.18
620.527	872.69
620.726	864.16
620.925	898.45
621.124	885.47
621.323	925.39
621.522	844.79
621.721	839.36
621.92	851.95
622.119	908.34
622.318	848.27
622.517	818.24
622.715	878.89
622.914	821.73
623.113	882.76
623.312	789.18
623.511	858.74
623.71	849.05
623.909	832.58
624.107	869.97
624.306	806.81
624.505	813.79
624.704	832.39
624.902	853.89
625.101	885.86
625.3	846.14
625.499	809.14
625.697	802.55
625.896	808.56
626.095	851.37
626.293	791.12
626.492	781.24
626.69	847.11
626.889	811.46
627.088	861.45
627.286	797.32
627.485	788.02
627.683	795.77
627.882	837.23
628.08	733.58
628.279	763.03
628.477	840.52
628.676	770
628.874	811.66
629.073	779.3
629.271	743.46
629.469	776.97
629.668	769.81
629.866	751.59
630.065	749.46
630.263	801
630.461	733.96
630.66	791.12
630.858	790.34
631.056	817.27
631.254	849.24
631.453	751.01
631.651	791.12
631.849	784.92
632.047	763.22
632.245	740.16
632.444	801.58
632.642	797.71
632.84	813.21
633.038	777.75
633.236	744.62
633.434	760.7
633.632	746.17
633.83	727.18
634.028	810.88
634.227	769.61
634.425	873.07
634.623	782.59
634.821	790.34
635.019	815.53
635.216	732.22
635.414	790.15
635.612	768.45
635.81	751.98
636.008	839.94
636.206	753.34
636.404	792.67
636.602	739.19
636.8	761.09
636.997	824.64
637.195	820.96
637.393	788.02
637.591	825.41
637.789	786.08
637.986	791.51
638.184	787.05
638.382	824.06
638.58	806.62
638.777	836.46
638.975	808.75
639.173	827.93
639.37	800.42
639.568	810.69
639.765	838.01
639.963	786.08
640.161	813.4
640.358	816.31
640.556	764.96
640.753	757.6
640.951	739.39
641.148	794.41
641.346	799.64
641.543	757.6
641.741	760.51
641.938	750.63
642.136	800.22
642.333	720.79
642.531	802.16
642.728	801.39
642.925	776.2
643.123	768.26
643.32	750.82
643.517	782.4
643.715	743.65
643.912	729.7
644.109	778.14
644.306	742.1
644.504	732.03
644.701	761.86
644.898	782.21
645.095	760.7
645.293	745.01
645.49	778.14
645.687	738.42
645.884	784.34
646.081	689.59
646.278	715.94
646.475	713.43
646.672	737.64
646.87	755.66
647.067	745.59
647.264	736.68
647.461	676.42
647.658	671.77
647.855	730.09
648.052	684.94
648.249	643.87
648.446	700.25
648.642	686.3
648.839	690.18
649.036	666.54
649.233	638.06
649.43	644.45
649.627	620.62
649.824	634.18
650.021	657.43
650.217	664.41
650.414	638.83
650.611	683.59
650.808	687.08
651.004	658.01
651.201	697.73
651.398	706.06
651.595	673.32
651.791	660.15
651.988	683.01
652.185	631.28
652.381	692.89
652.578	589.04
652.775	704.9
652.971	683.78
653.168	688.04
653.364	702.19
653.561	622.17
653.757	672.74
653.954	669.45
654.15	659.18
654.347	720.98
654.543	629.34
654.74	596.01
654.936	586.91
655.133	622.17
655.329	611.71
655.525	646.58
655.722	660.34
655.918	625.27
656.115	624.69
656.311	542.35
656.507	557.46
656.704	505.15
656.9	564.82
657.096	563.08
657.292	551.65
657.489	622.56
657.685	594.85
657.881	558.04
658.077	585.75
658.273	612.1
658.47	676.81
658.666	607.45
658.862	636.12
659.058	607.64
659.254	649.1
659.45	616.36
659.646	636.51
659.842	593.69
660.038	663.25
660.234	585.17
660.43	650.07
660.626	697.34
660.822	654.91
661.018	669.83
661.214	652.2
661.41	586.13
661.606	684.75
661.802	665.38
661.998	615.78
662.194	591.56
662.39	629.34
662.586	639.61
662.781	654.33
662.977	610.35
663.173	631.28
663.369	617.52
663.564	646.97
663.76	639.41
663.956	597.76
664.152	671.58
664.347	582.07
664.543	616.75
664.739	612.1
664.934	563.47
665.13	559.59
665.326	603.38
665.521	615.97
665.717	568.7
665.912	565.98
666.108	539.05
666.304	564.05
666.499	608.22
666.695	516.58
666.89	588.85
667.086	632.05
667.281	616.55
667.477	667.9
667.672	594.08
667.867	585.36
668.063	596.01
668.258	576.25
668.454	608.22
668.649	657.24
668.844	616.16
669.04	654.72
669.235	573.15
669.43	568.31
669.626	555.91
669.821	572.57
670.016	562.88
670.211	571.8
670.407	550.1
670.602	565.02
670.797	569.67
670.992	618.49
671.187	547.58
671.382	617.91
671.578	560.75
671.773	602.99
671.968	537.5
672.163	557.07
672.358	604.35
672.553	535.95
672.748	542.15
672.943	623.53
673.138	580.13
673.333	580.52
673.528	554.94
673.723	564.82
673.918	551.07
674.113	496.24
674.308	648.71
674.503	589.82
674.698	587.1
674.892	556.68
675.087	593.11
675.282	562.5
675.477	522.78
675.672	616.36
675.867	553
676.061	515.8
676.256	523.36
676.451	537.31
676.646	565.6
676.84	559.98
677.035	483.84
677.23	530.72
677.424	576.64
677.619	604.15
677.814	592.91
678.008	596.98
678.203	478.6
678.397	537.31
678.592	572.18
678.787	608.03
678.981	544.28
679.176	568.7
679.37	555.13
679.565	530.72
679.759	524.52
679.954	552.62
680.148	602.41
680.342	611.9
680.537	582.84
680.731	521.81
680.926	564.43
681.12	563.66
681.314	497.98
681.509	543.32
681.703	561.92
681.897	579.55
682.092	565.21
682.286	546.61
682.48	622.75
682.674	580.71
682.869	552.23
683.063	539.44
683.257	614.61
683.451	528.98
683.645	560.17
683.839	578.19
684.034	541.77
684.228	573.73
684.422	493.33
684.616	513.67
684.81	588.65
685.004	545.25
685.198	518.32
685.392	582.26
685.586	520.65
685.78	543.12
685.974	560.17
686.168	557.46
686.362	609.77
686.556	519.48
686.75	483.06
686.944	482.09
687.138	497.01
687.331	417.77
687.525	432.3
687.719	363.13
687.913	429.2
688.107	429.39
688.301	424.35
688.494	493.33
688.688	444.5
688.882	405.17
689.076	393.16
689.269	450.7
689.463	531.3
689.657	439.27
689.85	442.76
690.044	448.77
690.238	483.64
690.431	470.47
690.625	471.63
690.818	500.69
691.012	477.83
691.205	510.96
691.399	482.48
691.593	500.11
691.786	572.57
691.98	578
692.173	612.87
692.366	556.68
692.56	550.68
692.753	591.56
692.947	524.33
693.14	605.9
693.333	612.87
693.527	539.44
693.72	590.4
693.914	573.54
694.107	562.88
694.3	604.54
694.493	589.62
694.687	622.56
694.88	548.35
695.073	652.2
695.266	612.29
695.46	611.71
695.653	674.29
695.846	660.92
696.039	593.3
696.232	623.33
696.425	658.01
696.618	653.36
696.812	687.27
697.005	720.79
697.198	760.51
697.391	705.09
697.584	705.68
697.777	794.8
697.97	774.65
698.163	766.32
698.356	750.82
698.549	835.29
698.742	781.04
698.935	759.54
699.127	758.38
699.32	722.14
699.513	738.81
699.706	803.91
699.899	788.21
700.092	784.53
700.285	819.41
700.477	727.18
700.67	773.68
700.863	801
701.056	881.6
701.248	842.46
701.441	829.09
701.634	845.17
701.826	916.86
702.019	827.93
702.212	906.98
702.404	887.22
702.597	867.07
702.79	874.82
702.982	900.2
703.175	927.52
703.367	953.87
703.56	929.65
703.752	1018.58
703.945	962.78
704.137	978.28
704.33	1009.08
704.522	1001.33
704.715	1000.75
704.907	1045.9
705.1	1046.48
705.292	1066.63
705.484	1027.88
705.677	1057.33
705.869	1057.91
706.061	1099.37
706.254	1119.52
706.446	1089.1
706.638	1077.09
706.831	1147.42
707.023	1084.65
707.215	1197.99
707.407	1164.47
707.599	1171.83
707.792	1229.96
707.984	1208.64
708.176	1208.26
708.368	1183.26
708.56	1243.71
708.752	1186.75
708.944	1229.18
709.136	1288.86
709.329	1209.22
709.521	1331.48
709.713	1299.9
709.905	1310.94
710.097	1345.62
710.289	1248.75
710.481	1311.14
710.672	1316.17
710.864	1325.47
711.056	1370.62
711.248	1356.09
711.44	1352.79
711.632	1358.99
711.824	1395.42
712.016	1414.6
712.207	1406.27
712.399	1419.83
712.591	1497.52
712.783	1442.5
712.975	1423.51
713.166	1441.72
713.358	1457.61
713.55	1494.61
713.741	1513.21
713.933	1501.78
714.125	1465.75
714.316	1480.86
714.508	1550.41
714.7	1535.5
714.891	1522.13
715.083	1555.84
715.274	1531.62
715.466	1535.69
715.657	1575.79
715.849	1467.88
716.04	1541.7
716.232	1500.62
716.423	1552.74
716.615	1462.45
716.806	1437.27
716.998	1418.47
717.189	1379.72
717.381	1290.02
717.572	1275.68
717.763	1307.26
717.955	1335.16
718.146	1302.03
718.337	1244.49
718.528	1223.56
718.72	1193.34
718.911	1226.47
719.102	1206.12
719.293	1257.08
719.485	1221.43
719.676	1210.19
719.867	1220.85
720.058	1181.33
720.249	1188.3
720.44	1211.74
720.632	1261.34
720.823	1311.14
721.014	1378.95
721.205	1378.17
721.396	1447.15
721.587	1518.25
721.778	1504.11
721.969	1522.9
722.16	1580.83
722.351	1557.78
722.542	1667.05
722.733	1712.77
722.924	1648.26
723.115	1669.18
723.305	1638.38
723.496	1673.06
723.687	1577.15
723.878	1581.22
724.069	1584.32
724.26	1651.74
724.45	1548.67
724.641	1551
724.832	1604.86
725.023	1558.55
725.213	1572.69
725.404	1529.68
725.595	1565.53
725.785	1560.29
725.976	1612.8
726.167	1598.27
726.357	1586.26
726.548	1685.46
726.739	1572.11
726.929	1679.26
727.12	1664.92
727.31	1711.42
727.501	1644.57
727.691	1658.14
727.882	1686.62
728.072	1743.19
728.263	1711.61
728.453	1746.29
728.644	1728.27
728.834	1748.42
729.024	1699.99
729.215	1730.02
729.405	1751.52
729.596	1804.61
729.786	1797.25
729.976	1821.66
730.167	1826.5
730.357	1796.67
730.547	1782.91
730.737	1823.4
730.928	1872.62
731.118	1921.25
731.308	1841.03
731.498	1871.07
731.688	1929.58
731.879	1923.76
732.069	1965.42
732.259	1990.41
732.449	2004.17
732.639	2066.94
732.829	2100.85
733.019	2058.03
733.209	2158.59
733.399	2151.61
733.589	2181.64
733.779	2253.72
733.969	2246.16
734.159	2267.67
734.349	2320.17
734.539	2329.86
734.729	2333.54
734.919	2380.43
735.109	2392.44
735.299	2346.33
735.488	2370.55
735.678	2398.64
735.868	2373.26
736.058	2383.72
736.248	2370.93
736.437	2305.25
736.627	2299.25
736.817	2404.45
737.007	2386.24
737.196	2449.01
737.386	2371.71
737.576	2356.01
737.765	2462.96
737.955	2434.09
738.144	2529.61
738.334	2461.41
738.524	2448.82
738.713	2475.75
738.903	2493.58
739.092	2512.37
739.282	2525.54
739.471	2506.36
739.661	2470.13
739.85	2505.2
740.04	2477.88
740.229	2520.7
740.419	2521.67
740.608	2571.66
740.797	2534.26
740.987	2620.09
741.176	2629.2
741.365	2568.56
741.555	2531.36
741.744	2642.76
741.933	2542.4
742.123	2629.97
742.312	2615.25
742.501	2633.85
742.69	2660.59
742.88	2613.31
743.069	2734.21
743.258	2593.94
743.447	2708.83
743.636	2646.25
743.825	2621.06
744.014	2674.73
744.204	2663.1
744.393	2585.99
744.582	2679.77
744.771	2725.68
744.96	2657.87
745.149	2706.31
745.338	2649.54
745.527	2685.97
745.716	2687.71
745.905	2655.55
746.094	2670.08
746.283	2742.93
746.471	2733.82
746.66	2726.46
746.849	2721.42
747.038	2717.16
747.227	2692.36
747.416	2760.17
747.604	2735.95
747.793	2716.38
747.982	2778
748.171	2731.5
748.359	2742.93
748.548	2718.52
748.737	2716.77
748.926	2697.2
749.114	2617.38
749.303	2688.29
749.491	2681.32
749.68	2631.72
749.869	2713.67
750.057	2693.33
750.246	2633.07
750.434	2705.34
750.623	2680.74
750.811	2695.27
751	2704.57
751.188	2658.65
751.377	2658.65
751.565	2645.09
751.754	2634.04
751.942	2645.09
752.131	2710.96
752.319	2635.59
752.507	2604.59
752.696	2699.92
752.884	2729.95
753.072	2676.86
753.261	2682.29
753.449	2694.88
753.637	2626.49
753.825	2722.2
754.014	2665.82
754.202	2685.77
754.39	2724.33
754.578	2721.23
754.766	2680.54
754.955	2647.99
755.143	2744.67
755.331	2650.9
755.519	2657.29
755.707	2657.68
755.895	2661.55
756.083	2614.47
756.271	2580.76
756.459	2577.27
756.647	2647.22
756.835	2583.28
757.023	2577.47
757.211	2579.41
757.399	2565.46
757.587	2574.37
757.775	2527.67
757.963	2578.05
758.151	2562.55
758.339	2495.9
758.526	2558.48
758.714	2550.92
758.902	2440.29
759.09	2408.71
759.278	2231.82
759.465	2095.42
759.653	1793.37
759.841	1662.21
760.028	1370.04
760.216	1185.59
760.404	1135.6
760.591	931.78
760.779	758.96
760.967	690.76
761.154	548.93
761.342	584.39
761.529	634.76
761.717	670.03
761.905	644.26
762.092	688.82
762.28	636.51
762.467	648.33
762.655	615.58
762.842	633.6
763.029	626.05
763.217	649.68
763.404	653.56
763.592	667.31
763.779	627.4
763.966	684.36
764.154	706.84
764.341	759.34
764.528	739.78
764.716	803.32
764.903	807.59
765.09	874.62
765.277	920.74
765.465	1078.64
765.652	1135.6
765.839	1165.05
766.026	1253.4
766.213	1294.86
766.4	1380.11
766.588	1518.83
766.775	1532.98
766.962	1631.59
767.149	1666.47
767.336	1793.76
767.523	1718.39
767.71	1838.9
767.897	1900.52
768.084	1971.81
768.271	2006.11
768.458	2075.27
768.645	2124.68
768.832	2099.88
769.019	2087.29
769.206	2120.42
769.392	2210.32
769.579	2267.08
769.766	2195.4
769.953	2218.26
770.14	2323.08
770.327	2303.32
770.513	2339.74
770.7	2380.43
770.887	2255.07
771.073	2316.49
771.26	2323.85
771.447	2257.59
771.634	2300.6
771.82	2416.08
772.007	2270.18
772.193	2319.2
772.38	2360.86
772.567	2287.04
772.753	2327.53
772.94	2352.91
773.126	2382.75
773.313	2361.44
773.499	2371.13
773.686	2380.81
773.872	2313.2
774.059	2322.11
774.245	2288.78
774.432	2321.72
774.618	2272.12
774.804	2321.14
774.991	2258.56
775.177	2320.75
775.363	2264.18
775.55	2309.71
775.736	2240.93
775.922	2271.93
776.109	2296.92
776.295	2274.64
776.481	2281.81
776.667	2278.32
776.853	2272.12
777.04	2253.52
777.226	2221.17
777.412	2334.12
777.598	2232.79
777.784	2228.14
777.97	2227.56
778.156	2220.59
778.342	2207.8
778.528	2221.94
778.715	2127.01
778.901	2213.61
779.087	2230.08
779.272	2180.67
779.458	2156.46
779.644	2212.64
779.83	2174.67
780.016	2298.67
780.202	2209.93
780.388	2183.97
780.574	2131.46
780.76	2176.6
780.946	2216.32
781.131	2194.43
781.317	2164.79
781.503	2139.79
781.689	2148.12
781.874	2296.34
782.06	2143.67
782.246	2137.66
782.432	2118.29
782.617	2139.21
782.803	2189.2
782.989	2100.66
783.174	2109.18
783.36	2062.1
783.545	2091.55
783.731	2080.51
783.916	2034.2
784.102	2112.28
784.288	2045.24
784.473	2067.33
784.659	2068.69
784.844	2107.63
785.029	2029.16
785.215	2055.13
785.4	2038.46
785.586	2108.21
785.771	1999.71
785.956	2090.39
786.142	2044.86
786.327	1989.44
786.512	1995.45
786.698	1971.04
786.883	1925.51
787.068	1984.99
787.254	1988.09
787.439	1966.58
787.624	1937.33
787.809	1938.68
787.994	1960
788.18	2016.38
788.365	1895.67
788.55	1952.44
788.735	1949.34
788.92	1923.57
789.105	1924.93
789.29	1937.91
789.475	1885.02
789.66	1873.2
789.845	1854.21
790.03	1866.22
790.215	1914.85
790.4	1903.61
790.585	1948.76
790.77	1878.82
790.955	1801.51
791.14	1853.82
791.325	1963.1
791.51	1803.45
791.695	1875.13
791.879	1847.04
792.064	1819.72
792.249	1913.88
792.434	1851.88
792.618	1851.3
792.803	1886.76
792.988	1841.42
793.173	1884.05
793.357	1904
793.542	1804.8
793.727	1896.64
793.911	1926.67
794.096	1862.93
794.281	1884.24
794.465	1942.75
794.65	1858.86
794.834	1861.96
795.019	1889.67
795.203	1893.35
795.388	1924.15
795.572	1924.73
795.757	1879.78
795.941	1887.73
796.126	1904.58
796.31	1823.98
796.494	1912.53
796.679	1873
796.863	1843.36
797.048	1911.56
797.232	1868.74
797.416	1866.03
797.601	1871.07
797.785	1944.3
797.969	1933.06
798.153	1889.47
798.338	1891.8
798.522	1942.36
798.706	1936.16
798.89	1897.42
799.074	2008.82
799.258	1990.61
799.443	1910.98
799.627	1922.99
799.811	1944.11
799.995	1916.6
800.179	1876.3
800.363	1889.86
800.547	1905.36
800.731	1960.96
800.915	1899.55
801.099	1914.08
801.283	1884.82
801.467	1924.54
801.651	1869.13
801.835	1951.47
802.019	1894.51
802.202	1917.56
802.386	1844.33
802.57	1899.16
802.754	1812.17
802.938	1852.08
803.121	1864.09
803.305	1964.84
803.489	1892.57
803.673	1907.88
803.856	1914.27
804.04	1908.65
804.224	1911.75
804.407	1888.7
804.591	1845.68
804.775	1928.8
804.958	1868.93
805.142	1984.21
805.326	1879.59
805.509	1920.28
805.693	1935.97
805.876	1951.08
806.06	1909.81
806.243	1931.71
806.427	1976.08
806.61	1956.51
806.794	1932.1
806.977	1970.85
807.16	1954.76
807.344	1956.12
807.527	1910.59
807.71	1879.4
807.894	1922.6
808.077	1980.34
808.26	1922.02
808.444	1896.06
808.627	1935.78
808.81	1853.82
808.993	1826.7
809.177	1788.53
809.36	1877.46
809.543	1890.44
809.726	1785.82
809.909	1801.7
810.092	1787.95
810.276	1795.31
810.459	1830.77
810.642	1820.3
810.825	1764.7
811.008	1771.09
811.191	1692.04
811.374	1689.91
811.557	1744.35
811.74	1753.27
811.923	1670.34
812.106	1704.25
812.289	1653.1
812.472	1644.38
812.654	1693.79
812.837	1605.05
813.02	1581.41
813.203	1603.89
813.386	1474.46
813.569	1464.58
813.751	1431.84
813.934	1507.98
814.117	1476.6
814.3	1411.11
814.482	1430.68
814.665	1382.82
814.848	1329.93
815.03	1297.77
815.213	1320.24
815.396	1328.77
815.578	1318.3
815.761	1278.01
815.943	1313.85
816.126	1248.75
816.309	1258.05
816.491	1162.53
816.674	1131.14
816.856	1190.04
817.039	1168.54
817.221	1234.61
817.403	1192.37
817.586	1203.8
817.768	1215.62
817.951	1148.78
818.133	1148.97
818.315	1158.85
818.498	1230.54
818.68	1285.37
818.862	1206.9
819.045	1245.46
819.227	1223.56
819.409	1214.84
819.591	1218.72
819.774	1194.31
819.956	1181.33
820.138	1244.87
820.32	1218.52
820.502	1248.75
820.684	1359.57
820.866	1311.52
821.048	1420.8
821.231	1368.29
821.413	1373.72
821.595	1329.54
821.777	1397.74
821.959	1353.76
822.141	1409.95
822.323	1293.31
822.505	1259.79
822.686	1196.24
822.868	1159.82
823.05	1075.93
823.232	1029.43
823.414	1014.7
823.596	1073.8
823.778	1059.26
823.96	1076.31
824.141	1075.54
824.323	1087.55
824.505	1143.93
824.687	1210.97
824.868	1218.72
825.05	1325.67
825.232	1332.84
825.413	1385.92
825.595	1348.72
825.777	1256.31
825.958	1311.52
826.14	1283.62
826.321	1346.79
826.503	1311.14
826.685	1314.62
826.866	1370.42
827.048	1327.8
827.229	1307.26
827.411	1275.49
827.592	1220.07
827.773	1238.48
827.955	1237.32
828.136	1227.44
828.318	1172.22
828.499	1212.71
828.68	1155.75
828.862	1220.07
829.043	1189.66
829.224	1189.08
829.406	1135.99
829.587	1183.26
829.768	1146.45
829.949	1211.74
830.131	1199.73
830.312	1247.2
830.493	1209.03
830.674	1197.79
830.855	1172.61
831.036	1170.67
831.218	1238.87
831.399	1235.38
831.58	1176.87
831.761	1176.29
831.942	1222.79
832.123	1180.74
832.304	1131.14
832.485	1155.75
832.666	1215.23
832.847	1216.97
833.028	1189.46
833.209	1172.22
833.389	1184.23
833.57	1109.25
833.751	1147.03
833.932	1230.15
834.113	1173.96
834.294	1145.87
834.475	1215.62
834.655	1230.34
834.836	1231.7
835.017	1205.54
835.198	1147.81
835.378	1183.07
835.559	1269.48
835.74	1223.95
835.92	1189.08
836.101	1188.88
836.281	1219.3
836.462	1202.06
836.643	1262.12
836.823	1253.4
837.004	1260.96
837.184	1296.22
837.365	1249.14
837.545	1270.64
837.726	1234.61
837.906	1308.42
838.087	1255.53
838.267	1222.59
838.448	1227.82
838.628	1240.61
838.808	1231.31
838.989	1288.08
839.169	1177.64
839.349	1262.7
839.53	1271.42
839.71	1267.74
839.89	1196.83
840.07	1276.46
840.251	1221.04
840.431	1275.87
840.611	1261.34
840.791	1210.19
840.971	1246.23
841.151	1234.22
841.332	1199.73
841.512	1267.16
841.692	1216.78
841.872	1223.76
842.052	1209.03
842.232	1228.41
842.412	1144.32
842.592	1218.14
842.772	1242.16
842.952	1223.95
843.132	1189.46
843.312	1192.76
843.492	1179.19
843.672	1224.34
843.851	1166.79
844.031	1171.44
844.211	1203.8
844.391	1175.71
844.571	1195.47
844.751	1190.82
844.93	1219.69
845.11	1171.83
845.29	1165.24
845.47	1200.51
845.649	1188.49
845.829	1212.13
846.009	1191.59
846.188	1171.83
846.368	1181.91
846.547	1178.61
846.727	1215.81
846.907	1142.96
847.086	1156.33
847.266	1242.55
847.445	1220.85
847.625	1156.33
847.804	1114.09
847.984	1180.74
848.163	1137.73
848.343	1157.49
848.522	1181.13
848.701	1169.31
848.881	1127.85
849.06	1177.26
849.239	1167.18
849.419	1139.09
849.598	1089.3
849.777	1138.12
849.957	1098.21
850.136	1068.76
850.315	1102.08
850.494	1042.6
850.674	1058.49
850.853	1103.05
851.032	1074.76
851.211	1124.17
851.39	1078.45
851.569	1059.46
851.748	1045.31
851.927	1141.41
852.107	1119.13
852.286	1026.52
852.465	1035.05
852.644	1082.9
852.823	1087.94
853.002	1064.11
853.181	1090.26
853.359	1093.56
853.538	1009.86
853.717	1090.07
853.896	969.37
854.075	971.88
854.254	933.52
854.433	895.74
854.611	971.3
854.79	871.33
854.969	918.41
855.148	961.62
855.327	935.65
855.505	967.43
855.684	936.04
855.863	1019.74
856.041	935.85
856.22	995.72
856.399	960.07
856.577	1077.09
856.756	1043.38
856.934	1120.68
857.113	1126.49
857.291	1026.33
857.47	983.9
857.648	1049.58
857.827	1023.23
858.005	1080.77
858.184	996.3
858.362	1080.38
858.541	1010.83
858.719	1050.74
858.898	1030.59
859.076	1044.73
859.254	1049.77
859.433	991.07
859.611	993.2
859.789	971.11
859.967	1057.71
860.146	1098.6
860.324	999.4
860.502	994.94
860.68	973.43
860.859	981.38
861.037	975.18
861.215	1007.92
861.393	974.21
861.571	997.65
861.749	946.31
861.927	995.91
862.105	1007.34
862.283	982.93
862.461	942.24
862.639	892.64
862.817	968.2
862.995	963.94
863.173	960.07
863.351	955.22
863.529	981.57
863.707	1015.67
863.885	987.38
864.063	882.76
864.241	896.71
864.418	1024.58
864.596	931.97
864.774	899.23
864.952	926.16
865.129	981.96
865.307	938.37
865.485	895.55
865.663	976.53
865.84	877.34
866.018	886.64
866.196	790.73
866.373	857.77
866.551	814.56
866.728	774.65
866.906	817.66
867.084	833.55
867.261	850.79
867.439	866.68
867.616	924.8
867.794	844.4
867.971	870.75
868.149	870.75
868.326	920.74
868.503	908.34
868.681	873.27
868.858	864.16
869.035	815.34
869.213	908.72
869.39	870.36
869.567	919.19
869.745	837.23
869.922	859.51
870.099	882.57
870.276	903.88
870.454	904.85
870.631	896.52
870.808	870.94
870.985	919.96
871.162	941.47
871.339	893.8
871.517	838.39
871.694	894.97
871.871	851.95
872.048	858.93
872.225	857.19
872.402	893.61
872.579	824.83
872.756	895.94
872.933	781.24
873.11	820.96
873.287	850.21
873.463	830.84
873.64	825.99
873.817	881.6
873.994	822.12
874.171	812.24
874.348	824.64
874.524	777.75
874.701	822.31
874.878	795.57
875.055	861.45
875.231	788.99
875.408	862.03
875.585	777.36
875.762	822.31
875.938	806.04
876.115	786.47
876.291	786.86
876.468	783.17
876.645	731.64
876.821	795.57
876.998	788.21
877.174	825.41
877.351	783.56
877.527	788.99
877.704	808.75
877.88	816.69
878.057	761.28
878.233	809.91
878.409	763.99
878.586	778.52
878.762	807.59
878.938	809.14
879.115	732.03
879.291	763.61
879.467	694.83
879.644	732.8
879.82	751.59
879.996	756.63
880.172	709.74
880.349	747.91
880.525	778.72
880.701	718.66
880.877	686.3
881.053	766.9
881.229	772.71
881.405	790.15
881.581	715.75
881.757	731.44
881.933	750.43
882.109	752.18
882.285	752.56
882.461	689.98
882.637	739
882.813	689.59
882.989	750.63
883.165	780.66
883.341	746.75
883.517	780.07
883.693	737.06
883.869	743.84
884.044	726.41
884.22	756.63
884.396	801
884.572	780.85
884.747	822.31
884.923	791.51
885.099	787.63
885.275	810.3
885.45	701.41
885.626	727.57
885.801	717.88
885.977	726.6
886.153	676.81
886.328	754.89
886.504	728.15
886.679	740.36
886.855	691.14
887.03	758.18
887.206	770.97
887.381	735.51
887.557	727.96
887.732	757.79
887.908	750.04
888.083	765.54
888.258	718.66
888.434	722.92
888.609	735.32
888.784	784.92
888.96	737.26
889.135	705.68
889.31	705.87
889.485	723.89
889.661	717.88
889.836	761.86
890.011	725.05
890.186	748.11
890.361	714.59
890.537	729.7
890.712	752.37
890.887	727.18
891.062	745.59
891.237	784.14
891.412	703.74
891.587	762.64
891.762	776.01
891.937	799.84
892.112	699.86
892.287	751.79
892.462	688.24
892.637	671.58
892.812	680.88
892.987	688.43
893.161	666.93
893.336	674.87
893.511	656.66
893.686	684.56
893.861	663.83
894.035	681.26
894.21	654.91
894.385	605.7
894.56	655.3
894.734	617.91
894.909	608.8
895.084	623.14
895.258	600.08
895.433	641.35
895.608	596.4
895.782	557.65
895.957	575.87
896.131	583.03
896.306	509.22
896.48	540.6
896.655	532.08
896.829	464.85
897.004	490.23
897.178	478.41
897.353	494.1
897.527	554.36
897.701	513.28
897.876	457.87
898.05	527.23
898.224	524.72
898.399	532.47
898.573	496.62
898.747	397.23
898.921	444.12
899.096	380.18
899.27	396.07
899.444	398.39
899.618	445.47
899.792	430.17
899.967	411.76
900.141	466.98
900.315	394.52
900.489	415.25
900.663	438.89
900.837	429.78
901.011	361
901.185	466.79
901.359	448.57
901.533	432.1
901.707	440.82
901.881	425.52
902.055	396.26
902.229	435.01
902.403	485.97
902.576	412.73
902.75	431.33
902.924	557.85
903.098	462.72
903.272	499.14
903.446	535.76
903.619	502.63
903.793	561.72
903.967	515.61
904.14	568.12
904.314	527.43
904.488	540.41
904.661	579.35
904.835	551.45
905.009	605.31
905.182	607.06
905.356	543.12
905.529	534.02
905.703	514.45
905.876	522.2
906.05	514.25
906.223	493.72
906.397	448.57
906.57	450.9
906.744	395.87
906.917	413.12
907.09	426.68
907.264	425.9
907.437	406.14
907.61	391.22
907.784	411.96
907.957	423.19
908.13	380.76
908.304	437.53
908.477	381.73
908.65	411.96
908.823	344.72
908.996	472.6
909.17	378.82
909.343	368.17
909.516	389.87
909.689	379.41
909.862	369.33
910.035	376.5
910.208	341.82
910.381	343.56
910.554	419.51
910.727	403.24
910.9	382.31
911.073	353.25
911.246	411.96
911.419	421.45
911.592	389.87
911.765	358.87
911.938	361.58
912.11	362.36
912.283	384.44
912.456	392.39
912.629	373.79
912.802	361.39
912.974	335.04
913.147	276.91
913.32	277.69
913.493	283.5
913.665	278.27
913.838	336.97
914.01	333.68
914.183	325.35
914.356	314.69
914.528	361
914.701	377.86
914.873	398.01
915.046	321.48
915.218	262.77
915.391	255.6
915.563	267.42
915.736	351.31
915.908	355.77
916.081	307.33
916.253	290.48
916.425	325.35
916.598	364.49
916.77	296.48
916.942	298.42
917.115	258.89
917.287	341.82
917.459	288.54
917.632	262.38
917.804	221.11
917.976	278.46
918.148	289.7
918.32	289.31
918.493	331.16
918.665	370.88
918.837	332.13
919.009	366.62
919.181	366.04
919.353	343.95
919.525	316.83
919.697	326.51
919.869	322.44
920.041	356.16
920.213	429.97
920.385	377.66
920.557	322.25
920.729	379.99
920.901	353.64
921.073	341.43
921.244	326.9
921.416	353.44
921.588	347.44
921.76	328.26
921.932	368.36
922.103	327.87
922.275	342.59
922.447	359.45
922.619	286.6
922.79	301.71
922.962	303.26
923.134	348.6
923.305	286.99
923.477	314.69
923.648	273.43
923.82	291.25
923.991	260.44
924.163	245.14
924.335	287.38
924.506	259.67
924.677	303.84
924.849	265.29
925.02	274.78
925.192	321.48
925.363	289.7
925.535	285.44
925.706	280.01
925.877	332.71
926.049	278.66
926.22	301.52
926.391	283.11
926.562	302.49
926.734	290.28
926.905	312.76
927.076	222.86
927.247	267.61
927.419	230.22
927.59	229.06
927.761	249.59
927.932	227.51
928.103	236.42
928.274	192.25
928.445	198.64
928.616	209.3
928.787	210.85
928.958	243.98
929.129	213.56
929.3	216.85
929.471	155.05
929.642	123.27
929.813	98.28
929.984	207.94
930.155	132.96
930.326	179.26
930.496	151.17
930.667	76.58
930.838	141.29
931.009	84.33
931.18	117.46
931.35	120.56
931.521	129.67
931.692	61.66
931.863	14.77
932.033	80.65
932.204	66.89
932.374	87.23
932.545	65.92
932.716	92.66
932.886	106.61
933.057	26.59
933.227	35.5
933.398	132.96
933.568	37.64
933.739	-8.67
933.909	14.77
934.08	54.69
934.25	-0.92
934.421	-0.92
934.591	34.15
934.761	17.68
934.932	-11.38
935.102	23.1
935.272	30.27
935.443	9.74
935.613	-3.44
935.783	32.4
935.953	0.24
936.123	132.96
936.294	-2.66
936.464	15.35
936.634	29.5
936.804	-22.62
936.974	-26.49
937.144	26.4
937.314	26.98
937.484	18.26
937.655	3.54
937.825	72.9
937.995	-6.54
938.165	56.82
938.334	18.26
938.504	38.41
938.674	8.96
938.844	17.68
939.014	95.57
939.184	74.64
939.354	106.03
939.524	92.85
939.694	45.19
939.863	62.82
940.033	130.44
940.203	105.45
940.373	75.61
940.542	99.05
940.712	75.22
940.882	115.52
941.051	98.86
941.221	102.15
941.391	98.08
941.56	46.35
941.73	41.9
941.899	156.01
942.069	28.72
942.238	109.71
942.408	37.05
942.577	101.77
942.747	68.05
942.916	16.9
943.086	20.59
943.255	98.08
943.425	50.42
943.594	37.83
943.763	-4.6
943.933	6.44
944.102	-12.35
944.271	21.75
944.441	55.46
944.61	27.95
944.779	46.74
944.948	125.79
945.117	-1.11
945.287	19.23
945.456	-12.16
945.625	7.6
945.794	56.43
945.963	-8.86
946.132	64.37
946.301	30.08
946.47	69.99
946.639	1.21
946.808	21.55
946.977	83.17
947.146	79.29
947.315	8.38
947.484	60.89
947.653	55.27
947.822	27.75
947.991	11.67
948.16	109.13
948.329	89.95
948.498	13.42
948.666	31.24
948.835	54.69
949.004	-4.99
949.173	5.09
949.341	43.64
949.51	57.4
949.679	88.98
949.847	66.89
950.016	119.4
950.185	76.19
950.353	26.01
950.522	24.85
950.69	84.52
950.859	47.9
951.028	92.27
951.196	59.92
951.365	29.11
951.533	31.05
951.701	78.71
951.87	69.02
952.038	-4.02
952.207	48.68
952.375	113.58
952.543	28.72
952.712	10.32
952.88	23.88
953.048	83.55
953.217	60.5
953.385	41.7
953.553	97.31
953.721	4.7
953.89	45.39
954.058	-16.81
954.226	22.52
954.394	66.5
954.562	11.48
954.73	37.25
954.898	39.38
955.067	75.42
955.235	31.82
955.403	57.59
955.571	88.78
955.739	61.47
955.907	26.2
956.075	29.89
956.243	9.15
956.41	36.47
956.578	-5.18
956.746	-4.41
956.914	30.47
957.082	90.72
957.25	57.2
957.418	16.71
957.585	38.6
957.753	105.64
957.921	-4.21
958.089	52.94
958.256	41.51
958.424	56.62
958.592	36.47
958.759	16.32
958.927	74.83
959.095	22.14
959.262	42.09
959.43	45.19
959.597	8.57
959.765	48.1
959.932	12.84
960.1	73.48
960.267	42.87
960.435	52.36
960.602	92.47
960.77	33.57
960.937	20.2
961.104	42.09
961.272	10.32
961.439	38.02
961.606	45.77
961.774	62.05
961.941	31.63
962.108	58.17
962.275	46.35
962.443	85.3
962.61	66.31
962.777	119.78
962.944	48.29
963.111	53.72
963.278	87.23
963.446	56.43
963.613	60.69
963.78	77.35
963.947	57.59
964.114	79.48
964.281	128.31
964.448	73.28
964.615	24.07
964.782	83.75
964.949	78.71
965.116	82.97
965.282	80.07
965.449	73.48
965.616	16.52
965.783	66.31
965.95	85.1
966.117	-0.53
966.283	53.14
966.45	47.13
966.617	51
966.784	117.65
966.95	81.42
967.117	113.97
967.284	32.99
967.45	49.07
967.617	88.01
967.784	79.29
967.95	110.29
968.117	69.6
968.283	116.68
968.45	141.87
968.616	83.36
968.783	118.23
968.949	73.48
969.116	101.77
969.282	59.92
969.449	67.67
969.615	60.11
969.781	34.15
969.948	47.32
970.114	17.1
970.28	131.8
970.447	68.05
970.613	97.89
970.779	45.97
970.945	75.42
971.112	68.83
971.278	74.45
971.444	73.48
971.61	98.08
971.776	46.74
971.942	97.12
972.108	92.85
972.275	76.97
972.441	47.32
972.607	126.95
972.773	47.9
972.939	90.53
973.105	93.82
973.271	19.62
973.437	24.27
973.602	25.82
973.768	71.73
973.934	56.24
974.1	66.89
974.266	-3.63
974.432	69.99
974.598	28.72
974.763	101.57
974.929	48.68
975.095	115.13
975.261	49.84
975.426	59.92
975.592	46.94
975.758	132.77
975.923	13.61
976.089	35.89
976.255	84.91
976.42	79.87
976.586	94.79
976.751	83.17
976.917	177.52
977.082	83.36
977.248	22.72
977.413	-9.45
977.579	47.52
977.744	53.91
977.91	4.89
978.075	52.17
978.24	82.78
978.406	51.78
978.571	34.15
978.736	29.89
978.902	65.73
979.067	47.32
979.232	-3.83
979.397	66.7
979.563	79.29
979.728	2.57
979.893	54.88
980.058	51.59
980.223	96.92
980.388	73.87
980.554	46.16
980.719	23.88
980.884	62.44
981.049	103.32
981.214	45.58
981.379	73.48
981.544	42.67
981.709	34.54
981.874	42.09
982.039	60.5
982.204	70.77
982.368	71.15
982.533	43.06
982.698	76.77
982.863	96.53
983.028	46.74
983.193	78.13
983.357	66.89
983.522	78.9
983.687	35.5
983.852	56.43
984.016	48.1
984.181	74.45
984.346	59.14
984.51	48.29
984.675	44.8
984.839	34.54
985.004	53.33
985.168	77.35
985.333	64.57
985.498	49.65
985.662	113.58
985.827	37.83
985.991	33.76
986.155	41.51
986.32	81.62
986.484	133.93
986.649	52.55
986.813	-1.31
986.977	24.27
987.142	84.91
987.306	30.66
987.47	24.85
987.634	47.13
987.799	34.73
987.963	68.63
988.127	69.99
988.291	132.77
988.455	73.87
988.62	52.75
988.784	78.32
988.948	84.33
989.112	35.5
989.276	69.99
989.44	51.2
989.604	31.82
989.768	29.11
989.932	123.66
990.096	4.12
990.26	-9.45
990.424	-9.25
990.588	56.24
990.752	105.25
990.915	85.1
991.079	56.04
991.243	38.6
991.407	58.75
991.571	40.74
991.734	53.91
991.898	80.65
992.062	149.82
992.226	35.5
992.389	33.18
992.553	-1.11
992.717	50.23
992.88	58.75
993.044	43.64
993.207	51.78
993.371	57.59
993.535	82.58
993.698	30.47
993.862	69.22
994.025	64.37
994.189	64.57
994.352	45
994.515	22.33
994.679	68.05
994.842	30.66
995.006	87.23
995.169	21.55
995.332	14.58
995.496	82
995.659	-16.42
995.822	36.28
995.985	35.5
996.149	113
996.312	35.7
996.475	112.42
996.638	20.78
996.801	89.95
996.964	101.96
997.128	28.14
997.291	45.77
997.454	61.66
997.617	-14.68
997.78	76
997.943	22.72
998.106	88.2
998.269	23.69
998.432	54.3
998.595	46.74
998.758	-6.15
998.92	15.74
999.083	2.57
999.246	45.77
999.409	20.97
999.572	-8.86
999.735	9.74
999.897	46.35
1000.06	9.15
1000.223	-3.83
1000.386	61.27
1000.548	76
1000.711	58.17
1000.874	45.77
1001.036	-8.09
1001.199	75.8
1001.361	20.59
1001.524	54.49
1001.687	61.47
1001.849	29.11
1002.012	32.4
1002.174	57.01
1002.337	67.08
1002.499	32.79
1002.661	113.58
1002.824	-8.09
1002.986	-7.12
1003.149	31.63
1003.311	3.15
1003.473	61.08
1003.636	9.54
1003.798	77.55
1003.96	53.33
1004.123	48.29
1004.285	14
1004.447	33.76
1004.609	44.22
1004.771	75.42
1004.933	-27.85
1005.096	-8.67
1005.258	-13.9
1005.42	-0.34
1005.582	71.73
1005.744	54.88
1005.906	-12.35
1006.068	38.41
1006.23	-17.39
1006.392	-34.05
1006.554	25.62
1006.716	67.28
1006.878	32.99
1007.04	-27.46
1007.202	5.09
1007.363	31.44
1007.525	51.2
1007.687	46.94
1007.849	88.4
1008.011	-16.81
1008.172	-22.62
1008.334	18.45
1008.496	53.91
1008.658	-29.59
1008.819	13.8
1008.981	-16.61
1009.143	21.17
1009.304	26.98
1009.466	28.34
1009.627	91.88
1009.789	131.99
1009.95	49.65
1010.112	15.55
1010.273	46.35
1010.435	1.21
1010.596	15.16
1010.758	1.79
1010.919	4.7
1011.081	-12.74
1011.242	16.71
1011.403	48.87
1011.565	20
1011.726	48.68
1011.887	-13.32
1012.049	-2.47
1012.21	67.86
1012.371	79.48
1012.532	-48.78
1012.693	20.59
1012.855	-25.14
1013.016	14
1013.177	51
1013.338	28.72
1013.499	57.4
1013.66	53.52
1013.821	42.29
1013.982	18.26
1014.143	40.74
1014.304	11.67
1014.465	46.94
1014.626	37.25
1014.787	44.03
1014.948	90.33
1015.109	-35.02
1015.27	56.04
1015.431	-12.55
1015.592	-3.44
1015.752	67.28
1015.913	47.52
1016.074	21.94
1016.235	4.31
1016.395	2.76
1016.556	22.14
1016.717	0.24
1016.877	74.45
1017.038	-0.73
1017.199	11.09
1017.359	35.7
1017.52	18.26
1017.681	-15.45
1017.841	21.75
1018.002	30.27
1018.162	-17
1018.323	65.34
1018.483	18.26
1018.644	28.92
1018.804	-8.48
1018.964	-39.28
1019.125	0.63
1019.285	21.75
1019.446	-23.98
1019.606	-59.43
1019.766	-41.61
1019.926	25.04
1020.087	12.25
1020.247	-16.42
1020.407	26.01
1020.567	64.37
1020.728	4.31
1020.888	-41.03
1021.048	22.91
1021.208	-15.26
1021.368	-3.05
1021.528	55.46
1021.688	55.07
1021.848	45.19
1022.008	31.82
1022.168	19.23
1022.328	17.68
1022.488	37.83
1022.648	7.02
1022.808	36.47
1022.968	31.63
1023.128	-25.91
1023.288	-14.1
1023.448	16.52
1023.608	46.16
1023.767	33.37
1023.927	-12.55
1024.087	4.89
1024.247	-30.37
1024.406	-33.28
1024.566	-19.33
1024.726	2.18
1024.885	26.79
1025.045	23.69
1025.205	8.77
1025.364	-5.57
1025.524	28.34
1025.683	12.64
1025.843	24.46
1026.003	35.89
1026.162	63.4
1026.321	51.39
1026.481	46.16
1026.64	-3.44
1026.8	42.48
1026.959	14.39
1027.119	12.84
1027.278	-0.15
1027.437	-24.75
1027.597	-0.15
1027.756	1.79
1027.915	35.12
1028.074	20.39
1028.234	-34.44
1028.393	24.07
1028.552	3.15
1028.711	-61.18
1028.87	47.9
1029.03	-31.73
1029.189	-17
1029.348	-78.81
1029.507	-16.42
1029.666	-8.48
1029.825	-37.73
1029.984	-7.12
1030.143	3.73
1030.302	0.05
1030.461	-43.35
1030.62	2.76
1030.779	20.59
1030.938	-9.25
1031.097	-33.08
1031.255	20.2
1031.414	53.72
1031.573	44.61
1031.732	-42.77
1031.891	1.79
1032.049	53.33
1032.208	3.15
1032.367	-22.23
1032.525	-3.83
1032.684	12.45
1032.843	5.47
1033.001	-54.78
1033.16	162.41
1033.319	25.24
1033.477	13.61
1033.636	-2.86
1033.794	-30.37
1033.953	27.75
1034.111	2.18
1034.27	-1.5
1034.428	37.25
1034.587	-36.96
1034.745	28.34
1034.903	19.23
1035.062	53.72
1035.22	-50.91
1035.378	46.16
1035.537	-20.3
1035.695	47.52
1035.853	-2.28
1036.011	37.05
1036.17	24.85
1036.328	-45.09
1036.486	5.28
1036.644	-2.28
1036.802	-93.73
1036.96	-16.42
1037.119	4.89
1037.277	-23.78
1037.435	-24.94
1037.593	-15.84
1037.751	23.88
1037.909	31.24
1038.067	31.24
