Data from pine_FLMT105791__161__17-23-15-073.txt Node

Date: Mon Mar 20 17:23:15 GMT 2023
User: antho
Spectrometer: FLMT10579
Trigger mode: 0
Integration Time (sec): 1.000000E-1
Scans to average: 10
Electric dark correction enabled: true
Nonlinearity correction enabled: false
Boxcar width: 0
XAxis mode: Wavelengths
Number of Pixels in Spectrum: 3648
>>>>>Begin Spectral Data<<<<<
345.248	-147.67
345.464	-147.67
345.681	-147.67
345.898	-157.94
346.114	-153.09
346.331	-23.28
346.548	13.14
346.764	8.69
346.981	-8.94
347.197	-1.97
347.414	2.1
347.631	-19.02
347.847	47.24
348.064	-15.92
348.28	45.3
348.497	-38.39
348.713	-8.94
348.93	41.24
349.146	32.32
349.363	8.3
349.579	12.56
349.796	19.92
350.012	2.29
350.229	35.04
350.445	5.97
350.661	-31.23
350.878	18.18
351.094	2.68
351.311	41.62
351.527	38.14
351.743	-18.63
351.96	41.82
352.176	15.08
352.392	29.03
352.609	34.45
352.825	-4.1
353.041	2.29
353.257	15.47
353.474	5.01
353.69	-4.88
353.906	3.26
354.122	-24.64
354.339	79.02
354.555	-2.36
354.771	-7.2
354.987	56.54
355.203	48.02
355.42	-17.66
355.636	-18.83
355.852	-10.3
356.068	6.17
356.284	-37.81
356.5	45.3
356.716	11.79
356.932	5.2
357.148	13.92
357.364	16.63
357.58	66.42
357.796	46.08
358.012	48.79
358.228	27.29
358.444	-58.74
358.66	34.26
358.876	-6.81
359.092	-42.08
359.308	23.02
359.524	6.94
359.74	-3.52
359.956	1.52
360.172	15.47
360.388	47.44
360.604	13.72
360.819	68.36
361.035	46.85
361.251	51.31
361.467	-14.18
361.683	21.67
361.898	-15.53
362.114	45.89
362.33	10.43
362.546	26.32
362.762	-1.97
362.977	22.05
363.193	-26.19
363.409	48.21
363.624	-15.53
363.84	10.82
364.056	5.39
364.271	43.17
364.487	17.6
364.703	-2.94
364.918	-7.39
365.134	-11.85
365.35	5.59
365.565	82.31
365.781	23.41
365.996	55.77
366.212	81.34
366.427	19.34
366.643	-1
366.858	8.11
367.074	-25.61
367.289	52.28
367.505	105.95
367.72	-32.97
367.936	-4.1
368.151	43.95
368.367	44.92
368.582	28.84
368.798	-7.2
369.013	55.96
369.228	-17.28
369.444	5.59
369.659	52.09
369.874	9.27
370.09	57.32
370.305	-35.88
370.52	-0.42
370.736	55.57
370.951	17.6
371.166	57.9
371.381	83.09
371.597	31.35
371.812	-18.24
372.027	-20.76
372.242	-6.43
372.458	83.67
372.673	-9.14
372.888	21.67
373.103	6.94
373.318	77.85
373.533	70.88
373.749	29.22
373.964	-25.99
374.179	67.39
374.394	-2.36
374.609	29.61
374.824	-10.3
375.039	58.48
375.254	5.01
375.469	62.55
375.684	19.34
375.899	35.42
376.114	5.78
376.329	36.59
376.544	56.74
376.759	49.57
376.974	1.32
377.189	42.59
377.404	7.72
377.619	37.36
377.834	-38.01
378.049	-17.28
378.264	-24.83
378.478	22.25
378.693	-31.42
378.908	36.39
379.123	26.12
379.338	44.72
379.553	17.99
379.767	25.15
379.982	33.1
380.197	29.42
380.412	27.87
380.626	4.81
380.841	92
381.056	42.79
381.271	78.24
381.485	3.07
381.7	-28.32
381.915	39.69
382.129	5.78
382.344	44.14
382.559	10.43
382.773	47.82
382.988	-32.78
383.202	16.82
383.417	-9.91
383.632	105.37
383.846	14.69
384.061	27.67
384.275	8.3
384.49	36.2
384.704	51.5
384.919	48.21
385.133	-10.88
385.348	12.37
385.562	-19.99
385.777	52.86
385.991	34.26
386.206	5.2
386.42	38.14
386.634	73.79
386.849	29.03
387.063	24.38
387.277	-7.98
387.492	-2.16
387.706	-7.98
387.92	-21.93
388.135	49.18
388.349	13.72
388.563	9.07
388.778	21.67
388.992	58.29
389.206	44.34
389.42	102.46
389.635	29.03
389.849	49.37
390.063	49.18
390.277	37.55
390.491	61
390.706	59.84
390.92	39.49
391.134	19.34
391.348	30.58
391.562	-12.63
391.776	18.76
391.99	-10.11
392.205	24.19
392.419	-2.16
392.633	40.65
392.847	84.64
393.061	0.74
393.275	98.78
393.489	-7.78
393.703	16.63
393.917	84.44
394.131	16.05
394.345	35.81
394.559	51.5
394.773	12.95
394.986	29.42
395.2	20.5
395.414	50.92
395.628	-1.97
395.842	11.4
396.056	7.91
396.27	-21.54
396.484	10.62
396.697	22.05
396.911	53.05
397.125	66.62
397.339	61.97
397.553	54.6
397.766	114.86
397.98	67.39
398.194	66.81
398.408	9.27
398.621	50.73
398.835	45.11
399.049	33.1
399.262	61.97
399.476	57.7
399.69	71.46
399.903	113.5
400.117	13.14
400.331	42.98
400.544	2.1
400.758	131.72
400.971	62.55
401.185	48.79
401.398	-4.1
401.612	59.45
401.826	31.94
402.039	35.62
402.253	2.68
402.466	30
402.68	25.15
402.893	42.79
403.106	8.69
403.32	11.98
403.533	43.37
403.747	27.29
403.96	33.68
404.174	39.3
404.387	-11.66
404.6	9.27
404.814	76.3
405.027	16.82
405.24	24.57
405.454	27.48
405.667	66.04
405.88	-50.21
406.094	45.5
406.307	76.3
406.52	36.59
406.733	-33.16
406.947	-1.78
407.16	103.04
407.373	49.57
407.586	21.47
407.799	9.66
408.012	42.2
408.226	56.74
408.439	72.82
408.652	-24.06
408.865	43.95
409.078	62.94
409.291	50.34
409.504	3.26
409.717	35.42
409.93	63.71
410.143	29.8
410.357	-7.01
410.57	2.68
410.783	14.11
410.996	23.8
411.209	37.94
411.421	49.18
411.634	10.62
411.847	6.36
412.06	30.39
412.273	11.21
412.486	41.82
412.699	104.98
412.912	13.14
413.125	82.5
413.338	11.59
413.55	50.73
413.763	35.81
413.976	59.64
414.189	20.5
414.402	27.48
414.615	58.67
414.827	-4.49
415.04	53.64
415.253	35.04
415.466	53.25
415.678	98.97
415.891	44.53
416.104	40.85
416.316	34.07
416.529	-6.04
416.742	43.56
416.954	42.4
417.167	5.97
417.38	22.64
417.592	82.12
417.805	-12.04
418.017	-27.54
418.23	37.55
418.442	9.46
418.655	18.57
418.868	57.7
419.08	61.77
419.293	94.32
419.505	40.46
419.718	30
419.93	75.92
420.142	22.83
420.355	69.72
420.567	67.97
420.78	78.63
420.992	26.9
421.205	71.85
421.417	-12.04
421.629	0.55
421.842	8.88
422.054	-31.03
422.266	37.75
422.479	68.36
422.691	33.87
422.903	62.35
423.115	5.97
423.328	18.57
423.54	53.05
423.752	44.53
423.964	10.62
424.177	30.77
424.389	15.08
424.601	131.13
424.813	40.85
425.025	53.25
425.238	49.37
425.45	28.25
425.662	26.9
425.874	337.09
426.086	39.49
426.298	80.18
426.51	62.55
426.722	9.27
426.934	20.5
427.146	64.87
427.358	-26.96
427.57	80.37
427.782	21.28
427.994	14.89
428.206	2.29
428.418	-13.79
428.63	63.32
428.842	83.86
429.054	54.22
429.266	72.04
429.478	1.52
429.69	47.05
429.902	-3.13
430.114	49.76
430.325	86.38
430.537	28.06
430.749	38.72
430.961	36.59
431.173	49.76
431.384	52.67
431.596	-25.22
431.808	9.66
432.02	40.07
432.231	49.37
432.443	48.6
432.655	41.43
432.867	-16.89
433.078	51.31
433.29	112.34
433.502	54.02
433.713	71.07
433.925	69.91
434.136	75.72
434.348	-4.88
434.56	-43.82
434.771	103.62
434.983	0.94
435.194	12.56
435.406	28.45
435.617	81.92
435.829	89.87
436.04	54.22
436.252	46.27
436.463	96.26
436.675	81.15
436.886	30.77
437.098	42.79
437.309	78.44
437.521	46.08
437.732	90.64
437.943	67.78
438.155	46.08
438.366	14.31
438.578	95.49
438.789	55.77
439	77.85
439.211	27.67
439.423	71.65
439.634	74.37
439.845	69.91
440.057	47.24
440.268	66.23
440.479	10.62
440.69	51.7
440.902	32.9
441.113	42.79
441.324	32.32
441.535	72.04
441.746	83.67
441.957	25.54
442.168	36.2
442.38	62.55
442.591	59.06
442.802	22.83
443.013	30.19
443.224	57.9
443.435	4.23
443.646	18.95
443.857	48.79
444.068	20.89
444.279	3.46
444.49	96.07
444.701	21.28
444.912	126.68
445.123	86.77
445.334	59.06
445.545	70.49
445.756	42.2
445.967	8.11
446.178	84.44
446.388	74.56
446.599	70.3
446.81	83.09
447.021	47.82
447.232	97.42
447.443	95.87
447.653	45.89
447.864	85.22
448.075	48.02
448.286	66.62
448.496	69.91
448.707	95.68
448.918	40.65
449.129	127.84
449.339	27.09
449.55	82.5
449.761	37.55
449.971	104.78
450.182	64.68
450.393	89.48
450.603	59.84
450.814	66.23
451.024	83.86
451.235	78.05
451.446	109.82
451.656	114.67
451.867	48.02
452.077	66.62
452.288	130.94
452.498	113.31
452.709	31.16
452.919	75.34
453.13	59.06
453.34	120.48
453.55	21.28
453.761	99.75
453.971	94.13
454.182	115.05
454.392	91.42
454.602	134.23
454.813	66.23
455.023	99.94
455.233	61.58
455.444	66.23
455.654	50.54
455.864	66.23
456.075	43.17
456.285	51.31
456.495	51.7
456.705	92.39
456.916	108.47
457.126	113.31
457.336	62.16
457.546	29.61
457.756	42.59
457.967	95.49
458.177	57.12
458.387	75.53
458.597	47.24
458.807	68.94
459.017	66.42
459.227	45.5
459.437	59.64
459.647	70.49
459.857	92.77
460.068	56.15
460.278	113.7
460.488	87.93
460.698	131.91
460.908	70.1
461.117	25.35
461.327	41.04
461.537	68.36
461.747	70.88
461.957	55.77
462.167	185
462.377	92.39
462.587	87.15
462.797	75.92
463.007	86.38
463.216	112.15
463.426	120.28
463.636	84.25
463.846	29.22
464.056	72.04
464.265	102.85
464.475	59.25
464.685	85.22
464.895	91.22
465.104	71.46
465.314	96.65
465.524	54.41
465.733	50.54
465.943	109.82
466.153	137.72
466.362	103.62
466.572	78.24
466.782	66.23
466.991	79.99
467.201	152.64
467.41	34.26
467.62	121.45
467.829	82.31
468.039	94.32
468.249	81.54
468.458	78.63
468.668	114.47
468.877	118.15
469.086	121.83
469.296	119.7
469.505	58.09
469.715	136.56
469.924	105.17
470.134	153.8
470.343	137.53
470.552	83.28
470.762	92.19
470.971	41.43
471.18	76.5
471.39	75.34
471.599	54.6
471.808	120.09
472.018	52.86
472.227	106.92
472.436	130.36
472.645	65.07
472.855	50.73
473.064	131.91
473.273	56.15
473.482	118.35
473.691	137.72
473.901	147.41
474.11	108.85
474.319	207.66
474.528	91.61
474.737	143.73
474.946	129.58
475.155	119.12
475.364	124.35
475.573	117.77
475.783	100.14
475.992	117.96
476.201	151.09
476.41	68.36
476.619	60.8
476.828	126.29
477.037	100.52
477.245	87.35
477.454	135.98
477.663	77.47
477.872	72.82
478.081	133.85
478.29	84.05
478.499	190.42
478.708	110.98
478.917	138.11
479.125	125.9
479.334	99.55
479.543	79.21
479.752	114.28
479.961	139.85
480.169	138.88
480.378	84.83
480.587	208.63
480.796	127.84
481.004	108.08
481.213	101.69
481.422	123.97
481.63	102.27
481.839	150.12
482.048	185.19
482.256	126.48
482.465	113.7
482.674	160.58
482.882	158.45
483.091	183.06
483.299	140.24
483.508	159.03
483.716	127.26
483.925	116.02
484.134	76.69
484.342	127.45
484.551	151.48
484.759	169.3
484.967	146.83
485.176	126.87
485.384	158.65
485.593	167.37
485.801	148.38
486.01	161.55
486.218	168.92
486.426	131.33
486.635	154.97
486.843	116.02
487.051	170.47
487.26	135.78
487.468	147.41
487.676	160.39
487.885	102.85
488.093	129.97
488.301	137.92
488.509	157.48
488.717	160.58
488.926	107.11
489.134	104.4
489.342	140.24
489.55	103.43
489.758	121.83
489.967	110.6
490.175	266.18
490.383	106.72
490.591	172.98
490.799	88.32
491.007	154.58
491.215	154.58
491.423	129.58
491.631	135.98
491.839	134.62
492.047	187.9
492.255	121.25
492.463	107.3
492.671	161.17
492.879	198.36
493.087	144.5
493.295	160.78
493.503	154.77
493.711	177.44
493.919	180.73
494.127	195.07
494.334	168.14
494.542	125.71
494.75	136.37
494.958	142.57
495.166	180.15
495.374	154.97
495.581	142.76
495.789	152.06
495.997	201.66
496.205	149.93
496.412	190.42
496.62	140.05
496.828	189.45
497.035	150.9
497.243	186.74
497.451	141.79
497.658	152.64
497.866	173.95
498.074	197.78
498.281	156.13
498.489	243.12
498.696	191.78
498.904	170.08
499.112	146.44
499.319	243.9
499.527	169.69
499.734	211.35
499.942	127.84
500.149	116.8
500.357	148.96
500.564	140.82
500.771	184.22
500.979	122.03
501.186	140.63
501.394	197.59
501.601	163.49
501.808	220.26
502.016	195.65
502.223	185.77
502.43	164.65
502.638	176.08
502.845	142.18
503.052	236.15
503.26	154.77
503.467	234.4
503.674	191.97
503.881	200.5
504.089	275.48
504.296	219.87
504.503	166.4
504.71	202.05
504.917	148.38
505.125	194.3
505.332	182.48
505.539	192.75
505.746	230.72
505.953	192.75
506.16	198.75
506.367	220.65
506.574	218.51
506.781	260.95
506.988	174.92
507.195	225.3
507.402	208.25
507.609	225.68
507.816	186.35
508.023	199.91
508.23	180.54
508.437	155.74
508.644	211.15
508.851	268.11
509.058	224.71
509.265	220.65
509.472	224.52
509.679	301.83
509.885	174.53
510.092	186.93
510.299	194.49
510.506	221.42
510.713	195.07
510.92	228.2
511.126	226.46
511.333	237.31
511.54	208.05
511.746	259.01
511.953	245.64
512.16	260.36
512.367	198.95
512.573	181.12
512.78	220.26
512.987	217.74
513.193	246.8
513.4	175.89
513.606	203.01
513.813	224.52
514.02	241.57
514.226	284
514.433	253
514.639	205.34
514.846	235.18
515.052	208.44
515.259	201.46
515.465	192.94
515.672	207.28
515.878	306.48
516.085	227.04
516.291	249.13
516.497	215.22
516.704	212.7
516.91	168.92
517.117	209.41
517.323	156.32
517.529	218.32
517.736	208.25
517.942	229.95
518.148	167.75
518.354	217.93
518.561	261.33
518.767	220.84
518.973	247.77
519.179	240.02
519.386	196.81
519.592	211.54
519.798	190.23
520.004	256.88
520.21	205.34
520.417	268.5
520.623	269.66
520.829	254.94
521.035	264.05
521.241	262.69
521.447	246.8
521.653	355.3
521.859	211.73
522.065	247
522.271	337.86
522.477	258.43
522.683	302.41
522.889	263.08
523.095	270.44
523.301	270.83
523.507	262.69
523.713	256.49
523.919	213.86
524.125	277.61
524.331	265.21
524.537	320.04
524.742	289.81
524.948	300.28
525.154	302.99
525.36	385.91
525.566	286.13
525.772	326.63
525.977	238.66
526.183	294.66
526.389	307.83
526.595	259.01
526.8	300.66
527.006	248.93
527.212	278.96
527.417	236.34
527.623	232.85
527.829	328.37
528.034	294.46
528.24	280.13
528.446	265.01
528.651	318.29
528.857	287.68
529.062	325.85
529.268	264.82
529.473	268.7
529.679	265.79
529.884	346.39
530.09	285.36
530.295	359.56
530.501	316.16
530.706	287.1
530.912	241.57
531.117	286.13
531.323	291.56
531.528	302.99
531.733	331.86
531.939	269.28
532.144	315.19
532.35	270.25
532.555	337.86
532.76	344.45
532.966	367.51
533.171	327.59
533.376	285.36
533.581	285.94
533.787	306.48
533.992	311.13
534.197	377
534.402	298.92
534.607	315
534.813	408.39
535.018	278.58
535.223	300.08
535.428	322.56
535.633	360.92
535.838	313.64
536.043	338.44
536.249	378.94
536.454	330.31
536.659	315.97
536.864	299.89
537.069	301.83
537.274	348.91
537.479	324.3
537.684	339.99
537.889	292.33
538.094	383.01
538.299	318.29
538.504	330.69
538.708	346.78
538.913	374.48
539.118	348.71
539.323	360.73
539.528	299.31
539.733	365.18
539.938	337.28
540.142	381.07
540.347	317.33
540.552	335.54
540.757	346.97
540.962	355.69
541.166	334.76
541.371	283.61
541.576	324.88
541.781	223.94
541.985	332.44
542.19	321.39
542.395	375.84
542.599	389.59
542.804	357.63
543.008	398.7
543.213	308.99
543.418	301.05
543.622	362.47
543.827	295.63
544.031	387.85
544.236	400.83
544.44	344.26
544.645	413.04
544.849	314.81
545.054	363.24
545.258	421.95
545.463	406.45
545.667	337.48
545.872	352.78
546.076	352.01
546.281	351.04
546.485	304.93
546.689	383.59
546.894	428.92
547.098	334.18
547.302	327.59
547.507	346.39
547.711	364.21
547.915	412.26
548.119	305.51
548.324	348.91
548.528	401.8
548.732	355.3
548.936	388.43
549.141	381.65
549.345	332.44
549.549	352.59
549.753	342.51
549.957	410.91
550.161	409.74
550.366	350.46
550.57	318.68
550.774	377
550.978	356.27
551.182	372.54
551.386	335.54
551.59	338.06
551.794	342.32
551.998	366.54
552.202	332.24
552.406	313.26
552.61	372.16
552.814	356.27
553.018	405.67
553.222	344.64
553.426	356.46
553.63	404.51
553.833	358.01
554.037	311.71
554.241	398.31
554.445	339.61
554.649	320.23
554.853	353.56
555.056	383.2
555.26	385.72
555.464	374.29
555.668	362.28
555.871	390.17
556.075	397.54
556.279	330.11
556.483	330.11
556.686	377.77
556.89	345.61
557.094	388.04
557.297	300.66
557.501	419.04
557.704	320.04
557.908	393.47
558.112	351.04
558.315	426.41
558.519	359.37
558.722	351.43
558.926	341.54
559.129	325.08
559.333	284.19
559.536	319.07
559.74	321.59
559.943	347.36
560.147	325.85
560.35	369.06
560.553	325.08
560.757	268.11
560.96	394.05
561.164	291.36
561.367	426.21
561.57	330.69
561.774	354.14
561.977	333.41
562.18	331.86
562.384	429.89
562.587	331.08
562.79	303.18
562.993	355.69
563.197	374.29
563.4	418.85
563.603	409.74
563.806	430.28
564.009	332.83
564.212	353.75
564.416	313.45
564.619	357.82
564.822	338.06
565.025	394.63
565.228	354.14
565.431	358.59
565.634	268.89
565.837	321.59
566.04	313.64
566.243	318.49
566.446	264.43
566.649	365.76
566.852	321.78
567.055	332.44
567.258	351.81
567.461	400.06
567.664	406.64
567.867	289.23
568.07	334.57
568.273	331.86
568.475	388.62
568.678	346.19
568.881	325.66
569.084	355.49
569.287	284.97
569.489	293.88
569.692	339.99
569.895	365.76
570.098	293.88
570.3	311.51
570.503	245.64
570.706	303.38
570.909	267.92
571.111	274.12
571.314	310.16
571.516	307.83
571.719	326.63
571.922	286.71
572.124	289.23
572.327	279.54
572.529	244.48
572.732	228.98
572.935	296.98
573.137	342.51
573.34	304.93
573.542	345.03
573.745	306.09
573.947	313.45
574.15	285.55
574.352	283.81
574.554	346.78
574.757	277.99
574.959	300.66
575.162	270.25
575.364	283.42
575.566	384.56
575.769	263.66
575.971	315.78
576.173	212.9
576.376	300.47
576.578	308.8
576.78	375.26
576.982	230.53
577.185	288.07
577.387	266.18
577.589	235.18
577.791	312.29
577.993	318.49
578.196	251.06
578.398	321.59
578.6	339.22
578.802	255.13
579.004	243.7
579.206	250.48
579.408	286.91
579.61	270.63
579.812	322.75
580.014	274.12
580.216	251.45
580.418	279.93
580.62	237.89
580.822	220.45
581.024	260.75
581.226	310.74
581.428	267.92
581.63	320.23
581.832	227.23
582.034	321.59
582.236	289.23
582.438	311.9
582.64	302.99
582.841	330.5
583.043	351.23
583.245	304.73
583.447	279.74
583.649	265.01
583.85	268.5
584.052	308.61
584.254	255.91
584.456	335.93
584.657	252.81
584.859	276.45
585.061	277.61
585.262	280.13
585.464	263.66
585.666	293.69
585.867	264.82
586.069	325.27
586.27	286.13
586.472	299.69
586.674	263.46
586.875	284.58
587.077	247.96
587.278	282.26
587.48	271.41
587.681	352.39
587.883	261.53
588.084	212.12
588.285	268.31
588.487	274.12
588.688	297.37
588.89	244.48
589.091	264.24
589.292	289.04
589.494	258.62
589.695	260.56
589.896	199.14
590.098	221.42
590.299	262.88
590.5	219.68
590.702	217.55
590.903	244.09
591.104	277.61
591.305	258.04
591.507	298.14
591.708	293.11
591.909	247.96
592.11	333.41
592.311	310.93
592.512	265.79
592.714	222.39
592.915	226.85
593.116	245.25
593.317	230.72
593.518	221.81
593.719	210.57
593.92	238.86
594.121	311.71
594.322	257.26
594.523	253
594.724	221.61
594.925	273.54
595.126	271.21
595.327	286.13
595.528	280.32
595.729	266.37
595.929	244.67
596.13	245.64
596.331	237.5
596.532	259.2
596.733	295.24
596.934	296.4
597.135	290.01
597.335	279.35
597.536	223.16
597.737	288.07
597.938	224.33
598.138	276.83
598.339	253.78
598.54	271.6
598.74	260.56
598.941	267.53
599.142	328.37
599.342	292.91
599.543	228.2
599.744	265.98
599.944	253.2
600.145	226.46
600.345	273.93
600.546	337.28
600.746	287.68
600.947	314.42
601.147	292.14
601.348	277.03
601.548	255.52
601.749	248.35
601.949	225.49
602.15	223.16
602.35	277.03
602.551	333.79
602.751	215.22
602.951	266.18
603.152	176.28
603.352	259.01
603.552	266.76
603.753	259.4
603.953	286.13
604.153	265.01
604.354	250.87
604.554	243.51
604.754	259.4
604.954	211.93
605.155	261.14
605.355	245.83
605.555	261.33
605.755	300.47
605.955	255.71
606.155	304.93
606.356	250.29
606.556	271.41
606.756	286.33
606.956	205.15
607.156	313.26
607.356	242.15
607.556	283.03
607.756	263.08
607.956	291.94
608.156	295.82
608.356	257.26
608.556	291.56
608.756	251.06
608.956	263.08
609.156	264.43
609.356	197.4
609.556	238.86
609.755	273.15
609.955	231.88
610.155	260.17
610.355	252.03
610.555	238.86
610.755	246.22
610.954	201.27
611.154	232.85
611.354	284.58
611.554	212.7
611.753	227.43
611.953	201.08
612.153	260.95
612.352	284.19
612.552	201.46
612.752	170.47
612.951	248.74
613.151	254.75
613.351	220.06
613.55	239.05
613.75	274.12
613.949	250.48
614.149	280.32
614.348	256.88
614.548	231.3
614.747	183.83
614.947	226.26
615.146	189.45
615.346	232.46
615.545	240.02
615.745	250.29
615.944	269.47
616.144	251.45
616.343	284.97
616.542	253.2
616.742	254.36
616.941	247.19
617.14	184.22
617.34	251.65
617.539	218.32
617.738	201.08
617.938	289.43
618.137	251.06
618.336	210.57
618.535	252.81
618.734	222.97
618.934	258.62
619.133	222.78
619.332	269.28
619.531	214.25
619.73	230.33
619.929	267.53
620.128	278.96
620.328	294.27
620.527	247.38
620.726	200.11
620.925	230.14
621.124	212.51
621.323	229.17
621.522	188.29
621.721	181.32
621.92	178.41
622.119	263.66
622.318	203.6
622.517	222.58
622.715	238.08
622.914	157.48
623.113	226.85
623.312	175.5
623.511	259.78
623.71	211.73
623.909	214.83
624.107	278.77
624.306	176.47
624.505	178.99
624.704	191
624.902	193.33
625.101	267.92
625.3	226.46
625.499	227.43
625.697	200.3
625.896	190.23
626.095	243.12
626.293	181.7
626.492	183.06
626.69	231.5
626.889	196.43
627.088	238.66
627.286	191
627.485	220.06
627.683	209.41
627.882	237.5
628.08	158.84
628.279	223.75
628.477	263.85
628.676	201.08
628.874	226.46
629.073	188.48
629.271	162.13
629.469	241.18
629.668	216.38
629.866	219.68
630.065	190.81
630.263	224.13
630.461	184.22
630.66	205.73
630.858	214.06
631.056	249.9
631.254	227.81
631.453	148.18
631.651	241.96
631.849	208.05
632.047	236.15
632.245	218.51
632.444	196.81
632.642	213.86
632.84	218.51
633.038	198.75
633.236	152.64
633.434	175.7
633.632	152.06
633.83	165.04
634.028	215.03
634.227	203.98
634.425	253
634.623	197.59
634.821	213.28
635.019	182.67
635.216	169.69
635.414	202.05
635.612	221.61
635.81	177.44
636.008	250.87
636.206	173.95
636.404	230.53
636.602	157.87
636.8	204.95
636.997	216.38
637.195	220.06
637.393	209.99
637.591	251.06
637.789	211.35
637.986	196.23
638.184	213.86
638.382	254.36
638.58	235.18
638.777	259.59
638.975	213.48
639.173	209.21
639.37	204.37
639.568	222
639.765	233.63
639.963	204.37
640.161	271.6
640.358	224.71
640.556	192.55
640.753	185.58
640.951	182.87
641.148	225.88
641.346	209.41
641.543	215.61
641.741	258.81
641.938	196.62
642.136	202.43
642.333	182.28
642.531	253.39
642.728	271.6
642.925	216.38
643.123	220.84
643.32	221.42
643.517	180.15
643.715	197.78
643.912	185.58
644.109	231.69
644.306	193.71
644.504	178.6
644.701	209.99
644.898	222.97
645.095	184.42
645.293	182.87
645.49	202.63
645.687	226.85
645.884	244.67
646.081	143.73
646.278	197.2
646.475	202.24
646.672	183.06
646.87	229.95
647.067	203.98
647.264	213.48
647.461	200.3
647.658	177.25
647.855	222.97
648.052	197.01
648.249	122.22
648.446	182.48
648.642	149.35
648.839	184.8
649.036	155.74
649.233	139.27
649.43	150.7
649.627	154.58
649.824	208.63
650.021	150.9
650.217	167.56
650.414	141.02
650.611	206.7
650.808	177.63
651.004	181.9
651.201	186.55
651.398	235.37
651.595	179.96
651.791	159.03
651.988	212.7
652.185	172.6
652.381	179.18
652.578	146.44
652.775	189.26
652.971	174.34
653.168	167.17
653.364	184.8
653.561	125.13
653.757	146.05
653.954	171.63
654.15	138.69
654.347	216.77
654.543	166.01
654.74	120.67
654.936	142.57
655.133	166.2
655.329	152.06
655.525	158.84
655.722	223.94
655.918	148.38
656.115	206.11
656.311	151.67
656.507	125.52
656.704	119.32
656.9	128.23
657.096	140.24
657.292	109.82
657.489	218.32
657.685	150.12
657.881	161.55
658.077	161.75
658.273	141.4
658.47	208.83
658.666	133.46
658.862	197.78
659.058	126.48
659.254	197.4
659.45	143.92
659.646	180.54
659.842	127.45
660.038	205.34
660.234	144.7
660.43	161.17
660.626	225.3
660.822	178.99
661.018	211.54
661.214	181.12
661.41	147.6
661.606	226.85
661.802	183.45
661.998	162.52
662.194	145.08
662.39	168.14
662.586	185.38
662.781	171.63
662.977	170.85
663.173	190.81
663.369	157.1
663.564	187.9
663.76	185.19
663.956	147.02
664.152	221.81
664.347	110.21
664.543	179.57
664.739	161.55
664.934	109.82
665.13	101.3
665.326	190.23
665.521	169.69
665.717	142.95
665.912	104.78
666.108	75.53
666.304	119.9
666.499	123.97
666.695	98.97
666.89	146.05
667.086	196.62
667.281	165.04
667.477	220.06
667.672	167.17
667.867	157.29
668.063	142.37
668.258	134.04
668.454	171.43
668.649	214.45
668.844	185.97
669.04	188.1
669.235	143.34
669.43	157.68
669.626	110.02
669.821	166.4
670.016	95.49
670.211	142.76
670.407	113.5
670.602	138.11
670.797	165.62
670.992	186.93
671.187	135.78
671.382	200.5
671.578	143.92
671.773	178.22
671.968	123.58
672.163	172.4
672.358	170.66
672.553	143.15
672.748	137.33
672.943	213.86
673.138	170.85
673.333	163.1
673.528	141.21
673.723	159.62
673.918	154.77
674.113	104.01
674.308	221.42
674.503	197.78
674.698	174.92
674.892	158.07
675.087	184.03
675.282	134.62
675.477	130.55
675.672	170.08
675.867	145.67
676.061	113.7
676.256	105.95
676.451	126.87
676.646	151.28
676.84	134.23
677.035	107.11
677.23	112.92
677.424	164.85
677.619	198.95
677.814	196.62
678.008	193.33
678.203	92.77
678.397	116.22
678.592	151.28
678.787	208.05
678.981	114.28
679.176	171.05
679.37	160.58
679.565	129
679.759	124.35
679.954	170.85
680.148	214.83
680.342	190.03
680.537	184.61
680.731	127.26
680.926	166.98
681.12	166.59
681.314	107.3
681.509	114.28
681.703	128.23
681.897	179.77
682.092	166.98
682.286	92.39
682.48	214.64
682.674	188.87
682.869	139.66
683.063	126.87
683.257	208.83
683.451	132.88
683.645	143.92
683.839	143.73
684.034	127.65
684.228	153.61
684.422	117.57
684.616	119.12
684.81	157.48
685.004	149.15
685.198	145.47
685.392	156.32
685.586	95.87
685.78	149.54
685.974	164.27
686.168	156.13
686.362	217.35
686.556	127.65
686.75	127.45
686.944	163.68
687.138	170.47
687.331	85.41
687.525	134.23
687.719	93.55
687.913	132.1
688.107	126.29
688.301	131.52
688.494	186.74
688.688	109.82
688.882	101.49
689.076	97.62
689.269	110.98
689.463	210.38
689.657	114.67
689.85	79.21
690.044	159.81
690.238	114.08
690.431	128.81
690.625	118.54
690.818	138.88
691.012	134.82
691.205	127.65
691.399	95.1
691.593	101.3
691.786	189.45
691.98	149.35
692.173	179.96
692.366	139.27
692.56	171.63
692.753	204.56
692.947	134.23
693.14	190.81
693.333	179.38
693.527	114.28
693.72	165.82
693.914	142.57
694.107	154.97
694.3	150.51
694.493	130.36
694.687	194.1
694.88	148.57
695.073	211.15
695.266	179.18
695.46	123.38
695.653	197.59
695.846	186.93
696.039	103.23
696.232	142.95
696.425	167.75
696.618	173.76
696.812	160.58
697.005	235.76
697.198	247.19
697.391	188.48
697.584	180.15
697.777	251.65
697.97	213.67
698.163	240.21
698.356	165.43
698.549	267.15
698.742	229.17
698.935	213.09
699.127	228.59
699.32	186.93
699.513	191.97
699.706	208.05
699.899	217.35
700.092	185.58
700.285	213.86
700.477	193.33
700.67	219.87
700.863	225.49
701.056	314.81
701.248	270.25
701.441	262.11
701.634	206.11
701.826	322.17
702.019	194.68
702.212	251.84
702.404	200.69
702.597	217.93
702.79	216.19
702.982	243.12
703.175	276.25
703.367	271.41
703.56	249.13
703.752	320.62
703.945	253.39
704.137	269.47
704.33	268.7
704.522	289.43
704.715	294.85
704.907	294.27
705.1	282.45
705.292	308.22
705.484	277.41
705.677	309.77
705.869	296.21
706.061	303.38
706.254	330.5
706.446	298.73
706.638	284.19
706.831	345.61
707.023	279.74
707.215	369.44
707.407	342.71
707.599	333.02
707.792	373.32
707.984	359.37
708.176	383.78
708.368	312.09
708.56	347.94
708.752	325.85
708.944	313.26
709.136	373.9
709.329	334.38
709.521	453.92
709.713	395.02
709.905	397.73
710.097	385.91
710.289	331.28
710.481	351.23
710.672	394.24
710.864	373.71
711.056	425.05
711.248	426.21
711.44	414.2
711.632	393.47
711.824	391.53
712.016	499.45
712.207	429.31
712.399	439.39
712.591	478.91
712.783	439.19
712.975	462.83
713.166	429.7
713.358	440.94
713.55	496.74
713.741	490.92
713.933	470.19
714.125	487.63
714.316	433.38
714.508	502.35
714.7	523.47
714.891	469.03
715.083	566.29
715.274	473.68
715.466	486.85
715.657	514.37
715.849	454.69
716.04	521.34
716.232	428.54
716.423	538
716.615	466.7
716.806	483.95
716.998	467.87
717.189	474.45
717.381	408.39
717.572	412.07
717.763	458.57
717.955	457.21
718.146	448.49
718.337	413.62
718.528	400.06
718.72	368.47
718.911	436.87
719.102	408.77
719.293	486.66
719.485	418.66
719.676	423.5
719.867	379.71
720.058	382.81
720.249	409.55
720.44	432.99
720.632	433.96
720.823	454.5
721.014	501
721.205	468.45
721.396	490.15
721.587	569.58
721.778	523.86
721.969	543.62
722.16	532.39
722.351	528.12
722.542	626.93
722.733	652.31
722.924	549.63
723.115	560.28
723.305	591.09
723.496	633.91
723.687	558.35
723.878	564.93
724.069	564.55
724.26	591.09
724.45	563.77
724.641	554.67
724.832	576.56
725.023	596.32
725.213	560.48
725.404	533.16
725.595	548.66
725.785	533.55
725.976	581.98
726.167	573.85
726.357	550.98
726.548	664.13
726.739	581.6
726.929	608.92
727.12	600.39
727.31	638.56
727.501	647.47
727.691	653.09
727.882	623.06
728.072	646.11
728.263	667.62
728.453	670.53
728.644	671.11
728.834	656.96
729.024	617.44
729.215	614.92
729.405	674.21
729.596	740.08
729.786	710.63
729.976	693.39
730.167	738.53
730.357	672.27
730.547	685.83
730.737	715.28
730.928	753.26
731.118	794.14
731.308	700.75
731.498	735.43
731.688	775.93
731.879	730.39
732.069	840.06
732.259	764.69
732.449	787.55
732.639	854.59
732.829	847.61
733.019	815.84
733.209	895.08
733.399	858.66
733.589	926.66
733.779	900.31
733.969	840.83
734.159	892.95
734.349	910.19
734.539	981.49
734.729	913.87
734.919	973.35
735.109	959.02
735.299	928.6
735.488	980.91
735.678	960.57
735.868	990.02
736.058	963.86
736.248	947.39
736.437	920.27
736.627	943.32
736.817	1032.45
737.007	1001.64
737.196	1005.52
737.386	967.74
737.576	970.06
737.765	1007.45
737.955	975.49
738.144	1021.4
738.334	1005.13
738.524	980.13
738.713	1017.53
738.903	1035.74
739.092	1045.82
739.282	1028.77
739.471	1058.99
739.661	1066.93
739.85	1084.56
740.04	1070.81
740.229	1067.51
740.419	1089.6
740.608	1117.89
740.797	1093.09
740.987	1159.93
741.176	1140.75
741.365	1097.55
741.555	1077.2
741.744	1113.43
741.933	1115.95
742.123	1121.38
742.312	1157.22
742.501	1162.45
742.69	1162.06
742.88	1089.99
743.069	1166.71
743.258	1079.33
743.447	1215.15
743.636	1169.04
743.825	1174.66
744.014	1169.43
744.204	1154.51
744.393	1161.48
744.582	1184.93
744.771	1177.76
744.96	1147.34
745.149	1192.09
745.338	1157.41
745.527	1195.58
745.716	1169.62
745.905	1157.99
746.094	1212.24
746.283	1232.98
746.471	1205.85
746.66	1293.04
746.849	1214.76
747.038	1271.92
747.227	1217.09
747.416	1241.69
747.604	1180.66
747.793	1200.04
747.982	1224.06
748.171	1217.09
748.359	1278.51
748.548	1232.2
748.737	1225.23
748.926	1212.44
749.114	1145.21
749.303	1219.22
749.491	1200.23
749.68	1187.06
749.869	1250.41
750.057	1202.56
750.246	1191.13
750.434	1215.34
750.623	1206.04
750.811	1215.73
751	1231.04
751.188	1222.71
751.377	1255.84
751.565	1181.63
751.754	1151.41
751.942	1172.53
752.131	1238.98
752.319	1148.11
752.507	1159.16
752.696	1229.49
752.884	1277.15
753.072	1188.61
753.261	1216.51
753.449	1209.53
753.637	1187.06
753.825	1306.6
754.014	1209.14
754.202	1255.84
754.39	1257.19
754.578	1250.61
754.766	1201.2
754.955	1162.64
755.143	1276.18
755.331	1161.29
755.519	1218.06
755.707	1221.16
755.895	1195.78
756.083	1241.11
756.271	1178.34
756.459	1173.11
756.647	1244.02
756.835	1220.38
757.023	1148.11
757.211	1182.21
757.399	1162.26
757.587	1177.76
757.775	1156.64
757.963	1159.93
758.151	1165.94
758.339	1149.08
758.526	1156.06
758.714	1180.66
758.902	1169.43
759.09	1122.54
759.278	1031.48
759.465	992.34
759.653	827.66
759.841	789.68
760.028	645.92
760.216	539.55
760.404	575.59
760.591	483.37
760.779	378.74
760.967	343.09
761.154	246.61
761.342	315.97
761.529	303.38
761.717	320.23
761.905	259.98
762.092	330.11
762.28	296.98
762.467	320.23
762.655	254.94
762.842	290.59
763.029	288.46
763.217	291.94
763.404	315.78
763.592	339.03
763.779	239.83
763.966	311.51
764.154	311.9
764.341	371.38
764.528	331.47
764.716	395.41
764.903	390.95
765.09	412.65
765.277	434.74
765.465	546.72
765.652	508.17
765.839	567.26
766.026	603.1
766.213	583.53
766.4	619.57
766.588	774.76
766.775	697.07
766.962	758.88
767.149	762.94
767.336	864.27
767.523	775.73
767.71	848.39
767.897	906.9
768.084	960.57
768.271	952.82
768.458	953.79
768.645	1009.58
768.832	949.91
769.019	956.11
769.206	992.53
769.392	1030.9
769.579	1133.78
769.766	1025.86
769.953	1041.17
770.14	1089.8
770.327	1050.66
770.513	1097.35
770.7	1165.16
770.887	1063.25
771.073	1147.15
771.26	1067.32
771.447	1039.42
771.634	1054.53
771.82	1174.66
772.007	1085.73
772.193	1062.87
772.38	1131.65
772.567	1094.64
772.753	1113.43
772.94	1147.53
773.126	1137.65
773.313	1150.05
773.499	1119.05
773.686	1125.83
773.872	1068.68
774.059	1114.98
774.245	1039.03
774.432	1084.95
774.618	1044.27
774.804	1095.61
774.991	1061.12
775.177	1118.47
775.363	1088.63
775.55	1115.76
775.736	1045.82
775.922	1045.82
776.109	1080.88
776.295	1097.55
776.481	1069.06
776.667	1140.36
776.853	1059.18
777.04	1056.67
777.226	1045.04
777.412	1152.96
777.598	1047.17
777.784	1070.42
777.97	1043.49
778.156	1090.96
778.342	1067.9
778.528	1055.5
778.715	1028.96
778.901	1030.32
779.087	1059.18
779.272	1032.06
779.458	1003.19
779.644	1051.63
779.83	1023.92
780.016	1135.13
780.202	1059.77
780.388	987.5
780.574	959.02
780.76	1007.65
780.946	1071
781.131	1029.54
781.317	1025.28
781.503	1003.97
781.689	1023.92
781.874	1121.18
782.06	1017.72
782.246	994.67
782.432	1016.95
782.617	1029.93
782.803	1079.14
782.989	976.07
783.174	1007.26
783.36	998.54
783.545	980.72
783.731	1014.62
783.916	927.63
784.102	1042.91
784.288	987.3
784.473	983.04
784.659	1005.71
784.844	1027.41
785.029	961.54
785.215	976.45
785.4	944.87
785.586	1026.83
785.771	966.96
785.956	995.25
786.142	1005.32
786.327	955.34
786.512	950.49
786.698	953.79
786.883	884.62
787.068	947.97
787.254	954.56
787.439	947.39
787.624	995.83
787.809	935.77
787.994	954.75
788.18	978.58
788.365	890.62
788.55	953.2
788.735	948.94
788.92	931.31
789.105	926.27
789.29	947.59
789.475	898.95
789.66	927.05
789.845	874.35
790.03	903.22
790.215	936.74
790.4	914.07
790.585	1000.67
790.77	909.42
790.955	838.7
791.14	918.14
791.325	958.63
791.51	876.09
791.695	891.79
791.879	891.01
792.064	842.77
792.249	948.75
792.434	875.12
792.618	903.99
792.803	900.31
792.988	907.48
793.173	902.64
793.357	918.14
793.542	866.6
793.727	881.91
793.911	919.49
794.096	850.91
794.281	892.37
794.465	967.35
794.65	875.12
794.834	907.67
795.019	934.8
795.203	931.89
795.388	909.42
795.572	971.61
795.757	907.09
795.941	930.92
796.126	915.62
796.31	864.08
796.494	913.29
796.679	900.12
796.863	882.29
797.048	944.49
797.232	934.8
797.416	909.42
797.601	907.29
797.785	955.34
797.969	945.65
798.153	834.44
798.338	885.39
798.522	925.5
798.706	899.54
798.89	949.52
799.074	1007.45
799.258	943.71
799.443	955.72
799.627	910.97
799.811	949.72
799.995	940.22
800.179	895.66
800.363	912.13
800.547	942.16
800.731	928.02
800.915	890.04
801.099	902.25
801.283	919.3
801.467	937.32
801.651	930.34
801.835	978.78
802.019	904.57
802.202	941.97
802.386	889.85
802.57	926.08
802.754	912.52
802.938	893.72
803.121	903.41
803.305	947
803.489	940.8
803.673	925.3
803.856	942.55
804.04	885.78
804.224	916.59
804.407	907.09
804.591	880.74
804.775	925.5
804.958	931.89
805.142	1026.05
805.326	932.47
805.509	907.87
805.693	947.2
805.876	975.1
806.06	928.6
806.243	919.49
806.427	963.47
806.61	963.86
806.794	893.14
806.977	937.7
807.16	910
807.344	944.68
807.527	935.19
807.71	928.6
807.894	918.14
808.077	984.98
808.26	914.65
808.444	873.57
808.627	957.47
808.81	890.82
808.993	886.94
809.177	894.69
809.36	921.04
809.543	935.38
809.726	858.85
809.909	865.63
810.092	865.82
810.276	854.2
810.459	912.9
810.642	859.82
810.825	856.33
811.008	844.12
811.191	802.47
811.374	811.38
811.557	839.47
811.74	885.39
811.923	774.38
812.106	791.81
812.289	752.48
812.472	778.06
812.654	834.63
812.837	756.55
813.02	756.94
813.203	816.81
813.386	697.07
813.569	685.45
813.751	668.2
813.934	758.68
814.117	710.44
814.3	685.45
814.482	683.12
814.665	687.58
814.848	674.4
815.03	617.83
815.213	642.05
815.396	626.93
815.578	660.26
815.761	607.56
815.943	674.01
816.126	592.83
816.309	577.33
816.491	564.35
816.674	519.4
816.856	599.62
817.039	552.34
817.221	619.18
817.403	567.84
817.586	589.15
817.768	598.84
817.951	537.42
818.133	520.95
818.315	552.34
818.498	585.47
818.68	635.85
818.862	606.98
819.045	619.77
819.227	594.58
819.409	569
819.591	620.15
819.774	607.56
819.956	534.13
820.138	626.16
820.32	570.36
820.502	615.7
820.684	675.95
820.866	624.42
821.048	670.33
821.231	661.23
821.413	669.17
821.595	630.03
821.777	634.88
821.959	618.99
822.141	688.16
822.323	606.01
822.505	600.97
822.686	613.18
822.868	585.47
823.05	530.64
823.232	555.44
823.414	475.81
823.596	547.5
823.778	492.67
823.96	548.66
824.141	507.78
824.323	511.07
824.505	572.49
824.687	586.83
824.868	555.44
825.05	646.7
825.232	635.46
825.413	706.18
825.595	640.5
825.777	570.75
825.958	625.58
826.14	619.57
826.321	665.49
826.503	615.89
826.685	649.21
826.866	656.38
827.048	659.29
827.229	626.16
827.411	601.36
827.592	602.72
827.773	598.65
827.955	566.1
828.136	597.29
828.318	545.75
828.499	572.49
828.68	538.2
828.862	612.4
829.043	620.54
829.224	591.87
829.406	584.31
829.587	591.28
829.768	550.98
829.949	589.35
830.131	568.42
830.312	633.71
830.493	571.91
830.674	600.78
830.855	568.62
831.036	553.7
831.218	615.5
831.399	626.55
831.58	590.51
831.761	611.05
831.942	594.38
832.123	563.38
832.304	546.53
832.485	543.43
832.666	573.65
832.847	588.18
833.028	572.3
833.209	617.05
833.389	555.44
833.57	534.9
833.751	574.04
833.932	617.63
834.113	552.53
834.294	557.38
834.475	579.27
834.655	625.58
834.836	633.13
835.017	580.82
835.198	517.66
835.378	581.02
835.559	583.92
835.74	574.82
835.92	552.53
836.101	556.02
836.281	596.52
836.462	574.04
836.643	615.89
836.823	629.06
837.004	594.58
837.184	674.21
837.365	620.93
837.545	641.85
837.726	627.32
837.906	624.42
838.087	629.45
838.267	587.8
838.448	545.56
838.628	603.49
838.808	606.2
838.989	662.58
839.169	556.22
839.349	608.92
839.53	595.93
839.71	628.29
839.89	590.32
840.07	649.02
840.251	562.61
840.431	612.4
840.611	590.32
840.791	563.77
840.971	593.61
841.151	591.48
841.332	562.22
841.512	625
841.692	564.16
841.872	596.32
842.052	607.95
842.232	617.63
842.412	531.8
842.592	596.71
842.772	599.62
842.952	614.53
843.132	571.91
843.312	549.82
843.492	533.55
843.672	589.35
843.851	511.46
844.031	600.58
844.211	597.68
844.391	581.6
844.571	579.85
844.751	627.71
844.93	620.54
845.11	540.52
845.29	597.48
845.47	601.36
845.649	582.95
845.829	636.23
846.009	538.2
846.188	580.05
846.368	571.72
846.547	585.47
846.727	608.53
846.907	557.38
847.086	600.97
847.266	613.18
847.445	609.88
847.625	595.55
847.804	563.38
847.984	550.98
848.163	529.48
848.343	551.76
848.522	584.5
848.701	574.43
848.881	537.23
849.06	539.17
849.239	579.27
849.419	606.2
849.598	531.03
849.777	554.47
849.957	571.13
850.136	511.27
850.315	485.69
850.494	490.15
850.674	489.57
850.853	529.67
851.032	564.93
851.211	585.08
851.39	534.52
851.569	476.59
851.748	507
851.927	522.7
852.107	528.7
852.286	480.07
852.465	465.15
852.644	564.16
852.823	532.97
853.002	516.11
853.181	514.75
853.359	518.44
853.538	480.85
853.717	530.06
853.896	498.48
854.075	446.75
854.254	464.38
854.433	426.6
854.611	499.06
854.79	446.94
854.969	482.79
855.148	512.04
855.327	440.36
855.505	475.04
855.684	479.49
855.863	469.03
856.041	422.92
856.22	494.6
856.399	450.04
856.577	490.73
856.756	513.98
856.934	582.95
857.113	575.98
857.291	480.27
857.47	470
857.648	538.39
857.827	507.78
858.005	524.25
858.184	482.98
858.362	586.83
858.541	518.05
858.719	505.65
858.898	488.99
859.076	471.74
859.254	567.26
859.433	486.66
859.611	449.85
859.789	438.61
859.967	549.24
860.146	563.77
860.324	475.42
860.502	484.72
860.68	435.9
860.859	470.39
861.037	486.27
861.215	523.09
861.393	461.28
861.571	479.3
861.749	494.41
861.927	511.46
862.105	490.92
862.283	471.16
862.461	474.65
862.639	442.68
862.817	438.42
862.995	457.79
863.173	469.22
863.351	427.76
863.529	489.57
863.707	530.06
863.885	500.03
864.063	399.86
864.241	419.24
864.418	517.08
864.596	456.82
864.774	423.89
864.952	461.47
865.129	497.9
865.307	438.42
865.485	403.74
865.663	479.69
865.84	447.72
866.018	495.19
866.196	373.9
866.373	418.07
866.551	405.48
866.728	352.39
866.906	390.37
867.084	390.37
867.261	421.37
867.439	442.87
867.616	465.74
867.794	410.91
867.971	414.01
868.149	440.94
868.326	468.84
868.503	438.22
868.681	425.82
868.858	440.74
869.035	380.87
869.213	465.93
869.39	413.81
869.567	498.29
869.745	399.09
869.922	417.3
870.099	449.46
870.276	482.2
870.454	435.32
870.631	439.58
870.808	419.43
870.985	468.84
871.162	486.66
871.339	430.67
871.517	401.61
871.694	391.72
871.871	429.12
872.048	426.21
872.225	410.52
872.402	458.95
872.579	376.61
872.756	423.69
872.933	376.61
873.11	395.41
873.287	412.07
873.463	431.64
873.64	402.77
873.817	447.52
873.994	416.14
874.171	387.27
874.348	420.98
874.524	359.37
874.701	423.89
874.878	386.49
875.055	443.84
875.231	408
875.408	410.52
875.585	359.56
875.762	399.86
875.938	397.34
876.115	393.08
876.291	388.24
876.468	395.21
876.645	341.35
876.821	382.62
876.998	387.66
877.174	398.31
877.351	355.69
877.527	371.19
877.704	422.14
877.88	407.22
878.057	371.57
878.233	444.23
878.409	368.67
878.586	414.01
878.762	395.6
878.938	385.52
879.115	303.76
879.291	373.51
879.467	341.54
879.644	370.02
879.82	408
879.996	362.47
880.172	298.34
880.349	364.41
880.525	414.01
880.701	326.04
880.877	343.09
881.053	382.42
881.229	362.47
881.405	415.17
881.581	334.18
881.757	380.87
881.933	359.18
882.109	370.41
882.285	353.17
882.461	321.39
882.637	361.69
882.813	326.43
882.989	361.69
883.165	391.34
883.341	335.73
883.517	386.3
883.693	366.54
883.869	341.35
884.044	328.95
884.22	367.12
884.396	407.22
884.572	393.08
884.747	411.87
884.923	380.29
885.099	386.69
885.275	414.59
885.45	340.38
885.626	339.99
885.801	345.81
885.977	353.17
886.153	310.54
886.328	344.26
886.504	337.67
886.679	384.36
886.855	340.96
887.03	378.36
887.206	416.91
887.381	384.56
887.557	380.1
887.732	373.32
887.908	393.27
888.083	391.92
888.258	356.85
888.434	348.52
888.609	358.21
888.784	387.27
888.96	327.21
889.135	303.76
889.31	321.2
889.485	352.78
889.661	343.48
889.836	375.06
890.011	383.59
890.186	359.95
890.361	308.8
890.537	362.86
890.712	386.88
890.887	348.33
891.062	349.88
891.237	401.22
891.412	338.06
891.587	375.26
891.762	396.96
891.937	421.76
892.112	326.04
892.287	327.98
892.462	328.56
892.637	326.04
892.812	306.86
892.987	294.27
893.161	300.08
893.336	322.36
893.511	334.18
893.686	347.94
893.861	323.72
894.035	315.19
894.21	345.61
894.385	299.31
894.56	326.82
894.734	275.48
894.909	313.64
895.084	294.08
895.258	253.2
895.433	324.11
895.608	292.53
895.782	263.08
895.957	268.89
896.131	281.68
896.306	243.9
896.48	261.91
896.655	250.1
896.829	212.51
897.004	235.95
897.178	242.93
897.353	218.51
897.527	272.96
897.701	262.5
897.876	180.93
898.05	265.01
898.224	229.36
898.399	291.36
898.573	244.09
898.747	176.67
898.921	267.15
899.096	190.03
899.27	185.97
899.444	187.13
899.618	224.91
899.792	218.71
899.967	223.94
900.141	236.92
900.315	170.08
900.489	185.77
900.663	234.79
900.837	218.13
901.011	193.91
901.185	289.62
901.359	235.76
901.533	219.87
901.707	223.94
901.881	207.08
902.055	170.27
902.229	223.16
902.403	253
902.576	228.2
902.75	198.56
902.924	332.63
903.098	230.53
903.272	255.52
903.446	262.3
903.619	247.77
903.793	279.74
903.967	237.89
904.14	282.64
904.314	275.67
904.488	225.68
904.661	312.29
904.835	254.94
905.009	264.43
905.182	305.89
905.356	273.93
905.529	264.43
905.703	235.56
905.876	272.76
906.05	223.55
906.223	224.13
906.397	197.4
906.57	207.86
906.744	186.55
906.917	197.2
907.09	218.13
907.264	213.28
907.437	187.71
907.61	180.35
907.784	194.1
907.957	172.4
908.13	173.76
908.304	252.81
908.477	157.87
908.65	176.86
908.823	149.54
908.996	273.73
909.17	196.04
909.343	199.91
909.516	217.55
909.689	191.78
909.862	156.32
910.035	217.93
910.208	169.88
910.381	157.1
910.554	273.15
910.727	166.4
910.9	178.02
911.073	163.49
911.246	244.67
911.419	235.76
911.592	199.33
911.765	169.88
911.938	160.78
912.11	142.37
912.283	190.81
912.456	210.76
912.629	198.56
912.802	177.83
912.974	153.22
913.147	129.78
913.32	125.13
913.493	144.5
913.665	147.41
913.838	161.94
914.01	167.95
914.183	120.48
914.356	128.03
914.528	185.58
914.701	215.41
914.873	185.19
915.046	187.52
915.218	160.78
915.391	120.67
915.563	124.74
915.736	184.61
915.908	213.09
916.081	169.69
916.253	124.74
916.425	157.29
916.598	170.66
916.77	167.17
916.942	157.87
917.115	111.95
917.287	164.46
917.459	154.77
917.632	151.87
917.804	81.15
917.976	153.61
918.148	149.73
918.32	117.57
918.493	166.2
918.665	174.92
918.837	168.14
919.009	181.32
919.181	207.47
919.353	160.39
919.525	167.56
919.697	144.31
919.869	118.93
920.041	197.01
920.213	228.59
920.385	161.75
920.557	128.81
920.729	175.7
920.901	172.98
921.073	171.24
921.244	156.52
921.416	216.58
921.588	179.77
921.76	157.29
921.932	231.88
922.103	168.14
922.275	145.86
922.447	164.27
922.619	105.17
922.79	143.34
922.962	144.5
923.134	161.17
923.305	137.33
923.477	120.87
923.648	133.65
923.82	151.48
923.991	125.32
924.163	95.87
924.335	124.35
924.506	118.73
924.677	174.73
924.849	110.6
925.02	123
925.192	178.8
925.363	105.37
925.535	135.98
925.706	124.16
925.877	175.12
926.049	101.3
926.22	146.63
926.391	150.12
926.562	163.3
926.734	117.77
926.905	157.87
927.076	86.96
927.247	116.6
927.419	81.73
927.59	96.65
927.761	112.15
927.932	110.98
928.103	110.4
928.274	92.58
928.445	94.32
928.616	113.31
928.787	115.83
928.958	159.42
929.129	119.12
929.3	109.05
929.471	95.68
929.642	53.05
929.813	38.14
929.984	113.12
930.155	32.71
930.326	111.57
930.496	66.42
930.667	-1.58
930.838	63.9
931.009	56.93
931.18	53.64
931.35	72.82
931.521	70.3
931.692	41.24
931.863	-16.89
932.033	57.51
932.204	77.47
932.374	74.56
932.545	14.31
932.716	81.34
932.886	75.53
933.057	-14.56
933.227	-7.2
933.398	95.87
933.568	10.04
933.739	24.38
933.909	5.97
934.08	55.19
934.25	-28.51
934.421	-11.46
934.591	44.92
934.761	14.11
934.932	-68.04
935.102	6.94
935.272	13.72
935.443	27.48
935.613	21.47
935.783	29.03
935.953	-2.55
936.123	158.84
936.294	-39.36
936.464	7.33
936.634	5.59
936.804	-16.11
936.974	-18.44
937.144	41.24
937.314	42.79
937.484	-10.69
937.655	-35.68
937.825	23.8
937.995	-5.65
938.165	30.97
938.334	17.99
938.504	-8.17
938.674	-39.17
938.844	-32.97
939.014	32.52
939.184	17.6
939.354	62.16
939.524	55.19
939.694	-27.74
939.863	9.07
940.033	82.7
940.203	56.35
940.373	42.79
940.542	63.52
940.712	-0.23
940.882	59.64
941.051	67.78
941.221	58.48
941.391	71.07
941.56	24.38
941.73	2.29
941.899	133.65
942.069	-1.58
942.238	57.12
942.408	29.8
942.577	44.34
942.747	26.32
942.916	-20.76
943.086	-9.53
943.255	56.74
943.425	16.63
943.594	-14.37
943.763	-22.51
943.933	-6.23
944.102	-37.62
944.271	16.82
944.441	46.47
944.61	-4.88
944.779	18.18
944.948	93.16
945.117	-12.24
945.287	33.29
945.456	-24.44
945.625	11.01
945.794	48.79
945.963	-21.15
946.132	41.82
946.301	26.51
946.47	31.16
946.639	-48.28
946.808	3.07
946.977	42.01
947.146	77.66
947.315	-7.2
947.484	63.32
947.653	6.17
947.822	1.52
947.991	-10.3
948.16	87.54
948.329	68.36
948.498	6.36
948.666	28.84
948.835	39.88
949.004	3.84
949.173	-6.43
949.341	36.78
949.51	42.98
949.679	72.62
949.847	57.9
950.016	99.36
950.185	31.74
950.353	-15.73
950.522	2.49
950.69	71.65
950.859	1.91
951.028	48.21
951.196	34.84
951.365	-9.53
951.533	23.41
951.701	48.4
951.87	52.28
952.038	-3.33
952.207	23.22
952.375	86.19
952.543	21.09
952.712	32.32
952.88	0.74
953.048	82.89
953.217	29.42
953.385	12.37
953.553	50.54
953.721	-16.89
953.89	33.1
954.058	-13.98
954.226	-16.31
954.394	48.02
954.562	-32
954.73	21.67
954.898	7.33
955.067	43.95
955.235	16.63
955.403	48.02
955.571	102.46
955.739	38.72
955.907	-11.66
956.075	27.29
956.243	3.84
956.41	42.79
956.578	-31.23
956.746	-23.86
956.914	3.26
957.082	32.52
957.25	40.07
957.418	-13.4
957.585	6.36
957.753	66.04
957.921	-25.41
958.089	4.81
958.256	64.49
958.424	26.7
958.592	37.17
958.759	-17.47
958.927	53.05
959.095	13.92
959.262	2.68
959.43	32.9
959.597	-12.82
959.765	12.76
959.932	-45.37
960.1	59.06
960.267	0.36
960.435	31.94
960.602	36.78
960.77	-9.53
960.937	-5.07
961.104	31.74
961.272	-10.69
961.439	-6.23
961.606	38.33
961.774	47.24
961.941	5.01
962.108	39.69
962.275	34.65
962.443	71.46
962.61	44.53
962.777	74.37
962.944	44.53
963.111	28.25
963.278	45.3
963.446	31.35
963.613	5.01
963.78	54.8
963.947	48.02
964.114	33.49
964.281	113.7
964.448	28.06
964.615	33.49
964.782	42.59
964.949	44.92
965.116	23.22
965.282	60.03
965.449	-0.23
965.616	2.29
965.783	19.15
965.95	19.15
966.117	-8.36
966.283	45.89
966.45	38.52
966.617	55.19
966.784	64.68
966.95	70.49
967.117	66.23
967.284	-15.92
967.45	-19.99
967.617	49.57
967.784	52.47
967.95	64.29
968.117	51.7
968.283	48.02
968.45	109.05
968.616	31.16
968.783	45.11
968.949	46.47
969.116	79.99
969.282	17.02
969.449	34.26
969.615	8.88
969.781	-13.4
969.948	4.23
970.114	-13.98
970.28	58.09
970.447	4.04
970.613	78.05
970.779	19.15
970.945	43.75
971.112	37.75
971.278	12.37
971.444	33.1
971.61	50.92
971.776	18.37
971.942	51.31
972.108	31.16
972.275	27.87
972.441	26.51
972.607	105.56
972.773	10.82
972.939	53.25
973.105	28.84
973.271	-14.56
973.437	13.72
973.602	-11.08
973.768	42.98
973.934	37.36
974.1	37.75
974.266	-46.34
974.432	26.12
974.598	14.5
974.763	61.19
974.929	24.57
975.095	79.99
975.261	1.52
975.426	6.36
975.592	5.01
975.758	89.48
975.923	1.32
976.089	-11.66
976.255	60.03
976.42	39.49
976.586	72.43
976.751	56.93
976.917	98.97
977.082	59.25
977.248	-16.31
977.413	-47.11
977.579	37.94
977.744	60.03
977.91	-2.55
978.075	23.22
978.24	54.22
978.406	9.46
978.571	20.5
978.736	1.13
978.902	66.23
979.067	-17.86
979.232	-8.36
979.397	37.17
979.563	64.68
979.728	-6.23
979.893	26.7
980.058	7.14
980.223	36.39
980.388	15.08
980.554	33.87
980.719	-9.72
980.884	24.38
981.049	44.14
981.214	-14.76
981.379	35.23
981.544	11.59
981.709	28.64
981.874	-0.81
982.039	23.99
982.204	62.35
982.368	14.31
982.533	15.27
982.698	32.13
982.863	61
983.028	22.83
983.193	61.97
983.357	34.65
983.522	58.48
983.687	22.64
983.852	6.56
984.016	16.24
984.181	14.31
984.346	27.48
984.51	45.3
984.675	36.97
984.839	26.32
985.004	31.74
985.168	96.07
985.333	39.49
985.498	26.32
985.662	25.15
985.827	56.15
985.991	13.53
986.155	14.89
986.32	50.73
986.484	72.62
986.649	46.27
986.813	-24.06
986.977	34.07
987.142	39.1
987.306	-32.39
987.47	10.62
987.634	30.97
987.799	13.34
987.963	39.49
988.127	56.93
988.291	78.82
988.455	42.98
988.62	24.77
988.784	59.06
988.948	63.13
989.112	-3.13
989.276	49.95
989.44	29.03
989.604	37.94
989.768	17.99
989.932	95.68
990.096	-2.16
990.26	-14.76
990.424	-7.39
990.588	2.49
990.752	112.92
990.915	49.37
991.079	8.69
991.243	17.4
991.407	75.53
991.571	24.19
991.734	51.89
991.898	30.19
992.062	75.92
992.226	8.49
992.389	-3.13
992.553	-37.23
992.717	-6.62
992.88	17.6
993.044	15.85
993.207	32.52
993.371	39.69
993.535	42.2
993.698	45.5
993.862	56.74
994.025	73.59
994.189	13.14
994.352	43.56
994.515	30
994.679	54.22
994.842	8.69
995.006	47.82
995.169	13.53
995.332	17.02
995.496	34.45
995.659	-17.28
995.822	23.6
995.985	24.77
996.149	56.54
996.312	23.6
996.475	88.9
996.638	16.24
996.801	70.49
996.964	81.34
997.128	12.37
997.291	25.35
997.454	36
997.617	-19.41
997.78	54.02
997.943	17.4
998.106	47.82
998.269	7.72
998.432	30.97
998.595	10.82
998.758	-15.14
998.92	-0.23
999.083	-22.31
999.246	35.81
999.409	-25.99
999.572	-28.32
999.735	19.15
999.897	49.95
1000.06	-9.14
1000.223	-28.32
1000.386	54.6
1000.548	44.34
1000.711	32.9
1000.874	40.85
1001.036	-48.08
1001.199	65.45
1001.361	3.84
1001.524	42.98
1001.687	64.1
1001.849	10.24
1002.012	26.7
1002.174	40.85
1002.337	58.48
1002.499	20.31
1002.661	50.92
1002.824	6.36
1002.986	20.31
1003.149	18.76
1003.311	3.84
1003.473	85.99
1003.636	-2.94
1003.798	33.1
1003.96	21.28
1004.123	-2.74
1004.285	-11.27
1004.447	3.65
1004.609	26.12
1004.771	98
1004.933	-33.94
1005.096	4.62
1005.258	-28.51
1005.42	-2.16
1005.582	67
1005.744	23.6
1005.906	-15.34
1006.068	28.45
1006.23	-21.34
1006.392	-27.35
1006.554	-20.57
1006.716	49.57
1006.878	48.21
1007.04	-18.44
1007.202	21.67
1007.363	8.3
1007.525	37.17
1007.687	24.19
1007.849	74.95
1008.011	-54.48
1008.172	-8.75
1008.334	3.07
1008.496	35.62
1008.658	-26.58
1008.819	-21.93
1008.981	-15.14
1009.143	21.67
1009.304	-7.98
1009.466	43.37
1009.627	67.97
1009.789	111.18
1009.95	28.64
1010.112	-19.99
1010.273	51.12
1010.435	-5.46
1010.596	-5.26
1010.758	8.49
1010.919	-19.41
1011.081	-13.79
1011.242	7.52
1011.403	4.23
1011.565	0.16
1011.726	27.48
1011.887	-24.64
1012.049	21.47
1012.21	23.6
1012.371	62.94
1012.532	-38.39
1012.693	24.96
1012.855	-21.73
1013.016	7.72
1013.177	64.1
1013.338	0.55
1013.499	68.55
1013.66	37.17
1013.821	46.47
1013.982	42.98
1014.143	40.65
1014.304	-8.17
1014.465	25.54
1014.626	58.87
1014.787	16.44
1014.948	91.8
1015.109	-51.18
1015.27	57.12
1015.431	-2.94
1015.592	-22.89
1015.752	63.52
1015.913	16.63
1016.074	47.44
1016.235	4.42
1016.395	7.14
1016.556	-1.19
1016.717	-2.36
1016.877	32.71
1017.038	-25.22
1017.199	16.44
1017.359	25.35
1017.52	23.6
1017.681	-6.62
1017.841	24.77
1018.002	22.44
1018.162	22.83
1018.323	61
1018.483	-19.02
1018.644	13.14
1018.804	-48.86
1018.964	-3.71
1019.125	-15.53
1019.285	26.12
1019.446	-4.49
1019.606	-31.61
1019.766	-44.79
1019.926	53.64
1020.087	16.82
1020.247	-45.18
1020.407	30.19
1020.567	36.78
1020.728	-1
1020.888	3.84
1021.048	-0.42
1021.208	-36.26
1021.368	-14.95
1021.528	48.79
1021.688	33.29
1021.848	36.2
1022.008	10.82
1022.168	-16.69
1022.328	34.65
1022.488	24.96
1022.648	3.46
1022.808	8.69
1022.968	23.6
1023.128	4.42
1023.288	11.98
1023.448	24.77
1023.608	30.97
1023.767	22.83
1023.927	-30.45
1024.087	-33.94
1024.247	-68.62
1024.406	-14.37
1024.566	-25.22
1024.726	-3.13
1024.885	38.52
1025.045	12.76
1025.205	-13.79
1025.364	22.05
1025.524	8.11
1025.683	0.36
1025.843	16.24
1026.003	14.89
1026.162	63.13
1026.321	30.97
1026.481	9.85
1026.64	-8.75
1026.8	5.97
1026.959	-13.21
1027.119	-1.78
1027.278	-1.58
1027.437	-25.41
1027.597	16.05
1027.756	21.67
1027.915	22.25
1028.074	33.87
1028.234	2.29
1028.393	6.75
1028.552	-6.23
1028.711	-68.43
1028.87	30.77
1029.03	-14.37
1029.189	13.34
1029.348	-44.21
1029.507	-27.74
1029.666	-17.86
1029.825	-22.89
1029.984	-31.81
1030.143	5.97
1030.302	-35.1
1030.461	-61.84
1030.62	23.6
1030.779	42.79
1030.938	-19.99
1031.097	-18.63
1031.255	29.8
1031.414	55.38
1031.573	44.92
1031.732	-54.67
1031.891	-11.66
1032.049	41.62
1032.208	1.32
1032.367	-3.52
1032.525	-8.56
1032.684	-16.31
1032.843	0.55
1033.001	-56.41
1033.16	141.21
1033.319	49.57
1033.477	33.1
1033.636	11.01
1033.794	-22.31
1033.953	41.24
1034.111	23.41
1034.27	-2.74
1034.428	17.02
1034.587	-22.89
1034.745	47.82
1034.903	9.46
1035.062	22.05
1035.22	-50.41
1035.378	41.04
1035.537	-17.28
1035.695	39.3
1035.853	-8.94
1036.011	38.52
1036.17	23.02
1036.328	-54.09
1036.486	-3.33
1036.644	14.11
1036.802	-59.9
1036.96	-36.07
1037.119	15.47
1037.277	-12.63
1037.435	-49.24
1037.593	-20.18
1037.751	-10.69
1037.909	50.54
1038.067	50.54
