Data from pine_FLMT105791__64__17-21-04-077.txt Node

Date: Mon Mar 20 17:21:04 GMT 2023
User: antho
Spectrometer: FLMT10579
Trigger mode: 0
Integration Time (sec): 1.000000E-1
Scans to average: 10
Electric dark correction enabled: true
Nonlinearity correction enabled: false
Boxcar width: 0
XAxis mode: Wavelengths
Number of Pixels in Spectrum: 3648
>>>>>Begin Spectral Data<<<<<
345.248	-149.46
345.464	-149.46
345.681	-149.46
345.898	-155.08
346.114	-164.38
346.331	-16.36
346.548	43.51
346.764	7.09
346.981	-17.71
347.197	-33.41
347.414	16.78
347.631	-30.69
347.847	56.49
348.064	-4.34
348.28	50.68
348.497	-39.61
348.713	-32.44
348.93	22.39
349.146	6.7
349.363	2.44
349.579	6.12
349.796	3.6
350.012	-44.06
350.229	44.29
350.445	-1.24
350.661	-26.04
350.878	5.54
351.094	18.13
351.311	31.69
351.527	47.97
351.743	-16.74
351.96	37.12
352.176	57.07
352.392	21.23
352.609	31.11
352.825	-29.53
353.041	7.48
353.257	-18.87
353.474	6.12
353.69	14.84
353.906	14.64
354.122	-14.22
354.339	56.3
354.555	-5.7
354.771	-10.35
354.987	51.07
355.203	52.62
355.42	9.22
355.636	-24.3
355.852	-27.79
356.068	7.86
356.284	-39.99
356.5	55.91
356.716	-7.64
356.932	21.23
357.148	34.99
357.364	-2.02
357.58	46.42
357.796	52.62
358.012	43.51
358.228	28.4
358.444	-50.65
358.66	58.43
358.876	0.69
359.092	-36.7
359.308	-5.12
359.524	24.14
359.74	10.38
359.956	-10.93
360.172	25.49
360.388	53.01
360.604	-9.77
360.819	85.94
361.035	10.77
361.251	46.22
361.467	-3.37
361.683	38.47
361.898	8.25
362.114	56.88
362.33	12.51
362.546	59.21
362.762	-3.57
362.977	14.64
363.193	-13.64
363.409	23.94
363.624	-4.34
363.84	-27.79
364.056	-17.71
364.271	27.82
364.487	35.57
364.703	3.21
364.918	-16.74
365.134	9.8
365.35	6.31
365.565	95.82
365.781	16.78
365.996	18.91
366.212	73.16
366.427	8.06
366.643	-29.34
366.858	1.86
367.074	-1.05
367.289	58.04
367.505	98.15
367.72	-34.96
367.936	17.94
368.151	49.71
368.367	9.41
368.582	31.69
368.798	-38.44
369.013	76.84
369.228	43.71
369.444	17.94
369.659	57.07
369.874	45.64
370.09	41.96
370.305	-63.63
370.52	-19.65
370.736	68.89
370.951	14.26
371.166	82.07
371.381	80.91
371.597	44.29
371.812	-38.06
372.027	-18.29
372.242	-2.41
372.458	70.83
372.673	1.08
372.888	17.16
373.103	49.13
373.318	94.86
373.533	23.17
373.749	9.8
373.964	-28.17
374.179	71.99
374.394	-5.7
374.609	63.27
374.824	-16.55
375.039	45.64
375.254	-17.52
375.469	88.66
375.684	19.1
375.899	40.99
376.114	25.69
376.329	8.83
376.544	60.95
376.759	53.2
376.974	-2.02
377.189	0.11
377.404	-16.94
377.619	32.86
377.834	-29.34
378.049	-23.52
378.264	-27.59
378.478	4.18
378.693	-16.74
378.908	10.96
379.123	0.5
379.338	70.25
379.553	27.82
379.767	-2.79
379.982	2.63
380.197	19.68
380.412	31.69
380.626	9.03
380.841	118.88
381.056	23.17
381.271	74.32
381.485	-13.84
381.7	-26.24
381.915	14.06
382.129	-13.45
382.344	18.33
382.559	-12.67
382.773	31.11
382.988	-30.89
383.202	33.63
383.417	-2.41
383.632	111.52
383.846	23.56
384.061	26.66
384.275	6.89
384.49	47.58
384.704	56.49
384.919	11.74
385.133	22.59
385.348	26.27
385.562	-21.2
385.777	38.09
385.991	9.99
386.206	22.39
386.42	-39.99
386.634	53.39
386.849	6.7
387.063	30.34
387.277	-29.34
387.492	14.84
387.706	-25.07
387.92	13.87
388.135	46.42
388.349	20.07
388.563	-10.74
388.778	31.11
388.992	50.49
389.206	55.14
389.42	82.26
389.635	21.23
389.849	29.37
390.063	73.35
390.277	24.91
390.491	88.85
390.706	37.31
390.92	26.27
391.134	28.59
391.348	52.04
391.562	-40.77
391.776	-11.32
391.99	-5.51
392.205	49.32
392.419	-2.99
392.633	16.19
392.847	61.92
393.061	-14.81
393.275	52.23
393.489	-0.08
393.703	48.74
393.917	40.41
394.131	0.5
394.345	47.19
394.559	63.47
394.773	-1.05
394.986	35.96
395.2	25.88
395.414	67.92
395.628	-10.93
395.842	14.64
396.056	-4.92
396.27	-63.05
396.484	35.38
396.697	20.07
396.911	59.59
397.125	37.12
397.339	52.04
397.553	58.82
397.766	66.96
397.98	55.14
398.194	49.32
398.408	5.15
398.621	16.19
398.835	32.08
399.049	26.85
399.262	71.99
399.476	59.79
399.69	35.38
399.903	99.7
400.117	20.65
400.331	61.72
400.544	12.9
400.758	104.74
400.971	48.36
401.185	74.71
401.398	-5.12
401.612	81.29
401.826	48.36
402.039	45.26
402.253	14.06
402.466	62.5
402.68	21.04
402.893	34.02
403.106	37.12
403.32	17.74
403.533	30.14
403.747	37.31
403.96	38.09
404.174	57.66
404.387	-11.51
404.6	28.59
404.814	75.29
405.027	26.08
405.24	34.21
405.454	28.4
405.667	77.03
405.88	-48.52
406.094	42.54
406.307	67.54
406.52	48.55
406.733	-8.8
406.947	-28.37
407.16	73.93
407.373	88.27
407.586	9.61
407.799	-3.18
408.012	77.03
408.226	41.19
408.439	102.99
408.652	-3.18
408.865	61.72
409.078	74.12
409.291	40.22
409.504	-45.03
409.717	40.41
409.93	42.54
410.143	63.66
410.357	-8.22
410.57	-20.62
410.783	42.54
410.996	49.91
411.209	31.31
411.421	84.78
411.634	16.97
411.847	0.69
412.06	26.27
412.273	31.89
412.486	46.22
412.699	130.31
412.912	19.68
413.125	62.5
413.338	19.88
413.55	58.62
413.763	33.24
413.976	46.61
414.189	4.96
414.402	52.42
414.615	102.02
414.827	23.56
415.04	60.37
415.253	58.62
415.466	57.27
415.678	101.25
415.891	42.74
416.104	44.29
416.316	29.18
416.529	16.78
416.742	59.01
416.954	84.78
417.167	44.87
417.38	5.34
417.592	61.53
417.805	-4.54
418.017	-21.2
418.23	56.49
418.442	37.12
418.655	31.5
418.868	63.08
419.08	73.54
419.293	50.1
419.505	62.5
419.718	61.92
419.93	98.15
420.142	14.84
420.355	78.19
420.567	85.36
420.78	27.82
420.992	36.15
421.205	81.1
421.417	0.89
421.629	25.88
421.842	3.41
422.054	-8.61
422.266	55.52
422.479	73.54
422.691	41.77
422.903	83.81
423.115	23.56
423.328	39.25
423.54	56.3
423.752	24.91
423.964	9.41
424.177	64.63
424.389	20.26
424.601	131.09
424.813	45.06
425.025	71.02
425.238	74.12
425.45	46.81
425.662	29.76
425.874	347.7
426.086	42.54
426.298	77.03
426.51	73.93
426.722	42.93
426.934	57.66
427.146	53.2
427.358	3.6
427.57	112.87
427.782	31.11
427.994	54.56
428.206	34.6
428.418	44.48
428.63	74.12
428.842	76.64
429.054	62.89
429.266	107.06
429.478	34.41
429.69	73.74
429.902	2.05
430.114	89.43
430.325	74.32
430.537	41.57
430.749	58.24
430.961	8.64
431.173	54.17
431.384	81.1
431.596	-8.02
431.808	39.44
432.02	58.04
432.231	76.64
432.443	88.85
432.655	56.88
432.867	38.09
433.078	85.17
433.29	137.87
433.502	103.38
433.713	109.19
433.925	53.2
434.136	108.61
434.348	34.21
434.56	-2.21
434.771	173.32
434.983	41.38
435.194	64.44
435.406	49.13
435.617	108.42
435.829	120.82
436.04	112.1
436.252	136.12
436.463	114.81
436.675	123.14
436.886	71.22
437.098	93.31
437.309	138.06
437.521	90.59
437.732	125.08
437.943	82.26
438.155	82.07
438.366	41.96
438.578	165.77
438.789	80.91
439	125.85
439.211	80.32
439.423	121.4
439.634	90.98
439.845	107.45
440.057	116.94
440.268	121.4
440.479	99.51
440.69	109.58
440.902	85.56
441.113	82.46
441.324	113.07
441.535	118.11
441.746	156.85
441.957	56.49
442.168	79.55
442.38	136.9
442.591	130.31
442.802	52.81
443.013	89.43
443.224	147.17
443.435	66.37
443.646	106.48
443.857	100.67
444.068	78.19
444.279	80.32
444.49	160.54
444.701	135.93
444.912	209.17
445.123	137.48
445.334	149.69
445.545	122.37
445.756	113.26
445.967	81.49
446.178	123.72
446.388	177.97
446.599	159.76
446.81	133.99
447.021	117.72
447.232	172.74
447.443	179.14
447.653	106.48
447.864	150.65
448.075	108.22
448.286	139.22
448.496	126.05
448.707	173.52
448.918	136.7
449.129	206.84
449.339	100.47
449.55	166.54
449.761	127.79
449.971	205.68
450.182	149.69
450.393	177.39
450.603	134.96
450.814	198.32
451.024	161.31
451.235	190.37
451.446	204.9
451.656	206.84
451.867	144.84
452.077	192.89
452.288	213.23
452.498	214.78
452.709	148.14
452.919	175.45
453.13	141.74
453.34	189.02
453.55	102.22
453.761	194.83
453.971	182.04
454.182	200.84
454.392	185.72
454.602	238.62
454.813	181.65
455.023	175.65
455.233	154.92
455.444	165.77
455.654	127.4
455.864	153.95
456.075	157.44
456.285	130.5
456.495	189.79
456.705	179.14
456.916	213.43
457.126	235.13
457.336	171.97
457.546	109.58
457.756	175.07
457.967	216.92
458.177	151.62
458.387	196.96
458.597	163.25
458.807	184.37
459.017	170.42
459.227	172.55
459.437	183.2
459.647	196.57
459.857	187.27
460.068	153.17
460.278	211.88
460.488	180.88
460.698	239
460.908	172.16
461.117	146
461.327	141.16
461.537	202.39
461.747	214.4
461.957	201.03
462.167	338.4
462.377	211.68
462.587	221.76
462.797	243.27
463.007	211.1
463.216	234.74
463.426	225.05
463.636	214.2
463.846	177.2
464.056	192.7
464.265	256.05
464.475	193.09
464.685	176.62
464.895	240.17
465.104	218.08
465.314	226.99
465.524	203.74
465.733	186.11
465.943	288.6
466.153	258.96
466.362	242.88
466.572	225.83
466.782	222.53
466.991	222.53
467.201	273.88
467.41	164.6
467.62	233.97
467.829	185.14
468.039	234.55
468.249	215.17
468.458	197.54
468.668	275.04
468.877	244.23
469.086	286.08
469.296	275.82
469.505	206.26
469.715	289.38
469.924	273.3
470.134	243.07
470.343	266.9
470.552	229.9
470.762	210.33
470.971	213.04
471.18	227.96
471.39	234.16
471.599	205.29
471.808	280.66
472.018	229.7
472.227	310.69
472.436	267.87
472.645	237.07
472.855	219.24
473.064	282.98
473.273	261.48
473.482	279.88
473.691	303.33
473.901	300.42
474.11	271.75
474.319	342.46
474.528	273.1
474.737	321.35
474.946	289.18
475.155	277.17
475.364	302.55
475.573	271.75
475.783	284.53
475.992	301.78
476.201	319.41
476.41	279.88
476.619	240.55
476.828	300.81
477.037	275.23
477.245	294.61
477.454	325.61
477.663	278.33
477.872	279.11
478.081	357.19
478.29	272.33
478.499	396.33
478.708	301.2
478.917	369.78
479.125	317.66
479.334	314.37
479.543	299.45
479.752	335.49
479.961	309.91
480.169	348.08
480.378	292.67
480.587	436.82
480.796	336.46
481.004	335.3
481.213	368.23
481.422	331.03
481.63	327.93
481.839	366.49
482.048	424.42
482.256	384.51
482.465	368.62
482.674	364.16
482.882	374.24
483.091	452.51
483.299	354.48
483.508	392.45
483.716	370.56
483.925	383.73
484.134	359.9
484.342	381.41
484.551	433.91
484.759	413.76
484.967	411.44
485.176	445.93
485.384	411.63
485.593	413.96
485.801	376.37
486.01	393.42
486.218	371.72
486.426	301
486.635	350.41
486.843	357.77
487.051	384.31
487.26	352.15
487.468	376.95
487.676	418.41
487.885	365.52
488.093	394.19
488.301	430.81
488.509	424.23
488.717	429.84
488.926	405.04
489.134	372.3
489.342	438.76
489.55	392.45
489.758	412.41
489.967	369.59
490.175	536.6
490.383	420.35
490.591	475.18
490.799	376.76
491.007	469.56
491.215	430.23
491.423	419.77
491.631	437.59
491.839	446.7
492.047	473.82
492.255	408.14
492.463	386.25
492.671	435.08
492.879	500.37
493.087	444.76
493.295	475.18
493.503	455.23
493.711	477.12
493.919	487.58
494.127	495.91
494.334	497.46
494.542	431.2
494.75	456.97
494.958	421.9
495.166	514.9
495.374	473.82
495.581	497.66
495.789	484.48
495.997	537.96
496.205	509.86
496.412	494.75
496.62	497.85
496.828	496.88
497.035	475.96
497.243	534.47
497.451	503.08
497.658	487.19
497.866	495.14
498.074	565.66
498.281	500.56
498.489	576.7
498.696	486.03
498.904	509.09
499.112	518.77
499.319	566.05
499.527	476.73
499.734	541.06
499.942	485.84
500.149	498.24
500.357	511.02
500.564	474.21
500.771	524.2
500.979	486.61
501.186	493.59
501.394	525.36
501.601	519.94
501.808	522.65
502.016	535.24
502.223	530.21
502.43	515.67
502.638	512.96
502.845	491.26
503.052	588.52
503.26	535.44
503.467	634.05
503.674	529.24
503.881	572.25
504.089	635.8
504.296	592.01
504.503	511.99
504.71	568.76
504.917	503.66
505.125	574.77
505.332	556.94
505.539	560.82
505.746	604.6
505.953	584.84
506.16	580.97
506.367	623.2
506.574	639.67
506.781	640.06
506.988	533.69
507.195	611.77
507.402	555.2
507.609	618.94
507.816	591.82
508.023	583.87
508.23	560.82
508.437	544.16
508.644	604.8
508.851	634.05
509.058	640.06
509.265	609.25
509.472	621.27
509.679	689.47
509.885	582.32
510.092	616.81
510.299	637.93
510.506	589.1
510.713	633.28
510.92	626.69
511.126	647.04
511.333	690.05
511.54	643.35
511.746	681.33
511.953	662.34
512.16	686.37
512.367	659.82
512.573	659.24
512.78	653.04
512.987	625.92
513.193	637.15
513.4	578.25
513.606	615.26
513.813	658.66
514.02	673.97
514.226	724.53
514.433	693.15
514.639	613.71
514.846	660.02
515.052	650.52
515.259	648.2
515.465	677.45
515.672	674.16
515.878	738.48
516.085	704.97
516.291	724.15
516.497	660.6
516.704	660.4
516.91	635.41
517.117	617
517.323	598.79
517.529	640.84
517.736	633.28
517.942	618.94
518.148	641.22
518.354	690.82
518.561	671.25
518.767	686.75
518.973	701.87
519.179	710.58
519.386	654.78
519.592	662.73
519.798	642.97
520.004	740.23
520.21	701.48
520.417	762.31
520.623	753.4
520.829	749.53
521.035	763.48
521.241	763.48
521.447	782.08
521.653	865.58
521.859	778.2
522.065	766.19
522.271	865
522.477	817.73
522.683	851.83
522.889	807.46
523.095	811.91
523.301	784.98
523.507	764.06
523.713	818.7
523.919	777.62
524.125	839.04
524.331	800.1
524.537	893.48
524.742	871.98
524.948	851.83
525.154	851.05
525.36	975.05
525.566	880.89
525.772	933.97
525.977	811.14
526.183	871.39
526.389	909.95
526.595	820.44
526.8	846.59
527.006	815.79
527.212	764.64
527.417	788.47
527.623	775.88
527.829	847.37
528.034	858.8
528.24	834.58
528.446	835.16
528.651	910.53
528.857	870.04
529.062	941.34
529.268	860.74
529.473	926.03
529.679	889.22
529.884	980.86
530.09	962.26
530.295	961.1
530.501	966.52
530.706	932.62
530.912	879.34
531.117	920.41
531.323	938.62
531.528	962.65
531.733	961.1
531.939	927
532.144	975.82
532.35	939.98
532.555	983.77
532.76	989.58
532.966	969.43
533.171	990.36
533.376	933.78
533.581	885.54
533.787	927.58
533.992	979.51
534.197	995.01
534.402	981.64
534.607	953.16
534.813	1081.03
535.018	962.26
535.223	946.96
535.428	981.64
535.633	968.07
535.838	1014.38
536.043	1004.5
536.249	1083.55
536.454	990.55
536.659	1033.17
536.864	984.16
537.069	996.94
537.274	1035.3
537.479	1032.4
537.684	999.85
537.889	986.67
538.094	1090.72
538.299	999.85
538.504	1021.55
538.708	1019.03
538.913	1061.27
539.118	1019.22
539.323	1060.69
539.528	1011.09
539.733	1030.85
539.938	1036.08
540.142	1036.66
540.347	1006.82
540.552	964.97
540.757	1002.56
540.962	981.44
541.166	984.74
541.371	982.22
541.576	988.81
541.781	919.06
541.985	1018.64
542.19	1027.17
542.395	1068.63
542.599	1084.52
542.804	1075.8
543.008	1091.68
543.213	1022.71
543.418	982.22
543.622	1075.8
543.827	1003.53
544.031	1105.44
544.236	1068.82
544.44	1060.1
544.645	1178.87
544.849	1052.16
545.054	1082.58
545.258	1149.03
545.463	1111.64
545.667	1039.37
545.872	1088.39
546.076	1080.45
546.281	1059.33
546.485	1049.06
546.689	1099.05
546.894	1116.48
547.098	1117.65
547.302	1028.72
547.507	1101.18
547.711	1088.78
547.915	1145.35
548.119	1060.3
548.324	1081.03
548.528	1125.01
548.732	1091.68
548.936	1131.98
549.141	1122.49
549.345	1056.42
549.549	1121.13
549.753	1050.22
549.957	1171.32
550.161	1129.47
550.366	1112.42
550.57	1095.75
550.774	1131.4
550.978	1095.75
551.182	1126.17
551.386	1069.4
551.59	1093.23
551.794	1089.94
551.998	1101.18
552.202	1088
552.406	1068.44
552.61	1134.12
552.814	1121.52
553.018	1181.78
553.222	1094.01
553.426	1085.68
553.63	1183.71
553.833	1088.58
554.037	1057.2
554.241	1139.15
554.445	1136.83
554.649	1129.08
554.853	1085.68
555.056	1142.45
555.26	1162.21
555.464	1121.52
555.668	1143.42
555.871	1140.9
556.075	1163.18
556.279	1087.23
556.483	1082
556.686	1086.07
556.89	1122.88
557.094	1102.15
557.297	1060.49
557.501	1145.74
557.704	1031.82
557.908	1143.03
558.112	1064.95
558.315	1166.08
558.519	1127.14
558.722	1083.94
558.926	1060.88
559.129	1044.6
559.333	997.14
559.536	1055.84
559.74	1027.94
559.943	1016.7
560.147	1041.12
560.35	1029.69
560.553	1064.37
560.757	987.84
560.96	1113
561.164	1056.42
561.367	1084.32
561.57	1040.15
561.774	1090.91
561.977	1030.46
562.18	1031.43
562.384	1145.93
562.587	1032.59
562.79	1039.95
562.993	1056.04
563.197	1088.97
563.4	1126.75
563.603	1114.93
563.806	1130.82
564.009	1028.52
564.212	1047.9
564.416	1005.47
564.619	1065.34
564.822	1007.02
565.025	1074.25
565.228	1061.65
565.431	1048.29
565.634	1001.98
565.837	1006.82
566.04	994.04
566.243	1005.66
566.446	962.65
566.649	1035.3
566.852	975.05
567.055	1006.24
567.258	1055.65
567.461	1078.9
567.664	1051.19
567.867	980.47
568.07	1045.57
568.273	999.46
568.475	1062.04
568.678	975.05
568.881	1005.08
569.084	1000.62
569.287	919.06
569.489	996.94
569.692	1027.55
569.895	996.17
570.098	922.93
570.3	926.03
570.503	864.23
570.706	938.43
570.909	925.84
571.111	907.04
571.314	900.65
571.516	881.08
571.719	934.56
571.922	905.69
572.124	915.37
572.327	928.16
572.529	819.66
572.732	874.11
572.935	902.78
573.137	976.6
573.34	890.38
573.542	948.51
573.745	930.68
573.947	961.87
574.15	926.81
574.352	887.48
574.554	976.21
574.757	857.25
574.959	865.58
575.162	880.11
575.364	890.38
575.566	964.78
575.769	862.87
575.971	907.04
576.173	808.43
576.376	880.11
576.578	909.76
576.78	925.64
576.982	833.61
577.185	886.51
577.387	836.13
577.589	830.51
577.791	899.88
577.993	894.06
578.196	838.46
578.398	874.88
578.6	925.45
578.802	815.21
579.004	820.05
579.206	839.62
579.408	859.38
579.61	816.95
579.812	884.57
580.014	815.01
580.216	842.72
580.418	829.74
580.62	826.44
580.822	785.76
581.024	818.11
581.226	905.49
581.428	845.24
581.63	935.52
581.832	824.31
582.034	903.75
582.236	849.31
582.438	894.26
582.64	903.94
582.841	927.97
583.043	948.7
583.245	895.61
583.447	896.19
583.649	847.37
583.85	900.65
584.052	921.96
584.254	827.8
584.456	914.79
584.657	831.48
584.859	872.94
585.061	858.22
585.262	842.91
585.464	805.33
585.666	905.69
585.867	852.41
586.069	898.33
586.27	856.28
586.472	854.93
586.674	843.11
586.875	841.94
587.077	860.54
587.278	834.78
587.48	828.77
587.681	939.21
587.883	855.7
588.084	798.93
588.285	839.04
588.487	806.3
588.688	853.18
588.89	787.31
589.091	767.93
589.292	766
589.494	768.9
589.695	743.52
589.896	704.77
590.098	688.88
590.299	766
590.5	675.9
590.702	737.32
590.903	740.03
591.104	805.91
591.305	769.68
591.507	826.06
591.708	790.8
591.909	796.03
592.11	851.44
592.311	810.75
592.512	766.58
592.714	741.58
592.915	727.63
593.116	780.53
593.317	741.2
593.518	762.7
593.719	781.69
593.92	807.07
594.121	833.61
594.322	756.89
594.523	791.18
594.724	739.45
594.925	772.2
595.126	790.21
595.327	817.73
595.528	792.73
595.729	790.02
595.929	768.51
596.13	779.75
596.331	784.01
596.532	804.36
596.733	824.12
596.934	808.04
597.135	811.33
597.335	815.6
597.536	793.31
597.737	808.81
597.938	774.91
598.138	794.09
598.339	765.8
598.54	821.21
598.74	780.53
598.941	783.24
599.142	816.18
599.342	802.03
599.543	771.42
599.744	761.93
599.944	788.66
600.145	778.01
600.345	790.99
600.546	844.27
600.746	852.79
600.947	872.17
601.147	810.95
601.348	854.93
601.548	777.81
601.749	794.86
601.949	738.29
602.15	748.95
602.35	769.68
602.551	806.1
602.751	777.04
602.951	779.17
603.152	712.72
603.352	817.73
603.552	777.43
603.753	815.21
603.953	779.95
604.153	778.98
604.354	781.5
604.554	741.78
604.754	769.68
604.954	771.03
605.155	770.84
605.355	757.47
605.555	818.11
605.755	841.94
605.955	772.2
606.155	799.32
606.356	760.38
606.556	803.97
606.756	789.44
606.956	747.2
607.156	818.7
607.356	733.06
607.556	763.86
607.756	764.25
607.956	834.58
608.156	797.77
608.356	741.2
608.556	809.59
608.756	757.66
608.956	734.61
609.156	763.09
609.356	728.99
609.556	720.08
609.755	768.71
609.955	727.25
610.155	767.55
610.355	728.6
610.555	735.38
610.755	727.25
610.954	660.79
611.154	759.02
611.354	773.16
611.554	725.5
611.753	710.97
611.953	680.17
612.153	757.86
612.352	774.33
612.552	710.58
612.752	663.31
612.951	741.2
613.151	764.45
613.351	707.29
613.55	724.73
613.75	723.95
613.949	716.4
614.149	740.42
614.348	712.13
614.548	678.03
614.747	647.04
614.947	709.23
615.146	637.15
615.346	750.69
615.545	712.33
615.745	709.42
615.944	729.38
616.144	705.35
616.343	720.47
616.542	707.48
616.742	685.78
616.941	678.03
617.14	632.5
617.34	694.31
617.539	678.23
617.738	646.65
617.938	732.67
618.137	685.78
618.336	607.51
618.535	678.42
618.734	671.45
618.934	705.35
619.133	690.63
619.332	713.3
619.531	665.25
619.73	679.58
619.929	739.45
620.128	714.07
620.328	735.58
620.527	660.4
620.726	652.85
620.925	725.7
621.124	660.6
621.323	703.22
621.522	627.27
621.721	649.17
621.92	635.02
622.119	709.81
622.318	663.89
622.517	669.9
622.715	666.22
622.914	583.29
623.113	649.94
623.312	587.75
623.511	700.9
623.71	649.55
623.909	622.62
624.107	704.38
624.306	618.36
624.505	627.85
624.704	640.45
624.902	649.55
625.101	675.52
625.3	662.92
625.499	616.81
625.697	595.69
625.896	599.95
626.095	625.34
626.293	586.39
626.492	605.38
626.69	640.25
626.889	602.67
627.088	674.16
627.286	607.32
627.485	605.57
627.683	614.87
627.882	650.91
628.08	556.56
628.279	608.87
628.477	683.27
628.676	600.15
628.874	660.6
629.073	599.18
629.271	588.52
629.469	642.97
629.668	591.04
629.866	576.51
630.065	590.27
630.263	645.87
630.461	603.44
630.66	601.12
630.858	625.92
631.056	657.11
631.254	639.09
631.453	594.72
631.651	625.53
631.849	619.52
632.047	601.5
632.245	613.32
632.444	610.22
632.642	626.11
632.84	650.91
633.038	595.11
633.236	562.56
633.434	567.79
633.632	545.71
633.83	586.97
634.028	629.02
634.227	595.3
634.425	678.23
634.623	615.65
634.821	606.35
635.019	611.58
635.216	567.21
635.414	626.11
635.612	617.39
635.81	560.62
636.008	680.36
636.206	584.26
636.404	632.31
636.602	578.45
636.8	587.55
636.997	624.56
637.195	616.62
637.393	620.49
637.591	657.3
637.789	624.17
637.986	604.02
638.184	607.32
638.382	675.13
638.58	639.87
638.777	665.25
638.975	583.49
639.173	642
639.37	600.73
639.568	618.17
639.765	629.02
639.963	589.1
640.161	639.87
640.358	618.17
640.556	594.34
640.753	571.67
640.951	569.34
641.148	611.39
641.346	594.92
641.543	588.14
641.741	598.02
641.938	585.04
642.136	594.34
642.333	538.92
642.531	625.92
642.728	650.91
642.925	598.99
643.123	579.22
643.32	609.06
643.517	586.59
643.715	597.05
643.912	579.22
644.109	605.57
644.306	598.02
644.504	554.62
644.701	585.23
644.898	597.05
645.095	560.04
645.293	563.92
645.49	586.78
645.687	570.89
645.884	590.85
646.081	496.3
646.278	562.56
646.475	597.63
646.672	557.52
646.87	601.7
647.067	562.37
647.264	567.4
647.461	521.1
647.658	493.01
647.855	566.63
648.052	542.22
648.249	468.21
648.446	518.19
648.642	534.66
648.839	496.69
649.036	493.97
649.233	479.64
649.43	473.24
649.627	478.28
649.824	501.72
650.021	485.26
650.217	499.4
650.414	483.9
650.611	535.82
650.808	528.07
651.004	549.19
651.201	537.96
651.398	573.99
651.595	524.2
651.791	510.44
651.988	536.02
652.185	468.59
652.381	547.45
652.578	460.07
652.775	540.67
652.971	489.71
653.168	493.97
653.364	536.99
653.561	443.79
653.757	510.64
653.954	515.67
654.15	490.29
654.347	572.83
654.543	500.17
654.74	488.36
654.936	459.49
655.133	478.28
655.329	502.5
655.525	504.44
655.722	526.91
655.918	486.22
656.115	511.99
656.311	443.02
656.507	435.08
656.704	386.25
656.9	440.31
657.096	437.59
657.292	427.13
657.489	493.59
657.685	474.21
657.881	459.1
658.077	465.88
658.273	487.19
658.47	534.86
658.666	483.51
658.862	510.44
659.058	459.68
659.254	552.1
659.45	454.06
659.646	478.86
659.842	460.84
660.038	542.02
660.234	470.92
660.43	477.7
660.626	562.95
660.822	488.74
661.018	507.92
661.214	515.87
661.41	455.23
661.606	514.51
661.802	488.16
661.998	491.65
662.194	449.41
662.39	491.65
662.586	511.02
662.781	516.84
662.977	506.76
663.173	541.44
663.369	481.38
663.564	499.59
663.76	497.85
663.956	485.84
664.152	511.02
664.347	440.69
664.543	461.81
664.739	465.69
664.934	438.37
665.13	417.83
665.326	499.21
665.521	501.72
665.717	442.44
665.912	409.31
666.108	377.34
666.304	439.92
666.499	438.37
666.695	386.83
666.89	427.13
667.086	486.03
667.281	455.42
667.477	515.29
667.672	475.37
667.867	473.44
668.063	461.43
668.258	404.46
668.454	436.24
668.649	507.92
668.844	460.46
669.04	476.34
669.235	461.23
669.43	435.85
669.626	414.54
669.821	465.69
670.016	413.76
670.211	436.82
670.407	395.36
670.602	416.09
670.797	431.78
670.992	478.47
671.187	425.19
671.382	496.49
671.578	451.54
671.773	490.1
671.968	403.3
672.163	417.25
672.358	468.98
672.553	418.99
672.748	421.71
672.943	518.97
673.138	404.46
673.333	467.63
673.528	397.49
673.723	464.14
673.918	444.76
674.113	405.24
674.308	473.24
674.503	454.45
674.698	472.28
674.892	466.66
675.087	485.64
675.282	447.86
675.477	395.16
675.672	464.33
675.867	417.25
676.061	409.11
676.256	404.46
676.451	418.8
676.646	470.34
676.84	393.61
677.035	394.78
677.23	389.93
677.424	432.36
677.619	462.98
677.814	448.64
678.008	463.17
678.203	377.15
678.397	400.78
678.592	429.65
678.787	479.83
678.981	425.97
679.176	451.16
679.37	420.74
679.565	381.8
679.759	392.45
679.954	428.68
680.148	481.77
680.342	442.63
680.537	450.96
680.731	376.76
680.926	412.02
681.12	456.97
681.314	384.51
681.509	412.6
681.703	395.74
681.897	449.61
682.092	388.19
682.286	394.78
682.48	495.14
682.674	447.86
682.869	398.65
683.063	406.21
683.257	467.82
683.451	387.41
683.645	431.59
683.839	425.97
684.034	430.43
684.228	459.1
684.422	412.02
684.616	383.54
684.81	440.89
685.004	393.03
685.198	401.17
685.392	466.08
685.586	371.72
685.78	435.46
685.974	425.97
686.168	445.34
686.362	476.73
686.556	376.56
686.75	375.79
686.944	357.38
687.138	400.78
687.331	295.19
687.525	327.74
687.719	289.96
687.913	333.94
688.107	319.02
688.301	316.7
688.494	360.48
688.688	304.3
688.882	302.75
689.076	276.4
689.269	349.25
689.463	414.93
689.657	331.42
689.85	331.81
690.044	354.48
690.238	358.35
690.431	349.25
690.625	339.75
690.818	396.33
691.012	361.06
691.205	426.36
691.399	335.88
691.593	410.86
691.786	430.04
691.98	444.18
692.173	475.18
692.366	410.28
692.56	421.32
692.753	493.59
692.947	390.71
693.14	477.12
693.333	437.98
693.527	406.98
693.72	465.69
693.914	414.34
694.107	438.37
694.3	466.27
694.493	422.29
694.687	496.88
694.88	433.72
695.073	513.93
695.266	490.1
695.46	465.69
695.653	487.58
695.846	521.1
696.039	433.53
696.232	464.91
696.425	489.52
696.618	529.04
696.812	522.46
697.005	571.09
697.198	638.12
697.391	539.51
697.584	571.09
697.777	599.95
697.97	577.67
698.163	596.47
698.356	589.1
698.549	650.13
698.742	616.81
698.935	596.85
699.127	634.83
699.32	580.39
699.513	573.02
699.706	611
699.899	637.15
700.092	584.07
700.285	636.77
700.477	560.24
700.67	617.2
700.863	652.85
701.056	713.68
701.248	672.61
701.441	681.52
701.634	632.12
701.826	739.84
702.019	649.36
702.212	718.33
702.404	671.06
702.597	669.32
702.79	663.12
702.982	721.05
703.175	731.32
703.367	754.37
703.56	737.51
703.752	826.06
703.945	772.2
704.137	732.67
704.33	781.88
704.522	804.75
704.715	812.88
704.907	805.52
705.1	846.98
705.292	824.7
705.484	824.31
705.677	859.96
705.869	853.18
706.061	879.14
706.254	933.59
706.446	883.41
706.638	835.74
706.831	930.29
707.023	876.82
707.215	969.24
707.407	963.81
707.599	933.01
707.792	979.51
707.984	947.34
708.176	990.94
708.368	960.91
708.56	966.14
708.752	949.47
708.944	972.72
709.136	992.1
709.329	964.59
709.521	1096.14
709.713	1072.89
709.905	1062.04
710.097	1079.87
710.289	993.46
710.481	1054.1
710.672	1054.49
710.864	1068.05
711.056	1109.7
711.248	1114.16
711.44	1135.67
711.632	1087.23
711.824	1121.52
712.016	1177.51
712.207	1151.17
712.399	1149.23
712.591	1201.73
712.783	1177.51
712.975	1197.08
713.166	1109.32
713.358	1166.47
713.55	1255.21
713.741	1256.18
713.933	1253.46
714.125	1217.04
714.316	1168.02
714.508	1246.3
714.7	1256.95
714.891	1244.94
715.083	1316.24
715.274	1294.93
715.466	1280.78
715.657	1333.68
715.849	1238.55
716.04	1270.71
716.232	1204.83
716.423	1302.87
716.615	1196.5
716.806	1190.3
716.998	1203.28
717.189	1142.25
717.381	1101.57
717.572	1069.4
717.763	1116.48
717.955	1115.71
718.146	1055.45
718.337	1039.95
718.528	984.93
718.72	974.86
718.911	1018.45
719.102	988.81
719.293	1040.73
719.485	1044.41
719.676	1001.98
719.867	966.14
720.058	969.82
720.249	992.49
720.44	1007.4
720.632	1034.72
720.823	1087.62
721.014	1167.83
721.205	1137.41
721.396	1200.57
721.587	1276.91
721.778	1289.5
721.969	1293.76
722.16	1365.84
722.351	1312.17
722.542	1444.89
722.733	1413.89
722.924	1350.53
723.115	1408.07
723.305	1421.44
723.496	1440.82
723.687	1329.22
723.878	1341.62
724.069	1340.65
724.26	1363.12
724.45	1297.64
724.641	1316.63
724.832	1333.29
725.023	1342.2
725.213	1301.71
725.404	1286.21
725.595	1326.31
725.785	1278.26
725.976	1324.38
726.167	1356.54
726.357	1322.44
726.548	1407.3
726.739	1335.42
726.929	1399.74
727.12	1403.62
727.31	1450.89
727.501	1422.41
727.691	1394.71
727.882	1403.81
728.072	1470.65
728.263	1439.46
728.453	1489.45
728.644	1469.69
728.834	1441.59
729.024	1417.96
729.215	1453.22
729.405	1488.29
729.596	1516.96
729.786	1548.15
729.976	1531.68
730.167	1549.51
730.357	1511.73
730.547	1516.38
730.737	1540.02
730.928	1597.95
731.118	1609.96
731.308	1562.68
731.498	1597.75
731.688	1650.65
731.879	1632.24
732.069	1683.2
732.259	1701.41
732.449	1679.71
732.639	1782.98
732.829	1806.42
733.019	1775.42
733.209	1853.69
733.399	1800.61
733.589	1885.85
733.779	1896.7
733.969	1862.02
734.159	1899.61
734.349	1931.39
734.539	1981.37
734.729	1993.19
734.919	2037.37
735.109	2036.59
735.299	2007.92
735.488	2045.89
735.678	2038.53
735.868	2048.8
736.058	2032.33
736.248	2006.75
736.437	1981.37
736.627	1960.25
736.817	2106.73
737.007	2054.22
737.196	2111.18
737.386	2052.48
737.576	1994.93
737.765	2092.58
737.955	2102.66
738.144	2150.13
738.334	2134.24
738.524	2035.04
738.713	2118.93
738.903	2093.94
739.092	2154.39
739.282	2141.21
739.471	2182.87
739.661	2141.79
739.85	2193.33
740.04	2197.79
740.229	2196.82
740.419	2233.24
740.608	2209.99
740.797	2225.49
740.987	2292.14
741.176	2245.26
741.365	2257.07
741.555	2156.52
741.744	2287.88
741.933	2237.89
742.123	2263.66
742.312	2296.21
742.501	2268.31
742.69	2271.41
742.88	2216.39
743.069	2352.98
743.258	2259.98
743.447	2349.3
743.636	2329.92
743.825	2285.75
744.014	2344.65
744.204	2310.55
744.393	2292.92
744.582	2348.33
744.771	2346.59
744.96	2269.28
745.149	2394.05
745.338	2265.02
745.527	2367.9
745.716	2318.1
745.905	2308.03
746.094	2338.45
746.283	2331.86
746.471	2353.56
746.66	2379.91
746.849	2338.64
747.038	2377.39
747.227	2352.4
747.416	2380.3
747.604	2322.75
747.793	2349.69
747.982	2348.14
748.171	2365.38
748.359	2380.49
748.548	2374.1
748.737	2343.49
748.926	2327.4
749.114	2250.68
749.303	2345.62
749.491	2345.81
749.68	2285.36
749.869	2372.74
750.057	2287.49
750.246	2313.07
750.434	2297.76
750.623	2329.54
750.811	2306.48
751	2353.56
751.188	2315.97
751.377	2318.49
751.565	2303.57
751.754	2323.92
751.942	2256.88
752.131	2355.69
752.319	2275.87
752.507	2258.62
752.696	2352.59
752.884	2382.24
753.072	2325.08
753.261	2328.76
753.449	2323.34
753.637	2297.76
753.825	2403.16
754.014	2311.52
754.202	2303.96
754.39	2355.11
754.578	2359.76
754.766	2307.45
754.955	2295.63
755.143	2386.69
755.331	2344.07
755.519	2297.57
755.707	2282.84
755.895	2314.81
756.083	2277.81
756.271	2278.39
756.459	2268.12
756.647	2319.85
756.835	2277.42
757.023	2232.27
757.211	2210.96
757.399	2257.46
757.587	2254.94
757.775	2226.46
757.963	2243.32
758.151	2241.96
758.339	2217.36
758.526	2195.27
758.714	2236.15
758.902	2130.17
759.09	2122.23
759.278	1970.72
759.465	1842.84
759.653	1584.58
759.841	1469.49
760.028	1217.81
760.216	1082.39
760.404	1051.97
760.591	877.21
760.779	700.9
760.967	651.68
761.154	502.11
761.342	550.74
761.529	533.89
761.717	566.82
761.905	543.77
762.092	612.55
762.28	539.7
762.467	581.94
762.655	523.62
762.842	529.82
763.029	554.23
763.217	560.24
763.404	565.47
763.592	584.26
763.779	529.24
763.966	613.71
764.154	620.88
764.341	664.28
764.528	664.47
764.716	703.03
764.903	721.05
765.09	745.65
765.277	815.79
765.465	933.01
765.652	952.57
765.839	1014.96
766.026	1098.66
766.213	1090.52
766.4	1188.17
766.588	1344.53
766.775	1341.04
766.962	1398.39
767.149	1431.32
767.336	1535.56
767.523	1523.35
767.71	1585.93
767.897	1683.78
768.084	1739.38
768.271	1732.41
768.458	1809.52
768.645	1840.32
768.832	1809.32
769.019	1828.89
769.206	1862.22
769.392	1913.56
769.579	2005.01
769.766	1950.76
769.953	1923.25
770.14	1961.03
770.327	1978.66
770.513	1987.18
770.7	2053.64
770.887	1966.45
771.073	2023.03
771.26	2010.82
771.447	1963.93
771.634	1971.49
771.82	2080.57
772.007	1954.44
772.193	2015.28
772.38	2040.66
772.567	1994.35
772.753	2012.57
772.94	2048.99
773.126	2072.82
773.313	2055.19
773.499	2082.9
773.686	2038.92
773.872	1993.58
774.059	2021.28
774.245	1985.44
774.432	2031.75
774.618	1954.25
774.804	2023.22
774.991	1949.79
775.177	2019.93
775.363	1986.22
775.55	2031.55
775.736	1937.2
775.922	1960.45
776.109	1944.75
776.295	2003.85
776.481	1980.98
776.667	2010.43
776.853	1939.52
777.04	1975.75
777.226	1952.5
777.412	2047.63
777.598	1950.95
777.784	1910.65
777.97	1894.57
778.156	1984.08
778.342	1943.79
778.528	1935.45
778.715	1871.71
778.901	1910.65
779.087	1933.13
779.272	1894.38
779.458	1885.08
779.644	1953.09
779.83	1870.74
780.016	1992.8
780.202	1934.87
780.388	1883.34
780.574	1840.32
780.76	1854.08
780.946	1965.1
781.131	1904.84
781.317	1907.17
781.503	1872.87
781.689	1820.95
781.874	2025.93
782.06	1874.04
782.246	1848.27
782.432	1835.87
782.617	1855.24
782.803	1893.8
782.989	1795.18
783.174	1825.21
783.36	1788.59
783.545	1862.8
783.731	1804.48
783.916	1746.55
784.102	1827.15
784.288	1773.68
784.473	1803.32
784.659	1825.79
784.844	1820.37
785.029	1812.04
785.215	1763.02
785.4	1725.24
785.586	1840.32
785.771	1754.11
785.956	1824.24
786.142	1778.33
786.327	1765.34
786.512	1746.74
786.698	1747.91
786.883	1697.92
787.068	1745.78
787.254	1752.94
787.439	1734.73
787.624	1706.06
787.809	1693.27
787.994	1709.93
788.18	1757.4
788.365	1686.68
788.55	1698.31
788.735	1700.63
788.92	1685.91
789.105	1704.51
789.29	1735.7
789.475	1682.03
789.66	1662.46
789.845	1640.38
790.03	1642.9
790.215	1695.79
790.4	1691.14
790.585	1729.89
790.77	1660.72
790.955	1581.09
791.14	1617.32
791.325	1717.49
791.51	1545.83
791.695	1624.3
791.879	1599.3
792.064	1569.85
792.249	1672.73
792.434	1620.23
792.618	1641.15
792.803	1640.18
792.988	1579.93
793.173	1641.54
793.357	1655.68
793.542	1596.98
793.727	1630.11
793.911	1648.51
794.096	1646.96
794.281	1643.48
794.465	1720.98
794.65	1634.37
794.834	1630.5
795.019	1707.41
795.203	1682.42
795.388	1677.77
795.572	1714
795.757	1677.58
795.941	1696.95
796.126	1639.99
796.31	1643.48
796.494	1648.9
796.679	1614.41
796.863	1641.15
797.048	1741.13
797.232	1678.74
797.416	1655.1
797.601	1631.46
797.785	1690.17
797.969	1680.87
798.153	1646.19
798.338	1681.65
798.522	1713.23
798.706	1695.6
798.89	1695.21
799.074	1734.15
799.258	1736.48
799.443	1683
799.627	1664.4
799.811	1683.97
799.995	1668.08
800.179	1605.5
800.363	1649.29
800.547	1659.75
800.731	1708.96
800.915	1618.29
801.099	1646.19
801.283	1624.1
801.467	1693.08
801.651	1625.65
801.835	1707.99
802.019	1683.2
802.202	1665.95
802.386	1591.94
802.57	1620.81
802.754	1637.47
802.938	1641.93
803.121	1614.41
803.305	1718.46
803.489	1637.86
803.673	1704.7
803.856	1705.67
804.04	1676.61
804.224	1705.86
804.407	1656.85
804.591	1641.73
804.775	1646.96
804.958	1679.51
805.142	1772.9
805.326	1630.3
805.509	1684.94
805.693	1691.14
805.876	1758.76
806.06	1666.15
806.243	1688.43
806.427	1718.07
806.61	1731.44
806.794	1668.86
806.977	1726.01
807.16	1695.6
807.344	1723.69
807.527	1710.71
807.71	1642.7
807.894	1684.16
808.077	1711.29
808.26	1608.22
808.444	1631.85
808.627	1732.99
808.81	1634.95
808.993	1618.87
809.177	1616.16
809.36	1633.79
809.543	1690.36
809.726	1555.13
809.909	1593.3
810.092	1601.05
810.276	1574.12
810.459	1587.68
810.642	1584.77
810.825	1546.8
811.008	1557.26
811.191	1511.54
811.374	1497.2
811.557	1518.12
811.74	1587.1
811.923	1472.2
812.106	1475.11
812.289	1450.89
812.472	1439.27
812.654	1468.33
812.837	1457.09
813.02	1389.86
813.203	1372.81
813.386	1321.86
813.569	1287.56
813.751	1286.79
813.934	1348.01
814.117	1317.79
814.3	1255.98
814.482	1210.45
814.665	1213.36
814.848	1180.23
815.03	1162.79
815.213	1152.13
815.396	1168.41
815.578	1113
815.761	1109.9
815.943	1157.75
816.126	1068.44
816.309	1088
816.491	1041.7
816.674	1003.53
816.856	1039.37
817.039	997.33
817.221	1064.75
817.403	1055.65
817.586	1054.1
817.768	1061.46
817.951	996.94
818.133	982.8
818.315	1031.43
818.498	1039.37
818.68	1108.15
818.862	1073.28
819.045	1081.61
819.227	1078.51
819.409	1052.74
819.591	1087.62
819.774	1056.81
819.956	1030.65
820.138	1116.87
820.32	1064.37
820.502	1116.68
820.684	1149.62
820.866	1167.05
821.048	1232.54
821.231	1199.02
821.413	1200.57
821.595	1171.32
821.777	1185.65
821.959	1200.38
822.141	1238.16
822.323	1154.27
822.505	1062.82
822.686	1056.62
822.868	1015.35
823.05	935.14
823.232	949.67
823.414	905.69
823.596	938.04
823.778	946.37
823.96	961.49
824.141	933.39
824.323	948.12
824.505	1032.4
824.687	1057
824.868	1087.03
825.05	1159.88
825.232	1123.65
825.413	1204.64
825.595	1188.56
825.777	1118.62
825.958	1181
826.14	1140.7
826.321	1162.98
826.503	1101.37
826.685	1184.1
826.866	1213.55
827.048	1192.24
827.229	1154.07
827.411	1111.06
827.592	1073.67
827.773	1117.84
827.955	1061.46
828.136	1071.54
828.318	1001.98
828.499	1083.16
828.68	1007.6
828.862	1064.37
829.043	1075.41
829.224	1054.1
829.406	1006.24
829.587	1000.62
829.768	1034.34
829.949	1071.15
830.131	1033.75
830.312	1102.34
830.493	1030.65
830.674	1069.6
830.855	1019.8
831.036	1064.37
831.218	1096.92
831.399	1139.93
831.58	1053.32
831.761	1086.07
831.942	1054.1
832.123	1024.07
832.304	1000.62
832.485	1016.51
832.666	1046.35
832.847	1028.14
833.028	1045.57
833.209	1041.7
833.389	1020
833.57	983.57
833.751	1022.32
833.932	1070.57
834.113	1049.64
834.294	1039.18
834.475	1050.03
834.655	1079.87
834.836	1103.31
835.017	1080.45
835.198	1034.14
835.378	1075.02
835.559	1089.55
835.74	1058.36
835.92	1032.59
836.101	1028.72
836.281	1043.44
836.462	1068.05
836.643	1113.58
836.823	1101.37
837.004	1111.06
837.184	1143.61
837.365	1105.25
837.545	1115.32
837.726	1073.09
837.906	1148.45
838.087	1124.82
838.267	1099.63
838.448	1042.47
838.628	1106.8
838.808	1103.12
838.989	1151.94
839.169	1056.81
839.349	1104.08
839.53	1117.07
839.71	1096.53
839.89	1074.44
840.07	1158.72
840.251	1092.27
840.431	1111.25
840.611	1076.19
840.791	1032.2
840.971	1118.03
841.151	1066.69
841.332	1064.56
841.512	1131.21
841.692	1024.65
841.872	1137.22
842.052	1084.9
842.232	1110.48
842.412	1028.72
842.592	1080.25
842.772	1087.03
842.952	1086.84
843.132	1044.8
843.312	1044.99
843.492	1033.17
843.672	1094.98
843.851	991.91
844.031	1063.2
844.211	1055.65
844.391	1031.62
844.571	1057.2
844.751	1078.9
844.93	1063.98
845.11	1001.98
845.29	1039.57
845.47	1087.03
845.649	1063.59
845.829	1060.49
846.009	1009.73
846.188	1068.24
846.368	1021.94
846.547	1051.39
846.727	1090.33
846.907	998.3
847.086	1039.18
847.266	1062.04
847.445	1047.32
847.625	1040.34
847.804	1020.77
847.984	1048.48
848.163	1000.04
848.343	998.88
848.522	1034.14
848.701	1034.72
848.881	1014.77
849.06	1056.62
849.239	1021.35
849.419	1038.02
849.598	958
849.777	955.29
849.957	987.64
850.136	960.71
850.315	918.67
850.494	919.06
850.674	919.64
850.853	990.16
851.032	931.84
851.211	980.47
851.39	979.12
851.569	927.77
851.748	923.32
851.927	981.25
852.107	939.79
852.286	907.82
852.465	935.91
852.644	956.64
852.823	942.89
853.002	936.3
853.181	960.52
853.359	967.3
853.538	905.88
853.717	986.09
853.896	868.49
854.075	865.78
854.254	817.15
854.433	780.14
854.611	861.13
854.79	791.96
854.969	833.61
855.148	865
855.327	793.12
855.505	825.67
855.684	821.8
855.863	879.14
856.041	807.26
856.22	877.4
856.399	835.55
856.577	906.66
856.756	907.82
856.934	994.42
857.113	1026.97
857.291	921.96
857.47	864.03
857.648	928.94
857.827	946.37
858.005	955.48
858.184	888.25
858.362	989
858.541	939.01
858.719	908.4
858.898	911.89
859.076	877.79
859.254	957.61
859.433	905.49
859.611	868.68
859.789	851.44
859.967	948.12
860.146	944.63
860.324	873.72
860.502	874.11
860.68	835.74
860.859	867.71
861.037	852.79
861.215	879.92
861.393	919.83
861.571	877.01
861.749	844.85
861.927	865
862.105	871.59
862.283	871.98
862.461	836.13
862.639	791.76
862.817	832.45
862.995	858.03
863.173	821.6
863.351	855.51
863.529	878.37
863.707	898.33
863.885	862.68
864.063	771.61
864.241	802.81
864.418	877.4
864.596	807.65
864.774	784.21
864.952	848.73
865.129	845.63
865.307	809.01
865.485	755.15
865.663	856.28
865.84	769.87
866.018	760.76
866.196	711.94
866.373	722.21
866.551	710.78
866.728	656.53
866.906	715.23
867.084	734.03
867.261	757.86
867.439	773.36
867.616	771.23
867.794	744.3
867.971	782.27
868.149	748.17
868.326	796.41
868.503	788.66
868.681	790.99
868.858	722.02
869.035	739.45
869.213	777.43
869.39	769.48
869.567	828.38
869.745	757.28
869.922	779.56
870.099	785.76
870.276	805.33
870.454	797.96
870.631	786.73
870.808	768.9
870.985	799.51
871.162	812.5
871.339	782.46
871.517	744.49
871.694	732.87
871.871	737.13
872.048	733.45
872.225	725.7
872.402	766
872.579	697.8
872.756	762.31
872.933	707.29
873.11	746.04
873.287	759.41
873.463	699.73
873.64	714.27
873.817	751.85
873.994	740.61
874.171	732.87
874.348	763.67
874.524	694.7
874.701	729.77
874.878	674.35
875.055	713.68
875.231	737.13
875.408	754.95
875.585	676.48
875.762	725.12
875.938	689.66
876.115	721.05
876.291	689.66
876.468	705.35
876.645	638.12
876.821	674.55
876.998	700.9
877.174	717.95
877.351	695.08
877.527	658.08
877.704	712.13
877.88	693.15
878.057	656.14
878.233	710.58
878.409	661.37
878.586	703.03
878.762	659.43
878.938	654.2
879.115	615.84
879.291	665.44
879.467	632.12
879.644	644.52
879.82	676.87
879.996	613.9
880.172	588.91
880.349	657.88
880.525	710.39
880.701	624.75
880.877	632.7
881.053	650.33
881.229	638.32
881.405	671.83
881.581	624.75
881.757	629.4
881.933	654.98
882.109	659.24
882.285	656.92
882.461	603.05
882.637	639.09
882.813	603.25
882.989	638.7
883.165	682.3
883.341	615.45
883.517	688.3
883.693	667.57
883.869	673.58
884.044	604.8
884.22	669.7
884.396	675.9
884.572	666.8
884.747	702.64
884.923	648
885.099	678.62
885.275	692.57
885.45	607.7
885.626	613.52
885.801	608.29
885.977	624.75
886.153	596.08
886.328	654.2
886.504	640.64
886.679	672.22
886.855	639.87
887.03	663.31
887.206	695.86
887.381	641.42
887.557	679
887.732	658.47
887.908	660.98
888.083	671.45
888.258	644.9
888.434	628.63
888.609	643.74
888.784	679.78
888.96	618.36
889.135	595.3
889.31	611.19
889.485	633.67
889.661	628.05
889.836	636.77
890.011	644.9
890.186	617.97
890.361	605.38
890.537	658.27
890.712	646.84
890.887	641.22
891.062	648.78
891.237	660.02
891.412	634.64
891.587	642.77
891.762	677.26
891.937	690.05
892.112	628.63
892.287	615.65
892.462	604.41
892.637	584.07
892.812	595.89
892.987	560.82
893.161	568.95
893.336	587.75
893.511	611.77
893.686	595.69
893.861	603.83
894.035	601.12
894.21	584.84
894.385	551.32
894.56	562.56
894.734	516.84
894.909	506.37
895.084	532.53
895.258	524.01
895.433	533.11
895.608	528.46
895.782	505.02
895.957	531.95
896.131	506.18
896.306	461.62
896.48	450.77
896.655	458.52
896.829	416.48
897.004	425.97
897.178	436.82
897.353	434.3
897.527	465.49
897.701	438.95
897.876	399.04
898.05	480.22
898.224	450.96
898.399	468.79
898.573	438.95
898.747	353.9
898.921	412.99
899.096	327.74
899.27	338.01
899.444	336.65
899.618	368.23
899.792	373.66
899.967	364.55
900.141	413.57
900.315	327.74
900.489	363.97
900.663	390.51
900.837	412.41
901.011	340.33
901.185	443.79
901.359	356.61
901.533	357.19
901.707	396.91
901.881	378.31
902.055	334.13
902.229	354.28
902.403	427.71
902.576	400.59
902.75	380.25
902.924	503.08
903.098	435.27
903.272	403.88
903.446	462.98
903.619	434.11
903.793	460.84
903.967	440.69
904.14	486.61
904.314	483.12
904.488	459.1
904.661	494.75
904.835	441.08
905.009	501.34
905.182	532.92
905.356	491.26
905.529	466.66
905.703	432.94
905.876	449.41
906.05	428.29
906.223	411.05
906.397	370.75
906.57	375.98
906.744	350.21
906.917	367.65
907.09	376.76
907.264	375.79
907.437	387.61
907.61	336.85
907.784	350.99
907.957	362.61
908.13	321.54
908.304	368.81
908.477	335.68
908.65	347.89
908.823	310.11
908.996	384.7
909.17	323.86
909.343	331.23
909.516	330.26
909.689	331.03
909.862	297.32
910.035	311.46
910.208	285.7
910.381	298.48
910.554	402.72
910.727	305.85
910.9	331.03
911.073	285.7
911.246	392.45
911.419	345.76
911.592	358.93
911.765	312.24
911.938	295.58
912.11	351.18
912.283	303.33
912.456	382.18
912.629	329.68
912.802	301
912.974	257.8
913.147	267.29
913.32	199.87
913.493	273.88
913.665	309.14
913.838	300.23
914.01	246.56
914.183	286.86
914.356	253.73
914.528	313.98
914.701	341.88
914.873	332.97
915.046	296.35
915.218	250.82
915.391	238.03
915.563	227.57
915.736	297.9
915.908	307.01
916.081	263.61
916.253	254.89
916.425	275.43
916.598	270.97
916.77	284.92
916.942	259.73
917.115	193.47
917.287	278.53
917.459	271.36
917.632	214.01
917.804	198.7
917.976	254.12
918.148	270.2
918.32	253.15
918.493	293.83
918.665	324.64
918.837	292.87
919.009	342.27
919.181	342.66
919.353	289.77
919.525	301.78
919.697	274.85
919.869	291.9
920.041	342.66
920.213	365.71
920.385	327.93
920.557	285.5
920.729	302.55
920.901	319.02
921.073	313.79
921.244	274.46
921.416	320.18
921.588	294.22
921.76	242.88
921.932	346.92
922.103	274.27
922.275	302.94
922.447	305.26
922.619	249.85
922.79	295.77
922.962	249.85
923.134	333.75
923.305	245.2
923.477	227.96
923.648	225.05
923.82	243.65
923.991	203.35
924.163	197.74
924.335	261.87
924.506	230.28
924.677	276.4
924.849	250.43
925.02	251.4
925.192	288.41
925.363	255.28
925.535	279.3
925.706	229.9
925.877	299.06
926.049	219.82
926.22	251.02
926.391	240.75
926.562	266.52
926.734	233
926.905	252.95
927.076	204.13
927.247	205.29
927.419	201.8
927.59	190.76
927.761	232.8
927.932	227.77
928.103	238.81
928.274	167.7
928.445	215.56
928.616	185.92
928.787	196.77
928.958	231.45
929.129	218.08
929.3	186.5
929.471	141.55
929.642	123.72
929.813	82.46
929.984	163.83
930.155	113.07
930.326	160.34
930.496	121.98
930.667	72.38
930.838	129.54
931.009	63.86
931.18	97.76
931.35	77.42
931.521	81.1
931.692	73.35
931.863	38.09
932.033	102.41
932.204	93.31
932.374	84.39
932.545	34.99
932.716	72.96
932.886	122.17
933.057	28.98
933.227	48.55
933.398	136.32
933.568	19.68
933.739	2.63
933.909	27.43
934.08	89.24
934.25	-26.62
934.421	-2.6
934.591	51.46
934.761	12.9
934.932	-22.56
935.102	18.91
935.272	26.66
935.443	3.6
935.613	28.59
935.783	32.66
935.953	-2.41
936.123	162.28
936.294	-21.59
936.464	30.92
936.634	22.78
936.804	-15.97
936.974	3.21
937.144	61.14
937.314	21.81
937.484	43.32
937.655	-21.97
937.825	57.66
937.995	25.88
938.165	55.72
938.334	3.41
938.504	40.41
938.674	4.57
938.844	15.61
939.014	45.64
939.184	34.02
939.354	122.56
939.524	82.84
939.694	42.93
939.863	21.04
940.033	124.5
940.203	72.57
940.373	75.29
940.542	81.29
940.712	44.09
940.882	79.55
941.051	81.68
941.221	92.53
941.391	90.21
941.56	28.21
941.73	9.41
941.899	144.84
942.069	19.1
942.238	82.46
942.408	49.32
942.577	66.96
942.747	40.61
942.916	-11.9
943.086	12.51
943.255	79.94
943.425	49.71
943.594	24.91
943.763	-31.47
943.933	14.64
944.102	-6.09
944.271	27.82
944.441	55.33
944.61	16.78
944.779	44.29
944.948	133.41
945.117	5.34
945.287	5.93
945.456	12.71
945.625	11.74
945.794	48.36
945.963	-0.08
946.132	60.37
946.301	6.89
946.47	52.81
946.639	-27.01
946.808	5.73
946.977	59.98
947.146	85.75
947.315	36.15
947.484	51.07
947.653	16.97
947.822	5.93
947.991	16.78
948.16	109.39
948.329	77.22
948.498	30.53
948.666	37.12
948.835	68.12
949.004	-5.31
949.173	20.07
949.341	49.13
949.51	67.34
949.679	77.61
949.847	39.44
950.016	119.07
950.185	80.52
950.353	34.41
950.522	24.91
950.69	68.51
950.859	6.7
951.028	73.93
951.196	54.75
951.365	4.57
951.533	52.81
951.701	74.71
951.87	56.49
952.038	18.71
952.207	51.84
952.375	93.31
952.543	26.66
952.712	25.49
952.88	2.83
953.048	100.09
953.217	38.67
953.385	22.78
953.553	85.75
953.721	15.81
953.89	50.29
954.058	8.25
954.226	32.28
954.394	52.81
954.562	-16.74
954.73	40.61
954.898	44.09
955.067	55.72
955.235	-5.89
955.403	52.23
955.571	84.2
955.739	46.61
955.907	-3.37
956.075	19.49
956.243	39.83
956.41	27.63
956.578	-16.36
956.746	-15.97
956.914	20.26
957.082	67.34
957.25	59.4
957.418	18.71
957.585	51.26
957.753	65.99
957.921	7.28
958.089	45.26
958.256	58.43
958.424	63.08
958.592	40.61
958.759	33.83
958.927	51.26
959.095	32.28
959.262	60.76
959.43	54.56
959.597	7.67
959.765	23.75
959.932	28.98
960.1	62.11
960.267	38.67
960.435	33.05
960.602	63.27
960.77	29.18
960.937	-12.09
961.104	48.16
961.272	-10.93
961.439	32.28
961.606	50.68
961.774	34.41
961.941	18.91
962.108	44.29
962.275	40.41
962.443	77.42
962.61	58.43
962.777	99.51
962.944	58.82
963.111	63.08
963.278	58.82
963.446	54.56
963.613	55.14
963.78	77.81
963.947	45.64
964.114	47.58
964.281	137.67
964.448	54.17
964.615	18.13
964.782	49.71
964.949	61.92
965.116	94.86
965.282	117.33
965.449	37.7
965.616	11.16
965.783	92.53
965.95	48.74
966.117	-2.99
966.283	28.98
966.45	92.53
966.617	48.16
966.784	90.01
966.95	95.44
967.117	102.41
967.284	22.78
967.45	15.61
967.617	104.74
967.784	73.54
967.95	111.52
968.117	35.76
968.283	75.67
968.45	126.44
968.616	56.69
968.783	73.35
968.949	63.08
969.116	87.11
969.282	62.5
969.449	84.2
969.615	43.32
969.781	28.21
969.948	74.9
970.114	25.69
970.28	122.56
970.447	54.56
970.613	109.58
970.779	43.9
970.945	84.78
971.112	59.79
971.278	50.1
971.444	23.75
971.61	104.54
971.776	24.91
971.942	77.81
972.108	74.71
972.275	70.64
972.441	61.72
972.607	98.34
972.773	26.27
972.939	97.37
973.105	51.84
973.271	16
973.437	33.63
973.602	44.29
973.768	56.88
973.934	50.29
974.1	84.01
974.266	-13.26
974.432	58.62
974.598	39.64
974.763	69.28
974.929	38.47
975.095	143.68
975.261	24.33
975.426	8.25
975.592	30.92
975.758	102.41
975.923	14.06
976.089	60.76
976.255	107.84
976.42	61.14
976.586	52.42
976.751	63.27
976.917	128.18
977.082	79.74
977.248	2.24
977.413	-17.52
977.579	31.11
977.744	77.03
977.91	2.44
978.075	13.48
978.24	67.73
978.406	39.25
978.571	40.41
978.736	15.42
978.902	78.77
979.067	41.96
979.232	2.44
979.397	63.47
979.563	89.62
979.728	3.21
979.893	29.56
980.058	18.91
980.223	95.63
980.388	59.79
980.554	45.84
980.719	35.18
980.884	29.37
981.049	87.3
981.214	27.04
981.379	63.66
981.544	22.01
981.709	10.38
981.874	31.89
982.039	56.3
982.204	83.23
982.368	37.7
982.533	28.4
982.698	79.94
982.863	73.93
983.028	20.84
983.193	67.54
983.357	39.25
983.522	24.33
983.687	47.97
983.852	47.97
984.016	24.53
984.181	37.12
984.346	53.59
984.51	67.34
984.675	72.96
984.839	76.06
985.004	58.04
985.168	72.77
985.333	40.8
985.498	23.75
985.662	71.22
985.827	38.86
985.991	23.75
986.155	38.47
986.32	86.72
986.484	133.6
986.649	80.13
986.813	5.15
986.977	59.98
987.142	67.54
987.306	12.71
987.47	1.47
987.634	49.52
987.799	74.9
987.963	69.67
988.127	42.93
988.291	127.4
988.455	49.71
988.62	47.77
988.784	72.38
988.948	82.26
989.112	17.36
989.276	66.76
989.44	77.22
989.604	26.46
989.768	23.94
989.932	139.03
990.096	25.49
990.26	1.86
990.424	-0.08
990.588	31.5
990.752	137.48
990.915	48.74
991.079	22.59
991.243	13.48
991.407	50.29
991.571	12.9
991.734	64.82
991.898	74.32
992.062	134.38
992.226	37.89
992.389	22.59
992.553	17.94
992.717	18.13
992.88	30.14
993.044	32.28
993.207	34.41
993.371	79.36
993.535	76.64
993.698	41.38
993.862	73.35
994.025	102.41
994.189	18.91
994.352	35.76
994.515	30.34
994.679	72.96
994.842	33.83
995.006	71.02
995.169	28.01
995.332	28.59
995.496	57.07
995.659	-17.13
995.822	44.87
995.985	33.24
996.149	80.13
996.312	55.91
996.475	95.24
996.638	9.03
996.801	70.64
996.964	74.9
997.128	14.26
997.291	45.84
997.454	35.18
997.617	-0.08
997.78	84.2
997.943	5.54
998.106	73.74
998.269	17.36
998.432	39.64
998.595	44.67
998.758	-21.2
998.92	6.51
999.083	-12.29
999.246	29.37
999.409	-19.65
999.572	-45.81
999.735	11.74
999.897	63.47
1000.06	26.46
1000.223	19.29
1000.386	61.34
1000.548	38.67
1000.711	35.18
1000.874	62.89
1001.036	-20.23
1001.199	53.59
1001.361	0.5
1001.524	17.74
1001.687	53.01
1001.849	31.69
1002.012	43.9
1002.174	21.81
1002.337	45.64
1002.499	40.61
1002.661	50.49
1002.824	4.18
1002.986	16.97
1003.149	34.79
1003.311	19.68
1003.473	83.62
1003.636	15.03
1003.798	71.61
1003.96	59.98
1004.123	46.81
1004.285	10.96
1004.447	34.21
1004.609	52.81
1004.771	72.77
1004.933	14.84
1005.096	-16.16
1005.258	-28.37
1005.42	13.48
1005.582	55.72
1005.744	36.34
1005.906	-10.74
1006.068	37.51
1006.23	-15.77
1006.392	-29.34
1006.554	-5.7
1006.716	71.22
1006.878	40.8
1007.04	-7.64
1007.202	-9.19
1007.363	41.57
1007.525	57.07
1007.687	38.86
1007.849	83.23
1008.011	-14.03
1008.172	-18.68
1008.334	3.79
1008.496	30.34
1008.658	-31.66
1008.819	-1.44
1008.981	-14.81
1009.143	-7.83
1009.304	18.33
1009.466	59.98
1009.627	84.97
1009.789	127.4
1009.95	28.79
1010.112	9.61
1010.273	33.63
1010.435	-6.47
1010.596	1.28
1010.758	1.08
1010.919	-3.76
1011.081	-16.55
1011.242	18.71
1011.403	46.03
1011.565	11.93
1011.726	29.37
1011.887	3.6
1012.049	9.99
1012.21	45.26
1012.371	70.06
1012.532	-67.5
1012.693	46.03
1012.855	-23.91
1013.016	23.75
1013.177	73.93
1013.338	19.68
1013.499	56.49
1013.66	51.84
1013.821	41.96
1013.982	48.16
1014.143	4.57
1014.304	1.28
1014.465	32.66
1014.626	30.73
1014.787	16.58
1014.948	80.13
1015.109	-47.74
1015.27	75.09
1015.431	-26.04
1015.592	-27.01
1015.752	76.45
1015.913	23.56
1016.074	40.02
1016.235	25.3
1016.395	30.14
1016.556	1.47
1016.717	17.16
1016.877	82.07
1017.038	2.63
1017.199	4.38
1017.359	21.62
1017.52	42.93
1017.681	8.64
1017.841	20.26
1018.002	26.08
1018.162	-6.28
1018.323	66.96
1018.483	14.26
1018.644	-12.09
1018.804	-8.02
1018.964	-7.25
1019.125	-16.74
1019.285	18.91
1019.446	-26.62
1019.606	-34.76
1019.766	-16.16
1019.926	52.04
1020.087	34.41
1020.247	-34.37
1020.407	18.71
1020.567	53.2
1020.728	14.84
1020.888	-12.67
1021.048	3.21
1021.208	-13.45
1021.368	4.57
1021.528	66.18
1021.688	57.66
1021.848	37.89
1022.008	26.27
1022.168	27.24
1022.328	1.08
1022.488	24.72
1022.648	-18.49
1022.808	2.24
1022.968	25.3
1023.128	-3.96
1023.288	-0.86
1023.448	12.13
1023.608	46.81
1023.767	18.33
1023.927	-4.15
1024.087	-11.32
1024.247	-13.45
1024.406	-17.71
1024.566	-15
1024.726	-23.14
1024.885	-8.61
1025.045	23.17
1025.205	1.47
1025.364	7.48
1025.524	21.43
1025.683	6.51
1025.843	49.71
1026.003	22.59
1026.162	57.85
1026.321	34.6
1026.481	27.43
1026.64	16.58
1026.8	35.76
1026.959	5.15
1027.119	1.28
1027.278	-23.72
1027.437	-2.99
1027.597	12.13
1027.756	23.75
1027.915	38.86
1028.074	20.46
1028.234	-9.19
1028.393	17.74
1028.552	-3.57
1028.711	-73.7
1028.87	30.92
1029.03	-26.82
1029.189	20.26
1029.348	-64.6
1029.507	8.25
1029.666	-12.09
1029.825	-25.46
1029.984	3.79
1030.143	19.29
1030.302	-11.12
1030.461	-37.67
1030.62	10.38
1030.779	54.94
1030.938	-4.92
1031.097	-17.32
1031.255	48.36
1031.414	53.59
1031.573	45.64
1031.732	-38.25
1031.891	15.42
1032.049	62.5
1032.208	19.68
1032.367	-22.36
1032.525	7.09
1032.684	-7.83
1032.843	-5.51
1033.001	-25.27
1033.16	152.59
1033.319	25.3
1033.477	32.08
1033.636	6.31
1033.794	-46.77
1033.953	24.91
1034.111	27.24
1034.27	-30.31
1034.428	39.06
1034.587	-27.98
1034.745	20.26
1034.903	-23.91
1035.062	27.43
1035.22	-39.22
1035.378	30.14
1035.537	-18.68
1035.695	43.32
1035.853	2.63
1036.011	43.51
1036.17	20.65
1036.328	-59.37
1036.486	20.46
1036.644	21.81
1036.802	-48.13
1036.96	-18.87
1037.119	3.41
1037.277	-16.55
1037.435	-33.79
1037.593	-43.67
1037.751	11.16
1037.909	22.78
1038.067	22.78
