Data from pine_FLMT105791__95__17-21-35-076.txt Node

Date: Mon Mar 20 17:21:35 GMT 2023
User: antho
Spectrometer: FLMT10579
Trigger mode: 0
Integration Time (sec): 1.000000E-1
Scans to average: 10
Electric dark correction enabled: true
Nonlinearity correction enabled: false
Boxcar width: 0
XAxis mode: Wavelengths
Number of Pixels in Spectrum: 3648
>>>>>Begin Spectral Data<<<<<
345.248	-179.2
345.464	-179.2
345.681	-179.2
345.898	-181.14
346.114	-176.49
346.331	-27.3
346.548	5.05
346.764	-4.25
346.981	-21.49
347.197	10.87
347.414	13.77
347.631	-10.83
347.847	60.27
348.064	11.45
348.28	42.45
348.497	-62.18
348.713	-17.81
348.93	29.27
349.146	16.1
349.363	-40.09
349.579	9.51
349.796	-5.22
350.012	6.99
350.229	27.72
350.445	-6.57
350.661	-14.9
350.878	-16.84
351.094	-3.67
351.311	27.53
351.527	22.1
351.743	-19.16
351.96	45.93
352.176	12.03
352.392	10.48
352.609	31.79
352.825	-24.98
353.041	3.89
353.257	5.25
353.474	3.5
353.69	16.87
353.906	16.87
354.122	-43.77
354.339	68.41
354.555	5.25
354.771	-3.86
354.987	54.07
355.203	44.58
355.42	-22.85
355.636	2.15
355.852	-3.08
356.068	8.93
356.284	-38.73
356.5	39.73
356.716	0.4
356.932	16.87
357.148	36.44
357.364	-5.41
357.58	57.37
357.796	78.87
358.012	56.98
358.228	36.44
358.444	-30.6
358.66	69.57
358.876	16.1
359.092	-9.09
359.308	33.92
359.524	5.63
359.74	12.61
359.956	-3.86
360.172	18.42
360.388	50.2
360.604	-19.16
360.819	87.01
361.035	9.32
361.251	31.4
361.467	-21.88
361.683	37.6
361.898	12.03
362.114	49.03
362.33	28.3
362.546	33.73
362.762	3.7
362.977	0.6
363.193	-24.4
363.409	12.8
363.624	-19.75
363.84	-8.12
364.056	-8.31
364.271	7.96
364.487	27.33
364.703	6.99
364.918	-5.22
365.134	-29.63
365.35	15.9
365.565	114.52
365.781	11.25
365.996	44.97
366.212	56.78
366.427	10.28
366.643	-29.63
366.858	0.98
367.074	-35.44
367.289	45.55
367.505	106.38
367.72	-41.06
367.936	-15.29
368.151	34.89
368.367	30.63
368.582	20.75
368.798	0.79
369.013	58.92
369.228	13.19
369.444	15.9
369.659	61.82
369.874	36.25
370.09	53.3
370.305	-50.55
370.52	-16.65
370.736	78.48
370.951	14.16
371.166	61.24
371.381	68.22
371.597	54.46
371.812	-31.18
372.027	-26.53
372.242	7.57
372.458	89.53
372.673	-7.93
372.888	8.54
373.103	30.05
373.318	93.6
373.533	30.43
373.749	41.28
373.964	-46.87
374.179	33.15
374.394	-24.78
374.609	67.44
374.824	-18.58
375.039	68.02
375.254	-2.31
375.469	59.88
375.684	14.93
375.899	35.08
376.114	18.23
376.329	19.97
376.544	63.95
376.759	61.24
376.974	-10.25
377.189	-28.27
377.404	-1.34
377.619	50.78
377.834	-38.35
378.049	-21.1
378.264	-12.38
378.478	19.58
378.693	-0.76
378.908	48.65
379.123	-1.15
379.338	48.65
379.553	25.98
379.767	14.74
379.982	43.61
380.197	42.64
380.412	13
380.626	37.22
380.841	82.55
381.056	38.18
381.271	82.94
381.485	-9.09
381.7	-49.78
381.915	14.93
382.129	6.22
382.344	12.03
382.559	20.36
382.773	59.5
382.988	-19.94
383.202	23.27
383.417	-17.81
383.632	125.18
383.846	5.44
384.061	10.48
384.275	31.4
384.49	34.31
384.704	38.96
384.919	12.61
385.133	24.43
385.348	16.29
385.562	-1.73
385.777	40.12
385.991	-0.57
386.206	-15.87
386.42	-2.12
386.634	53.88
386.849	30.24
387.063	34.5
387.277	-30.79
387.492	-30.21
387.706	1.95
387.92	-34.47
388.135	49.23
388.349	39.93
388.563	34.7
388.778	10.28
388.992	53.68
389.206	34.89
389.42	92.63
389.635	-10.83
389.849	39.54
390.063	65.12
390.277	23.46
390.491	81.78
390.706	37.22
390.92	62.4
391.134	19.97
391.348	43.42
391.562	-22.65
391.776	10.48
391.99	-2.7
392.205	71.9
392.419	-0.95
392.633	27.14
392.847	70.35
393.061	-4.05
393.275	91.85
393.489	19
393.703	56.2
393.917	48.84
394.131	4.67
394.345	37.99
394.559	61.05
394.773	21.52
394.986	43.42
395.2	12.61
395.414	70.73
395.628	-3.86
395.842	24.04
396.056	-2.5
396.27	-39.9
396.484	41.09
396.697	45.55
396.911	71.12
397.125	49.62
397.339	60.27
397.553	38.18
397.766	100.18
397.98	62.98
398.194	82.55
398.408	-0.76
398.621	44
398.835	50.2
399.049	31.6
399.262	84.49
399.476	52.72
399.69	38.57
399.903	108.32
400.117	39.73
400.331	68.02
400.544	19.39
400.758	152.11
400.971	64.53
401.185	60.27
401.398	1.76
401.612	74.42
401.826	59.11
402.039	76.55
402.253	22.68
402.466	70.15
402.68	30.82
402.893	49.23
403.106	70.15
403.32	28.88
403.533	60.85
403.747	49.62
403.96	47.29
404.174	79.84
404.387	5.63
404.6	28.69
404.814	78.29
405.027	48.26
405.24	55.43
405.454	27.72
405.667	74.61
405.88	16.29
406.094	51.75
406.307	94.95
406.52	56.4
406.733	15.32
406.947	1.57
407.16	117.04
407.373	103.67
407.586	7.77
407.799	15.32
408.012	87.78
408.226	42.45
408.439	95.53
408.652	6.6
408.865	49.03
409.078	92.24
409.291	87.4
409.504	14.55
409.717	82.75
409.93	62.98
410.143	43.03
410.357	-2.12
410.57	25.78
410.783	23.07
410.996	71.32
411.209	56.98
411.421	77.71
411.634	45.93
411.847	27.53
412.06	70.73
412.273	53.68
412.486	50
412.699	128.08
412.912	51.55
413.125	73.06
413.338	60.08
413.55	77.71
413.763	55.43
413.976	78.68
414.189	57.17
414.402	27.92
414.615	127.7
414.827	24.43
415.04	109.1
415.253	53.68
415.466	103.48
415.678	138.35
415.891	44.97
416.104	47.48
416.316	58.53
416.529	23.46
416.742	97.86
416.954	83.91
417.167	59.11
417.38	45.55
417.592	93.01
417.805	39.93
418.017	20.17
418.23	96.11
418.442	47.68
418.655	56.4
418.868	57.17
419.08	97.86
419.293	119.75
419.505	75.97
419.718	92.63
419.93	119.17
420.142	56.4
420.355	106.96
420.567	134.86
420.78	84.88
420.992	66.47
421.205	144.16
421.417	46.71
421.629	54.65
421.842	56.78
422.054	32.37
422.266	114.33
422.479	95.73
422.691	75.58
422.903	119.95
423.115	78.48
423.328	67.83
423.54	101.54
423.752	53.88
423.964	56.98
424.177	85.65
424.389	73.64
424.601	187.56
424.813	106.19
425.025	130.02
425.238	132.54
425.45	68.99
425.662	89.53
425.874	365.23
426.086	84.49
426.298	118.98
426.51	121.69
426.722	113.75
426.934	75.38
427.146	125.95
427.358	74.8
427.57	124.01
427.782	85.65
427.994	93.21
428.206	87.2
428.418	45.74
428.63	118.01
428.842	136.22
429.054	113.36
429.266	144.36
429.478	82.36
429.69	120.53
429.902	45.93
430.114	139.32
430.325	105.41
430.537	106.96
430.749	90.5
430.961	75.77
431.173	105.03
431.384	146.1
431.596	37.6
431.808	98.63
432.02	127.89
432.231	156.18
432.443	164.9
432.655	128.66
432.867	104.06
433.078	131.18
433.29	204.81
433.502	150.75
433.713	168.58
433.925	113.75
434.136	192.41
434.348	96.89
434.56	71.51
434.771	221.47
434.983	87.4
435.194	106.58
435.406	115.3
435.617	166.64
435.829	232.71
436.04	184.46
436.252	185.63
436.463	209.26
436.675	187.37
436.886	170.71
437.098	180.01
437.309	256.73
437.521	160.83
437.732	176.13
437.943	184.46
438.155	173.61
438.366	126.34
438.578	197.83
438.789	184.46
439	202.48
439.211	147.07
439.423	194.73
439.634	220.89
439.845	193.38
440.057	198.99
440.268	227.09
440.479	170.13
440.69	218.95
440.902	180.01
441.113	186.79
441.324	190.28
441.535	202.29
441.746	254.99
441.957	184.27
442.168	174
442.38	208.68
442.591	246.08
442.802	202.48
443.013	169.35
443.224	206.94
443.435	202.09
443.646	190.66
443.857	205.58
444.068	192.6
444.279	194.54
444.49	269.32
444.701	227.28
444.912	323.38
445.123	265.64
445.334	255.76
445.545	248.4
445.756	248.98
445.967	160.25
446.178	230.19
446.388	279.21
446.599	233.68
446.81	248.21
447.021	214.69
447.232	288.31
447.443	289.09
447.653	229.8
447.864	295.09
448.075	263.32
448.286	262.16
448.496	263.9
448.707	295.29
448.918	248.59
449.129	344.89
449.339	233.29
449.55	281.72
449.761	254.6
449.971	313.89
450.182	270.87
450.393	309.04
450.603	238.33
450.814	273.01
451.024	286.18
451.235	320.86
451.446	353.8
451.656	358.84
451.867	266.42
452.077	290.64
452.288	332.68
452.498	355.74
452.709	281.72
452.919	327.06
453.13	276.3
453.34	296.06
453.55	233.87
453.761	314.86
453.971	314.47
454.182	320.47
454.392	321.06
454.602	353.99
454.813	318.73
455.023	342.56
455.233	299.36
455.444	298.39
455.654	255.18
455.864	303.23
456.075	293.35
456.285	294.9
456.495	298.77
456.705	335.39
456.916	366.59
457.126	397.59
457.336	318.34
457.546	271.65
457.756	297.81
457.967	364.07
458.177	320.86
458.387	314.27
458.597	264.67
458.807	298.39
459.017	296.64
459.227	295.87
459.437	310.79
459.647	365.04
459.857	360.97
460.068	296.84
460.278	356.12
460.488	352.05
460.698	372.59
460.908	342.95
461.117	302.65
461.327	301.87
461.537	323.38
461.747	321.44
461.957	324.93
462.167	417.15
462.377	394.1
462.587	368.33
462.797	384.99
463.007	366.2
463.216	399.14
463.426	395.07
463.636	371.24
463.846	309.24
464.056	347.79
464.265	415.02
464.475	332.29
464.685	372.2
464.895	387.32
465.104	350.5
465.314	378.99
465.524	364.45
465.733	322.02
465.943	422.77
466.153	435.95
466.362	411.54
466.572	406.89
466.782	359.03
466.991	365.81
467.201	429.17
467.41	337.33
467.62	388.09
467.829	388.29
468.039	424.52
468.249	372.59
468.458	393.52
468.668	422.97
468.877	415.6
469.086	434.78
469.296	421.03
469.505	376.27
469.715	479.15
469.924	428.59
470.134	452.03
470.343	481.67
470.552	398.17
470.762	378.6
470.971	378.79
471.18	424.13
471.39	425.1
471.599	387.32
471.808	457.65
472.018	376.08
472.227	450.67
472.436	488.26
472.645	428.39
472.855	412.5
473.064	490.2
473.273	445.83
473.482	458.62
473.691	501.43
473.901	505.89
474.11	446.02
474.319	538.25
474.528	493.3
474.737	513.83
474.946	490.97
475.155	503.76
475.364	551.42
475.573	500.27
475.783	486.9
475.992	521.78
476.201	517.13
476.41	520.03
476.619	486.71
476.828	515
477.037	496.59
477.245	491.94
477.454	566.15
477.663	500.47
477.872	509.38
478.081	598.5
478.29	510.93
478.499	623.3
478.708	535.92
478.917	604.7
479.125	573.9
479.334	567.89
479.543	543.09
479.752	563.24
479.961	556.65
480.169	627.95
480.378	569.25
480.587	687.82
480.796	647.13
481.004	602.57
481.213	615.36
481.422	578.55
481.63	581.65
481.839	637.06
482.048	669.41
482.256	648.49
482.465	648.1
482.674	641.32
482.882	679.1
483.091	696.15
483.299	666.12
483.508	658.95
483.716	630.47
483.925	680.84
484.134	607.8
484.342	621.94
484.551	690.73
484.759	705.06
484.967	704.09
485.176	714.17
485.384	703.71
485.593	736.84
485.801	685.3
486.01	661.28
486.218	658.56
486.426	588.81
486.635	601.8
486.843	594.05
487.051	652.56
487.26	618.07
487.468	643.84
487.676	679.49
487.885	667.48
488.093	660.11
488.301	700.61
488.509	701.57
488.717	748.07
488.926	693.82
489.134	704.09
489.342	721.34
489.55	678.71
489.758	730.44
489.967	717.66
490.175	821.89
490.383	744.39
490.591	855.6
490.799	719.4
491.007	795.74
491.215	757.96
491.423	752.92
491.631	780.04
491.839	752.72
492.047	828.09
492.255	738.58
492.463	717.66
492.671	737.61
492.879	810.27
493.087	772.49
493.295	810.46
493.503	818.02
493.711	840.88
493.919	831
494.127	839.14
494.334	844.95
494.542	779.27
494.75	826.15
494.958	816.66
495.166	872.85
495.374	842.82
495.581	864.9
495.789	865.49
495.997	900.94
496.205	808.72
496.412	791.67
496.62	866.26
496.828	853.09
497.035	863.74
497.243	887.38
497.451	859.29
497.658	887.77
497.866	865.49
498.074	898.81
498.281	813.75
498.489	929.81
498.696	864.9
498.904	837.78
499.112	844.37
499.319	969.53
499.527	870.52
499.734	939.69
499.942	850.37
500.149	848.24
500.357	868.58
500.564	860.06
500.771	907.33
500.979	852.5
501.186	869.55
501.394	910.63
501.601	871.3
501.808	868
502.016	898.81
502.223	880.98
502.43	867.23
502.638	893.77
502.845	872.07
503.052	945.31
503.26	885.83
503.467	967.01
503.674	916.44
503.881	921.28
504.089	976.5
504.296	955.77
504.503	882.34
504.71	940.47
504.917	893.58
505.125	931.75
505.332	957.9
505.539	966.04
505.746	997.04
505.953	993.55
506.16	985.8
506.367	1039.08
506.574	1064.85
506.781	1072.41
506.988	972.05
507.195	1004.6
507.402	987.16
507.609	1044.7
507.816	974.56
508.023	970.88
508.23	965.65
508.437	949.77
508.644	976.11
508.851	1033.85
509.058	1091.59
509.265	1041.02
509.472	1032.3
509.679	1132.27
509.885	1067.76
510.092	1043.73
510.299	1043.15
510.506	1017
510.713	1059.62
510.92	1069.5
511.126	1083.26
511.333	1111.35
511.54	1085.19
511.746	1127.63
511.953	1150.29
512.16	1089.65
512.367	1103.6
512.573	1063.11
512.78	1116.97
512.987	1088.68
513.193	1090.81
513.4	1010.02
513.606	1103.02
513.813	1135.76
514.02	1113.09
514.226	1175.09
514.433	1136.34
514.639	1067.95
514.846	1069.31
515.052	1095.66
515.259	1091.39
515.465	1139.44
515.672	1148.74
515.878	1215.59
516.085	1100.11
516.291	1172.57
516.497	1093.53
516.704	1082.29
516.91	1086.74
517.117	1035.98
517.323	986.19
517.529	1053.23
517.736	1052.45
517.942	1072.79
518.148	1072.79
518.354	1113.09
518.561	1079.77
518.767	1137.12
518.973	1197.76
519.179	1184.59
519.386	1108.44
519.592	1146.42
519.798	1131.11
520.004	1235.15
520.21	1196.41
520.417	1261.7
520.623	1249.3
520.829	1251.24
521.035	1246.78
521.241	1305.68
521.447	1283.4
521.653	1405.46
521.859	1275.84
522.065	1310.91
522.271	1384.92
522.477	1339.97
522.683	1356.25
522.889	1341.52
523.095	1292.12
523.301	1306.07
523.507	1286.5
523.713	1324.47
523.919	1304.13
524.125	1346.95
524.331	1342.88
524.537	1448.66
524.742	1422.7
524.948	1406.04
525.154	1404.68
525.36	1511.63
525.566	1412.43
525.772	1463.97
525.977	1369.23
526.183	1438.78
526.389	1464.16
526.595	1391.7
526.8	1362.25
527.006	1308.2
527.212	1333.97
527.417	1283.98
527.623	1283.4
527.829	1369.03
528.034	1378.14
528.24	1403.52
528.446	1381.24
528.651	1461.06
528.857	1461.26
529.062	1511.44
529.268	1496.13
529.473	1510.66
529.679	1505.82
529.884	1526.36
530.09	1513.57
530.295	1521.9
530.501	1487.61
530.706	1511.83
530.912	1494.58
531.117	1530.81
531.323	1574.79
531.528	1588.36
531.733	1573.05
531.939	1562.98
532.144	1579.25
532.35	1570.92
532.555	1630.79
532.76	1579.64
532.966	1599.21
533.171	1531.59
533.376	1483.54
533.581	1497.1
533.787	1512.02
533.992	1556.58
534.197	1565.11
534.402	1544.38
534.607	1569.37
534.813	1673.22
535.018	1605.99
535.223	1571.69
535.428	1613.16
535.633	1646.09
535.838	1612.77
536.043	1645.12
536.249	1699.76
536.454	1623.23
536.659	1652.29
536.864	1594.94
537.069	1616.06
537.274	1657.14
537.479	1595.14
537.684	1629.24
537.889	1591.65
538.094	1694.53
538.299	1678.25
538.504	1680.97
538.708	1641.06
538.913	1685.23
539.118	1653.26
539.323	1682.71
539.528	1614.51
539.733	1630.79
539.938	1638.54
540.142	1657.72
540.347	1636.6
540.552	1600.37
540.757	1636.79
540.962	1619.94
541.166	1536.04
541.371	1556.58
541.576	1625.56
541.781	1551.54
541.985	1656.55
542.19	1619.16
542.395	1702.47
542.599	1710.42
542.804	1662.37
543.008	1735.6
543.213	1627.69
543.418	1610.64
543.622	1677.87
543.827	1654.62
544.031	1741.8
544.236	1711.39
544.44	1676.51
544.645	1753.04
544.849	1692.4
545.054	1727.08
545.258	1806.32
545.463	1781.91
545.667	1672.64
545.872	1748.97
546.076	1707.32
546.281	1752.85
546.485	1684.26
546.689	1710.03
546.894	1756.92
547.098	1705.96
547.302	1676.7
547.507	1730.57
547.711	1758.47
547.915	1779
548.119	1690.46
548.324	1722.43
548.528	1784.43
548.732	1738.32
548.936	1791.02
549.141	1783.07
549.345	1756.72
549.549	1758.47
549.753	1747.62
549.957	1843.52
550.161	1824.73
550.366	1769.12
550.57	1750.72
550.774	1765.63
550.978	1783.07
551.182	1834.22
551.386	1776.68
551.59	1747.03
551.794	1760.98
551.998	1793.92
552.202	1740.25
552.406	1742.38
552.61	1794.12
552.814	1781.13
553.018	1818.33
553.222	1745.68
553.426	1773.38
553.63	1836.35
553.833	1738.32
554.037	1715.26
554.241	1804.97
554.445	1774.16
554.649	1769.51
554.853	1754.2
555.056	1781.33
555.26	1830.54
555.464	1764.47
555.668	1790.24
555.871	1835.96
556.075	1823.37
556.279	1786.95
556.483	1708.09
556.686	1730.18
556.89	1724.56
557.094	1741.03
557.297	1682.9
557.501	1783.85
557.704	1699.37
557.908	1740.06
558.112	1691.43
558.315	1786.17
558.519	1729.99
558.722	1747.81
558.926	1710.03
559.129	1631.56
559.333	1651.71
559.536	1652.68
559.74	1674.77
559.943	1642.99
560.147	1633.89
560.35	1675.35
560.553	1656.36
560.757	1644.93
560.96	1726.5
561.164	1676.7
561.367	1778.42
561.57	1660.24
561.774	1698.99
561.977	1669.92
562.18	1670.12
562.384	1798.38
562.587	1687.17
562.79	1671.86
562.993	1658.3
563.197	1711.19
563.4	1743.35
563.603	1761.37
563.806	1763.31
564.009	1648.61
564.212	1707.32
564.416	1637.18
564.619	1682.9
564.822	1599.98
565.025	1691.43
565.228	1650.36
565.431	1650.94
565.634	1577.12
565.837	1609.67
566.04	1618.77
566.243	1621.29
566.446	1502.53
566.649	1620.52
566.852	1543.41
567.055	1573.24
567.258	1650.74
567.461	1646.48
567.664	1633.11
567.867	1576.73
568.07	1610.64
568.273	1597.27
568.475	1628.66
568.678	1570.92
568.881	1567.43
569.084	1571.31
569.287	1502.91
569.489	1518.8
569.692	1576.54
569.895	1581.77
570.098	1533.91
570.3	1512.99
570.503	1434.71
570.706	1469.2
570.909	1452.73
571.111	1441.11
571.314	1439.36
571.516	1410.88
571.719	1469.98
571.922	1438.98
572.124	1452.73
572.327	1473.08
572.529	1434.52
572.732	1450.41
572.935	1457.19
573.137	1536.82
573.34	1447.89
573.542	1509.5
573.745	1463.58
573.947	1470.17
574.15	1434.91
574.352	1400.42
574.554	1535.85
574.757	1443.63
574.959	1416.7
575.162	1388.22
575.364	1386.47
575.566	1489.54
575.769	1416.89
575.971	1421.54
576.173	1326.41
576.376	1402.16
576.578	1428.13
576.78	1481.99
576.982	1320.98
577.185	1421.15
577.387	1348.69
577.589	1390.54
577.791	1467.85
577.993	1399.06
578.196	1380.85
578.398	1385.31
578.6	1415.15
578.802	1311.49
579.004	1318.27
579.206	1349.27
579.408	1382.79
579.61	1396.35
579.812	1433.36
580.014	1345.59
580.216	1356.05
580.418	1376.78
580.62	1367.68
580.822	1326.99
581.024	1394.03
581.226	1423.28
581.428	1388.8
581.63	1461.06
581.832	1338.23
582.034	1413.21
582.236	1416.31
582.438	1464.94
582.64	1447.11
582.841	1441.69
583.043	1487.22
583.245	1404.49
583.447	1422.7
583.649	1404.49
583.85	1406.43
584.052	1447.7
584.254	1346.37
584.456	1414.56
584.657	1377.37
584.859	1370
585.061	1366.13
585.262	1373.88
585.464	1322.92
585.666	1399.65
585.867	1305.48
586.069	1403.71
586.27	1364
586.472	1352.95
586.674	1349.66
586.875	1338.23
587.077	1337.26
587.278	1336.48
587.48	1352.76
587.681	1436.65
587.883	1342.88
588.084	1296.57
588.285	1320.02
588.487	1279.14
588.688	1325.83
588.89	1241.35
589.091	1199.31
589.292	1222.75
589.494	1192.53
589.695	1170.83
589.896	1107.09
590.098	1149.71
590.299	1190.79
590.5	1165.99
590.702	1208.81
590.903	1238.06
591.104	1267.12
591.305	1236.12
591.507	1305.48
591.708	1284.37
591.909	1224.89
592.11	1332.22
592.311	1306.26
592.512	1228.18
592.714	1175.48
592.915	1226.44
593.116	1240.39
593.317	1252.2
593.518	1244.07
593.719	1217.33
593.92	1285.14
594.121	1288.44
594.322	1260.92
594.523	1244.26
594.724	1159.4
594.925	1261.12
595.126	1214.42
595.327	1243.29
595.528	1237.87
595.729	1250.85
595.929	1258.79
596.13	1234.96
596.331	1292.12
596.532	1243.68
596.733	1300.84
596.934	1293.09
597.135	1278.36
597.335	1284.75
597.536	1250.07
597.737	1229.34
597.938	1198.54
598.138	1230.31
598.339	1246.78
598.54	1234.57
598.74	1240.77
598.941	1222.56
599.142	1284.37
599.342	1261.7
599.543	1206.87
599.744	1216.75
599.944	1254.53
600.145	1199.89
600.345	1241.74
600.546	1292.7
600.746	1269.06
600.947	1296.77
601.147	1234.77
601.348	1255.11
601.548	1199.7
601.749	1209.39
601.949	1218.1
602.15	1229.15
602.35	1206.29
602.551	1268.09
602.751	1215.39
602.951	1218.1
603.152	1150.29
603.352	1257.05
603.552	1214.42
603.753	1253.75
603.953	1264.02
604.153	1223.34
604.354	1234.57
604.554	1244.45
604.754	1232.64
604.954	1207.06
605.155	1253.56
605.355	1227.02
605.555	1284.56
605.755	1256.47
605.955	1187.69
606.155	1251.24
606.356	1229.92
606.556	1254.14
606.756	1220.82
606.956	1178.97
607.156	1310.91
607.356	1216.36
607.556	1249.88
607.756	1224.11
607.956	1250.85
608.156	1235.15
608.356	1184.78
608.556	1266.54
608.756	1215.2
608.956	1192.72
609.156	1235.54
609.356	1177.81
609.556	1166.76
609.755	1221.79
609.955	1175.09
610.155	1216.36
610.355	1221.01
610.555	1142.16
610.755	1199.7
610.954	1141.57
611.154	1213.65
611.354	1196.99
611.554	1159.4
611.753	1167.92
611.953	1140.99
612.153	1185.17
612.352	1186.33
612.552	1133.63
612.752	1111.74
612.951	1151.65
613.151	1104.38
613.351	1089.26
613.55	1116.97
613.75	1160.56
613.949	1125.49
614.149	1160.56
614.348	1168.89
614.548	1121.62
614.747	1084.42
614.947	1116.19
615.146	1054.97
615.346	1174.32
615.545	1158.62
615.745	1110.77
615.944	1137.51
616.144	1125.88
616.343	1138.09
616.542	1108.64
616.742	1120.65
616.941	1117.36
617.14	1087.71
617.34	1140.02
617.539	1109.8
617.738	1078.99
617.938	1159.4
618.137	1099.92
618.336	1080.74
618.535	1111.74
618.734	1096.63
618.934	1128.98
619.133	1090.43
619.332	1090.62
619.531	1067.37
619.73	1105.34
619.929	1146.61
620.128	1135.18
620.328	1149.13
620.527	1094.69
620.726	1097.79
620.925	1097.79
621.124	1084.61
621.323	1104.76
621.522	1041.79
621.721	1062.33
621.92	1046.25
622.119	1112.13
622.318	1057.29
622.517	1072.21
622.715	1084.61
622.914	1029.4
623.113	1052.45
623.312	985.03
623.511	1094.88
623.71	1071.83
623.909	1023.97
624.107	1155.52
624.306	997.81
624.505	1002.27
624.704	1029.01
624.902	1039.47
625.101	1100.89
625.3	1063.3
625.499	1004.21
625.697	1027.46
625.896	997.81
626.095	1057.49
626.293	959.26
626.492	1002.85
626.69	1060.39
626.889	972.05
627.088	1060.78
627.286	1012.73
627.485	988.71
627.683	969.33
627.882	1008.08
628.08	939.11
628.279	998.98
628.477	1060.2
628.676	942.21
628.874	968.17
629.073	943.57
629.271	934.27
629.469	1005.95
629.668	973.4
629.866	960.42
630.065	944.73
630.263	984.83
630.461	938.92
630.66	955.38
630.858	968.56
631.056	1015.64
631.254	990.65
631.453	914.89
631.651	1034.82
631.849	990.26
632.047	979.41
632.245	979.41
632.444	984.06
632.642	987.74
632.84	1030.75
633.038	998.4
633.236	939.69
633.434	965.46
633.632	950.93
633.83	995.1
634.028	970.5
634.227	957.9
634.425	1015.06
634.623	969.53
634.821	986.58
635.019	990.45
635.216	973.21
635.414	1010.41
635.612	985.22
635.81	968.36
636.008	1026.1
636.206	959.65
636.404	982.31
636.602	929.03
636.8	964.3
636.997	1010.21
637.195	1010.99
637.393	1000.72
637.591	1053.81
637.789	987.35
637.986	1006.73
638.184	994.91
638.382	1043.34
638.58	1011.96
638.777	1019.51
638.975	993.55
639.173	989.1
639.37	1006.73
639.568	977.66
639.765	996.26
639.963	980.38
640.161	1034.63
640.358	1035.4
640.556	942.98
640.753	937.17
640.951	930.39
641.148	973.21
641.346	956.93
641.543	949.38
641.741	977.08
641.938	949.77
642.136	944.92
642.333	927.68
642.531	989.87
642.728	993.16
642.925	937.75
643.123	921.09
643.32	974.95
643.517	917.8
643.715	963.52
643.912	947.63
644.109	956.35
644.306	943.76
644.504	914.7
644.701	922.06
644.898	968.75
645.095	899.78
645.293	930.58
645.49	938.33
645.687	943.76
645.884	996.46
646.081	902.3
646.278	880.02
646.475	892.03
646.672	872.27
646.87	921.09
647.067	875.37
647.264	914.7
647.461	866.07
647.658	835.26
647.855	897.84
648.052	845.92
648.249	776.17
648.446	861.03
648.642	832.16
648.839	832.94
649.036	840.49
649.233	837
649.43	824.99
649.627	797.67
649.824	817.63
650.021	842.43
650.217	826.35
650.414	812.4
650.611	879.24
650.808	853.28
651.004	866.84
651.201	848.05
651.398	896.1
651.595	826.54
651.791	810.07
651.988	849.02
652.185	819.18
652.381	883.7
652.578	775.39
652.775	834.1
652.971	850.18
653.168	823.83
653.364	852.7
653.561	778.49
653.757	818.02
653.954	824.6
654.15	822.09
654.347	906.95
654.543	838.75
654.74	791.67
654.936	790.7
655.133	827.7
655.329	823.44
655.525	801.74
655.722	858.32
655.918	781.79
656.115	815.11
656.311	713.39
656.507	684.91
656.704	658.18
656.9	685.3
657.096	713.39
657.292	679.29
657.489	766.67
657.685	741.87
657.881	764.74
658.077	743.04
658.273	768.03
658.47	848.63
658.666	780.43
658.862	795.93
659.058	775.39
659.254	835.65
659.45	747.88
659.646	800.77
659.842	800.97
660.038	843.79
660.234	773.46
660.43	771.52
660.626	843.4
660.822	831.39
661.018	812.01
661.214	785.47
661.41	729.28
661.606	794.77
661.802	851.15
661.998	798.64
662.194	772.29
662.39	801.55
662.586	776.17
662.781	821.5
662.977	814.14
663.173	811.24
663.369	793.8
663.564	774.62
663.76	824.02
663.956	766.87
664.152	811.04
664.347	716.88
664.543	752.53
664.739	740.71
664.934	715.91
665.13	721.14
665.326	785.47
665.521	784.3
665.717	719.98
665.912	740.13
666.108	679.68
666.304	742.65
666.499	732.19
666.695	689.95
666.89	696.54
667.086	787.6
667.281	771.52
667.477	786.63
667.672	774.62
667.867	727.15
668.063	747.69
668.258	721.92
668.454	694.99
668.649	778.49
668.844	722.5
669.04	773.46
669.235	718.82
669.43	711.65
669.626	677.36
669.821	680.84
670.016	662.83
670.211	731.02
670.407	675.23
670.602	714.94
670.797	685.49
670.992	741.29
671.187	672.13
671.382	724.44
671.578	688.59
671.773	711.84
671.968	666.89
672.163	692.86
672.358	713.78
672.553	662.05
672.748	684.53
672.943	721.14
673.138	682.01
673.333	722.31
673.528	664.76
673.723	719.79
673.918	673.29
674.113	635.31
674.308	767.45
674.503	733.16
674.698	749.04
674.892	700.22
675.087	708.74
675.282	749.43
675.477	683.56
675.672	689.76
675.867	645.78
676.061	649.46
676.256	683.56
676.451	699.64
676.646	670.19
676.84	656.43
677.035	661.47
677.23	618.26
677.424	716.49
677.619	743.23
677.814	739.74
678.008	734.32
678.203	651.78
678.397	657.79
678.592	687.24
678.787	759.51
678.981	692.86
679.176	700.61
679.37	684.14
679.565	640.74
679.759	673.29
679.954	689.56
680.148	750.59
680.342	725.99
680.537	693.05
680.731	687.24
680.926	704.48
681.12	718.24
681.314	673.09
681.509	693.82
681.703	683.36
681.897	704.67
682.092	682.78
682.286	672.13
682.48	746.91
682.674	734.32
682.869	664.18
683.063	711.65
683.257	768.42
683.451	628.92
683.645	707.58
683.839	640.54
684.034	688.21
684.228	710.1
684.422	620.01
684.616	656.63
684.81	717.07
685.004	679.29
685.198	684.33
685.392	694.21
685.586	647.52
685.78	704.09
685.974	703.9
686.168	711.07
686.362	745.17
686.556	641.9
686.75	600.83
686.944	603.93
687.138	602.96
687.331	520.23
687.525	555.88
687.719	459.78
687.913	540.18
688.107	534.95
688.301	536.11
688.494	549.1
688.688	532.24
688.882	511.51
689.076	516.74
689.269	576.41
689.463	645.97
689.657	542.31
689.85	576.8
690.044	576.41
690.238	586.88
690.431	563.24
690.625	582.23
690.818	625.63
691.012	638.99
691.205	646.36
691.399	606.83
691.593	647.33
691.786	688.01
691.98	704.48
692.173	703.32
692.366	684.14
692.56	734.12
692.753	747.3
692.947	667.86
693.14	763.77
693.333	733.16
693.527	673.68
693.72	748.85
693.914	696.15
694.107	720.17
694.3	706.03
694.493	731.02
694.687	756.6
694.88	725.21
695.073	797.67
695.266	795.93
695.46	754.86
695.653	781.59
695.846	810.27
696.039	734.32
696.232	787.6
696.425	820.73
696.618	805.42
696.812	853.67
697.005	881.57
697.198	969.33
697.391	886.6
697.584	928.45
697.777	936.01
697.97	937.75
698.163	955.19
698.356	942.21
698.549	1017.58
698.742	969.72
698.935	938.33
699.127	988.9
699.32	936.4
699.513	920.7
699.706	952.48
699.899	1001.69
700.092	975.92
700.285	1017.77
700.477	930
700.67	1016.22
700.863	1028.04
701.056	1104.76
701.248	1076.67
701.441	1062.72
701.634	1023.97
701.826	1151.07
702.019	1036.37
702.212	1112.32
702.404	1045.28
702.597	1038.7
702.79	1052.26
702.982	1107.48
703.175	1120.46
703.367	1178.19
703.56	1166.96
703.752	1247.75
703.945	1210.36
704.137	1214.81
704.33	1233.02
704.522	1263.64
704.715	1233.6
704.907	1256.08
705.1	1319.82
705.292	1283.59
705.484	1269.25
705.677	1299.67
705.869	1305.48
706.061	1359.93
706.254	1371.17
706.446	1331.25
706.638	1336.29
706.831	1435.49
707.023	1364.19
707.215	1465.13
707.407	1444.01
707.599	1452.93
707.792	1499.23
707.984	1455.06
708.176	1465.71
708.368	1450.02
708.56	1499.43
708.752	1448.86
708.944	1443.82
709.136	1519.77
709.329	1489.35
709.521	1645.9
709.713	1574.6
709.905	1561.43
710.097	1613.93
710.289	1583.51
710.481	1599.21
710.672	1650.74
710.864	1629.62
711.056	1628.85
711.248	1690.07
711.44	1694.92
711.632	1657.14
711.824	1693.95
712.016	1762.92
712.207	1742.97
712.399	1714.49
712.591	1805.93
712.783	1775.9
712.975	1811.94
713.166	1770.28
713.358	1780.55
713.55	1836.35
713.741	1837.9
713.933	1846.81
714.125	1809.03
714.316	1806.13
714.508	1883.43
714.7	1879.36
714.891	1881.5
715.083	1919.08
715.274	1851.08
715.466	1900.29
715.657	1950.66
715.849	1830.35
716.04	1895.83
716.232	1777.84
716.423	1909.2
716.615	1836.16
716.806	1797.8
716.998	1768.35
717.189	1686
717.381	1623.04
717.572	1604.44
717.763	1641.64
717.955	1610.83
718.146	1581.96
718.337	1563.17
718.528	1514.93
718.72	1486.83
718.911	1539.14
719.102	1453.51
719.293	1522.29
719.485	1485.86
719.676	1508.14
719.867	1466.68
720.058	1468.23
720.249	1489.16
720.44	1496.33
720.632	1567.82
720.823	1624.2
721.014	1668.18
721.205	1695.3
721.396	1773.19
721.587	1896.22
721.778	1893.12
721.969	1923.93
722.16	1981.66
722.351	2003.56
722.542	2131.24
722.733	2127.36
722.924	1996.78
723.115	2073.69
723.305	2081.64
723.496	2063.04
723.687	1933.23
723.878	1953.96
724.069	1968.88
724.26	1973.53
724.45	1890.41
724.641	1896.03
724.832	1932.64
725.023	1898.74
725.213	1901.84
725.404	1915.59
725.595	1915.01
725.785	1896.8
725.976	1925.48
726.167	1926.06
726.357	1918.11
726.548	2041.53
726.739	1967.52
726.929	2082.61
727.12	2066.91
727.31	2073.5
727.501	2037.27
727.691	2022.16
727.882	2016.54
728.072	2061.1
728.263	2019.83
728.453	2091.9
728.644	2095.78
728.834	2080.67
729.024	2043.66
729.215	2036.69
729.405	2091.52
729.596	2187.62
729.786	2237.6
729.976	2173.28
730.167	2196.72
730.357	2149.45
730.547	2132.98
730.737	2187.03
730.928	2218.23
731.118	2268.02
731.308	2226.56
731.498	2217.65
731.688	2287.59
731.879	2310.65
732.069	2371.68
732.259	2416.82
732.449	2410.04
732.639	2489.67
732.829	2466.81
733.019	2566.59
733.209	2610.95
733.399	2588.48
733.589	2649.51
733.779	2644.28
733.969	2664.82
734.159	2670.43
734.349	2739.99
734.539	2798.89
734.729	2749.87
734.919	2796.76
735.109	2839.96
735.299	2821.36
735.488	2805.28
735.678	2805.48
735.868	2841.13
736.058	2802.57
736.248	2793.46
736.437	2733.79
736.627	2764.79
736.817	2893.44
737.007	2819.23
737.196	2877.36
737.386	2854.49
737.576	2800.24
737.765	2880.07
737.955	2840.93
738.144	2954.47
738.334	2940.91
738.524	2893.24
738.713	2902.54
738.903	2900.22
739.092	2957.37
739.282	2946.72
739.471	2957.37
739.661	2945.94
739.85	2956.02
740.04	2998.64
740.229	3050.57
740.419	3079.63
740.608	3070.33
740.797	3035.65
740.987	3078.85
741.176	3067.81
741.365	2982.56
741.555	2984.89
741.744	3083.89
741.933	3056.38
742.123	3085.83
742.312	3099.39
742.501	3103.65
742.69	3111.02
742.88	3026.15
743.069	3147.05
743.258	3116.63
743.447	3136.98
743.636	3135.62
743.825	3123.61
744.014	3157.13
744.204	3146.86
744.393	3082.73
744.582	3200.14
744.771	3198.59
744.96	3160.81
745.149	3205.18
745.338	3133.3
745.527	3170.3
745.716	3186
745.905	3130.97
746.094	3261.17
746.283	3218.16
746.471	3223
746.66	3230.75
746.849	3245.86
747.038	3225.71
747.227	3168.36
747.416	3263.49
747.604	3149.76
747.793	3192.97
747.982	3198.2
748.171	3259.81
748.359	3227.65
748.548	3233.27
748.737	3231.53
748.926	3195.3
749.114	3134.85
749.303	3237.73
749.491	3208.47
749.68	3152.28
749.869	3258.46
750.057	3178.83
750.246	3172.82
750.434	3171.46
750.623	3149.57
750.811	3146.86
751	3187.93
751.188	3161
751.377	3167.98
751.565	3164.68
751.754	3133.1
751.942	3084.08
752.131	3187.55
752.319	3095.13
752.507	3118.18
752.696	3182.12
752.884	3231.14
753.072	3096.48
753.261	3143.18
753.449	3113.73
753.637	3113.34
753.825	3205.95
754.014	3121.28
754.202	3128.26
754.39	3157.13
754.578	3156.55
754.766	3100.75
754.955	3057.54
755.143	3166.62
755.331	3106.56
755.519	3105.01
755.707	3116.44
755.895	3093.58
756.083	3089.51
756.271	3043.2
756.459	3018.79
756.647	3086.6
756.835	3043.59
757.023	3055.99
757.211	3040.88
757.399	3050.37
757.587	3088.93
757.775	2969
757.963	3031.19
758.151	3031.39
758.339	2994.96
758.526	2985.47
758.714	3018.02
758.902	2935.48
759.09	2833.18
759.278	2646.02
759.465	2436
759.653	2114.57
759.841	1894.48
760.028	1622.46
760.216	1405.26
760.404	1318.85
760.591	1049.54
760.779	912.57
760.967	763.57
761.154	665.93
761.342	698.09
761.529	691.69
761.717	760.47
761.905	723.47
762.092	826.54
762.28	799.03
762.467	788.37
762.655	730.64
762.842	728.12
763.029	756.41
763.217	765.51
763.404	762.8
763.592	784.11
763.779	709.13
763.966	791.28
764.154	842.82
764.341	885.05
764.528	908.69
764.716	978.83
764.903	1004.79
765.09	1084.03
765.277	1094.11
765.465	1240.39
765.652	1315.17
765.839	1368.45
766.026	1469.78
766.213	1541.28
766.4	1618.19
766.588	1776.68
766.775	1792.95
766.962	1906.68
767.149	1967.71
767.336	2103.14
767.523	2045.99
767.71	2171.54
767.897	2287.78
768.084	2303.28
768.271	2347.46
768.458	2425.93
768.645	2487.92
768.832	2420.89
769.019	2444.52
769.206	2520.28
769.392	2583.83
769.579	2676.25
769.766	2623.35
769.953	2628.58
770.14	2671.21
770.327	2630.33
770.513	2693.1
770.7	2764.21
770.887	2666.75
771.073	2735.34
771.26	2733.98
771.447	2671.4
771.634	2692.33
771.82	2771.57
772.007	2673.34
772.193	2693.68
772.38	2739.02
772.567	2677.6
772.753	2713.25
772.94	2773.31
773.126	2762.27
773.313	2787.26
773.499	2746.58
773.686	2738.63
773.872	2682.83
774.059	2740.38
774.245	2693.68
774.432	2725.85
774.618	2618.7
774.804	2692.13
774.991	2686.71
775.177	2702.6
775.363	2668.5
775.55	2726.62
775.736	2622.77
775.922	2676.63
776.109	2699.5
776.295	2718.68
776.481	2646.41
776.667	2687.48
776.853	2643.89
777.04	2633.82
777.226	2655.9
777.412	2712.28
777.598	2639.82
777.784	2644.08
777.97	2607.85
778.156	2671.21
778.342	2583.25
778.528	2586.35
778.715	2516.99
778.901	2607.27
779.087	2632.46
779.272	2582.67
779.458	2538.69
779.644	2588.29
779.83	2587.51
780.016	2650.28
780.202	2582.47
780.388	2528.42
780.574	2461.57
780.76	2520.47
780.946	2553.02
781.131	2550.89
781.317	2511.76
781.503	2491.22
781.689	2501.68
781.874	2599.72
782.06	2510.21
782.246	2520.09
782.432	2479.01
782.617	2510.21
782.803	2558.06
782.989	2450.72
783.174	2434.06
783.36	2410.23
783.545	2475.14
783.731	2435.23
783.916	2389.69
784.102	2451.11
784.288	2439.49
784.473	2423.41
784.659	2409.26
784.844	2419.73
785.029	2376.52
785.215	2412.56
785.4	2321.88
785.586	2462.54
785.771	2350.75
785.956	2384.46
786.142	2344.55
786.327	2355.59
786.512	2376.13
786.698	2370.13
786.883	2291.08
787.068	2332.93
787.254	2346.68
787.439	2317.23
787.624	2302.31
787.809	2281
787.994	2324.01
788.18	2347.65
788.365	2277.13
788.55	2272.09
788.735	2317.81
788.92	2286.43
789.105	2248.07
789.29	2269.57
789.475	2213.77
789.66	2266.28
789.845	2207.96
790.03	2229.66
790.215	2225.78
790.4	2283.13
790.585	2255.23
790.77	2242.64
790.955	2133.56
791.14	2241.67
791.325	2262.21
791.51	2135.5
791.695	2181.03
791.879	2164.17
792.064	2163.4
792.249	2233.34
792.434	2149.64
792.618	2194.98
792.803	2195.75
792.988	2167.47
793.173	2201.57
793.357	2211.83
793.542	2141.31
793.727	2188.39
793.911	2204.28
794.096	2175.6
794.281	2193.62
794.465	2256.98
794.65	2156.62
794.834	2200.21
795.019	2270.93
795.203	2258.92
795.388	2219.2
795.572	2305.8
795.757	2250.97
795.941	2207.77
796.126	2242.25
796.31	2162.43
796.494	2219.97
796.679	2196.72
796.863	2141.89
797.048	2283.71
797.232	2222.88
797.416	2223.07
797.601	2211.45
797.785	2302.31
797.969	2290.11
798.153	2231.6
798.338	2242.06
798.522	2294.95
798.706	2270.15
798.89	2295.34
799.074	2389.11
799.258	2320.53
799.443	2269.76
799.627	2272.09
799.811	2311.81
799.995	2201.76
800.179	2206.99
800.363	2214.93
800.547	2270.73
800.731	2294.37
800.915	2201.95
801.099	2192.46
801.283	2224.62
801.467	2255.62
801.651	2207.18
801.835	2261.24
802.019	2266.28
802.202	2256.59
802.386	2214.55
802.57	2196.33
802.754	2237.41
802.938	2188.58
803.121	2143.83
803.305	2287.98
803.489	2180.64
803.673	2207.77
803.856	2206.02
804.04	2195.95
804.224	2191.88
804.407	2216.29
804.591	2179.48
804.775	2195.56
804.958	2254.46
805.142	2320.14
805.326	2227.92
805.509	2232.37
805.693	2324.4
805.876	2266.08
806.06	2245.16
806.243	2257.56
806.427	2278.1
806.61	2306
806.794	2219.58
806.977	2271.31
807.16	2220.75
807.344	2256.4
807.527	2256.01
807.71	2246.13
807.894	2226.17
808.077	2276.93
808.26	2174.83
808.444	2213.38
808.627	2303.67
808.81	2206.8
808.993	2153.32
809.177	2120.58
809.36	2170.37
809.543	2198.08
809.726	2107.4
809.909	2101.79
810.092	2074.86
810.276	2099.46
810.459	2099.65
810.642	2127.17
810.825	2066.72
811.008	2047.54
811.191	2018.28
811.374	2008.59
811.557	2028.94
811.74	2076.21
811.923	1976.43
812.106	1967.13
812.289	1895.45
812.472	1933.81
812.654	1977.59
812.837	1913.46
813.02	1859.41
813.203	1863.86
813.386	1762.15
813.569	1772.8
813.751	1708.67
813.934	1739.67
814.117	1721.07
814.3	1653.84
814.482	1627.49
814.665	1623.42
814.848	1587.19
815.03	1537.98
815.213	1544.76
815.396	1522.68
815.578	1500.2
815.761	1481.79
815.943	1530.81
816.126	1462.42
816.309	1412.82
816.491	1415.34
816.674	1327.38
816.856	1369.42
817.039	1339
817.221	1469.4
817.403	1391.9
817.586	1412.43
817.768	1408.95
817.951	1318.85
818.133	1290.76
818.315	1353.92
818.498	1398.48
818.68	1464.16
818.862	1411.46
819.045	1432.39
819.227	1429.29
819.409	1412.82
819.591	1412.43
819.774	1408.17
819.956	1378.53
820.138	1456.61
820.32	1473.85
820.502	1473.85
820.684	1583.71
820.866	1559.49
821.048	1604.82
821.231	1611.99
821.413	1573.05
821.595	1596.88
821.777	1600.95
821.959	1547.67
822.141	1605.21
822.323	1499.81
822.505	1458.16
822.686	1406.62
822.868	1346.56
823.05	1248.52
823.232	1256.85
823.414	1157.07
823.596	1246.2
823.778	1258.99
823.96	1264.8
824.141	1254.92
824.323	1305.1
824.505	1373.1
824.687	1423.86
824.868	1432
825.05	1537.79
825.232	1534.69
825.413	1629.62
825.595	1531.39
825.777	1472.88
825.958	1526.36
826.14	1511.63
826.321	1542.83
826.503	1531.2
826.685	1543.02
826.866	1557.74
827.048	1564.14
827.229	1483.73
827.411	1483.93
827.592	1449.05
827.773	1450.8
827.955	1428.13
828.136	1411.27
828.318	1355.28
828.499	1414.37
828.68	1363.8
828.862	1387.63
829.043	1404.49
829.224	1385.89
829.406	1351.02
829.587	1366.32
829.768	1353.53
829.949	1370.2
830.131	1361.87
830.312	1409.33
830.493	1388.8
830.674	1396.74
830.855	1396.16
831.036	1383.95
831.218	1428.51
831.399	1429.87
831.58	1369.62
831.761	1415.34
831.942	1419.6
832.123	1397.32
832.304	1391.51
832.485	1344.62
832.666	1377.95
832.847	1401.58
833.028	1408.17
833.209	1411.08
833.389	1378.72
833.57	1345.78
833.751	1367.1
833.932	1411.66
834.113	1387.63
834.294	1340.17
834.475	1394.41
834.655	1452.54
834.836	1441.69
835.017	1417.86
835.198	1346.75
835.378	1419.99
835.559	1461.06
835.74	1388.99
835.92	1400.03
836.101	1376.4
836.281	1446.15
836.462	1424.45
836.643	1438.2
836.823	1442.85
837.004	1457.58
837.184	1494.97
837.365	1464.94
837.545	1477.73
837.726	1448.86
837.906	1493.61
838.087	1463
838.267	1451.57
838.448	1396.93
838.628	1440.33
838.808	1445.56
838.989	1480.24
839.169	1384.73
839.349	1459.9
839.53	1465.91
839.71	1473.46
839.89	1458.93
840.07	1532.17
840.251	1448.08
840.431	1520.35
840.611	1458.16
840.791	1443.05
840.971	1450.41
841.151	1420.96
841.332	1402.94
841.512	1481.99
841.692	1370.78
841.872	1421.54
842.052	1416.11
842.232	1457.58
842.412	1399.65
842.592	1397.71
842.772	1465.13
842.952	1428.51
843.132	1371.36
843.312	1408.36
843.492	1370.78
843.672	1438.59
843.851	1336.87
844.031	1412.24
844.211	1348.5
844.391	1390.73
844.571	1399.84
844.751	1423.09
844.93	1403.52
845.11	1343.27
845.29	1398.1
845.47	1408.56
845.649	1386.08
845.829	1438.59
846.009	1356.44
846.188	1391.31
846.368	1389.18
846.547	1388.8
846.727	1410.11
846.907	1331.06
847.086	1403.33
847.266	1407.78
847.445	1357.22
847.625	1361.67
847.804	1315.56
847.984	1368.07
848.163	1338.42
848.343	1357.99
848.522	1364.58
848.701	1385.31
848.881	1308.78
849.06	1333.58
849.239	1351.6
849.419	1359.54
849.598	1291.15
849.777	1306.26
849.957	1283.01
850.136	1221.01
850.315	1210.16
850.494	1195.82
850.674	1214.81
850.853	1310.72
851.032	1287.27
851.211	1346.75
851.39	1314.01
851.569	1238.06
851.748	1231.67
851.927	1262.28
852.107	1266.54
852.286	1272.94
852.465	1200.28
852.644	1301.8
852.823	1305.29
853.002	1260.34
853.181	1285.92
853.359	1258.79
853.538	1159.01
853.717	1285.14
853.896	1181.87
854.075	1118.52
854.254	1110.38
854.433	1056.91
854.611	1102.63
854.79	1054.39
854.969	1109.61
855.148	1136.54
855.327	1098.56
855.505	1158.43
855.684	1128.98
855.863	1128.79
856.041	1096.24
856.22	1177.22
856.399	1121.23
856.577	1200.67
856.756	1191.56
856.934	1300.64
857.113	1327.38
857.291	1212.68
857.47	1198.15
857.648	1231.67
857.827	1227.99
858.005	1246.97
858.184	1175.48
858.362	1307.81
858.541	1187.88
858.719	1216.36
858.898	1165.02
859.076	1182.65
859.254	1246
859.433	1211.52
859.611	1175.29
859.789	1144.87
859.967	1255.5
860.146	1240.77
860.324	1145.06
860.502	1145.45
860.68	1124.33
860.859	1149.13
861.037	1177.81
861.215	1174.51
861.393	1187.3
861.571	1162.69
861.749	1158.62
861.927	1164.24
862.105	1196.02
862.283	1149.52
862.461	1152.81
862.639	1123.75
862.817	1132.27
862.995	1177.22
863.173	1147.77
863.351	1103.79
863.529	1154.94
863.707	1201.06
863.885	1173.35
864.063	1052.64
864.241	1118.33
864.418	1179.74
864.596	1137.7
864.774	1098.56
864.952	1074.93
865.129	1116
865.307	1087.33
865.485	1055.74
865.663	1142.93
865.84	1067.56
866.018	1044.12
866.196	940.47
866.373	954.8
866.551	960.23
866.728	897.07
866.906	953.45
867.084	988.32
867.261	1000.14
867.439	1001.3
867.616	1032.69
867.794	1043.15
867.971	1019.32
868.149	1021.06
868.326	1081.13
868.503	1053.23
868.681	1032.11
868.858	1027.65
869.035	992.97
869.213	1064.66
869.39	1035.4
869.567	1059.43
869.745	999.95
869.922	1044.51
870.099	1046.64
870.276	1067.76
870.454	1036.18
870.631	1048.77
870.808	1027.26
870.985	1079.58
871.162	1092.17
871.339	1023.78
871.517	989.68
871.694	1000.33
871.871	997.04
872.048	994.91
872.225	990.26
872.402	1038.89
872.579	959.06
872.756	1008.86
872.933	973.79
873.11	1003.82
873.287	1011.57
873.463	984.64
873.64	941.82
873.817	975.34
873.994	978.25
874.171	936.01
874.348	1006.34
874.524	925.74
874.701	965.26
874.878	903.85
875.055	960.03
875.231	983.67
875.408	978.63
875.585	896.48
875.762	953.83
875.938	924.97
876.115	938.72
876.291	967.01
876.468	919.54
876.645	903.46
876.821	920.9
876.998	917.22
877.174	938.33
877.351	935.23
877.527	873.23
877.704	936.98
877.88	925.35
878.057	905.4
878.233	968.95
878.409	900.55
878.586	933.49
878.762	889.32
878.938	905.2
879.115	841.27
879.291	918.18
879.467	861.22
879.644	883.31
879.82	932.72
879.996	905.4
880.172	863.55
880.349	866.65
880.525	916.25
880.701	828.29
880.877	836.81
881.053	868.2
881.229	857.35
881.405	897.07
881.581	823.83
881.757	851.34
881.933	893.77
882.109	897.84
882.285	875.95
882.461	838.94
882.637	876.14
882.813	842.24
882.989	868.97
883.165	912.18
883.341	874.2
883.517	868.78
883.693	889.32
883.869	877.5
884.044	848.44
884.22	871.1
884.396	905.78
884.572	896.1
884.747	878.27
884.923	891.06
885.099	895.32
885.275	909.47
885.45	849.02
885.626	856.77
885.801	845.53
885.977	843.4
886.153	789.34
886.328	867.62
886.504	812.79
886.679	833.71
886.855	843.59
887.03	858.51
887.206	897.07
887.381	889.32
887.557	880.21
887.732	903.65
887.908	872.27
888.083	899.2
888.258	867.03
888.434	846.5
888.609	847.85
888.784	905.4
888.96	836.04
889.135	823.44
889.31	833.52
889.485	877.69
889.661	857.35
889.836	894.35
890.011	883.7
890.186	856.57
890.361	840.69
890.537	850.95
890.712	844.95
890.887	868.58
891.062	871.1
891.237	896.87
891.412	825.19
891.587	858.51
891.762	856.19
891.937	897.26
892.112	810.27
892.287	847.47
892.462	782.37
892.637	778.3
892.812	745.36
892.987	803.49
893.161	737.81
893.336	806
893.511	787.79
893.686	788.37
893.861	766.48
894.035	778.3
894.21	804.45
894.385	741.68
894.56	779.85
894.734	727.54
894.909	737.61
895.084	721.34
895.258	703.51
895.433	704.87
895.608	711.26
895.782	645.39
895.957	689.37
896.131	667.67
896.306	590.17
896.48	634.34
896.655	620.39
896.829	570.8
897.004	589.4
897.178	586.68
897.353	578.55
897.527	649.07
897.701	570.21
897.876	558.78
898.05	615.36
898.224	600.05
898.399	618.65
898.573	603.35
898.747	466.95
898.921	537.66
899.096	450.09
899.27	487.1
899.444	484.97
899.618	465.59
899.792	497.75
899.967	522.75
900.141	545.61
900.315	493.1
900.489	501.63
900.663	510.54
900.837	502.4
901.011	476.44
901.185	562.46
901.359	523.33
901.533	525.46
901.707	510.54
901.881	531.08
902.055	446.22
902.229	499.5
902.403	578.74
902.576	474.7
902.75	485.35
902.924	615.74
903.098	557.81
903.272	574.48
903.446	636.86
903.619	595.6
903.793	639.77
903.967	623.11
904.14	658.56
904.314	626.59
904.488	615.74
904.661	662.44
904.835	617.88
905.009	647.71
905.182	707.39
905.356	668.83
905.529	648.49
905.703	606.25
905.876	618.46
906.05	589.78
906.223	570.21
906.397	550.26
906.57	487.1
906.744	499.5
906.917	501.05
907.09	514.8
907.264	494.46
907.437	477.02
907.61	430.52
907.784	471.21
907.957	465.4
908.13	437.69
908.304	479.15
908.477	446.22
908.65	462.68
908.823	411.15
908.996	500.85
909.17	433.23
909.343	438.08
909.516	429.55
909.689	434.2
909.862	432.07
910.035	440.79
910.208	403.2
910.381	445.05
910.554	519.65
910.727	448.54
910.9	407.66
911.073	391.97
911.246	485.35
911.419	494.85
911.592	475.67
911.765	446.6
911.938	407.66
912.11	443.7
912.283	451.06
912.456	493.68
912.629	461.52
912.802	426.45
912.974	384.99
913.147	371.62
913.32	312.14
913.493	338.69
913.665	376.27
913.838	375.69
914.01	355.54
914.183	391.77
914.356	378.21
914.528	383.44
914.701	447.57
914.873	462.68
915.046	384.6
915.218	347.02
915.391	285.02
915.563	302.84
915.736	367.17
915.908	425.1
916.081	392.55
916.253	370.65
916.425	373.37
916.598	398.36
916.77	374.34
916.942	350.12
917.115	291.99
917.287	372.4
917.459	371.43
917.632	321.06
917.804	268.55
917.976	339.66
918.148	347.99
918.32	373.37
918.493	379.95
918.665	411.34
918.837	391.19
919.009	445.25
919.181	433.23
919.353	422.97
919.525	390.03
919.697	373.95
919.869	373.56
920.041	459
920.213	498.72
920.385	417.93
920.557	384.02
920.729	431.1
920.901	430.13
921.073	405.53
921.244	384.22
921.416	455.9
921.588	367.94
921.76	371.82
921.932	463.85
922.103	363.49
922.275	395.45
922.447	413.47
922.619	321.44
922.79	409.6
922.962	389.06
923.134	417.15
923.305	341.01
923.477	350.89
923.648	331.32
923.82	345.85
923.991	307.88
924.163	312.72
924.335	334.04
924.506	312.34
924.677	358.45
924.849	312.72
925.02	363.29
925.192	389.84
925.363	327.26
925.535	364.07
925.706	318.15
925.877	418.51
926.049	329.19
926.22	342.75
926.391	361.94
926.562	384.41
926.734	316.02
926.905	368.33
927.076	289.67
927.247	311.95
927.419	278.62
927.59	301.49
927.761	273.01
927.932	231.54
928.103	277.85
928.274	265.06
928.445	220.31
928.616	235.42
928.787	213.53
928.958	276.11
929.129	256.92
929.3	239.29
929.471	189.31
929.642	187.95
929.813	119.95
929.984	208.88
930.155	139.32
930.326	176.33
930.496	165.28
930.667	108.51
930.838	158.11
931.009	75.19
931.18	144.55
931.35	125.56
931.521	119.36
931.692	66.67
931.863	73.06
932.033	107.74
932.204	105.22
932.374	92.63
932.545	64.92
932.716	140.1
932.886	103.86
933.057	8.54
933.227	64.53
933.398	149.4
933.568	41.67
933.739	7.77
933.909	21.72
934.08	86.81
934.25	12.42
934.421	27.53
934.591	35.47
934.761	38.77
934.932	9.12
935.102	72.67
935.272	23.85
935.443	25.4
935.613	37.22
935.783	56.01
935.953	-3.86
936.123	156.56
936.294	5.44
936.464	32.76
936.634	11.45
936.804	0.4
936.974	-6.77
937.144	61.63
937.314	49.23
937.484	12.42
937.655	23.27
937.825	82.55
937.995	7.57
938.165	62.98
938.334	17.07
938.504	43.61
938.674	49.23
938.844	54.85
939.014	98.05
939.184	88.17
939.354	127.5
939.524	95.15
939.694	46.9
939.863	63.76
940.033	124.4
940.203	136.8
940.373	93.4
940.542	101.35
940.712	83.52
940.882	113.55
941.051	116.85
941.221	99.21
941.391	127.31
941.56	71.51
941.73	39.93
941.899	153.85
942.069	90.11
942.238	104.06
942.408	89.91
942.577	81.78
942.747	48.45
942.916	5.83
943.086	32.57
943.255	128.66
943.425	93.4
943.594	54.27
943.763	-3.47
943.933	-1.34
944.102	-20.13
944.271	76.35
944.441	91.85
944.61	37.8
944.779	49.03
944.948	141.84
945.117	51.17
945.287	57.17
945.456	25.4
945.625	46.13
945.794	73.45
945.963	36.83
946.132	63.37
946.301	39.54
946.47	94.56
946.639	-9.09
946.808	30.05
946.977	85.46
947.146	89.33
947.315	35.86
947.484	73.45
947.653	36.83
947.822	46.32
947.991	14.55
948.16	125.18
948.329	109.68
948.498	63.95
948.666	29.27
948.835	95.73
949.004	26.56
949.173	-9.67
949.341	50.2
949.51	56.78
949.679	101.15
949.847	94.18
950.016	130.21
950.185	126.92
950.353	19.58
950.522	48.07
950.69	76.35
950.859	39.73
951.028	101.35
951.196	75
951.365	42.25
951.533	67.25
951.701	83.91
951.87	43.61
952.038	0.4
952.207	34.5
952.375	104.64
952.543	31.21
952.712	65.89
952.88	9.32
953.048	102.7
953.217	55.23
953.385	56.78
953.553	102.31
953.721	34.12
953.89	58.92
954.058	4.67
954.226	47.1
954.394	73.64
954.562	4.47
954.73	63.18
954.898	42.64
955.067	65.89
955.235	26.56
955.403	70.73
955.571	98.05
955.739	60.47
955.907	29.08
956.075	29.08
956.243	20.55
956.41	96.7
956.578	4.08
956.746	13.19
956.914	14.74
957.082	72.48
957.25	100.96
957.418	11.64
957.585	66.28
957.753	105.61
957.921	38.38
958.089	28.88
958.256	99.99
958.424	99.6
958.592	68.8
958.759	29.85
958.927	79.45
959.095	35.67
959.262	63.37
959.43	37.6
959.597	29.08
959.765	39.73
959.932	29.66
960.1	106.19
960.267	51.94
960.435	71.9
960.602	86.81
960.77	36.44
960.937	5.83
961.104	50.2
961.272	19.58
961.439	38.96
961.606	68.41
961.774	79.84
961.941	37.99
962.108	48.26
962.275	56.01
962.443	98.63
962.61	63.76
962.777	123.24
962.944	98.44
963.111	73.83
963.278	91.27
963.446	61.43
963.613	48.07
963.78	82.36
963.947	81.78
964.114	72.28
964.281	141.65
964.448	76.16
964.615	62.4
964.782	51.17
964.949	121.3
965.116	98.44
965.282	88.56
965.449	69.38
965.616	40.7
965.783	86.62
965.95	84.49
966.117	14.35
966.283	72.67
966.45	70.15
966.617	100.76
966.784	112.97
966.95	115.88
967.117	113.94
967.284	43.03
967.45	37.8
967.617	130.21
967.784	120.14
967.95	107.16
968.117	71.7
968.283	130.6
968.45	164.31
968.616	89.14
968.783	137.77
968.949	80.23
969.116	132.35
969.282	87.78
969.449	90.88
969.615	106.38
969.781	52.13
969.948	87.01
970.114	28.11
970.28	125.76
970.447	85.07
970.613	94.37
970.779	71.12
970.945	111.61
971.112	85.65
971.278	62.21
971.444	85.07
971.61	141.65
971.776	68.41
971.942	101.35
972.108	102.31
972.275	54.07
972.441	89.91
972.607	159.08
972.773	53.49
972.939	110.26
973.105	62.79
973.271	57.17
973.437	43.22
973.602	41.67
973.768	83.91
973.934	69.96
974.1	82.36
974.266	13.38
974.432	89.72
974.598	75.97
974.763	85.65
974.929	59.11
975.095	117.43
975.261	60.85
975.426	71.9
975.592	70.35
975.758	143.78
975.923	33.53
976.089	34.12
976.255	88.36
976.42	102.7
976.586	82.16
976.751	94.95
976.917	172.06
977.082	76.55
977.248	32.95
977.413	29.27
977.579	67.63
977.744	76.55
977.91	33.15
978.075	58.33
978.24	100.76
978.406	68.22
978.571	50.2
978.736	50.97
978.902	78.48
979.067	31.6
979.232	3.5
979.397	81.97
979.563	127.31
979.728	63.57
979.893	74.61
980.058	29.08
980.223	101.35
980.388	77.32
980.554	78.87
980.719	40.7
980.884	80.81
981.049	108.51
981.214	47.1
981.379	72.48
981.544	49.42
981.709	73.83
981.874	53.49
982.039	57.37
982.204	85.07
982.368	65.5
982.533	45.74
982.698	92.05
982.863	113.55
983.028	34.7
983.193	79.65
983.357	75
983.522	62.6
983.687	58.53
983.852	69.77
984.016	48.26
984.181	60.47
984.346	62.02
984.51	96.31
984.675	76.74
984.839	81.39
985.004	89.53
985.168	105.41
985.333	80.81
985.498	44.77
985.662	79.07
985.827	60.27
985.991	76.16
986.155	54.85
986.32	77.71
986.484	113.75
986.649	70.15
986.813	31.98
986.977	59.69
987.142	91.27
987.306	-1.15
987.47	39.93
987.634	71.9
987.799	76.93
987.963	81.2
988.127	86.23
988.291	120.72
988.455	87.78
988.62	44.58
988.784	100.18
988.948	88.36
989.112	17.07
989.276	58.72
989.44	78.1
989.604	66.86
989.768	50
989.932	130.8
990.096	40.51
990.26	15.9
990.424	25.78
990.588	49.62
990.752	117.43
990.915	75.19
991.079	49.03
991.243	49.81
991.407	75.19
991.571	56.59
991.734	83.13
991.898	75.77
992.062	163.73
992.226	65.12
992.389	29.66
992.553	-1.53
992.717	2.53
992.88	57.95
993.044	61.24
993.207	49.62
993.371	91.08
993.535	72.28
993.698	61.82
993.862	74.61
994.025	111.81
994.189	57.75
994.352	67.25
994.515	87.2
994.679	95.73
994.842	44.58
995.006	79.65
995.169	29.47
995.332	48.26
995.496	88.75
995.659	-2.31
995.822	55.43
995.985	40.51
996.149	113.55
996.312	58.53
996.475	97.47
996.638	44
996.801	107.35
996.964	126.73
997.128	37.22
997.291	36.05
997.454	82.94
997.617	9.9
997.78	106.58
997.943	52.13
998.106	91.46
998.269	35.47
998.432	31.02
998.595	48.07
998.758	4.86
998.92	-8.51
999.083	-7.73
999.246	49.81
999.409	13.19
999.572	7.38
999.735	38.18
999.897	73.06
1000.06	11.83
1000.223	10.87
1000.386	66.86
1000.548	74.42
1000.711	34.89
1000.874	66.47
1001.036	-17.23
1001.199	77.13
1001.361	49.03
1001.524	25.59
1001.687	49.62
1001.849	8.93
1002.012	52.72
1002.174	56.78
1002.337	78.1
1002.499	32.76
1002.661	77.71
1002.824	14.16
1002.986	18.03
1003.149	57.95
1003.311	13
1003.473	120.14
1003.636	19.78
1003.798	68.6
1003.96	68.02
1004.123	46.13
1004.285	20.75
1004.447	60.66
1004.609	41.87
1004.771	109.48
1004.933	-1.34
1005.096	19
1005.258	-14.51
1005.42	24.04
1005.582	62.98
1005.744	34.5
1005.906	3.89
1006.068	60.08
1006.23	-21.88
1006.392	-37.38
1006.554	6.8
1006.716	69.18
1006.878	66.47
1007.04	6.22
1007.202	15.13
1007.363	44.58
1007.525	40.7
1007.687	42.83
1007.849	67.05
1008.011	-4.83
1008.172	3.31
1008.334	43.61
1008.496	31.6
1008.658	-29.24
1008.819	23.07
1008.981	12.8
1009.143	-19.75
1009.304	-1.53
1009.466	57.56
1009.627	76.74
1009.789	146.88
1009.95	43.03
1010.112	6.6
1010.273	52.52
1010.435	21.13
1010.596	34.12
1010.758	22.49
1010.919	5.05
1011.081	-23.81
1011.242	5.83
1011.403	54.46
1011.565	41.48
1011.726	25.01
1011.887	-8.51
1012.049	32.76
1012.21	59.88
1012.371	63.76
1012.532	-24.01
1012.693	40.7
1012.855	10.48
1013.016	24.43
1013.177	61.82
1013.338	9.51
1013.499	77.9
1013.66	46.32
1013.821	63.95
1013.982	48.07
1014.143	25.4
1014.304	-15.48
1014.465	44.19
1014.626	53.88
1014.787	12.61
1014.948	130.99
1015.109	-33.7
1015.27	46.52
1015.431	-29.05
1015.592	-8.51
1015.752	73.83
1015.913	13.58
1016.074	15.9
1016.235	18.62
1016.395	3.5
1016.556	20.36
1016.717	26.75
1016.877	75.97
1017.038	-30.4
1017.199	31.6
1017.359	13.97
1017.52	26.17
1017.681	-21.49
1017.841	11.06
1018.002	5.63
1018.162	-13.16
1018.323	60.08
1018.483	41.28
1018.644	8.35
1018.804	-20.52
1018.964	-4.05
1019.125	30.43
1019.285	13.58
1019.446	-9.86
1019.606	16.48
1019.766	-46.48
1019.926	48.26
1020.087	22.1
1020.247	-12.58
1020.407	35.47
1020.567	59.5
1020.728	21.72
1020.888	-44.35
1021.048	-10.64
1021.208	-5.22
1021.368	6.99
1021.528	55.23
1021.688	52.33
1021.848	44.97
1022.008	26.95
1022.168	0.79
1022.328	30.05
1022.488	33.15
1022.648	4.47
1022.808	11.45
1022.968	15.32
1023.128	2.92
1023.288	-0.95
1023.448	13
1023.608	37.6
1023.767	36.83
1023.927	0.6
1024.087	-8.12
1024.247	-6.96
1024.406	-12.96
1024.566	4.47
1024.726	-24.4
1024.885	17.07
1025.045	28.5
1025.205	-0.37
1025.364	23.85
1025.524	21.52
1025.683	-3.67
1025.843	25.59
1026.003	-16.84
1026.162	62.4
1026.321	38.57
1026.481	19.2
1026.64	1.37
1026.8	26.17
1026.959	30.82
1027.119	12.8
1027.278	2.34
1027.437	-18.39
1027.597	16.1
1027.756	20.75
1027.915	25.4
1028.074	26.75
1028.234	-7.93
1028.393	19.78
1028.552	-9.86
1028.711	-76.13
1028.87	54.65
1029.03	-7.93
1029.189	1.57
1029.348	-44.16
1029.507	18.81
1029.666	2.34
1029.825	8.54
1029.984	-9.86
1030.143	-6.18
1030.302	11.45
1030.461	-36.21
1030.62	31.79
1030.779	50.39
1030.938	-43.19
1031.097	-25.95
1031.255	37.6
1031.414	59.5
1031.573	41.48
1031.732	-36.99
1031.891	18.23
1032.049	61.63
1032.208	30.05
1032.367	1.37
1032.525	-23.81
1032.684	-10.06
1032.843	29.66
1033.001	-47.45
1033.16	143.58
1033.319	38.57
1033.477	20.75
1033.636	-0.18
1033.794	-24.4
1033.953	44
1034.111	32.76
1034.27	5.83
1034.428	22.68
1034.587	-17.23
1034.745	-2.5
1034.903	-9.86
1035.062	28.11
1035.22	-43
1035.378	33.73
1035.537	-35.05
1035.695	30.82
1035.853	8.93
1036.011	40.7
1036.17	39.93
1036.328	-62.56
1036.486	9.12
1036.644	5.83
1036.802	-79.61
1036.96	-11.03
1037.119	10.67
1037.277	-7.73
1037.435	-33.89
1037.593	-41.25
1037.751	9.9
1037.909	44.77
1038.067	44.77
