Data from pine_FLMT105791__58__17-20-58-078.txt Node

Date: Mon Mar 20 17:20:58 GMT 2023
User: antho
Spectrometer: FLMT10579
Trigger mode: 0
Integration Time (sec): 1.000000E-1
Scans to average: 10
Electric dark correction enabled: true
Nonlinearity correction enabled: false
Boxcar width: 0
XAxis mode: Wavelengths
Number of Pixels in Spectrum: 3648
>>>>>Begin Spectral Data<<<<<
345.248	-173.45
345.464	-173.45
345.681	-173.45
345.898	-180.62
346.114	-174.81
346.331	-39.96
346.548	4.99
346.764	7.31
346.981	-23.88
347.197	-28.14
347.414	33.28
347.631	-12.06
347.847	56.53
348.064	15.84
348.28	6.15
348.497	-14.39
348.713	-5.67
348.93	17
349.146	28.24
349.363	-15.55
349.579	24.56
349.796	-0.82
350.012	-5.28
350.229	13.51
350.445	-26.2
350.661	-14.77
350.878	-8.19
351.094	40.25
351.311	53.23
351.527	34.24
351.743	-21.75
351.96	47.61
352.176	37.34
352.392	43.74
352.609	34.83
352.825	-6.83
353.041	10.22
353.257	8.67
353.474	22.43
353.69	17.2
353.906	-9.93
354.122	-32.21
354.339	50.33
354.555	-2.18
354.771	-15.55
354.987	56.53
355.203	59.63
355.42	-10.51
355.636	4.41
355.852	-16.71
356.068	6.15
356.284	-18.26
356.5	72.61
356.716	29.4
356.932	6.73
357.148	31.14
357.364	16.42
357.58	36.57
357.796	62.73
358.012	49.55
358.228	10.41
358.444	-56.04
358.66	55.56
358.876	13.71
359.092	-23.3
359.308	9.83
359.524	35.79
359.74	17.58
359.956	-19.81
360.172	32.69
360.388	44.51
360.604	2.86
360.819	72.61
361.035	12.74
361.251	30.56
361.467	2.08
361.683	48.39
361.898	50.52
362.114	32.11
362.33	25.33
362.546	42.96
362.762	11.96
362.977	6.54
363.193	-25.24
363.409	18.94
363.624	-17.1
363.84	-26.79
364.056	-11.87
364.271	33.47
364.487	25.91
364.703	0.34
364.918	-24.27
365.134	-8.96
365.35	-0.82
365.565	124.92
365.781	10.61
365.996	25.53
366.212	67.96
366.427	26.11
366.643	-11.29
366.858	-11.29
367.074	-12.06
367.289	57.3
367.505	122.21
367.72	-38.02
367.936	2.08
368.151	29.21
368.367	35.41
368.582	39.67
368.798	-27.56
369.013	42.96
369.228	33.86
369.444	18.94
369.659	69.51
369.874	28.43
370.09	56.72
370.305	-86.27
370.52	-22.52
370.736	52.84
370.951	29.98
371.166	66.41
371.381	51.68
371.597	15.45
371.812	-14.77
372.027	-12.64
372.242	23.59
372.458	78.81
372.673	-7.02
372.888	8.28
373.103	46.84
373.318	80.36
373.533	27.46
373.749	25.53
373.964	-21.55
374.179	71.83
374.394	-8.19
374.609	49.74
374.824	-26.79
375.039	82.68
375.254	-8.96
375.469	70.28
375.684	26.11
375.899	53.04
376.114	19.52
376.329	42.19
376.544	50.33
376.759	54.39
376.974	14.48
377.189	2.28
377.404	-5.47
377.619	21.65
377.834	7.31
378.049	-40.35
378.264	-26.01
378.478	28.43
378.693	-1.02
378.908	52.65
379.123	29.98
379.338	54.78
379.553	33.28
379.767	30.18
379.982	38.7
380.197	44.9
380.412	2.86
380.626	61.76
380.841	82.68
381.056	1.89
381.271	91.59
381.485	-22.33
381.7	-22.52
381.915	19.91
382.129	4.21
382.344	31.73
382.559	3.63
382.773	49.36
382.988	-32.79
383.202	22.43
383.417	-19.42
383.632	105.54
383.846	-3.73
384.061	12.16
384.275	14.48
384.49	46.45
384.704	41.41
384.919	11
385.133	25.53
385.348	32.89
385.562	-8.19
385.777	49.94
385.991	7.9
386.206	-23.88
386.42	-10.7
386.634	70.67
386.849	32.5
387.063	11.77
387.277	-16.52
387.492	10.41
387.706	-19.81
387.92	13.51
388.135	41.03
388.349	33.86
388.563	33.66
388.778	38.7
388.992	56.72
389.206	54.59
389.42	84.43
389.635	4.41
389.849	54.39
390.063	64.47
390.277	41.41
390.491	92.76
390.706	39.09
390.92	37.93
391.134	33.28
391.348	54.01
391.562	-23.3
391.776	17.97
391.99	7.51
392.205	60.59
392.419	-24.07
392.633	35.21
392.847	65.24
393.061	-1.99
393.275	76.09
393.489	40.83
393.703	19.91
393.917	67.96
394.131	-1.79
394.345	36.18
394.559	63.11
394.773	8.86
394.986	30.18
395.2	-1.4
395.414	29.01
395.628	5.57
395.842	46.45
396.056	-10.51
396.27	-50.23
396.484	51.88
396.697	33.47
396.911	57.3
397.125	57.3
397.339	55.36
397.553	38.12
397.766	98.96
397.98	60.4
398.194	83.07
398.408	6.15
398.621	28.04
398.835	61.37
399.049	4.02
399.262	65.05
399.476	60.79
399.69	22.81
399.903	86.75
400.117	26.49
400.331	43.35
400.544	11.96
400.758	128.41
400.971	37.34
401.185	66.41
401.398	3.05
401.612	83.26
401.826	60.98
402.039	45.68
402.253	4.21
402.466	57.69
402.68	-14.58
402.893	47.81
403.106	36.76
403.32	28.63
403.533	66.41
403.747	29.79
403.96	10.03
404.174	67.76
404.387	-29.11
404.6	44.71
404.814	70.86
405.027	27.27
405.24	13.71
405.454	-4.5
405.667	63.89
405.88	-24.85
406.094	60.01
406.307	54.59
406.52	43.16
406.733	3.25
406.947	-16.13
407.16	95.66
407.373	57.69
407.586	20.1
407.799	28.04
408.012	54.2
408.226	38.12
408.439	54.78
408.652	-5.67
408.865	32.89
409.078	68.34
409.291	66.6
409.504	-3.73
409.717	41.41
409.93	52.46
410.143	46.06
410.357	3.83
410.57	21.26
410.783	29.4
410.996	55.56
411.209	17.78
411.421	73.19
411.634	17.78
411.847	-24.85
412.06	32.89
412.273	11.58
412.486	37.15
412.699	114.46
412.912	32.5
413.125	74.93
413.338	21.26
413.55	58.08
413.763	55.94
413.976	56.53
414.189	2.28
414.402	42.19
414.615	77.06
414.827	2.28
415.04	67.57
415.253	63.5
415.466	66.02
415.678	106.9
415.891	33.08
416.104	45.09
416.316	23.98
416.529	-1.79
416.742	45.87
416.954	59.04
417.167	47.03
417.38	13.13
417.592	64.08
417.805	7.31
418.017	-15.16
418.23	72.22
418.442	10.22
418.655	14.87
418.868	36.96
419.08	53.43
419.293	76.48
419.505	43.93
419.718	81.71
419.93	74.16
420.142	20.49
420.355	70.86
420.567	68.93
420.78	60.98
420.992	21.84
421.205	83.07
421.417	-25.82
421.629	22.81
421.842	-8.77
422.054	1.5
422.266	71.06
422.479	87.14
422.691	25.72
422.903	94.69
423.115	17
423.328	48
423.54	59.82
423.752	51.1
423.964	2.86
424.177	45.48
424.389	47.42
424.601	189.63
424.813	81.71
425.025	78.81
425.238	83.65
425.45	34.44
425.662	12.35
425.874	316.92
426.086	36.18
426.298	64.28
426.51	74.16
426.722	70.48
426.934	24.36
427.146	66.21
427.358	1.89
427.57	85.01
427.782	45.09
427.994	75.9
428.206	46.26
428.418	-1.02
428.63	53.43
428.842	81.13
429.054	39.09
429.266	81.52
429.478	24.36
429.69	48.19
429.902	16.61
430.114	90.43
430.325	58.46
430.537	65.24
430.749	49.16
430.961	25.72
431.173	37.54
431.384	88.3
431.596	-14.58
431.808	56.91
432.02	61.37
432.231	79
432.443	94.5
432.655	74.54
432.867	42.77
433.078	64.86
433.29	134.22
433.502	86.94
433.713	80.94
433.925	52.65
434.136	116.97
434.348	33.66
434.56	14.29
434.771	159.99
434.983	23.59
435.194	31.34
435.406	64.66
435.617	115.81
435.829	133.25
436.04	96.24
436.252	102.83
436.463	114.07
436.675	91.01
436.886	79
437.098	62.92
437.309	129.18
437.521	84.43
437.732	123.17
437.943	80.36
438.155	79.58
438.366	20.1
438.578	141
438.789	62.34
439	122.98
439.211	53.23
439.423	112.52
439.634	98.18
439.845	115.23
440.057	78.81
440.268	133.83
440.479	67.96
440.69	57.69
440.902	94.11
441.113	73.19
441.324	75.51
441.535	86.75
441.746	134.22
441.957	74.74
442.168	84.62
442.38	130.92
442.591	112.52
442.802	70.09
443.013	85.39
443.224	110.77
443.435	67.76
443.646	89.85
443.857	89.46
444.068	65.44
444.279	70.28
444.49	148.94
444.701	108.26
444.912	190.41
445.123	114.84
445.334	122.01
445.545	114.65
445.756	111.55
445.967	76.48
446.178	87.72
446.388	126.66
446.599	142.74
446.81	144.87
447.021	94.89
447.232	171.22
447.443	172
447.653	87.53
447.864	144.49
448.075	128.79
448.286	160.76
448.496	106.71
448.707	143.13
448.918	99.15
449.129	210.75
449.339	81.71
449.55	147.78
449.761	129.96
449.971	151.07
450.182	103.41
450.393	148.36
450.603	97.21
450.814	146.04
451.024	120.27
451.235	152.82
451.446	189.44
451.656	144.68
451.867	104.19
452.077	155.14
452.288	209
452.498	192.34
452.709	137.51
452.919	132.28
453.13	113.1
453.34	183.04
453.55	98.57
453.761	171.61
453.971	137.9
454.182	173.94
454.392	138.29
454.602	200.48
454.813	172
455.023	179.75
455.233	93.53
455.444	146.62
455.654	97.99
455.864	147.97
456.075	139.64
456.285	109.42
456.495	147.2
456.705	149.14
456.916	180.33
457.126	199.51
457.336	163.47
457.546	104.77
457.756	118.52
457.967	175.49
458.177	149.72
458.387	177.62
458.597	92.56
458.807	112.32
459.017	134.99
459.227	146.42
459.437	140.03
459.647	161.73
459.857	189.63
460.068	131.31
460.278	207.45
460.488	163.86
460.698	217.53
460.908	140.61
461.117	101.28
461.327	130.92
461.537	158.24
461.747	159.79
461.957	136.93
462.167	263.64
462.377	179.94
462.587	157.08
462.797	188.47
463.007	186.34
463.216	190.41
463.426	206.87
463.636	195.83
463.846	93.92
464.056	139.06
464.265	195.44
464.475	129.37
464.685	165.8
464.895	183.43
465.104	171.61
465.314	188.27
465.524	155.72
465.733	136.35
465.943	231.29
466.153	239.42
466.362	190.41
466.572	183.24
466.782	183.82
466.991	159.79
467.201	252.79
467.41	148.94
467.62	220.44
467.829	176.84
468.039	209.2
468.249	168.12
468.458	179.17
468.668	198.54
468.877	180.72
469.086	219.27
469.296	229.93
469.505	148.94
469.715	240
469.924	196.99
470.134	252.99
470.343	229.93
470.552	198.15
470.762	174.91
470.971	171.61
471.18	220.63
471.39	194.86
471.599	159.79
471.808	216.56
472.018	151.27
472.227	227.02
472.436	220.24
472.645	183.62
472.855	177.62
473.064	219.47
473.273	201.06
473.482	242.91
473.691	251.82
473.901	242.33
474.11	211.72
474.319	282.05
474.528	200.87
474.737	257.64
474.946	235.35
475.155	208.62
475.364	264.61
475.573	224.7
475.783	231.48
475.992	240.59
476.201	267.32
476.41	229.35
476.619	201.84
476.828	227.02
477.037	205.32
477.245	220.82
477.454	257.25
477.663	222.18
477.872	212.49
478.081	290.57
478.29	194.09
478.499	316.92
478.708	248.72
478.917	293.87
479.125	246.98
479.334	253.37
479.543	195.64
479.752	236.52
479.961	265.58
480.169	273.52
480.378	231.09
480.587	346.95
480.796	257.05
481.004	251.05
481.213	286.5
481.422	245.82
481.63	243.88
481.839	309.75
482.048	312.08
482.256	244.85
482.465	284.37
482.674	302.78
482.882	296.77
483.091	354.9
483.299	271.39
483.508	290.57
483.716	271.59
483.925	260.15
484.134	286.7
484.342	255.5
484.551	309.17
484.759	312.85
484.967	288.44
485.176	316.34
485.384	320.02
485.593	357.22
485.801	302
486.01	285.73
486.218	305.3
486.426	230.7
486.635	310.53
486.843	263.06
487.051	285.53
487.26	256.67
487.468	320.6
487.676	327.19
487.885	260.93
488.093	303.55
488.301	330.29
488.509	308.59
488.717	339.98
488.926	302.97
489.134	299.87
489.342	309.17
489.55	303.94
489.758	307.62
489.967	268.1
490.175	398.3
490.383	306.27
490.591	368.85
490.799	281.47
491.007	351.6
491.215	338.04
491.423	313.24
491.631	319.25
491.839	335.72
492.047	357.61
492.255	324.28
492.463	253.18
492.671	315.57
492.879	384.15
493.087	312.47
493.295	319.05
493.503	359.16
493.711	356.83
493.919	381.25
494.127	367.68
494.334	357.8
494.542	284.95
494.75	332.03
494.958	338.23
495.166	392.68
495.374	349.08
495.581	352.38
495.789	358.38
495.997	396.94
496.205	340.95
496.412	350.83
496.62	328.16
496.828	367.88
497.035	348.89
497.243	363.81
497.451	378.92
497.658	375.63
497.866	378.34
498.074	445.96
498.281	340.95
498.489	444.8
498.696	415.15
498.904	371.95
499.112	369.23
499.319	406.63
499.527	343.66
499.734	399.65
499.942	340.75
500.149	358.38
500.357	365.75
500.564	314.21
500.771	367.68
500.979	337.07
501.186	353.35
501.394	359.55
501.601	400.04
501.808	421.74
502.016	370.78
502.223	366.33
502.43	419.61
502.638	386.48
502.845	351.41
503.052	453.32
503.26	358.38
503.467	443.05
503.674	378.34
503.881	413.21
504.089	478.31
504.296	426.97
504.503	333.39
504.71	415.15
504.917	360.32
505.125	427.36
505.332	422.13
505.539	391.13
505.746	462.43
505.953	408.56
506.16	411.47
506.367	462.62
506.574	469.79
506.781	484.51
506.988	375.43
507.195	427.36
507.402	397.13
507.609	467.46
507.816	403.72
508.023	409.92
508.23	418.45
508.437	393.65
508.644	449.64
508.851	478.12
509.058	473.66
509.265	440.34
509.472	463.59
509.679	516.48
509.885	432.98
510.092	471.14
510.299	440.15
510.506	457.78
510.713	446.73
510.92	448.67
511.126	481.03
511.333	496.72
511.54	481.41
511.746	535.47
511.953	501.76
512.16	516.48
512.367	446.93
512.573	439.56
512.78	473.08
512.987	448.09
513.193	482.38
513.4	382.99
513.606	471.14
513.813	501.95
514.02	484.71
514.226	554.84
514.433	525.59
514.639	428.13
514.846	516.68
515.052	459.71
515.259	486.45
515.465	474.83
515.672	493.04
515.878	544.96
516.085	479.28
516.291	512.99
516.497	449.64
516.704	462.62
516.91	445.57
517.117	427.36
517.323	401.2
517.529	494.59
517.736	481.61
517.942	464.56
518.148	431.62
518.354	484.71
518.561	499.04
518.767	489.55
518.973	537.99
519.179	536.44
519.386	483.93
519.592	489.94
519.798	455.65
520.004	529.08
520.21	484.51
520.417	525.2
520.623	556.78
520.829	530.04
521.035	561.62
521.241	549.22
521.447	563.95
521.653	657.53
521.859	519.19
522.065	547.48
522.271	644.94
522.477	592.04
522.683	606.38
522.889	591.07
523.095	605.02
523.301	577.32
523.507	536.63
523.713	547.87
523.919	535.86
524.125	591.46
524.331	544.77
524.537	642.03
524.742	629.82
524.948	622.66
525.154	594.37
525.36	704.42
525.566	629.82
525.772	639.7
525.977	574.61
526.183	635.05
526.389	665.28
526.595	605.99
526.8	596.31
527.006	558.14
527.212	548.84
527.417	569.76
527.623	546.32
527.829	620.14
528.034	624.59
528.24	603.28
528.446	582.16
528.651	645.13
528.857	605.02
529.062	677.49
529.268	625.17
529.473	624.01
529.679	597.27
529.884	680.39
530.09	665.28
530.295	712.36
530.501	690.27
530.706	677.68
530.912	642.61
531.117	667.02
531.323	647.26
531.528	665.67
531.733	664.5
531.939	652.88
532.144	672.25
532.35	696.47
532.555	734.25
532.76	703.45
532.966	723.98
533.171	697.64
533.376	674.97
533.581	649.2
533.787	667.6
533.992	693.76
534.197	716.62
534.402	652.1
534.607	672.25
534.813	812.33
535.018	683.49
535.223	659.66
535.428	703.84
535.633	720.5
535.838	757.12
536.043	729.22
536.249	809.43
536.454	709.07
536.659	738.32
536.864	681.17
537.069	702.67
537.274	711
537.479	736
537.684	726.89
537.889	683.88
538.094	794.12
538.299	730.77
538.504	732.7
538.708	718.56
538.913	746.46
539.118	705.19
539.323	782.5
539.528	729.8
539.733	723.4
539.938	761.18
540.142	753.24
540.347	715.27
540.552	723.02
540.757	738.52
540.962	742.58
541.166	707.9
541.371	678.65
541.576	731.93
541.781	631.96
541.985	716.43
542.19	747.04
542.395	788.31
542.599	801.48
542.804	785.98
543.008	807.68
543.213	736.38
543.418	736.58
543.622	782.5
543.827	714.3
544.031	795.28
544.236	802.26
544.44	721.66
544.645	865.61
544.849	725.53
545.054	811.36
545.258	858.83
545.463	831.9
545.667	764.28
545.872	795.09
546.076	769.52
546.281	769.32
546.485	777.27
546.689	798.38
546.894	815.63
547.098	787.73
547.302	711.78
547.507	789.08
547.711	759.63
547.915	830.74
548.119	742.58
548.324	773.58
548.528	858.64
548.732	791.02
548.936	806.13
549.141	810.59
549.345	812.33
549.549	769.52
549.753	807.49
549.957	866.78
550.161	849.34
550.366	807.49
550.57	784.43
550.774	799.55
550.978	793.73
551.182	820.66
551.386	760.6
551.59	752.66
551.794	769.13
551.998	805.55
552.202	776.88
552.406	729.41
552.61	767
552.814	813.5
553.018	851.47
553.222	772.42
553.426	804.97
553.63	864.65
553.833	807.3
554.037	736.19
554.241	809.23
554.445	801.29
554.649	792.96
554.853	779.4
555.056	833.45
555.26	788.12
555.464	809.04
555.668	814.85
555.871	831.51
556.075	861.93
556.279	785.98
556.483	764.28
556.686	793.15
556.89	810.98
557.094	818.73
557.297	722.63
557.501	844.88
557.704	739.1
557.908	838.68
558.112	769.32
558.315	827.06
558.519	802.07
558.722	783.27
558.926	788.5
559.129	752.08
559.333	711.97
559.536	737.16
559.74	734.64
559.943	714.88
560.147	710.04
560.35	769.32
560.553	736.19
560.757	695.12
560.96	833.84
561.164	726.12
561.367	793.93
561.57	756.73
561.774	785.6
561.977	752.47
562.18	737.35
562.384	831.9
562.587	770.48
562.79	723.21
562.993	744.72
563.197	805.36
563.4	810.59
563.603	796.83
563.806	838.3
564.009	772.62
564.212	792.18
564.416	703.25
564.619	765.45
564.822	727.67
565.025	782.5
565.228	720.69
565.431	776.49
565.634	672.84
565.837	748.78
566.04	709.26
566.243	725.34
566.446	663.15
566.649	766.22
566.852	695.12
567.055	738.52
567.258	749.75
567.461	800.71
567.664	768.55
567.867	666.83
568.07	743.94
568.273	767.38
568.475	784.82
568.678	735.22
568.881	737.35
569.084	736.97
569.287	658.69
569.489	666.83
569.692	726.5
569.895	738.71
570.098	687.56
570.3	664.5
570.503	633.5
570.706	654.04
570.909	678.65
571.111	605.02
571.314	636.8
571.516	636.6
571.719	686.2
571.922	674.19
572.124	612.58
572.327	646.87
572.529	605.99
572.732	609.67
572.935	666.05
573.137	702.09
573.34	639.7
573.542	690.08
573.745	686.98
573.947	674.77
574.15	664.7
574.352	638.54
574.554	690.08
574.757	634.86
574.959	663.34
575.162	595.53
575.364	631.57
575.566	723.4
575.769	602.89
575.971	645.9
576.173	554.84
576.376	628.86
576.578	652.3
576.78	691.24
576.982	586.04
577.185	631.96
577.387	584.29
577.589	586.04
577.791	651.33
577.993	659.66
578.196	609.29
578.398	647.07
578.6	681.17
578.802	586.81
579.004	597.08
579.206	603.47
579.408	637.19
579.61	593.01
579.812	618.39
580.014	593.4
580.216	602.7
580.418	611.61
580.62	587.59
580.822	533.34
581.024	613.36
581.226	651.91
581.428	591.27
581.63	631.96
581.832	568.99
582.034	668.57
582.236	606.96
582.438	610.64
582.64	667.8
582.841	674.39
583.043	690.47
583.245	623.24
583.447	663.54
583.649	635.44
583.85	658.5
584.052	695.5
584.254	608.32
584.456	669.35
584.657	578.67
584.859	632.73
585.061	647.65
585.262	594.95
585.464	610.64
585.666	625.95
585.867	609.48
586.069	674
586.27	651.52
586.472	602.12
586.674	624.21
586.875	583.91
587.077	578.29
587.278	608.51
587.48	605.8
587.681	711.59
587.883	590.3
588.084	551.16
588.285	602.7
588.487	573.06
588.688	610.06
588.89	575.96
589.091	540.89
589.292	570.54
589.494	531.01
589.695	562.01
589.896	530.24
590.098	513.19
590.299	583.52
590.5	511.44
590.702	524.43
590.903	565.11
591.104	597.86
591.305	573.06
591.507	629.63
591.708	577.71
591.909	550.97
592.11	622.85
592.311	585.26
592.512	547.29
592.714	529.46
592.915	525.01
593.116	568.21
593.317	552.32
593.518	533.73
593.719	536.05
593.92	595.34
594.121	586.62
594.322	562.01
594.523	557.75
594.724	523.46
594.925	536.63
595.126	586.04
595.327	602.12
595.528	578.29
595.729	580.03
595.929	561.43
596.13	550.77
596.331	563.95
596.532	547.48
596.733	625.76
596.934	595.53
597.135	602.31
597.335	584.68
597.536	545.74
597.737	591.46
597.938	554.46
598.138	576.74
598.339	564.34
598.54	573.83
598.74	561.24
598.941	560.85
599.142	594.56
599.342	583.13
599.543	538.38
599.744	568.6
599.944	549.42
600.145	551.36
600.345	588.36
600.546	647.26
600.746	605.99
600.947	649.2
601.147	594.76
601.348	614.52
601.548	571.51
601.749	589.52
601.949	550.58
602.15	555.42
602.35	591.46
602.551	594.56
602.751	562.01
602.951	531.01
603.152	489.94
603.352	580.61
603.552	568.41
603.753	583.13
603.953	573.64
604.153	568.6
604.354	551.94
604.554	538.96
604.754	568.21
604.954	518.03
605.155	572.47
605.355	536.44
605.555	604.44
605.755	602.31
605.955	553.68
606.155	601.73
606.356	539.54
606.556	583.91
606.756	568.6
606.956	518.81
607.156	592.62
607.356	543.41
607.556	545.74
607.756	555.04
607.956	593.21
608.156	568.02
608.356	529.46
608.556	565.31
608.756	546.32
608.956	520.74
609.156	573.64
609.356	529.27
609.556	521.91
609.755	566.66
609.955	507.76
610.155	564.34
610.355	565.31
610.555	527.14
610.755	547.67
610.954	489.16
611.154	550.19
611.354	571.89
611.554	527.72
611.753	516.29
611.953	516.87
612.153	561.62
612.352	536.24
612.552	492.07
612.752	472.5
612.951	512.8
613.151	556.2
613.351	511.83
613.55	486.26
613.75	543.8
613.949	527.14
614.149	563.56
614.348	523.07
614.548	479.67
614.747	464.94
614.947	491.1
615.146	432.2
615.346	534.69
615.545	529.66
615.745	533.92
615.944	556.01
616.144	504.47
616.343	548.45
616.542	497.88
616.742	525.39
616.941	493.04
617.14	464.75
617.34	508.34
617.539	509.89
617.738	468.43
617.938	562.98
618.137	492.65
618.336	456.81
618.535	474.63
618.734	524.62
618.934	523.46
619.133	495.17
619.332	496.72
619.531	484.32
619.73	493.04
619.929	537.02
620.128	501.37
620.328	522.1
620.527	459.33
620.726	486.26
620.925	499.63
621.124	470.95
621.323	517.45
621.522	478.89
621.721	481.03
621.92	454.48
622.119	489.74
622.318	474.05
622.517	486.64
622.715	447.31
622.914	412.05
623.113	464.94
623.312	439.56
623.511	484.51
623.71	472.89
623.909	454.68
624.107	523.84
624.306	463.59
624.505	428.71
624.704	427.16
624.902	444.8
625.101	501.95
625.3	485.29
625.499	444.21
625.697	454.48
625.896	451.38
626.095	481.8
626.293	416.9
626.492	410.11
626.69	454.68
626.889	452.74
627.088	507.18
627.286	425.61
627.485	413.6
627.683	434.14
627.882	472.5
628.08	422.32
628.279	444.99
628.477	492.46
628.676	427.55
628.874	470.56
629.073	434.72
629.271	395.58
629.469	475.21
629.668	463.2
629.866	485.48
630.065	400.23
630.263	456.81
630.461	436.46
630.66	446.15
630.858	473.86
631.056	484.9
631.254	466.49
631.453	413.02
631.651	448.09
631.849	432.2
632.047	451
632.245	452.74
632.444	448.67
632.642	460.88
632.84	459.52
633.038	446.35
633.236	417.48
633.434	389.96
633.632	414.96
633.83	426
634.028	467.66
634.227	430.26
634.425	519.97
634.623	451.77
634.821	452.93
635.019	475.41
635.216	401.2
635.414	469.79
635.612	463.39
635.81	423.29
636.008	499.63
636.206	440.92
636.404	458.16
636.602	415.93
636.8	448.28
636.997	463.01
637.195	468.04
637.393	478.7
637.591	508.15
637.789	463.78
637.986	434.91
638.184	453.13
638.382	459.52
638.58	466.49
638.777	489.36
638.975	407.4
639.173	447.9
639.37	448.48
639.568	448.67
639.765	468.43
639.963	415.15
640.161	480.64
640.358	484.9
640.556	416.7
640.753	423.68
640.951	396.55
641.148	432.59
641.346	402.95
641.543	424.65
641.741	476.96
641.938	405.66
642.136	432.2
642.333	392.68
642.531	468.63
642.728	488.78
642.925	438.6
643.123	413.02
643.32	422.71
643.517	443.44
643.715	461.84
643.912	406.05
644.109	470.18
644.306	422.51
644.504	394.42
644.701	413.41
644.898	457.39
645.095	393.45
645.293	407.01
645.49	451.58
645.687	414.18
645.884	465.33
646.081	364.97
646.278	376.79
646.475	396.36
646.672	412.25
646.87	431.23
647.067	453.9
647.264	430.85
647.461	372.33
647.658	354.12
647.855	449.06
648.052	389.96
648.249	347.73
648.446	397.33
648.642	367.3
648.839	374.46
649.036	383.96
649.233	355.87
649.43	354.12
649.627	368.85
649.824	364.78
650.021	364.97
650.217	359.16
650.414	371.17
650.611	385.12
650.808	398.1
651.004	411.66
651.201	383.96
651.398	424.26
651.595	409.73
651.791	350.83
651.988	401.01
652.185	357.03
652.381	380.47
652.578	358
652.775	365.75
652.971	394.81
653.168	393.84
653.364	409.53
653.561	338.23
653.757	380.86
653.954	379.5
654.15	355.09
654.347	446.93
654.543	358.19
654.74	334.36
654.936	340.75
655.133	368.85
655.329	361.1
655.525	375.63
655.722	416.12
655.918	324.09
656.115	396.75
656.311	349.67
656.507	341.92
656.704	300.26
656.9	331.07
657.096	304.52
657.292	293.09
657.489	394.42
657.685	374.46
657.881	331.07
658.077	328.16
658.273	333.58
658.47	390.55
658.666	354.51
658.862	397.71
659.058	326.61
659.254	410.5
659.45	335.52
659.646	346.57
659.842	340.75
660.038	413.21
660.234	328.55
660.43	357.61
660.626	409.92
660.822	350.83
661.018	360.13
661.214	367.88
661.41	308.4
661.606	375.43
661.802	377.37
661.998	343.27
662.194	311.69
662.39	360.52
662.586	364.2
662.781	396.36
662.977	360.13
663.173	380.86
663.369	376.4
663.564	368.46
663.76	376.98
663.956	329.71
664.152	387.64
664.347	282.82
664.543	345.98
664.739	339.4
664.934	291.73
665.13	285.92
665.326	406.82
665.521	352.18
665.717	282.44
665.912	280.5
666.108	273.14
666.304	313.63
666.499	327
666.695	253.76
666.89	343.47
667.086	342.88
667.281	350.05
667.477	403.91
667.672	362.26
667.867	339.4
668.063	340.37
668.258	308.4
668.454	339.78
668.649	423.29
668.844	347.73
669.04	339.01
669.235	323.7
669.43	316.34
669.626	296.97
669.821	293.48
670.016	320.22
670.211	319.83
670.407	310.92
670.602	313.43
670.797	336.88
670.992	365.17
671.187	307.43
671.382	366.33
671.578	301.42
671.773	347.73
671.968	289.99
672.163	348.31
672.358	344.63
672.553	309.37
672.748	308.59
672.943	399.26
673.138	318.47
673.333	341.92
673.528	303.94
673.723	344.63
673.918	334.75
674.113	289.99
674.308	407.79
674.503	336.1
674.698	338.82
674.892	337.07
675.087	366.72
675.282	348.12
675.477	299.87
675.672	347.73
675.867	301.03
676.061	297.74
676.256	276.82
676.451	305.49
676.646	336.88
676.84	276.04
677.035	281.66
677.23	286.5
677.424	329.32
677.619	348.5
677.814	352.38
678.008	321.96
678.203	258.8
678.397	274.49
678.592	316.34
678.787	363.03
678.981	298.13
679.176	301.81
679.37	296.19
679.565	255.89
679.759	283.4
679.954	316.34
680.148	372.72
680.342	349.47
680.537	339.2
680.731	309.95
680.926	342.69
681.12	335.72
681.314	262.67
681.509	291.54
681.703	329.71
681.897	325.06
682.092	321.38
682.286	267.52
682.48	349.86
682.674	350.83
682.869	301.81
683.063	322.93
683.257	387.25
683.451	267.32
683.645	313.82
683.839	310.53
684.034	314.6
684.228	346.95
684.422	274.69
684.616	283.99
684.81	307.43
685.004	340.75
685.198	298.71
685.392	339.59
685.586	274.49
685.78	321.77
685.974	328.93
686.168	317.12
686.362	355.87
686.556	296.38
686.75	263.25
686.944	282.24
687.138	338.23
687.331	242.14
687.525	284.57
687.719	234.58
687.913	270.42
688.107	282.24
688.301	229.93
688.494	262.29
688.688	232.06
688.882	204.35
689.076	219.47
689.269	258.41
689.463	334.17
689.657	253.95
689.85	253.57
690.044	269.26
690.238	278.17
690.431	238.45
690.625	275.27
690.818	282.63
691.012	264.8
691.205	301.62
691.399	261.7
691.593	299.87
691.786	377.95
691.98	328.55
692.173	363.62
692.366	317.5
692.56	305.1
692.753	388.03
692.947	308.4
693.14	351.99
693.333	348.31
693.527	288.83
693.72	353.54
693.914	322.54
694.107	338.23
694.3	348.7
694.493	352.57
694.687	365.17
694.88	302.58
695.073	386.28
695.266	369.43
695.46	329.13
695.653	398.49
695.846	399.07
696.039	330.29
696.232	344.43
696.425	374.27
696.618	373.69
696.812	373.11
697.005	427.16
697.198	498.27
697.391	411.28
697.584	420
697.777	476.18
697.97	455.06
698.163	460.29
698.356	425.42
698.549	507.96
698.742	459.13
698.935	449.06
699.127	462.81
699.32	431.04
699.513	440.73
699.706	482.77
699.899	483.16
700.092	448.67
700.285	525.2
700.477	405.27
700.67	478.7
700.863	498.08
701.056	582.16
701.248	519.58
701.441	518.81
701.634	493.23
701.826	586.23
702.019	498.46
702.212	538.38
702.404	474.83
702.597	488.78
702.79	494.01
702.982	539.54
703.175	568.21
703.367	544.38
703.56	544.77
703.752	632.73
703.945	548.64
704.137	580.03
704.33	620.72
704.522	609.48
704.715	589.52
704.907	618.39
705.1	622.46
705.292	647.45
705.484	614.52
705.677	655.98
705.869	643.97
706.061	673.61
706.254	684.27
706.446	647.45
706.638	630.41
706.831	717.01
707.023	656.75
707.215	741.03
707.407	696.47
707.599	703.06
707.792	748.98
707.984	727.67
708.176	770.48
708.368	698.41
708.56	754.6
708.752	724.37
708.944	700.54
709.136	774.36
709.329	753.63
709.521	859.41
709.713	811.56
709.905	807.1
710.097	830.16
710.289	776.88
710.481	803.81
710.672	837.91
710.864	818.73
711.056	887.31
711.248	819.7
711.44	869.49
711.632	835.97
711.824	851.28
712.016	904.75
712.207	888.48
712.399	882.08
712.591	965.98
712.783	898.94
712.975	934.39
713.166	860.96
713.358	923.93
713.55	980.31
713.741	942.14
713.933	941.76
714.125	966.56
714.316	915.6
714.508	958.61
714.7	1014.8
714.891	961.13
715.083	1037.08
715.274	985.35
715.466	976.24
715.657	1052.58
715.849	943.11
716.04	1011.31
716.232	951.83
716.423	1010.92
716.615	951.64
716.806	966.94
716.998	935.56
717.189	917.73
717.381	863.1
717.572	868.71
717.763	891.19
717.955	874.53
718.146	859.22
718.337	812.53
718.528	802.07
718.72	768.35
718.911	827.64
719.102	775.33
719.293	819.89
719.485	834.81
719.676	826.28
719.867	773.58
720.058	800.32
720.249	798.97
720.44	830.16
720.632	847.6
720.823	876.27
721.014	935.94
721.205	946.21
721.396	966.36
721.587	1008.02
721.778	1035.34
721.969	1032.24
722.16	1058.2
722.351	1064.01
722.542	1163.4
722.733	1147.13
722.924	1066.72
723.115	1116.52
723.305	1171.15
723.496	1155.65
723.687	1050.84
723.878	1075.64
724.069	1062.46
724.26	1099.85
724.45	1042.7
724.641	1019.26
724.832	1097.53
725.023	1051.61
725.213	1020.42
725.404	1043.09
725.595	1065.95
725.785	1023.52
725.976	1099.08
726.167	1084.35
726.357	1079.9
726.548	1175.42
726.739	1112.06
726.929	1123.3
727.12	1180.45
727.31	1174.25
727.501	1174.64
727.691	1166.7
727.882	1184.91
728.072	1210.48
728.263	1179.1
728.453	1257.37
728.644	1185.1
728.834	1200.41
729.024	1194.79
729.215	1193.24
729.405	1203.7
729.596	1245.75
729.786	1263.76
729.976	1279.26
730.167	1269
730.357	1242.65
730.547	1246.91
730.737	1296.7
730.928	1313.56
731.118	1319.95
731.308	1296.7
731.498	1345.72
731.688	1370.13
731.879	1363.16
732.069	1405.78
732.259	1392.99
732.449	1390.48
732.639	1460.61
732.829	1458.87
733.019	1485.8
733.209	1530.55
733.399	1535.01
733.589	1577.05
733.779	1581.32
733.969	1529.2
734.159	1600.11
734.349	1650.87
734.539	1647.19
734.729	1680.52
734.919	1699.11
735.109	1693.88
735.299	1644.87
735.488	1684.58
735.678	1676.45
735.868	1694.85
736.058	1696.01
736.248	1671.41
736.437	1651.65
736.627	1621.62
736.817	1769.64
737.007	1745.42
737.196	1744.26
737.386	1716.94
737.576	1717.71
737.765	1739.8
737.955	1722.56
738.144	1789.98
738.334	1748.33
738.524	1722.75
738.713	1798.7
738.903	1773.9
739.092	1797.54
739.282	1797.93
739.471	1824.47
739.661	1801.41
739.85	1808.58
740.04	1836.87
740.229	1841.71
740.419	1884.14
740.608	1851.4
740.797	1875.62
740.987	1920.37
741.176	1944.2
741.365	1865.35
741.555	1823.69
741.744	1919.99
741.933	1873.49
742.123	1912.62
742.312	1950.6
742.501	1918.63
742.69	1921.54
742.88	1874.65
743.069	1947.69
743.258	1904.29
743.447	1958.54
743.636	1955.25
743.825	1929.48
744.014	1928.51
744.204	1929.87
744.393	1915.53
744.582	1964.35
744.771	1988.19
744.96	1988.57
745.149	1966.87
745.338	1932.77
745.527	1984.31
745.716	1959.51
745.905	1934.71
746.094	1989.54
746.283	2002.14
746.471	1996.52
746.66	2043.6
746.849	2029.07
747.038	2070.92
747.227	1974.43
747.416	2013.37
747.604	1984.31
747.793	1975.79
747.982	1989.15
748.171	2015.31
748.359	2050.18
748.548	2023.25
748.737	2007.56
748.926	1978.5
749.114	1933.55
749.303	1998.26
749.491	1996.13
749.68	1946.53
749.869	2033.33
750.057	1979.08
750.246	1956.02
750.434	1994.58
750.623	1992.45
750.811	2007.56
751	2004.46
751.188	2003.88
751.377	1993.61
751.565	1961.06
751.754	1955.64
751.942	1976.56
752.131	2029.65
752.319	1977.53
752.507	1912.82
752.696	1960.09
752.884	2029.07
753.072	1957.77
753.261	1960.67
753.449	1964.74
753.637	1945.56
753.825	2053.67
754.014	1983.15
754.202	1966.29
754.39	2041.27
754.578	1998.07
754.766	1947.5
754.955	1963.58
755.143	2028.1
755.331	1994
755.519	1958.93
755.707	1961.25
755.895	1951.37
756.083	1946.92
756.271	1976.75
756.459	1925.02
756.647	1971.14
756.835	1938.59
757.023	1902.74
757.211	1927.54
757.399	1930.06
757.587	1913.21
757.775	1901
757.963	1877.56
758.151	1895.96
758.339	1870.77
758.526	1934.91
758.714	1920.76
758.902	1816.53
759.09	1778.16
759.278	1713.84
759.465	1578.8
759.653	1354.44
759.841	1258.53
760.028	1072.34
760.216	935.94
760.404	950.67
760.591	732.9
760.779	616.84
760.967	526.94
761.154	466.11
761.342	464.56
761.529	483.74
761.717	503.11
761.905	460.29
762.092	509.12
762.28	471.92
762.467	514.35
762.655	426.39
762.842	449.64
763.029	475.99
763.217	519.19
763.404	488
763.592	523.46
763.779	453.32
763.966	516.68
764.154	547.67
764.341	591.07
764.528	574.22
764.716	612
764.903	610.64
765.09	649.78
765.277	673.42
765.465	802.65
765.652	816.4
765.839	867.55
766.026	956.09
766.213	948.54
766.4	1047.74
766.588	1146.16
766.775	1132.99
766.962	1186.85
767.149	1194.02
767.336	1321.31
767.523	1273.45
767.71	1348.43
767.897	1442.79
768.084	1515.64
768.271	1475.92
768.458	1518.54
768.645	1562.33
768.832	1524.55
769.019	1543.34
769.206	1592.36
769.392	1655.33
769.579	1728.95
769.766	1670.63
769.953	1637.31
770.14	1710.55
770.327	1685.36
770.513	1705.12
770.7	1764.6
770.887	1651.65
771.073	1762.08
771.26	1718.49
771.447	1694.66
771.634	1725.46
771.82	1776.61
772.007	1719.26
772.193	1731.86
772.38	1784.17
772.567	1721.59
772.753	1754.53
772.94	1746
773.126	1788.04
773.313	1798.31
773.499	1772.35
773.686	1771.77
773.872	1764.8
774.059	1763.83
774.245	1696.79
774.432	1727.21
774.618	1653.97
774.804	1733.21
774.991	1709
775.177	1727.6
775.363	1694.66
775.55	1762.08
775.736	1632.08
775.922	1672.18
776.109	1701.83
776.295	1709.96
776.481	1720.81
776.667	1722.17
776.853	1703.38
777.04	1698.73
777.226	1692.91
777.412	1771.38
777.598	1663.66
777.784	1658.23
777.97	1631.3
778.156	1693.11
778.342	1685.55
778.528	1653.2
778.715	1615.42
778.901	1659.01
779.087	1676.45
779.272	1650.1
779.458	1604.57
779.644	1646.22
779.83	1596.43
780.016	1739.22
780.202	1656.1
780.388	1612.51
780.574	1591
780.76	1603.4
780.946	1658.23
781.131	1614.06
781.317	1627.04
781.503	1602.24
781.689	1596.82
781.874	1722.36
782.06	1603.4
782.246	1632.66
782.432	1611.15
782.617	1638.67
782.803	1653.78
782.989	1553.03
783.174	1602.05
783.36	1525.13
783.545	1606.89
783.731	1613.67
783.916	1528.62
784.102	1606.12
784.288	1560.39
784.473	1579.77
784.659	1568.92
784.844	1634.6
785.029	1545.47
785.215	1550.32
785.4	1493.55
785.586	1597.59
785.771	1539.47
785.956	1566.01
786.142	1541.6
786.327	1515.83
786.512	1527.65
786.698	1500.14
786.883	1484.06
787.068	1495.1
787.254	1499.94
787.439	1470.69
787.624	1517.19
787.809	1457.12
787.994	1478.05
788.18	1557.49
788.365	1432.91
788.55	1487.74
788.735	1441.24
788.92	1482.89
789.105	1458.87
789.29	1499.75
789.475	1440.85
789.66	1459.26
789.845	1408.69
790.03	1431.94
790.215	1468.17
790.4	1473.4
790.585	1499.36
790.77	1440.85
790.955	1355.21
791.14	1448.6
791.325	1488.71
791.51	1353.08
791.695	1436.59
791.879	1388.73
792.064	1356.76
792.249	1458.67
792.434	1410.04
792.618	1387.38
792.803	1441.24
792.988	1385.83
793.173	1392.22
793.357	1426.12
793.542	1380.59
793.727	1400.94
793.911	1425.74
794.096	1391.64
794.281	1429.61
794.465	1516.41
794.65	1449.76
794.834	1432.52
795.019	1458.29
795.203	1471.85
795.388	1429.81
795.572	1444.14
795.757	1441.62
795.941	1455.19
796.126	1445.69
796.31	1360.64
796.494	1397.45
796.679	1426.51
796.863	1411.79
797.048	1492.58
797.232	1428.26
797.416	1411.01
797.601	1390.28
797.785	1470.49
797.969	1473.4
798.153	1432.91
798.338	1444.34
798.522	1449.76
798.706	1447.44
798.89	1497.62
799.074	1542.37
799.258	1496.26
799.443	1440.46
799.627	1420.12
799.811	1470.69
799.995	1428.64
800.179	1405.2
800.363	1446.66
800.547	1463.71
800.731	1474.37
800.915	1392.41
801.099	1428.26
801.283	1427.48
801.467	1434.26
801.651	1430.77
801.835	1478.82
802.019	1473.79
802.202	1452.47
802.386	1390.28
802.57	1402.49
802.754	1425.54
802.938	1398.81
803.121	1407.91
803.305	1465.65
803.489	1429.42
803.673	1427.48
803.856	1481.15
804.04	1451.51
804.224	1439.11
804.407	1450.92
804.591	1423.99
804.775	1442.21
804.958	1452.09
805.142	1553.03
805.326	1468.36
805.509	1475.72
805.693	1497.23
805.876	1467.01
806.06	1422.64
806.243	1447.82
806.427	1499.94
806.61	1486.57
806.794	1441.43
806.977	1431.16
807.16	1449.76
807.344	1451.12
807.527	1467.59
807.71	1427.87
807.894	1490.84
808.077	1466.81
808.26	1424.19
808.444	1435.04
808.627	1473.79
808.81	1430.77
808.993	1371.1
809.177	1381.95
809.36	1426.71
809.543	1424.19
809.726	1322.28
809.909	1365.09
810.092	1338.55
810.276	1359.67
810.459	1378.08
810.642	1385.44
810.825	1322.47
811.008	1334.48
811.191	1290.11
811.374	1307.94
811.557	1290.11
811.74	1370.13
811.923	1294.57
812.106	1250.59
812.289	1229.47
812.472	1271.13
812.654	1283.14
812.837	1236.25
813.02	1192.08
813.203	1195.18
813.386	1117.1
813.569	1126.2
813.751	1107.22
813.934	1112.25
814.117	1138.99
814.3	1085.71
814.482	1050.06
814.665	1085.52
814.848	1037.86
815.03	978.38
815.213	1005.31
815.396	972.56
815.578	1008.6
815.761	945.05
815.943	1027.2
816.126	936.33
816.309	904.56
816.491	870.26
816.674	880.92
816.856	878.4
817.039	871.62
817.221	946.41
817.403	923.35
817.586	905.72
817.768	928.58
817.951	831.51
818.133	860
818.315	895.45
818.498	916.76
818.68	968.11
818.862	926.45
819.045	962.29
819.227	934.78
819.409	904.75
819.591	944.08
819.774	897
819.956	898.36
820.138	955.51
820.32	931.1
820.502	955.32
820.684	1005.31
820.866	1004.34
821.048	1044.64
821.231	1018.87
821.413	1035.53
821.595	1012.67
821.777	988.26
821.959	1010.34
822.141	1102.57
822.323	959.39
822.505	943.31
822.686	924.32
822.868	930.52
823.05	832.29
823.232	849.53
823.414	762.73
823.596	852.63
823.778	783.08
823.96	838.88
824.141	832.29
824.323	811.56
824.505	875.5
824.687	909.4
824.868	926.64
825.05	992.32
825.232	1002.59
825.413	1079.9
825.595	1008.21
825.777	970.43
825.958	989.81
826.14	1000.27
826.321	1010.54
826.503	952.22
826.685	1025.07
826.866	1022.16
827.048	996.2
827.229	964.62
827.411	974.31
827.592	923.74
827.773	940.4
827.955	905.14
828.136	935.36
828.318	899.71
828.499	922.96
828.68	889.83
828.862	901.07
829.043	950.86
829.224	935.75
829.406	880.34
829.587	887.9
829.768	879.37
829.949	938.08
830.131	892.74
830.312	963.26
830.493	880.92
830.674	932.84
830.855	903.39
831.036	879.56
831.218	940.98
831.399	973.73
831.58	903.01
831.761	953.19
831.942	936.53
832.123	893.71
832.304	875.88
832.485	911.92
832.666	864.84
832.847	890.41
833.028	897.97
833.209	909.4
833.389	910.95
833.57	831.9
833.751	886.54
833.932	934.78
834.113	897.78
834.294	874.14
834.475	902.81
834.655	930.71
834.836	936.91
835.017	891.58
835.198	871.62
835.378	902.43
835.559	940.01
835.74	891.58
835.92	901.46
836.101	903.01
836.281	905.14
836.462	943.11
836.643	945.05
836.823	942.34
837.004	916.96
837.184	996.01
837.365	941.76
837.545	974.11
837.726	931.29
837.906	979.93
838.087	939.04
838.267	973.92
838.448	893.9
838.628	923.54
838.808	917.73
838.989	996.01
839.169	898.94
839.349	962.29
839.53	960.36
839.71	986.51
839.89	949.7
840.07	983.8
840.251	901.46
840.431	972.56
840.611	943.89
840.791	921.22
840.971	975.28
841.151	947.76
841.332	876.08
841.512	958.61
841.692	863.87
841.872	947.38
842.052	921.41
842.232	963.07
842.412	890.22
842.592	934.01
842.772	946.41
842.952	957.84
843.132	903.59
843.312	902.23
843.492	903.78
843.672	920.06
843.851	847.4
844.031	892.74
844.211	903.2
844.391	885.96
844.571	924.32
844.751	925.09
844.93	921.61
845.11	866.58
845.29	898.55
845.47	913.86
845.649	921.41
845.829	920.83
846.009	876.27
846.188	930.13
846.368	891.58
846.547	911.73
846.727	947.57
846.907	855.15
847.086	919.09
847.266	934.39
847.445	924.13
847.625	860.96
847.804	864.06
847.984	897.78
848.163	876.08
848.343	857.09
848.522	886.54
848.701	906.69
848.881	880.92
849.06	880.53
849.239	903.98
849.419	887.51
849.598	828.03
849.777	846.63
849.957	878.21
850.136	799.74
850.315	788.12
850.494	789.67
850.674	822.8
850.853	861.55
851.032	811.56
851.211	868.52
851.39	821.25
851.569	768.55
851.748	797.42
851.927	861.16
852.107	827.06
852.286	785.21
852.465	792.96
852.644	846.82
852.823	841.59
853.002	838.49
853.181	837.91
853.359	829.38
853.538	778.82
853.717	853.02
853.896	777.46
854.075	741.42
854.254	742.97
854.433	707.13
854.611	745.88
854.79	701.32
854.969	751.69
855.148	745.68
855.327	701.9
855.505	751.11
855.684	709.84
855.863	754.21
856.041	734.45
856.22	755.18
856.399	692.21
856.577	829.38
856.756	758.67
856.934	903.98
857.113	887.9
857.291	783.08
857.47	748.4
857.648	773.97
857.827	806.13
858.005	829.96
858.184	748.4
858.362	860.19
858.541	788.89
858.719	786.57
858.898	789.47
859.076	754.79
859.254	852.83
859.433	782.69
859.611	780.75
859.789	739.1
859.967	833.26
860.146	858.83
860.324	748.78
860.502	770.48
860.68	683.3
860.859	766.42
861.037	739.1
861.215	782.5
861.393	732.32
861.571	750.33
861.749	718.37
861.927	754.79
862.105	770.87
862.283	727.67
862.461	720.11
862.639	687.75
862.817	728.05
862.995	756.92
863.173	746.07
863.351	737.35
863.529	744.52
863.707	785.4
863.885	755.57
864.063	659.47
864.241	695.7
864.418	762.73
864.596	712.36
864.774	703.25
864.952	725.92
865.129	736.38
865.307	691.05
865.485	632.54
865.663	738.9
865.84	670.9
866.018	714.69
866.196	604.64
866.373	630.41
866.551	583.91
866.728	561.62
866.906	605.41
867.084	642.42
867.261	652.3
867.439	667.41
867.616	696.67
867.794	656.95
867.971	662.18
868.149	656.37
868.326	692.4
868.503	698.6
868.681	668.77
868.858	661.21
869.035	649.97
869.213	706.74
869.39	663.15
869.567	739.68
869.745	646.49
869.922	649.2
870.099	687.75
870.276	694.73
870.454	663.34
870.631	707.71
870.808	647.45
870.985	699.96
871.162	762.35
871.339	685.62
871.517	632.92
871.694	610.06
871.871	658.3
872.048	633.31
872.225	643.97
872.402	663.92
872.579	612
872.756	663.34
872.933	636.99
873.11	617.04
873.287	661.99
873.463	633.89
873.64	625.76
873.817	633.31
873.994	638.74
874.171	628.47
874.348	659.47
874.524	592.82
874.701	655.4
874.878	564.53
875.055	656.95
875.231	618.78
875.408	641.84
875.585	563.95
875.762	622.66
875.938	606.19
876.115	600.57
876.291	592.04
876.468	601.54
876.645	573.64
876.821	610.26
876.998	592.24
877.174	616.07
877.351	598.05
877.527	564.92
877.704	625.56
877.88	610.26
878.057	553.87
878.233	642.42
878.409	566.86
878.586	614.91
878.762	598.82
878.938	604.06
879.115	542.83
879.291	595.14
879.467	536.05
879.644	558.91
879.82	594.56
879.996	565.31
880.172	546.51
880.349	552.71
880.525	609.09
880.701	540.7
880.877	524.43
881.053	569.18
881.229	566.86
881.405	604.06
881.581	527.72
881.757	542.44
881.933	588.17
882.109	572.67
882.285	541.86
882.461	507.96
882.637	549.42
882.813	529.08
882.989	556.97
883.165	594.37
883.341	499.82
883.517	584.29
883.693	567.24
883.869	598.24
884.044	539.15
884.22	578.29
884.396	577.12
884.572	567.82
884.747	607.35
884.923	581.39
885.099	582.36
885.275	585.84
885.45	533.73
885.626	539.93
885.801	527.91
885.977	526.75
886.153	513.77
886.328	560.07
886.504	521.33
886.679	591.85
886.855	531.59
887.03	572.86
887.206	594.76
887.381	546.71
887.557	592.62
887.732	537.6
887.908	595.53
888.083	605.22
888.258	536.24
888.434	537.99
888.609	559.69
888.784	601.15
888.96	549.03
889.135	552.52
889.31	520.55
889.485	579.64
889.661	562.98
889.836	588.75
890.011	564.92
890.186	569.37
890.361	519.39
890.537	550.58
890.712	536.24
890.887	565.5
891.062	555.23
891.237	589.91
891.412	503.11
891.587	556.39
891.762	585.26
891.937	601.73
892.112	537.02
892.287	562.98
892.462	524.62
892.637	474.24
892.812	538.18
892.987	490.13
893.161	511.25
893.336	500.01
893.511	525.2
893.686	546.9
893.861	525.2
894.035	512.99
894.21	488.39
894.385	460.1
894.56	503.69
894.734	481.41
894.909	481.03
895.084	471.53
895.258	475.6
895.433	487.23
895.608	462.43
895.782	420.77
895.957	450.8
896.131	448.28
896.306	399.26
896.48	412.83
896.655	414.38
896.829	357.8
897.004	345.6
897.178	363.42
897.353	351.8
897.527	419.8
897.701	371.75
897.876	306.85
898.05	407.01
898.224	383.38
898.399	441.5
898.573	360.9
898.747	310.53
898.921	378.73
899.096	303.94
899.27	319.44
899.444	294.83
899.618	311.88
899.792	322.54
899.967	326.22
900.141	373.11
900.315	288.05
900.489	316.53
900.663	346.57
900.837	362.65
901.011	286.7
901.185	414.96
901.359	328.93
901.533	322.35
901.707	351.22
901.881	339.59
902.055	283.79
902.229	323.51
902.403	365.55
902.576	340.37
902.75	322.93
902.924	429.88
903.098	357.03
903.272	381.63
903.446	414.57
903.619	357.03
903.793	395.39
903.967	359.35
904.14	447.31
904.314	417.09
904.488	401.01
904.661	435.5
904.835	403.53
905.009	417.67
905.182	455.84
905.356	470.56
905.529	391.71
905.703	366.91
905.876	388.61
906.05	362.26
906.223	382.6
906.397	303.94
906.57	325.06
906.744	290.77
906.917	293.09
907.09	333.97
907.264	338.23
907.437	308.59
907.61	275.85
907.784	304.13
907.957	329.9
908.13	291.93
908.304	359.55
908.477	321.96
908.65	280.69
908.823	251.63
908.996	411.08
909.17	295.42
909.343	283.79
909.516	306.07
909.689	311.11
909.862	278.37
910.035	314.6
910.208	259.96
910.381	287.67
910.554	369.43
910.727	293.87
910.9	268.68
911.073	275.07
911.246	345.02
911.419	324.09
911.592	280.3
911.765	289.6
911.938	275.46
912.11	283.02
912.283	284.37
912.456	323.32
912.629	305.68
912.802	279.53
912.974	234.97
913.147	240.39
913.32	218.69
913.493	240.97
913.665	262.48
913.838	258.22
914.01	258.99
914.183	246.2
914.356	220.05
914.528	285.15
914.701	329.13
914.873	305.68
915.046	257.83
915.218	240
915.391	186.34
915.563	198.15
915.736	266.16
915.908	282.24
916.081	242.52
916.253	227.41
916.425	248.72
916.598	259.96
916.77	252.79
916.942	229.74
917.115	203.58
917.287	273.91
917.459	248.92
917.632	192.34
917.804	180.91
917.976	232.64
918.148	230.12
918.32	235.94
918.493	236.52
918.665	296.97
918.837	252.6
919.009	287.28
919.181	282.63
919.353	267.13
919.525	247.56
919.697	257.25
919.869	256.09
920.041	301.23
920.213	380.47
920.385	273.33
920.557	265.77
920.729	273.72
920.901	274.3
921.073	264.22
921.244	268.1
921.416	301.23
921.588	268.29
921.76	267.9
921.932	330.87
922.103	255.12
922.275	262.09
922.447	283.21
922.619	207.84
922.79	254.34
922.962	260.54
923.134	263.45
923.305	238.26
923.477	186.34
923.648	203.77
923.82	212.3
923.991	163.28
924.163	171.22
924.335	224.31
924.506	217.72
924.677	261.51
924.849	192.34
925.02	201.84
925.192	259.96
925.363	210.36
925.535	242.52
925.706	221.21
925.877	226.05
926.049	216.37
926.22	234.58
926.391	244.65
926.562	252.79
926.734	192.54
926.905	235.55
927.076	174.71
927.247	231.29
927.419	190.02
927.59	198.15
927.761	197.96
927.932	212.1
928.103	215.59
928.274	159.6
928.445	172.19
928.616	169.29
928.787	180.72
928.958	215.98
929.129	184.79
929.3	153.59
929.471	139.26
929.642	101.48
929.813	85.98
929.984	179.75
930.155	72.61
930.326	152.04
930.496	123.17
930.667	46.84
930.838	99.93
931.009	70.28
931.18	74.35
931.35	97.21
931.521	116.01
931.692	59.82
931.863	23.78
932.033	110.58
932.204	90.43
932.374	85.98
932.545	47.61
932.716	114.07
932.886	98.96
933.057	22.23
933.227	36.96
933.398	114.84
933.568	15.45
933.739	-15.55
933.909	27.08
934.08	66.99
934.25	-17.29
934.421	20.49
934.591	47.61
934.761	12.74
934.932	-2.18
935.102	31.14
935.272	18.36
935.443	27.08
935.613	7.7
935.783	28.82
935.953	-16.13
936.123	189.05
936.294	-12.84
936.464	10.22
936.634	17
936.804	-7.8
936.974	-5.28
937.144	34.24
937.314	24.36
937.484	26.3
937.655	14.68
937.825	57.11
937.995	2.66
938.165	61.37
938.334	14.1
938.504	37.15
938.674	-8.96
938.844	0.34
939.014	79.78
939.184	19.33
939.354	91.01
939.524	69.89
939.694	51.1
939.863	49.36
940.033	120.46
940.203	81.91
940.373	72.99
940.542	78.03
940.712	39.67
940.882	70.86
941.051	112.13
941.221	65.05
941.391	93.34
941.56	48
941.73	53.62
941.899	143.71
942.069	55.56
942.238	100.51
942.408	38.7
942.577	75.13
942.747	38.12
942.916	-10.32
943.086	3.25
943.255	83.65
943.425	62.14
943.594	40.64
943.763	-10.51
943.933	3.44
944.102	-31.24
944.271	46.84
944.441	68.73
944.61	23.2
944.779	33.08
944.948	111.94
945.117	-2.57
945.287	14.29
945.456	7.31
945.625	23.78
945.794	44.51
945.963	-12.64
946.132	71.06
946.301	25.91
946.47	72.61
946.639	-14.39
946.808	24.75
946.977	68.93
947.146	71.83
947.315	-18.65
947.484	83.84
947.653	13.13
947.822	20.88
947.991	16.42
948.16	104.58
948.329	82.1
948.498	22.81
948.666	41.03
948.835	39.09
949.004	-17.49
949.173	-8.77
949.341	31.92
949.51	67.18
949.679	89.85
949.847	70.67
950.016	104.77
950.185	108.26
950.353	32.5
950.522	5.96
950.69	79.39
950.859	15.45
951.028	74.93
951.196	55.36
951.365	17.78
951.533	53.62
951.701	75.32
951.87	82.68
952.038	11.77
952.207	58.46
952.375	114.46
952.543	4.02
952.712	17.58
952.88	1.11
953.048	88.69
953.217	42.19
953.385	39.09
953.553	89.66
953.721	-8.38
953.89	44.9
954.058	-8.57
954.226	28.82
954.394	46.45
954.562	-15.35
954.73	47.81
954.898	50.52
955.067	85.39
955.235	42.38
955.403	78.23
955.571	111.16
955.739	74.54
955.907	17
956.075	6.73
956.243	6.73
956.41	55.36
956.578	-9.74
956.746	-24.46
956.914	8.86
957.082	43.93
957.25	62.34
957.418	20.49
957.585	35.02
957.753	74.35
957.921	-10.7
958.089	51.29
958.256	68.15
958.424	52.46
958.592	58.46
958.759	39.28
958.927	61.37
959.095	42.58
959.262	42.96
959.43	53.23
959.597	0.92
959.765	23.98
959.932	9.83
960.1	57.11
960.267	34.44
960.435	23.98
960.602	76.48
960.77	15.45
960.937	-9.54
961.104	58.27
961.272	9.06
961.439	14.1
961.606	52.26
961.774	55.94
961.941	7.9
962.108	55.17
962.275	54.59
962.443	89.85
962.61	44.32
962.777	134.61
962.944	49.55
963.111	57.49
963.278	77.45
963.446	69.12
963.613	53.23
963.78	41.22
963.947	47.42
964.114	56.91
964.281	134.99
964.448	51.68
964.615	32.89
964.782	54.78
964.949	88.3
965.116	62.14
965.282	95.28
965.449	40.44
965.616	-11.09
965.783	104.96
965.95	54.98
966.117	7.31
966.283	32.31
966.45	66.99
966.617	51.29
966.784	66.41
966.95	75.13
967.117	85.98
967.284	21.07
967.45	22.43
967.617	83.84
967.784	42.58
967.95	110.19
968.117	49.74
968.283	100.12
968.45	118.33
968.616	60.01
968.783	93.34
968.949	44.51
969.116	94.5
969.282	72.99
969.449	84.23
969.615	31.73
969.781	25.14
969.948	48.39
970.114	7.9
970.28	109.61
970.447	50.13
970.613	82.68
970.779	55.36
970.945	106.32
971.112	53.23
971.278	32.89
971.444	32.89
971.61	88.3
971.776	27.66
971.942	82.88
972.108	60.98
972.275	66.21
972.441	60.4
972.607	124.34
972.773	20.3
972.939	67.38
973.105	37.93
973.271	-6.83
973.437	27.08
973.602	26.3
973.768	67.38
973.934	71.44
974.1	65.83
974.266	10.22
974.432	86.94
974.598	21.84
974.763	64.47
974.929	17.2
975.095	122.79
975.261	33.28
975.426	9.25
975.592	38.89
975.758	106.51
975.923	-10.51
976.089	37.34
976.255	76.29
976.42	59.63
976.586	73.77
976.751	51.29
976.917	164.83
977.082	56.72
977.248	-6.44
977.413	-13.22
977.579	51.1
977.744	63.69
977.91	3.44
978.075	49.74
978.24	72.41
978.406	52.07
978.571	38.51
978.736	-1.21
978.902	62.34
979.067	-14.77
979.232	14.68
979.397	50.91
979.563	103.22
979.728	-9.54
979.893	55.56
980.058	7.51
980.223	72.22
980.388	26.69
980.554	65.44
980.719	64.86
980.884	78.03
981.049	51.49
981.214	23.59
981.379	61.37
981.544	30.76
981.709	26.69
981.874	46.45
982.039	42.58
982.204	63.31
982.368	52.46
982.533	27.08
982.698	65.44
982.863	73.77
983.028	45.29
983.193	77.45
983.357	54.59
983.522	70.28
983.687	34.24
983.852	27.27
984.016	35.99
984.181	61.18
984.346	60.98
984.51	54.59
984.675	33.47
984.839	93.34
985.004	43.54
985.168	95.66
985.333	43.93
985.498	48.39
985.662	70.48
985.827	52.26
985.991	34.05
986.155	61.76
986.32	93.73
986.484	99.34
986.649	90.04
986.813	9.06
986.977	51.49
987.142	66.6
987.306	31.34
987.47	25.53
987.634	40.25
987.799	36.76
987.963	25.72
988.127	71.06
988.291	101.48
988.455	51.49
988.62	25.53
988.784	57.3
988.948	63.89
989.112	19.71
989.276	22.62
989.44	41.03
989.604	17.2
989.768	51.49
989.932	91.59
990.096	31.34
990.26	-2.95
990.424	9.25
990.588	48.39
990.752	136.35
990.915	80.16
991.079	40.06
991.243	35.41
991.407	53.62
991.571	37.93
991.734	77.84
991.898	68.34
992.062	125.11
992.226	21.65
992.389	3.25
992.553	-14.19
992.717	2.86
992.88	9.25
993.044	35.41
993.207	31.34
993.371	60.79
993.535	43.35
993.698	43.74
993.862	95.66
994.025	91.01
994.189	59.43
994.352	41.03
994.515	64.08
994.679	82.88
994.842	32.89
995.006	82.1
995.169	6.93
995.332	13.13
995.496	30.37
995.659	-7.6
995.822	47.03
995.985	29.98
996.149	75.9
996.312	32.89
996.475	98.38
996.638	21.07
996.801	73.58
996.964	102.44
997.128	52.65
997.291	18.36
997.454	43.54
997.617	-11.48
997.78	92.95
997.943	3.63
998.106	73.58
998.269	26.3
998.432	28.04
998.595	3.83
998.758	-32.4
998.92	21.46
999.083	-17.49
999.246	52.65
999.409	20.1
999.572	-30.47
999.735	6.93
999.897	43.35
1000.06	21.65
1000.223	14.68
1000.386	53.62
1000.548	69.7
1000.711	49.55
1000.874	43.74
1001.036	-10.32
1001.199	82.88
1001.361	28.63
1001.524	35.02
1001.687	55.36
1001.849	20.3
1002.012	68.73
1002.174	38.51
1002.337	75.13
1002.499	48.58
1002.661	71.44
1002.824	14.68
1002.986	28.63
1003.149	35.99
1003.311	10.61
1003.473	111.36
1003.636	26.69
1003.798	36.18
1003.96	42.96
1004.123	46.64
1004.285	10.22
1004.447	34.83
1004.609	12.74
1004.771	101.67
1004.933	-16.13
1005.096	18.75
1005.258	-5.67
1005.42	31.34
1005.582	54.78
1005.744	59.63
1005.906	-19.04
1006.068	41.61
1006.23	1.7
1006.392	-2.95
1006.554	-3.15
1006.716	60.01
1006.878	43.35
1007.04	-19.04
1007.202	-1.4
1007.363	43.16
1007.525	44.13
1007.687	31.73
1007.849	58.66
1008.011	-33.95
1008.172	3.83
1008.334	7.51
1008.496	72.8
1008.658	-30.27
1008.819	-0.63
1008.981	-17.1
1009.143	-7.99
1009.304	3.44
1009.466	41.61
1009.627	59.82
1009.789	120.85
1009.95	37.54
1010.112	16.23
1010.273	45.29
1010.435	23.98
1010.596	11.38
1010.758	27.85
1010.919	6.54
1011.081	-14.97
1011.242	11.58
1011.403	46.64
1011.565	8.09
1011.726	32.69
1011.887	-37.44
1012.049	22.81
1012.21	43.16
1012.371	75.71
1012.532	-29.3
1012.693	28.63
1012.855	-0.82
1013.016	13.13
1013.177	44.32
1013.338	21.46
1013.499	78.61
1013.66	54.59
1013.821	79.97
1013.982	41.99
1014.143	24.36
1014.304	13.71
1014.465	30.76
1014.626	53.62
1014.787	15.65
1014.948	110.39
1015.109	-41.12
1015.27	47.23
1015.431	7.9
1015.592	6.35
1015.752	84.62
1015.913	23.78
1016.074	49.16
1016.235	13.13
1016.395	-3.92
1016.556	12.74
1016.717	11.96
1016.877	93.34
1017.038	-9.93
1017.199	33.66
1017.359	25.33
1017.52	25.91
1017.681	16.81
1017.841	9.45
1018.002	31.92
1018.162	0.73
1018.323	77.64
1018.483	-2.76
1018.644	47.61
1018.804	-17.87
1018.964	-19.81
1019.125	-2.76
1019.285	13.13
1019.446	6.73
1019.606	0.34
1019.766	-40.35
1019.926	13.9
1020.087	56.72
1020.247	-16.13
1020.407	28.43
1020.567	65.44
1020.728	3.25
1020.888	-10.12
1021.048	2.28
1021.208	0.34
1021.368	-4.89
1021.528	37.54
1021.688	32.89
1021.848	38.51
1022.008	38.7
1022.168	-6.44
1022.328	21.26
1022.488	14.87
1022.648	-14.19
1022.808	29.98
1022.968	26.3
1023.128	-29.3
1023.288	-8.77
1023.448	15.84
1023.608	23.2
1023.767	30.95
1023.927	7.7
1024.087	-23.69
1024.247	-7.6
1024.406	7.7
1024.566	-36.28
1024.726	-4.7
1024.885	16.23
1025.045	39.28
1025.205	5.96
1025.364	8.28
1025.524	35.02
1025.683	17.78
1025.843	30.18
1026.003	18.55
1026.162	73.38
1026.321	28.63
1026.481	19.33
1026.64	-4.12
1026.8	8.67
1026.959	40.44
1027.119	0.34
1027.278	-1.21
1027.437	-13.42
1027.597	30.37
1027.756	34.05
1027.915	36.18
1028.074	51.49
1028.234	5.38
1028.393	18.75
1028.552	-8.38
1028.711	-43.45
1028.87	54.98
1029.03	-18.45
1029.189	-0.44
1029.348	-58.95
1029.507	-13.61
1029.666	-19.42
1029.825	-8.38
1029.984	-16.13
1030.143	30.76
1030.302	-16.71
1030.461	-31.05
1030.62	7.31
1030.779	11.58
1030.938	-24.27
1031.097	-15.94
1031.255	40.44
1031.414	60.98
1031.573	30.56
1031.732	-37.83
1031.891	18.75
1032.049	48.78
1032.208	22.62
1032.367	-5.09
1032.525	-5.28
1032.684	18.36
1032.843	17.58
1033.001	-27.56
1033.16	150.49
1033.319	60.79
1033.477	12.74
1033.636	-17.49
1033.794	-24.85
1033.953	50.33
1034.111	20.1
1034.27	-10.32
1034.428	14.68
1034.587	-15.35
1034.745	21.26
1034.903	2.08
1035.062	10.61
1035.22	-39.38
1035.378	24.94
1035.537	-26.98
1035.695	15.26
1035.853	14.29
1036.011	19.71
1036.17	30.37
1036.328	-36.86
1036.486	28.24
1036.644	13.32
1036.802	-54.3
1036.96	-9.93
1037.119	-10.51
1037.277	-14.19
1037.435	-32.02
1037.593	-21.94
1037.751	-10.9
1037.909	49.74
1038.067	49.74
