Data from pine_FLMT105791__41__17-20-15-079.txt Node

Date: Mon Mar 20 17:20:15 GMT 2023
User: antho
Spectrometer: FLMT10579
Trigger mode: 0
Integration Time (sec): 1.000000E-1
Scans to average: 10
Electric dark correction enabled: true
Nonlinearity correction enabled: false
Boxcar width: 0
XAxis mode: Wavelengths
Number of Pixels in Spectrum: 3648
>>>>>Begin Spectral Data<<<<<
345.248	-150.23
345.464	-150.23
345.681	-150.23
345.898	-162.83
346.114	-136.87
346.331	-30.89
346.548	45.84
346.764	-11.71
346.981	-6.67
347.197	-20.23
347.414	37.31
347.631	-6.67
347.847	34.21
348.064	-10.35
348.28	32.66
348.497	-61.89
348.713	-1.63
348.93	-6.86
349.146	6.12
349.363	-30.11
349.579	-3.18
349.796	-7.64
350.012	2.63
350.229	27.04
350.445	17.94
350.661	-9.57
350.878	11.93
351.094	23.17
351.311	21.43
351.527	5.73
351.743	-5.7
351.96	36.92
352.176	44.67
352.392	21.23
352.609	55.91
352.825	12.71
353.041	-21.2
353.257	3.41
353.474	-8.41
353.69	11.93
353.906	16
354.122	-14.22
354.339	21.04
354.555	4.38
354.771	0.11
354.987	37.51
355.203	51.07
355.42	-31.27
355.636	0.31
355.852	-39.41
356.068	11.54
356.284	-28.37
356.5	71.02
356.716	49.52
356.932	1.66
357.148	36.15
357.364	-18.29
357.58	39.25
357.796	85.36
358.012	39.25
358.228	24.53
358.444	-70.41
358.66	61.72
358.876	28.98
359.092	-23.52
359.308	3.41
359.524	16.58
359.74	7.09
359.956	-8.8
360.172	9.99
360.388	39.83
360.604	15.61
360.819	92.34
361.035	8.06
361.251	40.22
361.467	-6.67
361.683	56.69
361.898	4.96
362.114	31.69
362.33	1.86
362.546	54.17
362.762	16.78
362.977	34.02
363.193	-5.12
363.409	29.37
363.624	-30.89
363.84	-26.04
364.056	-20.04
364.271	25.49
364.487	23.56
364.703	7.09
364.918	-15.19
365.134	9.41
365.35	17.74
365.565	79.16
365.781	12.32
365.996	47.39
366.212	46.61
366.427	30.73
366.643	-3.57
366.858	6.12
367.074	-13.45
367.289	62.69
367.505	102.02
367.72	-22.94
367.936	-24.49
368.151	67.15
368.367	22.2
368.582	1.86
368.798	-25.07
369.013	41.19
369.228	26.27
369.444	-9.38
369.659	75.48
369.874	14.45
370.09	65.21
370.305	-30.89
370.52	-9.19
370.736	38.09
370.951	3.02
371.166	75.29
371.381	98.15
371.597	43.12
371.812	-22.17
372.027	-10.16
372.242	-8.41
372.458	58.62
372.673	-8.22
372.888	32.86
373.103	60.17
373.318	75.48
373.533	42.93
373.749	34.02
373.964	-7.44
374.179	38.86
374.394	-6.09
374.609	67.54
374.824	-22.75
375.039	58.24
375.254	-3.18
375.469	65.02
375.684	26.46
375.899	35.57
376.114	2.63
376.329	25.3
376.544	35.38
376.759	47.39
376.974	-4.73
377.189	8.25
377.404	4.18
377.619	58.62
377.834	-33.79
378.049	-18.68
378.264	-24.88
378.478	26.46
378.693	4.18
378.908	27.63
379.123	13.29
379.338	54.75
379.553	45.26
379.767	28.21
379.982	51.26
380.197	52.04
380.412	16.58
380.626	32.47
380.841	88.66
381.056	7.28
381.271	93.5
381.485	-11.12
381.7	0.5
381.915	27.43
382.129	-9.19
382.344	11.74
382.559	-6.86
382.773	61.53
382.988	-19.26
383.202	25.69
383.417	-18.68
383.632	98.92
383.846	35.18
384.061	38.47
384.275	-6.09
384.49	65.21
384.704	44.09
384.919	9.41
385.133	29.76
385.348	50.87
385.562	-27.01
385.777	49.52
385.991	16.39
386.206	12.13
386.42	-2.21
386.634	69.09
386.849	30.14
387.063	19.68
387.277	-22.36
387.492	22.2
387.706	-0.86
387.92	-2.41
388.135	64.24
388.349	48.36
388.563	40.8
388.778	17.16
388.992	37.12
389.206	22.2
389.42	104.74
389.635	25.49
389.849	59.79
390.063	55.91
390.277	24.72
390.491	53.78
390.706	43.71
390.92	54.56
391.134	5.93
391.348	45.26
391.562	-36.7
391.776	41.96
391.99	-14.81
392.205	47.39
392.419	-23.33
392.633	6.31
392.847	66.76
393.061	-2.79
393.275	82.26
393.489	49.71
393.703	34.79
393.917	100.67
394.131	-19.46
394.345	71.61
394.559	63.47
394.773	-10.54
394.986	30.53
395.2	42.74
395.414	53.2
395.628	-3.18
395.842	43.9
396.056	13.48
396.27	-20.04
396.484	42.93
396.697	16.97
396.911	54.56
397.125	9.8
397.339	69.47
397.553	40.22
397.766	116.17
397.98	54.56
398.194	32.47
398.408	22.01
398.621	39.64
398.835	40.8
399.049	45.64
399.262	56.11
399.476	52.62
399.69	75.87
399.903	103.19
400.117	18.33
400.331	42.16
400.544	-0.08
400.758	159.37
400.971	55.91
401.185	72.19
401.398	22.78
401.612	78.39
401.826	43.51
402.039	73.35
402.253	7.67
402.466	70.64
402.68	41.57
402.893	48.36
403.106	35.96
403.32	9.8
403.533	53.59
403.747	23.56
403.96	26.85
404.174	50.87
404.387	23.56
404.6	30.34
404.814	69.09
405.027	41.77
405.24	31.11
405.454	42.93
405.667	73.35
405.88	0.5
406.094	39.64
406.307	68.89
406.52	41.38
406.733	4.38
406.947	-3.37
407.16	119.27
407.373	90.98
407.586	14.64
407.799	-9.57
408.012	65.41
408.226	56.3
408.439	100.28
408.652	6.51
408.865	40.99
409.078	97.96
409.291	49.13
409.504	19.29
409.717	74.32
409.93	65.79
410.143	59.01
410.357	9.41
410.57	-16.36
410.783	40.41
410.996	40.8
411.209	35.38
411.421	70.06
411.634	39.64
411.847	14.26
412.06	58.62
412.273	38.09
412.486	46.22
412.699	138.64
412.912	40.8
413.125	68.31
413.338	39.83
413.55	79.94
413.763	51.07
413.976	58.43
414.189	44.87
414.402	55.33
414.615	86.72
414.827	6.31
415.04	84.97
415.253	80.91
415.466	86.72
415.678	109.19
415.891	43.51
416.104	64.05
416.316	59.59
416.529	47.39
416.742	69.86
416.954	77.42
417.167	59.01
417.38	50.1
417.592	99.89
417.805	32.08
418.017	8.06
418.23	72.77
418.442	55.91
418.655	47.58
418.868	58.24
419.08	87.49
419.293	102.99
419.505	72.96
419.718	60.17
419.93	116.56
420.142	52.81
420.355	122.95
420.567	119.07
420.78	85.36
420.992	57.66
421.205	116.17
421.417	7.67
421.629	33.24
421.842	24.33
422.054	6.89
422.266	99.89
422.479	92.72
422.691	34.6
422.903	72.77
423.115	55.91
423.328	62.69
423.54	84.97
423.752	48.55
423.964	32.47
424.177	71.22
424.389	67.15
424.601	152.98
424.813	71.99
425.025	101.06
425.238	114.42
425.45	72.38
425.662	43.51
425.874	362.03
426.086	63.27
426.298	89.43
426.51	82.07
426.722	68.51
426.934	59.98
427.146	81.49
427.358	55.91
427.57	135.54
427.782	70.06
427.994	88.07
428.206	68.7
428.418	26.66
428.63	98.73
428.842	78.77
429.054	77.42
429.266	100.67
429.478	47.19
429.69	91.17
429.902	48.55
430.114	106.48
430.325	108.22
430.537	85.17
430.749	88.85
430.961	20.65
431.173	69.86
431.384	100.09
431.596	11.93
431.808	83.42
432.02	76.84
432.231	93.69
432.443	107.06
432.655	68.12
432.867	71.02
433.078	126.24
433.29	148.14
433.502	137.87
433.713	115.39
433.925	112.29
434.136	115.97
434.348	73.74
434.56	53.2
434.771	201.8
434.983	46.03
435.194	78.39
435.406	67.15
435.617	147.17
435.829	162.47
436.04	139.42
436.252	139.22
436.463	151.43
436.675	154.92
436.886	116.56
437.098	112.68
437.309	175.26
437.521	103.57
437.732	127.99
437.943	125.27
438.155	103.19
438.366	91.37
438.578	188.05
438.789	112.87
439	130.7
439.211	107.84
439.423	143.49
439.634	158.21
439.845	143.29
440.057	159.37
440.268	147.55
440.479	128.95
440.69	127.99
440.902	111.32
441.113	104.74
441.324	124.69
441.535	156.27
441.746	188.24
441.957	110.16
442.168	131.86
442.38	143.1
442.591	166.15
442.802	113.07
443.013	144.26
443.224	155.3
443.435	127.4
443.646	137.29
443.857	125.85
444.068	135.15
444.279	116.17
444.49	213.23
444.701	143.68
444.912	262.06
445.123	176.23
445.334	158.4
445.545	158.99
445.756	151.62
445.967	126.05
446.178	175.07
446.388	183.01
446.599	181.07
446.81	183.59
447.021	134.57
447.232	191.54
447.443	229.9
447.653	143.29
447.864	197.93
448.075	166.54
448.286	183.59
448.496	197.15
448.707	203.35
448.918	162.86
449.129	241.91
449.339	149.49
449.55	180.69
449.761	185.34
449.971	221.18
450.182	182.43
450.393	224.47
450.603	173.32
450.814	207.42
451.024	189.79
451.235	239.39
451.446	246.37
451.656	239.78
451.867	176.23
452.077	200.06
452.288	253.92
452.498	239.97
452.709	203.16
452.919	213.04
453.13	171.97
453.34	232.8
453.55	154.72
453.761	239.58
453.971	225.05
454.182	245.98
454.392	235.52
454.602	278.92
454.813	215.17
455.023	237.84
455.233	177.2
455.444	207.42
455.654	137.29
455.864	220.98
456.075	213.62
456.285	187.85
456.495	221.95
456.705	191.92
456.916	286.86
457.126	268.26
457.336	197.54
457.546	155.11
457.756	188.05
457.967	215.56
458.177	203.94
458.387	219.82
458.597	198.7
458.807	204.32
459.017	205.49
459.227	192.89
459.437	207.42
459.647	237.07
459.857	226.8
460.068	212.27
460.278	276.01
460.488	230.09
460.698	317.66
460.908	224.08
461.117	193.09
461.327	206.07
461.537	227.18
461.747	230.67
461.957	221.37
462.167	318.44
462.377	239
462.587	240.36
462.797	278.92
463.007	244.43
463.216	254.7
463.426	280.47
463.636	270
463.846	214.98
464.056	228.93
464.265	272.91
464.475	223.31
464.685	240.75
464.895	282.21
465.104	231.83
465.314	290.54
465.524	220.4
465.733	217.88
465.943	335.1
466.153	306.04
466.362	276.2
466.572	240.75
466.782	234.93
466.991	290.73
467.201	311.46
467.41	193.67
467.62	267.29
467.829	257.99
468.039	250.24
468.249	268.84
468.458	250.82
468.668	282.79
468.877	294.22
469.086	322.51
469.296	288.8
469.505	256.44
469.715	332.39
469.924	292.67
470.134	322.12
470.343	326.19
470.552	289.38
470.762	262.64
470.971	253.53
471.18	265.55
471.39	295.38
471.599	247.33
471.808	320.18
472.018	297.71
472.227	293.83
472.436	338.59
472.645	296.74
472.855	252.57
473.064	331.03
473.273	318.44
473.482	338.4
473.691	362.61
473.901	315.15
474.11	313.98
474.319	389.93
474.528	321.15
474.737	383.73
474.946	357.19
475.155	342.66
475.364	362.03
475.573	308.17
475.783	353.9
475.992	354.28
476.201	352.15
476.41	300.61
476.619	297.52
476.828	321.15
477.037	329.1
477.245	341.5
477.454	398.07
477.663	313.6
477.872	302.94
478.081	400.78
478.29	322.51
478.499	402.33
478.708	360.68
478.917	397.68
479.125	374.82
479.334	388.96
479.543	329.1
479.752	375.98
479.961	376.18
480.169	421.32
480.378	366.88
480.587	457.16
480.796	373.27
481.004	367.46
481.213	414.34
481.422	402.91
481.63	403.88
481.839	420.16
482.048	456.97
482.256	391.68
482.465	412.02
482.674	399.04
482.882	436.24
483.091	483.71
483.299	453.09
483.508	426.94
483.716	400.2
483.925	442.05
484.134	405.24
484.342	410.66
484.551	457.94
484.759	445.54
484.967	421.71
485.176	463.75
485.384	449.03
485.593	452.32
485.801	440.69
486.01	413.18
486.218	410.28
486.426	360.68
486.635	377.53
486.843	429.07
487.051	440.5
487.26	370.17
487.468	417.25
487.676	471.5
487.885	418.61
488.093	462.2
488.301	449.22
488.509	470.92
488.717	504.05
488.926	468.4
489.134	471.89
489.342	475.76
489.55	430.23
489.758	439.73
489.967	447.09
490.175	554.42
490.383	456.97
490.591	539.51
490.799	457.36
491.007	511.22
491.215	498.62
491.423	495.33
491.631	516.45
491.839	492.81
492.047	528.27
492.255	470.34
492.463	440.89
492.671	465.69
492.879	525.56
493.087	503.27
493.295	500.17
493.503	545.32
493.711	510.44
493.919	555.2
494.127	558.88
494.334	563.34
494.542	466.85
494.75	534.86
494.958	527.49
495.166	577.48
495.374	554.62
495.581	546.29
495.789	534.47
495.997	584.65
496.205	526.72
496.412	542.41
496.62	555.59
496.828	554.81
497.035	513.74
497.243	599.95
497.451	564.69
497.658	555.59
497.866	569.54
498.074	622.24
498.281	526.33
498.489	627.27
498.696	551.71
498.904	564.3
499.112	537.37
499.319	619.52
499.527	572.44
499.734	584.84
499.942	526.52
500.149	536.02
500.357	607.12
500.564	529.04
500.771	588.33
500.979	503.08
501.186	557.52
501.394	553.46
501.601	572.25
501.808	597.63
502.016	571.28
502.223	568.37
502.43	577.48
502.638	544.16
502.845	568.18
503.052	612.55
503.26	585.04
503.467	659.82
503.674	595.89
503.881	614.49
504.089	651.3
504.296	640.64
504.503	545.51
504.71	600.54
504.917	555.39
505.125	620.1
505.332	602.09
505.539	629.79
505.746	679
505.953	645.49
506.16	691.02
506.367	694.5
506.574	705.55
506.781	691.98
506.988	642.77
507.195	671.83
507.402	654.59
507.609	672.8
507.816	635.99
508.023	620.49
508.23	639.29
508.437	586.2
508.644	666.8
508.851	716.2
509.058	681.13
509.265	679.2
509.472	686.17
509.679	742.94
509.885	654.4
510.092	671.83
510.299	684.62
510.506	673.77
510.713	706.71
510.92	698.18
511.126	703.61
511.333	758.05
511.54	723.95
511.746	771.42
511.953	769.29
512.16	739.06
512.367	706.52
512.573	702.06
512.78	713.1
512.987	708.84
513.193	723.18
513.4	651.1
513.606	687.72
513.813	757.86
514.02	734.42
514.226	816.95
514.433	800.1
514.639	709.42
514.846	732.48
515.052	716.01
515.259	766
515.465	728.02
515.672	759.02
515.878	826.64
516.085	756.11
516.291	809.78
516.497	728.8
516.704	731.12
516.91	702.25
517.117	659.24
517.323	651.68
517.529	736.93
517.736	716.2
517.942	709.03
518.148	702.25
518.354	761.54
518.561	745.07
518.767	734.03
518.973	790.02
519.179	785.95
519.386	743.91
519.592	758.25
519.798	758.63
520.004	849.11
520.21	769.1
520.417	829.35
520.623	851.83
520.829	846.21
521.035	864.23
521.241	853.38
521.447	863.45
521.653	968.46
521.859	832.26
522.065	869.26
522.271	981.83
522.477	910.14
522.683	935.91
522.889	952.77
523.095	922.54
523.301	871.01
523.507	840.98
523.713	918.09
523.919	851.05
524.125	971.37
524.331	904.14
524.537	983.19
524.742	967.88
524.948	1004.89
525.154	968.66
525.36	1058.17
525.566	1008.18
525.772	1021.74
525.977	936.3
526.183	989.58
526.389	1004.5
526.595	950.06
526.8	938.24
527.006	874.49
527.212	889.61
527.417	880.69
527.623	876.82
527.829	928.16
528.034	945.6
528.24	952.57
528.446	929.32
528.651	982.8
528.857	1001.98
529.062	1052.74
529.268	988.42
529.473	1032.2
529.679	1023.87
529.884	1094.2
530.09	1005.27
530.295	1074.83
530.501	1066.89
530.706	1067.47
530.912	1000.24
531.117	1047.12
531.323	1051.77
531.528	1074.64
531.733	1075.99
531.939	1024.26
532.144	1095.37
532.35	1075.02
532.555	1120.75
532.76	1096.33
532.966	1093.82
533.171	1074.05
533.376	1053.32
533.581	1018.84
533.787	1054.1
533.992	1086.45
534.197	1108.73
534.402	1081.42
534.607	1069.6
534.813	1176.16
535.018	1097.88
535.223	1070.76
535.428	1098.27
535.633	1153.88
535.838	1123.85
536.043	1149.62
536.249	1228.08
536.454	1137.6
536.659	1171.9
536.864	1081.22
537.069	1094.98
537.274	1129.66
537.479	1134.31
537.684	1165.7
537.889	1122.88
538.094	1194.37
538.299	1156.01
538.504	1161.82
538.708	1126.37
538.913	1184.68
539.118	1115.32
539.323	1168.22
539.528	1139.35
539.733	1170.93
539.938	1157.75
540.142	1156.01
540.347	1137.22
540.552	1123.07
540.757	1143.61
540.962	1132.76
541.166	1103.31
541.371	1081.42
541.576	1149.23
541.781	1053.9
541.985	1160.08
542.19	1123.46
542.395	1228.08
542.599	1208.51
542.804	1196.5
543.008	1254.43
543.213	1166.08
543.418	1148.07
543.622	1226.73
543.827	1131.79
544.031	1238.35
544.236	1213.75
544.44	1199.99
544.645	1278.26
544.849	1171.7
545.054	1232.73
545.258	1290.66
545.463	1230.02
545.667	1210.84
545.872	1240.1
546.076	1225.76
546.281	1230.41
546.485	1188.36
546.689	1228.08
546.894	1252.11
547.098	1225.56
547.302	1175
547.507	1203.48
547.711	1199.8
547.915	1269.35
548.119	1189.33
548.324	1194.76
548.528	1247.26
548.732	1215.68
548.936	1239.51
549.141	1263.54
549.345	1209.48
549.549	1243.97
549.753	1262.38
549.957	1309.84
550.161	1304.42
550.366	1226.15
550.57	1228.66
550.774	1237.77
550.978	1241.65
551.182	1254.24
551.386	1225.95
551.59	1219.75
551.794	1223.63
551.998	1253.27
552.202	1247.07
552.406	1224.6
552.61	1257.92
552.814	1258.11
553.018	1329.03
553.222	1237.96
553.426	1238.55
553.63	1320.5
553.833	1233.7
554.037	1211.42
554.241	1259.66
554.445	1254.63
554.649	1243.39
554.853	1212.2
555.056	1285.43
555.26	1299.19
555.464	1245.33
555.668	1258.5
555.871	1285.04
556.075	1297.44
556.279	1213.55
556.483	1170.73
556.686	1231.18
556.89	1241.65
557.094	1263.54
557.297	1197.08
557.501	1282.33
557.704	1168.8
557.908	1237.38
558.112	1201.93
558.315	1284.46
558.519	1212.39
558.722	1210.45
558.926	1198.05
559.129	1156.78
559.333	1166.47
559.536	1157.56
559.74	1145.35
559.943	1133.15
560.147	1126.56
560.35	1179.65
560.553	1160.66
560.757	1165.5
560.96	1233.31
561.164	1155.43
561.367	1252.88
561.57	1137.8
561.774	1175.58
561.977	1180.61
562.18	1176.55
562.384	1268.96
562.587	1137.41
562.79	1150.2
562.993	1154.07
563.197	1214.33
563.4	1224.01
563.603	1202.9
563.806	1255.6
564.009	1138.96
564.212	1186.62
564.416	1128.69
564.619	1158.14
564.822	1118.42
565.025	1189.53
565.228	1143.61
565.431	1171.9
565.634	1061.85
565.837	1111.83
566.04	1092.85
566.243	1114.35
566.446	1031.62
566.649	1142.64
566.852	1076.38
567.055	1098.66
567.258	1165.89
567.461	1219.95
567.664	1161.82
567.867	1085.48
568.07	1142.25
568.273	1140.51
568.475	1179.65
568.678	1111.25
568.881	1088.2
569.084	1080.84
569.287	1021.35
569.489	1062.04
569.692	1097.88
569.895	1084.9
570.098	1002.95
570.3	1041.5
570.503	987.64
570.706	995.2
570.909	1003.14
571.111	987.84
571.314	990.74
571.516	1011.67
571.719	1034.92
571.922	1007.21
572.124	984.16
572.327	1020.39
572.529	948.7
572.732	961.68
572.935	1048.09
573.137	1070.57
573.34	1001.59
573.542	1030.65
573.745	1054.68
573.947	1024.65
574.15	1000.04
574.352	976.41
574.554	1053.71
574.757	993.26
574.959	964.39
575.162	954.71
575.364	979.51
575.566	1081.22
575.769	935.91
575.971	961.29
576.173	881.66
576.376	970.79
576.578	989.58
576.78	1039.37
576.982	891.54
577.185	918.28
577.387	925.45
577.589	923.9
577.791	977.96
577.993	999.65
578.196	939.59
578.398	972.72
578.6	968.27
578.802	906.66
579.004	911.69
579.206	906.46
579.408	965.56
579.61	901.81
579.812	962.26
580.014	923.51
580.216	923.51
580.418	933.78
580.62	906.66
580.822	890.77
581.024	932.62
581.226	942.31
581.428	937.46
581.63	994.23
581.832	918.67
582.034	978.92
582.236	932.23
582.438	960.32
582.64	992.49
582.841	999.46
583.043	1026.78
583.245	967.88
583.447	966.52
583.649	918.09
583.85	956.64
584.052	1025.04
584.254	920.99
584.456	992.49
584.657	917.51
584.859	954.51
585.061	947.92
585.262	910.34
585.464	872.17
585.666	971.76
585.867	921.96
586.069	962.46
586.27	958.97
586.472	905.49
586.674	905.49
586.875	891.74
587.077	879.53
587.278	951.02
587.48	910.72
587.681	992.49
587.883	933.78
588.084	899.1
588.285	900.07
588.487	895.81
588.688	908.4
588.89	851.44
589.091	822.38
589.292	853.38
589.494	820.63
589.695	830.13
589.896	739.06
590.098	760.76
590.299	826.44
590.5	786.53
590.702	768.71
590.903	847.56
591.104	866.36
591.305	834
591.507	904.72
591.708	864.23
591.909	855.51
592.11	893.68
592.311	871.2
592.512	848.14
592.714	792.54
592.915	809.01
593.116	814.82
593.317	836.71
593.518	839.04
593.719	842.33
593.92	852.21
594.121	888.83
594.322	857.83
594.523	852.99
594.724	834.78
594.925	849.11
595.126	825.86
595.327	855.31
595.528	871.01
595.729	836.33
595.929	824.31
596.13	830.13
596.331	839.43
596.532	837.1
596.733	886.89
596.934	851.24
597.135	901.23
597.335	879.73
597.536	815.21
597.737	846.98
597.938	798.35
598.138	856.28
598.339	830.32
598.54	877.79
598.74	836.13
598.941	844.66
599.142	913.44
599.342	847.95
599.543	824.89
599.744	838.07
599.944	816.56
600.145	809.01
600.345	840.01
600.546	927
600.746	881.47
600.947	929.13
601.147	851.05
601.348	889.8
601.548	855.31
601.749	874.69
601.949	800.87
602.15	803.97
602.35	811.72
602.551	889.61
602.751	829.93
602.951	816.76
603.152	772.58
603.352	869.07
603.552	815.21
603.753	842.91
603.953	811.72
604.153	854.54
604.354	811.72
604.554	858.99
604.754	864.42
604.954	798.93
605.155	842.72
605.355	872.17
605.555	846.98
605.755	883.99
605.955	838.65
606.155	881.47
606.356	839.43
606.556	849.5
606.756	842.53
606.956	792.73
607.156	884.96
607.356	796.22
607.556	832.64
607.756	831.09
607.956	862.48
608.156	815.4
608.356	802.03
608.556	870.81
608.756	784.79
608.956	803.2
609.156	814.63
609.356	772.2
609.556	796.22
609.755	815.98
609.955	797
610.155	835.55
610.355	794.48
610.555	775.3
610.755	809.78
610.954	731.9
611.154	781.69
611.354	832.45
611.554	750.3
611.753	782.08
611.953	757.86
612.153	814.82
612.352	787.7
612.552	740.61
612.752	684.62
612.951	762.7
613.151	786.15
613.351	732.28
613.55	775.3
613.75	774.33
613.949	788.47
614.149	751.85
614.348	748.56
614.548	716.2
614.747	718.92
614.947	746.23
615.146	689.08
615.346	798.35
615.545	766.19
615.745	773.16
615.944	797.58
616.144	752.43
616.343	788.66
616.542	733.64
616.742	725.12
616.941	727.44
617.14	703.22
617.34	758.44
617.539	766.19
617.738	727.25
617.938	803
618.137	708.07
618.336	692.37
618.535	765.41
618.734	727.83
618.934	754.56
619.133	758.25
619.332	743.91
619.531	681.52
619.73	745.85
619.929	771.61
620.128	758.63
620.328	792.73
620.527	697.99
620.726	723.76
620.925	746.23
621.124	706.13
621.323	757.47
621.522	696.44
621.721	690.05
621.92	664.08
622.119	739.26
622.318	699.73
622.517	734.61
622.715	698.96
622.914	654.01
623.113	705.55
623.312	635.99
623.511	748.36
623.71	687.53
623.909	679.39
624.107	762.9
624.306	672.8
624.505	651.3
624.704	675.71
624.902	690.05
625.101	736.55
625.3	733.45
625.499	665.63
625.697	653.23
625.896	651.88
626.095	723.18
626.293	600.54
626.492	656.92
626.69	693.53
626.889	659.82
627.088	700.51
627.286	638.9
627.485	646.65
627.683	639.87
627.882	686.37
628.08	606.54
628.279	636.57
628.477	726.28
628.676	644.71
628.874	653.04
629.073	629.99
629.271	636.77
629.469	643.55
629.668	629.6
629.866	635.02
630.065	624.56
630.263	688.3
630.461	615.45
630.66	648.97
630.858	676.87
631.056	690.24
631.254	694.31
631.453	601.12
631.651	678.81
631.849	630.37
632.047	653.82
632.245	638.7
632.444	658.85
632.642	650.72
632.84	665.25
633.038	642.58
633.236	613.13
633.434	621.65
633.632	610.42
633.83	623.2
634.028	674.16
634.227	647.62
634.425	699.73
634.623	632.5
634.821	654.98
635.019	660.21
635.216	632.5
635.414	672.22
635.612	643.16
635.81	608.87
636.008	684.82
636.206	651.3
636.404	687.72
636.602	594.92
636.8	637.93
636.997	651.68
637.195	642.58
637.393	650.91
637.591	674.55
637.789	647.62
637.986	641.61
638.184	619.14
638.382	672.03
638.58	674.93
638.777	717.37
638.975	662.73
639.173	665.25
639.37	651.68
639.568	685.01
639.765	648
639.963	642.77
640.161	662.15
640.358	679.39
640.556	603.25
640.753	598.4
640.951	586.2
641.148	641.42
641.346	627.66
641.543	630.37
641.741	665.44
641.938	588.91
642.136	635.41
642.333	586.97
642.531	661.37
642.728	650.13
642.925	609.84
643.123	621.27
643.32	637.35
643.517	589.3
643.715	636.77
643.912	586
644.109	647.23
644.306	607.12
644.504	576.12
644.701	604.02
644.898	642.39
645.095	561.2
645.293	612.35
645.49	631.73
645.687	628.24
645.884	613.32
646.081	545.12
646.278	597.44
646.475	585.04
646.672	588.33
646.87	619.52
647.067	593.56
647.264	592.79
647.461	521.68
647.658	528.85
647.855	617.2
648.052	558.3
648.249	503.86
648.446	548.03
648.642	527.11
648.839	544.54
649.036	531.37
649.233	518
649.43	521.29
649.627	510.06
649.824	559.66
650.021	502.11
650.217	494.17
650.414	524.01
650.611	555.01
650.808	588.91
651.004	556.17
651.201	578.06
651.398	616.81
651.595	549.58
651.791	533.69
651.988	581.55
652.185	519.16
652.381	563.14
652.578	518.19
652.775	558.11
652.971	560.04
653.168	540.47
653.364	573.41
653.561	504.63
653.757	557.52
653.954	559.46
654.15	517.03
654.347	621.27
654.543	543.19
654.74	473.82
654.936	496.11
655.133	534.08
655.329	542.02
655.525	535.63
655.722	552.1
655.918	478.47
656.115	535.24
656.311	457.55
656.507	464.33
656.704	400.59
656.9	442.24
657.096	439.14
657.292	464.53
657.489	522.84
657.685	506.96
657.881	483.12
658.077	473.05
658.273	475.37
658.47	556.75
658.666	507.34
658.862	521.1
659.058	491.46
659.254	529.24
659.45	472.86
659.646	516.84
659.842	490.49
660.038	530.21
660.234	459.1
660.43	515.67
660.626	571.47
660.822	537.96
661.018	532.53
661.214	484.87
661.41	471.89
661.606	545.12
661.802	539.31
661.998	506.37
662.194	468.79
662.39	520.13
662.586	526.33
662.781	518.77
662.977	513.54
663.173	528.85
663.369	469.76
663.564	530.98
663.76	509.28
663.956	474.02
664.152	533.5
664.347	481.96
664.543	500.95
664.739	474.99
664.934	451.54
665.13	460.07
665.326	515.48
665.521	490.68
665.717	469.76
665.912	459.68
666.108	414.73
666.304	454.84
666.499	450.96
666.695	408.53
666.89	454.26
667.086	495.91
667.281	490.87
667.477	523.62
667.672	479.44
667.867	459.49
668.063	495.33
668.258	439.73
668.454	482.93
668.649	542.99
668.844	469.37
669.04	476.54
669.235	474.79
669.43	434.49
669.626	424.03
669.821	449.8
670.016	425.39
670.211	477.7
670.407	411.83
670.602	462.39
670.797	432.17
670.992	499.01
671.187	415.12
671.382	501.72
671.578	439.92
671.773	433.14
671.968	420.54
672.163	474.6
672.358	501.72
672.553	421.32
672.748	434.88
672.943	534.66
673.138	453.87
673.333	482.93
673.528	433.53
673.723	459.1
673.918	415.89
674.113	417.44
674.308	522.84
674.503	458.13
674.698	481.57
674.892	475.18
675.087	463.56
675.282	475.37
675.477	422.68
675.672	472.86
675.867	416.28
676.061	399.62
676.256	399.62
676.451	421.71
676.646	456
676.84	432.36
677.035	394.19
677.23	420.35
677.424	438.95
677.619	501.34
677.814	457.94
678.008	456.97
678.203	387.03
678.397	443.02
678.592	441.47
678.787	485.45
678.981	443.02
679.176	469.56
679.37	426.16
679.565	412.6
679.759	423.64
679.954	420.74
680.148	488.36
680.342	462.39
680.537	473.82
680.731	435.85
680.926	473.63
681.12	444.96
681.314	393.23
681.509	418.8
681.703	433.14
681.897	448.06
682.092	442.05
682.286	442.24
682.48	490.1
682.674	467.43
682.869	423.45
683.063	420.74
683.257	521.87
683.451	420.16
683.645	437.4
683.839	412.79
684.034	417.06
684.228	470.34
684.422	392.26
684.616	406.79
684.81	493.59
685.004	443.41
685.198	458.33
685.392	475.96
685.586	450.19
685.78	455.42
685.974	469.76
686.168	469.76
686.362	466.85
686.556	420.93
686.75	386.83
686.944	410.47
687.138	419.77
687.331	341.69
687.525	360.1
687.719	276.4
687.913	345.56
688.107	374.43
688.301	356.03
688.494	400.59
688.688	337.81
688.882	344.98
689.076	282.02
689.269	361.45
689.463	450.96
689.657	361.65
689.85	367.85
690.044	374.43
690.238	333.55
690.431	373.27
690.625	388.77
690.818	421.13
691.012	424.61
691.205	444.18
691.399	375.79
691.593	415.12
691.786	459.49
691.98	479.64
692.173	493.59
692.366	456.39
692.56	461.23
692.753	529.62
692.947	473.24
693.14	508.12
693.333	490.49
693.527	442.83
693.72	473.63
693.914	469.37
694.107	488.74
694.3	489.13
694.493	477.12
694.687	507.92
694.88	497.46
695.073	559.85
695.266	537.96
695.46	545.9
695.653	574.57
695.846	571.28
696.039	470.53
696.232	526.14
696.425	596.08
696.618	583.87
696.812	578.64
697.005	643.16
697.198	689.85
697.391	616.04
697.584	641.22
697.777	653.04
697.97	655.17
698.163	673.58
698.356	654.2
698.549	741.2
698.742	710.58
698.935	661.57
699.127	680.94
699.32	640.25
699.513	679.39
699.706	682.68
699.899	717.56
700.092	675.71
700.285	712.72
700.477	644.32
700.67	733.83
700.863	739.45
701.056	774.33
701.248	787.5
701.441	762.31
701.634	725.89
701.826	835.74
702.019	728.8
702.212	839.23
702.404	754.95
702.597	763.67
702.79	778.4
702.982	792.15
703.175	863.26
703.367	844.46
703.56	859.19
703.752	933.39
703.945	870.04
704.137	890.96
704.33	913.05
704.522	925.84
704.715	894.64
704.907	941.53
705.1	960.91
705.292	958.77
705.484	935.91
705.677	962.07
705.869	960.52
706.061	999.46
706.254	1032.01
706.446	979.31
706.638	1001.01
706.831	1063.2
707.023	997.33
707.215	1098.85
707.407	1109.32
707.599	1069.6
707.792	1136.44
707.984	1086.45
708.176	1131.79
708.368	1079.09
708.56	1138.57
708.752	1111.25
708.944	1116.1
709.136	1184.3
709.329	1115.71
709.521	1266.06
709.713	1205.61
709.905	1200.76
710.097	1226.15
710.289	1181
710.481	1208.32
710.672	1221.88
710.864	1232.15
711.056	1312.94
711.248	1279.62
711.44	1275.74
711.632	1225.56
711.824	1281.56
712.016	1351.89
712.207	1354.99
712.399	1319.92
712.591	1420.09
712.783	1348.98
712.975	1399.16
713.166	1351.31
713.358	1346.46
713.55	1437.72
713.741	1410.4
713.933	1413.11
714.125	1420.67
714.316	1379.79
714.508	1423.38
714.7	1470.27
714.891	1431.71
715.083	1518.51
715.274	1463.87
715.466	1480.54
715.657	1470.65
715.849	1419.89
716.04	1482.47
716.232	1406.72
716.423	1472.01
716.615	1411.17
716.806	1353.44
716.998	1360.22
717.189	1333.87
717.381	1244.75
717.572	1253.27
717.763	1261.02
717.955	1264.89
718.146	1227.89
718.337	1185.26
718.528	1158.14
718.72	1093.23
718.911	1154.27
719.102	1129.85
719.293	1162.21
719.485	1153.3
719.676	1172.09
719.867	1109.9
720.058	1133.15
720.249	1125.59
720.44	1161.63
720.632	1206.77
720.823	1261.99
721.014	1312.94
721.205	1305.58
721.396	1367.97
721.587	1462.13
721.778	1476.66
721.969	1471.24
722.16	1543.7
722.351	1539.63
722.542	1646.58
722.733	1602.02
722.924	1562.49
723.115	1631.27
723.305	1572.76
723.496	1611.51
723.687	1522.19
723.878	1500.69
724.069	1512.7
724.26	1549.9
724.45	1478.21
724.641	1454.77
724.832	1507.66
725.023	1494.49
725.213	1462.52
725.404	1414.66
725.595	1470.27
725.785	1444.89
725.976	1513.28
726.167	1513.67
726.357	1505.92
726.548	1639.6
726.739	1534.59
726.929	1567.53
727.12	1606.08
727.31	1648.13
727.501	1580.7
727.691	1573.34
727.882	1563.65
728.072	1635.92
728.263	1590.2
728.453	1656.26
728.644	1684.75
728.834	1631.85
729.024	1615
729.215	1634.37
729.405	1630.88
729.596	1694.82
729.786	1719.04
729.976	1705.86
730.167	1746.16
730.357	1670.02
730.547	1679.9
730.737	1733.18
730.928	1770.77
731.118	1775.03
731.308	1741.51
731.498	1759.53
731.688	1818.04
731.879	1787.24
732.069	1844.01
732.259	1850.4
732.449	1851.56
732.639	1900.19
732.829	1962.97
733.019	1999.58
733.209	2003.46
733.399	2002.1
733.589	2087.93
733.779	2067.2
733.969	2058.87
734.159	2084.45
734.349	2192.17
734.539	2169.69
734.729	2172.6
734.919	2236.73
735.109	2262.89
735.299	2166.21
735.488	2193.72
735.678	2217.16
735.868	2213.29
736.058	2186.55
736.248	2188.49
736.437	2163.11
736.627	2107.89
736.817	2290.4
737.007	2210.38
737.196	2309.39
737.386	2209.99
737.576	2227.62
737.765	2240.02
737.955	2208.44
738.144	2337.87
738.334	2286.91
738.524	2206.12
738.713	2268.7
738.903	2276.64
739.092	2296.99
739.282	2301.83
739.471	2304.93
739.661	2290.79
739.85	2327.21
740.04	2378.55
740.229	2314.23
740.419	2380.3
740.608	2400.64
740.797	2390.37
740.987	2388.05
741.176	2396.96
741.365	2340
741.555	2336.7
741.744	2413.43
741.933	2395.8
742.123	2439.97
742.312	2440.94
742.501	2469.42
742.69	2454.7
742.88	2384.75
743.069	2518.05
743.258	2409.17
743.447	2484.34
743.636	2448.5
743.825	2427.57
744.014	2450.63
744.204	2476.78
744.393	2420.4
744.582	2481.82
744.771	2517.86
744.96	2432.42
745.149	2505.46
745.338	2446.75
745.527	2519.8
745.716	2462.64
745.905	2478.53
746.094	2484.15
746.283	2504.49
746.471	2503.52
746.66	2534.52
746.849	2537.23
747.038	2543.05
747.227	2465.74
747.416	2538.98
747.604	2505.85
747.793	2528.51
747.982	2506.04
748.171	2529.48
748.359	2539.17
748.548	2525.8
748.737	2489.38
748.926	2534.13
749.114	2414.4
749.303	2469.42
749.491	2476.98
749.68	2409.94
749.869	2486.66
750.057	2448.11
750.246	2466.71
750.434	2475.23
750.623	2468.84
750.811	2401.22
751	2495.96
751.188	2449.66
751.377	2490.54
751.565	2426.22
751.754	2395.8
751.942	2428.35
752.131	2464
752.319	2413.62
752.507	2381.27
752.696	2430.67
752.884	2475.82
753.072	2430.28
753.261	2416.53
753.449	2442.49
753.637	2404.9
753.825	2512.63
754.014	2419.63
754.202	2471.55
754.39	2485.89
754.578	2469.23
754.766	2432.8
754.955	2420.98
755.143	2499.84
755.331	2383.2
755.519	2395.99
755.707	2382.62
755.895	2394.25
756.083	2413.43
756.271	2338.25
756.459	2366.74
756.647	2425.44
756.835	2387.66
757.023	2338.64
757.211	2363.83
757.399	2382.82
757.587	2343.49
757.775	2298.34
757.963	2356.66
758.151	2340.77
758.339	2324.5
758.526	2326.82
758.714	2362.47
758.902	2214.06
759.09	2179.38
759.278	2050.93
759.465	1871.9
759.653	1597.37
759.841	1501.27
760.028	1261.79
760.216	1131.02
760.404	1052.55
760.591	860.54
760.779	709.81
760.967	624.75
761.154	487.58
761.342	568.76
761.529	559.66
761.717	611.58
761.905	589.3
762.092	653.04
762.28	598.21
762.467	606.93
762.655	555.59
762.842	592.4
763.029	562.56
763.217	595.69
763.404	621.07
763.592	623.01
763.779	583.1
763.966	625.92
764.154	623.59
764.341	675.9
764.528	690.82
764.716	759.21
764.903	786.53
765.09	793.51
765.277	879.34
765.465	976.41
765.652	1029.49
765.839	1043.05
766.026	1170.93
766.213	1170.93
766.4	1260.63
766.588	1385.41
766.775	1350.53
766.962	1442.56
767.149	1510.57
767.336	1617.51
767.523	1579.35
767.71	1651.03
767.897	1789.56
768.084	1833.35
768.271	1809.71
768.458	1874.42
768.645	1919.37
768.832	1886.63
769.019	1881.01
769.206	1919.95
769.392	1995.9
769.579	2086.58
769.766	1994.35
769.953	1996.48
770.14	2031.94
770.327	2040.85
770.513	2077.86
770.7	2129.4
770.887	2046.86
771.073	2095.68
771.26	2107.89
771.447	2041.24
771.634	2074.95
771.82	2164.27
772.007	2106.73
772.193	2071.66
772.38	2141.79
772.567	2088.13
772.753	2122.61
772.94	2148.38
773.126	2149.74
773.313	2147.61
773.499	2109.44
773.686	2129.01
773.872	2109.44
774.059	2139.86
774.245	2060.61
774.432	2064.88
774.618	2014.12
774.804	2103.43
774.991	2039.88
775.177	2113.7
775.363	2070.11
775.55	2122.03
775.736	2048.41
775.922	2053.06
776.109	2059.84
776.295	2058.48
776.481	2070.69
776.667	2086.19
776.853	2046.08
777.04	2015.67
777.226	2041.24
777.412	2127.85
777.598	2021.28
777.784	2025.93
777.97	2006.17
778.156	2011.21
778.342	2010.82
778.528	2027.68
778.715	1973.23
778.901	2017.02
779.087	2003.85
779.272	1976.14
779.458	1948.63
779.644	2025.74
779.83	1943.79
780.016	2102.08
780.202	1968.2
780.388	1953.28
780.574	1932.16
780.76	1944.75
780.946	2001.33
781.131	1968
781.317	1932.35
781.503	1950.57
781.689	1923.64
781.874	2016.63
782.06	1948.63
782.246	1928.87
782.432	1925.77
782.617	1945.72
782.803	1963.35
782.989	1888.95
783.174	1944.95
783.36	1880.24
783.545	1900.39
783.731	1922.86
783.916	1825.99
784.102	1904.84
784.288	1841.87
784.473	1858.15
784.659	1839.55
784.844	1935.65
785.029	1832.77
785.215	1811.26
785.4	1802.16
785.586	1909.49
785.771	1784.52
785.956	1870.16
786.142	1843.23
786.327	1821.34
786.512	1845.36
786.698	1854.66
786.883	1766.12
787.068	1783.17
787.254	1796.73
787.439	1753.91
787.624	1824.05
787.809	1760.69
787.994	1755.66
788.18	1818.62
788.365	1728.53
788.55	1788.98
788.735	1744.61
788.92	1730.47
789.105	1749.65
789.29	1736.67
789.475	1714
789.66	1752.56
789.845	1715.36
790.03	1681.84
790.215	1747.52
790.4	1756.82
790.585	1766.51
790.77	1697.34
790.955	1626.04
791.14	1692.3
791.325	1751.98
791.51	1606.67
791.695	1691.53
791.879	1686.68
792.064	1631.08
792.249	1739.38
792.434	1699.47
792.618	1662.66
792.803	1725.04
792.988	1676.22
793.173	1680.29
793.357	1666.34
793.542	1648.9
793.727	1664.01
793.911	1717.68
794.096	1696.76
794.281	1682.03
794.465	1775.03
794.65	1674.09
794.834	1735.7
795.019	1722.14
795.203	1751.59
795.388	1743.26
795.572	1754.49
795.757	1727.76
795.941	1739.96
796.126	1731.24
796.31	1657.04
796.494	1731.24
796.679	1690.75
796.863	1652.58
797.048	1749.46
797.232	1725.24
797.416	1694.24
797.601	1677.58
797.785	1729.69
797.969	1739.96
798.153	1680.29
798.338	1727.18
798.522	1744.03
798.706	1748.88
798.89	1748.49
799.074	1829.47
799.258	1773.48
799.443	1727.56
799.627	1716.33
799.811	1771.74
799.995	1711.68
800.179	1671.57
800.363	1693.85
800.547	1724.85
800.731	1756.63
800.915	1680.68
801.099	1724.27
801.283	1719.62
801.467	1701.21
801.651	1670.99
801.835	1736.48
802.019	1710.71
802.202	1733.57
802.386	1658.98
802.57	1662.08
802.754	1703.73
802.938	1678.55
803.121	1691.53
803.305	1752.36
803.489	1708.38
803.673	1708.38
803.856	1702.38
804.04	1681.26
804.224	1695.01
804.407	1695.98
804.591	1675.06
804.775	1710.51
804.958	1718.84
805.142	1802.74
805.326	1707.8
805.509	1717.68
805.693	1758.95
805.876	1786.07
806.06	1723.3
806.243	1756.24
806.427	1784.72
806.61	1771.35
806.794	1714.97
806.977	1767.86
807.16	1776.97
807.344	1762.44
807.527	1720.78
807.71	1700.83
807.894	1769.61
808.077	1763.02
808.26	1663.24
808.444	1681.06
808.627	1772.71
808.81	1700.24
808.993	1634.76
809.177	1646.19
809.36	1702.18
809.543	1730.47
809.726	1587.87
809.909	1657.62
810.092	1588.84
810.276	1605.7
810.459	1640.76
810.642	1575.86
810.825	1581.87
811.008	1598.14
811.191	1517.54
811.374	1533.43
811.557	1562.1
811.74	1632.24
811.923	1494.68
812.106	1513.47
812.289	1470.46
812.472	1504.75
812.654	1546.8
812.837	1444.69
813.02	1427.26
813.203	1430.36
813.386	1330.19
813.569	1354.6
813.751	1309.84
813.934	1336.78
814.117	1322.24
814.3	1291.44
814.482	1244.75
814.665	1235.06
814.848	1246.3
815.03	1181.39
815.213	1168.41
815.396	1155.43
815.578	1161.24
815.761	1120.55
815.943	1195.73
816.126	1131.98
816.309	1101.76
816.491	1052.74
816.674	998.88
816.856	1073.86
817.039	1034.14
817.221	1125.4
817.403	1076.19
817.586	1079.67
817.768	1082.58
817.951	1043.05
818.133	1034.34
818.315	1040.92
818.498	1099.05
818.68	1146.52
818.862	1104.47
819.045	1115.71
819.227	1129.47
819.409	1070.37
819.591	1105.44
819.774	1066.11
819.956	1047.32
820.138	1143.22
820.32	1122.3
820.502	1102.73
820.684	1204.45
820.866	1225.95
821.048	1220.14
821.231	1224.98
821.413	1212
821.595	1226.15
821.777	1239.71
821.959	1182.36
822.141	1244.55
822.323	1152.13
822.505	1098.66
822.686	1093.62
822.868	1053.13
823.05	971.76
823.232	987.64
823.414	908.21
823.596	982.41
823.778	946.76
823.96	939.79
824.141	964.97
824.323	966.72
824.505	1063.59
824.687	1085.68
824.868	1109.12
825.05	1181.78
825.232	1176.35
825.413	1258.11
825.595	1197.86
825.777	1158.92
825.958	1171.51
826.14	1175.38
826.321	1233.31
826.503	1175.19
826.685	1176.16
826.866	1184.68
827.048	1177.32
827.229	1150.2
827.411	1117.84
827.592	1115.71
827.773	1123.46
827.955	1071.15
828.136	1075.99
828.318	1056.81
828.499	1094.4
828.68	1032.01
828.862	1097.5
829.043	1096.14
829.224	1079.87
829.406	1018.06
829.587	1037.44
829.768	1049.25
829.949	1071.92
830.131	1063.98
830.312	1101.57
830.493	1070.76
830.674	1072.89
830.855	1071.15
831.036	1061.07
831.218	1130.24
831.399	1155.23
831.58	1092.65
831.761	1051.19
831.942	1100.21
832.123	1069.99
832.304	996.94
832.485	1036.85
832.666	1069.6
832.847	1086.84
833.028	1095.95
833.209	1061.85
833.389	1072.5
833.57	996.75
833.751	998.1
833.932	1093.04
834.113	1054.87
834.294	1019.42
834.475	1088.78
834.655	1107.77
834.836	1131.6
835.017	1085.68
835.198	1032.59
835.378	1085.68
835.559	1103.31
835.74	1067.85
835.92	1050.03
836.101	1033.56
836.281	1102.34
836.462	1114.93
836.643	1122.88
836.823	1123.65
837.004	1102.15
837.184	1179.06
837.365	1115.9
837.545	1165.5
837.726	1090.52
837.906	1170.15
838.087	1118.23
838.267	1138.38
838.448	1075.6
838.628	1129.66
838.808	1098.66
838.989	1146.52
839.169	1058.94
839.349	1147.1
839.53	1118.42
839.71	1149.23
839.89	1070.95
840.07	1153.1
840.251	1075.22
840.431	1155.23
840.611	1095.17
840.791	1099.63
840.971	1143.8
841.151	1069.79
841.332	1078.32
841.512	1118.42
841.692	1035.89
841.872	1111.25
842.052	1118.23
842.232	1149.03
842.412	1061.27
842.592	1057.2
842.772	1147.1
842.952	1129.08
843.132	1093.62
843.312	1054.68
843.492	1046.35
843.672	1100.79
843.851	1018.84
844.031	1114.93
844.211	1085.29
844.391	1059.91
844.571	1115.71
844.751	1091.49
844.93	1043.64
845.11	1070.76
845.29	1076.77
845.47	1093.23
845.649	1064.17
845.829	1103.5
846.009	1037.05
846.188	1089.17
846.368	1080.25
846.547	1064.95
846.727	1098.85
846.907	1031.04
847.086	1072.12
847.266	1133.15
847.445	1049.84
847.625	1045.96
847.804	1033.17
847.984	1044.6
848.163	1035.3
848.343	1058.55
848.522	1022.52
848.701	1042.67
848.881	1015.93
849.06	1015.54
849.239	1044.99
849.419	1064.37
849.598	996.56
849.777	1016.32
849.957	990.74
850.136	946.76
850.315	909.76
850.494	921.38
850.674	946.96
850.853	981.83
851.032	979.31
851.211	1038.6
851.39	1003.72
851.569	932.42
851.748	941.92
851.927	1010.31
852.107	998.69
852.286	951.02
852.465	944.24
852.644	969.04
852.823	975.24
853.002	953.54
853.181	950.83
853.359	972.92
853.538	927.19
853.717	992.29
853.896	873.72
854.075	849.5
854.254	844.66
854.433	824.12
854.611	868.49
854.79	808.62
854.969	858.41
855.148	865.39
855.327	820.44
855.505	873.33
855.684	815.4
855.863	896.19
856.041	850.47
856.22	896
856.399	861.13
856.577	933.59
856.756	928.16
856.934	1019.42
857.113	1022.52
857.291	915.57
857.47	898.91
857.648	932.62
857.827	928.36
858.005	986.67
858.184	906.66
858.362	1003.92
858.541	927.97
858.719	925.26
858.898	911.89
859.076	917.89
859.254	979.31
859.433	906.08
859.611	910.53
859.789	869.65
859.967	939.21
860.146	965.17
860.324	883.21
860.502	884.38
860.68	846.59
860.859	868.88
861.037	863.06
861.215	884.38
861.393	877.98
861.571	886.12
861.749	846.59
861.927	903.36
862.105	850.86
862.283	860.54
862.461	859.96
862.639	841.94
862.817	864.61
862.995	870.23
863.173	855.31
863.351	886.89
863.529	884.57
863.707	863.64
863.885	860.35
864.063	811.33
864.241	840.78
864.418	904.91
864.596	836.13
864.774	805.52
864.952	852.41
865.129	880.89
865.307	863.84
865.485	765.41
865.663	852.6
865.84	772.39
866.018	830.71
866.196	708.26
866.373	769.1
866.551	717.95
866.728	676.68
866.906	711.94
867.084	763.09
867.261	789.83
867.439	766
867.616	789.44
867.794	769.29
867.971	798.16
868.149	776.07
868.326	828.38
868.503	801.26
868.681	783.05
868.858	795.25
869.035	768.51
869.213	803
869.39	784.4
869.567	857.83
869.745	742.75
869.922	790.6
870.099	808.04
870.276	834.78
870.454	808.62
870.631	786.34
870.808	778.59
870.985	814.63
871.162	871.01
871.339	800.29
871.517	755.53
871.694	741.2
871.871	770.65
872.048	780.91
872.225	774.33
872.402	776.85
872.579	707.48
872.756	802.61
872.933	693.34
873.11	759.21
873.287	778.78
873.463	723.18
873.64	738.68
873.817	766
873.994	739.45
874.171	776.26
874.348	749.53
874.524	671.45
874.701	735.38
874.878	690.24
875.055	753.79
875.231	740.42
875.408	759.99
875.585	651.3
875.762	732.48
875.938	727.05
876.115	708.84
876.291	705.93
876.468	706.52
876.645	708.65
876.821	688.3
876.998	722.4
877.174	714.27
877.351	678.81
877.527	690.05
877.704	710.58
877.88	726.86
878.057	679.97
878.233	741
878.409	699.15
878.586	723.95
878.762	712.52
878.938	663.89
879.115	622.24
879.291	705.16
879.467	629.4
879.644	642.19
879.82	698.18
879.996	669.7
880.172	619.33
880.349	656.33
880.525	681.33
880.701	644.52
880.877	649.36
881.053	650.72
881.229	653.04
881.405	711.55
881.581	628.24
881.757	668.73
881.933	663.7
882.109	696.83
882.285	650.72
882.461	616.62
882.637	664.28
882.813	643.16
882.989	660.79
883.165	691.6
883.341	643.94
883.517	675.9
883.693	670.67
883.869	690.43
884.044	614.1
884.22	714.85
884.396	724.53
884.572	669.12
884.747	669.12
884.923	656.33
885.099	673
885.275	703.03
885.45	635.8
885.626	635.22
885.801	651.88
885.977	618.36
886.153	599.95
886.328	654.2
886.504	621.07
886.679	688.69
886.855	609.84
887.03	680.17
887.206	696.63
887.381	671.83
887.557	678.42
887.732	689.27
887.908	700.32
888.083	693.92
888.258	633.86
888.434	622.24
888.609	647.81
888.784	690.43
888.96	613.32
889.135	645.68
889.31	603.25
889.485	680.17
889.661	624.95
889.836	698.18
890.011	655.95
890.186	629.6
890.361	627.27
890.537	648.58
890.712	675.9
890.887	679.78
891.062	646.45
891.237	710.97
891.412	626.3
891.587	671.83
891.762	677.84
891.937	718.72
892.112	611.39
892.287	645.68
892.462	617.59
892.637	588.91
892.812	579.61
892.987	611.58
893.161	600.92
893.336	578.64
893.511	585.62
893.686	603.25
893.861	567.02
894.035	578.84
894.21	594.34
894.385	540.86
894.56	592.59
894.734	535.24
894.909	559.27
895.084	529.04
895.258	541.64
895.433	548.81
895.608	520.91
895.782	490.68
895.957	493.59
896.131	515.29
896.306	459.88
896.48	440.11
896.655	496.11
896.829	426.74
897.004	455.61
897.178	469.76
897.353	404.46
897.527	481.96
897.701	442.05
897.876	409.31
898.05	462.59
898.224	453.09
898.399	477.12
898.573	481.77
898.747	354.28
898.921	427.71
899.096	331.81
899.27	374.24
899.444	350.6
899.618	367.07
899.792	406.21
899.967	357
900.141	398.84
900.315	355.64
900.489	356.22
900.663	393.81
900.837	397.1
901.011	324.64
901.185	455.81
901.359	387.8
901.533	390.32
901.707	405.82
901.881	383.54
902.055	349.63
902.229	377.34
902.403	437.21
902.576	401.36
902.75	398.46
902.924	475.76
903.098	407.76
903.272	474.21
903.446	496.3
903.619	435.66
903.793	468.59
903.967	450.96
904.14	522.07
904.314	488.16
904.488	473.44
904.661	517.22
904.835	483.32
905.009	506.37
905.182	540.86
905.356	480.61
905.529	459.49
905.703	464.91
905.876	446.31
906.05	430.62
906.223	453.09
906.397	395.74
906.57	417.44
906.744	369.01
906.917	375.21
907.09	375.21
907.264	401.75
907.437	361.45
907.61	350.41
907.784	351.76
907.957	361.45
908.13	325.22
908.304	378.5
908.477	323.67
908.65	357.38
908.823	307.2
908.996	397.49
909.17	331.23
909.343	349.05
909.516	350.21
909.689	325.22
909.862	313.21
910.035	346.92
910.208	317.47
910.381	318.05
910.554	398.26
910.727	328.13
910.9	332.39
911.073	283.76
911.246	389.16
911.419	395.55
911.592	352.93
911.765	305.65
911.938	309.91
912.11	332.78
912.283	313.21
912.456	377.34
912.629	328.9
912.802	351.18
912.974	289.57
913.147	271.55
913.32	242.88
913.493	286.08
913.665	293.45
913.838	300.42
914.01	279.69
914.183	277.17
914.356	275.62
914.528	317.47
914.701	360.68
914.873	353.9
915.046	284.15
915.218	273.49
915.391	220.21
915.563	229.12
915.736	318.05
915.908	308.36
916.081	301.2
916.253	270.39
916.425	292.48
916.598	284.34
916.77	298.48
916.942	256.05
917.115	193.09
917.287	302.55
917.459	250.05
917.632	238.42
917.804	180.69
917.976	258.77
918.148	259.54
918.32	243.46
918.493	301.97
918.665	338.2
918.837	289.77
919.009	335.1
919.181	331.23
919.353	295.97
919.525	301
919.697	291.12
919.869	285.12
920.041	331.23
920.213	411.05
920.385	330.65
920.557	296.16
920.729	291.32
920.901	307.01
921.073	303.13
921.244	274.85
921.416	324.64
921.588	285.31
921.76	292.67
921.932	346.92
922.103	276.98
922.275	275.23
922.447	300.23
922.619	240.36
922.79	266.32
922.962	268.45
923.134	301.39
923.305	266.9
923.477	244.62
923.648	218.08
923.82	272.72
923.991	233
924.163	191.54
924.335	259.35
924.506	227.77
924.677	302.16
924.849	241.72
925.02	259.35
925.192	264.77
925.363	237.07
925.535	272.33
925.706	240.75
925.877	300.03
926.049	220.79
926.22	241.91
926.391	257.02
926.562	279.3
926.734	233.19
926.905	294.22
927.076	187.66
927.247	237.65
927.419	220.79
927.59	192.5
927.761	203.74
927.932	200.06
928.103	236.48
928.274	160.54
928.445	156.66
928.616	208.2
928.787	188.05
928.958	210.52
929.129	193.28
929.3	186.89
929.471	170.42
929.642	121.79
929.813	76.64
929.984	162.67
930.155	78.97
930.326	153.37
930.496	119.85
930.667	71.22
930.838	122.17
931.009	67.54
931.18	84.59
931.35	100.47
931.521	120.62
931.692	73.35
931.863	37.31
932.033	103.96
932.204	72.77
932.374	102.99
932.545	50.29
932.716	104.93
932.886	111.32
933.057	26.66
933.227	28.79
933.398	110.94
933.568	49.32
933.739	-5.12
933.909	33.05
934.08	69.28
934.25	-26.24
934.421	24.33
934.591	55.14
934.761	14.64
934.932	-33.6
935.102	31.69
935.272	17.36
935.443	16.97
935.613	14.64
935.783	48.74
935.953	21.04
936.123	162.47
936.294	-20.81
936.464	22.01
936.634	28.01
936.804	-16.36
936.974	0.11
937.144	58.04
937.314	17.55
937.484	2.05
937.655	-18.29
937.825	65.21
937.995	12.51
938.165	57.07
938.334	34.21
938.504	38.09
938.674	-0.66
938.844	7.48
939.014	65.41
939.184	30.73
939.354	94.08
939.524	58.43
939.694	24.91
939.863	43.51
940.033	100.47
940.203	115.2
940.373	56.11
940.542	86.91
940.712	56.69
940.882	95.05
941.051	115.59
941.221	65.79
941.391	101.44
941.56	42.16
941.73	9.61
941.899	154.72
942.069	35.57
942.238	71.99
942.408	51.84
942.577	66.96
942.747	78
942.916	2.63
943.086	22.98
943.255	67.34
943.425	68.12
943.594	48.55
943.763	2.83
943.933	25.11
944.102	-35.15
944.271	34.79
944.441	38.67
944.61	15.61
944.779	52.23
944.948	118.69
945.117	-0.27
945.287	3.99
945.456	-15.58
945.625	-6.86
945.794	54.56
945.963	19.29
946.132	53.97
946.301	44.48
946.47	61.34
946.639	-15.58
946.808	28.01
946.977	67.54
947.146	78.19
947.315	22.39
947.484	38.47
947.653	22.39
947.822	10.38
947.991	5.93
948.16	102.61
948.329	94.08
948.498	40.22
948.666	40.8
948.835	78.58
949.004	-8.41
949.173	12.13
949.341	40.61
949.51	74.12
949.679	68.12
949.847	44.87
950.016	129.34
950.185	65.21
950.353	38.86
950.522	37.31
950.69	81.29
950.859	5.34
951.028	72.19
951.196	51.84
951.365	14.26
951.533	43.32
951.701	79.74
951.87	60.37
952.038	-4.73
952.207	38.47
952.375	101.25
952.543	45.64
952.712	31.89
952.88	21.23
953.048	96.41
953.217	28.98
953.385	18.33
953.553	88.27
953.721	21.43
953.89	16
954.058	15.61
954.226	1.28
954.394	26.46
954.562	-1.82
954.73	36.34
954.898	42.54
955.067	81.29
955.235	35.38
955.403	99.12
955.571	92.14
955.739	50.29
955.907	8.25
956.075	5.15
956.243	38.28
956.41	59.98
956.578	-3.37
956.746	-12.09
956.914	10.96
957.082	50.87
957.25	30.53
957.418	6.7
957.585	31.31
957.753	73.35
957.921	20.46
958.089	34.41
958.256	46.42
958.424	50.87
958.592	68.31
958.759	15.61
958.927	38.09
959.095	22.39
959.262	49.13
959.43	24.91
959.597	2.83
959.765	49.32
959.932	14.64
960.1	91.95
960.267	31.69
960.435	34.41
960.602	62.5
960.77	22.01
960.937	-3.57
961.104	17.36
961.272	-4.15
961.439	1.28
961.606	28.79
961.774	71.99
961.941	24.91
962.108	51.26
962.275	22.2
962.443	73.35
962.61	59.59
962.777	105.9
962.944	70.25
963.111	38.28
963.278	45.45
963.446	53.97
963.613	46.22
963.78	37.12
963.947	69.86
964.114	58.04
964.281	133.6
964.448	59.98
964.615	40.22
964.782	39.64
964.949	73.74
965.116	69.86
965.282	88.07
965.449	17.16
965.616	1.47
965.783	63.47
965.95	72.19
966.117	4.18
966.283	60.17
966.45	54.94
966.617	69.28
966.784	90.59
966.95	84.01
967.117	88.66
967.284	22.59
967.45	-5.7
967.617	118.49
967.784	46.22
967.95	87.88
968.117	59.01
968.283	84.78
968.45	141.16
968.616	60.95
968.783	97.37
968.949	67.34
969.116	85.17
969.282	57.46
969.449	78.39
969.615	56.88
969.781	1.47
969.948	71.41
970.114	31.11
970.28	112.29
970.447	60.56
970.613	101.83
970.779	41.38
970.945	74.9
971.112	74.12
971.278	54.56
971.444	61.53
971.61	93.11
971.776	41.19
971.942	67.15
972.108	88.85
972.275	61.14
972.441	63.66
972.607	129.15
972.773	39.64
972.939	74.71
973.105	52.81
973.271	22.01
973.437	34.6
973.602	34.79
973.768	84.97
973.934	62.31
974.1	54.56
974.266	-13.84
974.432	81.68
974.598	30.53
974.763	72.57
974.929	38.28
975.095	103.57
975.261	25.11
975.426	27.63
975.592	60.17
975.758	139.03
975.923	6.7
976.089	32.08
976.255	74.32
976.42	72.57
976.586	70.25
976.751	46.81
976.917	138.45
977.082	81.1
977.248	30.34
977.413	-13.06
977.579	34.99
977.744	50.29
977.91	8.44
978.075	4.57
978.24	76.64
978.406	25.49
978.571	37.51
978.736	26.46
978.902	99.7
979.067	17.94
979.232	-2.41
979.397	51.84
979.563	130.5
979.728	-23.91
979.893	32.08
980.058	46.81
980.223	72.19
980.388	37.89
980.554	56.88
980.719	13.48
980.884	47.77
981.049	95.63
981.214	42.16
981.379	63.66
981.544	37.31
981.709	60.95
981.874	44.48
982.039	47.97
982.204	71.22
982.368	68.31
982.533	5.93
982.698	83.42
982.863	76.45
983.028	36.54
983.193	75.67
983.357	50.49
983.522	27.04
983.687	65.02
983.852	28.21
984.016	60.76
984.181	31.69
984.346	66.76
984.51	62.11
984.675	46.81
984.839	49.52
985.004	48.74
985.168	82.65
985.333	84.2
985.498	33.44
985.662	61.34
985.827	76.84
985.991	43.9
986.155	40.02
986.32	59.79
986.484	123.92
986.649	70.06
986.813	3.41
986.977	44.87
987.142	74.9
987.306	5.54
987.47	20.65
987.634	53.39
987.799	58.82
987.963	74.9
988.127	62.11
988.291	110.36
988.455	54.36
988.62	57.46
988.784	48.55
988.948	76.06
989.112	38.86
989.276	43.71
989.44	61.14
989.604	22.39
989.768	19.29
989.932	130.5
990.096	5.93
990.26	12.13
990.424	32.66
990.588	32.47
990.752	121.4
990.915	62.5
991.079	51.65
991.243	-4.54
991.407	53.97
991.571	40.99
991.734	41.96
991.898	25.49
992.062	92.14
992.226	48.74
992.389	15.23
992.553	6.89
992.717	22.01
992.88	39.64
993.044	31.11
993.207	51.65
993.371	49.91
993.535	49.52
993.698	67.54
993.862	51.65
994.025	84.2
994.189	47.39
994.352	45.64
994.515	61.14
994.679	84.2
994.842	27.43
995.006	57.27
995.169	33.83
995.332	4.18
995.496	59.79
995.659	-8.61
995.822	62.89
995.985	24.91
996.149	80.52
996.312	32.47
996.475	91.37
996.638	16.78
996.801	79.16
996.964	133.02
997.128	41.96
997.291	28.98
997.454	48.55
997.617	0.89
997.78	72.38
997.943	-3.37
998.106	83.81
998.269	-17.13
998.432	37.51
998.595	38.67
998.758	-14.81
998.92	46.03
999.083	-27.01
999.246	30.34
999.409	-13.84
999.572	-10.16
999.735	16.19
999.897	50.1
1000.06	22.59
1000.223	21.43
1000.386	50.49
1000.548	47
1000.711	41.38
1000.874	47.77
1001.036	-8.61
1001.199	75.48
1001.361	15.42
1001.524	54.17
1001.687	44.48
1001.849	-8.61
1002.012	38.09
1002.174	43.9
1002.337	29.76
1002.499	30.14
1002.661	89.24
1002.824	-11.12
1002.986	-15.39
1003.149	43.9
1003.311	11.35
1003.473	84.78
1003.636	9.03
1003.798	34.21
1003.96	59.59
1004.123	41.38
1004.285	-7.25
1004.447	25.11
1004.609	33.05
1004.771	96.41
1004.933	-0.66
1005.096	1.86
1005.258	-17.91
1005.42	5.73
1005.582	30.34
1005.744	32.28
1005.906	-0.47
1006.068	39.25
1006.23	-7.06
1006.392	-58.01
1006.554	-8.02
1006.716	60.37
1006.878	40.99
1007.04	-13.84
1007.202	15.81
1007.363	25.88
1007.525	53.01
1007.687	38.86
1007.849	54.56
1008.011	-34.57
1008.172	-6.47
1008.334	4.76
1008.496	26.46
1008.658	-46.77
1008.819	-14.03
1008.981	-16.16
1009.143	10.58
1009.304	-5.7
1009.466	27.43
1009.627	67.34
1009.789	93.89
1009.95	49.32
1010.112	3.79
1010.273	40.22
1010.435	2.05
1010.596	1.47
1010.758	6.89
1010.919	27.43
1011.081	3.6
1011.242	9.41
1011.403	53.39
1011.565	7.67
1011.726	48.36
1011.887	-14.22
1012.049	12.9
1012.21	39.83
1012.371	61.72
1012.532	-63.63
1012.693	34.41
1012.855	5.15
1013.016	8.25
1013.177	40.02
1013.338	-1.63
1013.499	64.05
1013.66	42.93
1013.821	42.74
1013.982	27.04
1014.143	25.49
1014.304	18.13
1014.465	36.54
1014.626	45.06
1014.787	-7.64
1014.948	96.41
1015.109	-60.34
1015.27	64.44
1015.431	-20.42
1015.592	-22.36
1015.752	56.11
1015.913	34.41
1016.074	37.31
1016.235	2.63
1016.395	13.48
1016.556	15.23
1016.717	21.04
1016.877	61.72
1017.038	-10.93
1017.199	48.16
1017.359	9.41
1017.52	33.83
1017.681	-6.67
1017.841	16
1018.002	16.39
1018.162	2.83
1018.323	59.01
1018.483	3.6
1018.644	30.14
1018.804	-5.89
1018.964	-17.32
1019.125	11.93
1019.285	24.91
1019.446	-23.52
1019.606	-2.41
1019.766	-38.83
1019.926	30.14
1020.087	23.17
1020.247	-53.75
1020.407	50.1
1020.567	55.14
1020.728	4.96
1020.888	-15.58
1021.048	-8.41
1021.208	-30.11
1021.368	15.03
1021.528	45.26
1021.688	35.76
1021.848	36.34
1022.008	36.34
1022.168	-4.92
1022.328	26.08
1022.488	28.21
1022.648	-3.18
1022.808	16.39
1022.968	24.33
1023.128	-14.42
1023.288	-9.57
1023.448	31.89
1023.608	40.61
1023.767	33.44
1023.927	-4.92
1024.087	-23.14
1024.247	-43.29
1024.406	1.66
1024.566	-27.98
1024.726	-10.35
1024.885	22.78
1025.045	50.1
1025.205	17.74
1025.364	-9.38
1025.524	25.88
1025.683	-20.23
1025.843	19.49
1026.003	12.32
1026.162	70.64
1026.321	34.02
1026.481	15.81
1026.64	-1.63
1026.8	3.41
1026.959	-6.09
1027.119	9.61
1027.278	6.51
1027.437	-27.59
1027.597	-11.9
1027.756	40.99
1027.915	15.42
1028.074	25.69
1028.234	-15.97
1028.393	0.5
1028.552	17.55
1028.711	-60.72
1028.87	61.92
1029.03	-47.94
1029.189	23.17
1029.348	-37.86
1029.507	-2.79
1029.666	-7.25
1029.825	-16.55
1029.984	-19.07
1030.143	24.14
1030.302	-17.13
1030.461	-68.86
1030.62	6.89
1030.779	29.37
1030.938	-33.6
1031.097	-33.99
1031.255	26.66
1031.414	51.46
1031.573	38.67
1031.732	-58.2
1031.891	9.8
1032.049	51.84
1032.208	12.51
1032.367	-16.16
1032.525	0.31
1032.684	-13.06
1032.843	5.15
1033.001	-37.09
1033.16	136.51
1033.319	54.17
1033.477	18.91
1033.636	-7.06
1033.794	-35.15
1033.953	36.15
1034.111	28.79
1034.27	-6.67
1034.428	37.89
1034.587	-15.39
1034.745	23.17
1034.903	1.28
1035.062	17.94
1035.22	-25.27
1035.378	2.44
1035.537	-31.86
1035.695	19.49
1035.853	-10.93
1036.011	34.79
1036.17	8.06
1036.328	-59.75
1036.486	19.49
1036.644	22.01
1036.802	-55.69
1036.96	-21.59
1037.119	-12.29
1037.277	-16.55
1037.435	-53.75
1037.593	-40.96
1037.751	9.8
1037.909	44.67
1038.067	44.67
